 -85.1515
 -85.1782
 -85.1748
 -85.1872
 -85.3807
 -85.3821
 -85.3847
 -85.3864
 -85.3506
 -85.3457
 -85.3515
 -85.3474
 -85.3561
 -85.3501
 -85.3508
 -85.3473
 -85.4242
 -85.4264
 -85.4224
 -85.4213
 -85.4184
 -85.4159
 -85.4204
 -85.4169
 -85.0444
 -85.0255
 -85.0315
 -85.0414
 -85.096
 -85.0994
 -85.1
 -85.0929
 -85.4176
 -85.4163
 -85.4129
 -85.4159
 -85.4169
 -85.4173
 -85.4164
 -85.4207
 -84.9452
 -84.9294
 -84.9524
 -84.9562
 -85.3441
 -85.3455
 -85.3398
 -85.3431
 -85.2211
 -85.2216
 -85.2118
 -85.2303
 -85.3901
 -85.3845
 -85.3819
 -85.3863
 -85.3222
 -85.3189
 -85.3232
 -85.3278
 -85.101
 -85.0875
 -85.1124
 -85.0898
 -85.409
 -85.4109
 -85.4084
 -85.4115
 -85.3595
 -85.356
 -85.3608
 -85.3575
 -85.3283
 -85.3315
 -85.3321
 -85.3361
 -85.4017
 -85.4019
 -85.4038
 -85.406
 -85.0523
 -85.0236
 -85.0545
 -85.0336
 -85.4304
 -85.4312
 -85.4335
 -85.4331
 -83.2704
 -83.1868
 -83.0742
 -83.2555
 -85.3796
 -85.3806
 -85.3758
 -85.3754
 -85.3145
 -85.3086
 -85.312
 -85.3167
 -85.3389
 -85.341
 -85.3382
 -85.3364
 -85.2816
 -85.2918
 -85.2964
 -85.2821
 -85.0801
 -85.061
 -85.081
 -85.071
 -85.2205
 -85.2168
 -85.207
 -85.2149
 -85.3859
 -85.3857
 -85.3829
 -85.3803
 -85.3183
 -85.3266
 -85.3153
 -85.3198
 -85.222
 -85.2309
 -85.2315
 -85.222
 -85.3712
 -85.3668
 -85.3728
 -85.3677
 -85.3805
 -85.3786
 -85.3779
 -85.3791
 -85.2312
 -85.2234
 -85.2346
 -85.2153
 -85.1376
 -85.1333
 -85.1332
 -85.1356
 -85.367
 -85.3599
 -85.3667
 -85.3644
 -84.7383
 -84.7791
 -84.7691
 -84.8108
 -85.3721
 -85.3721
 -85.3795
 -85.3772
 -85.4352
 -85.4332
 -85.4346
 -85.4325
 -85.346
 -85.3449
 -85.3474
 -85.3396
 -85.382
 -85.3856
 -85.3837
 -85.3832
 -84.9453
 -84.9357
 -84.951
 -84.9221
 -85.3624
 -85.3593
 -85.3607
 -85.3658
 -85.4168
 -85.416
 -85.4191
 -85.4178
 -85.1944
 -85.2048
 -85.2003
 -85.1955
 -85.3664
 -85.3725
 -85.3709
 -85.3707
 -85.0857
 -85.1011
 -85.0764
 -85.0526
 -85.2465
 -85.2391
 -85.236
 -85.2308
 -85.3294
 -85.3244
 -85.3227
 -85.3202
 -85.0504
 -85.0452
 -85.0354
 -85.0422
 -85.3298
 -85.3244
 -85.324
 -85.3288
 -85.2545
 -85.2391
 -85.2511
 -85.2333
 -85.3469
 -85.35
 -85.3459
 -85.3502
 -85.2091
 -85.22
 -85.215
 -85.2293
 -85.3434
 -85.3422
 -85.3476
 -85.3396
 -85.3727
 -85.3739
 -85.3762
 -85.3784
 -85.3802
 -85.3786
 -85.381
 -85.3744
 -85.1863
 -85.1914
 -85.1672
 -85.1967
 -85.2675
 -85.2626
 -85.2668
 -85.278
 -83.6343
 -83.4624
 -83.4238
 -83.5313
 -85.2207
 -85.2205
 -85.2086
 -85.2174
 -85.3207
 -85.3282
 -85.3258
 -85.328
 -85.2607
 -85.2583
 -85.2732
 -85.2504
 -85.2618
 -85.2739
 -85.2595
 -85.2719
 -85.0974
 -85.0843
 -85.1032
 -85.1011
 -85.4053
 -85.4092
 -85.4102
 -85.4048
 -85.4248
 -85.4259
 -85.4269
 -85.4274
 -85.3355
 -85.342
 -85.33
 -85.3337
 -85.2229
 -85.2203
 -85.2311
 -85.2175
 -85.3704
 -85.3727
 -85.3753
 -85.3699
 -85.0481
 -85.0063
 -85.0188
 -85.0171
 -85.0331
 -85.0109
 -85.009
 -85.0436
 -83.5324
 -83.4219
 -83.6035
 -83.5819
 -85.3482
 -85.3527
 -85.3508
 -85.3558
 -85.1643
 -85.1889
 -85.1924
 -85.1693
 -85.1398
 -85.1217
 -85.1359
 -85.1592
 -85.4282
 -85.4305
 -85.4295
 -85.4309
 -85.146
 -85.1429
 -85.1313
 -85.1462
 -85.1571
 -85.1473
 -85.1346
 -85.1549
 -85.1878
 -85.1985
 -85.1886
 -85.1774
 -85.2875
 -85.2846
 -85.293
 -85.2906
 -85.1702
 -85.1846
 -85.1756
 -85.1789
 -85.2437
 -85.2518
 -85.2545
 -85.2469
 -85.2655
 -85.2634
 -85.2602
 -85.2553
 -85.1168
 -85.0971
 -85.1256
 -85.1064
 -83.0024
 -82.9023
 -83.2612
 -83.288
 -85.0771
 -85.0847
 -85.096
 -85.0859
 -85.3491
 -85.3472
 -85.3524
 -85.3428
 -85.3513
 -85.3502
 -85.3552
 -85.3515
 -85.3786
 -85.3777
 -85.3756
 -85.382
 -85.0871
 -85.0858
 -85.0887
 -85.0946
 -85.4316
 -85.4316
 -85.4299
 -85.4334
 -85.3778
 -85.3816
 -85.3778
 -85.3785
 -84.825
 -84.8138
 -84.7748
 -84.7937
 -85.2469
 -85.2481
 -85.2417
 -85.2625
 -85.1577
 -85.1662
 -85.1461
 -85.1536
 -85.1639
 -85.1553
 -85.157
 -85.0936
 -85.0914
 -85.091
 -85.0859
 -85.362
 -85.359
 -85.3566
 -85.3641
 -85.2829
 -85.2947
 -85.289
 -85.282
 -85.3562
 -85.3612
 -85.3584
 -85.2188
 -85.2017
 -85.2113
 -85.2039
 -85.3082
 -85.3113
 -85.3099
 -85.3027
 -85.3983
 -85.3949
 -85.3949
 -85.401
 -85.0501
 -85.0569
 -85.0933
 -85.0783
 -85.1122
 -85.0965
 -85.091
 -85.1001
 -85.3512
 -85.3456
 -85.3437
 -85.3456
 -85.3726
 -85.37
 -85.3777
 -85.3768
 -84.9123
 -84.8985
 -84.8824
 -84.8503
 -85.0974
 -85.1015
 -85.1297
 -85.1216
 -85.2604
 -85.273
 -85.2795
 -85.2637
 -85.4196
 -85.4221
 -85.4204
 -85.4212
 -85.3481
 -85.3538
 -85.3547
 -85.3527
 -85.3065
 -85.2933
 -85.3065
 -85.3057
 -84.1115
 -83.9575
 -84.1374
 -84.1187
 -85.2926
 -85.2829
 -85.2941
 -85.3002
 -85.3974
 -85.3937
 -85.3976
 -85.3916
 -85.1674
 -85.1397
 -85.1817
 -85.1692
 -85.1531
 -85.1566
 -85.1392
 -85.1487
 -85.126
 -85.106
 -85.112
 -85.119
 -84.9004
 -84.8955
 -84.8938
 -84.9065
 -85.1369
 -85.1108
 -85.1108
 -85.1106
 -85.3543
 -85.3531
 -85.3539
 -85.3502
 -85.0344
 -85.0398
 -85.0506
 -85.0585
 -85.416
 -85.4133
 -85.4146
 -85.4158
 -85.0224
 -84.9907
 -84.9952
 -85.0194
 -85.3972
 -85.3914
 -85.3969
 -85.3935
 -85.2888
 -85.2806
 -85.2806
 -85.2865
 -85.2359
 -85.2439
 -85.2504
 -85.2374
 -85.2058
 -85.2077
 -85.2216
 -85.2094
 -85.1815
 -85.1808
 -85.1721
 -85.165
 -85.4296
 -85.4315
 -85.4321
 -85.4321
 -85.1958
 -85.191
 -85.1948
 -85.1917
 -85.4351
 -85.4335
 -85.4345
 -85.4321
 -85.374
 -85.3735
 -85.379
 -85.375
 -84.5237
 -84.6317
 -84.604
 -84.5088
 -85.4212
 -85.4204
 -85.4231
 -85.4244
 -85.0999
 -85.1287
 -85.1067
 -85.0865
 -84.3244
 -84.2862
 -84.2705
 -84.3034
 -85.3905
 -85.3898
 -85.388
 -85.3902
 -85.4256
 -85.428
 -85.4265
 -85.4259
 -85.3215
 -85.3254
 -85.3199
 -85.3202
 -85.3837
 -85.3791
 -85.3851
 -85.3809
 -85.1654
 -85.1475
 -85.1559
 -85.1556
 -85.3387
 -85.3366
 -85.3395
 -85.3455
 -85.2354
 -85.2244
 -85.2355
 -85.2364
 -85.1031
 -85.1097
 -85.1012
 -85.1003
 -84.9708
 -84.9665
 -84.9669
 -84.987
 -85.2827
 -85.2785
 -85.2883
 -85.2755
 -85.308
 -85.3098
 -85.3061
 -85.3012
 -85.1465
 -85.1412
 -85.1529
 -85.1644
 -85.1516
 -85.1338
 -85.1532
 -85.1481
 -85.359
 -85.3595
 -85.3547
 -85.3556
 -85.4189
 -85.4181
 -85.4214
 -85.4218
 -85.4144
 -85.4118
 -85.4148
 -85.4154
 -85.4129
 -85.4086
 -85.4096
 -85.4114
 -85.3614
 -85.3592
 -85.3634
 -85.3578
 -85.148
 -85.13
 -85.1445
 -85.1388
 -85.1532
 -85.1617
 -85.1656
 -85.17
 -85.3022
 -85.3018
 -85.2859
 -85.288
 -85.3761
 -85.3732
 -85.381
 -85.3784
 -85.3746
 -85.3717
 -85.3729
 -85.3763
 -85.3317
 -85.326
 -85.3293
 -85.3302
 -85.3453
 -85.3499
 -85.3426
 -85.3447
 -84.9531
 -84.9474
 -84.9596
 -84.9888
 -81.4727
 -81.2859
 -81.4838
 -80.9818
 -85.1749
 -85.1723
 -85.1485
 -85.1615
 -82.8073
 -83.137
 -83.037
 -85.1824
 -85.179
 -85.1882
 -85.1643
 -85.4015
 -85.3989
 -85.4006
 -85.3978
 -85.3242
 -85.3286
 -85.3292
 -85.334
 -85.419
 -85.4176
 -85.4213
 -85.4174
 -85.149
 -85.1522
 -85.1365
 -85.1521
 -85.3674
 -85.3651
 -85.3716
 -85.3702
 -85.3326
 -85.3338
 -85.3258
 -85.3278
 -85.4264
 -85.4278
 -85.4289
 -85.425
 -85.3946
 -85.394
 -85.3955
 -85.3996
 -85.174
 -85.191
 -85.1793
 -85.1733
 -85.365
 -85.3642
 -85.3596
 -85.3643
 -85.3997
 -85.3935
 -85.3973
 -85.3941
 -84.2499
 -84.0749
 -84.2015
 -84.0934
 -85.3201
 -85.3239
 -85.3264
 -85.3271
 -85.3986
 -85.3994
 -85.402
 -85.3992
 -85.3541
 -85.359
 -85.3501
 -85.3611
 -85.3927
 -85.3883
 -85.3934
 -85.3926
 -85.1416
 -85.1572
 -85.1649
 -85.1698
 -85.3928
 -85.4009
 -85.393
 -85.3995
 -85.2699
 -85.2765
 -85.2557
 -85.2672
 -85.2939
 -85.2987
 -85.304
 -85.2917
 -85.3926
 -85.3926
 -85.389
 -85.3944
 -85.4354
 -85.4338
 -85.4339
 -85.4352
 -84.9815
 -84.9981
 -85.0077
 -85.0155
 -85.2356
 -85.2434
 -85.2508
 -85.2385
 -85.3366
 -85.3337
 -85.3292
 -85.3312
 -85.3944
 -85.3969
 -85.3964
 -85.3967
 -85.2004
 -85.1914
 -85.1933
 -85.1939
 -84.9998
 -85.0363
 -85.0508
 -85.0083
 -85.3704
 -85.3706
 -85.3651
 -85.3648
 -85.3502
 -85.3555
 -85.3506
 -85.3524
 -85.4221
 -85.424
 -85.4261
 -85.422
 -85.077
 -85.1027
 -85.0703
 -85.0954
 -85.4255
 -85.4277
 -85.4272
 -85.4258
 -85.2196
 -85.239
 -85.2332
 -85.2269
 -81.7979
 -81.7006
 -81.7851
 -81.9245
 -85.4097
 -85.4125
 -85.4133
 -85.4123
 -85.3633
 -85.3664
 -85.3611
 -85.3547
 -85.414
 -85.414
 -85.412
 -85.4114
 -85.3031
 -85.2939
 -85.3026
 -85.3052
 -85.2866
 -85.2936
 -85.295
 -85.2891
 -85.3868
 -85.3818
 -85.3833
 -85.3836
 -85.1476
 -85.1536
 -85.1403
 -85.1501
 -85.1266
 -85.1374
 -85.1372
 -85.1327
 -83.7556
 -83.6573
 -83.7016
 -83.6397
 -85.3283
 -85.3333
 -85.3358
 -85.3392
 -85.3099
 -85.3042
 -85.3159
 -85.3087
 -85.3569
 -85.3489
 -85.353
 -85.3582
 -85.2359
 -85.25
 -85.251
 -85.2315
 -85.419
 -85.4185
 -85.4208
 -85.4161
 -85.4248
 -85.4292
 -85.4252
 -85.4241
 -85.3586
 -85.3615
 -85.3664
 -85.3663
 -78.9968
 -78.9603
 -79.0831
 -79.2435
 -85.2626
 -85.2564
 -85.2658
 -85.2519
 -85.2747
 -85.2712
 -85.2613
 -85.2713
 -85.2666
 -85.2673
 -85.2571
 -85.2562
 -85.3881
 -85.3863
 -85.3914
 -85.3852
 -84.2262
 -84.3261
 -84.1174
 -84.212
 -83.0664
 -83.1496
 -82.83
 -82.8731
 -85.3877
 -85.3842
 -85.3882
 -85.3834
 -85.2061
 -85.2224
 -85.1991
 -85.223
 -85.2632
 -85.2631
 -85.2668
 -85.2673
 -85.3571
 -85.3526
 -85.3524
 -85.3463
 -85.1371
 -85.1451
 -85.1521
 -85.1438
 -85.3957
 -85.3907
 -85.3922
 -85.3948
 -85.2378
 -85.2126
 -85.2278
 -85.2096
 -85.2101
 -85.2053
 -85.192
 -85.2078
 -84.9928
 -84.9727
 -85.0157
 -84.965
 -85.2683
 -85.283
 -85.2709
 -85.2823
 -85.4025
 -85.4046
 -85.4046
 -85.4017
 -85.3649
 -85.3711
 -85.3728
 -85.3672
 -85.1083
 -85.1028
 -85.1246
 -85.1242
 -85.1924
 -85.2105
 -85.2112
 -85.1919
 -85.415
 -85.416
 -85.4179
 -85.4174
 -85.394
 -85.3912
 -85.3932
 -85.3914
 -85.2727
 -85.2691
 -85.262
 -85.2684
 -85.0855
 -85.0884
 -85.0875
 -85.0934
 -84.5852
 -84.7198
 -84.7096
 -84.6206
 -85.3601
 -85.3554
 -85.3524
 -85.3583
 -84.9995
 -84.9601
 -84.9976
 -84.9044
 -85.4055
 -85.4014
 -85.4011
 -85.405
 -85.3413
 -85.3488
 -85.3441
 -85.3384
 -85.4033
 -85.4025
 -85.4012
 -85.4017
 -85.3715
 -85.3666
 -85.3662
 -85.369
 -85.2754
 -85.2715
 -85.274
 -85.2816
 -85.1558
 -85.1317
 -85.1378
 -85.1472
 -84.6858
 -84.7863
 -84.6819
 -84.7169
 -84.9028
 -84.8283
 -84.9065
 -84.8762
 -85.124
 -85.0914
 -85.0842
 -85.0891
 -85.2979
 -85.3007
 -85.298
 -85.2857
 -85.3029
 -85.3017
 -85.3068
 -85.2959
 -85.3111
 -85.3035
 -85.3174
 -85.3093
 -85.3645
 -85.3612
 -85.3658
 -85.3651
 -84.0983
 -83.9637
 -83.9338
 -83.9216
 -85.3313
 -85.3324
 -85.3294
 -85.3354
 -85.1046
 -85.0782
 -85.0885
 -85.0957
 -85.2585
 -85.2723
 -85.2631
 -85.2717
 -85.423
 -85.4185
 -85.4226
 -85.4218
 -85.2862
 -85.2809
 -85.2809
 -85.2774
 -85.0434
 -85.0326
 -85.0391
 -85.0083
 -85.2477
 -85.2488
 -85.2555
 -85.2618
 -85.1633
 -85.1729
 -85.1708
 -85.1601
 -85.2745
 -85.2637
 -85.2788
 -85.2719
 -84.1957
 -84.095
 -84.1328
 -84.1856
 -85.2674
 -85.2673
 -85.2784
 -85.2789
 -85.3651
 -85.3635
 -85.3668
 -85.3645
 -85.3436
 -85.3443
 -85.3473
 -85.3443
 -85.4142
 -85.4084
 -85.4134
 -85.4106
 -85.1952
 -85.1915
 -85.2028
 -85.1947
 -85.137
 -85.1524
 -85.1395
 -85.1711
 -85.4104
 -85.4061
 -85.4109
 -85.4102
 -85.1623
 -85.1617
 -85.1822
 -85.1623
 -85.4028
 -85.4011
 -85.4045
 -85.401
 -85.3198
 -85.3297
 -85.3228
 -85.3262
 -85.3002
 -85.2878
 -85.2997
 -85.3026
 -85.1591
 -85.1729
 -85.169
 -85.1574
 -85.2851
 -85.2829
 -85.2897
 -85.2798
 -85.4053
 -85.4034
 -85.4056
 -85.4057
 -81.8068
 -81.8158
 -81.8543
 -81.5596
 -85.0814
 -85.0789
 -85.0791
 -85.0825
 -85.0422
 -85.0429
 -85.0417
 -85.0249
 -85.2113
 -85.2155
 -85.2055
 -85.2235
 -85.2623
 -85.2542
 -85.2613
 -85.256
 -85.1975
 -85.1911
 -85.1839
 -85.2023
 -85.4226
 -85.421
 -85.4258
 -85.4199
 -85.1476
 -85.1385
 -85.142
 -85.1584
 -85.3573
 -85.3585
 -85.3608
 -85.3559
 -85.2944
 -85.3916
 -85.3866
 -85.3886
 -85.3885
 -85.3456
 -85.3493
 -85.3529
 -85.3511
 -84.9493
 -84.988
 -84.9999
 -84.9719
 -85.2252
 -85.2187
 -85.2271
 -85.2364
 -85.1485
 -85.1278
 -85.1454
 -85.1574
 -85.3988
 -85.3953
 -85.3953
 -85.3957
 -85.2733
 -85.2557
 -85.268
 -85.2624
 -85.4034
 -85.4046
 -85.3999
 -85.3996
 -85.3692
 -85.3725
 -85.3673
 -85.374
 -84.9858
 -85.0005
 -84.9886
 -85.0156
 -85.114
 -85.0852
 -85.1334
 -85.1185
 -85.368
 -85.3712
 -85.3711
 -85.3677
 -85.285
 -85.2716
 -85.2796
 -85.0363
 -85.0143
 -85.0211
 -85.0493
 -85.3575
 -85.349
 -85.3542
 -85.3489
 -85.1683
 -85.1504
 -85.1465
 -85.1678
 -85.2902
 -85.2752
 -85.282
 -85.2901
 -85.4118
 -85.4118
 -85.4075
 -85.4114
 -85.207
 -85.2011
 -85.195
 -85.2064
 -85.3928
 -85.3888
 -85.3926
 -85.3939
 -85.3071
 -85.3034
 -85.3084
 -85.2994
 -85.3801
 -85.3776
 -85.374
 -85.3765
 -85.4089
 -85.409
 -85.4124
 -85.4106
 -85.2129
 -85.2117
 -85.2198
 -85.2196
 -81.5116
 -82.0471
 -81.841
 -82.1656
 -85.4243
 -85.4221
 -85.4227
 -85.4216
 -85.3533
 -85.3514
 -85.3469
 -85.3496
 -85.0698
 -85.0718
 -85.1075
 -85.0787
 -85.2516
 -85.2564
 -85.262
 -85.2496
 -84.3773
 -84.4072
 -84.4358
 -84.3292
 -85.405
 -85.4067
 -85.4111
 -85.407
 -85.1021
 -85.0952
 -85.0991
 -85.0998
 -85.322
 -85.3279
 -85.3185
 -85.3237
 -85.105
 -85.0599
 -85.0931
 -85.0988
 -85.4297
 -85.4289
 -85.4295
 -85.4257
 -85.4286
 -85.4284
 -85.4263
 -85.425
 -85.3681
 -85.3626
 -85.3617
 -85.3684
 -85.3285
 -85.3311
 -85.3283
 -85.3238
 -85.3316
 -84.9861
 -85.0001
 -84.9377
 -84.9869
 -85.0875
 -85.0754
 -85.0705
 -85.1005
 -85.358
 -85.3634
 -85.3638
 -85.3631
 -85.1108
 -85.122
 -85.1223
 -85.1104
 -85.1504
 -85.1474
 -85.1436
 -85.1632
 -85.3651
 -85.3671
 -85.3653
 -85.3612
 -85.2236
 -85.2369
 -85.2232
 -85.2373
 -85.3629
 -85.3635
 -85.365
 -85.3682
 -85.1603
 -85.155
 -85.1379
 -85.1645
 -85.2169
 -85.229
 -85.2275
 -85.2295
 -85.2741
 -85.2814
 -85.2689
 -85.2805
 -85.3298
 -85.3368
 -85.3313
 -85.338
 -85.3852
 -85.383
 -85.3889
 -85.3891
 -85.3149
 -85.3127
 -85.3083
 -85.3089
 -85.3187
 -85.3201
 -85.3242
 -85.3213
 -84.997
 -84.9962
 -85.0079
 -85.016
 -85.356
 -85.3577
 -85.3589
 -85.3583
 -85.3017
 -85.3042
 -85.3064
 -85.3
 -85.3156
 -85.3165
 -85.3108
 -85.3158
 -85.2418
 -85.2462
 -85.2305
 -85.2389
 -85.0469
 -85.0453
 -85.0575
 -85.0303
 -85.379
 -85.3794
 -85.3826
 -85.3816
 -85.0543
 -85.0328
 -85.0416
 -85.0698
 -85.425
 -85.4248
 -85.4279
 -85.4264
 -85.3951
 -85.3922
 -85.3976
 -85.3961
 -85.3984
 -85.3985
 -85.3984
 -85.3972
 -85.394
 -85.3935
 -85.3925
 -85.3965
 -85.3687
 -85.3711
 -85.366
 -85.3715
 -84.658
 -84.6061
 -84.4945
 -85.3177
 -85.308
 -85.3168
 -85.3131
 -85.3901
 -85.3889
 -85.3874
 -85.3905
 -85.2345
 -85.2206
 -85.2289
 -85.2328
 -85.182
 -85.1826
 -85.1772
 -85.1865
 -85.3735
 -85.3741
 -85.3786
 -85.3695
 -85.27
 -85.2664
 -85.274
 -85.2784
 -85.1961
 -85.1969
 -85.1954
 -85.1896
 -85.4207
 -85.4241
 -85.3476
 -85.3457
 -85.341
 -85.3403
 -85.2775
 -85.278
 -85.2705
 -85.3315
 -85.3326
 -85.3303
 -85.326
 -84.6944
 -84.6964
 -84.7666
 -84.7604
 -85.3931
 -85.3965
 -85.396
 -85.3924
 -85.3305
 -85.3288
 -85.3252
 -85.3255
 -85.2316
 -85.2185
 -85.2239
 -85.2336
 -85.3076
 -85.298
 -85.3016
 -85.3044
 -85.1045
 -85.101
 -85.1003
 -85.1004
 -85.0062
 -85.0455
 -85.0183
 -85.0262
 -85.2606
 -85.2698
 -85.2708
 -85.2656
 -85.0392
 -85.0285
 -85.0408
 -85.0641
 -85.2718
 -85.2666
 -85.2685
 -85.2643
 -85.3979
 -85.3974
 -85.3931
 -85.3924
 -85.1192
 -85.1275
 -85.1325
 -85.1261
 -83.6873
 -83.8583
 -83.6065
 -83.7513
 -85.3374
 -85.3263
 -85.3348
 -85.3343
 -85.2499
 -85.2575
 -85.2484
 -85.258
 -85.0985
 -85.0942
 -85.1088
 -85.1043
 -85.2838
 -85.2764
 -85.2856
 -85.2871
 -85.416
 -85.4147
 -85.4168
 -85.4161
 -85.168
 -85.168
 -85.161
 -85.1702
 -85.3459
 -85.3402
 -85.3399
 -85.3395
 -85.2481
 -85.2562
 -85.2476
 -85.2653
 -85.3683
 -85.3706
 -85.3697
 -85.374
 -85.3995
 -85.3985
 -85.4007
 -85.3976
 -85.0818
 -85.0986
 -85.0871
 -85.1178
 -85.2036
 -85.2122
 -85.2101
 -85.2084
 -85.3259
 -85.3251
 -85.3169
 -85.3211
 -85.0891
 -85.0928
 -85.0921
 -85.0978
 -82.0137
 -81.8142
 -81.839
 -81.9994
 -85.3034
 -85.2951
 -85.2977
 -85.2928
 -81.2839
 -81.2318
 -81.2338
 -81.5407
 -81.9227
 -82.3169
 -82.193
 -81.9801
 -84.716
 -84.7662
 -84.742
 -84.6935
 -85.3542
 -85.3502
 -85.3469
 -85.344
 -85.3532
 -85.356
 -85.3572
 -85.3601
 -85.3604
 -85.3576
 -85.3602
 -85.3546
 -85.3415
 -85.3349
 -85.3367
 -85.3424
 -84.4073
 -84.3362
 -84.4046
 -84.4074
 -85.1283
 -85.1223
 -85.1382
 -85.1309
 -85.0451
 -85.0282
 -85.0443
 -85.0171
 -85.2247
 -85.2378
 -85.2257
 -85.2386
 -85.3125
 -85.3081
 -85.3134
 -85.3087
 -85.3699
 -85.3681
 -85.3661
 -85.3696
 -85.1233
 -85.1488
 -85.1606
 -85.1319
 -85.3551
 -85.2939
 -85.301
 -85.3011
 -85.2971
 -85.4274
 -85.4284
 -85.4313
 -85.4295
 -85.2684
 -85.2722
 -85.2766
 -85.2704
 -85.4071
 -85.4114
 -85.4081
 -85.1224
 -85.1285
 -85.1358
 -85.1198
 -82.9419
 -83.1626
 -83.0294
 -83.1379
 -85.285
 -85.2855
 -85.2981
 -85.2796
 -85.2389
 -85.2188
 -85.2224
 -85.2213
 -85.0696
 -85.0802
 -85.0951
 -85.1044
 -85.0922
 -85.0994
 -85.0849
 -85.1029
 -84.6497
 -84.6018
 -84.641
 -84.6443
 -85.3302
 -85.3279
 -85.3309
 -85.3404
 -85.2911
 -85.3013
 -85.2878
 -85.2966
 -85.2026
 -85.1838
 -85.202
 -85.1935
 -85.262
 -85.2582
 -85.2743
 -85.3717
 -85.3697
 -85.369
 -85.1279
 -85.1325
 -85.101
 -85.0952
 -84.9128
 -84.9044
 -84.904
 -84.9109
 -85.1603
 -85.1732
 -85.1691
 -85.1572
 -84.8336
 -84.775
 -84.8479
 -84.7575
 -85.3844
 -85.3893
 -85.3857
 -85.3872
 -85.3663
 -85.3691
 -85.3702
 -85.3735
 -85.0994
 -85.0944
 -85.097
 -85.0944
 -84.4089
 -84.2828
 -84.4069
 -84.4293
 -85.3073
 -85.2958
 -85.3063
 -85.3025
 -85.4188
 -85.415
 -85.4194
 -85.4156
 -84.8275
 -84.8196
 -84.7956
 -84.823
 -85.35
 -85.3452
 -85.3437
 -85.3514
 -83.699
 -83.5655
 -83.6609
 -83.572
 -85.368
 -85.37
 -85.3675
 -85.3737
 -85.2323
 -85.2204
 -85.2383
 -85.2172
 -85.3852
 -85.3856
 -85.3886
 -85.389
 -85.1165
 -85.1214
 -85.1226
 -85.1354
 -85.209
 -85.1976
 -85.1986
 -85.1991
 -85.092
 -85.0858
 -85.1147
 -85.1073
 -85.1712
 -85.1667
 -85.1867
 -85.1522
 -85.3061
 -85.3119
 -85.3115
 -85.3041
 -85.2615
 -85.2533
 -85.2644
 -85.2642
 -85.389
 -85.3856
 -85.3822
 -85.3825
 -85.4241
 -85.4262
 -85.4214
 -85.4218
 -85.24
 -85.2387
 -85.2302
 -85.2375
 -85.3966
 -85.3948
 -85.3941
 -85.3988
 -85.3622
 -85.3681
 -85.3716
 -85.3666
 -84.1958
 -84.1591
 -84.0294
 -84.2117
 -85.0024
 -85.0521
 -85.0399
 -85.0267
 -85.2321
 -85.225
 -85.2218
 -85.2239
 -84.646
 -84.6037
 -84.5945
 -84.535
 -85.3122
 -85.3197
 -85.319
 -85.3172
 -85.3814
 -85.3894
 -85.3851
 -85.3854
 -84.6795
 -84.7786
 -84.6823
 -84.6761
 -85.2658
 -85.2742
 -85.2692
 -85.2702
 -85.1838
 -85.1842
 -85.1846
 -85.177
 -81.971
 -82.2279
 -82.1289
 -81.9048
 -85.2273
 -85.2257
 -85.2225
 -85.236
 -85.2966
 -85.3024
 -85.3018
 -85.3028
 -85.3672
 -85.3725
 -85.3692
 -85.3737
 -85.1785
 -85.1832
 -85.189
 -85.2938
 -85.2919
 -85.2887
 -85.2934
 -85.1963
 -85.2013
 -85.2149
 -85.2035
 -85.3539
 -85.3489
 -85.3524
 -85.3521
 -85.351
 -85.3566
 -85.3569
 -85.3543
 -85.4017
 -85.3983
 -85.4005
 -85.3967
 -85.1211
 -85.1308
 -85.1397
 -85.1257
 -85.4156
 -85.417
 -85.4186
 -85.4163
 -85.1579
 -85.1709
 -85.1611
 -85.1547
 -85.2904
 -85.3003
 -85.2995
 -85.3052
 -85.3083
 -85.3008
 -85.3016
 -85.2987
 -81.6208
 -81.3223
 -81.5548
 -81.5827
 -85.1796
 -85.168
 -85.1798
 -85.1817
 -85.2782
 -85.2789
 -85.286
 -85.2959
 -85.2728
 -85.2768
 -85.2758
 -85.2666
 -85.4252
 -85.4252
 -85.4223
 -85.4251
 -85.1572
 -85.1712
 -85.1789
 -85.1619
 -85.1835
 -85.1745
 -85.1873
 -85.1711
 -85.3669
 -85.3708
 -85.3669
 -85.3703
 -85.0811
 -85.0762
 -85.0612
 -85.0583
 -85.0836
 -85.0771
 -85.092
 -85.0775
 -85.3452
 -85.3372
 -85.3445
 -85.3413
 -85.3555
 -85.3546
 -85.3502
 -85.3548
 -85.3104
 -85.3102
 -85.3194
 -85.3177
 -85.1691
 -85.1622
 -85.3362
 -85.3312
 -85.3398
 -85.3326
 -85.1831
 -85.1901
 -85.1851
 -85.186
 -85.2542
 -85.2651
 -85.2682
 -85.2625
 -85.4075
 -85.4056
 -85.4038
 -85.4085
 -85.2493
 -85.2524
 -85.2579
 -85.2596
 -85.3757
 -85.3792
 -85.3814
 -85.3742
 -85.0969
 -85.1404
 -85.1251
 -85.1388
 -85.2358
 -85.2263
 -85.222
 -85.2298
 -85.2786
 -85.2917
 -85.2838
 -85.2903
 -85.1377
 -85.1242
 -85.1181
 -85.1269
 -83.7043
 -83.659
 -83.6386
 -83.5081
 -85.4198
 -85.4194
 -85.4187
 -85.4198
 -84.8114
 -84.7902
 -84.8223
 -84.7896
 -85.3165
 -85.3201
 -85.3125
 -85.3133
 -83.6219
 -83.5955
 -83.7976
 -83.6406
 -85.3335
 -85.3389
 -85.334
 -85.3335
 -85.1628
 -85.1595
 -85.1556
 -85.1532
 -85.1661
 -85.1688
 -85.1553
 -85.1629
 -85.2988
 -85.3032
 -85.291
 -85.3005
 -85.3897
 -85.3846
 -85.3882
 -85.3838
 -85.2247
 -85.2399
 -85.236
 -85.2396
 -85.0973
 -85.0922
 -85.0977
 -85.1034
 -85.3867
 -85.3926
 -85.3893
 -85.3936
 -85.1103
 -85.0695
 -85.1125
 -85.1109
 -85.2165
 -85.2299
 -85.2279
 -85.2342
 -85.3629
 -85.3713
 -85.3699
 -85.3663
 -85.2981
 -85.3063
 -85.3067
 -85.3066
 -85.2601
 -85.2506
 -85.2599
 -85.2639
 -85.4064
 -85.4094
 -85.4107
 -85.4116
 -85.3949
 -85.3961
 -85.3962
 -85.3942
 -85.3226
 -85.3226
 -85.314
 -85.3189
 -85.2646
 -85.2712
 -85.263
 -85.2814
 -85.1837
 -85.1895
 -85.1935
 -85.2137
 -85.0457
 -85.0412
 -85.0277
 -85.3729
 -85.3765
 -85.374
 -85.379
 -83.378
 -83.2509
 -83.145
 -83.0919
 -85.349
 -85.3412
 -85.3452
 -85.3451
 -85.1443
 -85.1259
 -85.135
 -85.136
 -85.1148
 -85.1051
 -85.1081
 -85.1081
 -85.3939
 -85.3895
 -85.3919
 -85.3978
 -85.3071
 -85.3014
 -85.3102
 -85.3042
 -85.2615
 -85.2582
 -85.1813
 -85.2458
 -85.2575
 -85.2449
 -85.2517
 -83.7649
 -83.856
 -85.3423
 -85.3454
 -85.3488
 -84.8985
 -84.9291
 -84.8674
 -84.9078
 -85.3427
 -85.3358
 -85.3375
 -85.3377
 -85.211
 -85.2252
 -85.222
 -85.2226
 -85.1732
 -85.1923
 -85.1805
 -85.1801
 -85.4075
 -85.4077
 -85.4124
 -85.4094
 -84.953
 -84.982
 -84.9488
 -84.9828
 -85.3413
 -85.3425
 -85.3426
 -85.3465
 -85.4127
 -85.4139
 -85.4096
 -85.4101
 -85.2993
 -85.2913
 -85.3011
 -85.2946
 -85.339
 -85.3313
 -85.3353
 -85.3341
 -85.2824
 -85.2919
 -85.2864
 -85.2725
 -85.4294
 -85.4246
 -85.4279
 -85.4237
 -85.4258
 -85.4256
 -85.4241
 -85.4225
 -85.4233
 -85.4222
 -85.4218
 -85.4235
 -85.2546
 -85.2438
 -85.253
 -85.2525
 -85.321
 -85.3141
 -85.3162
 -85.321
 -85.2564
 -85.2547
 -85.2468
 -85.253
 -85.2439
 -85.2374
 -85.2552
 -85.2397
 -85.3545
 -85.3569
 -85.358
 -85.3528
 -85.3886
 -85.3942
 -85.3927
 -85.3944
 -85.3854
 -85.3872
 -85.3822
 -85.3883
 -85.2874
 -85.2933
 -85.2867
 -85.2911
 -85.2753
 -85.273
 -85.2722
 -85.2675
 -85.1612
 -85.1508
 -85.1566
 -85.1718
 -85.3668
 -85.3714
 -85.3709
 -85.3656
 -84.5861
 -84.5772
 -84.5319
 -84.6736
 -85.3803
 -85.3835
 -85.3793
 -85.3779
 -85.3157
 -85.3261
 -85.3143
 -85.3234
 -85.3073
 -85.3138
 -85.3084
 -85.3067
 -84.9279
 -84.9226
 -84.8871
 -84.8561
 -80.3217
 -80.5556
 -80.3397
 -80.3624
 -85.2028
 -85.2146
 -85.2026
 -85.2066
 -85.3792
 -85.3728
 -85.3749
 -85.3789
 -85.1146
 -85.1023
 -85.1107
 -85.1217
 -85.317
 -85.3199
 -85.313
 -85.3227
 -85.3296
 -85.3354
 -85.341
 -85.3383
 -85.3657
 -85.3683
 -85.3614
 -85.3641
 -84.502
 -84.4087
 -84.4374
 -84.4699
 -84.6403
 -84.6315
 -84.6061
 -84.605
 -85.3774
 -85.3844
 -85.381
 -85.3817
 -85.3568
 -85.3486
 -85.3497
 -85.3548
 -85.2049
 -85.2059
 -85.1994
 -85.2011
 -85.2844
 -85.2798
 -85.2876
 -85.2928
 -85.3162
 -85.3192
 -85.3161
 -85.3158
 -85.1814
 -85.1772
 -85.1936
 -85.1774
 -85.3423
 -85.3391
 -85.3387
 -85.3346
 -85.4389
 -85.4365
 -85.4382
 -85.4386
 -85.3254
 -85.3313
 -85.3319
 -85.3368
 -85.286
 -85.2914
 -85.2838
 -85.2959
 -85.2852
 -85.2835
 -85.2751
 -85.2868
 -85.3154
 -85.3189
 -85.3153
 -85.3089
 -85.4176
 -85.4184
 -85.4156
 -85.4178
 -85.3898
 -85.3864
 -85.389
 -85.3385
 -85.3376
 -85.3426
 -85.3377
 -85.0997
 -85.0986
 -85.1089
 -85.0963
 -85.2343
 -85.2365
 -85.2267
 -85.2383
 -85.3859
 -85.3799
 -85.3801
 -85.3799
 -85.1628
 -85.1658
 -85.1703
 -85.1764
 -85.2181
 -85.2052
 -85.204
 -85.22
 -85.2304
 -85.2271
 -85.2087
 -85.2205
 -85.3517
 -85.3481
 -85.347
 -85.3459
 -85.3157
 -85.3083
 -85.3172
 -85.3027
 -85.338
 -85.3254
 -85.3301
 -85.3315
 -85.1263
 -85.1274
 -85.1335
 -85.1252
 -85.2403
 -85.2489
 -85.2516
 -85.2417
 -85.3465
 -85.3418
 -85.3471
 -85.3503
 -85.1998
 -85.207
 -85.2133
 -85.1942
 -85.3233
 -85.3278
 -85.3292
 -85.3239
 -85.1187
 -85.1147
 -85.1223
 -85.1127
 -85.4137
 -85.4147
 -85.4109
 -85.4137
 -85.146
 -85.1306
 -85.1489
 -85.1562
 -85.1051
 -85.0702
 -85.092
 -85.0917
 -85.3592
 -85.3586
 -85.3624
 -85.3641
 -85.1607
 -85.1651
 -85.1681
 -85.165
 -85.3341
 -85.3327
 -85.3349
 -85.3284
 -84.8759
 -84.8928
 -84.8328
 -84.8526
 -85.3064
 -85.3035
 -85.3059
 -85.3121
 -85.4022
 -85.4076
 -85.4026
 -85.406
 -85.3079
 -85.2982
 -85.2971
 -85.3059
 -85.3667
 -85.3693
 -85.3665
 -85.3667
 -85.3294
 -85.3258
 -85.3267
 -85.3326
 -85.3225
 -85.3263
 -85.3263
 -85.3326
 -85.418
 -85.4178
 -85.4193
 -85.4139
 -85.1123
 -85.1057
 -85.0978
 -85.0929
 -85.1141
 -85.1074
 -85.0913
 -85.106
 -85.3937
 -85.3931
 -85.391
 -85.3965
 -85.406
 -85.4081
 -85.4053
 -85.1841
 -85.1814
 -85.1796
 -85.1873
 -85.3442
 -85.3499
 -85.343
 -85.3427
 -85.312
 -85.3155
 -85.3066
 -85.3165
 -85.0468
 -85.062
 -85.0196
 -85.0366
 -85.3676
 -85.3711
 -85.3697
 -85.3694
 -85.2792
 -85.2671
 -85.2698
 -85.2778
 -85.3036
 -85.2959
 -85.2957
 -85.2958
 -85.3722
 -85.3761
 -85.3758
 -85.3748
 -85.0678
 -85.0636
 -85.0708
 -85.0779
 -85.1697
 -85.1482
 -85.1603
 -85.1504
 -85.4219
 -85.4186
 -85.4217
 -85.4203
 -85.1305
 -85.1289
 -85.1324
 -85.1505
 -85.0934
 -85.0884
 -85.0905
 -85.0918
 -85.2853
 -85.2875
 -85.2833
 -85.295
 -83.9178
 -83.9733
 -83.8451
 -84.0693
 -85.3016
 -85.3026
 -85.2977
 -85.3026
 -85.3774
 -85.3759
 -85.3745
 -85.3734
 -85.3911
 -85.3881
 -85.3898
 -84.9692
 -84.9681
 -84.9977
 -84.9798
 -85.153
 -85.1674
 -85.1471
 -85.1613
 -85.0625
 -85.0555
 -85.0195
 -85.0359
 -85.1754
 -85.162
 -85.1717
 -85.1706
 -85.4248
 -85.4265
 -85.4277
 -85.4268
 -84.9948
 -84.9967
 -84.986
 -84.9641
 -85.1185
 -85.1064
 -85.1208
 -85.1461
 -85.3899
 -85.3934
 -85.3903
 -85.389
 -85.2219
 -85.2208
 -85.2291
 -85.1223
 -85.1126
 -85.1354
 -85.3076
 -85.3075
 -85.2988
 -84.0744
 -84.2462
 -84.2688
 -84.13
 -85.307
 -85.3132
 -85.3108
 -85.3152
 -85.2991
 -85.3052
 -85.2931
 -85.2935
 -85.394
 -85.3968
 -85.393
 -85.3926
 -85.4069
 -85.4063
 -85.4119
 -85.4062
 -85.0239
 -84.9769
 -84.9758
 -85.0419
 -85.3186
 -85.3252
 -85.327
 -85.3214
 -85.3099
 -85.3164
 -85.3188
 -85.3176
 -85.2609
 -85.2754
 -85.268
 -85.277
 -85.1986
 -85.2022
 -85.2084
 -85.1841
 -85.3199
 -85.311
 -85.3191
 -85.3194
 -85.127
 -85.1317
 -85.1261
 -85.1362
 -85.404
 -85.4023
 -85.4041
 -85.4048
 -85.187
 -85.1802
 -85.1866
 -85.2009
 -85.39
 -85.3861
 -85.3889
 -85.3873
 -85.4116
 -85.41
 -85.4065
 -85.4102
 -85.4128
 -85.412
 -85.4112
 -85.4103
 -85.1514
 -85.1423
 -85.363
 -85.3613
 -85.3585
 -85.3614
 -85.0867
 -85.117
 -85.1046
 -85.0942
 -85.3733
 -85.3806
 -85.3788
 -85.3801
 -85.3879
 -85.3859
 -85.3905
 -85.3861
 -85.1528
 -85.1748
 -85.1713
 -85.1665
 -85.3191
 -85.3191
 -85.3247
 -85.3233
 -85.1785
 -85.1777
 -85.1905
 -85.1789
 -85.2415
 -85.2378
 -85.2424
 -85.2516
 -82.3641
 -82.7236
 -82.2228
 -82.5198
 -85.3992
 -85.3969
 -85.4028
 -85.3988
 -85.1768
 -85.1703
 -85.1843
 -85.2023
 -84.9594
 -84.9364
 -84.937
 -84.9656
 -85.2618
 -85.2547
 -85.2669
 -85.2654
 -84.8783
 -84.8174
 -84.7802
 -84.8911
 -85.261
 -85.2515
 -85.2431
 -85.2578
 -85.3588
 -85.3571
 -85.3627
 -85.3545
 -85.2699
 -85.263
 -85.2633
 -85.2668
 -85.3952
 -85.4008
 -85.3958
 -85.2599
 -85.2696
 -85.264
 -85.2714
 -82.4673
 -82.274
 -82.3121
 -82.2356
 -85.4269
 -85.4275
 -85.4286
 -85.4269
 -85.3181
 -85.3152
 -85.3197
 -85.3135
 -85.3769
 -85.3741
 -85.3695
 -85.3751
 -85.0544
 -85.0744
 -85.0156
 -85.0436
 -85.1907
 -85.2047
 -85.1838
 -85.2013
 -85.193
 -85.2157
 -85.1979
 -85.2143
 -85.4095
 -85.4072
 -85.4107
 -85.4128
 -85.2228
 -85.2145
 -85.2054
 -85.2106
 -85.4229
 -85.4218
 -85.4236
 -85.4201
 -85.353
 -85.3463
 -85.3469
 -85.3537
 -85.1221
 -85.1254
 -85.1298
 -85.1196
 -83.7713
 -83.8557
 -83.9871
 -83.7403
 -85.2409
 -85.2228
 -85.2344
 -85.2165
 -85.2771
 -85.2787
 -85.2858
 -85.2775
 -85.3606
 -85.3619
 -85.3585
 -85.3548
 -82.6343
 -82.2426
 -82.688
 -82.602
 -85.2495
 -85.2428
 -85.2554
 -85.2502
 -85.4197
 -85.4172
 -85.4165
 -85.4171
 -85.3854
 -85.3886
 -85.3872
 -85.3856
 -85.3819
 -85.3831
 -85.3862
 -85.3812
 -85.375
 -85.3718
 -85.3697
 -85.3722
 -85.3839
 -85.3901
 -85.3871
 -85.3864
 -85.3355
 -85.3372
 -85.3358
 -85.3363
 -85.1221
 -85.1722
 -85.1865
 -85.1866
 -85.1813
 -85.3528
 -85.3475
 -85.3494
 -85.3473
 -85.3512
 -85.3523
 -85.3444
 -85.3466
 -84.9135
 -84.9232
 -84.9216
 -84.9142
 -85.3988
 -85.3988
 -85.3972
 -85.3992
 -85.3742
 -85.3779
 -85.3831
 -85.3801
 -85.132
 -85.1496
 -85.1484
 -85.1198
 -85.1216
 -85.1152
 -85.1716
 -85.1806
 -85.1753
 -85.1881
 -85.1015
 -85.074
 -85.0364
 -85.0594
 -85.3489
 -85.3547
 -85.3528
 -85.3494
 -85.4234
 -85.4235
 -85.4228
 -85.4241
 -85.2888
 -85.2829
 -85.288
 -85.279
 -85.4081
 -85.4022
 -85.3994
 -85.3996
 -85.2546
 -85.2547
 -85.2478
 -85.2574
 -85.3455
 -85.3416
 -85.3377
 -85.3381
 -85.0167
 -85.006
 -85.0087
 -84.9611
 -85.3219
 -85.3279
 -85.3184
 -85.3229
 -85.3326
 -85.3407
 -85.3434
 -85.3347
 -85.1479
 -85.1422
 -85.1306
 -85.1373
 -85.2192
 -85.2115
 -85.2332
 -85.2213
 -85.2551
 -85.2544
 -85.2441
 -85.2385
 -85.3187
 -85.3237
 -85.3207
 -85.3224
 -84.6605
 -84.7089
 -84.7289
 -84.7747
 -85.3311
 -85.3247
 -85.33
 -85.333
 -85.2219
 -85.207
 -85.2235
 -85.2343
 -85.3608
 -85.3589
 -85.3606
 -85.3562
 -85.3913
 -85.3876
 -85.3908
 -85.3884
 -85.4145
 -85.4129
 -85.4119
 -85.4133
 -85.4061
 -85.4084
 -85.4026
 -85.4259
 -85.4263
 -85.4281
 -85.4286
 -85.3812
 -85.3773
 -85.3723
 -85.3773
 -85.2729
 -85.2706
 -85.2778
 -85.2765
 -85.4088
 -85.406
 -85.4035
 -85.4082
 -85.3059
 -85.3076
 -85.3028
 -85.3013
 -85.3183
 -85.322
 -85.3194
 -85.4104
 -85.4127
 -85.4112
 -85.4106
 -85.4016
 -85.3987
 -85.3998
 -85.306
 -85.3015
 -85.3097
 -85.3122
 -85.2148
 -85.2236
 -85.2145
 -85.2334
 -85.3554
 -85.3518
 -85.3502
 -85.3492
 -85.4112
 -85.4135
 -85.4121
 -85.4105
 -85.117
 -85.1186
 -85.1383
 -85.1137
 -85.2763
 -85.2744
 -85.2657
 -85.2658
 -85.2857
 -85.2962
 -85.2812
 -85.2869
 -85.3585
 -85.3531
 -85.3575
 -85.3588
 -85.157
 -85.1444
 -85.1708
 -85.1478
 -85.069
 -85.0505
 -85.0718
 -85.0524
 -85.2941
 -85.2951
 -85.2932
 -85.3019
 -85.42
 -85.4177
 -85.4175
 -85.4183
 -85.1935
 -85.1779
 -85.195
 -85.188
 -85.089
 -85.1084
 -85.0883
 -85.1054
 -85.3326
 -85.3229
 -85.3324
 -85.3318
 -85.1648
 -85.1672
 -85.1578
 -85.1229
 -85.1338
 -85.1305
 -85.3242
 -85.3217
 -85.3304
 -85.3233
 -85.1105
 -85.1046
 -85.0894
 -85.1092
 -85.1423
 -85.1252
 -85.1369
 -85.1391
 -85.3326
 -85.3356
 -85.3307
 -85.0549
 -85.0463
 -85.3898
 -85.3902
 -85.3973
 -85.3977
 -85.3543
 -85.3622
 -85.3625
 -85.3589
 -84.7118
 -84.7754
 -84.6551
 -84.7869
 -84.1239
 -84.0819
 -84.0213
 -84.1201
 -85.1485
 -85.116
 -85.1391
 -85.1378
 -85.405
 -85.4047
 -85.4065
 -85.4049
 -85.3421
 -85.3381
 -85.3346
 -85.3381
 -85.078
 -85.0762
 -85.075
 -85.0742
 -85.1801
 -85.1837
 -85.1884
 -85.2024
 -85.1882
 -85.1857
 -85.1811
 -85.1581
 -85.1696
 -85.1714
 -85.1722
 -85.1707
 -85.1602
 -85.1774
 -85.179
 -85.0973
 -85.0819
 -85.0967
 -85.0732
 -85.4189
 -85.4206
 -85.4195
 -85.419
 -85.4078
 -85.4112
 -85.4064
 -85.2907
 -85.2849
 -85.2913
 -85.2802
 -85.147
 -85.1207
 -85.1497
 -85.1398
 -85.4278
 -85.4296
 -85.1218
 -85.1137
 -85.1154
 -85.1074
 -85.3063
 -85.3204
 -85.3113
 -85.3158
 -85.3399
 -85.3382
 -85.1048
 -85.099
 -85.1255
 -85.1053
 -85.412
 -85.4138
 -85.4107
 -85.4159
 -85.4233
 -85.4212
 -85.4219
 -85.4258
 -85.263
 -85.2682
 -85.2623
 -84.8011
 -84.8421
 -84.8136
 -85.1119
 -85.1363
 -85.1099
 -85.1178
 -85.3689
 -85.3644
 -85.3724
 -85.3644
 -85.1882
 -85.1656
 -85.1753
 -85.1547
 -85.183
 -85.1712
 -85.1894
 -85.1665
 -85.3489
 -85.347
 -85.351
 -85.3566
 -82.8372
 -82.847
 -82.7212
 -82.4914
 -85.3638
 -85.3656
 -85.3695
 -85.3681
 -85.3691
 -85.3685
 -85.3723
 -85.3747
 -85.0764
 -85.0762
 -85.0501
 -85.0699
 -85.4016
 -85.4031
 -85.4037
 -85.4005
 -82.35
 -81.9293
 -82.0984
 -81.7868
 -85.4138
 -85.4071
 -85.4075
 -85.4062
 -85.3855
 -85.3825
 -85.1659
 -85.1748
 -85.169
 -85.1827
 -85.055
 -85.0354
 -85.0452
 -85.0622
 -85.3994
 -85.4023
 -85.4014
 -85.4005
 -85.2168
 -85.2225
 -85.2217
 -85.2128
 -85.4189
 -85.4165
 -85.4183
 -85.1608
 -85.1442
 -85.1324
 -85.0283
 -85.0504
 -85.0564
 -85.4145
 -85.4158
 -85.4146
 -85.4136
 -85.1798
 -85.1731
 -85.1738
 -85.1714
 -85.4011
 -85.4016
 -85.0505
 -85.0602
 -85.0431
 -85.0514
 -85.3017
 -85.3084
 -85.3099
 -85.3008
 -85.1984
 -85.1861
 -85.24
 -85.2621
 -85.2574
 -85.2442
 -85.1596
 -85.1556
 -85.1578
 -85.1416
 -85.4219
 -85.4259
 -85.4211
 -85.4228
 -85.1011
 -85.0957
 -85.0985
 -85.3872
 -82.4735
 -82.5318
 -82.5304
 -82.3776
 -85.3979
 -85.3986
 -85.4009
 -85.3939
 -85.1948
 -85.1954
 -85.2151
 -85.2118
 -85.3599
 -85.3581
 -85.3583
 -85.3588
 -85.1561
 -85.1452
 -85.1374
 -85.1541
 -85.3477
 -84.908
 -84.9017
 -84.9003
 -84.9104
 -85.3433
 -85.3444
 -85.3418
 -85.3368
 -85.3815
 -85.3841
 -85.3856
 -85.3783
 -85.3826
 -85.3778
 -85.3841
 -85.3997
 -85.403
 -85.4018
 -85.4012
 -85.0637
 -85.0728
 -85.0956
 -85.0862
 -85.3927
 -85.3926
 -85.3923
 -85.3962
 -84.9485
 -84.9415
 -84.9554
 -84.9145
 -85.388
 -85.3904
 -85.3923
 -85.3924
 -85.2866
 -85.281
 -85.2797
 -85.2759
 -85.3583
 -85.362
 -85.3636
 -85.365
 -85.3053
 -85.3017
 -85.2985
 -85.2958
 -85.4131
 -85.408
 -85.3143
 -85.3073
 -85.3075
 -85.3134
 -84.8329
 -84.8087
 -84.8712
 -84.8088
 -84.8743
 -84.8527
 -84.9307
 -84.8664
 -85.3061
 -85.3134
 -85.3132
 -85.3147
 -85.3684
 -85.3687
 -85.3669
 -85.3734
 -85.3749
 -85.3712
 -85.3732
 -85.3767
 -85.4094
 -85.4049
 -85.4064
 -85.4039
 -85.3765
 -85.3821
 -85.3792
 -85.3762
 -84.8647
 -84.8881
 -84.9058
 -84.8582
 -85.0871
 -85.0879
 -85.0824
 -85.1184
 -85.4286
 -85.4268
 -85.4261
 -85.4262
 -85.3236
 -85.3252
 -85.3251
 -85.3342
 -85.1026
 -85.1266
 -85.0971
 -85.1304
 -83.2154
 -83.1584
 -83.4491
 -83.1855
 -85.3982
 -85.4003
 -85.3962
 -85.4043
 -85.1555
 -85.1523
 -85.159
 -85.1694
 -85.2383
 -85.2511
 -85.2296
 -85.2428
 -84.9712
 -84.955
 -84.9661
 -84.9813
 -85.3444
 -85.3417
 -85.3446
 -85.3452
 -85.4091
 -85.4093
 -85.4081
 -85.4092
 -85.3306
 -85.3227
 -85.3248
 -85.3229
 -85.265
 -85.263
 -85.2767
 -85.2718
 -84.855
 -84.877
 -84.896
 -84.8161
 -85.4075
 -85.3524
 -85.3565
 -85.3503
 -85.3554
 -85.2305
 -85.2248
 -85.2117
 -85.2111
 -85.3647
 -85.3682
 -85.3676
 -85.371
 -85.0927
 -85.0947
 -85.082
 -85.1167
 -85.3457
 -85.3486
 -85.3418
 -84.7734
 -84.8273
 -84.7805
 -84.7525
 -85.3871
 -85.379
 -85.3844
 -85.3817
 -85.0998
 -85.0979
 -85.1075
 -85.101
 -85.4354
 -85.4344
 -85.435
 -85.4366
 -85.1708
 -85.1738
 -85.1749
 -85.1738
 -83.9439
 -84.2147
 -84.2118
 -84.1412
 -84.6948
 -84.6914
 -84.7559
 -84.7198
 -85.4285
 -85.4272
 -85.426
 -85.4253
 -85.416
 -85.4155
 -85.4178
 -85.4182
 -85.2915
 -85.2998
 -85.297
 -85.2992
 -85.1705
 -85.17
 -85.1813
 -85.3145
 -85.3147
 -85.3037
 -85.3085
 -85.3517
 -85.3491
 -85.355
 -85.3561
 -85.3046
 -85.3196
 -85.3149
 -85.3139
 -85.2974
 -85.3011
 -85.3115
 -85.3056
 -85.4247
 -85.4221
 -85.4225
 -85.4213
 -85.1278
 -85.1234
 -85.1412
 -85.128
 -84.6781
 -84.5221
 -84.5621
 -85.3664
 -85.3621
 -85.365
 -85.3633
 -85.3981
 -85.4017
 -85.3989
 -85.3978
 -85.1315
 -85.122
 -85.1363
 -85.1264
 -85.1286
 -85.1348
 -85.1154
 -85.4032
 -85.4011
 -85.4046
 -85.3988
 -85.2741
 -85.2733
 -85.28
 -85.2724
 -85.1238
 -85.1018
 -85.1195
 -85.1232
 -85.2388
 -85.2325
 -85.2338
 -85.2411
 -85.3882
 -85.3876
 -85.384
 -85.3878
 -85.102
 -85.1344
 -85.0855
 -85.1284
 -85.2489
 -85.2323
 -85.2405
 -85.2416
 -85.1921
 -85.2008
 -85.1922
 -85.4161
 -85.4154
 -85.4129
 -85.414
 -85.2681
 -85.2734
 -85.2635
 -85.2741
 -85.4286
 -85.4279
 -85.432
 -85.3075
 -85.3106
 -85.3103
 -85.3071
 -84.8278
 -84.8644
 -84.7935
 -84.8133
 -85.3337
 -85.3354
 -85.3397
 -85.3446
 -85.293
 -85.3029
 -85.2897
 -85.1356
 -85.1462
 -85.1579
 -85.1357
 -85.0929
 -85.097
 -85.0893
 -85.0993
 -85.1406
 -85.148
 -85.159
 -85.1325
 -83.8251
 -83.8198
 -84.0228
 -84.0357
 -85.2099
 -85.2046
 -85.1978
 -85.199
 -85.1931
 -85.1872
 -85.2089
 -85.183
 -85.4043
 -85.3997
 -85.4005
 -85.4064
 -85.0056
 -85.0423
 -85.0298
 -85.0227
 -85.3495
 -85.3464
 -85.351
 -85.3522
 -85.4175
 -85.418
 -85.4159
 -85.4143
 -85.4189
 -85.4147
 -85.4168
 -85.4184
 -85.3838
 -85.387
 -85.3835
 -85.3861
 -85.4211
 -85.4247
 -85.4244
 -85.4185
 -85.4073
 -85.4082
 -85.4078
 -85.4289
 -85.4239
 -85.4256
 -85.4255
 -84.987
 -84.9692
 -84.981
 -84.9613
 -85.2324
 -85.2254
 -85.2161
 -85.2265
 -85.1816
 -85.2004
 -85.1899
 -85.2032
 -85.2221
 -85.2152
 -85.2134
 -85.2106
 -85.4119
 -85.4087
 -85.4107
 -85.4118
 -85.2415
 -85.2427
 -85.2332
 -85.2246
 -85.1468
 -85.1232
 -85.1267
 -85.1427
 -85.3533
 -85.3516
 -85.358
 -85.3506
 -85.1393
 -85.164
 -85.1402
 -85.1443
 -85.3692
 -85.3654
 -85.3651
 -85.3108
 -85.3188
 -85.3176
 -85.4006
 -85.3966
 -85.3983
 -85.3986
 -85.2392
 -85.2433
 -85.2355
 -85.2354
 -85.3432
 -85.3381
 -85.3394
 -85.3435
 -85.2185
 -85.2018
 -85.2108
 -85.2208
 -85.4295
 -85.428
 -85.4193
 -85.4177
 -85.4163
 -85.42
 -84.9263
 -84.9206
 -84.9212
 -84.9063
 -85.3461
 -85.351
 -85.3517
 -85.3553
 -85.1238
 -85.1557
 -85.1393
 -85.1158
 -81.2185
 -80.4632
 -81.1418
 -80.9244
 -85.1732
 -85.1685
 -85.1595
 -85.167
 -85.3672
 -85.3625
 -85.3666
 -85.0367
 -85.0314
 -85.0588
 -85.0579
 -85.4158
 -85.4125
 -85.4169
 -85.4139
 -85.1823
 -85.187
 -85.1816
 -85.1863
 -85.3437
 -85.3486
 -85.3453
 -85.3442
 -84.8041
 -84.8453
 -84.7807
 -84.8218
 -83.3395
 -83.2243
 -83.4408
 -83.4693
 -85.1435
 -85.1545
 -85.1418
 -85.1394
 -85.2225
 -85.2183
 -85.227
 -85.3181
 -85.3085
 -85.3207
 -85.3166
 -85.0641
 -85.0643
 -85.0319
 -85.3689
 -85.3675
 -85.37
 -85.3732
 -85.3845
 -85.3911
 -85.3851
 -85.3906
 -85.3616
 -85.3572
 -85.3613
 -85.3616
 -85.4132
 -85.4056
 -85.4088
 -85.4094
 -85.3797
 -85.3753
 -85.377
 -85.1796
 -85.1875
 -85.1889
 -85.1934
 -85.3735
 -85.3694
 -85.3543
 -85.3482
 -85.3464
 -85.3524
 -85.3671
 -85.3649
 -85.3652
 -85.3686
 -85.1372
 -85.1501
 -85.1443
 -85.1216
 -85.1667
 -85.1766
 -85.1645
 -85.1743
 -81.5329
 -81.7787
 -81.8197
 -81.6624
 -85.1589
 -85.1682
 -85.1589
 -85.1741
 -85.166
 -85.1638
 -85.1682
 -85.2835
 -85.2828
 -85.2778
 -85.276
 -85.1806
 -85.1978
 -85.1974
 -85.1876
 -84.894
 -84.9229
 -84.893
 -84.8838
 -85.384
 -85.3791
 -85.3839
 -85.3794
 -85.2905
 -85.2965
 -85.2886
 -85.2839
 -85.4133
 -85.4136
 -85.4122
 -85.4138
 -85.3266
 -85.3198
 -85.326
 -85.3222
 -85.4086
 -85.4098
 -85.4089
 -83.7466
 -83.9248
 -83.8255
 -83.8766
 -85.3638
 -85.3706
 -85.3646
 -85.3653
 -85.2512
 -85.241
 -85.2525
 -85.2475
 -85.0985
 -85.0817
 -85.2105
 -85.2116
 -85.2181
 -85.2146
 -85.253
 -85.2411
 -85.2458
 -85.4027
 -85.4038
 -85.4011
 -85.4035
 -85.4037
 -85.4015
 -85.3984
 -85.4005
 -85.1218
 -85.112
 -85.1234
 -85.1162
 -85.2794
 -85.2746
 -85.1621
 -85.1797
 -85.1699
 -85.1532
 -85.3744
 -85.3719
 -85.3785
 -85.3783
 -84.7657
 -84.7286
 -84.7577
 -84.749
 -85.1411
 -85.1495
 -85.1362
 -85.1354
 -85.1669
 -85.1803
 -85.1863
 -85.1802
 -85.3051
 -85.3026
 -85.3057
 -85.3144
 -85.3719
 -85.3707
 -85.3679
 -85.3684
 -85.3794
 -85.3743
 -85.3713
 -85.3763
 -82.8066
 -82.7461
 -82.6904
 -82.5753
 -85.0476
 -85.0678
 -85.0732
 -85.3172
 -85.3057
 -85.3122
 -85.326
 -85.3333
 -85.3266
 -85.3322
 -85.41
 -85.412
 -85.4105
 -85.4133
 -85.269
 -85.152
 -85.1495
 -85.1273
 -85.136
 -85.3464
 -85.3425
 -85.3372
 -85.3406
 -85.3824
 -85.3778
 -85.3789
 -85.3835
 -85.3992
 -85.4002
 -85.1283
 -85.1243
 -85.1159
 -85.1129
 -85.2884
 -85.2934
 -85.2899
 -85.297
 -85.086
 -85.0827
 -85.0863
 -85.0903
 -85.3268
 -85.2213
 -85.2092
 -85.2323
 -85.2385
 -85.2001
 -85.2093
 -85.2129
 -85.2069
 -85.4118
 -85.4072
 -85.4171
 -85.4194
 -85.4197
 -85.4181
 -84.2909
 -84.2587
 -84.264
 -84.3165
 -85.3775
 -85.3787
 -85.3733
 -85.3809
 -85.3319
 -85.3226
 -85.3245
 -85.3313
 -83.2752
 -83.3365
 -83.356
 -83.2124
 -85.285
 -85.2862
 -85.2898
 -85.2806
 -85.2814
 -85.2708
 -85.2657
 -85.2686
 -85.0702
 -85.0367
 -85.0649
 -85.0549
 -85.4271
 -85.429
 -85.4294
 -85.4293
 -85.2674
 -85.2574
 -85.2603
 -85.1624
 -85.1806
 -85.1779
 -85.1643
 -85.421
 -85.4256
 -85.4226
 -85.4233
 -85.1714
 -85.1618
 -85.1445
 -85.1829
 -85.2496
 -85.2571
 -85.3895
 -85.3904
 -85.3935
 -85.3865
 -85.3177
 -85.3173
 -85.3254
 -85.3229
 -85.4154
 -85.413
 -85.4157
 -85.4148
 -85.2659
 -85.2794
 -85.1545
 -85.162
 -85.1656
 -85.1631
 -85.1823
 -85.1819
 -85.1894
 -85.1953
 -85.3945
 -85.3941
 -85.3895
 -85.3909
 -85.3833
 -85.382
 -85.3844
 -85.3851
 -85.3748
 -85.3684
 -85.3746
 -85.3716
 -85.2005
 -85.2166
 -85.2096
 -85.1997
 -84.4084
 -84.3561
 -84.41
 -84.4204
 -85.4202
 -85.423
 -85.4202
 -85.4214
 -85.0506
 -85.0593
 -85.0628
 -85.0806
 -85.3098
 -85.3123
 -85.3177
 -85.3081
 -85.208
 -85.2326
 -85.2164
 -85.2254
 -85.3075
 -85.299
 -85.3044
 -85.3418
 -85.3488
 -85.3414
 -85.3479
 -85.291
 -85.2984
 -85.2927
 -85.2876
 -85.363
 -85.3647
 -85.369
 -85.3617
 -85.3625
 -85.3616
 -85.3637
 -85.3557
 -83.0936
 -83.4606
 -83.124
 -84.7905
 -84.856
 -84.8561
 -84.8335
 -85.3019
 -85.2955
 -85.2983
 -85.298
 -85.392
 -85.3952
 -85.3928
 -85.3963
 -85.1288
 -85.106
 -85.1274
 -85.1738
 -85.1802
 -85.1793
 -85.3349
 -85.3328
 -85.3375
 -85.3373
 -85.3048
 -85.3091
 -85.3139
 -85.3142
 -85.4374
 -85.4372
 -85.4361
 -85.4378
 -84.6642
 -84.6603
 -84.6345
 -84.5187
 -85.3723
 -85.3753
 -85.2285
 -85.2445
 -85.2439
 -85.2323
 -85.3584
 -85.3622
 -85.3617
 -85.363
 -85.3233
 -85.3257
 -85.3306
 -85.3259
 -85.2523
 -85.2503
 -85.2606
 -85.2426
 -85.3544
 -85.3592
 -85.3568
 -85.3585
 -85.1263
 -85.131
 -85.132
 -85.1421
 -85.0266
 -85.0168
 -85.0303
 -85.0239
 -85.3849
 -85.3865
 -85.3912
 -85.3957
 -85.302
 -85.3072
 -85.3128
 -84.0284
 -84.0116
 -84.0718
 -85.3966
 -85.3996
 -85.4002
 -85.401
 -85.4043
 -85.4032
 -85.401
 -85.4001
 -85.2917
 -85.2947
 -85.2988
 -85.3
 -85.4105
 -85.4126
 -85.4125
 -85.4122
 -85.4141
 -85.4176
 -85.4148
 -85.4185
 -85.2478
 -85.2534
 -85.2608
 -85.2515
 -85.3773
 -85.3795
 -85.3817
 -85.3813
 -85.4358
 -85.4359
 -85.4349
 -85.4369
 -85.3791
 -85.3783
 -85.3761
 -85.3818
 -85.3099
 -85.3025
 -85.3054
 -85.2971
 -85.3935
 -85.3941
 -85.3915
 -85.3903
 -85.3636
 -85.3619
 -85.3661
 -85.3332
 -85.339
 -84.2853
 -84.3526
 -84.2586
 -84.2415
 -85.3286
 -85.3359
 -85.3326
 -85.3335
 -84.6099
 -84.6374
 -84.6483
 -84.662
 -84.5181
 -84.477
 -84.6078
 -84.577
 -85.314
 -85.3193
 -85.3186
 -85.313
 -85.2326
 -85.2336
 -85.2229
 -85.2353
 -85.3399
 -85.3469
 -85.3446
 -85.3445
 -85.3021
 -85.2953
 -84.986
 -84.9738
 -84.9797
 -84.9994
 -85.4204
 -85.4219
 -85.4231
 -85.4218
 -85.2352
 -85.2303
 -85.2493
 -85.2398
 -85.3918
 -85.3899
 -85.3871
 -85.3904
 -84.9687
 -84.9372
 -84.964
 -84.9426
 -85.4052
 -85.4095
 -85.4086
 -85.4089
 -85.3294
 -85.3229
 -85.329
 -85.3299
 -85.1265
 -85.0975
 -85.0711
 -85.0952
 -85.4356
 -85.435
 -85.435
 -85.4339
 -85.2052
 -85.217
 -85.2065
 -85.2063
 -85.2386
 -85.2259
 -85.2381
 -85.2222
 -85.4236
 -85.4242
 -85.4217
 -85.4251
 -85.2905
 -85.2772
 -85.2835
 -85.2837
 -85.3968
 -85.3993
 -85.3972
 -85.3965
 -85.3914
 -85.3882
 -85.3893
 -85.2577
 -85.2423
 -85.2453
 -85.2498
 -85.3925
 -85.3955
 -85.3932
 -85.3946
 -85.1187
 -85.1335
 -85.1308
 -85.1194
 -85.4036
 -85.4057
 -85.4056
 -85.4044
 -85.4016
 -85.4002
 -85.402
 -85.4008
 -85.1252
 -85.1188
 -85.1444
 -85.1307
 -85.1526
 -85.1504
 -85.1632
 -85.1438
 -79.5464
 -79.6542
 -79.345
 -79.4745
 -85.3726
 -85.3674
 -85.3677
 -84.4975
 -84.5883
 -84.6266
 -84.543
 -85.4178
 -85.4147
 -85.4155
 -85.4156
 -85.094
 -85.3949
 -85.3903
 -85.3906
 -85.3936
 -85.3956
 -85.3908
 -85.3922
 -82.5082
 -82.3146
 -82.4467
 -82.5244
 -81.7717
 -81.994
 -81.8236
 -81.7286
 -85.4134
 -85.4099
 -85.4124
 -85.4149
 -85.1503
 -85.1443
 -85.1559
 -85.1408
 -85.3613
 -85.3598
 -85.3644
 -85.2142
 -85.2031
 -85.2135
 -85.1987
 -85.2591
 -85.2594
 -85.2592
 -85.3926
 -85.3917
 -85.3968
 -85.3335
 -85.3391
 -85.3387
 -85.3337
 -85.2194
 -85.2033
 -85.2056
 -85.2166
 -85.1453
 -85.152
 -85.1436
 -85.1502
 -85.3628
 -85.3664
 -85.3668
 -84.8899
 -84.9251
 -84.8448
 -84.835
 -85.1201
 -85.1476
 -85.1172
 -85.2441
 -85.2645
 -85.2563
 -85.2544
 -85.0063
 -85.0327
 -85.0435
 -85.0319
 -85.1454
 -85.1608
 -85.1645
 -85.1589
 -85.3954
 -85.392
 -85.3929
 -85.3923
 -85.2752
 -85.2666
 -85.2698
 -85.2779
 -85.1524
 -85.1637
 -85.3059
 -85.3023
 -85.3036
 -85.2961
 -85.4067
 -85.4194
 -85.4203
 -85.4199
 -85.4194
 -78.8547
 -78.7812
 -78.7723
 -78.8745
 -85.3853
 -85.3899
 -85.3865
 -85.4295
 -85.4292
 -85.4276
 -85.4292
 -85.3766
 -85.3709
 -85.3736
 -85.3716
 -85.1333
 -85.138
 -85.1465
 -85.1346
 -85.266
 -85.2572
 -85.2577
 -85.248
 -85.4315
 -85.4316
 -85.4311
 -85.4305
 -85.3722
 -85.368
 -85.3654
 -85.3693
 -84.8408
 -84.7776
 -84.7677
 -84.8578
 -85.2504
 -85.2483
 -85.2513
 -85.231
 -85.2403
 -85.246
 -85.2503
 -85.24
 -78.9069
 -78.8619
 -78.8441
 -78.9401
 -85.1173
 -85.1141
 -85.1113
 -85.122
 -85.3747
 -85.3807
 -85.3759
 -85.378
 -85.3356
 -85.3351
 -85.3416
 -85.3332
 -85.2729
 -85.2765
 -85.2863
 -85.2811
 -85.3665
 -85.3721
 -85.3701
 -85.3704
 -85.3325
 -85.3351
 -85.3395
 -85.3335
 -85.368
 -85.367
 -85.3644
 -85.3726
 -85.4358
 -85.4324
 -85.4331
 -85.4362
 -85.3829
 -85.3798
 -85.3789
 -85.3725
 -85.362
 -85.3575
 -85.356
 -85.362
 -85.3572
 -85.3089
 -85.3082
 -85.3031
 -85.3165
 -85.4199
 -85.419
 -85.4182
 -85.418
 -85.2752
 -85.2672
 -85.2761
 -85.2728
 -85.3328
 -85.3357
 -85.3386
 -85.3283
 -85.2947
 -85.2843
 -85.2922
 -85.3002
 -85.204
 -85.1791
 -85.2004
 -85.1852
 -83.6613
 -83.7336
 -83.9799
 -83.7319
 -85.4377
 -85.4347
 -85.3544
 -85.3507
 -85.3507
 -80.3217
 -80.373
 -80.4303
 -85.1529
 -85.1384
 -85.1472
 -85.1305
 -84.3863
 -84.4573
 -84.2862
 -84.2434
 -85.0031
 -84.985
 -85.0129
 -84.952
 -85.4181
 -85.4129
 -85.4158
 -85.4154
 -85.317
 -85.3092
 -85.311
 -85.3082
 -85.3579
 -85.3645
 -85.3632
 -85.3681
 -85.3347
 -85.3367
 -85.329
 -85.3279
 -85.3717
 -85.3728
 -85.3694
 -85.37
 -85.2854
 -85.2836
 -85.3939
 -85.3845
 -85.3942
 -85.3863
 -85.3702
 -85.3668
 -85.3643
 -85.3722
 -85.1558
 -85.1396
 -85.1588
 -85.144
 -85.1792
 -85.1847
 -85.1841
 -85.1851
 -85.331
 -85.3309
 -85.3289
 -85.334
 -85.3143
 -85.3166
 -85.3218
 -85.3264
 -85.0423
 -85.0079
 -85.0032
 -85.0417
 -85.3633
 -85.3609
 -85.3594
 -85.3578
 -85.4323
 -85.4308
 -85.4317
 -85.4314
 -85.3997
 -85.3975
 -85.3983
 -85.3969
 -85.4358
 -85.4369
 -85.4353
 -85.4372
 -85.4058
 -85.4089
 -85.4079
 -85.4083
 -85.3088
 -85.3179
 -85.3084
 -85.3103
 -85.3638
 -85.3593
 -85.2906
 -85.3006
 -85.2882
 -85.2955
 -85.1683
 -85.1786
 -85.1801
 -85.1842
 -85.3829
 -85.387
 -85.3873
 -85.3831
 -85.2866
 -85.2823
 -85.2871
 -85.2769
 -85.2474
 -85.2388
 -85.236
 -85.2412
 -85.1292
 -85.1317
 -85.1412
 -85.1484
 -85.1794
 -85.1691
 -85.1669
 -85.1906
 -85.1029
 -85.1117
 -85.1257
 -85.1105
 -84.0716
 -84.1223
 -84.0454
 -84.0374
 -85.3775
 -85.3793
 -85.3739
 -85.378
 -85.356
 -85.3579
 -84.0997
 -84.2632
 -84.2418
 -84.0654
 -85.21
 -85.2118
 -85.3492
 -85.3455
 -85.3496
 -85.4004
 -85.4004
 -85.1112
 -85.1101
 -85.1037
 -85.1183
 -84.1774
 -84.2836
 -84.2718
 -84.2819
 -85.0222
 -85.0316
 -85.0486
 -85.0572
 -85.2012
 -85.2042
 -85.2096
 -85.2152
 -85.3384
 -85.3306
 -85.3305
 -85.3317
 -85.353
 -85.3503
 -85.35
 -85.3483
 -85.1935
 -85.2111
 -85.2101
 -85.2063
 -85.336
 -85.3349
 -85.3374
 -85.3285
 -85.2972
 -85.2907
 -85.2895
 -85.2936
 -85.3168
 -85.3221
 -85.3261
 -85.3211
 -85.3198
 -85.3121
 -85.3221
 -85.2888
 -85.2833
 -85.2967
 -85.2912
 -85.216
 -85.2222
 -85.2124
 -85.2074
 -85.1521
 -85.1644
 -85.1456
 -85.1617
 -85.4176
 -85.4168
 -85.4188
 -85.4204
 -85.2727
 -85.2719
 -85.2807
 -85.2821
 -85.0059
 -84.9984
 -84.9813
 -85.0002
 -84.9001
 -84.8782
 -84.8851
 -84.8607
 -85.0899
 -85.0822
 -85.0822
 -85.0867
 -85.1031
 -85.1041
 -85.1256
 -85.1264
 -85.1559
 -85.1464
 -85.1415
 -85.1487
 -85.4147
 -85.4166
 -85.4161
 -85.4165
 -85.2496
 -85.2494
 -85.2468
 -85.2574
 -85.3746
 -85.3759
 -85.373
 -85.3717
 -85.1371
 -85.1584
 -85.1283
 -85.1503
 -85.4206
 -85.4221
 -85.4217
 -85.4248
 -85.4253
 -85.4251
 -85.4271
 -85.3661
 -85.3554
 -85.3593
 -85.3599
 -85.1854
 -85.1901
 -85.1756
 -85.1852
 -85.4317
 -85.4288
 -85.4295
 -85.239
 -85.2283
 -85.232
 -85.2156
 -85.4054
 -85.406
 -85.3994
 -85.4006
 -85.4042
 -85.3998
 -85.2171
 -85.2067
 -85.2119
 -84.796
 -84.8107
 -84.7491
 -84.7795
 -85.1128
 -85.0875
 -85.11
 -85.1173
 -85.3027
 -85.3111
 -85.302
 -85.421
 -85.4158
 -85.4164
 -85.3691
 -85.365
 -85.3622
 -85.3652
 -85.4222
 -85.4226
 -85.418
 -85.4255
 -85.2616
 -85.272
 -85.277
 -85.2682
 -85.403
 -85.4041
 -85.4062
 -85.4001
 -85.3031
 -85.3048
 -85.2984
 -85.2971
 -85.1931
 -85.1821
 -85.1892
 -85.4297
 -85.4272
 -85.4284
 -85.432
 -85.3581
 -85.3361
 -85.3431
 -85.3422
 -85.3382
 -85.3388
 -85.3387
 -85.3341
 -85.1754
 -85.1696
 -85.169
 -85.1682
 -85.1677
 -85.1839
 -85.2743
 -85.263
 -85.26
 -85.2555
 -85.2437
 -85.2567
 -85.2452
 -85.2521
 -85.3657
 -85.4325
 -85.4289
 -85.428
 -85.4305
 -82.9211
 -82.65
 -82.9482
 -82.957
 -85.2213
 -85.2088
 -85.1895
 -85.1842
 -85.1892
 -85.1923
 -85.1699
 -85.1716
 -85.1535
 -85.1612
 -85.3733
 -85.368
 -85.3695
 -85.3719
 -85.3785
 -85.3816
 -85.3758
 -85.3789
 -85.1673
 -85.1545
 -85.3597
 -85.3585
 -85.3656
 -85.361
 -85.3667
 -85.3712
 -85.3665
 -85.3231
 -85.3195
 -85.3155
 -85.3123
 -85.2718
 -85.2619
 -85.2687
 -85.2628
 -85.3753
 -85.3807
 -85.38
 -85.3767
 -85.3902
 -85.3922
 -85.3945
 -85.3913
 -85.3804
 -85.3854
 -85.3812
 -85.3788
 -85.3806
 -85.3792
 -85.375
 -85.2696
 -85.273
 -85.2725
 -85.2655
 -84.7006
 -84.7171
 -84.7521
 -84.7496
 -85.2361
 -85.233
 -85.2274
 -85.2307
 -85.3886
 -85.3848
 -85.3823
 -85.3864
 -85.3586
 -85.3579
 -85.3567
 -85.3627
 -85.2329
 -85.2406
 -85.2438
 -85.2467
 -85.3599
 -85.3542
 -85.3572
 -85.3594
 -85.3218
 -85.3246
 -85.3117
 -85.3229
 -85.3268
 -85.3334
 -85.3312
 -85.332
 -85.3582
 -85.3602
 -85.361
 -85.4191
 -85.4194
 -85.4181
 -85.4187
 -85.2312
 -85.2424
 -85.2363
 -85.2403
 -85.298
 -85.3071
 -85.3051
 -85.3023
 -84.6285
 -84.5592
 -84.5477
 -84.6282
 -85.1167
 -85.1326
 -85.1298
 -85.1191
 -85.1549
 -85.1186
 -85.1326
 -85.1159
 -85.1298
 -85.1371
 -85.1354
 -85.1409
 -85.3171
 -85.3121
 -85.3145
 -85.0679
 -85.0651
 -85.0731
 -85.0745
 -85.0533
 -85.0667
 -85.0894
 -85.0595
 -85.4287
 -85.4266
 -85.4262
 -85.4276
 -85.3235
 -85.3186
 -85.3184
 -85.3152
 -85.3937
 -85.3943
 -85.3927
 -85.3897
 -85.3365
 -85.3396
 -85.3352
 -85.3307
 -85.3566
 -85.361
 -85.3575
 -85.3588
 -85.1573
 -85.1415
 -85.1527
 -85.1285
 -85.2921
 -85.3079
 -85.2972
 -85.2972
 -85.3913
 -85.3934
 -85.3895
 -85.3907
 -85.343
 -85.341
 -85.3478
 -85.3454
 -85.062
 -85.0584
 -85.0956
 -85.0954
 -85.4179
 -85.4191
 -85.4184
 -85.4193
 -85.2311
 -85.2196
 -85.0751
 -85.2963
 -85.3004
 -85.3038
 -85.2933
 -85.2707
 -85.2768
 -85.266
 -85.2664
 -84.449
 -84.4291
 -84.5501
 -85.2137
 -85.2035
 -85.1995
 -85.1926
 -85.3371
 -85.3473
 -85.3437
 -85.348
 -85.2986
 -85.3074
 -85.3019
 -85.3
 -85.4099
 -85.4113
 -85.4115
 -85.4106
 -85.1435
 -85.1648
 -85.1499
 -85.1468
 -85.1455
 -85.1408
 -85.1644
 -84.4408
 -84.3143
 -84.3606
 -84.4645
 -85.1321
 -85.1502
 -85.1403
 -85.3293
 -85.3426
 -85.331
 -85.1329
 -85.1323
 -85.1196
 -85.1256
 -85.2678
 -85.2776
 -85.2809
 -85.2774
 -78.9621
 -78.9729
 -78.9349
 -79.1154
 -85.2632
 -85.2581
 -85.2614
 -85.0148
 -85.0144
 -85.0167
 -85.0201
 -85.2627
 -85.2561
 -85.2456
 -85.2565
 -85.1275
 -85.1421
 -85.1415
 -85.1463
 -85.3585
 -85.3605
 -85.3569
 -85.3621
 -85.3742
 -85.371
 -85.3748
 -85.3762
 -85.4253
 -85.4253
 -85.4264
 -85.424
 -85.3277
 -85.3185
 -85.3265
 -85.3291
 -85.1114
 -85.0987
 -85.1095
 -85.1022
 -85.1517
 -85.1441
 -84.9026
 -84.8969
 -84.92
 -84.9145
 -85.2856
 -85.2896
 -85.2114
 -85.2292
 -85.2261
 -85.1646
 -85.172
 -85.1794
 -85.1688
 -85.4158
 -85.4164
 -85.4119
 -85.4127
 -85.413
 -85.4119
 -85.4103
 -85.4121
 -85.1634
 -85.1731
 -85.1645
 -85.1445
 -85.0754
 -85.079
 -85.3389
 -85.3394
 -85.3377
 -85.3439
 -85.1542
 -85.1419
 -85.162
 -85.1569
 -85.2252
 -85.2079
 -85.2393
 -85.4361
 -85.4368
 -85.4351
 -85.3028
 -85.3123
 -85.3067
 -85.3086
 -85.4012
 -85.4055
 -85.4003
 -85.3988
 -85.3129
 -85.3196
 -85.3206
 -85.3135
 -85.3737
 -85.378
 -85.3786
 -85.3715
 -85.11
 -85.1222
 -85.1124
 -85.1071
 -85.116
 -85.1394
 -85.1083
 -85.1338
 -85.3183
 -85.3109
 -85.3225
 -85.3142
 -85.2137
 -85.2294
 -85.2343
 -85.2117
 -85.0649
 -85.0734
 -85.0825
 -85.1045
 -85.2671
 -85.275
 -85.2792
 -85.2838
 -85.348
 -85.3496
 -85.3457
 -85.3145
 -85.3209
 -85.3169
 -85.3213
 -80.9881
 -81.4532
 -81.5012
 -81.2609
 -85.0818
 -85.0813
 -85.0835
 -85.0826
 -85.2121
 -85.2066
 -85.2121
 -85.2245
 -84.1131
 -84.1879
 -83.999
 -84.15
 -85.3999
 -85.399
 -85.3963
 -85.4277
 -85.426
 -85.4242
 -85.4258
 -85.3806
 -85.3882
 -85.3847
 -85.3849
 -85.3123
 -85.35
 -85.3555
 -85.3586
 -85.3543
 -85.2953
 -85.3011
 -85.2903
 -85.2919
 -84.9372
 -84.8782
 -84.9173
 -85.1352
 -85.1435
 -85.147
 -85.1185
 -81.3983
 -80.9737
 -81.3432
 -80.7449
 -84.3994
 -84.3894
 -84.4579
 -84.3377
 -85.1934
 -85.194
 -85.2028
 -85.2121
 -85.4309
 -85.4275
 -85.4285
 -85.4279
 -82.2232
 -82.0886
 -82.4504
 -82.2369
 -85.368
 -85.3714
 -85.3645
 -85.3685
 -85.3182
 -85.3188
 -85.3255
 -85.3193
 -85.161
 -85.1277
 -85.1237
 -85.2741
 -85.2639
 -85.2588
 -85.2583
 -85.4284
 -85.4287
 -85.4296
 -84.9631
 -85.0169
 -85.0274
 -85.2745
 -85.2815
 -85.2911
 -85.2894
 -85.2087
 -85.2059
 -85.2039
 -85.1982
 -85.2223
 -85.2192
 -85.2337
 -85.2379
 -84.9571
 -84.9387
 -84.9317
 -84.9748
 -85.2777
 -85.2843
 -85.2741
 -85.2873
 -85.4164
 -85.4108
 -85.4111
 -85.4084
 -85.4098
 -85.4085
 -85.4071
 -85.4112
 -84.9361
 -84.9277
 -84.9512
 -84.9205
 -85.3968
 -85.3976
 -85.397
 -85.3932
 -85.4131
 -85.417
 -85.4155
 -85.4117
 -85.3942
 -85.3944
 -85.3893
 -85.3902
 -85.3534
 -85.3511
 -85.3557
 -85.3532
 -85.3016
 -85.2956
 -85.306
 -85.1959
 -85.1728
 -85.184
 -85.1827
 -85.3764
 -85.3732
 -85.369
 -85.3742
 -85.3844
 -85.3849
 -85.3877
 -85.3864
 -85.4382
 -85.4379
 -85.4357
 -85.4368
 -84.5
 -84.5569
 -84.534
 -84.5463
 -84.9151
 -84.9034
 -84.9063
 -84.9209
 -84.9747
 -84.9749
 -85.0225
 -84.9746
 -85.2007
 -85.183
 -85.1964
 -85.1972
 -85.241
 -85.2431
 -85.2425
 -85.4154
 -85.418
 -85.4212
 -85.4193
 -85.3891
 -85.388
 -85.3858
 -85.3845
 -85.2931
 -85.2865
 -85.2841
 -85.2903
 -85.4115
 -85.4141
 -85.338
 -85.3391
 -85.3389
 -85.3326
 -85.4098
 -85.4114
 -85.4145
 -85.4113
 -85.3251
 -85.3333
 -85.3229
 -85.3348
 -85.1857
 -85.2033
 -85.177
 -85.1945
 -84.7815
 -84.7167
 -84.772
 -84.8129
 -80.9506
 -81.266
 -80.6969
 -81.1492
 -85.4034
 -85.4012
 -85.4009
 -85.404
 -85.409
 -85.4091
 -85.4098
 -85.412
 -85.2579
 -85.2424
 -85.2548
 -85.249
 -85.3129
 -85.3089
 -85.3078
 -85.3141
 -85.1402
 -85.1257
 -85.1499
 -85.3374
 -85.3334
 -85.3338
 -85.3292
 -85.1544
 -85.1508
 -85.1592
 -85.1628
 -85.3018
 -85.2926
 -85.2865
 -85.2916
 -85.3566
 -85.3535
 -85.3558
 -85.3569
 -85.3165
 -85.3136
 -85.3121
 -85.396
 -85.3915
 -85.3935
 -85.3935
 -85.3441
 -85.3516
 -83.7949
 -83.9393
 -83.6846
 -83.8063
 -85.379
 -85.3766
 -85.3788
 -85.1571
 -85.1602
 -85.1652
 -85.1516
 -85.349
 -85.3495
 -85.347
 -85.2887
 -85.2806
 -85.292
 -85.2832
 -85.342
 -85.3337
 -85.3446
 -85.3395
 -85.3435
 -85.3508
 -82.9211
 -82.9269
 -82.7834
 -82.858
 -81.1474
 -80.8513
 -80.5339
 -80.9406
 -85.3022
 -85.2919
 -85.2953
 -85.2907
 -85.3415
 -85.3376
 -85.3408
 -85.3355
 -82.9129
 -82.9206
 -82.8812
 -83.0958
 -85.1629
 -85.1456
 -84.9201
 -84.9371
 -84.9349
 -84.9578
 -85.3476
 -85.3467
 -85.3542
 -85.3502
 -85.3362
 -85.3367
 -85.3425
 -85.3332
 -85.341
 -85.3349
 -85.3341
 -85.3341
 -85.2137
 -85.2173
 -85.2243
 -85.2133
 -85.0746
 -85.0472
 -85.0315
 -85.0753
 -84.3866
 -84.4925
 -84.4669
 -84.3615
 -85.1178
 -85.1204
 -85.1203
 -85.1466
 -85.3777
 -85.3748
 -85.3797
 -85.3779
 -85.3028
 -85.2829
 -85.2942
 -84.3486
 -84.4018
 -84.4912
 -85.3604
 -85.3677
 -85.3644
 -85.3645
 -85.3642
 -85.3567
 -85.3599
 -85.3628
 -85.2559
 -85.2488
 -85.2444
 -85.2789
 -85.2835
 -85.2911
 -85.2816
 -85.1167
 -85.1081
 -85.1057
 -85.1064
 -85.3959
 -85.3946
 -85.3976
 -85.3966
 -85.0982
 -85.0955
 -85.0959
 -85.1001
 -85.0255
 -85.0132
 -85.0273
 -85.4252
 -85.4294
 -85.4309
 -85.4281
 -85.3912
 -85.3942
 -85.1887
 -85.1791
 -85.1939
 -85.1935
 -85.2968
 -85.3063
 -85.299
 -85.2766
 -85.2731
 -85.2747
 -85.2633
 -85.0381
 -85.068
 -85.0495
 -85.3923
 -85.395
 -85.3895
 -85.3907
 -85.0351
 -85.076
 -85.0458
 -85.0351
 -85.37
 -85.366
 -85.3628
 -85.3639
 -85.1017
 -85.1073
 -85.09
 -85.0664
 -85.0816
 -85.0754
 -85.1748
 -85.1638
 -85.1695
 -85.1731
 -84.4814
 -84.4195
 -84.3205
 -84.4374
 -85.3798
 -85.3841
 -85.2298
 -85.237
 -85.2396
 -85.2383
 -85.4258
 -85.4247
 -85.4252
 -85.4268
 -85.2025
 -85.1871
 -85.2025
 -85.2184
 -85.3867
 -85.3911
 -85.392
 -85.3916
 -85.4101
 -85.414
 -85.4083
 -85.4125
 -85.3685
 -85.3626
 -85.4186
 -85.4211
 -85.4202
 -85.4191
 -85.0562
 -85.0596
 -85.0384
 -85.0729
 -85.4194
 -85.42
 -85.4202
 -85.4192
 -85.429
 -85.4321
 -85.4308
 -85.429
 -85.3273
 -85.3271
 -85.3341
 -85.3319
 -85.2751
 -85.2691
 -85.2813
 -85.2869
 -85.4046
 -85.4001
 -85.4033
 -85.4047
 -84.002
 -84.1231
 -83.9805
 -84.0014
 -85.4022
 -85.407
 -85.2216
 -85.2319
 -85.2339
 -85.247
 -85.4033
 -85.4009
 -85.3979
 -85.3982
 -85.119
 -85.1343
 -85.132
 -85.1298
 -85.2272
 -85.2043
 -85.2137
 -85.2245
 -85.0678
 -85.0657
 -85.0992
 -85.1124
 -85.1043
 -85.1133
 -85.1006
 -85.0671
 -85.0805
 -85.0739
 -85.0806
 -85.3373
 -85.3321
 -85.33
 -85.399
 -85.3991
 -85.4024
 -85.4026
 -85.3228
 -85.3188
 -85.3142
 -85.1192
 -85.1084
 -85.118
 -85.2929
 -85.3034
 -85.2936
 -85.3019
 -85.3479
 -85.3475
 -85.3473
 -85.3541
 -85.2624
 -85.2726
 -85.2742
 -85.2713
 -85.265
 -85.2613
 -85.2564
 -85.2361
 -85.2272
 -85.2226
 -85.2343
 -85.2457
 -85.251
 -85.2303
 -85.4003
 -85.3993
 -85.4007
 -85.3969
 -85.3574
 -85.3538
 -85.3577
 -85.3594
 -85.2876
 -85.2863
 -85.281
 -85.2955
 -84.9608
 -84.9283
 -84.9721
 -85.3251
 -85.3205
 -85.3239
 -85.3263
 -85.1647
 -85.1411
 -85.1571
 -85.1423
 -83.3546
 -83.4892
 -83.3623
 -83.2966
 -85.248
 -85.2412
 -85.2466
 -85.2455
 -85.4051
 -85.4037
 -85.4078
 -85.4065
 -85.232
 -85.2428
 -85.2353
 -85.2285
 -85.093
 -85.0935
 -85.0969
 -85.1024
 -85.089
 -85.0754
 -85.0788
 -85.2683
 -85.2701
 -85.2636
 -85.3514
 -85.2291
 -85.2034
 -85.2193
 -85.2179
 -85.4114
 -85.4108
 -85.4128
 -85.406
 -85.4067
 -85.4082
 -85.2202
 -85.2318
 -85.2229
 -85.2299
 -85.4277
 -85.4293
 -85.4302
 -85.4301
 -85.1315
 -85.3366
 -85.3298
 -85.3343
 -85.3325
 -85.1045
 -85.1121
 -85.1096
 -85.1124
 -85.409
 -85.4117
 -85.4072
 -85.4095
 -85.3531
 -85.3607
 -85.3586
 -85.3543
 -85.3831
 -85.3861
 -85.38
 -85.3816
 -85.0686
 -85.076
 -85.0786
 -85.0696
 -85.1969
 -85.2079
 -85.1957
 -85.199
 -85.3277
 -85.3228
 -85.3273
 -85.32
 -85.1876
 -85.1684
 -85.1916
 -85.1754
 -85.3491
 -85.3519
 -85.3574
 -85.3561
 -85.1316
 -85.1279
 -85.1444
 -85.1415
 -85.1753
 -85.1757
 -85.1912
 -85.1877
 -85.3338
 -85.3347
 -85.3351
 -85.3407
 -85.4089
 -85.4126
 -85.4105
 -85.4132
 -84.8708
 -84.9149
 -84.9176
 -84.9374
 -84.4267
 -84.2775
 -84.4321
 -84.402
 -85.4132
 -85.4167
 -85.4148
 -85.4148
 -84.6579
 -84.5838
 -84.5084
 -84.4405
 -84.3851
 -84.4783
 -85.3006
 -85.3022
 -85.2954
 -85.2929
 -85.1891
 -85.198
 -85.1974
 -85.186
 -85.4376
 -85.4377
 -85.4379
 -85.4367
 -85.409
 -85.4086
 -85.4125
 -85.3502
 -85.3496
 -85.3552
 -85.3487
 -85.1148
 -85.1182
 -85.1032
 -85.1233
 -85.1799
 -85.1769
 -85.1734
 -85.1709
 -85.1811
 -85.1877
 -85.3529
 -85.3626
 -85.3594
 -85.3554
 -85.3426
 -85.3418
 -85.3361
 -85.3438
 -85.3595
 -85.358
 -85.3537
 -85.359
 -85.4272
 -85.4273
 -85.4228
 -85.4287
 -85.3716
 -85.3709
 -85.3665
 -85.243
 -85.311
 -85.3071
 -85.3086
 -85.3031
 -85.3172
 -85.3074
 -85.3108
 -85.3173
 -85.396
 -85.3949
 -85.3943
 -85.392
 -85.3731
 -85.3696
 -85.3705
 -85.3743
 -85.3424
 -85.3373
 -85.336
 -85.2079
 -85.1862
 -85.2045
 -85.1855
 -85.3082
 -85.3193
 -85.314
 -85.3125
 -85.2419
 -85.2508
 -85.2361
 -81.9939
 -81.938
 -81.723
 -82.0723
 -85.3976
 -85.4042
 -85.4012
 -85.3958
 -85.3897
 -85.397
 -85.3931
 -82.6024
 -85.3215
 -85.3218
 -85.3204
 -85.3281
 -85.3413
 -85.342
 -84.8734
 -84.8724
 -84.8643
 -84.8847
 -84.967
 -84.9763
 -85.0201
 -84.9644
 -85.1268
 -85.138
 -85.1197
 -85.1608
 -85.146
 -85.1548
 -85.1591
 -85.144
 -85.1427
 -85.1531
 -85.2298
 -85.2131
 -85.2075
 -85.2141
 -85.2484
 -85.2626
 -85.4379
 -85.4375
 -85.0568
 -85.0939
 -85.0495
 -85.0751
 -85.2741
 -85.2706
 -85.2807
 -85.2673
 -84.8138
 -84.8476
 -84.7697
 -84.7679
 -85.4022
 -85.4044
 -85.3993
 -85.4014
 -85.3872
 -85.3834
 -85.3868
 -85.3831
 -85.3488
 -85.3539
 -85.3544
 -85.3508
 -85.3286
 -85.3307
 -85.3394
 -85.3367
 -85.3012
 -85.2982
 -85.0642
 -85.3682
 -85.3727
 -85.3728
 -85.3731
 -85.423
 -85.4219
 -85.4261
 -85.4213
 -85.3921
 -85.3969
 -85.3908
 -85.3931
 -78.9814
 -78.9406
 -79.019
 -79.1337
 -85.4247
 -85.4254
 -85.4245
 -85.4247
 -85.1565
 -85.1541
 -85.1396
 -85.1621
 -85.2197
 -85.2021
 -85.2095
 -85.1968
 -85.3644
 -85.365
 -85.3677
 -85.3689
 -85.3672
 -85.3652
 -85.363
 -85.3644
 -85.1084
 -85.1288
 -85.1167
 -85.1249
 -85.4226
 -85.4235
 -85.4222
 -85.4228
 -85.4043
 -85.4059
 -85.4052
 -85.4072
 -85.3666
 -85.3672
 -85.3709
 -85.3714
 -85.4048
 -85.4016
 -85.4038
 -85.4044
 -85.1691
 -85.1885
 -85.1894
 -85.1918
 -85.1145
 -85.1165
 -85.1236
 -85.1243
 -85.3987
 -85.3966
 -85.3948
 -85.3957
 -85.2695
 -85.2624
 -85.2633
 -85.2527
 -85.2723
 -85.2675
 -85.2648
 -85.271
 -81.5288
 -81.8501
 -81.7974
 -81.8836
 -85.422
 -85.4227
 -85.4084
 -85.4086
 -85.4063
 -85.4107
 -84.9444
 -84.9228
 -84.9112
 -84.9483
 -85.1962
 -85.1734
 -85.1714
 -85.1653
 -85.4052
 -85.4027
 -85.4076
 -85.4076
 -85.2636
 -85.2665
 -85.2609
 -85.2727
 -85.2253
 -85.2292
 -85.2152
 -85.2165
 -85.4259
 -85.4268
 -85.4253
 -85.4253
 -85.3213
 -85.3185
 -85.3209
 -85.3239
 -85.3021
 -85.3045
 -85.303
 -85.2966
 -85.3856
 -85.3867
 -85.3882
 -85.3847
 -85.3532
 -85.3504
 -85.3491
 -85.3454
 -85.2575
 -85.2572
 -85.2437
 -85.198
 -85.2113
 -85.2035
 -85.2261
 -84.628
 -84.5474
 -84.5869
 -84.6765
 -85.2147
 -85.2219
 -85.2243
 -85.2263
 -85.3147
 -85.3102
 -85.3128
 -85.3082
 -85.4235
 -85.4246
 -85.4244
 -85.4206
 -85.2267
 -85.2467
 -85.2368
 -85.2329
 -84.9092
 -84.9026
 -84.8624
 -84.8265
 -85.3624
 -85.3683
 -85.3656
 -85.3622
 -85.3404
 -85.338
 -85.335
 -85.3112
 -85.3197
 -85.3233
 -85.3251
 -84.4256
 -84.3827
 -84.3987
 -84.4753
 -85.324
 -85.3184
 -85.3197
 -85.317
 -85.4211
 -85.4211
 -85.4214
 -85.4215
 -85.3168
 -85.3138
 -85.3187
 -85.318
 -85.0471
 -85.0335
 -85.0455
 -85.0484
 -85.137
 -85.1496
 -85.1378
 -85.1225
 -85.4381
 -85.4373
 -85.438
 -85.4379
 -85.1641
 -85.1702
 -85.1662
 -85.1348
 -85.3406
 -85.3325
 -85.3341
 -85.3378
 -85.4375
 -85.4381
 -85.4368
 -85.4363
 -85.4108
 -85.4155
 -85.4126
 -85.3645
 -85.3644
 -85.3703
 -85.372
 -85.3993
 -85.4006
 -85.4047
 -85.398
 -83.5972
 -83.7384
 -83.8211
 -83.7816
 -85.0785
 -85.1033
 -85.0524
 -85.4173
 -85.4205
 -85.4198
 -85.4206
 -85.3388
 -85.336
 -85.3423
 -85.3336
 -85.3807
 -85.3792
 -85.3851
 -85.376
 -84.9228
 -84.9137
 -84.8803
 -84.8783
 -85.2603
 -85.2748
 -85.2599
 -85.269
 -85.3497
 -85.3398
 -85.3442
 -84.9363
 -84.9433
 -84.9537
 -84.9538
 -85.1278
 -85.052
 -85.0637
 -85.0567
 -85.2368
 -85.4184
 -85.4205
 -85.4187
 -85.421
 -83.7445
 -83.7056
 -83.5591
 -83.5996
 -85.383
 -85.3904
 -85.3872
 -85.3912
 -85.3445
 -85.3404
 -85.3403
 -85.3341
 -82.395
 -85.3928
 -85.3901
 -85.395
 -85.417
 -85.421
 -85.4184
 -85.4186
 -85.2878
 -85.2857
 -85.3008
 -85.2912
 -85.3605
 -85.3605
 -85.3642
 -85.3578
 -85.1535
 -85.1396
 -85.3027
 -85.2989
 -85.2972
 -85.3053
 -85.1488
 -85.1356
 -85.1233
 -85.1362
 -85.1994
 -85.1949
 -85.214
 -85.216
 -85.3691
 -85.3653
 -85.3689
 -85.3697
 -84.0822
 -84.0506
 -84.0242
 -84.1789
 -85.1201
 -85.1131
 -85.1192
 -85.11
 -84.4
 -84.4389
 -85.0464
 -85.0511
 -85.0514
 -85.0465
 -84.982
 -84.9566
 -84.9883
 -84.9634
 -85.4254
 -85.4239
 -85.4215
 -85.4214
 -85.3325
 -85.3312
 -85.3285
 -85.3377
 -85.2494
 -85.2667
 -85.2561
 -85.2574
 -85.3057
 -85.302
 -85.2997
 -85.3074
 -85.4221
 -85.4213
 -84.9318
 -84.9197
 -84.9229
 -84.9316
 -85.4207
 -85.4219
 -85.4191
 -83.9222
 -83.926
 -83.9074
 -83.8536
 -85.4132
 -85.4084
 -85.4118
 -85.4099
 -85.2004
 -85.1899
 -85.2048
 -85.1867
 -85.2813
 -85.2791
 -85.2766
 -85.4179
 -85.416
 -85.4169
 -85.4185
 -85.3319
 -85.325
 -85.3315
 -85.3277
 -85.2794
 -85.2857
 -85.2902
 -85.2834
 -85.2036
 -85.1978
 -85.2456
 -85.2212
 -85.2352
 -85.2309
 -85.3438
 -85.3367
 -85.3409
 -85.4249
 -85.4213
 -85.4207
 -85.4245
 -85.2778
 -85.2834
 -85.2764
 -85.2807
 -85.2557
 -85.2479
 -85.187
 -85.1739
 -85.1682
 -85.1871
 -84.3465
 -84.3655
 -84.4775
 -85.3344
 -85.3361
 -85.3276
 -85.3276
 -85.4237
 -85.424
 -85.424
 -84.3391
 -84.3629
 -84.3466
 -85.2642
 -85.2582
 -85.2625
 -85.2529
 -85.3571
 -85.3581
 -85.3521
 -85.3541
 -83.4911
 -83.3776
 -83.4323
 -83.5199
 -85.4021
 -85.4033
 -85.4015
 -85.4008
 -85.3613
 -85.3586
 -85.3589
 -85.3557
 -85.3909
 -85.392
 -85.3893
 -85.4164
 -85.4172
 -85.4212
 -85.4184
 -85.3086
 -85.298
 -85.3072
 -85.3096
 -85.4177
 -85.4164
 -85.4159
 -85.4149
 -85.2169
 -85.2155
 -85.2236
 -85.2078
 -85.424
 -85.3524
 -85.2985
 -85.2964
 -85.3036
 -85.294
 -85.3427
 -85.3403
 -85.337
 -85.3352
 -85.3751
 -85.3757
 -85.3726
 -85.3697
 -85.3471
 -85.3456
 -85.3511
 -85.3482
 -85.379
 -85.376
 -85.3796
 -85.3792
 -85.2986
 -85.2933
 -85.2943
 -85.3021
 -85.2818
 -85.2824
 -85.2848
 -85.2893
 -85.2539
 -85.2495
 -85.2465
 -85.2583
 -85.283
 -85.2822
 -85.2743
 -85.098
 -85.1004
 -85.0984
 -85.1096
 -85.3095
 -85.3558
 -85.3612
 -85.3621
 -85.3609
 -85.42
 -85.4202
 -85.4161
 -85.1786
 -85.1503
 -85.1578
 -85.1503
 -85.3176
 -85.326
 -85.3227
 -85.3447
 -85.3416
 -85.34
 -85.3371
 -85.3582
 -85.3611
 -85.3654
 -85.3673
 -85.4083
 -85.41
 -85.4126
 -85.4093
 -85.1463
 -85.1443
 -85.1533
 -85.1315
 -85.3144
 -85.31
 -85.3109
 -85.3049
 -85.2898
 -85.2875
 -85.2798
 -85.2921
 -85.2826
 -85.279
 -85.2758
 -85.2697
 -85.303
 -85.3011
 -85.306
 -85.2964
 -85.3726
 -85.3645
 -85.3743
 -85.3682
 -85.2795
 -85.2657
 -85.271
 -85.2748
 -84.9236
 -84.9244
 -84.9226
 -84.9314
 -84.6164
 -84.649
 -84.6152
 -85.301
 -85.3028
 -85.3084
 -85.3113
 -85.3058
 -85.3048
 -85.3103
 -85.3144
 -85.2812
 -85.2733
 -85.2875
 -85.2857
 -85.4148
 -85.4156
 -85.4111
 -85.4115
 -85.3757
 -85.3719
 -85.3705
 -85.3749
 -85.1827
 -85.1927
 -85.1889
 -85.193
 -84.9719
 -85.0233
 -85.0068
 -84.9456
 -85.4064
 -85.4046
 -85.4026
 -85.4062
 -83.9006
 -83.6956
 -83.7336
 -83.9356
 -85.2227
 -85.2341
 -85.2279
 -85.2265
 -84.9818
 -84.993
 -84.9902
 -85.1204
 -85.1287
 -85.1334
 -85.1509
 -85.368
 -85.3673
 -85.3711
 -85.3628
 -85.0831
 -85.0687
 -85.0644
 -85.0862
 -84.5975
 -84.7535
 -84.6549
 -83.4657
 -83.6309
 -83.6995
 -83.564
 -85.4296
 -85.4306
 -85.4309
 -85.4332
 -85.1704
 -85.1596
 -85.1671
 -85.1747
 -85.3325
 -85.3237
 -85.3261
 -85.3298
 -85.4114
 -85.41
 -85.407
 -85.4096
 -85.3913
 -85.395
 -85.3897
 -85.3911
 -85.1759
 -85.1827
 -85.1703
 -85.1764
 -84.8197
 -84.7537
 -84.684
 -84.7674
 -85.3278
 -85.3315
 -85.324
 -85.3275
 -84.9201
 -84.9544
 -85.2573
 -85.2376
 -85.2431
 -85.2525
 -85.2625
 -85.2616
 -85.2555
 -85.2658
 -85.2439
 -85.2448
 -85.2388
 -85.0493
 -85.0591
 -85.0505
 -85.334
 -85.3344
 -85.3373
 -85.3386
 -85.3291
 -85.3279
 -85.3245
 -85.3343
 -85.1792
 -85.1935
 -85.1853
 -85.1816
 -85.3781
 -85.3818
 -85.3762
 -85.3775
 -85.2969
 -85.2857
 -85.2915
 -85.2989
 -85.0919
 -85.0915
 -85.0894
 -85.0911
 -85.2441
 -85.2567
 -85.2464
 -85.337
 -85.336
 -85.3311
 -85.3344
 -85.3095
 -85.3152
 -85.3179
 -85.428
 -85.4276
 -85.4266
 -85.4259
 -84.4914
 -84.4275
 -84.5132
 -84.3645
 -85.225
 -85.235
 -85.2359
 -85.2265
 -85.2029
 -85.2004
 -85.1894
 -85.2046
 -85.4295
 -85.4291
 -85.4325
 -85.4343
 -85.3872
 -85.3893
 -85.3886
 -85.1086
 -85.1163
 -85.0952
 -85.1181
 -85.3835
 -85.3788
 -85.3808
 -85.1725
 -85.1757
 -85.1646
 -85.1677
 -80.682
 -80.8732
 -80.8423
 -81.0185
 -85.4145
 -85.4153
 -85.4176
 -85.4132
 -85.0542
 -85.0469
 -85.0367
 -85.0213
 -85.4264
 -85.4257
 -85.4252
 -85.4257
 -85.1074
 -85.1262
 -85.1096
 -85.1228
 -81.1932
 -80.6956
 -81.0126
 -81.112
 -84.7316
 -84.697
 -84.7404
 -84.7392
 -85.0696
 -85.0821
 -85.0966
 -85.0658
 -85.2885
 -85.2786
 -84.9514
 -84.9704
 -84.8974
 -84.9019
 -85.3432
 -85.3388
 -85.3375
 -85.3338
 -85.2829
 -85.2825
 -85.2814
 -85.293
 -85.4106
 -85.4069
 -85.413
 -85.4135
 -85.4023
 -85.4011
 -85.4046
 -85.404
 -85.3932
 -85.389
 -85.3923
 -85.3896
 -85.4085
 -85.4091
 -85.41
 -85.4075
 -85.3566
 -85.3564
 -85.3605
 -85.3571
 -85.3953
 -85.3988
 -85.3981
 -85.3969
 -84.5979
 -84.4709
 -84.4674
 -84.5954
 -85.4038
 -85.4062
 -85.4058
 -85.4051
 -85.2522
 -85.2421
 -85.2333
 -85.2381
 -85.3832
 -85.3769
 -85.3775
 -85.4031
 -85.4061
 -85.4067
 -85.4054
 -85.0481
 -85.0192
 -85.0187
 -85.0318
 -84.8119
 -84.8021
 -84.7819
 -84.7892
 -85.3664
 -85.3661
 -85.3633
 -85.3711
 -85.2464
 -85.2475
 -85.2472
 -85.2352
 -85.3603
 -85.3582
 -85.36
 -85.3583
 -85.3581
 -85.3576
 -85.3669
 -85.2301
 -85.2267
 -85.2172
 -85.3539
 -85.3573
 -85.3197
 -85.3108
 -85.4243
 -85.4263
 -85.426
 -85.4243
 -85.3071
 -85.3088
 -85.3037
 -85.3127
 -85.3524
 -85.3514
 -85.3582
 -85.3511
 -85.3371
 -85.3398
 -85.3366
 -85.3416
 -85.3956
 -85.3851
 -85.3866
 -85.3836
 -85.3828
 -85.2712
 -85.2754
 -85.2652
 -85.2656
 -85.0128
 -85.013
 -85.0117
 -85.0101
 -85.3529
 -85.3484
 -85.3542
 -85.351
 -85.3623
 -85.3607
 -85.3582
 -85.3647
 -82.0564
 -82.3087
 -82.374
 -82.4687
 -85.2985
 -85.3059
 -85.3017
 -85.2959
 -85.2856
 -85.2782
 -85.2743
 -85.281
 -85.3522
 -85.3483
 -85.1043
 -85.1067
 -85.1124
 -85.1051
 -85.2152
 -85.2219
 -85.2205
 -85.2139
 -85.1288
 -85.1219
 -85.1188
 -85.1201
 -85.1886
 -85.1975
 -85.1965
 -85.1859
 -85.1026
 -85.1004
 -85.0919
 -85.1035
 -85.3899
 -85.3875
 -85.3884
 -85.3913
 -85.4034
 -85.4025
 -85.3988
 -85.4012
 -85.1764
 -85.1683
 -85.1596
 -85.1739
 -85.3018
 -85.2964
 -85.302
 -85.2966
 -85.3933
 -85.3895
 -85.393
 -85.3912
 -85.2723
 -85.2641
 -85.264
 -85.2779
 -85.1613
 -85.1757
 -84.9044
 -84.9234
 -84.9299
 -84.8974
 -85.2916
 -85.2889
 -85.2803
 -85.2775
 -85.3936
 -85.3919
 -85.3925
 -85.3971
 -85.4223
 -85.42
 -85.4206
 -85.4226
 -82.6023
 -82.5254
 -85.242
 -85.2552
 -85.2538
 -85.2632
 -85.2246
 -85.2066
 -85.2183
 -85.2191
 -85.2153
 -85.2147
 -85.1275
 -85.1312
 -85.1339
 -85.1344
 -85.2838
 -85.2911
 -85.296
 -84.5631
 -84.6106
 -84.6187
 -84.6639
 -85.4048
 -85.4073
 -85.402
 -85.4054
 -85.4216
 -85.4214
 -85.421
 -85.4296
 -85.4283
 -85.4255
 -85.4276
 -85.3322
 -85.3406
 -85.339
 -85.3389
 -85.2985
 -85.3092
 -85.296
 -85.305
 -85.3796
 -85.3858
 -85.3877
 -85.3845
 -85.348
 -85.3459
 -85.3518
 -85.3467
 -85.3403
 -85.3453
 -85.3417
 -85.3158
 -85.3166
 -85.3132
 -85.3227
 -85.3703
 -85.3796
 -85.3761
 -85.371
 -85.2694
 -85.2607
 -85.2665
 -85.2685
 -85.3047
 -85.3023
 -85.3125
 -85.3016
 -85.3595
 -85.3582
 -85.3553
 -85.3595
 -85.3013
 -85.2973
 -85.2951
 -85.3031
 -81.313
 -81.1916
 -81.6675
 -81.6243
 -85.1521
 -85.146
 -85.1435
 -85.1353
 -85.3699
 -85.3693
 -85.375
 -85.3756
 -85.0854
 -85.0845
 -85.0452
 -85.038
 -85.0188
 -84.9783
 -85.0206
 -85.0453
 -85.3961
 -85.3951
 -85.3974
 -85.3924
 -85.3896
 -85.3848
 -85.3893
 -85.3878
 -85.4066
 -85.4029
 -85.4058
 -85.4075
 -85.374
 -85.3742
 -85.3787
 -85.3763
 -85.2462
 -85.2402
 -85.2348
 -85.2393
 -85.1643
 -85.1582
 -85.1709
 -85.1546
 -85.3608
 -85.353
 -85.3616
 -85.3548
 -85.1684
 -85.1739
 -85.175
 -85.1746
 -84.9729
 -84.9802
 -84.9889
 -84.9968
 -85.2952
 -85.3021
 -85.296
 -85.3016
 -85.2238
 -85.215
 -85.2066
 -85.2322
 -85.2392
 -85.2548
 -85.2446
 -84.9311
 -84.9075
 -84.8771
 -84.9104
 -85.1716
 -85.1689
 -85.1649
 -85.1652
 -85.368
 -85.3709
 -85.3683
 -85.3695
 -85.3116
 -85.3178
 -85.3197
 -85.4318
 -85.4293
 -85.4298
 -85.431
 -85.4131
 -85.4163
 -85.4185
 -85.4151
 -85.216
 -85.2276
 -85.2095
 -85.2259
 -85.3179
 -85.3235
 -84.9239
 -84.9195
 -84.8671
 -84.9415
 -85.3105
 -85.3017
 -85.3
 -85.3074
 -85.4048
 -85.4059
 -85.4024
 -85.4056
 -85.1547
 -85.1588
 -85.1615
 -85.2589
 -85.2635
 -85.2642
 -85.2493
 -85.2183
 -85.2327
 -85.2345
 -85.2331
 -85.2944
 -85.3018
 -85.3038
 -85.2947
 -85.2691
 -85.2752
 -85.282
 -85.2743
 -85.3015
 -85.304
 -85.2976
 -85.3082
 -85.2628
 -85.27
 -85.384
 -85.3806
 -85.387
 -85.3828
 -85.2668
 -85.2586
 -85.2615
 -85.2678
 -85.3396
 -85.3317
 -85.3363
 -85.2654
 -85.2746
 -85.2672
 -85.2732
 -85.3447
 -85.3415
 -85.3381
 -85.3422
 -85.106
 -85.0864
 -85.101
 -85.0738
 -85.2744
 -85.2721
 -85.2842
 -85.3263
 -85.3282
 -85.3345
 -85.3226
 -85.2916
 -85.2891
 -85.2951
 -85.1252
 -85.129
 -85.1168
 -85.3471
 -85.3458
 -85.3451
 -85.339
 -85.2889
 -85.2947
 -85.2969
 -83.1521
 -83.2445
 -83.2882
 -82.9665
 -85.3474
 -85.343
 -85.3397
 -85.3482
 -85.2322
 -85.2211
 -85.2233
 -85.2173
 -85.3929
 -85.3929
 -85.3945
 -85.396
 -85.4022
 -85.399
 -85.404
 -85.403
 -84.9832
 -85.0313
 -84.9678
 -84.9819
 -85.3251
 -85.3208
 -85.3159
 -85.1756
 -85.1602
 -85.1733
 -85.1711
 -85.3993
 -85.3939
 -85.3971
 -85.307
 -85.3143
 -85.3094
 -85.3152
 -85.3654
 -85.3675
 -85.3671
 -85.3655
 -85.412
 -85.4126
 -85.4146
 -85.4118
 -79.4362
 -79.1994
 -79.2315
 -79.4142
 -85.1902
 -85.1943
 -85.2017
 -85.1882
 -85.3152
 -85.3275
 -85.3229
 -85.3264
 -84.822
 -84.7854
 -84.7461
 -85.2893
 -85.2966
 -85.2954
 -85.287
 -85.4162
 -85.3551
 -85.3503
 -85.3451
 -85.3512
 -85.3981
 -85.398
 -85.3984
 -85.4
 -85.3798
 -85.3789
 -85.3779
 -85.3818
 -85.3231
 -85.3209
 -85.306
 -85.2971
 -85.2987
 -85.2968
 -83.1612
 -83.3941
 -83.1565
 -83.2589
 -85.2153
 -85.211
 -85.2051
 -85.1957
 -85.1931
 -85.2039
 -85.1969
 -85.4184
 -85.4226
 -85.4192
 -85.4183
 -85.2951
 -85.2949
 -85.3025
 -85.3037
 -85.3147
 -85.3114
 -85.3051
 -85.3103
 -85.4017
 -85.3986
 -85.4037
 -85.3991
 -85.3009
 -85.2986
 -85.3088
 -85.3039
 -84.4537
 -84.4497
 -84.3582
 -84.3926
 -85.2862
 -85.2837
 -85.2901
 -85.2861
 -85.1817
 -85.1833
 -85.1858
 -85.1945
 -85.1506
 -85.1364
 -85.1356
 -85.1431
 -85.0258
 -85.035
 -85.0248
 -85.0202
 -84.2341
 -84.2055
 -84.1267
 -84.2866
 -85.4275
 -85.4256
 -85.4264
 -85.4257
 -83.7293
 -83.7757
 -83.5778
 -83.7781
 -85.2973
 -85.2913
 -85.2969
 -85.29
 -85.4248
 -85.4252
 -85.4227
 -85.4235
 -85.2493
 -85.2445
 -85.2525
 -85.2535
 -85.0026
 -85.4094
 -85.4076
 -85.4083
 -85.4124
 -85.0836
 -84.4021
 -84.5271
 -84.5169
 -84.3888
 -85.3317
 -85.34
 -85.3824
 -85.3772
 -85.3845
 -85.3788
 -85.3945
 -85.3946
 -85.3972
 -85.3964
 -85.431
 -85.4285
 -85.4318
 -85.3845
 -85.3898
 -85.3887
 -85.3878
 -85.2474
 -85.421
 -85.3613
 -85.3605
 -85.3584
 -85.4213
 -85.423
 -85.4236
 -85.4224
 -85.258
 -85.2551
 -85.2572
 -85.2484
 -85.1724
 -85.18
 -85.16
 -85.1588
 -85.3538
 -85.3504
 -85.3526
 -85.3602
 -85.4168
 -85.4188
 -85.4155
 -85.4146
 -85.4066
 -85.4056
 -85.4071
 -85.4053
 -85.3372
 -85.347
 -85.3461
 -84.0212
 -83.907
 -84.2141
 -83.9787
 -80.0049
 -80.5203
 -80.245
 -80.3959
 -84.7183
 -84.6427
 -84.5996
 -84.6586
 -85.3088
 -85.3159
 -85.3089
 -84.482
 -84.5428
 -84.5156
 -84.4834
 -85.386
 -85.3848
 -85.3896
 -85.3919
 -85.3923
 -85.39
 -85.3919
 -85.0853
 -85.0767
 -85.3652
 -85.3668
 -85.4382
 -85.4369
 -85.4381
 -85.4279
 -85.4293
 -85.4287
 -85.4299
 -85.2666
 -85.2595
 -85.2734
 -85.2674
 -85.2085
 -85.2059
 -85.1991
 -85.2155
 -85.2905
 -85.2908
 -85.2997
 -85.2956
 -85.4248
 -85.4246
 -85.4254
 -85.4247
 -85.3665
 -85.3695
 -85.368
 -85.3648
 -84.9965
 -84.9923
 -84.9959
 -85.0102
 -85.3663
 -85.3686
 -85.3648
 -85.3697
 -85.3277
 -85.3295
 -85.3224
 -85.3305
 -85.3569
 -85.3599
 -85.3599
 -78.799
 -78.8599
 -78.9153
 -85.1905
 -85.1803
 -85.2568
 -85.2564
 -85.248
 -85.2633
 -85.3813
 -85.386
 -85.3822
 -85.3812
 -85.3668
 -85.3683
 -85.374
 -85.3712
 -85.3709
 -85.3686
 -85.3764
 -83.4287
 -83.4423
 -84.9983
 -84.9917
 -85.0057
 -85.0005
 -85.3254
 -83.3782
 -83.1441
 -83.2205
 -83.2381
 -85.1786
 -85.1945
 -85.185
 -85.1822
 -85.2752
 -85.2684
 -84.2887
 -84.4808
 -84.4532
 -84.3443
 -85.4274
 -85.4302
 -85.4295
 -85.4279
 -85.4151
 -85.4166
 -85.4152
 -85.419
 -85.0566
 -85.1044
 -85.0678
 -85.0906
 -85.192
 -85.1849
 -85.2124
 -85.2083
 -85.2048
 -85.2
 -85.2054
 -85.3749
 -85.3782
 -85.3712
 -85.375
 -84.9601
 -84.9942
 -85.0089
 -85.01
 -85.2894
 -85.2894
 -85.2881
 -85.3512
 -85.3532
 -85.3548
 -85.3594
 -85.1977
 -85.2016
 -85.2078
 -85.2038
 -85.1214
 -85.1369
 -85.1502
 -85.1299
 -85.1573
 -85.1481
 -85.1512
 -85.1629
 -85.241
 -85.2423
 -85.2562
 -85.2477
 -85.346
 -85.3424
 -85.1834
 -85.1849
 -85.1869
 -85.175
 -85.4297
 -85.4251
 -85.4261
 -85.4263
 -85.1321
 -85.1413
 -85.134
 -85.1432
 -84.8011
 -84.7771
 -84.829
 -84.8177
 -85.328
 -85.3263
 -84.0882
 -84.0717
 -83.9926
 -84.1007
 -85.2162
 -85.2304
 -85.2097
 -85.4188
 -85.4184
 -85.4204
 -85.4204
 -84.2455
 -84.1585
 -84.2041
 -85.1417
 -85.1387
 -85.1517
 -85.1463
 -84.2471
 -85.1167
 -85.107
 -85.1126
 -85.0932
 -85.2971
 -85.291
 -85.299
 -85.2991
 -85.2511
 -85.2534
 -85.259
 -85.2505
 -85.4218
 -85.4249
 -85.3178
 -85.3224
 -85.3208
 -85.318
 -85.0531
 -85.0106
 -85.0588
 -85.0085
 -85.2092
 -85.2323
 -85.2191
 -85.2121
 -85.4076
 -85.4056
 -85.4056
 -85.4063
 -85.2634
 -85.2703
 -85.2785
 -85.2734
 -85.3303
 -85.3937
 -85.3952
 -85.3918
 -85.2077
 -85.2123
 -85.1977
 -85.2141
 -85.3651
 -85.3633
 -85.3652
 -85.3607
 -85.2216
 -85.2063
 -85.2137
 -85.2246
 -85.42
 -85.4176
 -85.4163
 -85.419
 -85.4361
 -85.437
 -85.4355
 -85.1499
 -85.1567
 -85.1699
 -85.1627
 -85.3437
 -85.3447
 -85.3383
 -85.3414
 -85.3587
 -85.3609
 -85.3636
 -85.3654
 -85.1737
 -85.1787
 -85.1034
 -85.0971
 -85.0886
 -85.113
 -85.242
 -85.2604
 -85.327
 -85.3303
 -85.3266
 -85.3242
 -85.3422
 -85.3442
 -85.3494
 -85.3427
 -85.2342
 -85.2472
 -85.2538
 -85.2444
 -85.3196
 -85.3197
 -85.3201
 -85.4009
 -85.397
 -85.3954
 -85.3978
 -85.3806
 -85.3788
 -85.3812
 -85.2444
 -85.2565
 -85.237
 -85.2519
 -85.1257
 -85.0963
 -85.0844
 -85.1194
 -85.3626
 -85.356
 -85.3568
 -85.3603
 -85.2603
 -85.2582
 -85.2445
 -85.0765
 -85.0747
 -85.0766
 -85.0753
 -85.1946
 -85.1944
 -85.199
 -85.2026
 -85.3876
 -85.3849
 -85.3833
 -85.4302
 -85.4272
 -85.4279
 -85.3569
 -85.3596
 -85.3603
 -85.194
 -85.1816
 -85.1991
 -85.1894
 -85.4302
 -85.4308
 -85.4302
 -85.4316
 -85.3513
 -85.3477
 -85.3501
 -85.3542
 -85.3933
 -85.395
 -85.3995
 -85.3992
 -85.3889
 -85.3913
 -85.3893
 -85.3898
 -84.6364
 -84.5161
 -84.5622
 -85.2368
 -85.24
 -85.2327
 -85.2406
 -85.3948
 -85.3961
 -85.3929
 -85.3931
 -85.2782
 -85.2816
 -85.2812
 -85.2902
 -85.3665
 -85.3669
 -85.3663
 -85.3614
 -85.409
 -85.4115
 -84.9866
 -85.0045
 -85.0014
 -85.0131
 -85.3771
 -85.3737
 -85.3811
 -85.3758
 -85.247
 -85.2445
 -85.2386
 -85.2509
 -85.3589
 -85.3511
 -85.4255
 -85.4254
 -85.4226
 -85.4261
 -85.392
 -85.3971
 -85.3902
 -85.3985
 -85.4311
 -85.4318
 -85.434
 -85.4345
 -85.3759
 -85.3761
 -85.3783
 -85.3587
 -85.3651
 -85.3649
 -85.3622
 -85.3626
 -85.3596
 -85.3617
 -85.356
 -85.1739
 -85.1772
 -85.1668
 -85.162
 -84.5003
 -84.4692
 -84.5615
 -85.2975
 -85.2966
 -85.2986
 -85.4003
 -85.3963
 -85.3986
 -85.3954
 -85.2458
 -85.2528
 -85.2616
 -85.2532
 -85.0821
 -85.0432
 -85.0521
 -85.0873
 -85.3038
 -85.2966
 -85.291
 -85.2928
 -85.2114
 -85.2321
 -85.2133
 -85.4267
 -85.4276
 -85.4241
 -85.4237
 -85.0133
 -85.0187
 -85.115
 -85.1236
 -85.1244
 -85.37
 -85.3716
 -85.3669
 -85.3748
 -85.2935
 -85.3047
 -85.3012
 -85.3021
 -85.0712
 -85.0756
 -85.0901
 -85.0747
 -85.3177
 -85.3033
 -85.306
 -85.3123
 -85.2118
 -85.1996
 -85.2199
 -85.2197
 -85.4062
 -85.4079
 -85.4128
 -85.1998
 -85.2004
 -85.2079
 -85.2076
 -85.3158
 -85.3213
 -85.0439
 -85.0636
 -85.05
 -85.0471
 -85.0813
 -85.0605
 -85.074
 -85.0641
 -85.4095
 -85.408
 -85.1093
 -85.1287
 -85.1145
 -85.0962
 -85.3059
 -85.2991
 -85.3021
 -85.307
 -85.2332
 -84.7613
 -84.684
 -84.712
 -85.3292
 -85.3274
 -85.3279
 -85.3231
 -85.4132
 -85.4135
 -85.4116
 -85.415
 -84.5886
 -84.6539
 -84.6323
 -84.5464
 -85.1211
 -85.1306
 -85.1169
 -85.1206
 -85.3538
 -85.3555
 -85.3557
 -84.6954
 -84.6655
 -84.738
 -84.7319
 -85.4304
 -85.4279
 -85.4289
 -85.431
 -84.9804
 -84.9924
 -84.9979
 -84.9683
 -85.3508
 -85.3454
 -85.349
 -85.3535
 -85.2432
 -85.2523
 -85.2482
 -85.2406
 -85.0574
 -85.0648
 -85.0569
 -85.2168
 -85.2292
 -85.2171
 -85.2272
 -85.1012
 -85.0895
 -85.0976
 -85.0976
 -85.0945
 -85.0809
 -85.0809
 -85.3812
 -85.3767
 -85.3821
 -85.3735
 -85.3695
 -85.2837
 -85.2997
 -85.2884
 -85.2892
 -85.4189
 -85.4177
 -85.4157
 -85.4176
 -85.331
 -85.3384
 -85.327
 -85.3361
 -85.3454
 -85.3497
 -85.345
 -85.3442
 -85.12
 -85.1144
 -85.1284
 -85.1138
 -85.1039
 -85.3499
 -85.3431
 -85.3474
 -85.3515
 -85.4161
 -85.4202
 -85.3096
 -85.3122
 -85.3035
 -85.313
 -85.083
 -85.0811
 -85.0902
 -85.4055
 -85.4084
 -85.4046
 -85.4062
 -85.3138
 -85.3023
 -85.3073
 -85.3088
 -85.1152
 -85.1087
 -85.1165
 -85.1211
 -85.2878
 -85.2874
 -85.2996
 -85.2906
 -85.3438
 -85.3535
 -84.948
 -84.9367
 -84.9418
 -84.9303
 -85.0686
 -85.114
 -85.1363
 -85.13
 -85.145
 -85.1377
 -85.1039
 -85.0724
 -85.0697
 -85.09
 -85.3111
 -85.308
 -85.3081
 -85.3332
 -85.3309
 -85.3277
 -85.3253
 -85.1814
 -85.1787
 -85.1816
 -85.18
 -85.2532
 -85.2493
 -85.3202
 -85.3161
 -85.3188
 -85.315
 -85.3222
 -85.3216
 -85.2916
 -85.2982
 -85.3011
 -85.2919
 -83.8512
 -84.0611
 -84.026
 -84.0852
 -85.318
 -85.1036
 -85.1146
 -85.1063
 -85.1036
 -85.4258
 -85.4279
 -85.4254
 -85.3713
 -85.3705
 -85.3666
 -85.3717
 -85.2816
 -85.2828
 -85.2782
 -85.266
 -85.3162
 -85.3212
 -85.312
 -85.1465
 -85.1571
 -85.1534
 -85.1456
 -85.4071
 -85.4099
 -85.4043
 -85.4082
 -85.3541
 -85.3519
 -85.3561
 -85.3541
 -85.4076
 -85.4091
 -85.4034
 -85.4066
 -84.9226
 -84.9128
 -84.9002
 -84.9037
 -85.1627
 -85.1736
 -85.3805
 -85.3787
 -85.3768
 -85.3796
 -85.4158
 -85.4153
 -85.4161
 -85.4146
 -85.4366
 -85.4376
 -85.4355
 -85.4379
 -85.4118
 -85.4089
 -85.4114
 -85.3484
 -85.354
 -85.3476
 -85.3518
 -85.4148
 -85.4165
 -85.4167
 -85.4163
 -85.0012
 -85.019
 -85.0413
 -85.0162
 -85.3947
 -85.3981
 -85.3985
 -85.3513
 -85.3496
 -85.3479
 -85.3474
 -85.0971
 -85.092
 -85.0969
 -85.0889
 -85.3546
 -85.3599
 -85.3574
 -85.3574
 -85.3311
 -85.3359
 -85.3385
 -85.3312
 -85.1448
 -85.144
 -85.1701
 -85.1744
 -84.9559
 -84.9607
 -84.9314
 -84.9313
 -85.2527
 -85.255
 -85.2636
 -85.2542
 -83.4923
 -83.4662
 -83.7941
 -83.5725
 -85.0909
 -85.104
 -85.0884
 -85.133
 -85.1147
 -85.1113
 -85.1056
 -82.5035
 -82.4993
 -82.2566
 -82.6889
 -85.406
 -85.4036
 -85.4041
 -85.3885
 -85.3893
 -85.3929
 -85.3923
 -85.1367
 -85.1674
 -85.1577
 -84.5728
 -84.6211
 -84.5709
 -84.9013
 -84.8862
 -84.911
 -84.9194
 -85.1737
 -85.1721
 -85.1821
 -85.163
 -85.3521
 -85.3605
 -85.3566
 -85.3557
 -83.9139
 -83.8368
 -83.8863
 -83.7487
 -85.3392
 -85.329
 -85.3286
 -85.3376
 -85.3874
 -85.3891
 -85.384
 -85.3873
 -85.3259
 -85.325
 -85.3355
 -85.3299
 -85.2731
 -85.2647
 -85.2786
 -85.1128
 -85.1118
 -85.1133
 -85.1201
 -85.4093
 -85.4118
 -85.413
 -85.4114
 -85.3957
 -85.3982
 -85.3951
 -85.3926
 -85.1484
 -85.1608
 -85.1519
 -85.1413
 -85.4163
 -85.418
 -85.4198
 -85.4154
 -85.42
 -85.4169
 -85.417
 -85.4198
 -85.4199
 -85.4173
 -85.4185
 -84.4095
 -84.3856
 -82.5506
 -82.6486
 -82.5237
 -82.7809
 -85.3386
 -85.3356
 -85.3311
 -85.2821
 -85.2774
 -85.2895
 -85.2778
 -85.3063
 -85.3146
 -85.3125
 -85.3076
 -79.039
 -85.2535
 -85.3327
 -85.3388
 -85.3956
 -85.3975
 -85.3969
 -85.3963
 -84.5924
 -85.2182
 -85.2278
 -85.2181
 -85.4389
 -85.4379
 -85.438
 -85.4379
 -85.3073
 -85.3021
 -85.3084
 -85.315
 -85.4186
 -85.4169
 -85.4194
 -85.4158
 -85.27
 -85.2806
 -85.259
 -85.2373
 -85.2522
 -85.2423
 -85.4079
 -85.4082
 -85.4047
 -85.4085
 -85.3405
 -85.3359
 -85.3314
 -85.3301
 -85.0176
 -84.9993
 -85.0305
 -85.0274
 -85.3898
 -85.3967
 -85.3941
 -85.4204
 -85.4244
 -85.4245
 -85.4204
 -85.3923
 -85.391
 -85.3887
 -85.3909
 -85.1527
 -85.1529
 -85.1839
 -85.1514
 -85.194
 -85.1851
 -85.1865
 -85.1876
 -85.4081
 -85.4102
 -85.4101
 -85.4102
 -85.2463
 -85.2531
 -85.239
 -85.3829
 -85.3829
 -85.3818
 -85.3791
 -85.045
 -85.0661
 -85.0336
 -85.0403
 -85.3455
 -85.3487
 -85.3405
 -85.3441
 -85.0489
 -85.066
 -85.051
 -85.0471
 -85.3186
 -85.3203
 -85.3129
 -85.32
 -85.387
 -85.3867
 -85.3904
 -85.3845
 -84.9986
 -84.9901
 -85.0076
 -85.3049
 -85.312
 -85.4016
 -85.4001
 -85.3993
 -85.3971
 -85.2442
 -85.2366
 -85.2343
 -85.0038
 -84.9862
 -84.9776
 -84.988
 -85.3619
 -85.3637
 -85.3618
 -85.3656
 -85.3439
 -85.3435
 -85.3525
 -85.346
 -80.7255
 -80.7791
 -81.1645
 -80.8122
 -85.3053
 -85.2952
 -85.3004
 -83.5617
 -83.7119
 -83.7767
 -85.3039
 -85.3011
 -85.2953
 -85.3038
 -85.2946
 -84.8421
 -84.8808
 -84.7955
 -84.8454
 -85.2719
 -85.2829
 -85.2834
 -85.3959
 -85.396
 -85.3961
 -85.3941
 -85.2752
 -85.2801
 -85.286
 -85.2855
 -85.2946
 -85.2925
 -85.2921
 -85.4351
 -85.4344
 -85.4337
 -85.4322
 -85.0855
 -85.1271
 -85.1193
 -85.1133
 -84.904
 -84.9086
 -84.9219
 -84.9249
 -85.232
 -85.2295
 -85.2449
 -85.2328
 -85.4029
 -85.4035
 -85.4049
 -85.4001
 -80.5253
 -80.8511
 -80.4534
 -80.9612
 -85.3843
 -85.3795
 -85.3821
 -85.3823
 -84.8507
 -84.8256
 -84.866
 -84.851
 -85.3949
 -85.3859
 -85.389
 -85.3931
 -85.3766
 -85.3746
 -85.3718
 -85.3744
 -85.3846
 -85.3862
 -85.1669
 -85.1526
 -85.1499
 -85.1626
 -85.411
 -85.4117
 -85.4114
 -85.3741
 -85.368
 -85.3699
 -85.3751
 -85.147
 -85.1604
 -85.1514
 -85.1394
 -85.2108
 -85.2071
 -85.2201
 -78.8207
 -78.8352
 -78.6849
 -78.8112
 -85.2858
 -85.2788
 -85.2916
 -85.4121
 -85.4145
 -85.4111
 -85.4102
 -85.3854
 -85.3821
 -85.4045
 -85.4086
 -85.4103
 -85.4066
 -85.364
 -85.3644
 -84.7239
 -84.7
 -84.6594
 -84.7389
 -85.3817
 -85.3816
 -85.3818
 -85.3775
 -85.3013
 -85.3038
 -85.2182
 -85.2245
 -85.2198
 -85.2171
 -85.3937
 -85.3961
 -85.3965
 -85.3957
 -85.1709
 -85.1384
 -85.1421
 -85.165
 -85.4084
 -85.4085
 -85.4118
 -85.4154
 -85.3261
 -85.327
 -85.321
 -84.8263
 -84.807
 -84.7922
 -84.8189
 -85.3507
 -85.3506
 -85.3485
 -85.3447
 -85.0847
 -85.0602
 -85.0676
 -85.0476
 -85.1242
 -85.0935
 -85.1161
 -80.0928
 -80.0098
 -80.1565
 -80.3334
 -84.9561
 -84.9873
 -84.9968
 -84.9663
 -85.3834
 -85.3818
 -85.3861
 -85.3814
 -85.299
 -85.3027
 -85.2929
 -85.2256
 -85.0942
 -85.1048
 -85.0988
 -85.1061
 -85.2516
 -85.2409
 -85.2508
 -85.2557
 -85.3702
 -85.3773
 -85.3778
 -85.3713
 -85.0209
 -85.0239
 -85.0722
 -84.6302
 -85.3241
 -85.326
 -85.3193
 -85.33
 -85.1043
 -85.1229
 -82.9956
 -82.801
 -85.0748
 -85.0919
 -85.0783
 -85.0562
 -85.368
 -85.3716
 -85.4014
 -85.401
 -85.4021
 -85.4005
 -85.2236
 -85.2355
 -85.2337
 -85.2362
 -85.423
 -85.4238
 -85.4257
 -85.4241
 -85.1927
 -85.1987
 -85.1678
 -85.165
 -85.3813
 -85.3822
 -85.3787
 -85.375
 -85.1504
 -85.1512
 -85.159
 -85.1576
 -85.379
 -85.3811
 -85.3755
 -85.3789
 -85.2468
 -85.2626
 -85.4147
 -85.4135
 -85.3645
 -85.3688
 -85.3632
 -85.3695
 -85.3608
 -85.3586
 -85.3594
 -85.365
 -85.317
 -85.3138
 -85.3202
 -85.3189
 -85.3781
 -85.3739
 -85.3804
 -85.3822
 -85.1412
 -85.1266
 -85.1342
 -85.1333
 -85.4126
 -85.4118
 -85.4115
 -85.4156
 -85.4176
 -85.4148
 -85.4166
 -85.0448
 -85.0641
 -85.0637
 -85.0518
 -85.3617
 -85.3564
 -85.3569
 -85.3601
 -84.9329
 -84.9765
 -84.978
 -85.0128
 -85.3139
 -85.2779
 -85.2897
 -85.2902
 -85.2807
 -85.3927
 -85.3929
 -85.3924
 -85.3885
 -83.7282
 -83.5676
 -83.6354
 -83.8297
 -85.3596
 -85.3624
 -85.3654
 -85.3609
 -85.2989
 -85.305
 -85.2892
 -85.2953
 -85.3757
 -85.3721
 -85.3715
 -85.3708
 -85.35
 -85.4352
 -85.4346
 -85.4316
 -85.4328
 -85.3837
 -85.3849
 -85.3795
 -85.3801
 -82.7282
 -82.7669
 -82.9332
 -82.7173
 -85.2541
 -85.2435
 -85.2384
 -85.2466
 -85.1769
 -85.3019
 -85.305
 -85.3064
 -85.3125
 -85.4075
 -85.4078
 -85.4043
 -85.4027
 -85.3959
 -85.3948
 -85.3997
 -85.4065
 -85.4001
 -85.4031
 -85.4017
 -80.5146
 -80.5998
 -85.3793
 -85.3772
 -85.3764
 -85.1578
 -85.1577
 -85.1521
 -85.1703
 -85.3693
 -85.3671
 -85.3689
 -85.3647
 -85.3167
 -85.3617
 -85.3563
 -85.3618
 -85.3606
 -85.4137
 -85.4073
 -85.4096
 -85.4132
 -85.3593
 -85.363
 -85.3679
 -85.3602
 -85.2438
 -85.2496
 -85.231
 -85.2575
 -85.0919
 -85.0949
 -85.0879
 -85.097
 -85.4317
 -85.4289
 -85.432
 -85.4312
 -85.3705
 -85.369
 -85.3718
 -85.3667
 -85.4293
 -85.4283
 -85.4287
 -85.4303
 -85.1678
 -85.141
 -85.1692
 -85.1727
 -85.3068
 -85.3032
 -85.4137
 -85.4181
 -85.4138
 -85.4157
 -85.3126
 -85.3129
 -85.3124
 -85.3202
 -85.2875
 -85.2947
 -85.3166
 -85.3156
 -85.3235
 -85.3157
 -85.3984
 -85.3986
 -85.3971
 -85.4016
 -85.2125
 -85.1973
 -85.1903
 -85.2042
 -84.5072
 -84.547
 -84.4901
 -84.4819
 -85.0087
 -84.9969
 -85.0016
 -84.992
 -85.1881
 -85.2015
 -85.2045
 -85.1911
 -85.2538
 -85.2402
 -85.2483
 -85.2793
 -85.2649
 -85.2735
 -85.2752
 -85.3095
 -85.3063
 -85.302
 -85.31
 -84.5255
 -84.5572
 -84.5693
 -85.2416
 -85.2244
 -85.2426
 -85.2377
 -85.3221
 -85.3291
 -85.3279
 -85.3195
 -85.1372
 -85.1099
 -85.1403
 -85.1137
 -85.2082
 -85.2182
 -85.2175
 -85.2154
 -85.3264
 -85.3252
 -85.3299
 -85.3347
 -85.3088
 -85.3012
 -85.3079
 -85.3064
 -85.3655
 -85.3632
 -85.3641
 -85.3618
 -84.9703
 -84.9792
 -84.9863
 -85.3908
 -85.3883
 -85.3932
 -85.3897
 -85.14
 -85.1584
 -85.1407
 -85.1282
 -85.2638
 -85.262
 -85.255
 -85.2683
 -85.2764
 -85.2864
 -85.287
 -85.3344
 -85.3354
 -85.3371
 -85.3411
 -85.358
 -85.358
 -85.3618
 -85.3551
 -85.3626
 -85.3653
 -85.3681
 -85.4003
 -85.4011
 -85.4021
 -85.359
 -85.3566
 -85.3531
 -85.3551
 -85.3993
 -85.4007
 -85.3965
 -85.4111
 -85.4113
 -85.4108
 -85.4081
 -85.2811
 -85.262
 -85.2752
 -85.268
 -85.1614
 -85.1504
 -85.1736
 -85.157
 -85.1245
 -85.3995
 -85.3983
 -85.4039
 -85.3972
 -85.4002
 -85.3933
 -79.7573
 -79.6036
 -79.784
 -80.0203
 -85.3809
 -85.3773
 -85.2552
 -85.2551
 -85.2676
 -85.4286
 -85.4306
 -85.3392
 -85.3313
 -85.3341
 -85.3366
 -85.2465
 -85.2519
 -85.2522
 -85.3826
 -85.3899
 -85.3867
 -85.3883
 -85.1851
 -85.1895
 -85.1787
 -85.1992
 -81.9509
 -82.1622
 -82.1128
 -81.823
 -85.3337
 -85.3347
 -85.3335
 -85.3397
 -85.3951
 -85.4022
 -85.3961
 -85.3876
 -85.3865
 -85.3882
 -85.385
 -85.1286
 -85.1036
 -85.0995
 -85.0917
 -85.1777
 -85.1865
 -84.9971
 -85.0249
 -84.9838
 -85.4269
 -85.4244
 -85.3919
 -85.3873
 -85.3918
 -85.3875
 -85.3117
 -85.3198
 -85.317
 -85.3798
 -85.375
 -85.3839
 -85.3826
 -85.1354
 -85.0949
 -85.1017
 -85.122
 -85.2906
 -85.2884
 -85.2978
 -85.2994
 -85.293
 -85.2981
 -85.301
 -85.2941
 -85.0801
 -85.0881
 -85.0583
 -85.1774
 -85.1633
 -85.1761
 -85.1716
 -85.436
 -85.4373
 -85.4365
 -85.4384
 -84.8151
 -84.7396
 -85.4089
 -85.4116
 -85.411
 -85.409
 -85.271
 -85.281
 -85.2766
 -85.2708
 -85.3241
 -85.3288
 -85.3283
 -85.33
 -85.0156
 -85.027
 -85.2971
 -85.2914
 -85.2914
 -85.2849
 -85.2546
 -85.2503
 -85.2458
 -85.2591
 -85.3962
 -85.396
 -85.3946
 -85.3971
 -85.2777
 -85.2872
 -85.2868
 -85.277
 -85.1847
 -85.1877
 -85.3478
 -85.3481
 -85.3446
 -85.3487
 -85.3699
 -85.369
 -85.3727
 -85.3092
 -85.3171
 -85.3142
 -85.3189
 -85.0842
 -85.0987
 -85.0779
 -85.1077
 -82.0222
 -82.352
 -82.2877
 -81.9554
 -85.2894
 -85.2853
 -85.2948
 -85.3023
 -85.3283
 -85.3352
 -85.3285
 -85.3295
 -85.2438
 -85.25
 -85.2379
 -85.2404
 -85.155
 -85.1475
 -85.1635
 -85.1695
 -85.3978
 -85.4005
 -85.3464
 -85.343
 -85.3404
 -84.0049
 -83.9371
 -83.8583
 -84.055
 -85.1191
 -85.1015
 -85.123
 -85.0891
 -85.3156
 -85.3162
 -85.314
 -85.3095
 -85.3981
 -85.3994
 -85.399
 -85.2706
 -85.2641
 -85.2529
 -85.2538
 -85.1702
 -85.1885
 -85.1815
 -85.1699
 -85.3741
 -85.3678
 -85.3679
 -85.3711
 -85.333
 -85.3315
 -85.3285
 -85.3286
 -85.3843
 -85.385
 -85.3842
 -85.3838
 -85.3842
 -85.385
 -85.3838
 -85.2356
 -85.2408
 -85.2271
 -85.2258
 -85.2826
 -85.2763
 -85.285
 -82.7435
 -82.811
 -82.818
 -82.6361
 -85.1906
 -85.1927
 -84.7717
 -84.738
 -84.7999
 -84.8388
 -85.0976
 -85.0308
 -85.4033
 -85.1885
 -85.1742
 -85.1834
 -85.1683
 -85.432
 -85.3453
 -85.3419
 -85.3446
 -85.3378
 -85.1799
 -85.1882
 -85.1824
 -85.238
 -85.2496
 -85.249
 -85.3892
 -85.3902
 -85.3853
 -85.3899
 -85.3922
 -85.3902
 -85.3926
 -85.3897
 -85.0518
 -85.0173
 -85.0186
 -85.0403
 -85.4181
 -85.4183
 -85.4205
 -85.4164
 -85.2947
 -85.287
 -85.2777
 -85.3907
 -85.3928
 -85.3923
 -85.3185
 -85.3129
 -85.315
 -85.3199
 -85.1879
 -85.196
 -85.1805
 -85.1835
 -85.3309
 -85.3393
 -85.3299
 -85.2097
 -85.2173
 -85.2158
 -85.2033
 -85.2693
 -85.2821
 -85.393
 -85.3962
 -85.3969
 -85.4002
 -85.4038
 -85.4081
 -85.4054
 -85.4046
 -85.0334
 -85.0587
 -85.0349
 -85.0698
 -85.3689
 -85.3628
 -85.367
 -85.3707
 -85.342
 -85.3328
 -85.3397
 -85.3452
 -85.2556
 -85.2436
 -85.2606
 -85.2517
 -85.3987
 -85.3965
 -85.3954
 -85.393
 -85.2761
 -85.2643
 -85.282
 -85.2742
 -85.2971
 -85.2934
 -85.2928
 -85.3047
 -85.2632
 -85.2565
 -85.2653
 -85.2665
 -85.1141
 -85.1391
 -85.0129
 -85.034
 -85.0485
 -85.014
 -84.6518
 -84.5522
 -84.6524
 -84.6735
 -85.3443
 -85.3435
 -85.3406
 -85.348
 -85.3277
 -85.3237
 -85.3208
 -85.4227
 -85.4231
 -85.4232
 -85.423
 -85.4256
 -85.4277
 -85.4245
 -85.4086
 -85.4104
 -85.4057
 -85.325
 -85.3327
 -85.3354
 -85.3265
 -85.3607
 -85.3628
 -85.3653
 -85.3574
 -85.3936
 -85.3966
 -85.3949
 -85.3973
 -85.1926
 -85.1781
 -85.1817
 -85.1886
 -84.8683
 -84.902
 -84.925
 -84.9255
 -85.4297
 -85.4306
 -85.4271
 -85.4321
 -85.1506
 -85.1459
 -85.1334
 -85.1512
 -85.3081
 -85.3068
 -85.3108
 -85.3052
 -85.4315
 -85.4315
 -85.4281
 -85.4338
 -85.3411
 -85.3348
 -85.3437
 -85.3414
 -85.263
 -85.2592
 -85.2651
 -85.2595
 -85.171
 -85.1591
 -85.1621
 -85.0196
 -85.048
 -85.031
 -85.0148
 -85.13
 -85.1264
 -85.1335
 -85.1241
 -85.0358
 -85.0544
 -85.1301
 -85.1446
 -85.1045
 -85.3819
 -85.3787
 -85.3785
 -85.3779
 -85.4199
 -85.4188
 -85.419
 -85.4189
 -85.3574
 -85.3547
 -85.3576
 -85.3501
 -85.2701
 -85.3995
 -85.4012
 -85.401
 -85.3979
 -85.0838
 -85.0836
 -85.0822
 -85.0805
 -85.4216
 -85.4229
 -85.4212
 -85.4247
 -85.212
 -85.2101
 -85.2258
 -85.3697
 -84.9775
 -84.9704
 -84.9406
 -85.1326
 -85.1161
 -85.0998
 -85.1382
 -85.3065
 -85.3065
 -85.2948
 -85.3051
 -85.3774
 -85.3771
 -85.374
 -85.3809
 -85.2691
 -85.3694
 -85.3666
 -85.3666
 -85.2782
 -85.2788
 -85.2795
 -85.2887
 -85.2141
 -85.2173
 -85.2082
 -85.2067
 -85.2393
 -85.2265
 -85.2355
 -85.2401
 -85.3713
 -85.1632
 -85.1681
 -85.1722
 -85.3807
 -85.3777
 -85.3824
 -85.3793
 -85.3991
 -85.3979
 -85.4024
 -85.3964
 -85.4164
 -85.4181
 -85.416
 -85.2054
 -85.2065
 -85.1986
 -85.2049
 -84.9234
 -84.9034
 -84.9249
 -85.3875
 -85.3878
 -85.3958
 -85.3942
 -85.3925
 -85.3921
 -85.2792
 -85.2845
 -85.2886
 -85.4243
 -85.424
 -85.4261
 -85.4239
 -85.3983
 -85.3976
 -85.3992
 -85.3999
 -85.3496
 -85.352
 -85.3542
 -85.356
 -85.319
 -85.3212
 -85.3153
 -85.3099
 -85.173
 -85.1736
 -85.1676
 -85.1774
 -85.3953
 -85.3952
 -85.3929
 -85.3977
 -85.2105
 -85.2151
 -85.1961
 -85.2494
 -85.2583
 -85.2615
 -85.2622
 -85.4179
 -85.4168
 -85.4208
 -85.4192
 -85.3667
 -85.367
 -85.3664
 -85.3637
 -85.4266
 -85.4248
 -85.4221
 -85.4259
 -85.23
 -85.236
 -85.2414
 -85.2398
 -85.3141
 -85.3146
 -85.3083
 -85.3205
 -85.4071
 -85.4064
 -85.4089
 -85.4076
 -85.3016
 -85.3065
 -85.2953
 -85.2977
 -85.427
 -85.429
 -85.427
 -85.1889
 -85.1828
 -85.1836
 -85.186
 -85.3314
 -85.3315
 -85.3274
 -85.3247
 -85.3427
 -85.3468
 -85.3424
 -85.3445
 -85.2885
 -85.2859
 -85.2982
 -85.2878
 -85.3994
 -85.3996
 -85.4034
 -85.4002
 -85.293
 -85.2824
 -85.2892
 -85.287
 -85.3443
 -85.3427
 -85.3422
 -85.3404
 -85.0732
 -85.0734
 -85.0714
 -85.073
 -85.3888
 -85.3894
 -85.3862
 -85.384
 -85.013
 -85.0107
 -85.0106
 -85.1832
 -85.1751
 -85.1748
 -85.184
 -85.0639
 -85.0806
 -85.1239
 -85.0853
 -85.3732
 -85.3728
 -85.3755
 -85.3779
 -85.3555
 -85.3615
 -85.3558
 -85.3581
 -85.2017
 -85.187
 -85.192
 -85.1808
 -85.4347
 -85.4334
 -85.4317
 -82.8575
 -82.8005
 -85.3418
 -85.3451
 -85.3382
 -85.3424
 -84.2536
 -84.0889
 -83.9104
 -84.0226
 -85.3549
 -85.3571
 -85.362
 -85.3585
 -85.2521
 -85.2211
 -85.2141
 -85.2119
 -85.2036
 -85.3814
 -85.3816
 -85.3826
 -85.3845
 -85.4094
 -85.4069
 -85.4111
 -85.4084
 -85.0732
 -85.0725
 -85.3677
 -85.3703
 -85.3769
 -85.3699
 -85.3244
 -85.3116
 -85.3271
 -85.3199
 -85.143
 -85.1399
 -85.1332
 -85.1639
 -85.2931
 -85.2834
 -85.2822
 -85.2926
 -85.3928
 -85.3885
 -85.3981
 -85.4214
 -85.4206
 -85.4207
 -85.4204
 -85.4299
 -85.43
 -85.4311
 -85.2227
 -85.2164
 -85.2166
 -85.227
 -85.4088
 -85.4072
 -85.4054
 -85.4055
 -85.1103
 -85.0996
 -85.1038
 -85.1057
 -85.3555
 -85.3515
 -85.3559
 -85.3482
 -85.3287
 -85.3362
 -85.33
 -85.3296
 -85.4205
 -85.4208
 -85.4203
 -85.4221
 -85.3632
 -85.3648
 -85.3625
 -85.3592
 -83.6804
 -83.5785
 -83.5906
 -83.7167
 -85.2668
 -85.2476
 -85.2638
 -85.2576
 -85.217
 -85.2256
 -85.2313
 -85.2103
 -85.3769
 -85.3777
 -85.3739
 -85.3719
 -85.1265
 -85.1169
 -85.1144
 -85.114
 -85.3386
 -85.3342
 -85.3321
 -85.3394
 -85.1846
 -85.18
 -85.1692
 -84.7223
 -84.7102
 -84.6498
 -84.6937
 -85.3348
 -85.3413
 -85.3335
 -85.3488
 -85.3489
 -85.3468
 -85.1586
 -85.1487
 -85.1375
 -85.0826
 -85.0826
 -85.09
 -85.0997
 -85.4068
 -79.2748
 -79.4521
 -79.3312
 -79.0603
 -85.3983
 -85.3966
 -85.4009
 -85.3979
 -84.9906
 -85.2413
 -85.2385
 -85.2388
 -85.2491
 -85.221
 -85.2091
 -85.2383
 -85.0762
 -85.1133
 -85.0954
 -85.0917
 -84.0856
 -84.0932
 -84.1879
 -83.9646
 -85.103
 -85.1139
 -85.1106
 -85.3215
 -85.3181
 -85.3175
 -85.2284
 -85.2234
 -85.4376
 -85.435
 -85.4349
 -85.0664
 -85.0916
 -85.0597
 -85.2219
 -85.2306
 -85.2362
 -85.4082
 -85.4115
 -85.4114
 -85.3807
 -85.3808
 -85.3841
 -85.3817
 -85.1499
 -85.1541
 -85.163
 -84.9877
 -84.9622
 -85.4191
 -85.4176
 -85.421
 -85.4199
 -84.4093
 -84.4232
 -84.2751
 -84.4857
 -85.0411
 -85.0332
 -81.9849
 -81.7703
 -83.4312
 -83.405
 -83.4448
 -85.2376
 -85.2484
 -85.235
 -85.4161
 -85.4132
 -85.4103
 -85.3655
 -85.3648
 -85.3688
 -85.1784
 -85.1634
 -85.1771
 -85.186
 -85.1731
 -85.4044
 -85.0039
 -85.0032
 -85.0127
 -85.0125
 -85.2266
 -85.2466
 -85.2293
 -85.2367
 -85.3771
 -85.3776
 -85.3805
 -85.3606
 -85.3619
 -85.3586
 -85.3597
 -85.2366
 -85.2326
 -85.2449
 -85.2551
 -85.3723
 -85.3729
 -85.3778
 -85.3773
 -85.3825
 -85.38
 -85.3822
 -85.386
 -85.2966
 -85.3684
 -85.3718
 -85.3714
 -85.3733
 -85.4256
 -85.4269
 -85.4252
 -85.424
 -85.107
 -85.0677
 -85.057
 -85.0829
 -85.4202
 -85.4232
 -85.422
 -85.4215
 -81.5084
 -81.852
 -81.5427
 -85.415
 -85.413
 -85.4178
 -85.417
 -85.1163
 -85.1116
 -85.0904
 -85.0905
 -85.3915
 -85.3876
 -85.3907
 -85.3935
 -85.0625
 -85.0648
 -85.0022
 -85.0165
 -85.425
 -85.3896
 -85.3848
 -85.3874
 -85.3835
 -85.4076
 -85.4099
 -85.4096
 -84.9777
 -84.9915
 -84.9735
 -84.9651
 -85.3717
 -85.3689
 -85.368
 -85.3654
 -85.3371
 -85.3441
 -85.3441
 -85.341
 -85.3259
 -85.3291
 -85.3228
 -85.3208
 -85.4343
 -85.4318
 -85.2548
 -85.2544
 -85.2519
 -85.2429
 -85.2533
 -85.2585
 -85.2599
 -85.3707
 -85.3668
 -85.3739
 -85.3757
 -85.3647
 -85.3662
 -85.3657
 -85.3703
 -85.3395
 -85.3423
 -85.3442
 -85.3372
 -85.151
 -85.1449
 -85.2005
 -85.193
 -85.1916
 -85.2281
 -85.2365
 -85.2358
 -85.2366
 -84.8343
 -84.7858
 -84.8224
 -84.8102
 -85.2295
 -85.2118
 -85.2028
 -83.9896
 -84.0084
 -84.0972
 -85.2246
 -85.2247
 -85.2124
 -85.2335
 -85.1242
 -85.144
 -85.1096
 -85.2935
 -85.3744
 -85.3712
 -85.3774
 -85.2598
 -85.2599
 -85.2673
 -85.2711
 -85.0418
 -85.0403
 -85.1014
 -85.0747
 -85.3082
 -85.3149
 -85.3162
 -85.3159
 -85.3866
 -85.3839
 -85.4342
 -85.4325
 -85.4314
 -85.4342
 -85.3717
 -85.3729
 -85.375
 -85.3692
 -85.272
 -85.2704
 -85.2692
 -85.2763
 -85.4248
 -85.4253
 -85.4295
 -85.4232
 -85.4244
 -85.4252
 -85.4261
 -85.3125
 -85.3042
 -85.2994
 -85.3079
 -85.0902
 -85.0865
 -85.0962
 -85.2514
 -85.2523
 -85.2639
 -85.2512
 -84.8357
 -84.8059
 -84.8694
 -84.7864
 -85.3547
 -85.3554
 -85.3569
 -85.3437
 -85.0798
 -85.0798
 -85.079
 -85.0823
 -85.1713
 -85.1774
 -85.1815
 -85.1774
 -85.4166
 -85.413
 -85.4179
 -85.414
 -85.3013
 -85.3024
 -85.2949
 -85.3029
 -85.2223
 -85.216
 -85.2255
 -85.216
 -85.3814
 -85.3813
 -85.3826
 -85.3891
 -85.3866
 -85.3858
 -85.2403
 -85.2551
 -85.2495
 -85.2661
 -85.271
 -85.2775
 -85.2747
 -85.2754
 -85.0824
 -85.0954
 -85.0814
 -85.2275
 -85.2193
 -85.2116
 -80.4163
 -80.1236
 -80.4685
 -80.2549
 -85.1812
 -85.1843
 -84.942
 -84.9546
 -84.9397
 -84.8932
 -85.3244
 -85.3165
 -85.3234
 -85.3153
 -84.1514
 -84.3167
 -84.3499
 -84.2525
 -85.1342
 -85.1313
 -85.1184
 -85.3634
 -85.3642
 -85.363
 -85.3608
 -85.0876
 -85.1082
 -85.0801
 -84.9591
 -84.9649
 -84.9128
 -84.9429
 -85.2055
 -85.2013
 -85.2008
 -85.2158
 -85.3802
 -85.3897
 -83.4847
 -83.5856
 -85.1631
 -85.1532
 -85.2794
 -85.2702
 -85.2743
 -85.2715
 -85.355
 -85.3599
 -85.3559
 -85.3614
 -85.2859
 -85.2878
 -85.292
 -85.293
 -84.8671
 -84.786
 -84.8263
 -84.8418
 -85.3331
 -85.3266
 -85.3287
 -85.0904
 -85.0752
 -85.0818
 -85.0782
 -85.4094
 -85.4082
 -85.4114
 -85.4069
 -85.3599
 -85.3603
 -85.3614
 -85.3557
 -85.1136
 -85.1218
 -85.1088
 -85.2699
 -85.257
 -85.2687
 -85.2724
 -84.9594
 -84.9398
 -84.9539
 -85.0779
 -85.1089
 -85.099
 -85.0876
 -85.1288
 -85.1257
 -85.1409
 -85.1301
 -85.2745
 -85.2646
 -85.2643
 -85.259
 -85.4253
 -85.424
 -85.4226
 -85.4232
 -85.343
 -85.3494
 -85.346
 -85.3492
 -85.258
 -85.2434
 -85.2533
 -85.3147
 -85.3116
 -85.3103
 -85.4065
 -85.4013
 -85.4062
 -85.403
 -85.3423
 -85.3415
 -85.3376
 -85.3452
 -85.2539
 -85.2641
 -85.2617
 -85.2663
 -84.87
 -84.8644
 -85.1139
 -85.1074
 -85.1205
 -85.1199
 -82.6911
 -82.5792
 -82.2565
 -82.5833
 -85.3776
 -85.3779
 -85.3781
 -85.3755
 -85.1254
 -85.1081
 -85.1112
 -85.1096
 -85.2901
 -85.284
 -85.2875
 -85.2771
 -84.7458
 -84.7076
 -84.7242
 -84.7113
 -85.3183
 -85.3163
 -85.3133
 -85.3124
 -85.2639
 -85.3677
 -85.3682
 -85.362
 -85.3633
 -85.2523
 -85.2371
 -85.235
 -85.2455
 -85.2298
 -85.2386
 -85.2479
 -85.2414
 -85.195
 -85.1778
 -85.1795
 -85.1791
 -85.0717
 -85.0498
 -85.0843
 -85.3921
 -85.3927
 -85.3935
 -85.3861
 -85.2391
 -85.2365
 -85.2365
 -85.2322
 -85.3879
 -85.3891
 -85.3926
 -85.362
 -85.3575
 -85.3606
 -85.3596
 -85.3814
 -85.3878
 -85.3849
 -85.3887
 -84.8986
 -84.9368
 -84.8876
 -79.0591
 -79.2309
 -79.2719
 -85.3623
 -85.3683
 -85.3673
 -85.319
 -85.3303
 -85.3256
 -85.3334
 -85.2207
 -85.2241
 -85.229
 -85.2144
 -85.259
 -85.2596
 -85.2457
 -85.2492
 -83.7259
 -83.8245
 -83.541
 -83.8549
 -85.2875
 -85.2836
 -85.282
 -85.2815
 -85.3391
 -85.3412
 -85.3437
 -85.3349
 -85.1067
 -85.115
 -85.1688
 -85.1439
 -85.1564
 -85.1584
 -85.3654
 -85.3618
 -85.3648
 -85.3635
 -85.1285
 -85.1416
 -85.3461
 -85.3432
 -84.9002
 -79.8324
 -79.7819
 -79.8587
 -80.1824
 -84.6496
 -84.7224
 -85.4297
 -85.4327
 -85.4303
 -84.799
 -84.8481
 -84.8921
 -84.8499
 -85.3712
 -85.3697
 -85.1762
 -85.1723
 -85.1742
 -85.1761
 -85.201
 -85.2258
 -85.2191
 -85.3689
 -85.3727
 -85.3701
 -85.375
 -85.3471
 -85.3531
 -85.3478
 -85.3503
 -85.3978
 -85.3987
 -85.4026
 -85.2624
 -85.2517
 -85.2638
 -85.2501
 -85.2925
 -85.3977
 -85.3926
 -85.3967
 -85.3959
 -85.0025
 -85.0004
 -85.0043
 -85.0152
 -85.3123
 -85.3037
 -85.3083
 -85.3005
 -85.3777
 -85.3722
 -85.3763
 -85.3725
 -81.5247
 -81.6761
 -81.7934
 -81.9129
 -85.1043
 -85.4248
 -85.2328
 -85.2462
 -85.2363
 -85.2253
 -85.3052
 -85.3096
 -85.3008
 -85.2999
 -85.1161
 -85.0904
 -85.1037
 -85.1118
 -85.3218
 -85.3189
 -85.3223
 -85.3236
 -85.0999
 -85.1021
 -85.1138
 -85.0444
 -85.0584
 -85.0733
 -85.0591
 -85.2511
 -85.2584
 -85.2413
 -85.2515
 -85.3777
 -85.3803
 -85.3723
 -85.4337
 -85.4359
 -85.434
 -85.4333
 -83.6724
 -83.5661
 -83.4922
 -85.2861
 -85.2875
 -85.2598
 -85.2636
 -85.2539
 -85.2689
 -85.4138
 -85.4125
 -85.4135
 -85.4149
 -85.3631
 -85.3592
 -85.3622
 -85.3582
 -85.0647
 -85.096
 -85.0771
 -84.5437
 -85.2502
 -85.2409
 -85.2432
 -85.2522
 -85.2711
 -85.2748
 -85.2726
 -85.3603
 -85.358
 -85.3576
 -85.3618
 -85.3815
 -85.3759
 -85.3798
 -85.3774
 -85.2354
 -85.23
 -85.3673
 -85.3667
 -85.37
 -85.3733
 -85.3271
 -85.3251
 -85.3256
 -85.3316
 -85.4226
 -85.4238
 -85.3352
 -85.3295
 -85.337
 -85.3334
 -85.3681
 -85.3702
 -85.3719
 -85.3728
 -85.3609
 -85.3641
 -85.3604
 -85.3614
 -85.2868
 -85.29
 -85.2593
 -85.2644
 -85.2554
 -85.2496
 -85.1906
 -85.179
 -85.1869
 -85.1863
 -85.3226
 -85.3269
 -85.3277
 -85.3217
 -85.0547
 -85.0724
 -85.0801
 -85.0887
 -85.1155
 -85.1119
 -85.1037
 -85.1128
 -83.2015
 -83.2225
 -83.1858
 -82.9859
 -85.1879
 -85.1673
 -85.3121
 -85.3023
 -85.3109
 -85.3059
 -85.2337
 -85.2285
 -85.2405
 -85.2458
 -85.2985
 -85.3029
 -85.3051
 -85.3019
 -85.2663
 -85.2652
 -85.3669
 -85.3643
 -85.4298
 -85.4305
 -85.4303
 -85.4313
 -84.876
 -85.2597
 -85.2596
 -85.2632
 -85.2697
 -85.3056
 -85.2968
 -85.2988
 -85.2978
 -85.1607
 -85.1502
 -85.1449
 -85.1318
 -85.3552
 -85.3489
 -85.3556
 -85.3499
 -85.3001
 -85.2945
 -85.2914
 -85.2993
 -85.0975
 -85.0936
 -85.1035
 -85.0738
 -85.0685
 -85.2138
 -85.2332
 -85.2177
 -85.2326
 -85.2187
 -85.24
 -85.2204
 -85.2145
 -85.0769
 -85.0763
 -85.0601
 -85.0742
 -85.1206
 -85.1305
 -85.1552
 -85.1468
 -85.2573
 -85.2651
 -85.2475
 -85.2466
 -85.1105
 -85.1034
 -85.0992
 -85.1039
 -85.3178
 -85.3212
 -85.3112
 -85.19
 -85.1893
 -85.1884
 -85.1843
 -84.3987
 -84.4773
 -85.3141
 -85.3183
 -85.3209
 -85.3119
 -85.321
 -85.3169
 -85.3205
 -84.9811
 -84.9991
 -85.0125
 -84.9097
 -84.9259
 -84.9254
 -84.9056
 -85.3435
 -85.3431
 -85.3456
 -85.3387
 -85.3054
 -85.2942
 -85.3063
 -85.3873
 -85.3814
 -85.3838
 -85.274
 -85.2654
 -85.2675
 -85.3972
 -85.3978
 -85.3975
 -82.2518
 -82.0661
 -82.181
 -82.268
 -85.4237
 -85.4244
 -85.4231
 -85.4245
 -85.1961
 -85.185
 -85.3256
 -85.3162
 -85.0397
 -85.0478
 -85.0481
 -85.0691
 -85.3336
 -85.3327
 -85.3396
 -85.3702
 -85.374
 -85.3737
 -85.3746
 -85.3952
 -85.3897
 -85.0147
 -85.0165
 -85.0125
 -85.3166
 -85.3145
 -85.3084
 -85.1665
 -85.1483
 -85.1647
 -84.9394
 -84.9471
 -84.9295
 -84.9039
 -85.2506
 -85.2531
 -85.2434
 -85.2561
 -85.2352
 -85.2215
 -85.2278
 -85.2323
 -85.3494
 -85.347
 -85.3471
 -85.3531
 -85.37
 -85.3678
 -85.3694
 -85.3647
 -85.2149
 -85.2072
 -85.2251
 -85.344
 -85.3433
 -85.3396
 -85.3634
 -85.367
 -85.3634
 -85.3638
 -85.4372
 -85.4363
 -85.4379
 -85.2913
 -85.2904
 -85.2898
 -85.3566
 -85.3593
 -85.3524
 -85.2779
 -85.2846
 -85.2728
 -85.1768
 -85.1589
 -85.1601
 -85.0159
 -85.035
 -85.0215
 -85.0213
 -85.2742
 -85.2818
 -85.2913
 -85.2838
 -85.1383
 -85.1274
 -85.109
 -85.0604
 -85.0785
 -85.3571
 -85.3537
 -85.3616
 -85.3569
 -85.3573
 -85.3605
 -85.3563
 -85.3519
 -85.0787
 -85.0983
 -85.1079
 -85.1159
 -85.0817
 -85.0678
 -85.0711
 -85.0636
 -84.6912
 -84.6612
 -84.698
 -84.6427
 -85.4106
 -85.4123
 -85.3913
 -85.3868
 -85.3888
 -85.3915
 -85.4217
 -85.1735
 -85.1879
 -85.1673
 -85.2983
 -85.3017
 -85.2943
 -85.2939
 -85.1051
 -85.0996
 -85.2704
 -85.2709
 -85.2753
 -84.9654
 -84.9781
 -85.3848
 -85.3855
 -85.3893
 -85.3827
 -85.399
 -85.3984
 -85.4038
 -85.4016
 -85.3763
 -85.3776
 -85.3724
 -85.1934
 -85.2034
 -85.202
 -85.3951
 -85.395
 -85.3965
 -85.3977
 -85.1478
 -85.1219
 -85.1417
 -85.1498
 -85.3804
 -85.3776
 -85.3776
 -85.3804
 -85.1375
 -85.1078
 -85.1002
 -85.1459
 -84.9601
 -84.9787
 -84.9407
 -85.4225
 -85.427
 -85.4244
 -85.424
 -85.0875
 -85.0917
 -85.0901
 -85.2523
 -85.2588
 -85.2624
 -85.2573
 -85.4151
 -85.4185
 -85.4167
 -85.1151
 -85.0945
 -85.1021
 -85.0866
 -85.3403
 -85.4082
 -85.41
 -85.4034
 -85.4075
 -84.9832
 -84.9892
 -85.0007
 -84.9903
 -85.3613
 -85.3534
 -85.359
 -85.3616
 -85.2962
 -85.2998
 -85.2854
 -84.9593
 -84.9199
 -84.9612
 -84.87
 -85.3486
 -85.3485
 -85.3513
 -85.1215
 -85.117
 -82.5789
 -82.3901
 -82.723
 -82.7715
 -84.6393
 -84.4825
 -84.4532
 -85.3971
 -85.3953
 -85.405
 -85.3998
 -85.3996
 -85.4014
 -84.8231
 -84.8514
 -84.7789
 -84.8556
 -85.2376
 -85.2443
 -85.2446
 -85.2452
 -85.2701
 -85.2569
 -85.2587
 -85.2642
 -85.306
 -85.3039
 -85.3121
 -85.3032
 -85.3155
 -85.3037
 -85.3122
 -85.307
 -85.4148
 -85.0959
 -85.091
 -85.097
 -85.0921
 -85.4177
 -85.4163
 -85.4194
 -85.324
 -85.3162
 -85.314
 -85.3163
 -85.0046
 -85.0301
 -85.0347
 -85.2976
 -85.2905
 -85.2968
 -85.2892
 -85.2807
 -85.3482
 -85.3504
 -85.3553
 -85.3538
 -85.1692
 -85.1712
 -85.1689
 -85.2837
 -85.2993
 -85.296
 -85.4182
 -85.4165
 -85.4139
 -85.4164
 -85.2691
 -85.262
 -85.2623
 -81.8094
 -81.9829
 -81.5887
 -85.2701
 -85.2632
 -85.2674
 -85.2549
 -85.3528
 -85.3572
 -85.357
 -85.2904
 -85.2894
 -85.3977
 -85.3988
 -85.3957
 -85.3959
 -85.3773
 -85.3806
 -85.3781
 -85.3782
 -85.426
 -85.4253
 -85.4235
 -85.4224
 -85.3151
 -85.3014
 -85.3114
 -85.3151
 -85.3642
 -85.3637
 -85.3613
 -85.3581
 -85.3979
 -85.4003
 -85.4024
 -85.1549
 -85.1641
 -85.1405
 -85.1476
 -85.2543
 -85.2649
 -85.2135
 -85.2054
 -85.2171
 -85.2109
 -85.3553
 -85.3536
 -85.3549
 -85.3573
 -85.2704
 -85.2802
 -85.2749
 -85.2692
 -85.3542
 -85.3518
 -85.359
 -85.3532
 -85.2874
 -85.2909
 -85.2947
 -85.2974
 -85.282
 -85.2732
 -85.2756
 -85.3928
 -85.3902
 -85.3928
 -85.4114
 -85.4104
 -85.4097
 -85.4152
 -85.4048
 -85.4043
 -85.4069
 -85.3683
 -85.3731
 -85.3686
 -83.482
 -83.3224
 -83.2519
 -85.2547
 -85.2669
 -85.2571
 -85.3903
 -85.3924
 -85.3908
 -85.3899
 -85.2536
 -85.2584
 -85.2528
 -85.3156
 -85.3209
 -85.3168
 -85.3132
 -85.3382
 -85.3243
 -85.3301
 -85.3282
 -85.2825
 -85.2888
 -85.2884
 -85.2949
 -85.1134
 -85.1258
 -85.1156
 -85.11
 -85.2577
 -85.316
 -85.3165
 -85.3203
 -85.3071
 -85.0824
 -85.0857
 -85.0878
 -85.0869
 -84.9819
 -85.0031
 -84.9868
 -84.9982
 -85.0756
 -85.0705
 -85.0807
 -85.0579
 -85.3429
 -85.3439
 -85.3489
 -85.352
 -85.1473
 -85.1351
 -85.143
 -85.1481
 -85.4245
 -85.4215
 -85.4241
 -85.4218
 -84.4363
 -84.4686
 -84.5385
 -84.515
 -85.1055
 -85.1067
 -85.1039
 -84.9516
 -84.9376
 -84.9314
 -84.9312
 -85.023
 -85.0087
 -85.039
 -85.1
 -85.1018
 -85.2971
 -85.2957
 -85.2998
 -85.3125
 -85.4127
 -85.4095
 -85.4081
 -85.4113
 -85.4107
 -85.4125
 -85.4097
 -85.1124
 -85.1033
 -85.4203
 -85.4229
 -85.4195
 -85.3936
 -85.3927
 -85.3931
 -85.3968
 -85.0279
 -85.0187
 -85.0263
 -85.4248
 -85.4256
 -85.4236
 -85.4266
 -85.1941
 -85.1988
 -85.2079
 -85.1875
 -85.0851
 -85.056
 -85.0643
 -85.0849
 -84.9481
 -84.9834
 -84.9687
 -84.9617
 -84.1069
 -84.1053
 -84.0389
 -84.0321
 -85.3301
 -85.3408
 -85.337
 -85.3381
 -85.2144
 -85.2166
 -85.2103
 -85.1958
 -85.4226
 -85.4202
 -85.4226
 -81.1553
 -81.5749
 -81.3491
 -81.7045
 -84.656
 -84.7335
 -84.6804
 -84.7505
 -85.4229
 -85.4263
 -85.4246
 -85.4243
 -85.2903
 -85.2914
 -85.2991
 -85.4029
 -85.4074
 -85.4084
 -85.0583
 -85.0514
 -85.015
 -85.4231
 -85.4217
 -85.4207
 -85.4222
 -85.3918
 -85.3895
 -85.3885
 -85.3854
 -85.1654
 -85.1748
 -85.1848
 -85.1718
 -85.2162
 -85.2024
 -85.2123
 -85.1942
 -85.3792
 -85.3793
 -85.3793
 -85.384
 -85.3079
 -85.3042
 -85.2981
 -85.3021
 -84.2116
 -84.322
 -84.3537
 -84.277
 -85.3974
 -85.3903
 -85.3948
 -85.3927
 -85.4267
 -85.2871
 -85.2895
 -85.2956
 -85.2949
 -85.4087
 -85.411
 -85.4098
 -85.4135
 -85.0901
 -85.0907
 -85.0916
 -85.093
 -85.4199
 -85.4219
 -85.4185
 -85.4174
 -85.2751
 -85.2711
 -85.222
 -85.2157
 -85.2269
 -85.2285
 -85.3735
 -85.3686
 -85.3684
 -85.3688
 -85.3143
 -85.3212
 -85.318
 -85.2113
 -85.2095
 -85.2139
 -85.3773
 -85.376
 -85.3717
 -85.3725
 -85.3613
 -85.3585
 -85.3636
 -85.3593
 -85.1016
 -85.0946
 -85.0881
 -85.2805
 -85.2995
 -85.3006
 -85.2884
 -84.5574
 -84.4304
 -84.5346
 -84.4148
 -84.308
 -85.4231
 -85.4166
 -85.4231
 -85.419
 -85.2974
 -85.2921
 -85.2886
 -85.2972
 -85.4005
 -85.403
 -85.2548
 -85.2382
 -85.2418
 -85.155
 -85.1416
 -85.1619
 -85.1581
 -85.4209
 -85.4196
 -85.4224
 -85.4221
 -85.106
 -85.1089
 -85.1081
 -85.1699
 -85.1662
 -85.178
 -85.1674
 -85.209
 -85.2264
 -85.2124
 -85.1949
 -85.3527
 -85.361
 -85.3542
 -85.3574
 -85.1401
 -85.1592
 -85.1498
 -85.1461
 -85.3698
 -85.335
 -85.3419
 -85.3438
 -85.3326
 -85.4104
 -85.4115
 -85.4075
 -85.4172
 -85.416
 -85.4157
 -85.4136
 -85.3387
 -85.3428
 -85.3359
 -85.3396
 -85.4301
 -85.4297
 -85.4295
 -85.4266
 -85.2149
 -85.3177
 -85.3072
 -85.3087
 -85.3156
 -85.2977
 -85.2836
 -85.2921
 -85.2924
 -84.1206
 -84.2551
 -84.2977
 -84.1549
 -85.2617
 -85.2644
 -85.2679
 -85.256
 -85.2535
 -85.2533
 -85.2566
 -85.2637
 -85.264
 -85.2647
 -85.2743
 -85.4022
 -85.3993
 -85.3979
 -85.2536
 -85.2385
 -85.2428
 -85.2466
 -85.3964
 -85.4015
 -85.399
 -85.2803
 -85.2709
 -85.3063
 -85.3115
 -85.3092
 -85.2983
 -85.2949
 -85.2972
 -85.2945
 -85.2962
 -85.3064
 -85.3032
 -85.4069
 -85.4082
 -85.4083
 -85.2129
 -85.4161
 -85.3116
 -85.3163
 -85.3094
 -85.304
 -84.9696
 -84.955
 -84.9266
 -85.0549
 -85.0773
 -85.0977
 -85.3024
 -85.3061
 -85.2964
 -85.2713
 -85.2714
 -85.2745
 -85.2802
 -85.298
 -85.2907
 -85.3038
 -85.2929
 -81.6325
 -81.726
 -81.3855
 -85.3769
 -85.3725
 -85.3758
 -85.2797
 -85.2816
 -85.3867
 -85.3815
 -85.3834
 -85.3808
 -85.3209
 -85.3269
 -85.3203
 -84.078
 -84.2022
 -84.0158
 -84.0653
 -85.2464
 -85.2358
 -85.2485
 -85.2287
 -85.1247
 -85.1188
 -85.112
 -85.1087
 -85.3507
 -85.3431
 -85.3481
 -85.3507
 -85.1923
 -85.1726
 -85.1902
 -85.1665
 -84.5258
 -84.5142
 -84.53
 -85.2083
 -85.2044
 -85.1977
 -85.2017
 -85.3502
 -85.3564
 -85.3534
 -85.355
 -85.2899
 -85.2996
 -85.2995
 -85.2949
 -85.1535
 -85.1479
 -85.1562
 -85.2406
 -85.231
 -85.2346
 -85.2341
 -85.092
 -85.0678
 -85.0925
 -85.0746
 -84.8759
 -84.9214
 -84.8828
 -84.8476
 -85.4213
 -85.4226
 -85.4213
 -85.4223
 -85.1074
 -85.1184
 -85.1154
 -85.1189
 -85.1425
 -85.132
 -85.1451
 -85.1462
 -85.3431
 -85.3487
 -85.3482
 -85.3517
 -85.1735
 -85.1762
 -85.1912
 -85.179
 -85.4359
 -85.4363
 -85.4362
 -85.4369
 -85.2669
 -85.2624
 -85.2715
 -85.0361
 -85.0194
 -85.0241
 -85.0478
 -85.1016
 -85.096
 -85.0993
 -85.0953
 -85.0654
 -85.0191
 -85.3638
 -85.3579
 -85.3629
 -85.3564
 -85.4353
 -85.434
 -85.4349
 -85.4344
 -85.2315
 -85.2206
 -85.2253
 -85.219
 -85.1229
 -85.1159
 -85.1145
 -85.3493
 -85.3431
 -85.3439
 -85.3478
 -85.2551
 -85.2579
 -85.2544
 -85.2696
 -85.1495
 -85.1549
 -85.1475
 -85.1604
 -85.0129
 -85.0434
 -85.0263
 -85.3792
 -85.3841
 -85.3862
 -85.3801
 -85.3958
 -85.3947
 -85.3918
 -85.2262
 -85.2171
 -85.2279
 -85.2402
 -85.2397
 -85.2377
 -85.2495
 -85.1343
 -85.1584
 -85.1697
 -85.1548
 -85.3459
 -85.3421
 -85.3393
 -85.0683
 -85.0633
 -85.0469
 -85.289
 -85.2966
 -85.295
 -85.3951
 -85.3906
 -85.3941
 -85.356
 -85.3553
 -85.2071
 -85.2146
 -85.2016
 -85.2118
 -85.2164
 -85.2109
 -85.2765
 -85.265
 -85.1426
 -84.9875
 -84.9894
 -84.9698
 -85.3982
 -85.3978
 -85.3916
 -85.2242
 -85.2355
 -85.2318
 -85.2247
 -85.1749
 -85.2871
 -85.2908
 -85.3493
 -85.352
 -85.3475
 -85.3533
 -85.2835
 -85.2787
 -85.2874
 -85.2302
 -85.2365
 -85.219
 -85.2285
 -85.2032
 -85.2238
 -85.2524
 -85.2419
 -85.234
 -85.255
 -85.4045
 -85.4009
 -85.4002
 -85.4034
 -85.4072
 -85.4094
 -85.4125
 -85.4121
 -85.0735
 -85.0887
 -85.2746
 -85.2795
 -85.2735
 -85.2638
 -85.3217
 -85.3234
 -85.3271
 -85.3294
 -85.3359
 -85.3415
 -85.3367
 -85.3348
 -85.2772
 -85.2694
 -85.2669
 -85.2772
 -85.2551
 -85.2633
 -85.2575
 -85.2544
 -85.3939
 -85.3888
 -85.3942
 -85.3937
 -85.0551
 -85.0758
 -85.0964
 -85.104
 -85.0937
 -85.1143
 -85.1054
 -85.3774
 -85.3813
 -85.3864
 -85.3886
 -85.1514
 -85.163
 -85.1574
 -85.1663
 -85.4163
 -85.4142
 -85.4163
 -85.4156
 -85.3982
 -85.3961
 -85.3977
 -85.3948
 -85.2202
 -85.2263
 -85.216
 -85.2215
 -85.3581
 -85.3601
 -85.3581
 -85.3526
 -85.1635
 -85.1704
 -85.1819
 -85.1844
 -85.3776
 -85.3747
 -85.3754
 -85.1076
 -85.1171
 -85.1051
 -85.1106
 -85.3324
 -85.329
 -85.3335
 -85.336
 -85.2056
 -85.2084
 -85.37
 -85.3777
 -85.3741
 -85.3733
 -85.3809
 -85.3799
 -85.3766
 -85.2639
 -85.2769
 -85.2664
 -85.385
 -85.3855
 -85.3873
 -85.3897
 -84.5949
 -84.6027
 -84.6598
 -84.656
 -85.1461
 -85.1551
 -85.1626
 -85.1714
 -85.3306
 -85.322
 -85.3231
 -85.3303
 -85.406
 -85.4073
 -85.4047
 -85.4079
 -85.397
 -85.4004
 -85.4006
 -85.3981
 -85.4056
 -85.4047
 -85.406
 -85.4054
 -85.407
 -85.1691
 -85.1772
 -85.1667
 -85.1812
 -85.0946
 -85.0986
 -85.0707
 -85.0919
 -85.1805
 -85.1805
 -85.2091
 -85.2232
 -85.2133
 -85.208
 -85.2448
 -85.2432
 -85.255
 -85.243
 -85.1363
 -85.1366
 -85.1244
 -85.2924
 -85.2869
 -85.288
 -85.2853
 -85.4375
 -85.4368
 -85.4351
 -85.1666
 -85.159
 -85.1674
 -85.1865
 -85.3842
 -85.3781
 -85.3817
 -85.3833
 -85.3515
 -85.3571
 -85.3546
 -85.2803
 -85.2752
 -85.2839
 -85.3585
 -85.364
 -85.3591
 -85.3935
 -85.3912
 -85.3533
 -85.3535
 -85.353
 -85.1621
 -85.1683
 -85.1702
 -85.155
 -85.4112
 -85.4132
 -85.4114
 -85.4103
 -85.3344
 -85.3395
 -85.3372
 -83.6746
 -83.4361
 -83.3428
 -83.6056
 -84.9458
 -84.9305
 -85.3129
 -85.2117
 -85.2316
 -85.218
 -85.2119
 -85.3004
 -85.3095
 -85.3092
 -85.3751
 -85.3752
 -85.3719
 -85.3758
 -85.4193
 -85.4201
 -85.2846
 -85.282
 -85.2824
 -85.2754
 -84.8808
 -84.8176
 -84.8241
 -84.8499
 -85.3994
 -85.4013
 -85.4012
 -85.3996
 -85.3252
 -85.3283
 -85.3235
 -81.8941
 -81.6655
 -81.5209
 -81.5553
 -85.1059
 -85.1021
 -85.0924
 -85.1755
 -85.1898
 -85.1639
 -85.1792
 -85.3299
 -85.3312
 -85.3286
 -85.3361
 -85.2822
 -85.2884
 -85.0777
 -85.081
 -85.0799
 -85.0805
 -85.3313
 -85.3377
 -85.1894
 -85.1633
 -85.1681
 -85.1775
 -85.2308
 -85.2351
 -85.2222
 -85.2318
 -85.2888
 -85.2981
 -85.2992
 -85.2928
 -85.1514
 -85.1407
 -85.1186
 -85.3487
 -85.3426
 -85.3498
 -85.3431
 -85.379
 -85.3832
 -85.3869
 -85.3803
 -85.373
 -85.3737
 -85.3746
 -85.3776
 -84.8036
 -84.7648
 -84.771
 -84.7263
 -85.2941
 -85.2876
 -83.0902
 -82.9511
 -82.9116
 -82.7603
 -85.2329
 -85.2224
 -85.2148
 -85.4195
 -80.3087
 -80.4843
 -80.5275
 -79.9394
 -85.263
 -85.266
 -85.2608
 -85.2608
 -85.2054
 -85.2181
 -85.2075
 -85.3749
 -85.3792
 -85.3791
 -85.3747
 -85.3772
 -85.3754
 -85.3809
 -85.381
 -85.3706
 -85.3734
 -85.3692
 -85.3671
 -85.1712
 -85.1822
 -85.1649
 -85.1805
 -85.0519
 -85.0447
 -85.0189
 -85.0285
 -85.3373
 -85.3384
 -85.3441
 -85.3376
 -85.2346
 -85.2144
 -85.2418
 -85.2315
 -85.4339
 -85.4071
 -85.4077
 -85.3235
 -85.3238
 -85.2353
 -85.2262
 -85.2291
 -85.4102
 -85.415
 -85.4123
 -85.411
 -85.2553
 -85.2511
 -85.3264
 -85.3209
 -84.0369
 -84.1966
 -84.0558
 -84.2131
 -85.1672
 -85.1606
 -85.1503
 -85.1558
 -85.329
 -85.3372
 -85.3312
 -85.3343
 -84.2418
 -84.1603
 -84.2455
 -84.2792
 -85.4262
 -85.4251
 -85.428
 -85.4261
 -85.4079
 -85.4043
 -85.4174
 -85.4151
 -85.4121
 -85.4179
 -85.382
 -85.3855
 -85.2102
 -85.2137
 -85.202
 -80.661
 -81.0265
 -80.5558
 -80.6678
 -84.424
 -84.487
 -84.5037
 -84.4454
 -85.4101
 -85.4125
 -85.41
 -85.4086
 -85.3587
 -85.3652
 -85.361
 -85.305
 -85.2965
 -85.2914
 -85.2991
 -85.1794
 -85.2029
 -85.1815
 -85.1766
 -85.3929
 -85.3965
 -85.3955
 -85.4115
 -85.2899
 -85.3012
 -85.1404
 -85.1471
 -85.3514
 -85.3587
 -85.3506
 -85.353
 -85.0542
 -85.0256
 -85.0628
 -85.0251
 -85.0711
 -85.0521
 -85.0595
 -81.436
 -81.8626
 -81.7089
 -81.7102
 -85.1677
 -85.1777
 -85.179
 -85.19
 -85.3965
 -85.3971
 -85.3885
 -85.3915
 -85.3906
 -85.3914
 -85.1559
 -85.154
 -85.1681
 -85.149
 -85.3739
 -85.3713
 -85.3756
 -85.3551
 -85.3558
 -85.3564
 -85.3517
 -85.39
 -85.3916
 -85.3874
 -85.3929
 -85.1887
 -85.2027
 -85.1978
 -85.19
 -85.4178
 -85.4134
 -85.2546
 -83.7641
 -83.8767
 -83.9221
 -84.0191
 -85.3715
 -85.3712
 -85.3745
 -84.4996
 -84.4246
 -84.4095
 -84.3929
 -85.348
 -85.3472
 -85.3461
 -85.3515
 -85.0414
 -85.0404
 -85.0192
 -85.0449
 -85.1339
 -85.1281
 -85.1404
 -85.1407
 -85.3422
 -85.3459
 -85.3455
 -85.2153
 -85.2188
 -85.2136
 -85.2047
 -85.3391
 -85.3367
 -85.341
 -85.3317
 -85.3154
 -85.3125
 -85.3812
 -85.3828
 -85.3826
 -85.3545
 -85.3553
 -85.3496
 -83.8599
 -83.8904
 -84.0301
 -83.8994
 -85.0765
 -85.0932
 -85.0667
 -85.0996
 -85.3938
 -85.3881
 -85.3889
 -85.3884
 -85.3863
 -85.3856
 -85.1301
 -85.1659
 -85.1338
 -85.356
 -85.3505
 -85.3528
 -85.3493
 -85.3542
 -85.3534
 -85.351
 -85.1783
 -85.1711
 -85.1804
 -85.1818
 -85.411
 -85.4115
 -85.2184
 -85.2141
 -85.2183
 -85.2282
 -85.1679
 -85.1697
 -85.1755
 -85.3614
 -85.3631
 -85.2787
 -85.2719
 -85.2822
 -85.2868
 -85.0901
 -85.0859
 -85.3415
 -85.3411
 -85.2225
 -85.1985
 -85.2
 -85.2145
 -85.2945
 -85.2942
 -85.2893
 -85.3008
 -85.2938
 -85.2892
 -85.2949
 -84.6849
 -84.6633
 -84.6527
 -84.7616
 -84.3855
 -84.4039
 -84.4611
 -84.4764
 -85.351
 -85.346
 -85.3406
 -85.3456
 -85.3976
 -85.3983
 -85.3953
 -85.395
 -85.3129
 -85.3178
 -85.3122
