 -85.5439
 -85.548
 -85.5472
 -85.5493
 -85.6123
 -85.6129
 -85.6144
 -85.6154
 -85.5966
 -85.5944
 -85.5971
 -85.595
 -85.5996
 -85.5972
 -85.5967
 -85.5955
 -85.6362
 -85.6376
 -85.6351
 -85.6345
 -85.6329
 -85.6313
 -85.6341
 -85.6319
 -85.5286
 -85.5262
 -85.5269
 -85.5285
 -85.5324
 -85.5331
 -85.5331
 -85.5318
 -85.6326
 -85.6318
 -85.6298
 -85.6316
 -85.632
 -85.6323
 -85.6317
 -85.6344
 -85.5194
 -85.5178
 -85.5202
 -85.5206
 -85.5955
 -85.5959
 -85.5935
 -85.595
 -85.5569
 -85.5567
 -85.5545
 -85.5589
 -85.6164
 -85.6133
 -85.6119
 -85.6142
 -85.585
 -85.584
 -85.5856
 -85.5874
 -85.537
 -85.5349
 -85.5385
 -85.5351
 -85.6272
 -85.6283
 -85.6268
 -85.6287
 -85.6022
 -85.6006
 -85.6028
 -85.6011
 -85.5866
 -85.5876
 -85.588
 -85.5896
 -85.6235
 -85.6235
 -85.6246
 -85.626
 -85.5312
 -85.5278
 -85.5312
 -85.529
 -85.64
 -85.6405
 -85.642
 -85.6418
 -85.4799
 -85.4781
 -85.4773
 -85.4803
 -85.6104
 -85.6112
 -85.6086
 -85.6083
 -85.5817
 -85.5798
 -85.5818
 -85.5831
 -85.591
 -85.5918
 -85.5905
 -85.5897
 -85.5707
 -85.5737
 -85.5752
 -85.5709
 -85.5355
 -85.5332
 -85.5359
 -85.5353
 -85.556
 -85.5552
 -85.5527
 -85.5545
 -85.6139
 -85.6138
 -85.6124
 -85.6109
 -85.5832
 -85.5869
 -85.5822
 -85.5838
 -85.5574
 -85.5597
 -85.5596
 -85.5574
 -85.6061
 -85.6038
 -85.6068
 -85.6043
 -85.6124
 -85.6114
 -85.6111
 -85.6116
 -85.5582
 -85.556
 -85.5588
 -85.5544
 -85.5408
 -85.5403
 -85.54
 -85.5403
 -85.6037
 -85.6002
 -85.6034
 -85.6025
 -85.5177
 -85.5193
 -85.5196
 -85.5207
 -85.6071
 -85.6072
 -85.6111
 -85.61
 -85.6433
 -85.642
 -85.6429
 -85.6415
 -85.5938
 -85.5934
 -85.5945
 -85.5909
 -85.6119
 -85.6139
 -85.6129
 -85.6125
 -85.5236
 -85.5232
 -85.5253
 -85.5218
 -85.6022
 -85.6007
 -85.6013
 -85.6039
 -85.6322
 -85.6317
 -85.6335
 -85.6327
 -85.5503
 -85.5525
 -85.5515
 -85.5505
 -85.604
 -85.6072
 -85.6063
 -85.6064
 -85.5381
 -85.5406
 -85.5382
 -85.5354
 -85.5609
 -85.5591
 -85.5583
 -85.5572
 -85.5871
 -85.5851
 -85.5845
 -85.5831
 -85.5342
 -85.5332
 -85.5323
 -85.534
 -85.5892
 -85.587
 -85.587
 -85.5888
 -85.5636
 -85.5602
 -85.5635
 -85.5591
 -85.5943
 -85.5957
 -85.594
 -85.5958
 -85.5539
 -85.5563
 -85.5549
 -85.5583
 -85.5946
 -85.5941
 -85.5964
 -85.5927
 -85.608
 -85.6084
 -85.6097
 -85.611
 -85.6113
 -85.6103
 -85.6115
 -85.608
 -85.5505
 -85.5507
 -85.5468
 -85.552
 -85.5687
 -85.5673
 -85.5679
 -85.5712
 -85.4859
 -85.4836
 -85.4819
 -85.4841
 -85.5556
 -85.5554
 -85.5528
 -85.5549
 -85.5834
 -85.5868
 -85.5855
 -85.5862
 -85.5655
 -85.5649
 -85.5687
 -85.5629
 -85.564
 -85.5672
 -85.5637
 -85.5669
 -85.5349
 -85.5333
 -85.5357
 -85.5356
 -85.6254
 -85.6277
 -85.6284
 -85.6251
 -85.6365
 -85.6371
 -85.6378
 -85.6382
 -85.5893
 -85.5923
 -85.5871
 -85.5887
 -85.5565
 -85.5559
 -85.5582
 -85.5551
 -85.6068
 -85.6081
 -85.6094
 -85.6067
 -85.5308
 -85.5261
 -85.5275
 -85.5273
 -85.5302
 -85.5277
 -85.5274
 -85.5305
 -85.4819
 -85.48
 -85.483
 -85.4825
 -85.5955
 -85.598
 -85.5967
 -85.5991
 -85.549
 -85.5521
 -85.5529
 -85.5492
 -85.5435
 -85.5411
 -85.5439
 -85.5457
 -85.6386
 -85.6402
 -85.6395
 -85.6404
 -85.5399
 -85.5391
 -85.537
 -85.5397
 -85.5446
 -85.5432
 -85.5412
 -85.5444
 -85.5489
 -85.551
 -85.5489
 -85.5467
 -85.5742
 -85.5736
 -85.5761
 -85.5756
 -85.5457
 -85.5486
 -85.5466
 -85.5475
 -85.5604
 -85.5624
 -85.5631
 -85.5612
 -85.5685
 -85.5679
 -85.5668
 -85.5657
 -85.5387
 -85.5357
 -85.5397
 -85.5366
 -85.4737
 -85.4729
 -85.4775
 -85.4775
 -85.5331
 -85.534
 -85.5357
 -85.5343
 -85.5967
 -85.5954
 -85.5979
 -85.5937
 -85.5974
 -85.5966
 -85.5989
 -85.5968
 -85.6105
 -85.6097
 -85.6087
 -85.612
 -85.5303
 -85.53
 -85.5305
 -85.5315
 -85.6409
 -85.6409
 -85.6398
 -85.642
 -85.6095
 -85.6117
 -85.6095
 -85.6099
 -85.5196
 -85.5195
 -85.5167
 -85.5168
 -85.5616
 -85.5616
 -85.5604
 -85.5654
 -85.5432
 -85.5448
 -85.541
 -85.5424
 -85.5442
 -85.5426
 -85.5429
 -85.5316
 -85.5312
 -85.5311
 -85.5302
 -85.6022
 -85.6006
 -85.5993
 -85.6031
 -85.5706
 -85.5743
 -85.5728
 -85.5707
 -85.5992
 -85.6018
 -85.5999
 -85.5555
 -85.5519
 -85.5541
 -85.5527
 -85.5791
 -85.5805
 -85.5799
 -85.5772
 -85.6215
 -85.6193
 -85.6193
 -85.623
 -85.5316
 -85.5322
 -85.5363
 -85.5345
 -85.5393
 -85.5372
 -85.5361
 -85.5376
 -85.5965
 -85.5938
 -85.5931
 -85.594
 -85.6072
 -85.6059
 -85.6098
 -85.6094
 -85.5238
 -85.5238
 -85.5225
 -85.5204
 -85.5374
 -85.5379
 -85.5423
 -85.5412
 -85.5667
 -85.5699
 -85.5718
 -85.5671
 -85.6333
 -85.6348
 -85.6338
 -85.6343
 -85.5956
 -85.5983
 -85.5989
 -85.5979
 -85.5793
 -85.575
 -85.5791
 -85.5791
 -85.4912
 -85.4871
 -85.4915
 -85.491
 -85.5742
 -85.5715
 -85.575
 -85.5768
 -85.6211
 -85.6189
 -85.6212
 -85.6178
 -85.5469
 -85.5426
 -85.549
 -85.5473
 -85.5413
 -85.5419
 -85.539
 -85.5407
 -85.5398
 -85.5369
 -85.5376
 -85.5385
 -85.5155
 -85.5152
 -85.5152
 -85.5163
 -85.5433
 -85.5392
 -85.5394
 -85.5394
 -85.5977
 -85.5973
 -85.5977
 -85.5958
 -85.5276
 -85.5287
 -85.5297
 -85.5306
 -85.6311
 -85.6295
 -85.6304
 -85.6311
 -85.5293
 -85.5257
 -85.5262
 -85.5288
 -85.6207
 -85.6174
 -85.6207
 -85.6187
 -85.5732
 -85.5707
 -85.5708
 -85.5725
 -85.5613
 -85.5637
 -85.5649
 -85.5619
 -85.5524
 -85.5527
 -85.556
 -85.5532
 -85.5471
 -85.5471
 -85.5451
 -85.5441
 -85.6396
 -85.6409
 -85.6413
 -85.6413
 -85.5497
 -85.5484
 -85.5496
 -85.5486
 -85.6433
 -85.6422
 -85.6428
 -85.6413
 -85.6084
 -85.6078
 -85.6109
 -85.6087
 -85.5018
 -85.5054
 -85.5047
 -85.5014
 -85.6347
 -85.6342
 -85.6358
 -85.6366
 -85.5372
 -85.5407
 -85.5379
 -85.5353
 -85.4988
 -85.497
 -85.4963
 -85.4984
 -85.6168
 -85.6163
 -85.6153
 -85.6165
 -85.637
 -85.6386
 -85.6376
 -85.6372
 -85.5863
 -85.5873
 -85.5857
 -85.5852
 -85.6132
 -85.6106
 -85.6138
 -85.6114
 -85.5436
 -85.5404
 -85.542
 -85.5416
 -85.5926
 -85.5915
 -85.5927
 -85.5952
 -85.5601
 -85.5584
 -85.5609
 -85.5611
 -85.5331
 -85.5342
 -85.5327
 -85.5325
 -85.5208
 -85.5205
 -85.5202
 -85.5225
 -85.5715
 -85.5705
 -85.5733
 -85.5696
 -85.5794
 -85.5796
 -85.5786
 -85.5767
 -85.542
 -85.5414
 -85.5435
 -85.5446
 -85.5417
 -85.5382
 -85.5417
 -85.541
 -85.6005
 -85.601
 -85.5988
 -85.5989
 -85.6332
 -85.6327
 -85.6348
 -85.635
 -85.6304
 -85.6289
 -85.6307
 -85.6311
 -85.6294
 -85.6269
 -85.6275
 -85.6285
 -85.6026
 -85.6013
 -85.6035
 -85.6008
 -85.5413
 -85.538
 -85.5406
 -85.5396
 -85.5427
 -85.5444
 -85.5452
 -85.5459
 -85.5782
 -85.5775
 -85.5732
 -85.5733
 -85.6086
 -85.607
 -85.6111
 -85.6097
 -85.6078
 -85.6063
 -85.607
 -85.6088
 -85.588
 -85.5857
 -85.5872
 -85.5876
 -85.5953
 -85.5974
 -85.5943
 -85.595
 -85.5223
 -85.5217
 -85.523
 -85.5257
 -85.4585
 -85.4566
 -85.4589
 -85.4547
 -85.5483
 -85.5478
 -85.5445
 -85.5463
 -85.4711
 -85.4752
 -85.4741
 -85.5486
 -85.5482
 -85.5498
 -85.5464
 -85.6236
 -85.6221
 -85.6231
 -85.6215
 -85.5853
 -85.587
 -85.5873
 -85.5894
 -85.6331
 -85.6322
 -85.6344
 -85.632
 -85.541
 -85.5415
 -85.5386
 -85.5412
 -85.6045
 -85.6035
 -85.6072
 -85.6063
 -85.5884
 -85.5885
 -85.5853
 -85.5865
 -85.6378
 -85.6387
 -85.6393
 -85.6369
 -85.6189
 -85.6185
 -85.6193
 -85.6217
 -85.5484
 -85.5514
 -85.5493
 -85.5483
 -85.6041
 -85.6038
 -85.6014
 -85.6041
 -85.6219
 -85.6183
 -85.6205
 -85.6187
 -85.4983
 -85.4941
 -85.4962
 -85.4944
 -85.5838
 -85.5852
 -85.5863
 -85.5867
 -85.6214
 -85.6219
 -85.6233
 -85.6215
 -85.5981
 -85.6004
 -85.5962
 -85.6015
 -85.6187
 -85.6162
 -85.619
 -85.6187
 -85.5425
 -85.5452
 -85.5466
 -85.5467
 -85.6181
 -85.6227
 -85.6181
 -85.6219
 -85.5685
 -85.5703
 -85.5651
 -85.568
 -85.5753
 -85.577
 -85.5787
 -85.5749
 -85.6179
 -85.6177
 -85.6157
 -85.619
 -85.6432
 -85.6422
 -85.6423
 -85.6431
 -85.5225
 -85.5241
 -85.5254
 -85.5262
 -85.5587
 -85.5608
 -85.5625
 -85.5594
 -85.5923
 -85.5907
 -85.5893
 -85.5901
 -85.6184
 -85.6199
 -85.6196
 -85.6199
 -85.5509
 -85.5488
 -85.5496
 -85.5497
 -85.5271
 -85.5304
 -85.5319
 -85.5277
 -85.6064
 -85.6065
 -85.6036
 -85.6036
 -85.5981
 -85.6004
 -85.5981
 -85.5991
 -85.6352
 -85.6365
 -85.6378
 -85.6352
 -85.5345
 -85.5379
 -85.5338
 -85.5367
 -85.6369
 -85.6383
 -85.638
 -85.6371
 -85.5564
 -85.5599
 -85.558
 -85.5569
 -85.4614
 -85.4606
 -85.4618
 -85.463
 -85.6277
 -85.6293
 -85.6299
 -85.6292
 -85.6024
 -85.604
 -85.6013
 -85.5983
 -85.6298
 -85.6298
 -85.6286
 -85.6282
 -85.5783
 -85.5751
 -85.5775
 -85.5789
 -85.5719
 -85.5738
 -85.5744
 -85.5725
 -85.6145
 -85.6117
 -85.6124
 -85.6127
 -85.5411
 -85.5422
 -85.5397
 -85.5416
 -85.5366
 -85.5383
 -85.5384
 -85.5374
 -85.4846
 -85.4829
 -85.483
 -85.482
 -85.5882
 -85.5903
 -85.5914
 -85.5927
 -85.5802
 -85.5785
 -85.583
 -85.58
 -85.5988
 -85.5948
 -85.5972
 -85.5995
 -85.5591
 -85.5628
 -85.5631
 -85.5582
 -85.6334
 -85.6331
 -85.6345
 -85.6316
 -85.6368
 -85.6394
 -85.6369
 -85.6363
 -85.6007
 -85.6018
 -85.6044
 -85.6044
 -85.4396
 -85.4392
 -85.4402
 -85.4416
 -85.568
 -85.5663
 -85.5686
 -85.5648
 -85.5703
 -85.5695
 -85.5663
 -85.5695
 -85.5683
 -85.5687
 -85.5653
 -85.5654
 -85.6156
 -85.6146
 -85.6175
 -85.6141
 -85.4938
 -85.4972
 -85.4914
 -85.4934
 -85.4781
 -85.4785
 -85.4751
 -85.4744
 -85.6161
 -85.6142
 -85.6162
 -85.6136
 -85.5534
 -85.5569
 -85.552
 -85.5566
 -85.5654
 -85.5652
 -85.5662
 -85.5664
 -85.6003
 -85.5985
 -85.598
 -85.5954
 -85.539
 -85.5404
 -85.5416
 -85.5402
 -85.6194
 -85.6167
 -85.6175
 -85.619
 -85.5595
 -85.5541
 -85.5571
 -85.5533
 -85.5547
 -85.5543
 -85.5517
 -85.5541
 -85.5279
 -85.5258
 -85.529
 -85.5248
 -85.5674
 -85.5713
 -85.5686
 -85.5715
 -85.6234
 -85.6247
 -85.6247
 -85.623
 -85.6039
 -85.6069
 -85.6079
 -85.6051
 -85.5379
 -85.5373
 -85.5402
 -85.5398
 -85.5497
 -85.5533
 -85.5534
 -85.5497
 -85.6307
 -85.6314
 -85.6325
 -85.6322
 -85.6184
 -85.6167
 -85.6179
 -85.6169
 -85.5705
 -85.5695
 -85.5675
 -85.5694
 -85.5297
 -85.5302
 -85.5301
 -85.531
 -85.5069
 -85.512
 -85.5111
 -85.5076
 -85.6008
 -85.5984
 -85.597
 -85.5998
 -85.5292
 -85.5262
 -85.529
 -85.5225
 -85.6254
 -85.623
 -85.6229
 -85.6252
 -85.5927
 -85.5964
 -85.5943
 -85.5919
 -85.6234
 -85.6228
 -85.622
 -85.6225
 -85.6067
 -85.6041
 -85.604
 -85.6055
 -85.5699
 -85.5686
 -85.5698
 -85.5719
 -85.543
 -85.5386
 -85.5396
 -85.5415
 -85.512
 -85.5171
 -85.5127
 -85.5128
 -85.5234
 -85.519
 -85.5237
 -85.5227
 -85.5415
 -85.5378
 -85.5371
 -85.5385
 -85.5755
 -85.5765
 -85.5759
 -85.5715
 -85.5764
 -85.5768
 -85.5778
 -85.5745
 -85.5798
 -85.5771
 -85.5819
 -85.579
 -85.6021
 -85.6004
 -85.6028
 -85.6024
 -85.4942
 -85.4907
 -85.4916
 -85.4914
 -85.5878
 -85.5883
 -85.5871
 -85.5897
 -85.5372
 -85.5338
 -85.5352
 -85.5362
 -85.5646
 -85.5681
 -85.5658
 -85.5679
 -85.6355
 -85.6327
 -85.6352
 -85.6347
 -85.5739
 -85.5724
 -85.5724
 -85.5711
 -85.5307
 -85.5294
 -85.5302
 -85.5268
 -85.563
 -85.5628
 -85.5648
 -85.5665
 -85.5442
 -85.546
 -85.5456
 -85.5435
 -85.5705
 -85.567
 -85.5711
 -85.5686
 -85.4963
 -85.4936
 -85.4947
 -85.4969
 -85.5662
 -85.5664
 -85.5691
 -85.5692
 -85.6031
 -85.6023
 -85.6041
 -85.6027
 -85.595
 -85.5953
 -85.5965
 -85.5954
 -85.6304
 -85.6269
 -85.6299
 -85.6283
 -85.5503
 -85.5497
 -85.5523
 -85.5505
 -85.5422
 -85.5443
 -85.5422
 -85.5473
 -85.6287
 -85.626
 -85.6289
 -85.6284
 -85.5451
 -85.5448
 -85.5482
 -85.5451
 -85.6234
 -85.6225
 -85.6245
 -85.6224
 -85.5843
 -85.5882
 -85.5857
 -85.5872
 -85.5761
 -85.5719
 -85.576
 -85.5767
 -85.543
 -85.5457
 -85.5451
 -85.5428
 -85.5721
 -85.5718
 -85.5748
 -85.5715
 -85.6247
 -85.6237
 -85.625
 -85.625
 -85.46
 -85.4606
 -85.4613
 -85.4577
 -85.5288
 -85.5284
 -85.5284
 -85.529
 -85.5282
 -85.5285
 -85.5281
 -85.5262
 -85.5538
 -85.5549
 -85.5525
 -85.5565
 -85.5649
 -85.5627
 -85.5646
 -85.5631
 -85.5512
 -85.5496
 -85.5486
 -85.5517
 -85.6357
 -85.6347
 -85.6376
 -85.6341
 -85.5413
 -85.5396
 -85.5402
 -85.5433
 -85.5988
 -85.5993
 -85.6004
 -85.5978
 -85.5758
 -85.6175
 -85.6147
 -85.6157
 -85.6156
 -85.5939
 -85.5958
 -85.5975
 -85.5964
 -85.5215
 -85.5238
 -85.5246
 -85.5228
 -85.5569
 -85.5556
 -85.5576
 -85.5597
 -85.5464
 -85.5433
 -85.5456
 -85.5464
 -85.6217
 -85.6196
 -85.6197
 -85.6199
 -85.5678
 -85.5631
 -85.5664
 -85.5652
 -85.6244
 -85.6251
 -85.6224
 -85.6223
 -85.6057
 -85.6073
 -85.6048
 -85.6081
 -85.5225
 -85.5241
 -85.5229
 -85.5259
 -85.5402
 -85.5369
 -85.5426
 -85.5404
 -85.6036
 -85.6053
 -85.6053
 -85.6035
 -85.5724
 -85.5686
 -85.5718
 -85.5297
 -85.5278
 -85.5288
 -85.531
 -85.5998
 -85.5957
 -85.5982
 -85.5957
 -85.5469
 -85.5436
 -85.5436
 -85.546
 -85.5734
 -85.5689
 -85.5711
 -85.5735
 -85.6289
 -85.6289
 -85.6262
 -85.6286
 -85.553
 -85.5517
 -85.5503
 -85.5527
 -85.618
 -85.6155
 -85.6177
 -85.6185
 -85.579
 -85.5776
 -85.5793
 -85.5761
 -85.6114
 -85.61
 -85.6081
 -85.6094
 -85.627
 -85.6271
 -85.6292
 -85.6281
 -85.5549
 -85.5545
 -85.5566
 -85.5565
 -85.4594
 -85.4645
 -85.4633
 -85.4661
 -85.6369
 -85.6356
 -85.6359
 -85.6353
 -85.5979
 -85.5968
 -85.595
 -85.5964
 -85.5337
 -85.5336
 -85.5387
 -85.5347
 -85.5633
 -85.565
 -85.566
 -85.5628
 -85.5012
 -85.5022
 -85.5023
 -85.4992
 -85.6251
 -85.6262
 -85.6288
 -85.6264
 -85.5317
 -85.5304
 -85.5312
 -85.5314
 -85.5861
 -85.5886
 -85.5848
 -85.5868
 -85.5381
 -85.5326
 -85.5366
 -85.5373
 -85.64
 -85.6395
 -85.6398
 -85.6375
 -85.6391
 -85.6389
 -85.6376
 -85.6367
 -85.6058
 -85.6031
 -85.6025
 -85.6062
 -85.5888
 -85.5899
 -85.5888
 -85.5866
 -85.5897
 -85.5301
 -85.5307
 -85.5267
 -85.5294
 -85.5369
 -85.5356
 -85.5347
 -85.538
 -85.6003
 -85.6029
 -85.6031
 -85.6029
 -85.5344
 -85.5364
 -85.5364
 -85.5343
 -85.5435
 -85.5429
 -85.5423
 -85.5454
 -85.6041
 -85.6051
 -85.6044
 -85.6021
 -85.5569
 -85.5603
 -85.5569
 -85.5603
 -85.6024
 -85.6027
 -85.6032
 -85.6051
 -85.5463
 -85.5458
 -85.5433
 -85.5462
 -85.5546
 -85.5572
 -85.5571
 -85.5575
 -85.5691
 -85.5714
 -85.5677
 -85.5709
 -85.5882
 -85.5912
 -85.5892
 -85.5921
 -85.6141
 -85.6129
 -85.6162
 -85.6162
 -85.5839
 -85.5831
 -85.5815
 -85.5818
 -85.5841
 -85.5852
 -85.5863
 -85.5854
 -85.5225
 -85.5225
 -85.5239
 -85.5249
 -85.5986
 -85.5993
 -85.6001
 -85.5996
 -85.5768
 -85.5776
 -85.5787
 -85.5765
 -85.5819
 -85.582
 -85.58
 -85.5818
 -85.5594
 -85.5602
 -85.5569
 -85.5588
 -85.5293
 -85.529
 -85.5305
 -85.527
 -85.6104
 -85.6105
 -85.6121
 -85.6119
 -85.5306
 -85.5282
 -85.5293
 -85.5324
 -85.6369
 -85.6368
 -85.6387
 -85.6377
 -85.6189
 -85.6172
 -85.6203
 -85.6194
 -85.6206
 -85.6207
 -85.6207
 -85.6199
 -85.6191
 -85.6186
 -85.6182
 -85.6205
 -85.6058
 -85.6068
 -85.6043
 -85.607
 -85.5063
 -85.5044
 -85.5006
 -85.5834
 -85.5797
 -85.583
 -85.5819
 -85.6161
 -85.6154
 -85.6145
 -85.6163
 -85.5582
 -85.555
 -85.5569
 -85.5578
 -85.5467
 -85.5472
 -85.5456
 -85.5478
 -85.6074
 -85.6078
 -85.6101
 -85.6053
 -85.5678
 -85.5668
 -85.5685
 -85.5704
 -85.5494
 -85.5496
 -85.5488
 -85.548
 -85.6345
 -85.6366
 -85.5954
 -85.5947
 -85.5924
 -85.5922
 -85.5701
 -85.5699
 -85.5678
 -85.5879
 -85.5885
 -85.5877
 -85.5857
 -85.5117
 -85.511
 -85.5145
 -85.5143
 -85.6181
 -85.62
 -85.6198
 -85.6176
 -85.5874
 -85.5867
 -85.5852
 -85.5854
 -85.5577
 -85.555
 -85.5563
 -85.5587
 -85.5809
 -85.5777
 -85.5788
 -85.58
 -85.5333
 -85.5324
 -85.5337
 -85.5331
 -85.5246
 -85.5291
 -85.5259
 -85.5267
 -85.5667
 -85.5692
 -85.5699
 -85.5683
 -85.532
 -85.5314
 -85.5317
 -85.5345
 -85.5705
 -85.5689
 -85.5696
 -85.5683
 -85.6209
 -85.6206
 -85.6181
 -85.6177
 -85.536
 -85.5374
 -85.5385
 -85.5372
 -85.4844
 -85.4878
 -85.4845
 -85.4868
 -85.5915
 -85.5866
 -85.59
 -85.5903
 -85.5635
 -85.5656
 -85.563
 -85.5657
 -85.5331
 -85.5324
 -85.5349
 -85.5342
 -85.5715
 -85.5694
 -85.5723
 -85.5725
 -85.631
 -85.6301
 -85.6314
 -85.631
 -85.544
 -85.5439
 -85.5426
 -85.5441
 -85.5935
 -85.5912
 -85.5911
 -85.5906
 -85.5622
 -85.5651
 -85.5628
 -85.5671
 -85.6049
 -85.6063
 -85.6058
 -85.6081
 -85.6215
 -85.621
 -85.6223
 -85.6203
 -85.5345
 -85.5367
 -85.5351
 -85.5396
 -85.5523
 -85.5544
 -85.5538
 -85.5533
 -85.5876
 -85.5873
 -85.5839
 -85.5859
 -85.5319
 -85.5326
 -85.5325
 -85.5334
 -85.4622
 -85.4597
 -85.46
 -85.4616
 -85.5801
 -85.5775
 -85.5776
 -85.5768
 -85.4551
 -85.4545
 -85.4552
 -85.4578
 -85.4614
 -85.4655
 -85.4647
 -85.4627
 -85.5127
 -85.5151
 -85.5144
 -85.5117
 -85.5981
 -85.5962
 -85.5946
 -85.5934
 -85.5972
 -85.5988
 -85.5993
 -85.6008
 -85.601
 -85.5994
 -85.6008
 -85.598
 -85.5927
 -85.5899
 -85.5906
 -85.5933
 -85.5003
 -85.4977
 -85.4999
 -85.4991
 -85.5372
 -85.536
 -85.5389
 -85.5377
 -85.5334
 -85.5304
 -85.5315
 -85.5307
 -85.5576
 -85.5609
 -85.5578
 -85.5612
 -85.5834
 -85.5817
 -85.5836
 -85.5821
 -85.6054
 -85.6046
 -85.6035
 -85.6054
 -85.5406
 -85.544
 -85.5453
 -85.542
 -85.5984
 -85.5733
 -85.5754
 -85.5756
 -85.5742
 -85.6385
 -85.639
 -85.6409
 -85.6397
 -85.567
 -85.5678
 -85.5694
 -85.5675
 -85.626
 -85.6286
 -85.6266
 -85.5358
 -85.5371
 -85.5382
 -85.5353
 -85.4717
 -85.4748
 -85.4734
 -85.475
 -85.5728
 -85.5728
 -85.5765
 -85.5711
 -85.5592
 -85.5551
 -85.5555
 -85.5555
 -85.5322
 -85.534
 -85.5358
 -85.5368
 -85.5359
 -85.5369
 -85.5347
 -85.5373
 -85.509
 -85.5057
 -85.5079
 -85.5079
 -85.5879
 -85.5872
 -85.5888
 -85.5928
 -85.5734
 -85.5767
 -85.5727
 -85.5751
 -85.5518
 -85.5492
 -85.5521
 -85.5506
 -85.5672
 -85.5653
 -85.5706
 -85.6077
 -85.6065
 -85.606
 -85.5412
 -85.5418
 -85.5378
 -85.5372
 -85.5157
 -85.5147
 -85.5148
 -85.5155
 -85.5464
 -85.5485
 -85.5481
 -85.5458
 -85.5151
 -85.512
 -85.5161
 -85.511
 -85.6129
 -85.6159
 -85.6137
 -85.6145
 -85.6053
 -85.6066
 -85.6072
 -85.6088
 -85.5324
 -85.5315
 -85.532
 -85.5315
 -85.5041
 -85.4995
 -85.5027
 -85.5038
 -85.5804
 -85.5766
 -85.5799
 -85.5785
 -85.6332
 -85.631
 -85.6336
 -85.6314
 -85.5134
 -85.5131
 -85.5116
 -85.5132
 -85.5969
 -85.5945
 -85.594
 -85.5975
 -85.4835
 -85.4814
 -85.4834
 -85.4818
 -85.605
 -85.6061
 -85.6045
 -85.6082
 -85.5598
 -85.5573
 -85.5612
 -85.5565
 -85.6132
 -85.6134
 -85.6153
 -85.6155
 -85.535
 -85.5358
 -85.5362
 -85.5385
 -85.5543
 -85.5519
 -85.5521
 -85.552
 -85.5406
 -85.5394
 -85.5428
 -85.5426
 -85.5465
 -85.5455
 -85.5489
 -85.5438
 -85.5803
 -85.5822
 -85.5816
 -85.579
 -85.5659
 -85.5637
 -85.5666
 -85.5665
 -85.6157
 -85.6137
 -85.6119
 -85.6123
 -85.6364
 -85.6377
 -85.6348
 -85.6349
 -85.5619
 -85.5615
 -85.5594
 -85.5612
 -85.6202
 -85.6192
 -85.6187
 -85.6215
 -85.602
 -85.6052
 -85.6069
 -85.6045
 -85.4964
 -85.4949
 -85.4916
 -85.4961
 -85.5274
 -85.5327
 -85.5313
 -85.5298
 -85.559
 -85.5571
 -85.5563
 -85.5572
 -85.5097
 -85.5076
 -85.5071
 -85.5051
 -85.5827
 -85.5857
 -85.5853
 -85.5842
 -85.6116
 -85.616
 -85.6137
 -85.6138
 -85.5118
 -85.5165
 -85.5119
 -85.5118
 -85.5682
 -85.5707
 -85.5689
 -85.5694
 -85.5481
 -85.548
 -85.548
 -85.5466
 -85.4627
 -85.4654
 -85.4653
 -85.4627
 -85.5566
 -85.5562
 -85.5556
 -85.5586
 -85.575
 -85.5769
 -85.5767
 -85.5771
 -85.6039
 -85.6066
 -85.6049
 -85.6073
 -85.5458
 -85.5466
 -85.5475
 -85.5746
 -85.574
 -85.573
 -85.5743
 -85.5519
 -85.552
 -85.5555
 -85.553
 -85.5978
 -85.5953
 -85.5971
 -85.5967
 -85.5968
 -85.5997
 -85.5994
 -85.5984
 -85.6234
 -85.6215
 -85.6227
 -85.6204
 -85.5383
 -85.539
 -85.5408
 -85.5383
 -85.6315
 -85.6323
 -85.6332
 -85.6319
 -85.5432
 -85.5456
 -85.5437
 -85.5425
 -85.573
 -85.5762
 -85.5759
 -85.5778
 -85.5784
 -85.5757
 -85.576
 -85.5748
 -85.4585
 -85.4557
 -85.4582
 -85.458
 -85.5498
 -85.5478
 -85.55
 -85.5504
 -85.5705
 -85.5702
 -85.5727
 -85.5759
 -85.5688
 -85.5699
 -85.5699
 -85.5668
 -85.6373
 -85.6373
 -85.6355
 -85.6372
 -85.5429
 -85.5457
 -85.5473
 -85.5439
 -85.5478
 -85.546
 -85.5487
 -85.5454
 -85.604
 -85.6062
 -85.6042
 -85.6058
 -85.5349
 -85.5342
 -85.5325
 -85.5321
 -85.5336
 -85.5329
 -85.5346
 -85.5327
 -85.5948
 -85.5912
 -85.5946
 -85.5928
 -85.5983
 -85.598
 -85.5959
 -85.5981
 -85.5801
 -85.5802
 -85.5838
 -85.5828
 -85.5454
 -85.544
 -85.5896
 -85.5876
 -85.5912
 -85.5882
 -85.5472
 -85.5487
 -85.5474
 -85.5479
 -85.5632
 -85.5662
 -85.5671
 -85.5657
 -85.6264
 -85.6253
 -85.6242
 -85.627
 -85.5637
 -85.5646
 -85.5661
 -85.5666
 -85.6085
 -85.6103
 -85.6115
 -85.6077
 -85.5393
 -85.5445
 -85.5427
 -85.5442
 -85.5586
 -85.5563
 -85.5555
 -85.5571
 -85.5702
 -85.5748
 -85.5723
 -85.5734
 -85.5384
 -85.5361
 -85.5351
 -85.5368
 -85.4859
 -85.4865
 -85.4852
 -85.4831
 -85.6335
 -85.6332
 -85.6328
 -85.6335
 -85.514
 -85.5133
 -85.5148
 -85.5129
 -85.5845
 -85.5857
 -85.5828
 -85.583
 -85.4854
 -85.4855
 -85.4879
 -85.4845
 -85.5887
 -85.5911
 -85.589
 -85.5888
 -85.5442
 -85.5437
 -85.5429
 -85.5429
 -85.5441
 -85.5447
 -85.5421
 -85.5436
 -85.5782
 -85.5794
 -85.5759
 -85.5782
 -85.6162
 -85.6134
 -85.6156
 -85.613
 -85.5567
 -85.5604
 -85.5596
 -85.5602
 -85.532
 -85.5311
 -85.5321
 -85.5331
 -85.6149
 -85.6181
 -85.6163
 -85.6188
 -85.5417
 -85.5388
 -85.5429
 -85.5431
 -85.5566
 -85.5597
 -85.5588
 -85.5606
 -85.6027
 -85.6072
 -85.6063
 -85.6046
 -85.5766
 -85.5794
 -85.5799
 -85.5799
 -85.5666
 -85.5648
 -85.5668
 -85.5681
 -85.626
 -85.6276
 -85.6285
 -85.6291
 -85.6187
 -85.6195
 -85.6195
 -85.6183
 -85.5846
 -85.5847
 -85.5813
 -85.5831
 -85.5664
 -85.5682
 -85.5655
 -85.5713
 -85.5502
 -85.5512
 -85.5515
 -85.5555
 -85.5288
 -85.5285
 -85.5266
 -85.6077
 -85.6094
 -85.6084
 -85.6108
 -85.4822
 -85.48
 -85.4775
 -85.4777
 -85.5972
 -85.5938
 -85.5956
 -85.5952
 -85.5398
 -85.5365
 -85.5381
 -85.5384
 -85.5347
 -85.5326
 -85.5333
 -85.5331
 -85.6191
 -85.6167
 -85.618
 -85.6213
 -85.579
 -85.577
 -85.5798
 -85.5777
 -85.5674
 -85.5665
 -85.5467
 -85.5623
 -85.5653
 -85.5618
 -85.5637
 -85.4863
 -85.4886
 -85.594
 -85.5952
 -85.5965
 -85.5216
 -85.5235
 -85.5193
 -85.5217
 -85.5947
 -85.5917
 -85.5926
 -85.5927
 -85.5563
 -85.5592
 -85.5585
 -85.5583
 -85.5458
 -85.5497
 -85.5473
 -85.5474
 -85.6261
 -85.6263
 -85.629
 -85.6272
 -85.5225
 -85.5251
 -85.5221
 -85.5252
 -85.5921
 -85.5925
 -85.5927
 -85.5945
 -85.6296
 -85.6303
 -85.6277
 -85.6279
 -85.5759
 -85.5731
 -85.576
 -85.5739
 -85.5919
 -85.5882
 -85.5898
 -85.5894
 -85.5706
 -85.5732
 -85.5713
 -85.5671
 -85.6395
 -85.6366
 -85.6387
 -85.636
 -85.6373
 -85.6372
 -85.6363
 -85.6352
 -85.6355
 -85.6347
 -85.6345
 -85.6356
 -85.5634
 -85.5608
 -85.5632
 -85.563
 -85.5845
 -85.5816
 -85.5826
 -85.5843
 -85.5652
 -85.5648
 -85.5627
 -85.5643
 -85.5604
 -85.5594
 -85.5633
 -85.5594
 -85.5982
 -85.5993
 -85.5998
 -85.5971
 -85.6156
 -85.6187
 -85.6178
 -85.6189
 -85.6144
 -85.6154
 -85.6127
 -85.6162
 -85.5749
 -85.5766
 -85.5744
 -85.5762
 -85.569
 -85.5686
 -85.5681
 -85.5668
 -85.5431
 -85.5414
 -85.5424
 -85.5453
 -85.6047
 -85.607
 -85.6069
 -85.604
 -85.5101
 -85.5102
 -85.5074
 -85.5119
 -85.6107
 -85.6124
 -85.6103
 -85.6096
 -85.5816
 -85.5857
 -85.5812
 -85.5847
 -85.5791
 -85.5808
 -85.5796
 -85.5781
 -85.5235
 -85.5233
 -85.5214
 -85.5189
 -85.449
 -85.451
 -85.4485
 -85.4489
 -85.5524
 -85.5551
 -85.5524
 -85.5531
 -85.6106
 -85.6073
 -85.6085
 -85.6104
 -85.5348
 -85.5327
 -85.5343
 -85.5359
 -85.5836
 -85.5849
 -85.582
 -85.5855
 -85.5879
 -85.5902
 -85.5927
 -85.5916
 -85.6036
 -85.6049
 -85.6014
 -85.6027
 -85.5045
 -85.5022
 -85.5024
 -85.5044
 -85.5072
 -85.5072
 -85.506
 -85.5057
 -85.6098
 -85.6136
 -85.6119
 -85.612
 -85.5991
 -85.5952
 -85.5953
 -85.5978
 -85.5515
 -85.5519
 -85.5503
 -85.5506
 -85.5718
 -85.5706
 -85.5731
 -85.5746
 -85.5812
 -85.5824
 -85.5815
 -85.5808
 -85.5492
 -85.5477
 -85.5516
 -85.5481
 -85.5925
 -85.591
 -85.591
 -85.5891
 -85.6457
 -85.644
 -85.6452
 -85.6454
 -85.5859
 -85.5889
 -85.5888
 -85.5908
 -85.5723
 -85.5735
 -85.5713
 -85.5753
 -85.5722
 -85.5718
 -85.5694
 -85.5723
 -85.5818
 -85.5832
 -85.5818
 -85.5794
 -85.6325
 -85.633
 -85.6313
 -85.6326
 -85.616
 -85.614
 -85.6154
 -85.5908
 -85.5907
 -85.5926
 -85.5905
 -85.5321
 -85.5318
 -85.5339
 -85.5316
 -85.5598
 -85.5601
 -85.5577
 -85.5608
 -85.6144
 -85.6111
 -85.611
 -85.6111
 -85.5432
 -85.544
 -85.5447
 -85.5459
 -85.5555
 -85.5531
 -85.5529
 -85.556
 -85.5589
 -85.5577
 -85.5541
 -85.557
 -85.5969
 -85.5952
 -85.5946
 -85.5943
 -85.582
 -85.5793
 -85.5824
 -85.5771
 -85.5911
 -85.5861
 -85.5879
 -85.5886
 -85.537
 -85.5379
 -85.5385
 -85.5373
 -85.5593
 -85.5614
 -85.5621
 -85.5595
 -85.5948
 -85.5927
 -85.5952
 -85.5969
 -85.5534
 -85.5547
 -85.5563
 -85.5521
 -85.5861
 -85.5884
 -85.5886
 -85.5869
 -85.5355
 -85.5348
 -85.5361
 -85.5344
 -85.6298
 -85.6304
 -85.6281
 -85.6298
 -85.5418
 -85.5396
 -85.5424
 -85.5436
 -85.5372
 -85.5323
 -85.5353
 -85.5353
 -85.6015
 -85.6014
 -85.6033
 -85.604
 -85.5426
 -85.5433
 -85.5439
 -85.5434
 -85.5892
 -85.5884
 -85.5895
 -85.5867
 -85.5208
 -85.5215
 -85.5177
 -85.5185
 -85.5792
 -85.5781
 -85.5789
 -85.5812
 -85.6235
 -85.6268
 -85.6238
 -85.6258
 -85.5807
 -85.5768
 -85.5766
 -85.5791
 -85.6037
 -85.605
 -85.6037
 -85.6037
 -85.5879
 -85.5866
 -85.5873
 -85.5892
 -85.5861
 -85.5873
 -85.5878
 -85.5901
 -85.6325
 -85.6326
 -85.6334
 -85.6301
 -85.5365
 -85.5353
 -85.534
 -85.5337
 -85.5386
 -85.5374
 -85.535
 -85.5373
 -85.6187
 -85.6184
 -85.6172
 -85.6204
 -85.6253
 -85.6266
 -85.6249
 -85.5486
 -85.5477
 -85.5475
 -85.5493
 -85.5922
 -85.595
 -85.5919
 -85.5917
 -85.5831
 -85.5842
 -85.5811
 -85.5846
 -85.5351
 -85.5376
 -85.5331
 -85.5353
 -85.6044
 -85.6062
 -85.6055
 -85.6055
 -85.5699
 -85.5665
 -85.5672
 -85.5697
 -85.5789
 -85.5759
 -85.5763
 -85.5756
 -85.6068
 -85.6088
 -85.6087
 -85.6082
 -85.5289
 -85.5281
 -85.5292
 -85.5303
 -85.5483
 -85.5448
 -85.546
 -85.5455
 -85.6349
 -85.6328
 -85.6347
 -85.6339
 -85.5374
 -85.5371
 -85.5378
 -85.5412
 -85.5305
 -85.5296
 -85.5301
 -85.5302
 -85.5718
 -85.5726
 -85.5713
 -85.575
 -85.4881
 -85.4892
 -85.4868
 -85.4914
 -85.5767
 -85.5773
 -85.5758
 -85.5771
 -85.6094
 -85.6085
 -85.6077
 -85.6072
 -85.617
 -85.6153
 -85.6162
 -85.5229
 -85.523
 -85.5247
 -85.5233
 -85.5427
 -85.5455
 -85.5418
 -85.5446
 -85.5359
 -85.535
 -85.5327
 -85.5328
 -85.5471
 -85.5448
 -85.5463
 -85.5458
 -85.6365
 -85.6376
 -85.6384
 -85.6378
 -85.5268
 -85.527
 -85.5259
 -85.524
 -85.5416
 -85.5395
 -85.5414
 -85.5447
 -85.6161
 -85.618
 -85.6163
 -85.6155
 -85.5564
 -85.5559
 -85.5579
 -85.5447
 -85.5421
 -85.5448
 -85.5805
 -85.5794
 -85.5767
 -85.4928
 -85.4971
 -85.4976
 -85.4943
 -85.578
 -85.5801
 -85.579
 -85.5809
 -85.576
 -85.5779
 -85.574
 -85.5742
 -85.6189
 -85.6205
 -85.6182
 -85.618
 -85.6261
 -85.6257
 -85.6291
 -85.6257
 -85.5332
 -85.5303
 -85.5301
 -85.5355
 -85.583
 -85.5858
 -85.5862
 -85.5847
 -85.5821
 -85.5844
 -85.5855
 -85.5848
 -85.5676
 -85.5715
 -85.5698
 -85.5722
 -85.5525
 -85.5535
 -85.5543
 -85.5501
 -85.5833
 -85.5802
 -85.5827
 -85.5833
 -85.5372
 -85.538
 -85.537
 -85.5388
 -85.624
 -85.6231
 -85.6241
 -85.6246
 -85.548
 -85.5471
 -85.5484
 -85.5504
 -85.6165
 -85.6143
 -85.6158
 -85.6152
 -85.6289
 -85.6279
 -85.6259
 -85.6281
 -85.6291
 -85.6286
 -85.6282
 -85.6276
 -85.542
 -85.5403
 -85.6016
 -85.6009
 -85.5994
 -85.6008
 -85.5361
 -85.5397
 -85.5382
 -85.5368
 -85.6075
 -85.6115
 -85.6104
 -85.6112
 -85.6156
 -85.6143
 -85.617
 -85.6144
 -85.5489
 -85.5513
 -85.5515
 -85.5501
 -85.5831
 -85.5832
 -85.5853
 -85.5847
 -85.5466
 -85.5466
 -85.5491
 -85.5468
 -85.5618
 -85.5616
 -85.5622
 -85.5648
 -85.4667
 -85.4714
 -85.4654
 -85.4695
 -85.622
 -85.6207
 -85.6241
 -85.6218
 -85.5482
 -85.5461
 -85.5491
 -85.5513
 -85.5229
 -85.5207
 -85.5208
 -85.5235
 -85.5659
 -85.5643
 -85.5674
 -85.5677
 -85.5222
 -85.5178
 -85.5167
 -85.5223
 -85.5647
 -85.562
 -85.5603
 -85.5636
 -85.6003
 -85.5996
 -85.6023
 -85.5983
 -85.5697
 -85.5677
 -85.5678
 -85.5688
 -85.6195
 -85.6228
 -85.6198
 -85.5662
 -85.569
 -85.566
 -85.5687
 -85.4669
 -85.4651
 -85.4653
 -85.4643
 -85.638
 -85.6384
 -85.6391
 -85.638
 -85.5818
 -85.5809
 -85.5826
 -85.5803
 -85.6089
 -85.6074
 -85.6049
 -85.6079
 -85.5324
 -85.5348
 -85.5286
 -85.5313
 -85.5518
 -85.5543
 -85.5499
 -85.553
 -85.5524
 -85.5568
 -85.5541
 -85.5566
 -85.6273
 -85.626
 -85.6281
 -85.6293
 -85.5566
 -85.5545
 -85.5527
 -85.5537
 -85.6356
 -85.635
 -85.6361
 -85.6339
 -85.5979
 -85.5948
 -85.595
 -85.5982
 -85.5377
 -85.5383
 -85.5392
 -85.5375
 -85.4862
 -85.4872
 -85.4901
 -85.4854
 -85.5622
 -85.5581
 -85.5605
 -85.5571
 -85.5713
 -85.5716
 -85.5739
 -85.571
 -85.6018
 -85.6021
 -85.6005
 -85.5986
 -85.4706
 -85.4667
 -85.4716
 -85.4699
 -85.5632
 -85.5612
 -85.5648
 -85.5636
 -85.6335
 -85.632
 -85.6315
 -85.6319
 -85.6135
 -85.6154
 -85.6146
 -85.6137
 -85.6125
 -85.6129
 -85.6147
 -85.6119
 -85.6095
 -85.6076
 -85.6068
 -85.6079
 -85.6132
 -85.6166
 -85.6149
 -85.6145
 -85.5895
 -85.5901
 -85.5896
 -85.5898
 -85.5408
 -85.5455
 -85.5484
 -85.5485
 -85.5473
 -85.5967
 -85.5939
 -85.5949
 -85.5942
 -85.5961
 -85.5968
 -85.5931
 -85.5938
 -85.5155
 -85.5166
 -85.5165
 -85.5155
 -85.6211
 -85.6211
 -85.62
 -85.6212
 -85.6078
 -85.6098
 -85.6126
 -85.6109
 -85.5373
 -85.5407
 -85.5403
 -85.5408
 -85.5409
 -85.5401
 -85.5453
 -85.5471
 -85.5462
 -85.5485
 -85.5384
 -85.5351
 -85.5309
 -85.5332
 -85.5955
 -85.5982
 -85.5974
 -85.5955
 -85.6355
 -85.6356
 -85.6351
 -85.6359
 -85.5732
 -85.5715
 -85.5732
 -85.5703
 -85.6269
 -85.6234
 -85.6219
 -85.622
 -85.5642
 -85.5639
 -85.5624
 -85.5652
 -85.5945
 -85.5925
 -85.5909
 -85.5911
 -85.5345
 -85.5338
 -85.5334
 -85.5304
 -85.5841
 -85.5867
 -85.5828
 -85.5848
 -85.5881
 -85.5916
 -85.5929
 -85.5888
 -85.5413
 -85.5402
 -85.5381
 -85.5392
 -85.5559
 -85.5542
 -85.5592
 -85.5569
 -85.5652
 -85.5649
 -85.5624
 -85.5607
 -85.5838
 -85.5855
 -85.5844
 -85.5852
 -85.5131
 -85.5141
 -85.5151
 -85.518
 -85.59
 -85.5872
 -85.589
 -85.5906
 -85.5561
 -85.5528
 -85.5565
 -85.5586
 -85.6008
 -85.6
 -85.6007
 -85.5986
 -85.6181
 -85.616
 -85.6178
 -85.6166
 -85.6302
 -85.6292
 -85.6287
 -85.6295
 -85.6258
 -85.6271
 -85.6237
 -85.6374
 -85.6377
 -85.6388
 -85.6392
 -85.612
 -85.6098
 -85.6072
 -85.61
 -85.5704
 -85.5698
 -85.5719
 -85.5715
 -85.6275
 -85.6259
 -85.6245
 -85.6271
 -85.5781
 -85.5786
 -85.577
 -85.5765
 -85.5847
 -85.5862
 -85.5852
 -85.6275
 -85.6291
 -85.6281
 -85.6277
 -85.6228
 -85.621
 -85.6217
 -85.5808
 -85.5794
 -85.582
 -85.5829
 -85.5547
 -85.5567
 -85.5545
 -85.5586
 -85.5984
 -85.5966
 -85.5959
 -85.5954
 -85.6284
 -85.6298
 -85.6289
 -85.628
 -85.543
 -85.5424
 -85.5442
 -85.5412
 -85.5699
 -85.5692
 -85.5669
 -85.5667
 -85.5732
 -85.577
 -85.5727
 -85.5736
 -85.6008
 -85.5981
 -85.6001
 -85.6006
 -85.5441
 -85.542
 -85.5461
 -85.5425
 -85.5334
 -85.5312
 -85.5337
 -85.5326
 -85.5738
 -85.574
 -85.5735
 -85.5763
 -85.6341
 -85.6327
 -85.6326
 -85.6331
 -85.5496
 -85.5465
 -85.5499
 -85.5484
 -85.5354
 -85.5378
 -85.5347
 -85.5376
 -85.5898
 -85.586
 -85.5898
 -85.5895
 -85.5463
 -85.5472
 -85.5455
 -85.5365
 -85.5385
 -85.5378
 -85.5855
 -85.5842
 -85.5879
 -85.5849
 -85.5374
 -85.5363
 -85.5346
 -85.5373
 -85.5388
 -85.5357
 -85.538
 -85.5381
 -85.5902
 -85.5912
 -85.5895
 -85.5377
 -85.5372
 -85.6169
 -85.6171
 -85.621
 -85.6212
 -85.5979
 -85.6017
 -85.6018
 -85.6003
 -85.5131
 -85.516
 -85.5107
 -85.5167
 -85.4932
 -85.4937
 -85.4908
 -85.4939
 -85.5455
 -85.5404
 -85.5436
 -85.5439
 -85.6246
 -85.6245
 -85.6256
 -85.6246
 -85.5945
 -85.5926
 -85.5913
 -85.5926
 -85.5289
 -85.5286
 -85.5284
 -85.5282
 -85.5473
 -85.5478
 -85.549
 -85.5515
 -85.5489
 -85.5491
 -85.5484
 -85.542
 -85.544
 -85.5443
 -85.5444
 -85.5441
 -85.542
 -85.5449
 -85.5455
 -85.535
 -85.5325
 -85.5346
 -85.5322
 -85.6327
 -85.6339
 -85.6332
 -85.6329
 -85.6268
 -85.6288
 -85.626
 -85.5733
 -85.5715
 -85.5736
 -85.5702
 -85.5444
 -85.5407
 -85.5449
 -85.5436
 -85.6384
 -85.6396
 -85.536
 -85.5345
 -85.5349
 -85.5335
 -85.5794
 -85.5844
 -85.5812
 -85.583
 -85.5915
 -85.5906
 -85.5377
 -85.5373
 -85.5403
 -85.5376
 -85.6291
 -85.6302
 -85.6283
 -85.6315
 -85.6358
 -85.6345
 -85.6349
 -85.6374
 -85.566
 -85.5674
 -85.566
 -85.5123
 -85.5147
 -85.5132
 -85.5399
 -85.5436
 -85.5397
 -85.5405
 -85.6056
 -85.6032
 -85.6074
 -85.6033
 -85.5521
 -85.5494
 -85.5495
 -85.5472
 -85.5503
 -85.5485
 -85.5514
 -85.5478
 -85.5954
 -85.5948
 -85.5964
 -85.5993
 -85.4725
 -85.4738
 -85.4714
 -85.4687
 -85.603
 -85.6038
 -85.6059
 -85.6053
 -85.6052
 -85.6049
 -85.6069
 -85.6081
 -85.5328
 -85.533
 -85.5294
 -85.532
 -85.6227
 -85.6237
 -85.6241
 -85.6221
 -85.4665
 -85.4623
 -85.4635
 -85.4606
 -85.6299
 -85.6259
 -85.6261
 -85.6255
 -85.6143
 -85.6125
 -85.5473
 -85.5492
 -85.5484
 -85.5507
 -85.5301
 -85.5276
 -85.5289
 -85.5311
 -85.6214
 -85.6232
 -85.6227
 -85.6221
 -85.5545
 -85.5556
 -85.5554
 -85.5535
 -85.6336
 -85.6322
 -85.6332
 -85.5455
 -85.5429
 -85.5418
 -85.5267
 -85.5295
 -85.5303
 -85.6302
 -85.6311
 -85.6303
 -85.6296
 -85.5466
 -85.5451
 -85.5452
 -85.5451
 -85.6224
 -85.6227
 -85.5274
 -85.529
 -85.527
 -85.5278
 -85.5763
 -85.5789
 -85.5792
 -85.5764
 -85.5502
 -85.5485
 -85.5602
 -85.5657
 -85.5649
 -85.5617
 -85.5474
 -85.547
 -85.5473
 -85.5443
 -85.635
 -85.6373
 -85.6344
 -85.6354
 -85.5319
 -85.5309
 -85.5314
 -85.6145
 -85.4684
 -85.4681
 -85.4684
 -85.4668
 -85.6208
 -85.6213
 -85.6226
 -85.6185
 -85.5502
 -85.5504
 -85.5547
 -85.5538
 -85.6018
 -85.6006
 -85.6009
 -85.6014
 -85.5471
 -85.5452
 -85.5439
 -85.5466
 -85.595
 -85.5155
 -85.5148
 -85.5148
 -85.5157
 -85.5945
 -85.5946
 -85.5936
 -85.5914
 -85.6123
 -85.6136
 -85.6146
 -85.6105
 -85.6125
 -85.6099
 -85.6132
 -85.6219
 -85.6239
 -85.623
 -85.6228
 -85.5328
 -85.5338
 -85.5368
 -85.5353
 -85.6188
 -85.6187
 -85.6185
 -85.6207
 -85.5227
 -85.5221
 -85.5229
 -85.5198
 -85.6162
 -85.6176
 -85.6185
 -85.6186
 -85.5719
 -85.5703
 -85.5699
 -85.5689
 -85.6008
 -85.6025
 -85.6033
 -85.604
 -85.5806
 -85.5793
 -85.5783
 -85.5775
 -85.6297
 -85.6267
 -85.58
 -85.5774
 -85.5776
 -85.5797
 -85.5146
 -85.5136
 -85.5171
 -85.5135
 -85.5213
 -85.5201
 -85.5249
 -85.5208
 -85.5805
 -85.583
 -85.5833
 -85.5835
 -85.6049
 -85.605
 -85.6042
 -85.6075
 -85.6087
 -85.6066
 -85.6078
 -85.6095
 -85.6272
 -85.6246
 -85.6254
 -85.6239
 -85.6094
 -85.6123
 -85.6108
 -85.6092
 -85.5213
 -85.5216
 -85.5234
 -85.5197
 -85.536
 -85.5361
 -85.5353
 -85.5398
 -85.639
 -85.6379
 -85.6374
 -85.6375
 -85.5852
 -85.5864
 -85.5859
 -85.5898
 -85.5396
 -85.5432
 -85.5396
 -85.5426
 -85.4801
 -85.4793
 -85.4838
 -85.4785
 -85.6211
 -85.6223
 -85.6199
 -85.6245
 -85.5432
 -85.5433
 -85.5442
 -85.5461
 -85.5616
 -85.5644
 -85.5599
 -85.5622
 -85.5219
 -85.5208
 -85.5216
 -85.5233
 -85.5933
 -85.5921
 -85.5933
 -85.5936
 -85.6272
 -85.6273
 -85.6266
 -85.6272
 -85.5879
 -85.5845
 -85.5855
 -85.5847
 -85.5659
 -85.5663
 -85.5695
 -85.568
 -85.517
 -85.5184
 -85.5197
 -85.5151
 -85.6265
 -85.5977
 -85.5996
 -85.5966
 -85.5993
 -85.561
 -85.5597
 -85.5571
 -85.558
 -85.604
 -85.6058
 -85.6053
 -85.6073
 -85.5397
 -85.5381
 -85.5385
 -85.5414
 -85.593
 -85.5946
 -85.5914
 -85.5136
 -85.5173
 -85.5143
 -85.5137
 -85.6149
 -85.6105
 -85.6134
 -85.612
 -85.5325
 -85.5321
 -85.5338
 -85.5327
 -85.6434
 -85.6427
 -85.6431
 -85.6442
 -85.5441
 -85.5445
 -85.545
 -85.5445
 -85.4901
 -85.4974
 -85.4967
 -85.4943
 -85.511
 -85.5107
 -85.5137
 -85.513
 -85.6389
 -85.6381
 -85.6373
 -85.6368
 -85.6313
 -85.6309
 -85.6322
 -85.6325
 -85.5733
 -85.5759
 -85.5751
 -85.5759
 -85.5463
 -85.5457
 -85.5476
 -85.5807
 -85.5808
 -85.5768
 -85.5784
 -85.5975
 -85.5961
 -85.5993
 -85.5993
 -85.5797
 -85.5849
 -85.5832
 -85.5827
 -85.5759
 -85.577
 -85.581
 -85.5788
 -85.6369
 -85.6354
 -85.6356
 -85.6348
 -85.5372
 -85.5365
 -85.5397
 -85.5373
 -85.5114
 -85.5062
 -85.5066
 -85.6042
 -85.6021
 -85.6033
 -85.6023
 -85.6206
 -85.6227
 -85.6211
 -85.6205
 -85.5416
 -85.5405
 -85.5422
 -85.538
 -85.5385
 -85.5397
 -85.5363
 -85.6239
 -85.6227
 -85.6247
 -85.6214
 -85.5693
 -85.5689
 -85.5712
 -85.5691
 -85.539
 -85.5358
 -85.5383
 -85.5385
 -85.561
 -85.5594
 -85.5597
 -85.5617
 -85.6155
 -85.6152
 -85.6132
 -85.6152
 -85.5401
 -85.544
 -85.5381
 -85.5433
 -85.5638
 -85.5595
 -85.5609
 -85.5622
 -85.5504
 -85.5529
 -85.5508
 -85.6312
 -85.6308
 -85.6294
 -85.6299
 -85.5699
 -85.5704
 -85.5683
 -85.5714
 -85.6391
 -85.6386
 -85.6412
 -85.579
 -85.5803
 -85.58
 -85.5789
 -85.5168
 -85.5192
 -85.5152
 -85.5163
 -85.5881
 -85.5888
 -85.5907
 -85.5929
 -85.5745
 -85.5781
 -85.5734
 -85.5428
 -85.5437
 -85.5462
 -85.5442
 -85.5313
 -85.532
 -85.5306
 -85.5325
 -85.5424
 -85.5437
 -85.5457
 -85.5419
 -85.4879
 -85.4881
 -85.4921
 -85.4925
 -85.5559
 -85.5551
 -85.5538
 -85.5537
 -85.5507
 -85.5496
 -85.5536
 -85.549
 -85.6249
 -85.6221
 -85.6226
 -85.6261
 -85.5275
 -85.5313
 -85.5301
 -85.5292
 -85.5956
 -85.5943
 -85.5963
 -85.5971
 -85.6328
 -85.6331
 -85.6318
 -85.6309
 -85.6335
 -85.631
 -85.6323
 -85.6331
 -85.6128
 -85.6145
 -85.6127
 -85.6139
 -85.6348
 -85.6369
 -85.6368
 -85.6332
 -85.6262
 -85.6267
 -85.6265
 -85.6393
 -85.6362
 -85.6373
 -85.6372
 -85.5222
 -85.5207
 -85.5219
 -85.5198
 -85.5604
 -85.5576
 -85.5563
 -85.558
 -85.5512
 -85.5546
 -85.5522
 -85.5549
 -85.5561
 -85.5548
 -85.5544
 -85.5537
 -85.629
 -85.6271
 -85.6284
 -85.6291
 -85.5604
 -85.5606
 -85.558
 -85.5568
 -85.5428
 -85.5396
 -85.5396
 -85.5418
 -85.5992
 -85.5984
 -85.6013
 -85.5977
 -85.5451
 -85.5481
 -85.545
 -85.5469
 -85.6055
 -85.6035
 -85.6032
 -85.5802
 -85.5831
 -85.5831
 -85.6226
 -85.6203
 -85.6211
 -85.6214
 -85.5612
 -85.5623
 -85.5602
 -85.5602
 -85.5934
 -85.5911
 -85.5918
 -85.5938
 -85.5547
 -85.5511
 -85.553
 -85.5554
 -85.6396
 -85.6387
 -85.6333
 -85.6324
 -85.6315
 -85.6338
 -85.5183
 -85.5176
 -85.5177
 -85.5163
 -85.5945
 -85.5967
 -85.5971
 -85.5988
 -85.5424
 -85.546
 -85.5433
 -85.5411
 -85.4557
 -85.4499
 -85.4551
 -85.4533
 -85.5452
 -85.5442
 -85.5424
 -85.544
 -85.6042
 -85.6018
 -85.6038
 -85.5281
 -85.5276
 -85.531
 -85.5308
 -85.6317
 -85.6297
 -85.6323
 -85.6305
 -85.546
 -85.5471
 -85.5461
 -85.5473
 -85.5931
 -85.5955
 -85.5941
 -85.5934
 -85.5183
 -85.5197
 -85.5163
 -85.5186
 -85.4782
 -85.4778
 -85.4798
 -85.4808
 -85.5401
 -85.5422
 -85.5399
 -85.5393
 -85.5576
 -85.5564
 -85.5586
 -85.583
 -85.579
 -85.5835
 -85.5818
 -85.5337
 -85.5336
 -85.5303
 -85.6058
 -85.6049
 -85.6064
 -85.608
 -85.6132
 -85.6169
 -85.6135
 -85.6165
 -85.6018
 -85.5994
 -85.6015
 -85.6017
 -85.63
 -85.6255
 -85.6273
 -85.6278
 -85.6108
 -85.6087
 -85.6098
 -85.5493
 -85.5512
 -85.5509
 -85.5523
 -85.6077
 -85.6055
 -85.5979
 -85.595
 -85.5942
 -85.5967
 -85.604
 -85.6029
 -85.6032
 -85.6048
 -85.5413
 -85.5429
 -85.5421
 -85.5393
 -85.5434
 -85.5455
 -85.5433
 -85.5453
 -85.4568
 -85.4591
 -85.4598
 -85.4581
 -85.5431
 -85.5449
 -85.543
 -85.55
 -85.5487
 -85.5482
 -85.5492
 -85.5738
 -85.5736
 -85.572
 -85.5715
 -85.5503
 -85.5533
 -85.5536
 -85.5515
 -85.5186
 -85.5204
 -85.5184
 -85.5181
 -85.6136
 -85.6107
 -85.6133
 -85.611
 -85.5721
 -85.5742
 -85.5718
 -85.5702
 -85.6293
 -85.6294
 -85.6286
 -85.6297
 -85.586
 -85.5835
 -85.5858
 -85.5843
 -85.6275
 -85.6283
 -85.6277
 -85.4841
 -85.4874
 -85.4859
 -85.4865
 -85.6023
 -85.606
 -85.6029
 -85.6032
 -85.565
 -85.5625
 -85.5655
 -85.5641
 -85.5364
 -85.5346
 -85.5536
 -85.5541
 -85.5556
 -85.5548
 -85.5635
 -85.5604
 -85.5614
 -85.6238
 -85.6245
 -85.6228
 -85.6242
 -85.6247
 -85.6235
 -85.6216
 -85.6227
 -85.5368
 -85.5358
 -85.5373
 -85.5363
 -85.5699
 -85.5687
 -85.5453
 -85.5483
 -85.5464
 -85.544
 -85.6084
 -85.6069
 -85.6105
 -85.6105
 -85.5159
 -85.5157
 -85.5154
 -85.5166
 -85.5401
 -85.5413
 -85.539
 -85.5388
 -85.5451
 -85.5478
 -85.5491
 -85.5478
 -85.5783
 -85.5777
 -85.5783
 -85.5818
 -85.6063
 -85.6058
 -85.6043
 -85.6045
 -85.6107
 -85.6082
 -85.6065
 -85.6091
 -85.4696
 -85.469
 -85.4681
 -85.4668
 -85.529
 -85.5315
 -85.5325
 -85.5834
 -85.5789
 -85.5815
 -85.5868
 -85.5895
 -85.5867
 -85.5897
 -85.6277
 -85.629
 -85.628
 -85.6297
 -85.5694
 -85.5438
 -85.5436
 -85.5404
 -85.5415
 -85.5948
 -85.5931
 -85.5908
 -85.5922
 -85.6125
 -85.61
 -85.6105
 -85.6131
 -85.6209
 -85.6215
 -85.5371
 -85.5362
 -85.5349
 -85.5344
 -85.5749
 -85.5772
 -85.5762
 -85.5777
 -85.5299
 -85.5292
 -85.5297
 -85.5306
 -85.5877
 -85.5572
 -85.5551
 -85.5598
 -85.561
 -85.5516
 -85.5536
 -85.5545
 -85.553
 -85.6287
 -85.626
 -85.632
 -85.6334
 -85.6337
 -85.6326
 -85.499
 -85.4971
 -85.498
 -85.4994
 -85.6098
 -85.6104
 -85.6074
 -85.6115
 -85.5878
 -85.5842
 -85.5853
 -85.5881
 -85.4756
 -85.4767
 -85.4768
 -85.4746
 -85.5738
 -85.5739
 -85.5752
 -85.5723
 -85.5716
 -85.5684
 -85.5668
 -85.5674
 -85.5344
 -85.5312
 -85.5349
 -85.5336
 -85.6381
 -85.6393
 -85.6396
 -85.6396
 -85.5683
 -85.5654
 -85.5658
 -85.5477
 -85.5508
 -85.5506
 -85.548
 -85.6342
 -85.637
 -85.6351
 -85.6356
 -85.5479
 -85.5462
 -85.5437
 -85.549
 -85.5641
 -85.5661
 -85.6162
 -85.6166
 -85.6184
 -85.6144
 -85.583
 -85.5831
 -85.5863
 -85.5858
 -85.6311
 -85.6297
 -85.6315
 -85.6308
 -85.5672
 -85.5714
 -85.5416
 -85.5427
 -85.5434
 -85.5432
 -85.5482
 -85.5483
 -85.55
 -85.551
 -85.619
 -85.6189
 -85.6162
 -85.6171
 -85.6125
 -85.6116
 -85.6132
 -85.6134
 -85.6083
 -85.605
 -85.6082
 -85.6068
 -85.5508
 -85.5542
 -85.5527
 -85.5507
 -85.4996
 -85.4976
 -85.499
 -85.4997
 -85.6342
 -85.636
 -85.6342
 -85.635
 -85.5331
 -85.5336
 -85.5341
 -85.5359
 -85.5807
 -85.5824
 -85.5836
 -85.5809
 -85.5546
 -85.5594
 -85.5561
 -85.5578
 -85.5801
 -85.5768
 -85.5795
 -85.5928
 -85.5959
 -85.5927
 -85.596
 -85.5738
 -85.5761
 -85.5744
 -85.5725
 -85.6027
 -85.6036
 -85.6057
 -85.6021
 -85.6024
 -85.6018
 -85.6029
 -85.5989
 -85.4749
 -85.4802
 -85.4754
 -85.5186
 -85.522
 -85.5231
 -85.5219
 -85.5799
 -85.5778
 -85.5787
 -85.5785
 -85.6172
 -85.6191
 -85.6178
 -85.6197
 -85.542
 -85.5385
 -85.5419
 -85.5466
 -85.548
 -85.5481
 -85.5895
 -85.5884
 -85.5903
 -85.5903
 -85.579
 -85.5812
 -85.5824
 -85.5827
 -85.6448
 -85.6446
 -85.6439
 -85.6451
 -85.5108
 -85.5119
 -85.5098
 -85.5058
 -85.6068
 -85.6082
 -85.5587
 -85.5621
 -85.562
 -85.5594
 -85.6007
 -85.6021
 -85.602
 -85.6027
 -85.5855
 -85.5863
 -85.5882
 -85.5866
 -85.5629
 -85.5626
 -85.5653
 -85.5606
 -85.5978
 -85.6002
 -85.5991
 -85.5998
 -85.5371
 -85.538
 -85.5381
 -85.5399
 -85.5269
 -85.5251
 -85.5273
 -85.5262
 -85.614
 -85.6149
 -85.6174
 -85.6201
 -85.5791
 -85.5808
 -85.5828
 -85.4923
 -85.4913
 -85.4934
 -85.6204
 -85.622
 -85.6224
 -85.6229
 -85.6244
 -85.6236
 -85.6224
 -85.622
 -85.5739
 -85.5747
 -85.5757
 -85.5767
 -85.628
 -85.6293
 -85.6292
 -85.629
 -85.6306
 -85.6328
 -85.631
 -85.6333
 -85.5627
 -85.564
 -85.5663
 -85.5634
 -85.6107
 -85.6119
 -85.613
 -85.6128
 -85.6438
 -85.644
 -85.6432
 -85.6446
 -85.6102
 -85.6099
 -85.6087
 -85.6119
 -85.5816
 -85.5783
 -85.5797
 -85.5768
 -85.6184
 -85.6189
 -85.6174
 -85.6167
 -85.6023
 -85.6015
 -85.6036
 -85.5902
 -85.5926
 -85.5024
 -85.5035
 -85.5017
 -85.5007
 -85.5887
 -85.5915
 -85.5905
 -85.5904
 -85.5043
 -85.5052
 -85.5057
 -85.506
 -85.5043
 -85.5034
 -85.5074
 -85.5075
 -85.5838
 -85.5854
 -85.5854
 -85.5831
 -85.5582
 -85.5584
 -85.5559
 -85.5591
 -85.5936
 -85.5965
 -85.5957
 -85.5954
 -85.577
 -85.5749
 -85.523
 -85.5217
 -85.5223
 -85.5244
 -85.6341
 -85.6351
 -85.6358
 -85.6349
 -85.5593
 -85.5576
 -85.5621
 -85.56
 -85.6182
 -85.6172
 -85.6155
 -85.6172
 -85.5236
 -85.5211
 -85.5233
 -85.522
 -85.625
 -85.6276
 -85.6271
 -85.6273
 -85.589
 -85.5858
 -85.5885
 -85.5885
 -85.5438
 -85.5405
 -85.5383
 -85.54
 -85.6434
 -85.6429
 -85.6429
 -85.6422
 -85.5521
 -85.5549
 -85.5525
 -85.5523
 -85.5624
 -85.5585
 -85.5614
 -85.5589
 -85.6359
 -85.6362
 -85.6347
 -85.6367
 -85.5737
 -85.5697
 -85.5712
 -85.5712
 -85.6199
 -85.6214
 -85.6202
 -85.6197
 -85.6172
 -85.6155
 -85.6161
 -85.5648
 -85.5604
 -85.5618
 -85.5621
 -85.6175
 -85.6194
 -85.618
 -85.6188
 -85.535
 -85.5376
 -85.5372
 -85.535
 -85.6238
 -85.6251
 -85.625
 -85.6243
 -85.6227
 -85.6219
 -85.623
 -85.6222
 -85.5385
 -85.5378
 -85.5425
 -85.54
 -85.5419
 -85.5413
 -85.5438
 -85.5401
 -85.4429
 -85.4436
 -85.4414
 -85.4421
 -85.6082
 -85.6054
 -85.6057
 -85.5051
 -85.509
 -85.5098
 -85.5073
 -85.6322
 -85.6304
 -85.6309
 -85.631
 -85.5366
 -85.6192
 -85.6167
 -85.617
 -85.6187
 -85.6196
 -85.617
 -85.6176
 -85.4676
 -85.4647
 -85.4661
 -85.4672
 -85.4613
 -85.4626
 -85.4613
 -85.4603
 -85.63
 -85.628
 -85.6295
 -85.631
 -85.5416
 -85.5405
 -85.5427
 -85.5399
 -85.6013
 -85.6004
 -85.6029
 -85.5541
 -85.5517
 -85.554
 -85.5506
 -85.5652
 -85.5653
 -85.5649
 -85.6183
 -85.6177
 -85.6207
 -85.5883
 -85.5907
 -85.5906
 -85.5885
 -85.5555
 -85.5523
 -85.5526
 -85.5548
 -85.5399
 -85.5411
 -85.5396
 -85.5407
 -85.6017
 -85.6034
 -85.6037
 -85.52
 -85.522
 -85.5172
 -85.5168
 -85.5398
 -85.5446
 -85.5408
 -85.5619
 -85.5667
 -85.5654
 -85.564
 -85.533
 -85.5358
 -85.536
 -85.5349
 -85.5403
 -85.5433
 -85.544
 -85.5431
 -85.62
 -85.6181
 -85.6186
 -85.6183
 -85.5687
 -85.5663
 -85.5676
 -85.5695
 -85.5481
 -85.5483
 -85.5811
 -85.5794
 -85.5804
 -85.5776
 -85.6265
 -85.6329
 -85.6335
 -85.6332
 -85.6329
 -85.4386
 -85.4381
 -85.4379
 -85.4388
 -85.614
 -85.6166
 -85.6147
 -85.6393
 -85.639
 -85.6382
 -85.6391
 -85.6089
 -85.6057
 -85.607
 -85.606
 -85.5385
 -85.5394
 -85.541
 -85.5387
 -85.5663
 -85.5641
 -85.5637
 -85.5627
 -85.6406
 -85.6406
 -85.6402
 -85.6398
 -85.6082
 -85.6062
 -85.6047
 -85.6067
 -85.5184
 -85.516
 -85.5156
 -85.5203
 -85.5622
 -85.5622
 -85.563
 -85.5583
 -85.5595
 -85.5609
 -85.5621
 -85.5596
 -85.4388
 -85.4383
 -85.4383
 -85.4389
 -85.5348
 -85.5343
 -85.5337
 -85.5357
 -85.6088
 -85.612
 -85.6092
 -85.6104
 -85.59
 -85.5897
 -85.5926
 -85.5891
 -85.5696
 -85.5711
 -85.5739
 -85.5712
 -85.6043
 -85.6071
 -85.6059
 -85.6062
 -85.5904
 -85.5908
 -85.5931
 -85.5903
 -85.6051
 -85.6046
 -85.6032
 -85.6074
 -85.6435
 -85.6413
 -85.6419
 -85.6438
 -85.613
 -85.6114
 -85.611
 -85.6076
 -85.6022
 -85.6002
 -85.5991
 -85.602
 -85.5997
 -85.5809
 -85.5806
 -85.5788
 -85.5835
 -85.6334
 -85.6328
 -85.6323
 -85.6322
 -85.5691
 -85.567
 -85.5696
 -85.5686
 -85.5885
 -85.5897
 -85.591
 -85.5867
 -85.5764
 -85.5732
 -85.5756
 -85.5781
 -85.5548
 -85.5505
 -85.554
 -85.5512
 -85.4848
 -85.4863
 -85.4907
 -85.4853
 -85.6448
 -85.6429
 -85.5977
 -85.5961
 -85.596
 -85.4496
 -85.4498
 -85.4499
 -85.5451
 -85.5428
 -85.5441
 -85.5417
 -85.5031
 -85.5041
 -85.499
 -85.4985
 -85.5293
 -85.5277
 -85.53
 -85.5255
 -85.6328
 -85.6297
 -85.6313
 -85.6312
 -85.5822
 -85.5792
 -85.58
 -85.5788
 -85.6003
 -85.6034
 -85.6029
 -85.6054
 -85.5898
 -85.59
 -85.5873
 -85.5862
 -85.6063
 -85.607
 -85.6051
 -85.6055
 -85.5721
 -85.5718
 -85.6187
 -85.6134
 -85.6187
 -85.6143
 -85.6063
 -85.6046
 -85.6033
 -85.6076
 -85.5438
 -85.5407
 -85.5443
 -85.5412
 -85.5452
 -85.5462
 -85.5461
 -85.5464
 -85.5873
 -85.5874
 -85.5865
 -85.5885
 -85.5823
 -85.5835
 -85.5854
 -85.5872
 -85.5299
 -85.526
 -85.5255
 -85.53
 -85.6034
 -85.6019
 -85.6011
 -85.6005
 -85.6415
 -85.6405
 -85.6412
 -85.6408
 -85.6218
 -85.6205
 -85.6209
 -85.62
 -85.6436
 -85.6443
 -85.6432
 -85.6445
 -85.6251
 -85.627
 -85.6264
 -85.6267
 -85.5795
 -85.583
 -85.5796
 -85.5804
 -85.6026
 -85.6004
 -85.5738
 -85.5771
 -85.573
 -85.5752
 -85.5444
 -85.5466
 -85.5467
 -85.5476
 -85.6124
 -85.6149
 -85.615
 -85.6127
 -85.5726
 -85.5714
 -85.5727
 -85.5696
 -85.563
 -85.5608
 -85.56
 -85.5613
 -85.5388
 -85.5393
 -85.5407
 -85.5423
 -85.5485
 -85.5475
 -85.5466
 -85.551
 -85.5392
 -85.5408
 -85.5418
 -85.54
 -85.4903
 -85.4913
 -85.4892
 -85.4895
 -85.6097
 -85.6107
 -85.6078
 -85.61
 -85.5989
 -85.5997
 -85.495
 -85.4974
 -85.4969
 -85.493
 -85.5534
 -85.554
 -85.596
 -85.5942
 -85.5962
 -85.6218
 -85.6218
 -85.5344
 -85.5343
 -85.5331
 -85.5358
 -85.4945
 -85.4967
 -85.4967
 -85.4974
 -85.5277
 -85.5288
 -85.5308
 -85.5316
 -85.5526
 -85.5542
 -85.5552
 -85.5559
 -85.5912
 -85.5879
 -85.5878
 -85.5882
 -85.5993
 -85.5981
 -85.5978
 -85.5972
 -85.5516
 -85.5547
 -85.5546
 -85.5539
 -85.5888
 -85.5884
 -85.5895
 -85.5856
 -85.5779
 -85.5758
 -85.5753
 -85.5768
 -85.5826
 -85.5847
 -85.5862
 -85.5848
 -85.5843
 -85.5809
 -85.5848
 -85.5732
 -85.5714
 -85.5756
 -85.5739
 -85.5574
 -85.5586
 -85.5555
 -85.5565
 -85.5414
 -85.5437
 -85.5401
 -85.5433
 -85.6323
 -85.6318
 -85.633
 -85.634
 -85.5682
 -85.568
 -85.5708
 -85.5709
 -85.5262
 -85.5257
 -85.5226
 -85.5252
 -85.5186
 -85.5182
 -85.5178
 -85.5167
 -85.5311
 -85.5296
 -85.5297
 -85.5305
 -85.5385
 -85.5383
 -85.5416
 -85.5421
 -85.5413
 -85.5396
 -85.5388
 -85.54
 -85.6301
 -85.6313
 -85.631
 -85.6313
 -85.5641
 -85.5641
 -85.5634
 -85.5663
 -85.6079
 -85.6088
 -85.6073
 -85.6064
 -85.5413
 -85.5445
 -85.5402
 -85.5433
 -85.6341
 -85.6351
 -85.6348
 -85.6366
 -85.6369
 -85.6368
 -85.6381
 -85.6045
 -85.5992
 -85.601
 -85.6013
 -85.5475
 -85.5486
 -85.5457
 -85.5476
 -85.641
 -85.6391
 -85.6395
 -85.5612
 -85.5586
 -85.5603
 -85.5563
 -85.6248
 -85.6252
 -85.6213
 -85.6221
 -85.6242
 -85.6216
 -85.5563
 -85.5542
 -85.5553
 -85.5195
 -85.5206
 -85.517
 -85.5185
 -85.5401
 -85.5379
 -85.5409
 -85.5413
 -85.5776
 -85.5808
 -85.5771
 -85.6345
 -85.6313
 -85.6317
 -85.6055
 -85.6031
 -85.6019
 -85.6034
 -85.6352
 -85.6354
 -85.6326
 -85.6372
 -85.565
 -85.568
 -85.5695
 -85.5671
 -85.6242
 -85.6248
 -85.626
 -85.6226
 -85.579
 -85.5796
 -85.5775
 -85.5765
 -85.5493
 -85.5467
 -85.5482
 -85.6396
 -85.638
 -85.6388
 -85.641
 -85.5995
 -85.5896
 -85.5927
 -85.5921
 -85.5904
 -85.5926
 -85.5926
 -85.5906
 -85.5471
 -85.5457
 -85.5454
 -85.5452
 -85.5451
 -85.5485
 -85.5672
 -85.564
 -85.5636
 -85.5628
 -85.5631
 -85.5666
 -85.5638
 -85.5658
 -85.6038
 -85.6415
 -85.6392
 -85.6386
 -85.6403
 -85.4748
 -85.4711
 -85.474
 -85.474
 -85.5552
 -85.553
 -85.5477
 -85.5467
 -85.5479
 -85.5486
 -85.5451
 -85.5454
 -85.5419
 -85.5432
 -85.6075
 -85.6047
 -85.6054
 -85.6067
 -85.6102
 -85.6118
 -85.6086
 -85.6105
 -85.5489
 -85.5463
 -85.6011
 -85.6009
 -85.6043
 -85.6022
 -85.6037
 -85.6061
 -85.6037
 -85.5857
 -85.584
 -85.5825
 -85.5814
 -85.5685
 -85.5658
 -85.5679
 -85.5659
 -85.6084
 -85.6115
 -85.6111
 -85.6091
 -85.6165
 -85.6175
 -85.6189
 -85.617
 -85.6117
 -85.6144
 -85.6122
 -85.6102
 -85.6111
 -85.6105
 -85.6082
 -85.5669
 -85.5679
 -85.5678
 -85.5658
 -85.5101
 -85.5101
 -85.5119
 -85.512
 -85.5589
 -85.5582
 -85.5569
 -85.5576
 -85.6159
 -85.6138
 -85.6124
 -85.6146
 -85.6
 -85.5994
 -85.5989
 -85.6018
 -85.5581
 -85.5599
 -85.5606
 -85.5612
 -85.6005
 -85.5977
 -85.5993
 -85.6003
 -85.5843
 -85.5853
 -85.5807
 -85.5849
 -85.5858
 -85.5886
 -85.5876
 -85.588
 -85.5997
 -85.6009
 -85.6012
 -85.6326
 -85.6329
 -85.632
 -85.6324
 -85.5576
 -85.5603
 -85.5589
 -85.5597
 -85.5753
 -85.5783
 -85.5777
 -85.5768
 -85.5101
 -85.5079
 -85.5083
 -85.5114
 -85.5382
 -85.5403
 -85.5401
 -85.5384
 -85.5426
 -85.5377
 -85.5398
 -85.5372
 -85.5378
 -85.5391
 -85.5387
 -85.5399
 -85.5831
 -85.5813
 -85.5822
 -85.5285
 -85.5281
 -85.5293
 -85.5296
 -85.533
 -85.5341
 -85.5366
 -85.5327
 -85.6392
 -85.6378
 -85.6376
 -85.6385
 -85.5853
 -85.5835
 -85.583
 -85.5818
 -85.6183
 -85.6185
 -85.6175
 -85.616
 -85.5904
 -85.5916
 -85.5896
 -85.5879
 -85.599
 -85.6011
 -85.5993
 -85.5999
 -85.5457
 -85.5431
 -85.5446
 -85.5409
 -85.5749
 -85.5802
 -85.5764
 -85.5767
 -85.6174
 -85.6187
 -85.6166
 -85.6173
 -85.5929
 -85.592
 -85.5952
 -85.5942
 -85.5341
 -85.5331
 -85.5368
 -85.5374
 -85.6321
 -85.6329
 -85.6324
 -85.633
 -85.559
 -85.5564
 -85.5323
 -85.5759
 -85.5773
 -85.5788
 -85.5751
 -85.5682
 -85.5704
 -85.5672
 -85.5671
 -85.4994
 -85.4988
 -85.5025
 -85.5547
 -85.5523
 -85.5515
 -85.5499
 -85.5907
 -85.5952
 -85.5935
 -85.5957
 -85.5782
 -85.5806
 -85.5791
 -85.5783
 -85.6277
 -85.6286
 -85.6287
 -85.6281
 -85.5404
 -85.5444
 -85.5415
 -85.544
 -85.5438
 -85.5431
 -85.5469
 -85.5026
 -85.4981
 -85.5003
 -85.5027
 -85.5389
 -85.5421
 -85.54
 -85.5886
 -85.5942
 -85.5894
 -85.5382
 -85.538
 -85.5358
 -85.5369
 -85.5681
 -85.5711
 -85.5718
 -85.5713
 -85.439
 -85.439
 -85.439
 -85.4405
 -85.5657
 -85.5645
 -85.5651
 -85.5258
 -85.5255
 -85.5259
 -85.5261
 -85.565
 -85.5637
 -85.5608
 -85.5634
 -85.5363
 -85.5387
 -85.5386
 -85.5397
 -85.6017
 -85.6027
 -85.601
 -85.6034
 -85.6087
 -85.6069
 -85.6088
 -85.6097
 -85.6369
 -85.6369
 -85.6376
 -85.6361
 -85.5865
 -85.5831
 -85.5862
 -85.5871
 -85.5348
 -85.5325
 -85.5345
 -85.5332
 -85.5473
 -85.5459
 -85.5156
 -85.5155
 -85.5169
 -85.5167
 -85.5715
 -85.5727
 -85.5546
 -85.559
 -85.5581
 -85.5441
 -85.5456
 -85.547
 -85.5451
 -85.6315
 -85.6319
 -85.6291
 -85.6296
 -85.6296
 -85.6289
 -85.628
 -85.6291
 -85.5456
 -85.5469
 -85.5452
 -85.5424
 -85.5285
 -85.5292
 -85.5912
 -85.5916
 -85.5909
 -85.5936
 -85.5433
 -85.5419
 -85.5446
 -85.5441
 -85.5588
 -85.5551
 -85.5615
 -85.6439
 -85.6444
 -85.6432
 -85.5782
 -85.5817
 -85.58
 -85.5804
 -85.6229
 -85.6254
 -85.6223
 -85.6215
 -85.5823
 -85.585
 -85.5855
 -85.5822
 -85.6077
 -85.6099
 -85.6102
 -85.6065
 -85.5342
 -85.5363
 -85.5346
 -85.5336
 -85.5404
 -85.5442
 -85.5393
 -85.5431
 -85.5838
 -85.581
 -85.5858
 -85.5825
 -85.556
 -85.5594
 -85.5603
 -85.5556
 -85.5323
 -85.5332
 -85.5346
 -85.5371
 -85.5686
 -85.57
 -85.5719
 -85.5733
 -85.5971
 -85.5977
 -85.5959
 -85.582
 -85.5845
 -85.5829
 -85.5845
 -85.4545
 -85.4583
 -85.4594
 -85.4573
 -85.5291
 -85.529
 -85.5295
 -85.5293
 -85.5545
 -85.5538
 -85.5544
 -85.5572
 -85.4928
 -85.4954
 -85.4909
 -85.4939
 -85.6225
 -85.6221
 -85.6205
 -85.6384
 -85.6374
 -85.6363
 -85.6372
 -85.6116
 -85.6157
 -85.6138
 -85.6139
 -85.5811
 -85.5966
 -85.5996
 -85.6008
 -85.5986
 -85.5751
 -85.5772
 -85.5736
 -85.5739
 -85.5262
 -85.5227
 -85.5247
 -85.5431
 -85.5443
 -85.5451
 -85.5408
 -85.4571
 -85.4536
 -85.4568
 -85.4519
 -85.5001
 -85.4999
 -85.5016
 -85.4996
 -85.5523
 -85.5522
 -85.5542
 -85.5561
 -85.6404
 -85.6382
 -85.6389
 -85.6385
 -85.4655
 -85.4651
 -85.4687
 -85.467
 -85.6048
 -85.6067
 -85.6031
 -85.6053
 -85.5822
 -85.5825
 -85.5852
 -85.5827
 -85.5459
 -85.5409
 -85.5407
 -85.5713
 -85.568
 -85.5673
 -85.5673
 -85.6387
 -85.639
 -85.6395
 -85.5286
 -85.5336
 -85.5345
 -85.5672
 -85.5691
 -85.572
 -85.5715
 -85.5532
 -85.5525
 -85.5519
 -85.5509
 -85.5568
 -85.5563
 -85.5594
 -85.5602
 -85.5252
 -85.5233
 -85.5234
 -85.5268
 -85.5714
 -85.5734
 -85.5703
 -85.5739
 -85.632
 -85.6287
 -85.6288
 -85.6273
 -85.6275
 -85.6268
 -85.626
 -85.6284
 -85.5202
 -85.5202
 -85.5211
 -85.5196
 -85.6205
 -85.6211
 -85.6208
 -85.6185
 -85.6298
 -85.6322
 -85.6314
 -85.629
 -85.6195
 -85.6195
 -85.6167
 -85.6172
 -85.5974
 -85.5965
 -85.5986
 -85.5975
 -85.5771
 -85.575
 -85.5783
 -85.5524
 -85.548
 -85.5496
 -85.5502
 -85.6095
 -85.6078
 -85.6058
 -85.6087
 -85.613
 -85.6135
 -85.615
 -85.6143
 -85.6451
 -85.645
 -85.6434
 -85.6442
 -85.5005
 -85.5027
 -85.5019
 -85.5024
 -85.5167
 -85.5155
 -85.516
 -85.5174
 -85.5254
 -85.5252
 -85.5292
 -85.525
 -85.5543
 -85.5504
 -85.5532
 -85.5531
 -85.5598
 -85.5601
 -85.5599
 -85.6312
 -85.6327
 -85.6346
 -85.6335
 -85.6158
 -85.615
 -85.6137
 -85.6133
 -85.574
 -85.572
 -85.5712
 -85.573
 -85.6285
 -85.6301
 -85.5906
 -85.5909
 -85.5908
 -85.5882
 -85.6274
 -85.6284
 -85.6303
 -85.6284
 -85.5854
 -85.5888
 -85.5846
 -85.5894
 -85.5516
 -85.554
 -85.5494
 -85.5515
 -85.5141
 -85.5114
 -85.5136
 -85.5163
 -85.4531
 -85.4562
 -85.4515
 -85.4548
 -85.6239
 -85.6226
 -85.6224
 -85.6242
 -85.6278
 -85.628
 -85.6283
 -85.6297
 -85.5648
 -85.561
 -85.5637
 -85.5618
 -85.5808
 -85.5793
 -85.5789
 -85.5811
 -85.541
 -85.5384
 -85.5428
 -85.5923
 -85.5904
 -85.5907
 -85.5891
 -85.5418
 -85.5412
 -85.5428
 -85.5433
 -85.5759
 -85.5729
 -85.5709
 -85.5726
 -85.599
 -85.5975
 -85.5985
 -85.5992
 -85.5828
 -85.5819
 -85.5808
 -85.6206
 -85.6181
 -85.6192
 -85.6191
 -85.5945
 -85.5979
 -85.4888
 -85.4931
 -85.4875
 -85.49
 -85.6102
 -85.6088
 -85.6099
 -85.546
 -85.5468
 -85.5471
 -85.5457
 -85.5946
 -85.5947
 -85.5936
 -85.5754
 -85.5724
 -85.5759
 -85.5737
 -85.5927
 -85.5892
 -85.594
 -85.5915
 -85.5946
 -85.5978
 -85.4719
 -85.472
 -85.4699
 -85.4715
 -85.4569
 -85.4537
 -85.4517
 -85.4551
 -85.5782
 -85.5748
 -85.576
 -85.5746
 -85.5919
 -85.5901
 -85.5917
 -85.5896
 -85.4726
 -85.4724
 -85.4727
 -85.4754
 -85.5451
 -85.5419
 -85.5222
 -85.523
 -85.5237
 -85.5261
 -85.5956
 -85.5949
 -85.5985
 -85.5966
 -85.59
 -85.5904
 -85.5929
 -85.5888
 -85.5931
 -85.5902
 -85.5897
 -85.59
 -85.5539
 -85.5546
 -85.5565
 -85.5539
 -85.5343
 -85.5327
 -85.5303
 -85.5346
 -85.5042
 -85.5078
 -85.5074
 -85.5041
 -85.5365
 -85.5365
 -85.5366
 -85.5409
 -85.6098
 -85.6081
 -85.6107
 -85.6096
 -85.5782
 -85.5716
 -85.5751
 -85.4965
 -85.4988
 -85.5011
 -85.6012
 -85.605
 -85.6031
 -85.6031
 -85.6033
 -85.5992
 -85.6011
 -85.6023
 -85.5652
 -85.5632
 -85.5621
 -85.57
 -85.5711
 -85.5738
 -85.5711
 -85.5355
 -85.534
 -85.5335
 -85.5336
 -85.6193
 -85.6185
 -85.6203
 -85.6197
 -85.5309
 -85.5304
 -85.5305
 -85.5314
 -85.5262
 -85.5247
 -85.5263
 -85.6371
 -85.6397
 -85.6407
 -85.639
 -85.618
 -85.6196
 -85.5496
 -85.5481
 -85.551
 -85.5505
 -85.5761
 -85.5794
 -85.5764
 -85.5702
 -85.5691
 -85.5695
 -85.5666
 -85.5322
 -85.5349
 -85.5334
 -85.6174
 -85.6189
 -85.6158
 -85.6165
 -85.5311
 -85.5354
 -85.5324
 -85.5316
 -85.6056
 -85.6034
 -85.6019
 -85.6027
 -85.5319
 -85.533
 -85.535
 -85.5318
 -85.534
 -85.533
 -85.5465
 -85.5448
 -85.5456
 -85.5465
 -85.5017
 -85.5001
 -85.497
 -85.5
 -85.6108
 -85.6132
 -85.5571
 -85.5588
 -85.5593
 -85.5591
 -85.6372
 -85.6366
 -85.6369
 -85.6378
 -85.5527
 -85.5504
 -85.5538
 -85.5565
 -85.6147
 -85.6171
 -85.6177
 -85.6175
 -85.628
 -85.6304
 -85.6269
 -85.6295
 -85.6051
 -85.6021
 -85.6325
 -85.6341
 -85.6335
 -85.6329
 -85.5326
 -85.5327
 -85.5315
 -85.5348
 -85.6329
 -85.6333
 -85.6335
 -85.6327
 -85.6392
 -85.6413
 -85.6405
 -85.6393
 -85.5886
 -85.5887
 -85.5914
 -85.5905
 -85.5704
 -85.569
 -85.5724
 -85.574
 -85.625
 -85.6223
 -85.6242
 -85.6251
 -85.4926
 -85.4963
 -85.4935
 -85.4921
 -85.6236
 -85.6265
 -85.5559
 -85.5582
 -85.5583
 -85.5613
 -85.6238
 -85.6226
 -85.6207
 -85.6208
 -85.5362
 -85.5388
 -85.5384
 -85.5381
 -85.5603
 -85.5557
 -85.5574
 -85.5597
 -85.5379
 -85.5369
 -85.5411
 -85.535
 -85.5336
 -85.535
 -85.5328
 -85.5293
 -85.5313
 -85.5305
 -85.5316
 -85.5909
 -85.5887
 -85.5879
 -85.6215
 -85.6216
 -85.6234
 -85.6235
 -85.5841
 -85.5825
 -85.5812
 -85.5355
 -85.5337
 -85.5352
 -85.5761
 -85.58
 -85.5765
 -85.5791
 -85.5948
 -85.5945
 -85.5947
 -85.5979
 -85.5673
 -85.5704
 -85.5709
 -85.5698
 -85.5657
 -85.5646
 -85.5634
 -85.5594
 -85.5575
 -85.5569
 -85.5606
 -85.5626
 -85.5642
 -85.5594
 -85.6223
 -85.6215
 -85.6224
 -85.6203
 -85.6012
 -85.5994
 -85.6011
 -85.6021
 -85.5713
 -85.5717
 -85.5702
 -85.5747
 -85.5294
 -85.527
 -85.5291
 -85.5852
 -85.5834
 -85.5849
 -85.5857
 -85.5475
 -85.5435
 -85.5456
 -85.5435
 -85.4798
 -85.4814
 -85.4793
 -85.4783
 -85.5614
 -85.5597
 -85.5609
 -85.5607
 -85.625
 -85.6243
 -85.6266
 -85.6259
 -85.5583
 -85.5613
 -85.5594
 -85.5577
 -85.5317
 -85.5317
 -85.5324
 -85.5334
 -85.534
 -85.5324
 -85.5328
 -85.5692
 -85.5699
 -85.5687
 -85.5967
 -85.5573
 -85.5524
 -85.5556
 -85.5554
 -85.6286
 -85.6283
 -85.6294
 -85.6253
 -85.6257
 -85.6266
 -85.5563
 -85.5593
 -85.5571
 -85.5589
 -85.6387
 -85.6396
 -85.6401
 -85.6401
 -85.537
 -85.5897
 -85.5867
 -85.5885
 -85.5879
 -85.5363
 -85.5373
 -85.537
 -85.5377
 -85.6274
 -85.6289
 -85.6261
 -85.6276
 -85.5986
 -85.6025
 -85.6011
 -85.5993
 -85.6128
 -85.6144
 -85.6111
 -85.6119
 -85.5293
 -85.5302
 -85.531
 -85.5294
 -85.5504
 -85.5528
 -85.5501
 -85.5506
 -85.5852
 -85.5833
 -85.5854
 -85.5824
 -85.552
 -85.5486
 -85.5532
 -85.5498
 -85.5966
 -85.5979
 -85.6005
 -85.5998
 -85.5382
 -85.5372
 -85.5401
 -85.5398
 -85.5478
 -85.5486
 -85.5514
 -85.5502
 -85.5895
 -85.5898
 -85.5898
 -85.5926
 -85.6277
 -85.6299
 -85.6286
 -85.6302
 -85.5232
 -85.5246
 -85.5266
 -85.5262
 -85.5022
 -85.4978
 -85.5023
 -85.5015
 -85.6297
 -85.6317
 -85.6307
 -85.6308
 -85.507
 -85.5042
 -85.5066
 -85.5047
 -85.5037
 -85.507
 -85.577
 -85.5779
 -85.5755
 -85.5743
 -85.5495
 -85.5513
 -85.5512
 -85.5486
 -85.6447
 -85.6449
 -85.6449
 -85.6441
 -85.6273
 -85.627
 -85.6294
 -85.5977
 -85.5974
 -85.5998
 -85.5967
 -85.5345
 -85.5352
 -85.5326
 -85.536
 -85.5475
 -85.547
 -85.5462
 -85.5456
 -85.5475
 -85.549
 -85.5987
 -85.6031
 -85.6017
 -85.5998
 -85.5935
 -85.5933
 -85.5908
 -85.5941
 -85.6019
 -85.6014
 -85.599
 -85.6017
 -85.6382
 -85.6383
 -85.6355
 -85.6391
 -85.6073
 -85.6071
 -85.6047
 -85.5609
 -85.5813
 -85.5803
 -85.5811
 -85.579
 -85.5832
 -85.5798
 -85.5809
 -85.5825
 -85.6196
 -85.6189
 -85.6186
 -85.6173
 -85.6078
 -85.6062
 -85.6065
 -85.6086
 -85.5922
 -85.5899
 -85.5895
 -85.5544
 -85.5519
 -85.5549
 -85.5505
 -85.5806
 -85.585
 -85.5825
 -85.5827
 -85.56
 -85.5621
 -85.5586
 -85.4654
 -85.4651
 -85.4629
 -85.4668
 -85.6207
 -85.6245
 -85.6227
 -85.6202
 -85.6168
 -85.6209
 -85.6187
 -85.4694
 -85.5845
 -85.5849
 -85.5841
 -85.5874
 -85.5916
 -85.592
 -85.5145
 -85.5147
 -85.5143
 -85.5157
 -85.5262
 -85.5274
 -85.5311
 -85.5267
 -85.5425
 -85.5443
 -85.5431
 -85.5436
 -85.5408
 -85.5423
 -85.5431
 -85.5402
 -85.54
 -85.542
 -85.5605
 -85.5578
 -85.5569
 -85.5571
 -85.5637
 -85.5668
 -85.6451
 -85.6449
 -85.5326
 -85.5372
 -85.5322
 -85.5351
 -85.5704
 -85.5695
 -85.5717
 -85.5681
 -85.5213
 -85.5225
 -85.5174
 -85.5187
 -85.6233
 -85.6245
 -85.6214
 -85.6227
 -85.6158
 -85.6137
 -85.6156
 -85.6136
 -85.5969
 -85.599
 -85.5994
 -85.5978
 -85.5855
 -85.5863
 -85.5902
 -85.5888
 -85.5777
 -85.5766
 -85.5325
 -85.6053
 -85.6077
 -85.6076
 -85.6078
 -85.6357
 -85.6351
 -85.6377
 -85.6347
 -85.6181
 -85.6208
 -85.6174
 -85.6187
 -85.4393
 -85.4392
 -85.4398
 -85.4405
 -85.6364
 -85.6369
 -85.6362
 -85.6364
 -85.5432
 -85.5433
 -85.5407
 -85.5445
 -85.5552
 -85.552
 -85.5532
 -85.5508
 -85.6027
 -85.603
 -85.6045
 -85.605
 -85.6039
 -85.603
 -85.6018
 -85.6025
 -85.5347
 -85.5383
 -85.5363
 -85.5376
 -85.6351
 -85.6357
 -85.6349
 -85.6352
 -85.6243
 -85.6254
 -85.6249
 -85.6261
 -85.6052
 -85.6056
 -85.6074
 -85.6076
 -85.6253
 -85.6235
 -85.6246
 -85.625
 -85.5478
 -85.5509
 -85.551
 -85.5519
 -85.5348
 -85.5354
 -85.5363
 -85.5368
 -85.6213
 -85.62
 -85.619
 -85.6195
 -85.5672
 -85.5662
 -85.5656
 -85.563
 -85.5707
 -85.5693
 -85.5686
 -85.5704
 -85.4584
 -85.4609
 -85.4615
 -85.4613
 -85.635
 -85.6354
 -85.6271
 -85.6272
 -85.6258
 -85.6285
 -85.5208
 -85.5185
 -85.5176
 -85.5211
 -85.5512
 -85.5473
 -85.547
 -85.5459
 -85.6249
 -85.6235
 -85.6263
 -85.6264
 -85.564
 -85.5649
 -85.5634
 -85.5666
 -85.5579
 -85.5588
 -85.5554
 -85.5557
 -85.6374
 -85.6379
 -85.637
 -85.6368
 -85.5838
 -85.5828
 -85.5837
 -85.5848
 -85.577
 -85.5778
 -85.5772
 -85.5751
 -85.6137
 -85.6144
 -85.6153
 -85.6134
 -85.5985
 -85.5974
 -85.5966
 -85.5949
 -85.5647
 -85.5647
 -85.5613
 -85.5517
 -85.5541
 -85.5526
 -85.5571
 -85.5095
 -85.5076
 -85.5077
 -85.5124
 -85.5551
 -85.5569
 -85.5574
 -85.5579
 -85.5809
 -85.5794
 -85.5804
 -85.5786
 -85.6362
 -85.6369
 -85.6367
 -85.6344
 -85.557
 -85.5618
 -85.5594
 -85.5587
 -85.5212
 -85.521
 -85.5185
 -85.5166
 -85.6031
 -85.6058
 -85.6044
 -85.6027
 -85.593
 -85.5923
 -85.5909
 -85.5806
 -85.584
 -85.585
 -85.5859
 -85.5052
 -85.5047
 -85.505
 -85.5075
 -85.5854
 -85.5832
 -85.5839
 -85.5825
 -85.634
 -85.634
 -85.6343
 -85.6343
 -85.5825
 -85.5822
 -85.5833
 -85.5839
 -85.5278
 -85.5261
 -85.5274
 -85.5281
 -85.5388
 -85.5408
 -85.5386
 -85.5363
 -85.6454
 -85.6449
 -85.6454
 -85.6453
 -85.5477
 -85.5484
 -85.548
 -85.5437
 -85.5922
 -85.5886
 -85.5894
 -85.5908
 -85.6447
 -85.6451
 -85.6443
 -85.6439
 -85.6284
 -85.6311
 -85.6294
 -85.604
 -85.6036
 -85.6069
 -85.6077
 -85.6221
 -85.6227
 -85.6251
 -85.6213
 -85.48
 -85.4824
 -85.4845
 -85.4836
 -85.5381
 -85.5416
 -85.5365
 -85.6325
 -85.6345
 -85.634
 -85.6344
 -85.5909
 -85.5897
 -85.5926
 -85.5888
 -85.6121
 -85.6112
 -85.6144
 -85.6096
 -85.5245
 -85.5242
 -85.5216
 -85.5206
 -85.5631
 -85.5669
 -85.5629
 -85.5653
 -85.5971
 -85.5928
 -85.5943
 -85.5176
 -85.5183
 -85.5194
 -85.5194
 -85.5372
 -85.5307
 -85.5322
 -85.5312
 -85.5592
 -85.6332
 -85.6344
 -85.6334
 -85.6348
 -85.4848
 -85.4845
 -85.4818
 -85.482
 -85.6125
 -85.6166
 -85.6148
 -85.617
 -85.5939
 -85.5921
 -85.5925
 -85.5897
 -85.4659
 -85.6182
 -85.6166
 -85.6194
 -85.6323
 -85.6347
 -85.6331
 -85.6333
 -85.5718
 -85.5716
 -85.5762
 -85.5731
 -85.6007
 -85.6006
 -85.6024
 -85.5993
 -85.5427
 -85.5401
 -85.5775
 -85.5762
 -85.5758
 -85.5787
 -85.5424
 -85.5404
 -85.5387
 -85.541
 -85.552
 -85.5509
 -85.5551
 -85.5554
 -85.6052
 -85.6034
 -85.6052
 -85.6057
 -85.4952
 -85.4948
 -85.4946
 -85.4986
 -85.5352
 -85.5339
 -85.535
 -85.5333
 -85.5019
 -85.5042
 -85.5264
 -85.5266
 -85.5269
 -85.5265
 -85.5217
 -85.5197
 -85.5226
 -85.5202
 -85.637
 -85.636
 -85.6346
 -85.6345
 -85.5888
 -85.5885
 -85.5874
 -85.5914
 -85.5621
 -85.5664
 -85.5642
 -85.564
 -85.5808
 -85.5796
 -85.5789
 -85.5816
 -85.6353
 -85.6348
 -85.5168
 -85.5156
 -85.5159
 -85.5168
 -85.6345
 -85.6352
 -85.6335
 -85.4892
 -85.4886
 -85.4889
 -85.4875
 -85.6301
 -85.6273
 -85.6293
 -85.6281
 -85.5536
 -85.5516
 -85.5543
 -85.5512
 -85.5703
 -85.57
 -85.5691
 -85.6331
 -85.6319
 -85.6324
 -85.6334
 -85.5882
 -85.5854
 -85.5882
 -85.5864
 -85.5707
 -85.5725
 -85.5743
 -85.5719
 -85.5548
 -85.5533
 -85.5625
 -85.557
 -85.5607
 -85.5591
 -85.5933
 -85.5903
 -85.592
 -85.637
 -85.6347
 -85.6343
 -85.6366
 -85.5694
 -85.5711
 -85.569
 -85.5701
 -85.5635
 -85.5616
 -85.5501
 -85.5472
 -85.5463
 -85.5492
 -85.4963
 -85.4969
 -85.5002
 -85.5882
 -85.5891
 -85.5854
 -85.5853
 -85.6359
 -85.6361
 -85.6361
 -85.5015
 -85.5003
 -85.5017
 -85.5676
 -85.5655
 -85.5668
 -85.5642
 -85.5999
 -85.6002
 -85.5973
 -85.5983
 -85.4811
 -85.4795
 -85.4805
 -85.4815
 -85.6232
 -85.6238
 -85.6227
 -85.6223
 -85.6023
 -85.6006
 -85.6008
 -85.5996
 -85.6178
 -85.6184
 -85.6169
 -85.632
 -85.6325
 -85.6349
 -85.6333
 -85.5797
 -85.5763
 -85.5793
 -85.58
 -85.6321
 -85.6313
 -85.631
 -85.6304
 -85.555
 -85.5545
 -85.5564
 -85.553
 -85.6364
 -85.5969
 -85.5761
 -85.5752
 -85.5777
 -85.5744
 -85.5933
 -85.5924
 -85.5906
 -85.59
 -85.6086
 -85.609
 -85.6074
 -85.6057
 -85.5949
 -85.5941
 -85.5967
 -85.5954
 -85.6114
 -85.6098
 -85.6118
 -85.6115
 -85.576
 -85.5742
 -85.5748
 -85.5774
 -85.5713
 -85.5718
 -85.5724
 -85.5738
 -85.563
 -85.562
 -85.5612
 -85.5644
 -85.5725
 -85.5724
 -85.5698
 -85.5318
 -85.5323
 -85.5318
 -85.5336
 -85.5795
 -85.5988
 -85.6018
 -85.6022
 -85.6012
 -85.6339
 -85.634
 -85.6315
 -85.55
 -85.5456
 -85.5471
 -85.5459
 -85.5825
 -85.5859
 -85.5847
 -85.5941
 -85.5931
 -85.5919
 -85.591
 -85.6003
 -85.6015
 -85.6038
 -85.6047
 -85.6268
 -85.6278
 -85.6294
 -85.6274
 -85.5408
 -85.5405
 -85.5421
 -85.5382
 -85.5823
 -85.5805
 -85.5804
 -85.5788
 -85.5731
 -85.572
 -85.5698
 -85.5733
 -85.5708
 -85.5695
 -85.5687
 -85.5669
 -85.5774
 -85.5766
 -85.5782
 -85.5751
 -85.6079
 -85.6036
 -85.6087
 -85.6056
 -85.5705
 -85.5664
 -85.568
 -85.5689
 -85.5161
 -85.5162
 -85.5161
 -85.517
 -85.507
 -85.5087
 -85.5079
 -85.5768
 -85.5773
 -85.5795
 -85.5803
 -85.5781
 -85.5786
 -85.5801
 -85.5813
 -85.572
 -85.5693
 -85.5737
 -85.5736
 -85.6309
 -85.6313
 -85.6286
 -85.6289
 -85.6089
 -85.6068
 -85.6062
 -85.6086
 -85.5479
 -85.5498
 -85.5492
 -85.55
 -85.528
 -85.5318
 -85.5312
 -85.5264
 -85.6255
 -85.6245
 -85.6233
 -85.6254
 -85.4876
 -85.4846
 -85.4854
 -85.4891
 -85.5572
 -85.5601
 -85.5585
 -85.5581
 -85.5234
 -85.5247
 -85.5245
 -85.5386
 -85.5404
 -85.5407
 -85.5431
 -85.6049
 -85.6045
 -85.6064
 -85.6022
 -85.538
 -85.5347
 -85.5355
 -85.5373
 -85.5082
 -85.5148
 -85.5105
 -85.4808
 -85.484
 -85.4856
 -85.4838
 -85.6397
 -85.6402
 -85.6406
 -85.6419
 -85.5452
 -85.5432
 -85.5446
 -85.546
 -85.5895
 -85.5858
 -85.5866
 -85.5885
 -85.6288
 -85.6279
 -85.6261
 -85.6276
 -85.6171
 -85.6193
 -85.6161
 -85.6171
 -85.5475
 -85.5483
 -85.5462
 -85.5474
 -85.5177
 -85.5143
 -85.5112
 -85.5151
 -85.5863
 -85.5878
 -85.5849
 -85.5863
 -85.5206
 -85.5239
 -85.5641
 -85.5593
 -85.5604
 -85.5629
 -85.5671
 -85.5668
 -85.5651
 -85.568
 -85.563
 -85.5632
 -85.5617
 -85.5297
 -85.5307
 -85.5297
 -85.5909
 -85.591
 -85.5921
 -85.5928
 -85.5875
 -85.5871
 -85.5855
 -85.5897
 -85.547
 -85.55
 -85.5484
 -85.5474
 -85.6102
 -85.6124
 -85.6092
 -85.61
 -85.5756
 -85.5721
 -85.5739
 -85.5764
 -85.5301
 -85.53
 -85.5296
 -85.53
 -85.5595
 -85.5621
 -85.5598
 -85.5903
 -85.5899
 -85.5878
 -85.5894
 -85.5797
 -85.5817
 -85.5829
 -85.6388
 -85.6384
 -85.6379
 -85.6374
 -85.503
 -85.5012
 -85.5034
 -85.4986
 -85.556
 -85.5585
 -85.5585
 -85.5564
 -85.552
 -85.5513
 -85.5489
 -85.5522
 -85.6398
 -85.6395
 -85.6416
 -85.6428
 -85.6144
 -85.6157
 -85.6153
 -85.54
 -85.5399
 -85.5381
 -85.5401
 -85.6138
 -85.6111
 -85.6122
 -85.5451
 -85.5456
 -85.5434
 -85.544
 -85.4523
 -85.4542
 -85.453
 -85.4547
 -85.6304
 -85.6309
 -85.6322
 -85.6296
 -85.5301
 -85.5293
 -85.5282
 -85.5261
 -85.6375
 -85.637
 -85.6367
 -85.637
 -85.5371
 -85.5402
 -85.5377
 -85.5393
 -85.4551
 -85.4511
 -85.454
 -85.4544
 -85.5125
 -85.5098
 -85.5124
 -85.5134
 -85.5316
 -85.5335
 -85.5352
 -85.5311
 -85.5743
 -85.5707
 -85.5273
 -85.528
 -85.5227
 -85.5234
 -85.5926
 -85.5906
 -85.5899
 -85.5884
 -85.5714
 -85.5714
 -85.5704
 -85.5742
 -85.6282
 -85.6259
 -85.6296
 -85.63
 -85.6235
 -85.6226
 -85.6246
 -85.6245
 -85.6181
 -85.6159
 -85.6176
 -85.616
 -85.6267
 -85.6271
 -85.6277
 -85.6261
 -85.6001
 -85.5997
 -85.6019
 -85.6001
 -85.6193
 -85.6214
 -85.6209
 -85.6202
 -85.5059
 -85.5014
 -85.501
 -85.506
 -85.6247
 -85.626
 -85.6258
 -85.6254
 -85.563
 -85.5604
 -85.5589
 -85.5601
 -85.6126
 -85.6091
 -85.6096
 -85.6238
 -85.6256
 -85.6259
 -85.625
 -85.531
 -85.5279
 -85.5277
 -85.5292
 -85.5135
 -85.5128
 -85.5113
 -85.5119
 -85.6047
 -85.6045
 -85.603
 -85.607
 -85.5649
 -85.5648
 -85.5641
 -85.5622
 -85.6011
 -85.5999
 -85.6009
 -85.6003
 -85.6002
 -85.6001
 -85.6046
 -85.5586
 -85.5579
 -85.5555
 -85.5982
 -85.5997
 -85.5835
 -85.5799
 -85.6367
 -85.6378
 -85.6377
 -85.6367
 -85.5798
 -85.5808
 -85.579
 -85.5823
 -85.598
 -85.5971
 -85.6005
 -85.5971
 -85.5896
 -85.5908
 -85.5895
 -85.5917
 -85.6193
 -85.6143
 -85.6153
 -85.6136
 -85.6133
 -85.5676
 -85.5686
 -85.5657
 -85.5658
 -85.5252
 -85.5252
 -85.5252
 -85.5253
 -85.5987
 -85.5964
 -85.5991
 -85.5975
 -85.6018
 -85.6006
 -85.5996
 -85.6028
 -85.463
 -85.4654
 -85.4664
 -85.4681
 -85.5766
 -85.5791
 -85.5774
 -85.5759
 -85.5732
 -85.5708
 -85.5697
 -85.572
 -85.5973
 -85.5953
 -85.5335
 -85.534
 -85.535
 -85.5337
 -85.5539
 -85.5555
 -85.5549
 -85.5534
 -85.5372
 -85.536
 -85.5353
 -85.5356
 -85.5493
 -85.5512
 -85.5509
 -85.5487
 -85.536
 -85.5357
 -85.5346
 -85.5363
 -85.6157
 -85.6144
 -85.6151
 -85.6167
 -85.6245
 -85.6241
 -85.622
 -85.6233
 -85.5459
 -85.5445
 -85.5429
 -85.5458
 -85.5766
 -85.5744
 -85.5765
 -85.575
 -85.6181
 -85.6159
 -85.6178
 -85.6168
 -85.5667
 -85.5647
 -85.565
 -85.5686
 -85.5453
 -85.5477
 -85.5188
 -85.52
 -85.5206
 -85.5184
 -85.572
 -85.571
 -85.5688
 -85.5677
 -85.6188
 -85.6178
 -85.6181
 -85.6207
 -85.6349
 -85.6335
 -85.6339
 -85.6351
 -85.4712
 -85.4707
 -85.5619
 -85.5649
 -85.5653
 -85.5667
 -85.558
 -85.5538
 -85.5564
 -85.5565
 -85.5554
 -85.5547
 -85.5387
 -85.5398
 -85.5398
 -85.5405
 -85.5717
 -85.5745
 -85.5757
 -85.5058
 -85.5079
 -85.508
 -85.5097
 -85.625
 -85.6265
 -85.6234
 -85.6253
 -85.6344
 -85.6343
 -85.6341
 -85.6398
 -85.6389
 -85.6372
 -85.6384
 -85.5877
 -85.5918
 -85.5906
 -85.5908
 -85.5763
 -85.58
 -85.5753
 -85.5784
 -85.6112
 -85.6145
 -85.6156
 -85.6138
 -85.5964
 -85.5958
 -85.5984
 -85.596
 -85.5925
 -85.595
 -85.5935
 -85.5815
 -85.5818
 -85.5806
 -85.5842
 -85.6058
 -85.6107
 -85.6089
 -85.6062
 -85.567
 -85.5649
 -85.5665
 -85.567
 -85.5781
 -85.5775
 -85.5807
 -85.5767
 -85.6002
 -85.5996
 -85.5982
 -85.6004
 -85.5768
 -85.5753
 -85.5745
 -85.5773
 -85.4564
 -85.4553
 -85.4593
 -85.4591
 -85.5417
 -85.5406
 -85.5403
 -85.5387
 -85.6056
 -85.6054
 -85.6084
 -85.6087
 -85.5369
 -85.5371
 -85.5331
 -85.5321
 -85.5292
 -85.5253
 -85.5293
 -85.5319
 -85.6202
 -85.6197
 -85.6211
 -85.6182
 -85.6171
 -85.6145
 -85.6168
 -85.6162
 -85.6262
 -85.624
 -85.6258
 -85.6267
 -85.609
 -85.609
 -85.6113
 -85.6102
 -85.5619
 -85.5612
 -85.5593
 -85.5612
 -85.5425
 -85.5414
 -85.5438
 -85.5409
 -85.6013
 -85.5974
 -85.6016
 -85.5983
 -85.5436
 -85.5445
 -85.5449
 -85.5447
 -85.5207
 -85.5215
 -85.5223
 -85.5233
 -85.5746
 -85.5769
 -85.5749
 -85.5769
 -85.5564
 -85.5544
 -85.5525
 -85.5582
 -85.5594
 -85.5631
 -85.5604
 -85.5209
 -85.5191
 -85.5166
 -85.519
 -85.5453
 -85.5448
 -85.544
 -85.5442
 -85.6044
 -85.6059
 -85.6046
 -85.6053
 -85.5799
 -85.5824
 -85.583
 -85.6409
 -85.6394
 -85.6396
 -85.6404
 -85.63
 -85.6319
 -85.6332
 -85.6312
 -85.5548
 -85.5571
 -85.5535
 -85.5569
 -85.5847
 -85.5868
 -85.5246
 -85.5243
 -85.5209
 -85.5258
 -85.5798
 -85.5771
 -85.5761
 -85.5785
 -85.6255
 -85.6261
 -85.6241
 -85.6259
 -85.5424
 -85.5431
 -85.5439
 -85.5641
 -85.5649
 -85.5654
 -85.5616
 -85.5558
 -85.5594
 -85.5593
 -85.5587
 -85.5748
 -85.5774
 -85.578
 -85.5747
 -85.5697
 -85.5714
 -85.5734
 -85.5711
 -85.5786
 -85.5801
 -85.578
 -85.581
 -85.5671
 -85.5692
 -85.6134
 -85.6117
 -85.6153
 -85.6129
 -85.5688
 -85.5663
 -85.5672
 -85.569
 -85.592
 -85.5885
 -85.5902
 -85.5681
 -85.5708
 -85.5689
 -85.5706
 -85.5934
 -85.592
 -85.5905
 -85.5924
 -85.5378
 -85.5351
 -85.5371
 -85.5335
 -85.5684
 -85.5678
 -85.5712
 -85.5859
 -85.5865
 -85.5895
 -85.5844
 -85.5733
 -85.5726
 -85.5745
 -85.537
 -85.5377
 -85.5355
 -85.595
 -85.5945
 -85.5941
 -85.5915
 -85.5745
 -85.5766
 -85.5771
 -85.4743
 -85.4752
 -85.4763
 -85.4713
 -85.5961
 -85.5941
 -85.5928
 -85.5965
 -85.5583
 -85.5555
 -85.556
 -85.5548
 -85.6178
 -85.6177
 -85.6186
 -85.6196
 -85.623
 -85.6212
 -85.6241
 -85.6235
 -85.5288
 -85.5329
 -85.5277
 -85.5285
 -85.5847
 -85.5828
 -85.5811
 -85.549
 -85.546
 -85.5482
 -85.548
 -85.6221
 -85.619
 -85.6208
 -85.5788
 -85.5814
 -85.5796
 -85.5819
 -85.6031
 -85.6042
 -85.604
 -85.6033
 -85.6289
 -85.6293
 -85.6304
 -85.6287
 -85.4433
 -85.4414
 -85.4418
 -85.4433
 -85.5488
 -85.5495
 -85.5511
 -85.5484
 -85.5828
 -85.5876
 -85.5858
 -85.5869
 -85.5161
 -85.5138
 -85.5125
 -85.5744
 -85.5767
 -85.5762
 -85.5737
 -85.6315
 -85.5987
 -85.5966
 -85.5936
 -85.5966
 -85.6206
 -85.6206
 -85.6209
 -85.6218
 -85.6109
 -85.6102
 -85.6097
 -85.6118
 -85.5847
 -85.5837
 -85.5793
 -85.5761
 -85.5765
 -85.5761
 -85.4782
 -85.4816
 -85.4786
 -85.4803
 -85.5539
 -85.5529
 -85.5517
 -85.5495
 -85.5492
 -85.5514
 -85.5498
 -85.6327
 -85.6354
 -85.6331
 -85.6326
 -85.575
 -85.5749
 -85.5776
 -85.5778
 -85.584
 -85.5828
 -85.5805
 -85.5824
 -85.623
 -85.6212
 -85.6242
 -85.6215
 -85.5774
 -85.5766
 -85.58
 -85.5776
 -85.503
 -85.5038
 -85.5007
 -85.5018
 -85.5722
 -85.5713
 -85.5732
 -85.572
 -85.5477
 -85.548
 -85.5484
 -85.5501
 -85.5416
 -85.5394
 -85.5396
 -85.5407
 -85.525
 -85.526
 -85.5249
 -85.5247
 -85.4971
 -85.4958
 -85.4951
 -85.4995
 -85.6387
 -85.6374
 -85.6379
 -85.6376
 -85.4861
 -85.4873
 -85.484
 -85.4886
 -85.5754
 -85.5735
 -85.5754
 -85.5731
 -85.637
 -85.6371
 -85.6357
 -85.6362
 -85.5618
 -85.5608
 -85.5627
 -85.5633
 -85.5247
 -85.6275
 -85.6264
 -85.6268
 -85.6292
 -85.5364
 -85.5015
 -85.5055
 -85.5057
 -85.5019
 -85.5882
 -85.5917
 -85.6124
 -85.6095
 -85.6134
 -85.6103
 -85.6196
 -85.6195
 -85.621
 -85.6206
 -85.6407
 -85.6392
 -85.6412
 -85.6135
 -85.6164
 -85.6159
 -85.6155
 -85.5624
 -85.6345
 -85.6014
 -85.6009
 -85.5999
 -85.6343
 -85.6353
 -85.6357
 -85.6349
 -85.5641
 -85.5635
 -85.5638
 -85.5617
 -85.5468
 -85.5479
 -85.5451
 -85.5443
 -85.5986
 -85.5968
 -85.5977
 -85.6015
 -85.6321
 -85.6333
 -85.6313
 -85.6309
 -85.6256
 -85.625
 -85.626
 -85.6248
 -85.5918
 -85.596
 -85.5956
 -85.4938
 -85.4914
 -85.4984
 -85.4936
 -85.4468
 -85.4505
 -85.4484
 -85.45
 -85.5169
 -85.513
 -85.5121
 -85.5145
 -85.5812
 -85.5836
 -85.5808
 -85.5052
 -85.508
 -85.5069
 -85.5049
 -85.615
 -85.6143
 -85.6169
 -85.6171
 -85.6174
 -85.6161
 -85.6171
 -85.5363
 -85.5351
 -85.6032
 -85.6046
 -85.6452
 -85.6442
 -85.6451
 -85.6388
 -85.6396
 -85.6393
 -85.64
 -85.5673
 -85.5652
 -85.5691
 -85.5673
 -85.5528
 -85.5523
 -85.5509
 -85.5543
 -85.5732
 -85.5728
 -85.5757
 -85.5745
 -85.6365
 -85.6364
 -85.6368
 -85.6363
 -85.6039
 -85.6053
 -85.6045
 -85.6029
 -85.5237
 -85.5233
 -85.5235
 -85.5254
 -85.604
 -85.6051
 -85.6032
 -85.6057
 -85.586
 -85.5866
 -85.5839
 -85.5872
 -85.5999
 -85.6016
 -85.6014
 -85.438
 -85.4385
 -85.4389
 -85.5514
 -85.5495
 -85.5642
 -85.5641
 -85.562
 -85.5659
 -85.6113
 -85.6139
 -85.6118
 -85.6113
 -85.6044
 -85.6051
 -85.6081
 -85.6063
 -85.6063
 -85.605
 -85.6091
 -85.4785
 -85.4785
 -85.5228
 -85.5223
 -85.5239
 -85.5231
 -85.5859
 -85.4767
 -85.4734
 -85.4746
 -85.4751
 -85.5465
 -85.5498
 -85.5477
 -85.5471
 -85.5682
 -85.5667
 -85.4986
 -85.5044
 -85.5042
 -85.501
 -85.6387
 -85.6405
 -85.6399
 -85.639
 -85.6313
 -85.6321
 -85.6313
 -85.6336
 -85.5329
 -85.5384
 -85.5341
 -85.5368
 -85.5505
 -85.5489
 -85.5543
 -85.5533
 -85.552
 -85.5507
 -85.5521
 -85.6083
 -85.61
 -85.6064
 -85.6084
 -85.5239
 -85.5264
 -85.5277
 -85.5279
 -85.5732
 -85.5739
 -85.5729
 -85.5958
 -85.5967
 -85.5976
 -85.5999
 -85.5503
 -85.551
 -85.5527
 -85.5516
 -85.5396
 -85.5422
 -85.5441
 -85.5411
 -85.5421
 -85.5403
 -85.5409
 -85.5431
 -85.5608
 -85.5618
 -85.5645
 -85.562
 -85.5954
 -85.5937
 -85.5471
 -85.5475
 -85.5482
 -85.5458
 -85.6398
 -85.637
 -85.6376
 -85.6377
 -85.538
 -85.5396
 -85.5383
 -85.54
 -85.5115
 -85.5104
 -85.5135
 -85.5123
 -85.5865
 -85.5864
 -85.4905
 -85.4908
 -85.4882
 -85.4914
 -85.5557
 -85.558
 -85.5545
 -85.6328
 -85.6325
 -85.6337
 -85.6337
 -85.4947
 -85.493
 -85.494
 -85.5402
 -85.5398
 -85.5422
 -85.5412
 -85.4987
 -85.5379
 -85.5367
 -85.5372
 -85.5346
 -85.5773
 -85.5754
 -85.5778
 -85.5773
 -85.5643
 -85.565
 -85.5665
 -85.5641
 -85.6347
 -85.6367
 -85.582
 -85.5837
 -85.583
 -85.582
 -85.5349
 -85.5311
 -85.5355
 -85.5308
 -85.553
 -85.5585
 -85.5554
 -85.5535
 -85.6265
 -85.6253
 -85.6253
 -85.6256
 -85.5656
 -85.5671
 -85.5696
 -85.5684
 -85.5872
 -85.6187
 -85.6197
 -85.6178
 -85.5535
 -85.5543
 -85.5513
 -85.5551
 -85.6033
 -85.6024
 -85.6034
 -85.601
 -85.5573
 -85.5547
 -85.5556
 -85.5582
 -85.6338
 -85.6323
 -85.6316
 -85.6331
 -85.6439
 -85.6446
 -85.6435
 -85.5409
 -85.5424
 -85.5449
 -85.5434
 -85.593
 -85.594
 -85.5909
 -85.5921
 -85.6009
 -85.6018
 -85.6033
 -85.6043
 -85.5487
 -85.5492
 -85.5385
 -85.5372
 -85.5363
 -85.5394
 -85.5602
 -85.5648
 -85.5886
 -85.5897
 -85.5882
 -85.5873
 -85.5944
 -85.5954
 -85.5975
 -85.5944
 -85.5616
 -85.5635
 -85.5656
 -85.564
 -85.5858
 -85.5859
 -85.5861
 -85.6229
 -85.6205
 -85.6197
 -85.621
 -85.6116
 -85.6107
 -85.612
 -85.5616
 -85.5652
 -85.5607
 -85.5637
 -85.5416
 -85.5378
 -85.5362
 -85.5406
 -85.6022
 -85.5991
 -85.5994
 -85.6011
 -85.5658
 -85.5653
 -85.562
 -85.5285
 -85.5281
 -85.5285
 -85.5281
 -85.5503
 -85.55
 -85.5512
 -85.5521
 -85.615
 -85.6137
 -85.6126
 -85.6401
 -85.6383
 -85.6387
 -85.5995
 -85.6009
 -85.6011
 -85.5501
 -85.5475
 -85.5511
 -85.5489
 -85.6397
 -85.64
 -85.6397
 -85.6406
 -85.5965
 -85.5949
 -85.5961
 -85.598
 -85.6182
 -85.6192
 -85.6219
 -85.6216
 -85.6156
 -85.6169
 -85.6158
 -85.616
 -85.5095
 -85.5061
 -85.5068
 -85.5603
 -85.5611
 -85.5592
 -85.5613
 -85.6187
 -85.6196
 -85.6176
 -85.6178
 -85.5699
 -85.571
 -85.571
 -85.5739
 -85.6043
 -85.6045
 -85.6041
 -85.6016
 -85.6278
 -85.6292
 -85.5231
 -85.5249
 -85.5247
 -85.526
 -85.61
 -85.6084
 -85.6121
 -85.6093
 -85.562
 -85.5611
 -85.5601
 -85.5629
 -85.6007
 -85.5972
 -85.637
 -85.637
 -85.6353
 -85.6375
 -85.6177
 -85.6205
 -85.6167
 -85.6215
 -85.6405
 -85.6408
 -85.6422
 -85.6426
 -85.6086
 -85.6086
 -85.6098
 -85.6006
 -85.604
 -85.6036
 -85.6025
 -85.6028
 -85.6011
 -85.6021
 -85.5993
 -85.5457
 -85.5463
 -85.5442
 -85.5432
 -85.5034
 -85.502
 -85.5056
 -85.5755
 -85.5755
 -85.5759
 -85.6225
 -85.6203
 -85.6216
 -85.6198
 -85.5628
 -85.5647
 -85.5671
 -85.5648
 -85.5363
 -85.5326
 -85.5338
 -85.5367
 -85.5775
 -85.5747
 -85.5734
 -85.5735
 -85.556
 -85.56
 -85.5562
 -85.6377
 -85.6383
 -85.6361
 -85.6359
 -85.5256
 -85.5263
 -85.5351
 -85.5366
 -85.5367
 -85.6056
 -85.6064
 -85.6039
 -85.6081
 -85.5737
 -85.5772
 -85.5766
 -85.5761
 -85.5318
 -85.5323
 -85.5344
 -85.5323
 -85.5838
 -85.5788
 -85.5794
 -85.582
 -85.555
 -85.5529
 -85.5564
 -85.5566
 -85.6258
 -85.6267
 -85.6296
 -85.5507
 -85.5505
 -85.5526
 -85.5524
 -85.5835
 -85.5855
 -85.5298
 -85.5329
 -85.5318
 -85.5303
 -85.5341
 -85.5316
 -85.5329
 -85.5318
 -85.6278
 -85.6269
 -85.5391
 -85.5414
 -85.5402
 -85.5376
 -85.5785
 -85.5761
 -85.5772
 -85.5788
 -85.5589
 -85.5101
 -85.5072
 -85.5082
 -85.5869
 -85.5862
 -85.5867
 -85.5846
 -85.6298
 -85.6299
 -85.6288
 -85.6308
 -85.5097
 -85.5109
 -85.5115
 -85.5084
 -85.5363
 -85.5381
 -85.5356
 -85.5362
 -85.5992
 -85.6003
 -85.6004
 -85.5137
 -85.5134
 -85.5158
 -85.5162
 -85.6402
 -85.6386
 -85.6393
 -85.6405
 -85.5229
 -85.5244
 -85.525
 -85.5218
 -85.5966
 -85.5941
 -85.5958
 -85.5981
 -85.5604
 -85.5626
 -85.5616
 -85.5599
 -85.5322
 -85.5331
 -85.5321
 -85.5554
 -85.5585
 -85.5553
 -85.5578
 -85.5323
 -85.5302
 -85.5315
 -85.5316
 -85.5371
 -85.5352
 -85.5362
 -85.6114
 -85.6091
 -85.612
 -85.608
 -85.6058
 -85.5718
 -85.5775
 -85.5737
 -85.5739
 -85.6329
 -85.6321
 -85.631
 -85.6321
 -85.5878
 -85.5909
 -85.5863
 -85.59
 -85.5956
 -85.5976
 -85.5955
 -85.5949
 -85.5355
 -85.5346
 -85.5371
 -85.5391
 -85.5379
 -85.5955
 -85.5927
 -85.5944
 -85.5964
 -85.6313
 -85.6338
 -85.5807
 -85.5816
 -85.5787
 -85.582
 -85.5315
 -85.531
 -85.5327
 -85.6253
 -85.6269
 -85.6248
 -85.6256
 -85.5815
 -85.5777
 -85.5791
 -85.5798
 -85.5349
 -85.5337
 -85.5351
 -85.5359
 -85.5733
 -85.5731
 -85.577
 -85.5742
 -85.5938
 -85.5983
 -85.5192
 -85.518
 -85.5186
 -85.5173
 -85.5368
 -85.5419
 -85.5433
 -85.542
 -85.5442
 -85.5434
 -85.5424
 -85.5388
 -85.5396
 -85.5416
 -85.5798
 -85.5792
 -85.5788
 -85.5907
 -85.5896
 -85.5885
 -85.5873
 -85.5457
 -85.5453
 -85.5459
 -85.5454
 -85.5624
 -85.5616
 -85.5845
 -85.5828
 -85.5839
 -85.5822
 -85.5849
 -85.5849
 -85.5737
 -85.5762
 -85.577
 -85.574
 -85.4884
 -85.4929
 -85.4922
 -85.4936
 -85.5836
 -85.5323
 -85.5344
 -85.5329
 -85.5324
 -85.6373
 -85.6385
 -85.6369
 -85.6066
 -85.606
 -85.6042
 -85.6068
 -85.5717
 -85.5729
 -85.5717
 -85.5678
 -85.5813
 -85.5833
 -85.5799
 -85.5402
 -85.5422
 -85.5413
 -85.5399
 -85.6264
 -85.6281
 -85.6247
 -85.627
 -85.5974
 -85.5964
 -85.5985
 -85.5976
 -85.6267
 -85.6275
 -85.6242
 -85.6261
 -85.5227
 -85.5226
 -85.5207
 -85.5208
 -85.5443
 -85.5464
 -85.6108
 -85.6098
 -85.6087
 -85.6102
 -85.6312
 -85.631
 -85.6314
 -85.6305
 -85.644
 -85.6447
 -85.6434
 -85.645
 -85.6289
 -85.6272
 -85.6287
 -85.5951
 -85.5977
 -85.5947
 -85.5966
 -85.6301
 -85.631
 -85.6313
 -85.631
 -85.5243
 -85.5265
 -85.5287
 -85.5261
 -85.6191
 -85.621
 -85.6212
 -85.5964
 -85.5956
 -85.5948
 -85.5947
 -85.5319
 -85.5309
 -85.5318
 -85.5304
 -85.5995
 -85.6022
 -85.6007
 -85.6008
 -85.5883
 -85.5903
 -85.5914
 -85.5885
 -85.5463
 -85.5474
 -85.5495
 -85.5512
 -85.5216
 -85.5221
 -85.5192
 -85.5193
 -85.5653
 -85.5662
 -85.5686
 -85.5658
 -85.4816
 -85.4818
 -85.4869
 -85.4838
 -85.535
 -85.5368
 -85.5347
 -85.541
 -85.5381
 -85.538
 -85.5373
 -85.4678
 -85.4687
 -85.4653
 -85.4698
 -85.6253
 -85.6238
 -85.6241
 -85.6159
 -85.6162
 -85.6182
 -85.6179
 -85.5429
 -85.5475
 -85.5461
 -85.5048
 -85.5061
 -85.5044
 -85.5201
 -85.518
 -85.5205
 -85.5207
 -85.5458
 -85.5455
 -85.5476
 -85.5437
 -85.5967
 -85.6007
 -85.5989
 -85.5983
 -85.4899
 -85.4894
 -85.4914
 -85.488
 -85.591
 -85.5867
 -85.5865
 -85.5903
 -85.6151
 -85.6162
 -85.6133
 -85.6151
 -85.5854
 -85.5852
 -85.5894
 -85.5874
 -85.568
 -85.5657
 -85.5697
 -85.5337
 -85.5336
 -85.5336
 -85.535
 -85.6277
 -85.6292
 -85.6298
 -85.6289
 -85.6195
 -85.621
 -85.6192
 -85.6179
 -85.5452
 -85.5474
 -85.546
 -85.5439
 -85.6319
 -85.6329
 -85.6339
 -85.6309
 -85.6337
 -85.6318
 -85.6319
 -85.6334
 -85.6336
 -85.6319
 -85.6327
 -85.4981
 -85.4974
 -85.4685
 -85.4693
 -85.4676
 -85.4714
 -85.5926
 -85.5914
 -85.5896
 -85.5724
 -85.5706
 -85.5748
 -85.5711
 -85.5784
 -85.5814
 -85.5805
 -85.5787
 -85.4401
 -85.5638
 -85.5898
 -85.5925
 -85.6192
 -85.6204
 -85.6199
 -85.6197
 -85.505
 -85.5561
 -85.5585
 -85.5561
 -85.6456
 -85.6449
 -85.645
 -85.6449
 -85.5789
 -85.577
 -85.5791
 -85.5815
 -85.6334
 -85.6323
 -85.6338
 -85.6317
 -85.567
 -85.5702
 -85.5645
 -85.5593
 -85.5627
 -85.5605
 -85.6262
 -85.6265
 -85.6244
 -85.6266
 -85.5913
 -85.5895
 -85.5877
 -85.5867
 -85.5255
 -85.5236
 -85.5272
 -85.5265
 -85.6166
 -85.6206
 -85.6191
 -85.6341
 -85.6365
 -85.6366
 -85.6341
 -85.6176
 -85.6169
 -85.6155
 -85.617
 -85.5435
 -85.5433
 -85.5484
 -85.543
 -85.5502
 -85.5483
 -85.5487
 -85.5487
 -85.6265
 -85.6279
 -85.6278
 -85.6279
 -85.563
 -85.5635
 -85.5606
 -85.6124
 -85.6124
 -85.6117
 -85.6103
 -85.5297
 -85.5323
 -85.5284
 -85.5289
 -85.594
 -85.5953
 -85.5918
 -85.5933
 -85.5289
 -85.5309
 -85.529
 -85.5288
 -85.5836
 -85.5852
 -85.5827
 -85.5845
 -85.6147
 -85.6147
 -85.6167
 -85.6132
 -85.5232
 -85.5223
 -85.5244
 -85.5799
 -85.5824
 -85.6226
 -85.6217
 -85.6212
 -85.6199
 -85.5625
 -85.5607
 -85.5604
 -85.5258
 -85.5238
 -85.5229
 -85.524
 -85.6015
 -85.6024
 -85.6013
 -85.6033
 -85.5941
 -85.5939
 -85.598
 -85.595
 -85.4519
 -85.452
 -85.4554
 -85.4529
 -85.5773
 -85.574
 -85.5759
 -85.4793
 -85.4821
 -85.4831
 -85.5785
 -85.5774
 -85.5755
 -85.5776
 -85.5746
 -85.5222
 -85.5233
 -85.5185
 -85.5204
 -85.568
 -85.5711
 -85.5715
 -85.6194
 -85.6194
 -85.6195
 -85.6184
 -85.5707
 -85.5721
 -85.5738
 -85.5738
 -85.5748
 -85.5741
 -85.5738
 -85.6433
 -85.6428
 -85.6423
 -85.6413
 -85.5379
 -85.5435
 -85.5422
 -85.5406
 -85.5186
 -85.5186
 -85.5199
 -85.5198
 -85.5579
 -85.5572
 -85.5611
 -85.5581
 -85.6237
 -85.6242
 -85.6249
 -85.6221
 -85.4499
 -85.4526
 -85.4498
 -85.454
 -85.6126
 -85.6099
 -85.6114
 -85.6115
 -85.5173
 -85.5154
 -85.5172
 -85.5166
 -85.6192
 -85.6141
 -85.6157
 -85.618
 -85.6104
 -85.6091
 -85.6078
 -85.6093
 -85.6128
 -85.6137
 -85.5449
 -85.5429
 -85.5426
 -85.5444
 -85.6285
 -85.6288
 -85.6287
 -85.6084
 -85.6051
 -85.6063
 -85.6089
 -85.5404
 -85.543
 -85.5413
 -85.5389
 -85.5552
 -85.5542
 -85.5575
 -85.4381
 -85.4382
 -85.4371
 -85.4381
 -85.5735
 -85.5703
 -85.5744
 -85.6289
 -85.6303
 -85.6284
 -85.6279
 -85.6142
 -85.6125
 -85.6249
 -85.6272
 -85.6283
 -85.626
 -85.604
 -85.6043
 -85.5125
 -85.5128
 -85.5097
 -85.5148
 -85.6121
 -85.6119
 -85.6121
 -85.6097
 -85.5782
 -85.5795
 -85.5549
 -85.5566
 -85.5556
 -85.5548
 -85.6177
 -85.6191
 -85.6194
 -85.6189
 -85.5462
 -85.5414
 -85.542
 -85.5454
 -85.6269
 -85.6269
 -85.6289
 -85.6311
 -85.5877
 -85.5882
 -85.5854
 -85.5119
 -85.5107
 -85.5101
 -85.5117
 -85.5964
 -85.5962
 -85.5952
 -85.5935
 -85.538
 -85.5351
 -85.5347
 -85.5331
 -85.5414
 -85.5378
 -85.5403
 -85.447
 -85.4465
 -85.4471
 -85.4486
 -85.5215
 -85.525
 -85.5259
 -85.5226
 -85.6138
 -85.6127
 -85.6151
 -85.6126
 -85.5749
 -85.576
 -85.5728
 -85.5585
 -85.5331
 -85.5346
 -85.5336
 -85.535
 -85.5633
 -85.5608
 -85.5629
 -85.5641
 -85.6055
 -85.6093
 -85.6097
 -85.6063
 -85.5289
 -85.5291
 -85.5341
 -85.5058
 -85.5868
 -85.5879
 -85.5849
 -85.5893
 -85.5341
 -85.5374
 -85.4744
 -85.4713
 -85.5322
 -85.5344
 -85.5324
 -85.5295
 -85.605
 -85.6069
 -85.6225
 -85.6223
 -85.623
 -85.622
 -85.5549
 -85.5575
 -85.5575
 -85.5576
 -85.6354
 -85.636
 -85.6371
 -85.636
 -85.5522
 -85.5529
 -85.5473
 -85.5473
 -85.6114
 -85.6119
 -85.6101
 -85.6078
 -85.5416
 -85.5417
 -85.5431
 -85.5429
 -85.6111
 -85.6122
 -85.6093
 -85.6112
 -85.5633
 -85.5665
 -85.6306
 -85.6298
 -85.6026
 -85.6047
 -85.602
 -85.6051
 -85.6009
 -85.5999
 -85.6002
 -85.603
 -85.583
 -85.5817
 -85.5841
 -85.5838
 -85.6105
 -85.608
 -85.6115
 -85.6128
 -85.5403
 -85.5377
 -85.5391
 -85.5389
 -85.6294
 -85.6289
 -85.6286
 -85.6314
 -85.6325
 -85.6308
 -85.6319
 -85.529
 -85.5319
 -85.5318
 -85.5305
 -85.6031
 -85.6002
 -85.6006
 -85.6019
 -85.5254
 -85.5286
 -85.5286
 -85.5315
 -85.581
 -85.5708
 -85.5747
 -85.5747
 -85.5712
 -85.6182
 -85.6183
 -85.6181
 -85.6158
 -85.4843
 -85.4815
 -85.4833
 -85.4865
 -85.6018
 -85.6032
 -85.6049
 -85.6027
 -85.577
 -85.5796
 -85.574
 -85.5763
 -85.6082
 -85.6063
 -85.606
 -85.6057
 -85.5968
 -85.6432
 -85.6428
 -85.6409
 -85.6417
 -85.6132
 -85.6138
 -85.6107
 -85.6112
 -85.4721
 -85.4735
 -85.4759
 -85.4719
 -85.5637
 -85.5609
 -85.5596
 -85.5619
 -85.5487
 -85.579
 -85.5794
 -85.58
 -85.5823
 -85.6265
 -85.6266
 -85.6246
 -85.6236
 -85.6198
 -85.6193
 -85.622
 -85.6259
 -85.622
 -85.6238
 -85.623
 -85.4508
 -85.452
 -85.6106
 -85.6097
 -85.6094
 -85.546
 -85.5458
 -85.5451
 -85.5482
 -85.6059
 -85.6047
 -85.6058
 -85.6037
 -85.5829
 -85.6017
 -85.599
 -85.6017
 -85.601
 -85.6304
 -85.6267
 -85.6279
 -85.6301
 -85.6006
 -85.6024
 -85.6051
 -85.6011
 -85.5621
 -85.5633
 -85.559
 -85.5654
 -85.5314
 -85.5319
 -85.5307
 -85.5323
 -85.6411
 -85.6393
 -85.6413
 -85.6407
 -85.6062
 -85.6054
 -85.607
 -85.6043
 -85.6394
 -85.6388
 -85.6391
 -85.6401
 -85.5467
 -85.5425
 -85.5467
 -85.5473
 -85.5812
 -85.5799
 -85.6302
 -85.6328
 -85.6302
 -85.6314
 -85.5822
 -85.5826
 -85.5826
 -85.5854
 -85.5729
 -85.5755
 -85.5819
 -85.5825
 -85.5848
 -85.5817
 -85.6212
 -85.6212
 -85.6204
 -85.6229
 -85.5542
 -85.5508
 -85.5493
 -85.5524
 -85.5081
 -85.5105
 -85.5083
 -85.5082
 -85.5253
 -85.524
 -85.5242
 -85.5238
 -85.5509
 -85.5528
 -85.5531
 -85.5504
 -85.5648
 -85.561
 -85.5636
 -85.5701
 -85.5661
 -85.5683
 -85.569
 -85.5795
 -85.5782
 -85.5769
 -85.5794
 -85.5073
 -85.5071
 -85.5082
 -85.5603
 -85.5579
 -85.5616
 -85.5609
 -85.5842
 -85.5866
 -85.5864
 -85.583
 -85.5427
 -85.5392
 -85.5435
 -85.5395
 -85.5527
 -85.5549
 -85.5547
 -85.5542
 -85.5866
 -85.5864
 -85.5884
 -85.5903
 -85.5781
 -85.5756
 -85.5777
 -85.5771
 -85.6032
 -85.602
 -85.6027
 -85.6016
 -85.5229
 -85.5237
 -85.5245
 -85.6169
 -85.6156
 -85.6183
 -85.6163
 -85.5433
 -85.5462
 -85.5437
 -85.5419
 -85.5657
 -85.5646
 -85.563
 -85.5668
 -85.5704
 -85.573
 -85.5736
 -85.5912
 -85.5912
 -85.5921
 -85.594
 -85.5996
 -85.5997
 -85.6015
 -85.5983
 -85.6023
 -85.6035
 -85.6051
 -85.6221
 -85.6227
 -85.6231
 -85.5996
 -85.5984
 -85.5967
 -85.598
 -85.6221
 -85.623
 -85.6205
 -85.6285
 -85.6286
 -85.6283
 -85.6267
 -85.5716
 -85.5664
 -85.5697
 -85.5679
 -85.5472
 -85.5453
 -85.5485
 -85.5461
 -85.5379
 -85.6219
 -85.6211
 -85.6244
 -85.6208
 -85.6225
 -85.6186
 -85.4447
 -85.4435
 -85.4449
 -85.4464
 -85.6114
 -85.6095
 -85.5647
 -85.5635
 -85.5668
 -85.6391
 -85.6404
 -85.5922
 -85.5886
 -85.5897
 -85.5906
 -85.563
 -85.5645
 -85.5645
 -85.6123
 -85.6164
 -85.6145
 -85.6155
 -85.5491
 -85.55
 -85.548
 -85.5515
 -85.4645
 -85.4674
 -85.4665
 -85.4634
 -85.5892
 -85.5896
 -85.5889
 -85.5918
 -85.6195
 -85.6235
 -85.62
 -85.615
 -85.6145
 -85.6154
 -85.6135
 -85.5409
 -85.5372
 -85.5373
 -85.5356
 -85.545
 -85.5471
 -85.5294
 -85.532
 -85.5284
 -85.6383
 -85.6368
 -85.6179
 -85.6154
 -85.618
 -85.6154
 -85.5806
 -85.584
 -85.5831
 -85.6107
 -85.6081
 -85.6129
 -85.6123
 -85.5431
 -85.5383
 -85.5392
 -85.5415
 -85.5754
 -85.575
 -85.5778
 -85.5784
 -85.5746
 -85.5764
 -85.5771
 -85.5748
 -85.5373
 -85.5386
 -85.5366
 -85.5464
 -85.5444
 -85.5461
 -85.5455
 -85.6439
 -85.6449
 -85.6443
 -85.6456
 -85.5165
 -85.5124
 -85.6273
 -85.6288
 -85.6284
 -85.6272
 -85.5677
 -85.5705
 -85.5692
 -85.5676
 -85.5848
 -85.5867
 -85.5866
 -85.5871
 -85.5249
 -85.5266
 -85.5779
 -85.576
 -85.5759
 -85.5741
 -85.5653
 -85.564
 -85.5632
 -85.5663
 -85.6197
 -85.6195
 -85.6187
 -85.6201
 -85.5708
 -85.5733
 -85.5735
 -85.5701
 -85.5478
 -85.5481
 -85.5948
 -85.5949
 -85.5933
 -85.5953
 -85.6058
 -85.6052
 -85.6072
 -85.5811
 -85.5839
 -85.5828
 -85.5845
 -85.5345
 -85.5363
 -85.5336
 -85.5377
 -85.4628
 -85.4662
 -85.4655
 -85.4621
 -85.5728
 -85.5715
 -85.5743
 -85.577
 -85.5868
 -85.5899
 -85.5871
 -85.5872
 -85.562
 -85.5636
 -85.5604
 -85.5611
 -85.5494
 -85.5478
 -85.55
 -85.5514
 -85.6206
 -85.6223
 -85.5945
 -85.5933
 -85.5919
 -85.4908
 -85.4895
 -85.4875
 -85.4915
 -85.5394
 -85.5371
 -85.5402
 -85.5356
 -85.582
 -85.5825
 -85.5814
 -85.5799
 -85.6207
 -85.6214
 -85.6212
 -85.5678
 -85.5663
 -85.5631
 -85.5631
 -85.5454
 -85.5493
 -85.5478
 -85.5453
 -85.6083
 -85.6052
 -85.6052
 -85.6068
 -85.5908
 -85.5901
 -85.589
 -85.5891
 -85.6143
 -85.6147
 -85.6144
 -85.6129
 -85.6131
 -85.6135
 -85.613
 -85.5589
 -85.5598
 -85.5572
 -85.5563
 -85.5708
 -85.5693
 -85.572
 -85.4693
 -85.4701
 -85.4697
 -85.4677
 -85.5478
 -85.5481
 -85.5144
 -85.5123
 -85.5156
 -85.5176
 -85.5366
 -85.5268
 -85.6243
 -85.549
 -85.5462
 -85.5481
 -85.545
 -85.6411
 -85.5943
 -85.5926
 -85.5941
 -85.591
 -85.5478
 -85.5498
 -85.5485
 -85.5599
 -85.5626
 -85.5626
 -85.6164
 -85.6169
 -85.614
 -85.6167
 -85.6174
 -85.6161
 -85.6176
 -85.616
 -85.5313
 -85.5274
 -85.5274
 -85.53
 -85.6328
 -85.6329
 -85.6341
 -85.6317
 -85.5755
 -85.5733
 -85.5706
 -85.6166
 -85.6179
 -85.6174
 -85.5852
 -85.5827
 -85.5836
 -85.5857
 -85.5491
 -85.5508
 -85.5475
 -85.5483
 -85.5871
 -85.5909
 -85.5869
 -85.5531
 -85.5545
 -85.5544
 -85.5515
 -85.5676
 -85.5713
 -85.6182
 -85.6199
 -85.6205
 -85.6223
 -85.6245
 -85.627
 -85.6255
 -85.625
 -85.5354
 -85.5383
 -85.5346
 -85.5376
 -85.6058
 -85.6025
 -85.6045
 -85.6066
 -85.5923
 -85.5884
 -85.5914
 -85.5937
 -85.5629
 -85.5603
 -85.5645
 -85.5622
 -85.6218
 -85.6206
 -85.6199
 -85.6187
 -85.5686
 -85.5656
 -85.5704
 -85.5688
 -85.5762
 -85.5747
 -85.5745
 -85.5787
 -85.5675
 -85.5656
 -85.5681
 -85.5685
 -85.5398
 -85.543
 -85.5318
 -85.5339
 -85.5359
 -85.5322
 -85.5084
 -85.5041
 -85.5078
 -85.5088
 -85.5932
 -85.593
 -85.5921
 -85.5952
 -85.5879
 -85.5857
 -85.5852
 -85.6351
 -85.6354
 -85.6355
 -85.6354
 -85.6377
 -85.6389
 -85.637
 -85.6273
 -85.6284
 -85.6256
 -85.5859
 -85.589
 -85.5906
 -85.5868
 -85.6017
 -85.6029
 -85.6043
 -85.6002
 -85.6182
 -85.62
 -85.6189
 -85.6204
 -85.5509
 -85.5479
 -85.5487
 -85.5503
 -85.517
 -85.5191
 -85.5209
 -85.5208
 -85.6397
 -85.6402
 -85.6382
 -85.6414
 -85.544
 -85.543
 -85.5414
 -85.5443
 -85.5815
 -85.5812
 -85.5827
 -85.5806
 -85.6409
 -85.6408
 -85.6387
 -85.6423
 -85.5942
 -85.5915
 -85.5952
 -85.5942
 -85.5658
 -85.5646
 -85.5661
 -85.5648
 -85.5457
 -85.5434
 -85.5439
 -85.5268
 -85.5301
 -85.5281
 -85.5263
 -85.5371
 -85.5363
 -85.5376
 -85.5359
 -85.5333
 -85.5329
 -85.5417
 -85.5436
 -85.5382
 -85.6131
 -85.6115
 -85.6113
 -85.6109
 -85.6334
 -85.6326
 -85.6328
 -85.6327
 -85.5994
 -85.5983
 -85.5995
 -85.5961
 -85.5693
 -85.6225
 -85.6235
 -85.6233
 -85.6217
 -85.5293
 -85.5293
 -85.529
 -85.5287
 -85.635
 -85.6359
 -85.6347
 -85.6369
 -85.5564
 -85.5547
 -85.5586
 -85.6056
 -85.5272
 -85.5269
 -85.5245
 -85.54
 -85.538
 -85.5362
 -85.5409
 -85.5798
 -85.5796
 -85.5755
 -85.5787
 -85.6101
 -85.61
 -85.6082
 -85.6119
 -85.5693
 -85.6051
 -85.6038
 -85.6036
 -85.571
 -85.5707
 -85.5711
 -85.5741
 -85.5534
 -85.5542
 -85.5521
 -85.5518
 -85.5601
 -85.557
 -85.5592
 -85.5601
 -85.6062
 -85.5433
 -85.544
 -85.5451
 -85.6122
 -85.6106
 -85.6131
 -85.6115
 -85.6216
 -85.6209
 -85.6235
 -85.6201
 -85.6315
 -85.6325
 -85.6312
 -85.5519
 -85.5521
 -85.5502
 -85.552
 -85.5204
 -85.5188
 -85.5204
 -85.6159
 -85.6159
 -85.6204
 -85.6195
 -85.6185
 -85.6183
 -85.5702
 -85.5714
 -85.5729
 -85.6365
 -85.6363
 -85.6376
 -85.6362
 -85.6209
 -85.6204
 -85.6213
 -85.6218
 -85.5965
 -85.597
 -85.5984
 -85.5992
 -85.5832
 -85.5841
 -85.5823
 -85.58
 -85.5457
 -85.5455
 -85.5446
 -85.5467
 -85.6199
 -85.6199
 -85.6186
 -85.6214
 -85.5539
 -85.5548
 -85.5511
 -85.5619
 -85.5642
 -85.565
 -85.5652
 -85.6322
 -85.6316
 -85.6341
 -85.6331
 -85.6038
 -85.6039
 -85.6035
 -85.6022
 -85.6378
 -85.6367
 -85.635
 -85.6373
 -85.5585
 -85.5603
 -85.5616
 -85.5612
 -85.5819
 -85.5825
 -85.5798
 -85.5846
 -85.6257
 -85.6253
 -85.6268
 -85.626
 -85.579
 -85.5812
 -85.5777
 -85.5784
 -85.638
 -85.6394
 -85.6381
 -85.5497
 -85.5485
 -85.5484
 -85.5489
 -85.5879
 -85.5879
 -85.5865
 -85.5851
 -85.5937
 -85.5959
 -85.5938
 -85.5945
 -85.5752
 -85.5737
 -85.578
 -85.5748
 -85.6216
 -85.6217
 -85.624
 -85.6222
 -85.5735
 -85.5703
 -85.5722
 -85.5715
 -85.5935
 -85.5928
 -85.5927
 -85.5916
 -85.5281
 -85.5281
 -85.5278
 -85.5282
 -85.6155
 -85.6159
 -85.614
 -85.6128
 -85.5244
 -85.5242
 -85.5243
 -85.5459
 -85.5444
 -85.5445
 -85.5462
 -85.5326
 -85.5343
 -85.5398
 -85.5352
 -85.6084
 -85.6078
 -85.6093
 -85.6107
 -85.5996
 -85.6027
 -85.5999
 -85.6008
 -85.5556
 -85.5528
 -85.5532
 -85.5514
 -85.6428
 -85.642
 -85.6409
 -85.4707
 -85.4699
 -85.5925
 -85.5943
 -85.591
 -85.5927
 -85.4985
 -85.4948
 -85.491
 -85.4941
 -85.5992
 -85.6
 -85.6027
 -85.6012
 -85.5629
 -85.5552
 -85.5538
 -85.5532
 -85.5515
 -85.6115
 -85.6118
 -85.6123
 -85.6134
 -85.6271
 -85.6256
 -85.6282
 -85.6265
 -85.5281
 -85.528
 -85.6047
 -85.606
 -85.6095
 -85.6057
 -85.5866
 -85.5816
 -85.5873
 -85.5846
 -85.544
 -85.5439
 -85.5423
 -85.5479
 -85.5735
 -85.5706
 -85.5703
 -85.5734
 -85.6181
 -85.6157
 -85.621
 -85.6343
 -85.6337
 -85.6338
 -85.6336
 -85.64
 -85.64
 -85.6407
 -85.5566
 -85.5551
 -85.5556
 -85.5575
 -85.6275
 -85.6264
 -85.6255
 -85.6254
 -85.5343
 -85.5324
 -85.5332
 -85.5335
 -85.5986
 -85.5972
 -85.5989
 -85.5955
 -85.5865
 -85.5897
 -85.5871
 -85.5871
 -85.6339
 -85.6339
 -85.6337
 -85.6349
 -85.6025
 -85.6035
 -85.6021
 -85.6004
 -85.4885
 -85.4866
 -85.4861
 -85.4887
 -85.5689
 -85.5642
 -85.5683
 -85.5657
 -85.5555
 -85.5587
 -85.5591
 -85.5549
 -85.6094
 -85.61
 -85.6079
 -85.6067
 -85.5372
 -85.5355
 -85.5348
 -85.5349
 -85.5911
 -85.5892
 -85.5889
 -85.592
 -85.5509
 -85.5495
 -85.5483
 -85.5155
 -85.5139
 -85.5134
 -85.513
 -85.5909
 -85.5935
 -85.5898
 -85.5968
 -85.5967
 -85.5955
 -85.5432
 -85.5412
 -85.5392
 -85.5349
 -85.5347
 -85.5359
 -85.5369
 -85.6263
 -85.4414
 -85.4427
 -85.4421
 -85.44
 -85.621
 -85.6199
 -85.6225
 -85.6208
 -85.5275
 -85.5606
 -85.56
 -85.5598
 -85.5628
 -85.5557
 -85.5536
 -85.5595
 -85.5395
 -85.5437
 -85.5417
 -85.5405
 -85.4929
 -85.4925
 -85.4948
 -85.4899
 -85.5338
 -85.5356
 -85.5352
 -85.5839
 -85.5826
 -85.5824
 -85.5565
 -85.5554
 -85.6446
 -85.643
 -85.6429
 -85.5329
 -85.5358
 -85.5321
 -85.558
 -85.5602
 -85.5614
 -85.6272
 -85.6292
 -85.6291
 -85.6114
 -85.6115
 -85.6134
 -85.6118
 -85.5438
 -85.5449
 -85.5462
 -85.5239
 -85.5212
 -85.6333
 -85.6323
 -85.6345
 -85.6338
 -85.5029
 -85.5043
 -85.4999
 -85.5064
 -85.5325
 -85.5315
 -85.4621
 -85.4596
 -85.4793
 -85.4788
 -85.48
 -85.5598
 -85.5622
 -85.5589
 -85.6316
 -85.6298
 -85.6282
 -85.6037
 -85.6035
 -85.6056
 -85.5469
 -85.5469
 -85.5497
 -85.5513
 -85.5487
 -85.6246
 -85.5233
 -85.5232
 -85.5243
 -85.5244
 -85.5568
 -85.5618
 -85.558
 -85.5587
 -85.6092
 -85.6093
 -85.6109
 -85.6028
 -85.6032
 -85.6017
 -85.6023
 -85.5601
 -85.5588
 -85.5616
 -85.564
 -85.6064
 -85.6068
 -85.6094
 -85.6091
 -85.6125
 -85.611
 -85.6122
 -85.6143
 -85.5758
 -85.6052
 -85.6065
 -85.6066
 -85.6076
 -85.6372
 -85.638
 -85.6369
 -85.6362
 -85.5385
 -85.5335
 -85.5324
 -85.5357
 -85.6338
 -85.6356
 -85.6348
 -85.6345
 -85.4587
 -85.461
 -85.4582
 -85.6312
 -85.63
 -85.6329
 -85.6323
 -85.5401
 -85.5396
 -85.5368
 -85.537
 -85.6169
 -85.6147
 -85.6164
 -85.618
 -85.5332
 -85.5334
 -85.5271
 -85.5286
 -85.6371
 -85.6165
 -85.6138
 -85.6152
 -85.613
 -85.6262
 -85.6277
 -85.6274
 -85.5235
 -85.5249
 -85.523
 -85.522
 -85.6077
 -85.6061
 -85.6059
 -85.6045
 -85.5905
 -85.5934
 -85.5934
 -85.5922
 -85.5861
 -85.5874
 -85.5846
 -85.5839
 -85.6425
 -85.6409
 -85.5644
 -85.5645
 -85.5641
 -85.5601
 -85.5626
 -85.5638
 -85.5649
 -85.6062
 -85.6043
 -85.6081
 -85.6089
 -85.6039
 -85.6049
 -85.6047
 -85.6069
 -85.5923
 -85.5932
 -85.5945
 -85.5914
 -85.5425
 -85.5421
 -85.5508
 -85.5492
 -85.5489
 -85.5584
 -85.5604
 -85.5604
 -85.5607
 -85.517
 -85.5144
 -85.5156
 -85.5152
 -85.5572
 -85.5545
 -85.5522
 -85.4922
 -85.4923
 -85.4954
 -85.5572
 -85.5572
 -85.5549
 -85.5592
 -85.5407
 -85.5439
 -85.539
 -85.574
 -85.6078
 -85.6063
 -85.6096
 -85.5643
 -85.5638
 -85.5658
 -85.5672
 -85.5311
 -85.5311
 -85.5378
 -85.5346
 -85.578
 -85.5804
 -85.5809
 -85.5809
 -85.6151
 -85.6136
 -85.6426
 -85.6416
 -85.6408
 -85.6426
 -85.6069
 -85.6072
 -85.6085
 -85.6053
 -85.568
 -85.5676
 -85.5673
 -85.5691
 -85.6368
 -85.6371
 -85.6398
 -85.6358
 -85.6362
 -85.6367
 -85.6373
 -85.5805
 -85.5779
 -85.5761
 -85.5791
 -85.5309
 -85.5302
 -85.5319
 -85.5645
 -85.5644
 -85.5676
 -85.5644
 -85.5204
 -85.5172
 -85.5213
 -85.5168
 -85.5991
 -85.5993
 -85.6
 -85.5939
 -85.5286
 -85.5286
 -85.5285
 -85.5291
 -85.5447
 -85.5461
 -85.5469
 -85.5458
 -85.6321
 -85.63
 -85.6328
 -85.6305
 -85.5797
 -85.5799
 -85.5774
 -85.58
 -85.5565
 -85.5549
 -85.5574
 -85.5551
 -85.6109
 -85.6109
 -85.613
 -85.6166
 -85.6153
 -85.6149
 -85.5616
 -85.5648
 -85.5636
 -85.5676
 -85.5688
 -85.5707
 -85.5697
 -85.5697
 -85.5313
 -85.533
 -85.5308
 -85.5596
 -85.5576
 -85.5559
 -85.449
 -85.4464
 -85.4489
 -85.4472
 -85.5466
 -85.5475
 -85.5232
 -85.525
 -85.5235
 -85.5206
 -85.5875
 -85.5846
 -85.5871
 -85.584
 -85.494
 -85.4982
 -85.4994
 -85.4964
 -85.5383
 -85.5377
 -85.5354
 -85.6021
 -85.6026
 -85.602
 -85.6009
 -85.5366
 -85.5393
 -85.5357
 -85.5294
 -85.53
 -85.5265
 -85.5277
 -85.5568
 -85.5554
 -85.5557
 -85.5587
 -85.6115
 -85.6169
 -85.4783
 -85.4799
 -85.5441
 -85.5421
 -85.5698
 -85.5672
 -85.5683
 -85.5676
 -85.5985
 -85.6008
 -85.5988
 -85.6017
 -85.5741
 -85.5744
 -85.5759
 -85.5763
 -85.5215
 -85.5165
 -85.5199
 -85.5191
 -85.5888
 -85.5861
 -85.5871
 -85.5316
 -85.5303
 -85.5313
 -85.5311
 -85.6276
 -85.627
 -85.6289
 -85.6262
 -85.6001
 -85.6002
 -85.6006
 -85.5978
 -85.5344
 -85.536
 -85.5336
 -85.5678
 -85.5644
 -85.5675
 -85.5687
 -85.5223
 -85.5214
 -85.5226
 -85.5369
 -85.5403
 -85.5392
 -85.5374
 -85.5366
 -85.5361
 -85.5387
 -85.5369
 -85.5669
 -85.5643
 -85.5639
 -85.5627
 -85.6369
 -85.6361
 -85.6351
 -85.6355
 -85.5929
 -85.596
 -85.5947
 -85.5955
 -85.5649
 -85.5613
 -85.5637
 -85.5818
 -85.5806
 -85.5803
 -85.6258
 -85.6229
 -85.6257
 -85.6239
 -85.5933
 -85.5934
 -85.5912
 -85.5948
 -85.5625
 -85.5651
 -85.5652
 -85.5657
 -85.5171
 -85.5174
 -85.5339
 -85.5326
 -85.5351
 -85.5351
 -85.4699
 -85.4686
 -85.4651
 -85.469
 -85.6096
 -85.6098
 -85.6098
 -85.6085
 -85.5394
 -85.5366
 -85.5374
 -85.5371
 -85.5747
 -85.5723
 -85.5737
 -85.5705
 -85.5112
 -85.5097
 -85.5102
 -85.5095
 -85.5834
 -85.5824
 -85.5812
 -85.581
 -85.5674
 -85.6051
 -85.6048
 -85.6022
 -85.6029
 -85.5629
 -85.5594
 -85.5588
 -85.5616
 -85.5602
 -85.562
 -85.564
 -85.5629
 -85.5531
 -85.5502
 -85.5509
 -85.5498
 -85.5324
 -85.5296
 -85.534
 -85.618
 -85.6183
 -85.6189
 -85.6147
 -85.5606
 -85.5599
 -85.5598
 -85.5588
 -85.6157
 -85.6164
 -85.6183
 -85.6013
 -85.5992
 -85.6008
 -85.6001
 -85.6122
 -85.6155
 -85.614
 -85.616
 -85.5258
 -85.5288
 -85.5254
 -85.4399
 -85.441
 -85.4414
 -85.6026
 -85.6058
 -85.6051
 -85.5837
 -85.5882
 -85.5862
 -85.5892
 -85.5564
 -85.5576
 -85.5588
 -85.556
 -85.5649
 -85.5657
 -85.5619
 -85.5628
 -85.4857
 -85.4878
 -85.4824
 -85.4884
 -85.575
 -85.5737
 -85.5733
 -85.573
 -85.5907
 -85.5914
 -85.593
 -85.5894
 -85.5391
 -85.5397
 -85.5457
 -85.5409
 -85.5433
 -85.5436
 -85.6032
 -85.6013
 -85.6027
 -85.6022
 -85.5376
 -85.5399
 -85.594
 -85.5927
 -85.5227
 -85.4456
 -85.4452
 -85.4454
 -85.4478
 -85.51
 -85.5133
 -85.6397
 -85.6415
 -85.6401
 -85.5175
 -85.5201
 -85.5226
 -85.5202
 -85.6061
 -85.6055
 -85.5448
 -85.5441
 -85.5445
 -85.5447
 -85.5528
 -85.5577
 -85.5561
 -85.6057
 -85.6074
 -85.6062
 -85.6088
 -85.5955
 -85.5981
 -85.5954
 -85.5967
 -85.6207
 -85.6212
 -85.6234
 -85.5653
 -85.5626
 -85.5656
 -85.5619
 -85.5739
 -85.6209
 -85.6179
 -85.6203
 -85.6198
 -85.5242
 -85.5237
 -85.5249
 -85.5259
 -85.5803
 -85.5775
 -85.5799
 -85.5772
 -85.6097
 -85.6067
 -85.609
 -85.607
 -85.4601
 -85.4612
 -85.4625
 -85.4632
 -85.5344
 -85.6369
 -85.5587
 -85.5624
 -85.5598
 -85.5571
 -85.5791
 -85.5812
 -85.578
 -85.5773
 -85.54
 -85.5364
 -85.5384
 -85.5392
 -85.5841
 -85.5829
 -85.5841
 -85.5847
 -85.5325
 -85.5328
 -85.5349
 -85.5287
 -85.5308
 -85.5326
 -85.5306
 -85.5638
 -85.5663
 -85.5619
 -85.564
 -85.6099
 -85.6115
 -85.6071
 -85.6425
 -85.644
 -85.6427
 -85.6422
 -85.484
 -85.4814
 -85.4805
 -85.572
 -85.5722
 -85.5661
 -85.5673
 -85.5643
 -85.5685
 -85.63
 -85.6293
 -85.6297
 -85.6308
 -85.6028
 -85.6009
 -85.6022
 -85.6003
 -85.5318
 -85.536
 -85.5332
 -85.5037
 -85.5625
 -85.5599
 -85.5607
 -85.5629
 -85.5689
 -85.5703
 -85.5698
 -85.6007
 -85.5995
 -85.5995
 -85.6015
 -85.6114
 -85.6084
 -85.6105
 -85.6092
 -85.5595
 -85.5579
 -85.6042
 -85.6039
 -85.6054
 -85.6071
 -85.586
 -85.5852
 -85.5855
 -85.5879
 -85.6352
 -85.636
 -85.5914
 -85.5888
 -85.5915
 -85.5902
 -85.6044
 -85.6055
 -85.6063
 -85.607
 -85.6005
 -85.6021
 -85.6003
 -85.6007
 -85.5725
 -85.5737
 -85.5643
 -85.5657
 -85.5633
 -85.5618
 -85.5514
 -85.549
 -85.5503
 -85.5506
 -85.5853
 -85.5872
 -85.5872
 -85.5853
 -85.5301
 -85.5322
 -85.5335
 -85.5347
 -85.5398
 -85.5391
 -85.5381
 -85.5392
 -85.4764
 -85.4779
 -85.4773
 -85.4741
 -85.551
 -85.5468
 -85.582
 -85.5781
 -85.5813
 -85.5796
 -85.5589
 -85.5579
 -85.5602
 -85.5617
 -85.5771
 -85.5789
 -85.5799
 -85.5782
 -85.5663
 -85.5662
 -85.6052
 -85.604
 -85.6395
 -85.64
 -85.6399
 -85.6405
 -85.52
 -85.5647
 -85.5646
 -85.5656
 -85.5674
 -85.5769
 -85.5739
 -85.5747
 -85.5747
 -85.5463
 -85.5445
 -85.5437
 -85.5413
 -85.5996
 -85.5965
 -85.5995
 -85.5967
 -85.5788
 -85.5769
 -85.576
 -85.5786
 -85.5321
 -85.5315
 -85.5332
 -85.53
 -85.529
 -85.5557
 -85.5594
 -85.5559
 -85.5588
 -85.5556
 -85.56
 -85.5564
 -85.5547
 -85.5329
 -85.5329
 -85.5307
 -85.5327
 -85.5401
 -85.5412
 -85.5448
 -85.5434
 -85.5665
 -85.5689
 -85.5648
 -85.5646
 -85.5334
 -85.5322
 -85.5313
 -85.5321
 -85.5827
 -85.5838
 -85.58
 -85.5473
 -85.5472
 -85.5468
 -85.5462
 -85.4978
 -85.5002
 -85.5814
 -85.583
 -85.5839
 -85.5795
 -85.5829
 -85.5814
 -85.5829
 -85.5242
 -85.5261
 -85.5274
 -85.5167
 -85.518
 -85.518
 -85.5167
 -85.5928
 -85.5925
 -85.594
 -85.5911
 -85.5792
 -85.5755
 -85.5795
 -85.6147
 -85.6111
 -85.6126
 -85.5703
 -85.5681
 -85.5687
 -85.6206
 -85.6208
 -85.6208
 -85.468
 -85.4657
 -85.4664
 -85.468
 -85.6357
 -85.6362
 -85.6354
 -85.6363
 -85.551
 -85.5489
 -85.5856
 -85.5826
 -85.5312
 -85.5317
 -85.5314
 -85.5339
 -85.5898
 -85.5889
 -85.5921
 -85.607
 -85.6089
 -85.6087
 -85.6091
 -85.6197
 -85.6166
 -85.5249
 -85.5251
 -85.5243
 -85.5826
 -85.582
 -85.5797
 -85.5434
 -85.5404
 -85.5434
 -85.5252
 -85.5251
 -85.5238
 -85.523
 -85.5627
 -85.5635
 -85.561
 -85.5644
 -85.5591
 -85.556
 -85.5572
 -85.5585
 -85.5974
 -85.5965
 -85.5963
 -85.599
 -85.6061
 -85.6047
 -85.6057
 -85.6031
 -85.5552
 -85.5546
 -85.5575
 -85.5931
 -85.5927
 -85.5911
 -85.6019
 -85.6039
 -85.6022
 -85.6026
 -85.6449
 -85.6443
 -85.6453
 -85.5736
 -85.573
 -85.5728
 -85.5998
 -85.6012
 -85.5979
 -85.5698
 -85.5716
 -85.5685
 -85.5489
 -85.5457
 -85.5462
 -85.5258
 -85.5273
 -85.5264
 -85.5268
 -85.5705
 -85.5697
 -85.5727
 -85.5703
 -85.5434
 -85.5421
 -85.5399
 -85.5312
 -85.534
 -85.5989
 -85.5972
 -85.6011
 -85.5988
 -85.599
 -85.6009
 -85.5984
 -85.5964
 -85.5335
 -85.5362
 -85.5375
 -85.5385
 -85.5319
 -85.5296
 -85.5307
 -85.5292
 -85.5077
 -85.5063
 -85.5079
 -85.5053
 -85.6286
 -85.6296
 -85.6172
 -85.6147
 -85.6159
 -85.6174
 -85.6348
 -85.5475
 -85.5504
 -85.5469
 -85.5758
 -85.5768
 -85.5745
 -85.5741
 -85.534
 -85.5335
 -85.5675
 -85.5674
 -85.5691
 -85.5219
 -85.5229
 -85.6138
 -85.6141
 -85.6162
 -85.6124
 -85.6218
 -85.6214
 -85.6246
 -85.6232
 -85.6091
 -85.6098
 -85.6072
 -85.5504
 -85.5525
 -85.5522
 -85.62
 -85.6199
 -85.6207
 -85.6213
 -85.5427
 -85.539
 -85.5419
 -85.5432
 -85.6111
 -85.6095
 -85.6094
 -85.611
 -85.5435
 -85.54
 -85.5393
 -85.545
 -85.527
 -85.5283
 -85.5256
 -85.6353
 -85.6381
 -85.6365
 -85.6361
 -85.5295
 -85.5305
 -85.5301
 -85.5623
 -85.5637
 -85.5658
 -85.5637
 -85.6312
 -85.6332
 -85.6321
 -85.5425
 -85.5401
 -85.5425
 -85.5407
 -85.5925
 -85.6271
 -85.6281
 -85.6242
 -85.6266
 -85.5215
 -85.5222
 -85.5234
 -85.5222
 -85.6008
 -85.5968
 -85.5996
 -85.6009
 -85.5744
 -85.5753
 -85.5712
 -85.527
 -85.5253
 -85.5279
 -85.5214
 -85.5951
 -85.5948
 -85.5964
 -85.5396
 -85.5387
 -85.4717
 -85.4688
 -85.4724
 -85.4737
 -85.5089
 -85.503
 -85.5023
 -85.6212
 -85.6202
 -85.6253
 -85.6224
 -85.6221
 -85.6232
 -85.5144
 -85.516
 -85.5123
 -85.5163
 -85.559
 -85.5605
 -85.5605
 -85.561
 -85.5674
 -85.5637
 -85.5641
 -85.5655
 -85.5805
 -85.5795
 -85.5826
 -85.5797
 -85.5823
 -85.578
 -85.5809
 -85.5789
 -85.6308
 -85.5317
 -85.5308
 -85.5319
 -85.5311
 -85.6324
 -85.6314
 -85.6334
 -85.5847
 -85.5819
 -85.5808
 -85.5816
 -85.5249
 -85.5277
 -85.5284
 -85.5778
 -85.5754
 -85.5773
 -85.5752
 -85.5708
 -85.5967
 -85.5976
 -85.6002
 -85.5993
 -85.5445
 -85.5445
 -85.5444
 -85.5714
 -85.5761
 -85.5746
 -85.6328
 -85.6318
 -85.6302
 -85.6317
 -85.5687
 -85.5675
 -85.5669
 -85.4607
 -85.4623
 -85.4588
 -85.5686
 -85.5667
 -85.5682
 -85.5642
 -85.5983
 -85.6006
 -85.6002
 -85.5736
 -85.5736
 -85.6206
 -85.6213
 -85.6194
 -85.6196
 -85.6092
 -85.6111
 -85.6098
 -85.6097
 -85.6374
 -85.637
 -85.6358
 -85.6351
 -85.5812
 -85.5761
 -85.5797
 -85.5811
 -85.6039
 -85.6034
 -85.6023
 -85.6011
 -85.6206
 -85.6221
 -85.6233
 -85.5411
 -85.5427
 -85.5385
 -85.54
 -85.5653
 -85.5681
 -85.5538
 -85.552
 -85.5545
 -85.5533
 -85.5985
 -85.5978
 -85.5982
 -85.5995
 -85.5685
 -85.5713
 -85.5701
 -85.568
 -85.5971
 -85.5959
 -85.5994
 -85.5965
 -85.5727
 -85.5737
 -85.5754
 -85.576
 -85.5704
 -85.568
 -85.5685
 -85.618
 -85.6165
 -85.6179
 -85.6285
 -85.628
 -85.6276
 -85.6308
 -85.6241
 -85.6239
 -85.6254
 -85.6047
 -85.6074
 -85.605
 -85.4818
 -85.4809
 -85.4786
 -85.565
 -85.5685
 -85.5657
 -85.6164
 -85.6176
 -85.6166
 -85.6162
 -85.5648
 -85.5661
 -85.5645
 -85.5818
 -85.5834
 -85.5826
 -85.5806
 -85.5922
 -85.5866
 -85.5887
 -85.5882
 -85.5706
 -85.5727
 -85.5725
 -85.5746
 -85.5362
 -85.5381
 -85.5364
 -85.5354
 -85.5659
 -85.582
 -85.5819
 -85.5835
 -85.5785
 -85.5292
 -85.5298
 -85.5302
 -85.5301
 -85.5257
 -85.5279
 -85.5263
 -85.5276
 -85.5324
 -85.5332
 -85.5331
 -85.5313
 -85.5935
 -85.5935
 -85.5962
 -85.5977
 -85.5415
 -85.5396
 -85.5408
 -85.5414
 -85.637
 -85.6352
 -85.6367
 -85.6353
 -85.5027
 -85.5042
 -85.5066
 -85.5061
 -85.5382
 -85.5384
 -85.5378
 -85.5203
 -85.5187
 -85.5179
 -85.518
 -85.5292
 -85.5276
 -85.5309
 -85.5313
 -85.5317
 -85.5752
 -85.5748
 -85.5763
 -85.5806
 -85.6291
 -85.6272
 -85.6264
 -85.6285
 -85.6281
 -85.6292
 -85.6275
 -85.5347
 -85.533
 -85.6343
 -85.6358
 -85.6338
 -85.6184
 -85.618
 -85.6183
 -85.6203
 -85.5292
 -85.528
 -85.5291
 -85.6365
 -85.637
 -85.6357
 -85.6376
 -85.552
 -85.5529
 -85.5549
 -85.5505
 -85.5332
 -85.5296
 -85.5309
 -85.5334
 -85.5195
 -85.5232
 -85.5216
 -85.521
 -85.4919
 -85.4926
 -85.4903
 -85.4902
 -85.588
 -85.5925
 -85.5905
 -85.5917
 -85.5549
 -85.5553
 -85.554
 -85.5507
 -85.6354
 -85.6338
 -85.6353
 -85.456
 -85.4596
 -85.4575
 -85.4613
 -85.5085
 -85.5119
 -85.5097
 -85.5127
 -85.6353
 -85.6375
 -85.6364
 -85.6361
 -85.5726
 -85.5728
 -85.5754
 -85.6234
 -85.6261
 -85.6267
 -85.5337
 -85.5332
 -85.5296
 -85.6357
 -85.6347
 -85.6342
 -85.6351
 -85.6181
 -85.6169
 -85.6164
 -85.6146
 -85.5444
 -85.5461
 -85.5482
 -85.5457
 -85.555
 -85.5521
 -85.5545
 -85.551
 -85.6103
 -85.6104
 -85.6106
 -85.6131
 -85.579
 -85.5777
 -85.5757
 -85.577
 -85.4983
 -85.5015
 -85.5019
 -85.5011
 -85.6207
 -85.6166
 -85.6192
 -85.618
 -85.6379
 -85.5747
 -85.5754
 -85.5774
 -85.5772
 -85.6272
 -85.6285
 -85.6278
 -85.63
 -85.5297
 -85.5298
 -85.5301
 -85.5302
 -85.6338
 -85.6351
 -85.633
 -85.6323
 -85.5692
 -85.5684
 -85.5562
 -85.5548
 -85.5571
 -85.5578
 -85.608
 -85.6054
 -85.6053
 -85.6054
 -85.5822
 -85.5851
 -85.5842
 -85.5544
 -85.5539
 -85.555
 -85.6094
 -85.6088
 -85.6065
 -85.6068
 -85.6029
 -85.6016
 -85.6041
 -85.6021
 -85.535
 -85.5334
 -85.5328
 -85.5708
 -85.5765
 -85.5769
 -85.5731
 -85.5034
 -85.5021
 -85.5054
 -85.5008
 -85.4981
 -85.6358
 -85.632
 -85.6358
 -85.6333
 -85.5753
 -85.574
 -85.5725
 -85.5754
 -85.6229
 -85.6243
 -85.5637
 -85.5593
 -85.5599
 -85.5426
 -85.5402
 -85.5441
 -85.5433
 -85.6343
 -85.6335
 -85.6352
 -85.6351
 -85.5325
 -85.5331
 -85.5329
 -85.5445
 -85.5437
 -85.546
 -85.544
 -85.5534
 -85.5569
 -85.5542
 -85.5508
 -85.5975
 -85.6018
 -85.5987
 -85.6001
 -85.5395
 -85.543
 -85.5411
 -85.5406
 -85.6063
 -85.589
 -85.5921
 -85.593
 -85.5882
 -85.628
 -85.6287
 -85.6263
 -85.6322
 -85.6315
 -85.6313
 -85.63
 -85.5911
 -85.5928
 -85.5897
 -85.5913
 -85.6401
 -85.6399
 -85.6398
 -85.638
 -85.5541
 -85.5842
 -85.5803
 -85.5804
 -85.5832
 -85.5757
 -85.5713
 -85.5736
 -85.5742
 -85.4928
 -85.4963
 -85.4973
 -85.494
 -85.5671
 -85.5679
 -85.5689
 -85.5655
 -85.5628
 -85.5629
 -85.5638
 -85.5655
 -85.5649
 -85.5653
 -85.5677
 -85.6233
 -85.6215
 -85.6207
 -85.5625
 -85.5591
 -85.5601
 -85.5611
 -85.6204
 -85.6234
 -85.6219
 -85.5715
 -85.5693
 -85.5785
 -85.5803
 -85.5795
 -85.5776
 -85.5767
 -85.5776
 -85.5742
 -85.5748
 -85.5784
 -85.5772
 -85.6258
 -85.6267
 -85.6267
 -85.5545
 -85.6312
 -85.582
 -85.5839
 -85.5815
 -85.579
 -85.5291
 -85.529
 -85.526
 -85.5359
 -85.539
 -85.5404
 -85.5776
 -85.5787
 -85.5756
 -85.5695
 -85.5694
 -85.5707
 -85.5723
 -85.5759
 -85.5734
 -85.5775
 -85.5738
 -85.4581
 -85.459
 -85.4557
 -85.6094
 -85.607
 -85.6089
 -85.5693
 -85.5701
 -85.6153
 -85.6123
 -85.6133
 -85.612
 -85.5858
 -85.5881
 -85.5857
 -85.4937
 -85.495
 -85.4909
 -85.4922
 -85.5619
 -85.5587
 -85.5616
 -85.5587
 -85.5371
 -85.5361
 -85.5349
 -85.5343
 -85.5967
 -85.5932
 -85.5954
 -85.5966
 -85.5497
 -85.547
 -85.5493
 -85.5456
 -85.503
 -85.5024
 -85.5027
 -85.5537
 -85.5527
 -85.5513
 -85.552
 -85.597
 -85.5999
 -85.5986
 -85.5991
 -85.5725
 -85.5756
 -85.5759
 -85.5743
 -85.5414
 -85.5403
 -85.5418
 -85.5596
 -85.5573
 -85.5582
 -85.558
 -85.5361
 -85.5331
 -85.5364
 -85.534
 -85.5219
 -85.5256
 -85.5244
 -85.5208
 -85.6342
 -85.6351
 -85.6343
 -85.635
 -85.5336
 -85.5356
 -85.535
 -85.5356
 -85.54
 -85.5381
 -85.5406
 -85.5406
 -85.5925
 -85.5956
 -85.5949
 -85.5967
 -85.5518
 -85.5512
 -85.554
 -85.5527
 -85.6438
 -85.6442
 -85.6441
 -85.6445
 -85.5649
 -85.5636
 -85.5661
 -85.527
 -85.5253
 -85.5258
 -85.5283
 -85.5326
 -85.5316
 -85.5322
 -85.5315
 -85.5326
 -85.5282
 -85.6022
 -85.5995
 -85.602
 -85.5987
 -85.6431
 -85.6421
 -85.6427
 -85.6424
 -85.5583
 -85.5556
 -85.557
 -85.5554
 -85.5357
 -85.5344
 -85.5341
 -85.5958
 -85.5931
 -85.5933
 -85.5952
 -85.5647
 -85.5646
 -85.5654
 -85.568
 -85.5429
 -85.5434
 -85.5428
 -85.5451
 -85.525
 -85.5287
 -85.5265
 -85.6112
 -85.6138
 -85.6149
 -85.6118
 -85.6191
 -85.6187
 -85.6169
 -85.5587
 -85.558
 -85.5601
 -85.5619
 -85.561
 -85.5599
 -85.5631
 -85.5414
 -85.5445
 -85.5461
 -85.5448
 -85.5949
 -85.5937
 -85.592
 -85.5325
 -85.5324
 -85.5296
 -85.5743
 -85.5772
 -85.5762
 -85.619
 -85.6164
 -85.6183
 -85.5995
 -85.5991
 -85.5527
 -85.5546
 -85.552
 -85.5543
 -85.5554
 -85.5541
 -85.5686
 -85.5652
 -85.5427
 -85.5224
 -85.5228
 -85.5207
 -85.6216
 -85.6213
 -85.6178
 -85.5587
 -85.5611
 -85.5602
 -85.5583
 -85.5449
 -85.5727
 -85.5743
 -85.5956
 -85.5966
 -85.5948
 -85.5975
 -85.5723
 -85.57
 -85.5729
 -85.5593
 -85.5608
 -85.5565
 -85.5595
 -85.5533
 -85.558
 -85.5623
 -85.56
 -85.5585
 -85.5634
 -85.6245
 -85.6223
 -85.6219
 -85.6237
 -85.626
 -85.6273
 -85.6293
 -85.629
 -85.5322
 -85.5342
 -85.571
 -85.5711
 -85.5698
 -85.5673
 -85.5839
 -85.5846
 -85.586
 -85.5869
 -85.5915
 -85.5939
 -85.5916
 -85.5909
 -85.569
 -85.5669
 -85.5661
 -85.569
 -85.5636
 -85.5657
 -85.5642
 -85.5632
 -85.6185
 -85.6154
 -85.6185
 -85.6182
 -85.5343
 -85.5376
 -85.5387
 -85.5409
 -85.5355
 -85.5386
 -85.5371
 -85.61
 -85.6121
 -85.6149
 -85.616
 -85.5416
 -85.5437
 -85.5427
 -85.5444
 -85.6311
 -85.6298
 -85.6311
 -85.6307
 -85.6205
 -85.6193
 -85.6202
 -85.6185
 -85.5561
 -85.5575
 -85.555
 -85.5563
 -85.6002
 -85.6011
 -85.6
 -85.5974
 -85.5434
 -85.5449
 -85.5471
 -85.5477
 -85.6093
 -85.6078
 -85.6083
 -85.5338
 -85.5353
 -85.5334
 -85.5344
 -85.5882
 -85.5869
 -85.5886
 -85.5897
 -85.5535
 -85.5542
 -85.6058
 -85.6097
 -85.6079
 -85.6073
 -85.6109
 -85.6104
 -85.6086
 -85.5655
 -85.5692
 -85.5661
 -85.6135
 -85.6137
 -85.6147
 -85.6161
 -85.5057
 -85.5065
 -85.5088
 -85.5081
 -85.5424
 -85.5437
 -85.5455
 -85.5467
 -85.5883
 -85.5848
 -85.5852
 -85.5883
 -85.6256
 -85.6263
 -85.6248
 -85.6266
 -85.6201
 -85.6221
 -85.6223
 -85.6207
 -85.6258
 -85.6254
 -85.6261
 -85.6251
 -85.626
 -85.548
 -85.5497
 -85.5478
 -85.5504
 -85.5353
 -85.5361
 -85.5322
 -85.5349
 -85.5472
 -85.5473
 -85.5534
 -85.5561
 -85.554
 -85.5533
 -85.5613
 -85.5611
 -85.5642
 -85.5611
 -85.5376
 -85.5376
 -85.5355
 -85.5763
 -85.5744
 -85.5749
 -85.5738
 -85.6447
 -85.6443
 -85.6432
 -85.549
 -85.5484
 -85.5497
 -85.5525
 -85.6143
 -85.6111
 -85.6131
 -85.6139
 -85.5974
 -85.6003
 -85.5992
 -85.5722
 -85.5705
 -85.5735
 -85.5998
 -85.6026
 -85.6
 -85.6182
 -85.6168
 -85.5976
 -85.5978
 -85.5976
 -85.5441
 -85.545
 -85.5456
 -85.5427
 -85.6284
 -85.6297
 -85.6286
 -85.6279
 -85.5887
 -85.5914
 -85.5899
 -85.4856
 -85.4818
 -85.4804
 -85.4848
 -85.5262
 -85.5246
 -85.5815
 -85.5537
 -85.5577
 -85.5551
 -85.5538
 -85.576
 -85.5792
 -85.5791
 -85.6076
 -85.6078
 -85.606
 -85.6079
 -85.6328
 -85.6334
 -85.5716
 -85.5708
 -85.5709
 -85.5689
 -85.5224
 -85.5196
 -85.5195
 -85.5224
 -85.6213
 -85.6225
 -85.6224
 -85.6214
 -85.5877
 -85.5889
 -85.5872
 -85.4627
 -85.4609
 -85.4587
 -85.4589
 -85.5342
 -85.5336
 -85.5319
 -85.5483
 -85.5504
 -85.5464
 -85.5488
 -85.5874
 -85.5878
 -85.5866
 -85.5899
 -85.5717
 -85.5738
 -85.5283
 -85.5289
 -85.5287
 -85.5288
 -85.5898
 -85.5926
 -85.5486
 -85.5446
 -85.5461
 -85.5473
 -85.5585
 -85.5597
 -85.5564
 -85.5587
 -85.5727
 -85.5757
 -85.5766
 -85.5743
 -85.5454
 -85.5439
 -85.5407
 -85.5966
 -85.5935
 -85.5969
 -85.594
 -85.611
 -85.6132
 -85.6153
 -85.6115
 -85.6079
 -85.6081
 -85.6085
 -85.6103
 -85.5199
 -85.5171
 -85.5187
 -85.5161
 -85.5748
 -85.5727
 -85.477
 -85.4739
 -85.4747
 -85.4717
 -85.5581
 -85.5555
 -85.5541
 -85.6338
 -85.4482
 -85.4494
 -85.4495
 -85.4451
 -85.568
 -85.5694
 -85.5679
 -85.568
 -85.5524
 -85.5551
 -85.5531
 -85.6093
 -85.6114
 -85.6115
 -85.609
 -85.6103
 -85.6094
 -85.6123
 -85.6122
 -85.6075
 -85.6087
 -85.6066
 -85.6056
 -85.5451
 -85.5473
 -85.5438
 -85.547
 -85.5331
 -85.5319
 -85.5303
 -85.5304
 -85.591
 -85.5914
 -85.594
 -85.5911
 -85.5595
 -85.5558
 -85.5612
 -85.5588
 -85.6425
 -85.6263
 -85.6267
 -85.5854
 -85.5854
 -85.5612
 -85.559
 -85.5596
 -85.6281
 -85.631
 -85.6293
 -85.6286
 -85.5661
 -85.5649
 -85.5853
 -85.5831
 -85.4934
 -85.4969
 -85.4931
 -85.4966
 -85.545
 -85.5439
 -85.542
 -85.5431
 -85.5888
 -85.5922
 -85.5895
 -85.5913
 -85.4997
 -85.4966
 -85.4992
 -85.5006
 -85.638
 -85.6372
 -85.6391
 -85.6378
 -85.6265
 -85.6243
 -85.632
 -85.6307
 -85.6289
 -85.6323
 -85.6122
 -85.6141
 -85.5545
 -85.5557
 -85.5535
 -85.4531
 -85.4561
 -85.4522
 -85.4527
 -85.5038
 -85.506
 -85.5067
 -85.5041
 -85.6277
 -85.6292
 -85.6277
 -85.6268
 -85.601
 -85.6044
 -85.6024
 -85.5783
 -85.5754
 -85.5736
 -85.5765
 -85.5485
 -85.5526
 -85.5494
 -85.5485
 -85.6186
 -85.6206
 -85.6198
 -85.6286
 -85.5743
 -85.578
 -85.5442
 -85.5453
 -85.597
 -85.6003
 -85.5964
 -85.5974
 -85.5325
 -85.5294
 -85.5337
 -85.5291
 -85.531
 -85.5284
 -85.5294
 -85.4585
 -85.4633
 -85.4622
 -85.4611
 -85.5478
 -85.5496
 -85.5494
 -85.5519
 -85.6199
 -85.6203
 -85.6154
 -85.6172
 -85.6166
 -85.6172
 -85.543
 -85.5426
 -85.5452
 -85.5415
 -85.6077
 -85.6063
 -85.6086
 -85.5981
 -85.5983
 -85.5989
 -85.5966
 -85.6163
 -85.6175
 -85.6151
 -85.6181
 -85.5487
 -85.5515
 -85.5505
 -85.549
 -85.6325
 -85.6298
 -85.5635
 -85.4861
 -85.4878
 -85.4895
 -85.491
 -85.6068
 -85.6065
 -85.6083
 -85.5043
 -85.502
 -85.5029
 -85.5008
 -85.5966
 -85.5963
 -85.5961
 -85.5986
 -85.528
 -85.5279
 -85.5252
 -85.5286
 -85.5386
 -85.538
 -85.5402
 -85.5406
 -85.5931
 -85.5949
 -85.5949
 -85.5543
 -85.5552
 -85.5538
 -85.552
 -85.5903
 -85.5895
 -85.5913
 -85.5873
 -85.5825
 -85.5809
 -85.6128
 -85.6136
 -85.6134
 -85.5982
 -85.5986
 -85.5962
 -85.4848
 -85.4853
 -85.4883
 -85.4856
 -85.5324
 -85.5348
 -85.5313
 -85.5357
 -85.6191
 -85.616
 -85.6163
 -85.616
 -85.614
 -85.6134
 -85.54
 -85.5454
 -85.5405
 -85.5987
 -85.5959
 -85.5968
 -85.5953
 -85.5977
 -85.5972
 -85.5961
 -85.5464
 -85.5451
 -85.5468
 -85.5472
 -85.6287
 -85.629
 -85.5553
 -85.5544
 -85.5553
 -85.5572
 -85.5436
 -85.5438
 -85.5449
 -85.6011
 -85.6019
 -85.5705
 -85.569
 -85.5707
 -85.5728
 -85.5306
 -85.5299
 -85.5922
 -85.5917
 -85.5566
 -85.5524
 -85.553
 -85.5551
 -85.5766
 -85.5767
 -85.5746
 -85.5787
 -85.5764
 -85.5748
 -85.5765
 -85.5136
 -85.5137
 -85.5123
 -85.518
 -85.5028
 -85.503
 -85.5052
 -85.5047
 -85.598
 -85.5957
