 5.93959
 5.68965
 5.74758
 5.58409
 0.761848
 0.706342
 0.544933
 0.456273
 2.22939
 2.42152
 2.18403
 2.4177
 2.00988
 2.19242
 2.26502
 2.35058
 -1.43373
 -1.66264
 -1.29909
 -1.21673
 -1.22759
 -1.00836
 -1.39053
 -1.09002
 6.85569
 7.02609
 6.97155
 6.86019
 6.77707
 6.70915
 6.70807
 6.82245
 -1.32245
 -1.22138
 -0.97892
 -1.22509
 -1.12397
 -1.16285
 -1.0754
 -1.4482
 7.44421
 7.54615
 7.38827
 7.35764
 2.20053
 2.17639
 2.37336
 2.24515
 5.03003
 5.05559
 5.20238
 4.89234
 0.591272
 0.912551
 1.01717
 0.813042
 3.14017
 3.19222
 3.06604
 2.91226
 6.29898
 6.43124
 6.20372
 6.42196
 -0.437972
 -0.600914
 -0.436471
 -0.697764
 1.65079
 1.78644
 1.59246
 1.74073
 3.07311
 3.01703
 2.98487
 2.85629
 -0.356891
 -0.34642
 -0.465453
 -0.641055
 6.70754
 6.91064
 6.69502
 6.83941
 -2.03791
 -2.06228
 -2.29918
 -2.31679
 8.93184
 9.02859
 9.03666
 8.89662
 1.18045
 1.0826
 1.30629
 1.33413
 3.3959
 3.52716
 3.35546
 3.28824
 2.79127
 2.74843
 2.86213
 2.92479
 4.26617
 4.05381
 3.95561
 4.24186
 6.35648
 6.49295
 6.33489
 6.34922
 5.14418
 5.19452
 5.36419
 5.25692
 0.834525
 0.867773
 0.972938
 1.12087
 3.2922
 2.97046
 3.35305
 3.24232
 5.01049
 4.85432
 4.86351
 5.00467
 1.65573
 1.89229
 1.63099
 1.84318
 0.709334
 0.818465
 0.825231
 0.789212
 5.01604
 5.20799
 4.99314
 5.29782
 6.09457
 6.11368
 6.13577
 6.12567
 1.77509
 2.06885
 1.82633
 1.8859
 7.17447
 7.09783
 7.06779
 7.03484
 1.3287
 1.30519
 0.923558
 1.022
 -2.68348
 -2.43797
 -2.59753
 -2.38821
 2.53595
 2.5915
 2.48943
 2.76797
 1.00968
 0.81879
 0.902511
 0.997634
 6.96841
 6.97524
 6.83441
 7.08622
 1.70784
 1.88324
 1.80744
 1.59465
 -1.26106
 -1.18318
 -1.40988
 -1.27858
 5.51683
 5.36646
 5.4327
 5.50109
 1.70007
 1.38188
 1.46541
 1.42572
 6.09564
 5.93794
 6.07097
 6.24318
 4.9501
 5.07292
 5.13798
 5.19581
 3.05842
 3.21935
 3.25069
 3.4178
 6.38316
 6.44592
 6.49969
 6.37617
 2.75011
 2.93528
 2.91482
 2.78552
 4.62852
 4.84037
 4.61338
 4.92342
 2.49663
 2.37618
 2.51235
 2.38302
 5.22361
 5.06636
 5.17652
 4.94501
 2.31621
 2.34845
 2.16333
 2.48213
 1.17541
 1.15624
 1.02415
 0.893428
 0.964324
 1.1066
 0.993596
 1.30537
 5.39292
 5.42425
 5.64096
 5.31084
 4.23558
 4.34091
 4.31921
 4.0851
 8.65047
 8.73848
 8.82281
 8.71306
 5.20637
 5.25528
 5.42376
 5.2356
 3.33856
 3.06659
 3.19969
 3.14839
 4.58724
 4.59711
 4.32039
 4.73258
 4.75033
 4.54668
 4.77597
 4.58608
 6.53251
 6.6344
 6.50096
 6.49393
 -0.512569
 -0.788271
 -0.889851
 -0.492275
 -1.35388
 -1.45639
 -1.55495
 -1.62443
 2.88609
 2.63874
 3.06679
 2.92401
 5.13214
 5.18604
 5.05285
 5.28048
 1.29195
 1.18292
 1.06735
 1.3047
 6.63088
 6.97412
 6.84029
 6.83524
 6.72052
 6.85381
 6.91973
 6.69014
 8.9326
 9.03538
 8.89902
 8.92846
 2.39841
 2.15353
 2.30142
 2.09379
 5.49655
 5.29364
 5.25317
 5.47274
 5.91802
 6.0507
 5.85266
 5.80513
 -1.80975
 -2.05633
 -1.96148
 -2.08633
 6.25473
 6.32554
 6.46379
 6.28346
 5.92459
 6.01569
 6.12372
 5.93836
 5.60878
 5.46951
 5.62859
 5.77484
 3.88337
 3.93179
 3.75638
 3.78836
 5.81746
 5.61355
 5.76014
 5.69566
 4.98622
 4.88117
 4.82404
 4.92872
 4.22779
 4.28307
 4.36089
 4.43329
 6.18883
 6.39663
 6.13547
 6.3631
 9.3065
 9.33709
 9.16047
 9.156
 6.5635
 6.49635
 6.38873
 6.48262
 2.24551
 2.38722
 2.16663
 2.50419
 2.20332
 2.28211
 2.10262
 2.29069
 1.06856
 1.18776
 1.24607
 1.00262
 6.91186
 6.93172
 6.88289
 6.81159
 -2.27216
 -2.24949
 -2.07883
 -2.42597
 1.26365
 1.06236
 1.28865
 1.23318
 7.10587
 7.10234
 7.25803
 7.27622
 4.87488
 4.88286
 4.95945
 4.63294
 6.00019
 5.87096
 6.14905
 6.04234
 5.94799
 6.03709
 6.04744
 6.85807
 6.87733
 6.89565
 6.95921
 1.75718
 1.89738
 2.04449
 1.67557
 4.21001
 3.93359
 4.03601
 4.17641
 2.09153
 1.87195
 2.0408
 5.14358
 5.39325
 5.23093
 5.30602
 3.70379
 3.54597
 3.60516
 3.82815
 -0.0957826
 0.233058
 0.212149
 -0.228472
 6.59417
 6.56419
 6.34009
 6.42225
 6.07767
 6.20133
 6.29075
 6.18282
 2.37754
 2.61777
 2.66889
 2.58054
 1.35802
 1.50148
 1.1307
 1.16087
 6.91974
 6.89707
 6.96721
 7.08561
 6.1765
 6.12779
 5.85419
 5.93522
 4.40035
 4.17546
 4.04732
 4.3646
 -1.16117
 -1.32237
 -1.22619
 -1.26946
 2.32437
 2.08064
 1.99165
 2.10762
 3.51698
 3.83113
 3.56285
 3.5218
 8.65679
 8.82256
 8.64908
 8.65762
 3.9972
 4.16001
 3.92057
 3.78972
 -0.096106
 0.156181
 -0.100803
 0.241769
 5.65759
 5.92529
 5.54055
 5.62287
 6.16468
 6.12898
 6.30786
 6.20532
 6.25366
 6.42285
 6.37375
 6.32828
 7.66497
 7.67964
 7.67606
 7.60454
 5.78254
 6.04869
 6.02654
 6.03211
 2.29234
 2.31968
 2.28681
 2.45163
 6.95762
 6.90426
 6.85317
 6.79031
 -0.740128
 -0.530256
 -0.693116
 -0.765116
 6.69396
 6.90576
 6.88176
 6.71285
 0.00937425
 0.370036
 -0.0201756
 0.208047
 4.195
 4.36378
 4.35648
 4.22505
 4.70474
 4.52461
 4.45976
 4.64584
 5.40986
 5.40523
 5.15697
 5.34377
 5.76737
 5.76921
 5.91803
 5.96497
 -2.02905
 -2.23773
 -2.30822
 -2.27304
 5.61666
 5.72685
 5.61726
 5.7034
 -2.62467
 -2.42286
 -2.56421
 -2.27514
 1.31359
 1.37795
 1.10085
 1.3059
 8.20045
 8.02687
 8.06301
 8.20573
 -1.56382
 -1.50895
 -1.70413
 -1.78935
 6.28206
 6.09441
 6.25866
 6.40613
 8.18417
 8.28393
 8.33447
 8.19685
 0.497965
 0.575418
 0.694786
 0.578089
 -1.5656
 -1.86149
 -1.63726
 -1.51829
 2.98601
 2.93563
 3.0392
 3.09234
 0.807092
 1.07838
 0.738677
 1.0295
 6.02227
 6.2329
 6.11772
 6.15851
 2.56434
 2.64966
 2.56862
 2.36798
 4.83619
 4.91041
 4.75717
 4.73919
 6.73005
 6.64691
 6.76709
 6.7688
 7.33966
 7.37447
 7.38382
 7.23577
 4.13063
 4.2109
 4.01229
 4.27888
 3.50563
 3.51274
 3.58116
 3.71798
 6.07044
 6.09858
 5.96497
 5.92212
 6.10993
 6.35041
 6.12405
 6.15661
 2.02127
 1.99107
 2.16533
 2.15217
 -1.28537
 -1.14597
 -1.46233
 -1.52459
 -0.851902
 -0.692933
 -0.89499
 -0.946343
 -0.721705
 -0.445103
 -0.504809
 -0.656938
 1.55448
 1.69375
 1.49704
 1.71322
 6.11856
 6.3631
 6.17855
 6.24868
 6.03062
 5.89874
 5.85105
 5.81919
 3.58852
 3.68737
 3.93242
 3.96369
 1.328
 1.45083
 1.1106
 1.26531
 1.42829
 1.56198
 1.47623
 1.30703
 2.99219
 3.18979
 3.04018
 2.99896
 2.31746
 2.12433
 2.3718
 2.32786
 7.14255
 7.1626
 7.07169
 6.9191
 9.84561
 9.93774
 9.83134
 9.99898
 5.60667
 5.6249
 5.82717
 5.70805
 9.41232
 9.24741
 9.2881
 5.70752
 5.75312
 5.6416
 5.85285
 -0.407344
 -0.24722
 -0.350719
 -0.193942
 3.20932
 3.10241
 3.04548
 2.88185
 -1.06485
 -0.963574
 -1.23665
 -0.929854
 6.16454
 6.13578
 6.33188
 6.16624
 1.55126
 1.5903
 1.23893
 1.32786
 2.92806
 2.95224
 3.19581
 3.068
 -1.87866
 -2.02069
 -2.09297
 -1.68191
 0.404391
 0.450867
 0.347414
 0.130019
 5.57395
 5.38406
 5.5122
 5.58162
 1.50892
 1.53637
 1.75138
 1.49391
 0.0150185
 0.386334
 0.179147
 0.333741
 8.15481
 8.34625
 8.28315
 8.33494
 3.27488
 3.19081
 3.0616
 3.03275
 0.0583078
 -0.0330861
 -0.0942444
 0.103153
 2.10997
 1.90955
 2.26066
 1.78844
 0.119075
 0.37739
 0.0855915
 0.107872
 5.9606
 5.79286
 5.69547
 5.70818
 0.342037
 -0.106408
 0.371052
 -0.0189717
 4.23521
 4.12438
 4.45593
 4.25008
 3.82616
 3.73761
 3.60133
 3.8728
 0.442245
 0.51677
 0.697817
 0.323129
 -2.59616
 -2.41121
 -2.40056
 -2.53458
 7.17059
 7.07257
 6.98154
 6.92616
 5.07308
 4.89549
 4.80049
 5.02747
 2.47159
 2.61129
 2.7128
 2.64946
 0.476763
 0.315501
 0.360622
 0.304423
 5.53078
 5.67835
 5.61155
 5.59822
 6.83883
 6.64032
 6.5479
 6.79608
 1.34827
 1.3333
 1.63509
 1.60733
 1.97773
 1.78032
 1.9854
 1.89818
 -1.638
 -1.84151
 -2.02688
 -1.6499
 6.41467
 6.18628
 6.46234
 6.30669
 -1.52376
 -1.7301
 -1.69088
 -1.56186
 5.10151
 4.88826
 5.03044
 5.09714
 9.73805
 9.75736
 9.69017
 9.65584
 -0.604049
 -0.750322
 -0.872061
 -0.764499
 1.77126
 1.64065
 1.89393
 2.10711
 -0.547085
 -0.573379
 -0.414125
 -0.388658
 3.67362
 3.90485
 3.73631
 3.64524
 4.11226
 3.99812
 3.95327
 4.08162
 0.766671
 1.05786
 1.02281
 0.935096
 6.14721
 6.05632
 6.23428
 6.10648
 6.47339
 6.36898
 6.35389
 6.4333
 8.84952
 8.92911
 8.93977
 8.97089
 2.82981
 2.67758
 2.58722
 2.48591
 3.46584
 3.56394
 3.21674
 3.4497
 2.18424
 2.52954
 2.29688
 2.11792
 4.97372
 4.69152
 4.665
 5.015
 -1.4244
 -1.40441
 -1.56331
 -1.16925
 -1.56941
 -1.96749
 -1.58104
 -1.51781
 1.99711
 1.88596
 1.69801
 1.68392
 10.6907
 10.712
 10.6655
 10.5851
 4.2638
 4.38609
 4.22498
 4.49093
 4.15485
 4.21085
 4.43312
 4.20983
 4.27236
 4.22742
 4.47714
 4.46518
 0.514845
 0.621827
 0.311776
 0.653048
 8.45786
 8.28599
 8.55449
 8.46206
 8.9867
 9.00023
 9.11561
 9.17104
 0.370713
 0.554524
 0.367599
 0.633196
 5.2855
 5.04285
 5.37467
 5.0771
 4.64971
 4.68967
 4.60652
 4.59759
 1.81395
 1.92044
 1.99846
 2.22608
 6.36509
 6.26292
 6.19435
 6.29404
 0.320332
 0.536354
 0.505688
 0.313749
 4.92226
 5.25978
 5.1016
 5.36123
 5.21026
 5.24374
 5.40442
 5.26047
 6.84504
 6.94509
 6.75734
 6.96542
 4.4441
 4.18241
 4.33961
 4.1548
 -0.160624
 -0.292312
 -0.271337
 -0.0938093
 1.5662
 1.30653
 1.21872
 1.45949
 6.3199
 6.34576
 6.18185
 6.18019
 5.55863
 5.3215
 5.32021
 5.54945
 -0.846506
 -0.946608
 -1.11478
 -1.01035
 0.482259
 0.6719
 0.563616
 0.631517
 4.08741
 4.16988
 4.29958
 4.16429
 6.98266
 6.94249
 6.95493
 6.88351
 7.83218
 7.57127
 7.62617
 7.79432
 1.92163
 2.15224
 2.25898
 2.04051
 6.65441
 6.8217
 6.66461
 7.00388
 -0.487742
 -0.183853
 -0.194592
 -0.462019
 2.47839
 2.16684
 2.34862
 2.53972
 0.185004
 0.253768
 0.34593
 0.245455
 1.40636
 1.69293
 1.67152
 1.4961
 4.19588
 4.3177
 4.18621
 4.04707
 5.97528
 6.29006
 6.21621
 6.08344
 7.54683
 7.28916
 7.51569
 7.49019
 6.94402
 7.17031
 6.92469
 6.9979
 6.04021
 6.24232
 6.28056
 6.17577
 3.84297
 3.76775
 3.78396
 4.12473
 3.86545
 3.77068
 3.77521
 3.97733
 3.62705
 3.81311
 3.45759
 3.65369
 2.03099
 2.16633
 1.9431
 1.98569
 8.33081
 8.49851
 8.43107
 8.44599
 3.06793
 3.0109
 3.10977
 2.88548
 6.35635
 6.54771
 6.46587
 6.41893
 4.6999
 4.42711
 4.62442
 4.4767
 -1.4075
 -0.999029
 -1.34821
 -1.24362
 3.87373
 3.9819
 3.98854
 4.08133
 6.68719
 6.78532
 6.72901
 6.92525
 4.64303
 4.68934
 4.52634
 4.41683
 5.92121
 5.81314
 5.82492
 5.98421
 4.07415
 4.33132
 4.06275
 4.26674
 8.26321
 8.39367
 8.33064
 8.20526
 4.67582
 4.66059
 4.49356
 4.46838
 1.85645
 1.9175
 1.74548
 1.91581
 2.265
 2.24075
 2.14551
 2.22783
 -1.01637
 -0.536079
 -0.918731
 -0.731467
 5.5388
 5.56893
 5.38573
 5.51531
 5.96818
 5.84176
 5.98849
 5.65145
 -0.964251
 -0.638863
 -0.969459
 -0.911012
 5.89341
 5.88932
 5.6896
 5.88632
 -0.069128
 0.0281447
 -0.232278
 0.0449882
 3.15394
 2.83427
 3.02809
 2.88607
 3.86626
 4.17066
 3.8882
 3.81396
 6.07759
 5.88059
 5.90788
 6.08406
 4.05852
 4.06113
 3.80995
 4.05038
 -0.182171
 -0.0956015
 -0.206334
 -0.23536
 9.8359
 9.78902
 9.75243
 9.93134
 7.05132
 7.08781
 7.08836
 7.0343
 6.90804
 6.87846
 6.91359
 7.03686
 5.27619
 5.18839
 5.37918
 5.10192
 4.7032
 4.86788
 4.74217
 4.84075
 5.46595
 5.57132
 5.61941
 5.44287
 -1.64583
 -1.52866
 -1.9387
 -1.49573
 6.16046
 6.28324
 6.26852
 6.0215
 2.24346
 2.21707
 2.13116
 2.37439
 3.75505
 0.382003
 0.651031
 0.598234
 0.643417
 2.54084
 2.34841
 2.18419
 2.32727
 7.29224
 7.18593
 7.14533
 7.22443
 5.09508
 5.18165
 5.02577
 4.89431
 5.65565
 5.84525
 5.71274
 5.68573
 -0.13347
 0.130788
 0.0909712
 0.0626031
 4.46472
 4.77743
 4.55762
 4.65014
 -0.366648
 -0.4118
 -0.121625
 -0.161027
 1.50361
 1.35616
 1.60764
 1.29079
 7.21722
 7.10116
 7.16995
 6.96046
 6.08138
 6.27981
 5.9526
 6.0856
 1.97087
 1.81794
 1.78824
 1.9671
 3.99867
 4.26668
 3.99359
 6.77654
 6.86311
 6.79913
 6.70396
 1.95346
 2.34818
 2.09087
 2.28667
 5.70566
 5.92003
 5.89347
 5.77654
 4.04143
 4.35153
 4.19329
 4.01613
 -0.743677
 -0.742986
 -0.383006
 -0.683077
 5.31884
 5.39936
 5.51605
 5.35033
 0.421733
 0.712183
 0.473492
 0.381926
 3.65942
 3.81172
 3.66454
 3.90848
 0.922315
 1.08304
 1.2967
 1.14831
 -0.471888
 -0.476576
 -0.760131
 -0.631656
 5.19319
 5.22202
 5.06704
 5.08048
 9.76728
 9.55833
 9.58466
 9.47491
 -1.97594
 -1.80632
 -1.81915
 -1.76566
 2.17687
 2.28144
 2.39062
 2.25785
 6.40873
 6.43009
 6.09122
 6.35555
 4.67902
 4.51718
 4.48189
 4.69185
 8.01728
 7.97237
 7.98467
 8.12157
 -0.429946
 -0.571202
 -0.882568
 -0.63289
 6.85446
 6.96415
 6.90768
 6.88811
 2.96193
 2.75194
 3.06217
 2.90441
 6.21131
 6.55771
 6.28563
 6.29794
 -2.26386
 -2.21685
 -2.23797
 -1.96136
 -1.99597
 -1.93313
 -1.77052
 -1.59776
 1.35068
 1.58468
 1.64968
 1.29955
 2.81563
 2.72868
 2.7943
 2.9656
 2.74595
 6.57594
 6.53902
 6.75018
 6.61246
 6.31019
 6.37986
 6.43943
 6.25003
 1.8917
 1.6686
 1.65773
 1.64024
 6.62959
 6.48199
 6.47881
 6.63732
 5.90396
 5.96054
 5.98988
 5.8121
 1.46118
 1.374
 1.41402
 1.64019
 5.06256
 4.82114
 5.06186
 4.82763
 1.84452
 1.82332
 1.78934
 1.62119
 5.81678
 5.86387
 6.01146
 5.83585
 5.318
 5.18134
 5.14325
 5.12288
 4.31177
 4.0999
 4.39226
 4.17134
 2.86667
 2.6109
 2.75529
 2.51246
 0.678838
 0.802537
 0.441232
 0.485878
 3.13046
 3.19643
 3.32005
 3.29286
 3.17363
 3.05685
 2.9976
 3.04857
 7.28811
 7.29261
 7.20042
 7.14348
 2.20776
 2.1702
 2.06906
 2.13991
 3.7276
 3.6785
 3.58255
 3.74018
 3.47742
 3.49529
 3.64824
 3.5189
 5.00943
 4.95084
 5.1664
 5.03069
 6.79764
 6.81625
 6.7239
 6.95978
 1.12314
 1.16928
 1.03015
 0.982445
 6.73251
 6.8671
 6.81984
 6.60215
 -1.69821
 -1.67507
 -2.00226
 -1.81583
 0.517517
 0.689123
 0.377292
 0.487023
 0.376973
 0.343357
 0.337588
 0.423458
 0.149662
 0.24421
 0.27527
 0.0052252
 1.53389
 1.41993
 1.64645
 1.41602
 7.99019
 8.08782
 8.2522
 3.25105
 3.55707
 3.29517
 3.34061
 0.68007
 0.776108
 0.85545
 0.687463
 5.12549
 5.34844
 5.22842
 5.17586
 5.82248
 5.77128
 5.89466
 5.74414
 1.38807
 1.34867
 1.15874
 1.59994
 4.35389
 4.4096
 4.32591
 4.14817
 5.65089
 5.63689
 5.70736
 5.73785
 -1.56094
 -1.87531
 2.33542
 2.3707
 2.60873
 2.58031
 4.22729
 4.29055
 4.41591
 3.03461
 2.96391
 3.0064
 3.21865
 7.58712
 7.64468
 7.46133
 7.48281
 0.416198
 0.232837
 0.238449
 0.505809
 3.10835
 3.1666
 3.29487
 3.26699
 5.14689
 5.31868
 5.22305
 5.04744
 3.38386
 3.61043
 3.53724
 3.43986
 6.69235
 6.77994
 6.63212
 6.70827
 7.10985
 6.81462
 7.02981
 6.97604
 4.37423
 4.2047
 4.1428
 4.26464
 6.62314
 6.66601
 6.63724
 6.49938
 4.09193
 4.20278
 4.15934
 4.24135
 0.0879086
 0.144321
 0.419544
 0.450332
 6.51791
 6.41223
 6.33936
 6.45015
 8.80209
 8.65687
 8.75438
 8.67189
 2.50804
 2.92113
 2.67221
 2.59344
 4.62325
 4.47576
 4.65814
 4.47673
 6.71219
 6.74065
 6.56991
 6.60573
 4.2024
 4.31756
 4.09481
 4.12157
 -0.676617
 -0.595927
 -0.752382
 -0.700735
 5.99794
 6.00884
 6.09879
 6.00595
 2.57879
 2.73275
 2.72848
 2.79053
 4.71825
 4.49346
 4.65165
 4.36198
 1.61429
 1.45038
 1.4731
 1.29283
 0.145375
 0.18149
 0.0439672
 0.262076
 6.43481
 6.28341
 6.38167
 6.11869
 5.40058
 5.25542
 5.29312
 5.33533
 2.85522
 2.87966
 3.15667
 2.98308
 6.80289
 6.7358
 6.76121
 6.70695
 9.7448
 9.86625
 9.85642
 9.78186
 3.43385
 3.62453
 3.623
 3.65258
 10.0463
 10.0811
 10.0234
 9.92593
 9.78847
 9.63394
 9.6422
 9.71833
 7.49731
 7.38752
 7.41047
 7.54658
 2.17446
 2.33801
 2.47801
 2.56689
 2.3067
 2.12113
 2.10903
 1.95475
 1.95996
 2.13789
 1.99963
 2.247
 2.56324
 2.80818
 2.75715
 2.48084
 8.21387
 8.33285
 8.24741
 8.26978
 6.41482
 6.50263
 6.30804
 6.38359
 6.45446
 6.6571
 6.61885
 6.60046
 4.99852
 4.77657
 4.98554
 4.75604
 3.15855
 3.29113
 3.14888
 3.25333
 1.59112
 1.63774
 1.74181
 1.55634
 6.14147
 5.93536
 5.88755
 6.09449
 2.12535
 4.19294
 4.03013
 4.03142
 4.15393
 -2.036
 -2.10314
 -2.39146
 -2.21152
 4.52725
 4.50821
 4.36297
 4.50635
 -0.374048
 -0.684808
 -0.456795
 6.53659
 6.44064
 6.37267
 6.56733
 9.39737
 9.25892
 9.31674
 9.23082
 3.94627
 3.9685
 3.70942
 4.0882
 5.03
 5.2948
 5.23645
 5.26632
 6.61968
 6.50453
 6.39537
 6.34272
 6.30515
 6.2433
 6.39581
 6.22204
 7.71232
 7.93836
 7.80205
 7.79921
 2.88807
 2.93099
 2.77827
 2.46175
 4.00934
 3.78527
 4.06566
 3.88766
 5.54615
 5.72041
 5.55554
 5.62539
 4.33533
 4.48957
 4.09655
 1.17097
 1.30038
 1.34546
 5.99541
 5.97508
 6.21191
 6.25377
 7.69085
 7.75359
 7.74953
 7.69466
 5.68799
 5.56174
 5.57823
 5.73101
 7.52977
 7.68769
 7.49608
 7.75009
 1.00012
 0.648506
 0.908003
 0.83418
 1.37751
 1.27954
 1.20709
 1.06138
 6.80165
 6.8668
 6.83617
 6.85909
 7.89993
 8.10789
 7.9669
 7.9078
 3.35468
 3.64245
 3.40197
 3.51428
 -1.30579
 -1.06635
 -1.40479
 -1.11934
 7.64586
 7.65062
 7.73432
 7.63879
 2.15703
 2.39047
 2.4092
 2.10916
 8.90762
 9.0018
 8.90088
 8.96887
 1.62019
 1.48178
 1.67289
 1.29608
 4.84615
 5.01078
 4.75729
 5.05715
 1.02832
 1.01546
 0.781111
 0.800611
 6.5938
 6.53347
 6.50288
 6.33955
 5.21844
 5.38135
 5.35846
 5.37093
 5.91762
 5.98329
 5.78957
 5.79468
 5.74058
 5.80779
 5.59051
 5.90798
 3.43128
 3.28876
 3.3211
 3.51811
 4.48514
 4.6585
 4.4548
 4.46838
 0.660489
 0.867036
 1.00945
 0.940909
 -1.70474
 -1.91082
 -1.45695
 -1.44546
 4.69481
 4.71779
 4.8681
 4.73795
 0.115366
 0.207076
 0.316297
 -0.048594
 1.78401
 1.47326
 1.34309
 1.51635
 8.2446
 8.32481
 8.47517
 8.26881
 6.80238
 6.49372
 6.55681
 6.65048
 4.91016
 5.04823
 5.1038
 5.02676
 7.64469
 7.75679
 7.78986
 7.87312
 3.2283
 2.99326
 3.02336
 3.11979
 1.02113
 0.595647
 0.830282
 0.787311
 7.54743
 7.31442
 7.53151
 7.55038
 4.27168
 4.09764
 4.22279
 4.18789
 5.68362
 5.7044
 5.69809
 5.79217
 9.67948
 9.57
 9.54884
 9.66624
 5.23644
 5.26729
 5.28194
 5.10401
 4.02031
 3.88149
 3.91596
 3.85388
 1.90373
 1.67762
 1.82758
 1.61055
 5.87968
 5.83335
 5.78891
 4.00127
 4.04164
 4.09908
 4.04265
 5.37487
 5.43792
 5.14311
 5.32172
 2.31686
 2.52708
 2.34372
 2.42902
 2.25074
 2.00034
 2.05076
 2.09533
 -0.319623
 -0.120376
 -0.251422
 0.0299631
 6.29117
 6.27678
 6.15441
 6.3191
 -1.20701
 -1.2918
 -1.39589
 -1.26108
 6.00204
 5.8366
 5.98162
 6.07788
 4.03465
 3.79954
 3.8286
 3.69664
 3.75004
 3.98751
 3.89824
 4.02604
 9.91392
 10.0346
 9.9197
 9.94941
 5.47328
 5.593
 5.45764
 5.42705
 4.13944
 4.18224
 3.98952
 3.75552
 4.30931
 4.24935
 4.21508
 4.48517
 -1.99685
 -1.982
 -1.74273
 -1.94136
 6.00897
 5.81612
 5.70491
 5.95547
 5.75194
 5.86409
 5.65645
 5.9132
 1.73914
 1.49233
 1.69237
 1.56867
 6.48961
 6.52344
 6.6255
 6.64313
 6.52716
 6.56461
 6.45123
 6.57735
 2.39107
 2.67655
 2.41679
 2.57907
 2.25751
 2.25711
 2.45288
 2.25322
 3.59885
 3.57654
 3.2599
 3.38434
 5.8347
 5.92808
 2.86629
 3.04461
 2.75911
 2.99414
 5.78317
 5.68061
 5.78315
 5.73652
 4.76417
 4.55067
 4.47946
 4.5514
 -0.483778
 -0.33516
 -0.22157
 -0.52233
 4.59502
 4.53229
 4.42831
 4.38891
 1.31309
 1.13493
 1.03149
 1.3764
 6.10284
 5.79739
 5.90434
 5.81241
 5.08549
 5.26561
 5.29416
 5.20694
 4.18762
 3.8348
 4.0258
 3.97599
 6.36036
 6.51866
 6.58095
 6.46989
 8.70721
 8.65405
 8.7299
 8.81004
 -1.03739
 -0.979634
 -0.877579
 -0.973549
 7.54734
 7.56164
 7.48305
 7.60639
 3.09094
 3.00209
 3.22686
 3.21244
 8.71365
 8.6987
 8.61709
 8.77064
 3.0048
 2.78475
 2.9355
 2.96286
 5.95939
 5.98011
 6.04282
 6.02158
 6.03316
 5.98171
 6.15859
 6.05247
 3.54049
 3.45773
 3.70936
 3.55117
 0.515347
 0.77336
 0.563967
 0.819636
 5.16243
 4.86563
 4.9161
 4.91256
 6.84177
 6.8963
 6.83342
 6.7534
 0.621045
 0.268386
 0.444638
 0.194187
 5.93903
 6.07275
 5.84039
 5.82285
 5.0323
 4.84044
 4.89102
 4.77404
 1.70314
 1.24955
 1.35304
 1.50624
 3.73727
 3.53169
 3.47486
 3.47165
 4.42646
 4.51846
 4.40404
 4.29771
 -0.443027
 -0.614897
 -0.739762
 -0.827381
 0.457279
 0.363826
 0.378818
 0.500329
 3.2756
 3.23539
 3.51775
 3.40222
 4.43996
 4.3265
 4.52337
 4.1006
 5.45114
 5.38699
 5.37508
 5.12532
 6.85156
 6.86617
 6.99328
 1.35852
 1.21576
 1.26335
 1.07413
 8.81527
 8.91016
 9.04276
 9.01146
 2.0729
 2.35988
 2.20584
 2.26068
 6.25076
 6.47753
 6.3554
 6.33938
 6.62947
 6.80086
 6.7517
 6.77183
 0.111195
 0.364111
 0.238836
 -0.105206
 3.77579
 3.90141
 3.6964
 3.8415
 4.29815
 4.36847
 5.80265
 4.70798
 4.5007
 4.7439
 4.60841
 8.70797
 8.58878
 2.44127
 2.34879
 2.2608
 7.17673
 7.08228
 7.30136
 7.17251
 2.26189
 2.51233
 2.43668
 2.42658
 5.03411
 4.84017
 4.89666
 4.91357
 5.87864
 5.59906
 5.76592
 5.73611
 -0.288913
 -0.292983
 -0.62774
 -0.382444
 7.1308
 6.97009
 7.14553
 6.95279
 2.69278
 2.68933
 2.6232
 2.48621
 -0.918486
 -0.972761
 -0.664134
 -0.666367
 3.82673
 4.05496
 3.86212
 4.01087
 2.57803
 2.91449
 2.8011
 2.80978
 4.23932
 4.06229
 4.21327
 4.51688
 -2.0973
 -1.60456
 -2.01582
 -1.59764
 -1.66068
 -1.67436
 -1.53559
 -1.33469
 -1.24541
 -1.12963
 -1.12235
 -1.27236
 4.75166
 4.92589
 4.72897
 4.75239
 3.18445
 3.46504
 3.35671
 3.23253
 4.49761
 4.52525
 4.6711
 4.55679
 4.86164
 4.92208
 4.67488
 4.9332
 2.14689
 2.07712
 2.04116
 2.29627
 0.636531
 0.35601
 0.469368
 0.320333
 0.584489
 0.4854
 0.741341
 0.375816
 3.78425
 3.67007
 3.82921
 3.69181
 4.37305
 4.36932
 4.43861
 4.53434
 6.02898
 6.13248
 6.06913
 5.87234
 1.50443
 1.29522
 1.28813
 1.57602
 7.57296
 7.55922
 7.71078
 7.50478
 1.21779
 1.07227
 1.2295
 1.27519
 3.46032
 3.10916
 3.44111
 3.19016
 3.56789
 3.48827
 3.52941
 3.68848
 6.97322
 6.99292
 7.07709
 7.20847
 10.2648
 10.1702
 10.2998
 10.2851
 5.37846
 5.18942
 5.37545
 5.33467
 1.15022
 1.44958
 1.34884
 1.16237
 6.58846
 6.74978
 6.63464
 6.51185
 3.17172
 3.05591
 3.31053
 3.04593
 2.89953
 2.73065
 2.51154
 2.59672
 1.70779
 1.58471
 1.9289
 1.82264
 7.88829
 7.98252
 7.98303
 7.86567
 7.84161
 7.82204
 7.89524
 7.92744
 1.11835
 0.769162
 0.90119
 0.939098
 2.1159
 2.44738
 2.45744
 2.25177
 5.49691
 5.46999
 5.57543
 5.56592
 4.17141
 4.23556
 4.04279
 3.93058
 3.54441
 3.49792
 3.51969
 3.62514
 5.53107
 5.67127
 5.36355
 5.61819
 2.59374
 2.73419
 2.69505
 2.85607
 -2.95601
 -2.66584
 -2.88913
 -2.93225
 3.00627
 2.73721
 2.76563
 2.61837
 4.12329
 4.01984
 4.17089
 3.91402
 4.05944
 4.07322
 4.25252
 4.05863
 3.51277
 3.36533
 3.4916
 3.67838
 -1.20871
 -1.21449
 -0.992449
 -1.19132
 0.696955
 0.911029
 0.77
 2.64954
 2.65285
 2.5162
 2.68143
 6.80479
 6.82553
 6.67842
 6.84217
 4.84356
 4.83506
 4.99293
 4.77806
 0.657724
 0.970463
 1.03841
 0.959372
 6.02538
 5.95774
 5.92051
 5.84259
 5.1571
 5.2966
 5.31151
 5.11196
 4.90606
 4.99588
 5.22037
 5.02442
 2.16747
 2.32597
 2.38201
 2.36697
 3.3961
 3.5764
 3.37049
 3.74248
 2.63778
 3.03241
 2.88375
 2.82246
 6.50278
 6.41636
 6.3959
 6.47165
 5.07016
 4.93832
 4.89458
 5.08153
 2.39332
 2.56267
 2.35082
 2.1594
 5.23998
 5.15563
 5.04692
 5.32244
 3.01395
 2.80143
 2.80087
 2.92218
 6.59269
 6.65451
 6.54882
 6.68236
 -0.697916
 -0.787509
 -0.512587
 -0.697299
 6.09146
 6.21661
 6.03795
 5.96613
 6.28263
 6.60892
 6.4059
 6.40466
 1.72192
 1.72154
 1.55307
 1.49361
 6.07899
 6.03802
 6.0017
 6.02378
 2.92244
 3.01741
 2.92228
 3.14311
 7.06895
 7.04646
 7.25472
 7.21699
 3.57049
 3.67917
 3.6342
 3.42254
 -0.247635
 -0.655317
 -0.316888
 -0.539577
 3.43538
 3.72517
 3.72765
 3.57063
 1.78978
 1.68248
 1.78351
 1.79888
 2.9425
 3.03084
 2.96559
 2.84436
 3.01692
 2.94266
 2.87815
 2.70827
 -1.09643
 -1.11919
 -1.21631
 -0.825492
 6.40923
 6.5172
 6.60179
 6.62334
 6.20573
 6.28159
 6.43312
 6.28825
 0.250798
 0.233794
 0.391125
 0.0328976
 -0.234716
 -0.374274
 -0.219688
 5.64623
 5.72021
 5.72969
 5.59977
 2.85193
 2.59938
 2.83416
 2.86871
 3.17882
 3.10329
 3.33398
 3.07534
 6.28996
 6.14377
 6.39801
 6.27289
 1.68767
 1.52088
 1.58127
 1.54069
 4.30573
 4.52837
 4.50436
 4.2771
 3.51812
 3.74958
 3.72018
 3.78673
 1.48405
 1.29767
 1.26886
 1.32789
 6.95935
 7.02787
 6.94514
 6.86204
 5.57644
 5.78863
 5.73732
 5.73867
 -1.288
 -0.930972
 -1.22019
 -1.11543
 6.40678
 6.4328
 6.37683
 6.13124
 6.93852
 7.01368
 6.9816
 6.96241
 4.24427
 4.16134
 4.26347
 3.98458
 8.71497
 8.66156
 8.76579
 8.56639
 3.77048
 3.73025
 3.8407
 3.74659
 1.26551
 1.3701
 1.4386
 1.48419
 0.514602
 0.677004
 0.599726
 7.14458
 7.12384
 7.0636
 7.12562
 6.02971
 5.82759
 6.06878
 5.87545
 6.30267
 6.3637
 6.44699
 6.49286
 5.72999
 5.86699
 5.78173
 5.82111
 -1.53502
 -1.6925
 -1.79476
 -1.73443
 6.88218
 6.87291
 6.93068
 7.04069
 5.89083
 6.02942
 5.9147
 5.71282
 0.680483
 0.529119
 0.691377
 0.789205
 5.16835
 5.23623
 5.10076
 5.72408
 5.90642
 5.75343
 3.36912
 3.54765
 3.71942
 8.40572
 8.22988
 8.20138
 8.34455
 3.71725
 3.59489
 3.68043
 3.51662
 3.80835
 3.69596
 3.99598
 3.94045
 0.181743
 0.0274783
 0.284153
 0.329019
 -0.499383
 -0.408929
 -0.862772
 -0.438399
 6.4317
 6.58176
 6.5999
 6.30941
 3.25858
 3.02666
 3.0127
 3.08959
 3.26908
 3.0982
 3.00472
 3.07164
 4.29102
 4.02873
 4.1434
 3.97073
 5.2912
 5.20051
 5.17826
 5.42456
 3.31803
 3.53586
 3.39292
 3.3013
 6.46553
 6.4217
 6.49926
 6.37066
 -0.119095
 -0.018217
 -0.132392
 -0.192983
 5.73471
 5.77271
 5.68717
 5.58424
 0.534673
 0.757656
 0.612096
 0.605893
 -0.759195
 -0.608383
 -0.440182
 -0.696671
 -0.473828
 -0.396802
 -0.383317
 -0.318829
 6.08588
 6.21179
 1.99246
 2.0438
 2.19407
 2.07774
 6.322
 6.08555
 6.20385
 6.27792
 1.38087
 0.975056
 1.11298
 1.02831
 0.512008
 0.717869
 0.413535
 0.69592
 5.46068
 5.33128
 5.30626
 5.40341
 3.42107
 3.44054
 3.24429
 3.33384
 5.77991
 5.76578
 5.62872
 5.7604
 4.70175
 4.70721
 4.6712
 4.50004
 9.51042
 9.29766
 9.5533
 9.36548
 -0.140143
 -0.000377806
 -0.349387
 -0.095184
 5.65684
 5.81033
 5.60809
 5.51418
 7.1422
 7.26769
 7.26164
 7.08953
 4.46916
 4.55922
 4.36224
 4.30075
 7.00584
 7.22689
 7.28166
 7.00242
 4.6044
 4.8206
 4.88209
 4.69953
 1.94008
 2.01763
 1.75628
 2.10597
 4.15787
 4.29833
 4.29802
 4.21306
 0.145304
 -0.238261
 0.134827
 4.42966
 4.23469
 4.48582
 4.26865
 9.56369
 9.63537
 9.6254
 9.68594
 -1.76624
 -1.84217
 -1.93698
 -1.76272
 3.6095
 3.64064
 3.51583
 3.67891
 1.32604
 1.48657
 1.67867
 1.4238
 6.52734
 6.37015
 6.75386
 6.58749
 5.32237
 5.16988
 5.46924
 5.28879
 5.30593
 5.02967
 5.18159
 5.0433
 -0.449068
 -0.266173
 -0.492103
 -0.652622
 5.09804
 5.25023
 5.36186
 5.30263
 -1.62779
 -1.53611
 -1.70073
 -1.39574
 2.1537
 2.40961
 2.41372
 2.13325
 6.41062
 6.37076
 6.3023
 6.39893
 8.79961
 8.75347
 8.62981
 8.84206
 4.648
 4.92642
 4.75869
 4.98024
 4.05335
 4.05162
 3.87365
 4.09095
 1.75151
 1.75026
 1.88151
 2.08358
 9.39485
 9.52739
 9.3358
 9.42614
 4.6276
 4.77775
 4.51966
 4.59465
 -1.16683
 -0.989949
 -0.95151
 -1.00634
 0.931333
 0.731019
 0.815688
 0.899618
 0.892114
 0.907066
 0.691272
 0.982002
 0.995973
 1.18866
 1.25303
 1.14977
 0.807336
 0.486026
 0.66919
 0.696538
 2.96537
 2.87724
 2.96745
 2.97085
 6.17666
 5.89552
 5.70378
 5.66789
 5.79306
 2.35896
 2.61628
 2.52568
 2.54866
 2.40027
 2.33962
 2.6361
 2.59275
 7.70569
 7.62715
 7.64424
 7.70603
 0.20804
 0.207105
 0.31864
 0.198597
 1.39538
 1.19599
 0.960809
 1.12447
 6.43025
 6.18187
 6.22257
 5.97342
 5.97354
 6.01399
 5.87867
 5.75899
 5.8056
 5.67738
 6.12501
 6.33278
 6.58592
 6.43634
 2.42154
 2.17913
 2.24683
 2.46358
 -1.29757
 -1.35557
 -1.24723
 -1.36257
 4.05366
 4.15255
 4.00818
 4.25765
 -0.591655
 -0.188806
 -0.0631589
 -0.039961
 4.57749
 4.62236
 4.71049
 4.50188
 2.38022
 2.58337
 2.7169
 2.68455
 6.308
 6.34032
 6.37351
 6.5199
 3.35314
 3.1124
 3.44484
 3.25318
 2.95124
 2.69562
 2.56998
 2.91992
 6.12633
 6.20498
 6.3605
 6.27845
 5.16088
 5.28185
 4.91836
 5.04838
 4.48173
 4.50853
 4.66593
 4.77514
 3.21825
 3.1171
 3.20545
 3.10071
 7.4177
 7.3935
 7.33372
 7.20513
 2.67502
 2.90587
 2.77204
 2.62281
 5.11777
 5.34705
 5.08215
 4.97541
 2.03026
 2.08629
 2.03594
 2.2028
 0.148664
 0.370498
 0.187702
 0.300068
 -0.674066
 -0.520129
 -0.510762
 -0.590424
 -0.536713
 -0.697607
 -0.269417
 -1.72567
 -1.87021
 -1.98846
 -2.08433
 0.84003
 1.09663
 1.34573
 1.02846
 4.11326
 4.15913
 4.0079
 4.03961
 -0.740562
 -0.56957
 -0.409836
 -0.69071
 3.78339
 3.76462
 3.88941
 3.9196
 3.10593
 2.98722
 3.05192
 -0.232778
 -0.4499
 -0.317715
 -0.291263
 -0.0345203
 0.202
 0.105704
 3.36322
 3.44624
 3.26114
 3.19632
 5.22996
 5.13563
 5.25685
 4.99935
 2.21272
 2.38497
 2.44604
 2.48239
 -0.505695
 -0.680596
 -0.552877
 -0.448515
 5.8471
 5.89662
 5.80654
 5.98033
 4.2203
 4.28709
 4.43112
 4.48553
 3.89634
 3.60375
 3.90863
 3.88428
 1.91979
 2.14245
 1.98187
 1.9592
 5.91402
 6.03499
 5.77699
 6.00114
 6.54985
 6.68405
 6.53698
 6.56771
 4.00038
 3.99813
 4.03053
 3.83165
 -1.48308
 -1.32839
 -1.30272
 -1.35557
 5.65397
 5.86328
 5.62754
 5.75121
 6.40073
 6.24826
 6.44825
 6.26125
 2.72319
 3.01633
 2.72151
 2.75645
 5.73118
 5.65473
 5.76331
 6.52862
 6.38149
 6.44407
 3.15085
 3.30737
 2.97311
 3.23403
 6.28076
 6.35165
 6.48005
 6.29354
 6.35967
 6.5558
 6.39985
 6.40047
 2.64074
 2.57595
 2.69804
 6.12801
 6.15688
 0.361469
 0.315931
 -0.0481753
 -0.083751
 2.22475
 1.89109
 1.89854
 2.01248
 7.45435
 7.32479
 7.56367
 7.27874
 8.4344
 8.3824
 8.55277
 8.38675
 5.6456
 5.97073
 5.77719
 5.75519
 -0.152934
 -0.149978
 -0.282279
 -0.176044
 2.29337
 2.45183
 2.55702
 2.46081
 7.01918
 7.05764
 7.06625
 7.0888
 5.7373
 5.72036
 5.62504
 5.49181
 5.65792
 5.61939
 5.66297
 6.12052
 5.99144
 5.9689
 5.97122
 6.00588
 6.13567
 5.9597
 5.91381
 6.49029
 6.67779
 6.52605
 6.65008
 -0.857901
 -1.07594
 -0.910732
 -0.908314
 -0.685987
 -0.916605
 -0.544824
 4.12789
 4.26693
 4.10204
 4.33462
 5.80608
 6.03714
 5.77321
 5.8402
 -1.78118
 -1.96563
 6.51568
 6.63214
 6.60223
 6.70568
 3.47579
 3.11288
 3.34953
 3.18497
 2.77584
 2.85579
 6.2825
 6.32303
 6.14723
 6.27492
 -0.821351
 -0.998256
 -0.721237
 -1.1655
 -1.49797
 -1.30774
 -1.44885
 -1.82863
 4.52432
 4.43573
 4.50934
 7.68919
 7.55804
 7.62101
 5.99493
 5.76707
 6.01231
 5.95955
 1.44673
 1.67229
 1.28222
 1.63861
 5.32799
 5.46785
 5.5094
 5.62772
 5.59113
 5.69222
 5.5184
 5.72863
 2.35754
 2.37221
 2.27184
 2.00907
 9.26177
 9.16322
 9.28249
 9.39987
 1.77304
 1.72469
 1.51711
 1.55855
 1.59501
 1.62583
 1.43246
 1.3408
 6.57933
 6.57085
 6.8071
 6.63172
 0.00759007
 -0.13443
 -0.167494
 0.0693296
 9.52999
 9.69154
 9.68067
 9.79437
 -0.745559
 -0.267214
 -0.283688
 -0.25273
 0.662641
 0.87609
 5.60239
 5.47807
 5.51404
 5.37927
 6.76137
 6.92844
 6.82999
 6.69975
 0.174589
 -0.0393042
 0.00785109
 0.0998146
 5.3489
 5.29831
 5.31126
 5.43118
 -1.53536
 -1.3727
 -1.48609
 5.85563
 6.00911
 6.07658
 6.97591
 6.78235
 6.73707
 -0.59697
 -0.720406
 -0.645266
 -0.551795
 5.81988
 5.92539
 5.92986
 5.91998
 0.0557507
 0.0307427
 7.03163
 6.90994
 7.03993
 6.99725
 3.89417
 3.68106
 3.68428
 3.86241
 5.58147
 5.6705
 4.87983
 4.50778
 4.54908
 4.76194
 5.52424
 5.55255
 5.53491
 5.72231
 -1.47694
 -1.72856
 -1.35627
 -1.4685
 6.83122
 6.90747
 6.87029
 0.841935
 9.45811
 9.4978
 9.48673
 9.5434
 0.134258
 0.0858932
 -0.0561943
 0.357308
 5.56956
 5.54946
 5.23753
 5.32075
 1.71707
 1.83498
 1.80088
 1.75029
 5.56755
 5.698
 5.77756
 5.61187
 2.45217
 7.68898
 7.73061
 7.7317
 7.66913
 2.42065
 2.41835
 2.48199
 2.65776
 0.792373
 0.676875
 0.547494
 0.981443
 0.850603
 1.10798
 0.809351
 0.0640536
 -0.203696
 -0.0289871
 -0.0538403
 6.48572
 6.42271
 6.22221
 6.32523
 0.105248
 0.104925
 0.139487
 -0.0913
 7.10244
 7.13115
 7.09637
 7.2726
 0.350541
 0.204186
 0.116389
 0.110101
 4.23538
 4.34962
 4.3771
 4.43099
 1.82224
 1.67734
 1.60188
 1.54648
 3.37768
 3.484
 3.55147
 3.61403
 -0.858482
 -0.505487
 3.68873
 3.87756
 3.84333
 3.69595
 7.56307
 7.63287
 7.43319
 7.63023
 7.05727
 7.12589
 6.8858
 7.09158
 3.39645
 3.21558
 3.18474
 3.16778
 1.61426
 1.62494
 1.66291
 1.37191
 1.15126
 1.3749
 1.2318
 1.08997
 -0.324886
 -0.0473231
 -0.133208
 0.0452392
 1.15629
 0.842964
 1.0147
 1.14842
 7.03068
 7.03816
 6.92916
 7.14518
 6.33352
 6.35105
 6.38697
 6.12785
 -1.94455
 -1.75086
 -1.67753
 -1.6988
 3.07819
 2.96901
 3.02654
 2.70507
 6.10993
 5.88899
 6.09421
 5.96103
 8.90114
 8.92474
 8.74954
 8.99025
 0.0543626
 -0.061388
 0.170363
 -0.310371
 6.0033
 5.96356
 5.91667
 5.79755
 4.72872
 4.55447
 4.84314
 4.68588
 7.25232
 7.30191
 7.26795
 7.1441
 2.61912
 2.74162
 2.64024
 2.62299
 -0.496408
 -0.513492
 -0.41806
 -0.492949
 2.99397
 3.30777
 3.19784
 3.25488
 4.50052
 4.44743
 4.25838
 4.36449
 7.42453
 7.34102
 7.26447
 7.50133
 -0.521909
 2.09885
 1.92902
 2.19802
 1.93233
 4.70806
 4.80465
 4.97219
 4.88937
 1.50558
 1.3661
 1.40752
 1.2036
 6.05416
 6.20443
 6.12452
 5.99819
 2.70555
 2.55431
 2.80756
 7.54713
 7.32119
 7.4922
 7.50239
 0.681888
 1.12555
 0.855848
 0.988565
 6.78767
 6.81931
 6.69509
 6.78906
 -2.66327
 -2.56835
 -2.6382
 -2.8008
 6.00554
 5.97632
 5.94962
 5.97907
 8.53266
 8.19522
 8.22912
 8.35378
 7.60154
 7.62092
 7.48473
 7.49019
 -1.86678
 -1.72662
 -1.64687
 -1.57047
 -0.920509
 -0.904011
 -1.04892
 -1.07847
 4.12629
 3.9406
 4.01719
 3.91616
 5.78465
 5.84
 5.72304
 3.52
 3.54574
 3.82559
 3.72443
 2.18337
 2.30051
 2.03372
 2.03219
 3.43504
 3.03096
 3.16686
 3.21362
 3.82136
 3.7719
 3.421
 3.59126
 -1.84277
 -1.64676
 -1.65824
 -1.56089
 6.42846
 6.50198
 6.24444
 6.4248
 7.55872
 7.82594
 7.79665
 1.61365
 1.76196
 1.71304
 1.83007
 0.323236
 0.0927052
 0.245945
 0.296425
 5.99748
 6.03334
 5.96123
 6.36117
 6.32763
 6.22482
 6.48485
 -0.233609
 -0.0830974
 -0.323384
 0.0490271
 4.26246
 4.31245
 4.10923
 4.25933
 6.21246
 6.40884
 6.24823
 6.24815
 4.77806
 4.8892
 4.86974
 4.73139
 0.681696
 0.683773
 0.896412
 0.679373
 6.00557
 5.76353
 6.11922
 5.83482
 4.55881
 4.86481
 4.79243
 4.66646
 5.51209
 5.29591
 5.45439
 -0.833539
 -0.784558
 -0.616973
 -0.623631
 4.08769
 4.07226
 4.20975
 3.9783
 -2.01608
 -1.90416
 -2.3656
 3.71701
 3.59222
 3.65109
 3.7153
 7.34216
 7.21268
 7.42599
 7.35633
 3.03186
 2.98191
 2.86197
 2.66567
 3.87822
 3.60444
 3.95252
 5.92721
 5.88049
 5.71559
 5.80625
 6.87108
 6.81506
 6.92076
 6.77534
 6.0436
 5.92976
 5.81714
 6.05693
 8.62347
 8.58283
 8.43333
 8.41154
 5.04458
 5.09314
 5.17872
 5.19768
 5.54189
 5.62404
 5.36338
 5.66564
 -0.479232
 -0.126128
 -0.196801
 -0.604987
 6.83081
 6.60621
 6.68314
 6.73279
 2.45939
 2.55353
 2.40341
 2.3121
 -1.44024
 -1.49047
 -1.33743
 -1.2143
 -1.49495
 -1.15151
 -1.30848
 -1.40113
 0.932982
 0.774876
 0.928778
 0.857751
 -1.54488
 -1.88169
 -1.8483
 -1.38085
 -0.470821
 -0.498801
 -0.465641
 -2.07988
 -1.67244
 -1.78802
 -1.78949
 7.31483
 7.39669
 7.32338
 7.44888
 4.73671
 4.96171
 5.01155
 4.92507
 5.39063
 5.17004
 5.3405
 5.15685
 5.23283
 5.35253
 5.34635
 5.40346
 -0.717862
 -0.52726
 -0.719874
 -0.778536
 4.91385
 4.90435
 5.07898
 5.13527
 5.97406
 6.18254
 6.20633
 6.0343
 1.91891
 1.9846
 1.74495
 2.06087
 5.73848
 5.56754
 5.74188
 5.59954
 1.5255
 1.7089
 1.7868
 3.55836
 3.33254
 3.28734
 -0.158359
 0.114417
 0.0921721
 0.00733373
 4.76316
 4.68558
 4.83348
 4.83475
 2.49056
 2.69165
 2.62329
 2.44489
 5.29774
 5.53323
 5.42924
 5.23645
 -2.0491
 -1.91054
 -1.22731
 -1.12326
 -1.02194
 -1.32666
 7.43326
 7.49438
 7.49313
 7.59292
 2.47912
 2.29953
 2.25736
 2.08713
 5.91264
 5.7109
 5.88776
 5.99886
 10.0016
 10.2182
 10.0152
 10.0806
 5.96045
 6.04306
 6.15552
 6.03168
 1.69916
 1.92022
 1.71353
 6.89128
 6.9133
 6.68958
 6.71488
 -1.29981
 -1.0527
 -1.36101
 -1.13124
 5.89516
 5.81969
 5.88096
 5.80093
 2.68558
 2.46931
 2.55566
 2.66527
 7.20793
 7.1518
 7.32263
 7.19912
 9.09333
 9.0833
 9.03278
 8.96813
 6.22245
 6.07955
 6.22642
 6.27383
 4.99542
 5.07429
 4.92569
 3.29613
 3.62887
 3.28533
 3.42683
 6.51883
 6.49573
 6.666
 1.3857
 1.48271
 1.32576
 1.1737
 0.908511
 0.562956
 0.923999
 0.624951
 1.82774
 2.09242
 1.88879
 1.84563
 -1.0379
 -0.487907
 -0.682891
 -0.757247
 1.06091
 1.21491
 1.07075
 5.50726
 5.374
 5.40533
 5.30814
 1.35442
 1.56918
 2.21716
 2.43199
 2.50887
 2.32645
 1.77062
 1.86268
 1.8219
 1.68349
 6.07028
 5.9827
 6.02257
 6.18557
 6.05038
 5.91476
 6.04885
 5.91051
 10.0146
 9.91862
 9.88603
 9.95115
 6.07971
 5.92835
 6.0793
 5.38431
 5.46055
 5.5049
 5.44131
 3.85752
 3.859
 3.97496
 4.01918
 5.39949
 5.21309
 5.20066
 5.33233
 7.35704
 7.26038
 7.38172
 7.37961
 0.688585
 1.00543
 0.761319
 0.92952
 4.18242
 4.03221
 4.18262
 4.3256
 -0.499697
 -0.505104
 -0.4182
 -0.567072
 3.26793
 3.46147
 3.28627
 3.41638
 -0.799457
 -0.922392
 -0.833967
 8.93947
 8.7987
 8.85075
 8.83607
 1.87387
 1.51219
 1.79431
 1.76148
 4.47849
 4.65102
 4.4407
 4.53678
 6.38024
 6.51057
 5.3168
 5.27497
 5.17487
 5.21854
 4.64822
 4.88245
 4.83472
 -0.290729
 -0.373992
 -0.147348
 -0.316701
 -0.499268
 -0.356985
 -0.159382
 -0.257894
 6.47067
 6.51381
 6.40826
 6.49762
 4.34253
 4.40315
 5.77145
 5.58635
 5.70811
 5.8609
 1.20115
 1.39064
 1.00954
 0.996913
 7.33154
 7.30749
 7.35509
 7.25663
 6.21864
 6.15829
 6.30552
 6.31801
 5.84401
 5.64612
 5.55653
 5.65481
 3.58135
 3.61009
 3.60186
 3.31229
 1.56032
 1.59443
 1.73411
 1.74383
 1.08059
 1.25197
 1.42905
 1.20538
 9.51716
 9.54336
 9.59783
 9.64705
 6.84162
 6.67395
 6.61225
 3.2123
 3.58622
 3.36552
 3.00083
 2.8173
 3.02475
 2.77112
 -0.542484
 -0.720508
 -0.585644
 -0.802334
 4.18045
 5.90354
 5.90532
 6.08909
 6.059
 2.31672
 2.4479
 2.6411
 2.5426
 0.834762
 1.0988
 1.07548
 0.790893
 0.44278
 0.402216
 6.46132
 6.52931
 6.61202
 6.63769
 3.77535
 3.60108
 3.66706
 3.57575
 6.97606
 7.02353
 6.97509
 6.91284
 2.88118
 5.02592
 5.14928
 4.85095
 4.77904
 5.43484
 5.30609
 5.22783
 5.34818
 -0.576701
 -0.303463
 -1.02236
 -1.2171
 -1.32306
 -1.13019
 8.13576
 8.26299
 8.18976
 8.1333
 1.10886
 1.06907
 1.35466
 0.973241
 2.96499
 3.23646
 3.13121
 2.89506
 9.28
 9.23573
 9.23599
 9.33757
 3.91061
 3.90263
 3.80005
 4.01211
 4.0741
 4.30391
 4.43087
 4.41651
 6.42797
 6.59927
 6.37029
 6.44477
 -1.77597
 -2.00118
 -2.02
 -2.04511
 4.2836
 4.49381
 4.46992
 5.55915
 5.37216
 5.3696
 5.53971
 -1.24104
 -1.58078
 -1.33173
 -1.37902
 5.60975
 5.71605
 5.86818
 5.55662
 4.5404
 4.39806
 0.542815
 0.532088
 0.338553
 0.740229
 3.27488
 3.24911
 2.99087
 3.00455
 -1.06177
 -0.909292
 -1.16991
 -1.0435
 4.39342
 4.07532
 6.14358
 6.0739
 6.03167
 6.04585
 5.66676
 5.63426
 5.50685
 5.44327
 0.278569
 0.254217
 0.549066
 0.447241
 1.02514
 1.12882
 0.941625
 0.937836
 1.2386
 1.51287
 1.26272
 1.32199
 5.61772
 5.384
 5.48044
 5.60286
 8.20726
 8.3074
 8.25695
 8.20648
 -1.56366
 -1.81399
 -1.57621
 -1.69229
 6.57019
 6.55517
 6.53161
 6.43265
 3.43597
 3.27866
 3.22709
 3.40367
 5.19284
 4.89467
 5.10219
 4.99471
 3.45528
 3.70547
 3.48806
 2.53762
 2.26968
 2.5277
 2.21751
 4.02613
 3.87302
 3.98416
 4.14731
 1.7196
 1.62265
 1.43515
 1.76949
 1.71256
 1.79796
 1.69538
 2.06845
 9.2601
 9.04679
 9.24681
 7.15507
 6.98405
 6.90003
 6.9682
 3.41545
 3.56509
 3.50286
 3.51806
 0.58143
 0.328892
 0.471166
 0.310001
 5.89256
 6.11521
 5.89545
 5.78485
 5.67753
 5.6628
 2.89192
 3.0063
 2.85255
 2.84815
 3.55391
 3.35866
 3.2869
 3.25876
 -2.9978
 -2.95089
 -2.83055
 -3.06904
 7.57857
 7.51963
 7.62839
 7.82512
 1.44494
 1.36404
 4.96532
 4.76402
 4.74396
 4.94189
 1.93449
 1.79107
 1.81599
 1.757
 3.0679
 3.0194
 2.87205
 2.95836
 4.75185
 4.74352
 4.56164
 4.88376
 2.2706
 2.06229
 2.12989
 2.08798
 6.46155
 6.38761
 6.40641
 6.27409
 6.95518
 7.09267
 6.9331
 7.01164
 0.652164
 0.554111
 0.364565
 0.0304052
 3.51548
 3.39904
 3.23528
 8.44141
 8.51106
 8.38655
 0.199899
 0.0416017
 0.00991583
 -0.0682528
 -0.158837
 -0.0855656
 0.0411374
 0.0697158
 3.92347
 3.87287
 3.81544
 3.71772
 -0.555125
 -0.707257
 -0.660906
 -0.672881
 -1.15603
 -1.44002
 -1.20158
 -1.48646
 4.68013
 4.58575
 4.4307
 4.63171
 0.868758
 0.752805
 0.654655
 0.678807
 -2.82919
 -2.88636
 -2.69136
 -2.93913
 1.21529
 1.20602
 1.34041
 1.0048
 3.32308
 3.61288
 3.48909
 3.69777
 0.343711
 0.231299
 0.41043
 0.475853
 1.8902
 1.94842
 1.77687
 2.68589
 2.49295
 7.89069
 7.86097
 7.92737
 7.98024
 2.7756
 2.55418
 2.61778
 2.64677
 8.09692
 8.05731
 8.03029
 8.02021
 7.92993
 7.96705
 7.7915
 7.75184
 3.13334
 3.02441
 3.00974
 3.1985
 5.01159
 5.01166
 5.17813
 4.93483
 2.37397
 2.13195
 2.19738
 2.2224
 3.76976
 3.92516
 7.19624
 7.28463
 7.24309
 7.10438
 -1.38639
 -1.48269
 -1.59833
 -1.43149
 4.89199
 5.02651
 4.72127
 4.85539
 0.170649
 0.263177
 0.447492
 0.283986
 7.15557
 7.28289
 7.1552
 7.22534
 -0.284583
 -0.654614
 -0.545795
 -0.596555
 2.71874
 3.00706
 2.77581
 2.804
 5.80701
 5.99459
 6.13105
 6.02505
 -2.49644
 -2.39788
 -2.41856
 -2.26945
 5.47331
 5.25756
 5.42744
 5.47451
 4.61163
 4.88507
 4.69091
 4.82137
 -1.49868
 -1.54411
 -1.32557
 -1.57577
 3.92724
 4.22126
 4.12728
 4.13325
 0.325506
 0.152373
 0.271804
 0.347343
 0.449933
 0.627351
 0.554673
 4.51971
 4.85227
 4.7126
 4.75801
 0.530484
 0.326584
 0.472373
 0.390984
 6.60361
 6.41426
 6.43871
 6.60651
 -0.0953065
 -0.246185
 -0.231623
 -0.131528
 0.0203136
 0.108072
 -0.0240662
 0.0673829
 6.25938
 6.30089
 5.98022
 6.15036
 6.13333
 6.19805
 6.02399
 6.27462
 10.5438
 10.5071
 10.6187
 10.5881
 1.12273
 1.39191
 1.36068
 7.83412
 7.61977
 7.61012
 7.71316
 -1.04525
 -0.831325
 -0.885727
 -0.915069
 6.31395
 0.20167
 0.456236
 0.396177
 0.212157
 0.187035
 0.409275
 0.385586
 9.50451
 9.65721
 9.61062
 9.53912
 9.72397
 9.71454
 9.74656
 9.78881
 -0.952692
 -0.729802
 -0.918238
 -1.07989
 6.10891
 6.18833
 6.01955
 6.22126
 1.97595
 2.08411
 1.83359
 5.27422
 5.43648
 5.28679
 5.541
 4.52508
 4.51375
 4.5881
 0.197062
 0.287793
 -0.0566663
 2.98064
 2.82484
 2.80027
 2.95587
 5.20513
 5.40309
 5.40925
 5.26439
 6.30472
 6.2422
 6.33496
 6.26038
 1.9869
 1.83486
 1.81323
 7.22103
 7.13669
 7.37841
 7.38432
 6.1524
 5.83008
 6.05569
 4.68319
 4.36463
 4.43347
 4.55728
 6.35212
 6.1789
 6.18731
 6.24997
 6.2353
 6.00989
 5.96727
 6.02476
 0.0288541
 0.204723
 0.175105
 0.219557
 4.30128
 4.47794
 4.35438
 4.24125
 5.52758
 5.55638
 3.33159
 3.47793
 3.38118
 3.59142
 -0.712288
 -0.872556
 -0.957164
 -0.899507
 -0.863899
 10.707
 10.745
 10.7597
 10.708
 0.808718
 0.55646
 0.706639
 -1.8093
 -1.75778
 -1.62373
 -1.76564
 1.33981
 1.65995
 1.58535
 1.64372
 6.35533
 6.28755
 6.19233
 6.36433
 4.47522
 4.62194
 4.66859
 4.67229
 -2.00687
 -2.00568
 -1.93933
 -1.88962
 1.10672
 1.28603
 1.43035
 1.25385
 7.32303
 7.4621
 7.47274
 7.24903
 4.76171
 4.72324
 4.6766
 4.98632
 5.04959
 4.95475
 4.85056
 5.0134
 10.728
 10.7488
 10.7484
 10.7185
 6.61841
 6.65635
 6.70853
 6.55017
 1.13313
 0.838509
 1.13893
 0.99262
 2.79733
 2.81817
 2.60682
 2.88553
 4.19989
 4.07205
 3.90025
 4.12791
 1.71376
 1.47324
 1.55038
 1.55655
 2.69459
 2.68431
 2.49678
 2.7097
 1.54759
 1.55524
 1.72442
 1.29055
 -2.55739
 -2.17489
 -2.2826
 -2.6535
 0.76267
 0.893712
 0.944855
 1.26
 1.67616
 1.83093
 1.97434
 1.72989
 2.04817
 3.40357
 3.41465
 3.552
 3.20208
 -0.9817
 -0.8926
 -0.837421
 -0.844164
 4.36058
 4.48318
 4.28637
 4.3611
 2.9761
 2.87785
 2.76275
 3.10887
 3.73239
 3.95565
 3.79948
 3.62117
 5.1375
 5.41129
 5.20346
 5.37725
 8.7838
 8.71061
 8.52693
 8.79125
 -2.84432
 -2.49021
 2.29058
 2.42409
 2.44017
 10.2071
 10.203
 10.2121
 5.85824
 5.99162
 5.9052
 6.05721
 7.90499
 7.8778
 8.1033
 8.11599
 6.66238
 6.75026
 6.62257
 6.8538
 -1.21735
 -0.874205
 -1.0333
 -1.05702
 3.4436
 3.69827
 3.60057
 3.73107
 1.90356
 1.64336
 1.66618
 1.45017
 2.74614
 2.79267
 2.95992
 3.08511
 1.558
 1.4736
 1.65851
 1.60456
 4.1199
 4.11681
 0.287233
 0.810172
 0.322779
 0.763985
 1.37586
 1.52824
 1.64043
 1.2137
 5.91411
 6.127
 5.88515
 6.09414
 5.9478
 5.89224
 5.89778
 5.87677
 3.13444
 3.1107
 3.19496
 3.04154
 3.26364
 3.14358
 3.00031
 2.84821
 6.7196
 6.94586
 7.00744
 6.6697
 1.57549
 1.73891
 1.81902
 1.85058
 -2.31824
 -2.1827
 -2.28497
 -2.21003
 0.0788058
 0.211728
 0.186886
 0.295488
 -2.57251
 -2.68854
 -2.47698
 -2.74007
 -0.232273
 -0.474949
 -0.407409
 -0.423137
 3.53369
 3.26172
 3.50371
 3.43912
 1.89286
 2.05123
 4.01194
 3.75195
 4.07571
 3.93048
 6.00541
 5.83699
 5.85729
 5.79096
 0.966359
 0.659367
 0.64556
 0.882016
 4.09259
 4.14854
 4.08441
 4.31637
 4.64481
 4.80238
 4.85612
 4.76649
 6.29227
 6.28651
 6.1988
 6.05021
 5.59866
 5.62685
 5.71613
 5.43533
 6.11909
 6.00821
 5.97218
 6.06012
 8.64898
 8.62087
 8.72503
 8.69241
 1.16423
 1.08123
 1.33726
 1.13508
 2.10666
 2.0415
 8.29798
 8.24272
 8.2613
 8.42395
 5.3308
 5.26389
 2.32519
 2.50088
 2.29149
 0.255585
 0.204346
 6.63028
 6.65864
 6.74062
 6.53555
 8.45867
 8.3642
 8.37395
 8.33046
 6.90102
 6.8039
 6.70064
 6.66312
 5.35952
 5.23447
 5.18438
 5.14494
 2.69284
 2.96663
 2.97397
 2.95206
 1.89404
 1.99253
 2.02315
 2.06602
 5.45196
 5.26683
 5.25216
 5.30512
 3.03355
 3.05861
 2.9559
 3.27702
 3.5858
 3.73644
 3.78314
 3.67211
 3.35366
 3.19748
 3.09122
 3.20163
 3.16048
 3.47077
 3.14429
 4.02026
 4.17795
 3.85166
 3.98962
 4.96939
 4.88414
 5.09964
 5.0048
 6.13596
 5.9877
 6.22904
 5.99695
 -0.985459
 -0.90844
 -1.05716
 -1.20656
 4.31629
 4.3202
 4.11479
 4.12426
 6.97153
 6.97653
 7.21782
 7.02762
 7.31946
 7.30699
 7.35089
 7.40774
 6.8715
 6.98429
 6.97656
 6.90195
 6.17134
 6.18933
 5.98076
 5.94286
 6.17928
 6.29279
 6.34111
 6.26419
 -0.506895
 -0.65169
 -0.648612
 -0.699073
 4.55035
 4.55509
 4.59743
 4.39577
 1.39776
 1.22463
 1.40604
 1.49461
 6.09526
 5.87433
 6.14413
 5.97566
 -1.20941
 -1.30331
 -1.28466
 -1.5218
 -1.60227
 -1.56029
 -1.79829
 1.48184
 1.93316
 1.78096
 1.76466
 5.81611
 5.72917
 5.92561
 5.77097
 -2.19921
 -1.88297
 -1.95149
 4.80615
 4.9645
 4.8575
 5.10973
 -0.192824
 -0.231599
 0.299451
 0.216595
 0.00731338
 0.282659
 5.13228
 5.25579
 5.17877
 7.07558
 7.00999
 7.20642
 7.13931
 6.06376
 6.16953
 5.99257
 5.979
 3.67442
 3.43705
 3.73255
 -1.48992
 -1.05205
 -1.09067
 1.50144
 1.76542
 1.85367
 1.70579
 -1.50708
 -1.44898
 -1.13958
 -1.72508
 4.65583
 4.43809
 4.33529
 4.47239
 -0.391148
 -0.4536
 -0.577072
 -0.208972
 3.51326
 3.46228
 3.61549
 3.71486
 5.63343
 5.81311
 5.71737
 -2.00598
 -1.79
 -1.91034
 -2.24439
 2.16413
 2.92953
 2.66573
 2.74779
 2.87529
 2.52628
 2.50427
 2.67637
 5.74219
 5.84952
 5.83942
 5.84707
 5.85322
 5.62159
 4.5297
 4.73709
 4.75087
 4.79402
 4.57461
 4.33148
 4.51996
 4.37781
 1.66639
 -2.24131
 -1.88734
 -1.81828
 -2.0486
 9.16249
 9.321
 9.22775
 9.24302
 5.35073
 5.47214
 5.78115
 5.84408
 5.75738
 5.71203
 5.87398
 5.85251
 6.09596
 6.00505
 1.33197
 1.61525
 1.58078
 1.43493
 1.13134
 1.00738
 1.29037
 1.09415
 5.43891
 5.59757
 1.897
 1.87504
 1.57815
 1.77312
 1.78462
 1.53204
 1.76739
 3.03558
 3.1938
 3.31245
 3.38566
 4.28837
 4.48072
 4.30716
 4.49078
 1.29611
 0.976953
 1.01356
 1.26013
 0.503644
 0.421489
 0.274735
 0.499407
 0.853694
 0.597985
 0.792335
 1.16392
 1.08072
 1.13829
 1.33883
 4.58193
 4.52356
 4.50019
 4.66141
 7.80458
 7.83827
 7.73903
 7.72228
 5.09053
 5.11705
 5.21582
 5.16662
 0.491218
 0.73438
 0.899422
 0.674189
 1.94174
 2.02887
 2.04809
 1.83493
 5.02218
 4.91039
 4.8425
 4.81724
 1.9906
 2.22861
 2.07941
 2.00438
 3.21326
 3.1362
 3.45858
 3.13355
 3.22863
 3.0124
 3.09358
 3.02126
 2.11028
 1.96255
 1.97675
 -0.774199
 -0.844869
 -0.712254
 -0.763227
 5.16073
 4.9654
 5.05746
 5.03214
 3.99961
 3.78551
 3.81554
 3.86851
 7.59913
 7.7009
 7.68347
 7.53514
 6.26613
 6.12721
 6.14983
 6.24081
 6.03204
 6.31847
 6.18596
 6.35474
 6.37484
 6.27389
 6.29844
 6.22857
 3.27453
 3.39856
 3.35014
 7.04147
 7.07596
 6.99542
 6.964
 6.57665
 6.50787
 6.3784
 6.55246
 -2.03774
 -1.79694
 -1.77917
 -1.94432
 3.1617
 3.28876
 3.39165
 3.47857
 0.509623
 0.485696
 0.606274
 0.723607
 2.75282
 2.64883
 2.79863
 2.93811
 2.17339
 1.99132
 2.1688
 2.11019
 5.74799
 5.90725
 5.82691
 6.04833
 3.79458
 3.39218
 3.70288
 3.66246
 0.396157
 0.233218
 0.420766
 0.345596
 2.62772
 2.71427
 2.41301
 2.47151
 6.43343
 6.52004
 6.32565
 6.26174
 -0.791871
 -0.876736
 -0.829594
 -0.913709
 4.88972
 5.06798
 6.60742
 3.79714
 3.69712
 3.55326
 3.84686
 4.34914
 4.16047
 4.38504
 4.42734
 8.31734
 8.34411
 8.18159
 5.2075
 5.389
 5.43293
 5.54296
 2.68421
 2.32081
 2.4712
 2.27687
 3.53893
 3.36884
 3.47008
 3.54201
 -0.548325
 -0.658417
 -0.681919
 -0.610901
 6.19788
 5.90556
 6.10838
 5.84106
 5.85057
 5.90483
 5.66285
 7.98142
 8.20599
 8.0896
 7.99227
 6.27942
 6.06898
 6.21351
 2.79908
 2.35521
 2.72888
 6.40222
 6.42265
 6.56982
 6.49714
 4.29145
 4.09876
 4.05077
 4.06977
 10.7073
 10.7121
 10.7059
 10.6196
 4.57927
 4.65262
 4.64168
 7.0038
 7.0354
 7.00512
 7.00308
 4.57427
 4.67162
 4.84519
 4.68274
 6.51929
 6.36243
 6.3729
 6.29835
 1.6994
 1.60191
 1.74717
 1.54288
 1.09546
 1.28732
 1.11947
 1.01632
 -1.59796
 -1.59416
 -1.71628
 -1.42958
 3.03259
 3.31223
 3.08833
 3.01175
 6.59816
 6.78061
 6.61463
 6.7174
 5.59655
 5.67359
 7.64263
 7.64085
 7.58505
 7.58958
 4.13786
 4.05555
 5.18662
 4.8876
 4.94908
 6.00268
 5.89261
 5.80524
 5.90916
 -1.12441
 -1.2247
 -0.878458
 -0.926327
 -0.753019
 -0.684464
 -0.585226
 -0.709365
 5.77411
 5.69901
 5.8108
 5.97395
 7.04769
 6.99972
 2.76021
 2.68453
 2.74919
 2.53108
 5.95948
 6.03661
 5.88348
 5.9036
 4.8854
 5.12926
 4.71244
 -2.7728
 -2.86133
 -2.64052
 3.62916
 3.34975
 3.45888
 3.44699
 -0.157364
 -0.454532
 -0.106857
 0.021982
 3.26084
 3.05703
 3.01128
 3.28007
 1.33941
 1.15139
 1.11146
 1.46327
 6.6613
 6.50339
 6.63802
 6.70954
 5.9632
 5.72846
 6.03439
 5.79665
 3.19887
 3.41906
 3.00566
 3.282
 5.09126
 4.87486
 4.81641
 5.11138
 6.64476
 6.57691
 6.51397
 6.34928
 4.25999
 4.16257
 4.03603
 3.92973
 2.05938
 2.01833
 2.17218
 3.38382
 3.15995
 3.31398
 3.1858
 9.99411
 9.85457
 9.7782
 9.87098
 7.0441
 7.04596
 7.01385
 7.03227
 5.22416
 5.2375
 5.23881
 5.04779
 8.44835
 8.31089
 8.52052
 8.39124
 -0.249878
 -0.227495
 -0.0323954
 -1.86761
 -1.68614
 -1.46933
 -1.65988
 0.925228
 0.509715
 0.67253
 0.670522
 3.46458
 2.12226
 1.84603
 1.75428
 1.95712
 3.79385
 3.63331
 3.89565
 3.89268
 6.76218
 6.93541
 6.83822
 5.83979
 5.78799
 5.73394
 5.99201
 9.94972
 10.0934
 9.96806
 10.1494
 8.14636
 8.15709
 8.08993
 8.13096
 5.32541
 5.32925
 5.20476
 5.08811
 -2.09308
 -1.7485
 -1.85926
 -1.82855
 9.58493
 9.5731
 9.43744
 9.47762
 1.61446
 1.39798
 1.7686
 1.52226
 3.42298
 3.40822
 3.19974
 3.38707
 5.72362
 6.04033
 6.0324
 4.04399
 4.26932
 4.30866
 4.29736
 -1.70417
 -1.76998
 -1.83996
 6.63637
 6.36051
 6.3195
 4.55625
 4.47589
 4.24873
 4.29478
 5.3459
 5.39767
 5.44859
 5.49612
 5.15929
 5.19831
 4.97545
 4.93076
 6.98532
 7.09101
 7.08613
 6.90332
 4.10181
 3.95788
 4.16827
 3.94041
 -1.27644
 -0.888018
 -0.901786
 -0.706081
 -0.45111
 -0.371886
 -0.346081
 -0.580918
 7.29031
 7.26949
 7.24322
 7.28955
 0.0139809
 -0.0810997
 -0.0546701
 0.22039
 -0.952958
 -1.28012
 -1.1831
 -0.872772
 0.0287654
 0.0399299
 0.325396
 0.292784
 2.30701
 2.35938
 2.17289
 2.27107
 3.70744
 3.86357
 3.63138
 5.31596
 5.60583
 5.51568
 5.45982
 1.10499
 1.26378
 1.414
 1.09983
 0.960001
 0.86452
 0.738206
 0.814307
 -2.88029
 -2.88452
 -2.52656
 -2.74434
 8.25944
 8.15059
 8.18299
 8.15787
 7.59082
 7.66545
 7.62842
 7.51651
 6.91231
 6.94252
 6.7209
 6.95189
 5.14788
 5.41217
 5.23033
 5.24254
 4.91148
 4.88949
 4.89923
 -1.08099
 -1.25723
 -1.50329
 -1.35202
 0.715767
 0.817361
 0.94874
 0.956629
 4.08841
 4.23819
 4.30101
 4.17935
 -0.592243
 -0.750746
 2.86105
 2.85254
 2.8588
 3.06541
 -0.368308
 -0.482759
 -0.772906
 -0.528263
 3.20308
 2.91857
 3.26282
 2.88696
 5.3678
 5.24245
 5.52054
 5.41519
 7.51804
 7.63663
 7.53586
 7.4041
 10.0887
 9.95297
 10.1474
 10.0255
 -0.0764799
 0.0237789
 0.0615493
 -0.120818
 -0.86531
 -0.889922
 -0.917454
 -1.08187
 4.56761
 4.81146
 4.65579
 4.77672
 3.59538
 3.71161
 3.74436
 3.58474
 6.09969
 6.27529
 5.97702
 2.4768
 2.65005
 2.63031
 2.72664
 6.15611
 6.19492
 6.06878
 6.06776
 3.91779
 4.12005
 4.28672
 4.15691
 2.1665
 2.28909
 2.22081
 2.13763
 3.36187
 3.43438
 3.5063
 -0.0914928
 0.150385
 0.064468
 0.0696042
 2.41367
 2.13741
 8.56364
 8.33061
 8.59056
 8.48322
 1.20856
 1.36278
 1.25929
 5.71282
 5.65397
 5.65223
 5.71167
 2.55785
 2.5888
 2.66386
 3.7723
 3.97838
 3.74861
 3.89056
 2.5405
 2.79778
 2.41095
 2.62672
 2.3276
 2.06964
 9.40052
 9.39701
 9.50282
 9.39876
 9.83739
 9.99397
 10.0631
 9.91425
 3.58665
 3.84512
 3.74293
 3.8519
 2.70355
 2.84043
 2.71689
 2.88918
 9.2916
 9.31936
 9.28245
 9.16744
 5.83966
 6.04551
 7.01498
 6.97822
 6.91963
 6.76866
 2.28218
 2.36528
 2.05765
 2.23436
 2.86291
 2.79565
 2.5912
 2.9563
 2.45396
 2.70784
 2.76491
 2.70615
 5.36951
 5.35661
 5.17888
 5.37141
 6.4889
 6.53128
 6.69171
 6.46997
 7.84412
 7.66414
 7.68219
 7.83501
 6.45606
 6.46153
 6.45542
 6.17678
 1.14795
 1.31686
 1.08301
 1.21989
 3.58989
 4.08128
 3.83611
 8.39154
 8.30336
 8.18251
 1.90731
 1.54442
 1.73977
 1.74751
 1.63829
 2.06158
 1.84745
 1.76263
 4.50589
 4.64201
 4.71541
 4.24648
 4.17208
 3.98233
 4.16218
 6.5763
 6.68309
 6.72411
 6.72273
 0.398637
 0.486795
 0.298829
 0.394445
 6.94334
 6.9809
 6.97037
 6.90374
 7.02946
 7.12845
 7.03554
 -1.88799
 -2.21638
 -2.35943
 -2.11885
 0.16738
 -0.000319141
 5.663
 5.7455
 5.56282
 5.61942
 3.78464
 3.55118
 3.77981
 4.20325
 4.30986
 4.25914
 4.44971
 6.63326
 6.48529
 6.5675
 0.631191
 0.473138
 0.820664
 0.710781
 6.61534
 6.37338
 6.54526
 6.58379
 1.55941
 1.76918
 1.86803
 1.77238
 6.87671
 6.79186
 6.4201
 6.61677
 6.4685
 6.55098
 5.78324
 5.87946
 5.8299
 5.77297
 8.12139
 8.18127
 8.33232
 8.21539
 1.082
 0.828829
 5.22057
 5.09977
 5.07512
 5.09462
 -1.64738
 -1.54237
 -1.60539
 -1.71755
 5.29792
 5.41013
 5.16807
 5.01827
 0.658909
 0.406498
 0.332788
 0.326178
 -0.724679
 -1.0072
 -0.560099
 -0.933974
 1.58657
 1.84001
 -0.886864
 -1.11238
 -1.03722
 -0.950682
 6.6085
 6.6356
 6.6464
 6.47272
 -0.839962
 -0.922913
 -0.949148
 -0.823674
 -1.9726
 -2.26647
 -2.21493
 -2.01454
 2.75124
 2.73981
 2.5277
 2.5959
 4.04474
 4.13234
 3.89461
 3.78767
 -0.485444
 -0.16886
 -0.366703
 -0.494725
 8.38453
 8.2092
 8.31671
 8.42564
 -0.34309
 -0.678385
 5.19107
 5.05829
 5.03165
 4.84658
 -0.150243
 -0.0327454
 0.192459
 0.164013
 6.54031
 6.36765
 6.3981
 6.40777
 4.77398
 5.06721
 4.96328
 4.81282
 6.17041
 6.22519
 5.99699
 6.5604
 6.65683
 6.55224
 6.71931
 6.93994
 6.79305
 6.83748
 6.7641
 2.68765
 2.83895
 2.90998
 0.104152
 0.0781555
 -0.138756
 -0.112515
 3.31113
 3.43014
 3.51544
 6.53776
 6.66939
 6.57168
 3.72171
 3.40692
 3.67972
 3.49218
 2.48222
 2.52719
 2.46235
 2.19405
 4.34463
 4.10889
 4.07529
 4.16363
 4.62693
 4.72761
 4.78604
 4.91374
 5.02963
 5.05831
 4.70786
 4.59956
 4.47203
 4.80898
 -0.00833875
 0.0940246
 -0.00111923
 0.197998
 1.72395
 1.88338
 1.74333
 1.64644
 4.20675
 4.13887
 4.24592
 3.93744
 6.58605
 6.71349
 6.61243
 3.27143
 3.41052
 3.2757
 3.23745
 5.5409
 5.78705
 5.69239
 5.80524
 8.9678
 8.91648
 8.9985
 9.04529
 4.93243
 5.03973
 4.97924
 4.99674
 -0.275934
 -0.21926
 -0.464639
 -0.372076
 5.01322
 4.77283
 4.90652
 5.0258
 6.82215
 6.83202
 6.76049
 6.69651
 6.58016
 6.68584
 6.679
 4.16608
 4.12767
 4.18279
 2.32721
 5.09347
 5.39954
 5.21928
 5.22594
 -0.693876
 -0.6323
 -0.791187
 -0.249445
 -0.304431
 -0.413735
 5.09409
 4.89437
 5.04479
 4.92455
 -2.06059
 -2.16495
 -2.23769
 -2.26119
 6.46146
 2.92753
 3.12873
 2.96989
 3.04043
 6.35611
 6.28062
 6.30733
 6.27001
 -0.607392
 -0.75
 -0.396681
 -0.607441
 1.99581
 1.6523
 1.78778
 1.92119
 0.926442
 0.783253
 1.07658
 1.01397
 6.93116
 6.87661
 6.80311
 6.9322
 5.53199
 5.36483
 5.54544
 5.53742
 3.28241
 3.41732
 3.22731
 3.4512
 5.2668
 5.47686
 5.18817
 5.39327
 2.15906
 2.06297
 1.84327
 1.89794
 6.34432
 6.41761
 6.23509
 6.24466
 5.6284
 5.53448
 5.37068
 5.47402
 2.81032
 2.78592
 2.82215
 2.54429
 -0.819547
 -1.10373
 -0.94137
 -1.12018
 6.91584
 6.87421
 6.72757
 6.78838
 8.01339
 8.20989
 8.00318
 8.02338
 -0.763788
 -0.985291
 -0.884289
 -0.947448
 7.95089
 8.09818
 7.74739
 7.82279
 7.85393
 7.6924
 3.74642
 3.63158
 3.82369
 3.96094
 5.54949
 5.43128
 5.43533
 5.62246
 -2.74218
 -2.83516
 -2.81539
 -2.65998
 -0.55064
 -0.525862
 -0.836146
 2.02689
 2.04928
 1.84865
 2.12413
 6.62702
 6.57847
 6.75641
 6.52198
 5.68594
 5.72155
 5.78633
 5.86062
 5.73942
 5.60712
 2.00577
 1.6288
 1.74977
 1.90735
 2.39855
 2.39511
 2.59604
 2.34282
 1.68617
 1.71223
 1.94298
 1.69448
 -1.82217
 -1.86488
 -1.4224
 -1.96793
 1.18995
 1.18168
 1.41845
 4.84168
 3.34081
 3.39738
 3.33206
 3.5008
 3.24571
 3.48973
 3.41578
 3.34722
 0.343984
 0.464026
 0.483217
 0.61456
 1.20427
 1.35379
 1.34136
 1.11823
 2.73764
 2.93537
 2.94261
 5.19465
 5.32363
 5.14407
 5.43564
 3.42163
 3.06495
 3.27867
 3.23353
 5.00975
 4.88358
 5.11019
 9.51775
 9.52115
 9.61267
 9.45238
 0.145307
 -0.252129
 -0.0910704
 0.0461441
 0.387895
 -0.0305386
 0.195827
 9.3995
 3.17621
 3.12311
 3.20597
 2.92889
 2.79988
 2.75419
 7.67835
 7.64137
 7.66093
 7.6042
 6.85646
 6.79846
 6.62989
 6.87227
 5.89793
 5.79538
 5.83077
 6.01334
 6.20821
 6.11813
 6.00488
 6.20846
 6.22968
 6.07467
 4.7601
 4.9125
 4.97263
 4.98798
 4.5865
 4.37965
 -3.01853
 -3.03087
 6.51763
 6.23817
 6.53599
 6.35754
 4.2197
 4.28482
 4.14178
 4.37595
 7.00679
 6.95634
 7.23291
 7.15032
 -0.0977064
 -0.251223
 0.144625
 -0.0165882
 0.423326
 0.626214
 0.435877
 0.645576
 2.20395
 2.03853
 2.00451
 2.11934
 3.35339
 3.27568
 2.96578
 3.10244
 3.59239
 3.71027
 6.56314
 1.46596
 1.21698
 1.26648
 1.21593
 -1.68109
 -1.62315
 -1.98395
 -1.55648
 0.229552
 -0.0432007
 0.285206
 0.173255
 10.6974
 10.6991
 10.6776
 10.635
 -1.50799
 -1.55644
 -1.45556
 -1.46637
 5.98762
 5.9828
 6.16175
 5.88516
 5.19187
 5.4094
 5.32334
 5.47989
 1.80456
 1.77477
 1.64922
 1.60225
 1.78617
 1.84847
 1.9654
 1.9064
 6.59298
 6.30886
 6.45474
 6.38568
 -1.17014
 -1.2688
 -1.1414
 -1.18016
 -0.171294
 -0.311292
 -0.243899
 -0.392716
 1.43613
 1.39316
 1.2225
 1.2181
 -0.483159
 -0.298594
 -0.392237
 -0.481951
 5.5687
 5.37349
 5.37376
 5.30022
 6.57854
 6.53991
 6.4873
 6.43443
 0.0791217
 0.262893
 0.347229
 0.287531
 4.3965
 4.42685
 4.49665
 4.67423
 4.08695
 4.18767
 4.23144
 4.10389
 9.86674
 9.7898
 9.72382
 9.78144
 -1.3476
 -1.40163
 -0.630091
 -0.676657
 -0.461074
 -0.812769
 7.27641
 7.43851
 7.49222
 7.24048
 5.50011
 5.74906
 5.75383
 5.84433
 -0.249938
 -0.0875907
 -0.369968
 -0.417358
 4.75901
 4.69351
 4.81107
 4.59687
 4.98949
 4.92625
 5.15501
 5.13817
 -1.69475
 -1.75656
 -1.62234
 -1.56656
 3.37461
 3.43589
 3.36632
 3.27632
 3.88125
 3.81013
 3.86461
 4.01349
 0.904105
 0.783369
 0.711806
 0.854331
 2.12784
 2.20056
 2.27094
 2.40456
 4.64617
 4.61567
 4.87535
 5.49268
 5.33348
 5.43819
 5.15866
 7.64432
 7.70864
 7.73827
 7.48842
 5.18672
 5.06625
 5.02739
 4.99035
 3.6022
 3.73203
 3.62695
 3.78727
 -1.84776
 -1.93144
 -1.89808
 -1.59529
 5.17382
 4.82356
 5.01039
 5.01562
 7.14906
 7.15003
 7.27759
 7.37493
 1.55406
 1.33213
 1.44108
 1.61435
 2.53512
 2.57321
 2.68537
 3.47201
 3.1781
 3.13781
 3.06188
 7.78452
 7.78662
 7.77704
 7.6538
 3.13973
 3.34326
 3.26011
 3.42485
 -1.01574
 -1.04354
 -1.03407
 -1.07675
 3.36831
 3.36516
 3.30923
 3.22566
 6.99357
 7.09851
 7.03319
 6.97261
 6.31674
 6.18805
 6.33245
 6.48165
 -3.15452
 -3.07498
 -3.17087
 -3.17883
 5.60067
 5.55744
 5.58719
 5.83631
 2.61291
 2.95867
 2.86093
 2.77043
 -2.88344
 -2.90835
 -2.74075
 -2.73389
 -0.671529
 -1.00254
 -0.823413
 1.53389
 1.55766
 1.28335
 1.20543
 -0.143798
 -0.170233
 -0.476179
 -0.0582876
 9.09676
 8.99422
 8.89449
 8.93162
 6.15148
 5.95836
 6.22926
 -1.359
 -1.62136
 -1.57028
 -1.61033
 2.71929
 2.78236
 2.55484
 2.86127
 0.818443
 0.883237
 0.58723
 1.03434
 6.83902
 6.85727
 7.00509
 7.08347
 4.81267
 4.58321
 4.84679
 4.67299
 2.10811
 2.46791
 2.35115
 7.54687
 7.48341
 7.39616
 7.41043
 6.41954
 6.68445
 6.57466
 6.64173
 5.01959
 -1.382
 -1.51977
 -1.42325
 -1.60247
 8.80248
 8.80191
 8.92889
 8.93651
 0.962521
 0.57141
 0.769557
 0.519611
 2.46625
 2.62729
 2.553
 2.78642
 9.58861
 0.310718
 0.496907
 0.197608
 -1.26087
 -1.57814
 -1.3921
 -1.41914
 4.16948
 4.12866
 3.81545
 4.04262
 2.12967
 2.13778
 1.95404
 2.26599
 6.03624
 6.2206
 3.77838
 3.88149
 3.87725
 3.64935
 6.03658
 6.15037
 6.25389
 6.09977
 5.35627
 5.44071
 5.16117
 5.16484
 1.62124
 1.78073
 1.62013
 1.55173
 8.27605
 8.28913
 8.28962
 8.10154
 6.63124
 6.73299
 6.65991
 6.78457
 7.98997
 7.8619
 7.12975
 7.1341
 7.11443
 7.1226
 7.31491
 7.43374
 7.24331
 7.40049
 -1.62303
 -1.52415
 -1.30082
 -1.30555
 2.80359
 2.80665
 2.90043
 2.56718
 4.83874
 4.55967
 4.74366
 4.71879
 3.35643
 3.43875
 3.49169
 3.28718
 -1.64829
 -1.60848
 7.61841
 7.70165
 7.68294
 7.61537
 -1.58917
 -1.66793
 -1.46676
 8.61835
 8.67127
 8.62505
 8.70383
 -1.01205
 -0.744917
 -0.948509
 -0.771782
 5.20239
 5.34371
 5.14253
 5.35126
 4.3095
 4.27631
 4.3731
 -1.49303
 -1.3518
 -1.40254
 -1.53681
 2.97803
 3.18612
 2.94692
 3.12777
 4.17576
 4.07317
 3.88658
 4.08094
 5.11622
 5.22281
 4.64362
 4.9897
 4.73497
 4.87271
 2.50901
 2.74771
 2.63627
 -1.8243
 -1.46624
 -1.43055
 -1.7142
 4.41096
 4.27406
 4.43162
 4.37713
 4.7609
 4.87764
 5.51084
 5.70117
 5.75088
 5.57723
 8.44793
 8.42441
 8.27768
 3.05623
 3.00779
 3.2907
 3.29749
 -1.45765
 -1.47099
 -1.49399
 7.97402
 8.07486
 7.97238
 4.32264
 4.47436
 4.37083
 4.56177
 1.94825
 1.94646
 2.21417
 2.12057
 8.98221
 9.03987
 8.99572
 8.96868
 -0.0566056
 -0.130945
 0.00980576
 0.0472843
 1.79918
 1.96538
 1.93685
 2.02357
 0.205667
 0.132674
 0.294247
 -1.29887
 -1.35565
 -1.69461
 -1.48334
 3.56102
 3.81654
 3.59258
 3.56084
 -0.863974
 -0.793055
 -0.718788
 -0.66849
 5.22093
 5.28637
 5.15464
 5.37911
 -1.7202
 2.33748
 3.88893
 3.98269
 3.78809
 4.04323
 2.48285
 2.53761
 2.7295
 2.76471
 1.23258
 1.16884
 1.31217
 1.51274
 2.48065
 2.57628
 2.324
 2.43445
 0.844357
 1.00144
 0.792315
 0.828318
 3.87639
 4.00716
 3.9218
 3.7439
 4.15906
 4.08801
 4.04902
 3.95525
 4.81662
 4.86544
 4.93802
 4.69503
 3.99488
 4.00405
 4.19091
 6.81907
 6.78514
 6.81813
 6.68487
 3.70282
 1.99002
 1.70618
 1.68267
 1.82812
 -1.30021
 -1.32156
 -1.02414
 5.38727
 5.66549
 5.55158
 5.63465
 3.40027
 3.13204
 3.20746
 2.40144
 2.43944
 2.59303
 2.621
 1.90507
 1.82098
 1.59524
 1.53154
 -0.419643
 -0.548273
 -0.701536
 -0.496658
 6.153
 6.19214
 6.07084
 6.35252
 3.23598
 3.38092
 3.42383
 3.50569
 4.02145
 4.14014
 4.2768
 4.03689
 4.2535
 4.38425
 4.41292
 4.5502
 3.81651
 3.89494
 3.77002
 4.00055
 1.19647
 1.59506
 1.13628
 1.41107
 4.21264
 4.54192
 4.41766
 4.37616
 7.66525
 7.65967
 7.6675
 7.60548
 7.83801
 7.72825
 7.75204
 3.80944
 3.77443
 3.59164
 3.56265
 3.6933
 3.61212
 3.52515
 3.45474
 4.04751
 4.22726
 3.92757
 3.93064
 -1.06769
 -1.10225
 -0.787808
 -0.829819
 1.17115
 1.39821
 1.41549
 1.15837
 5.69157
 5.57126
 5.60005
 5.54976
 6.70792
 6.50784
 6.53956
 6.79094
 -0.212752
 -0.149495
 -0.00480651
 -0.222926
 8.73668
 8.83808
 8.80611
 8.65292
 5.01635
 4.81849
 4.93142
 4.95567
 7.11253
 6.99806
 7.0176
 6.2344
 6.12734
 6.104
 5.9628
 1.5851
 1.64857
 1.46511
 1.82594
 6.15384
 6.40914
 6.31591
 6.24085
 7.71734
 7.38362
 7.60874
 8.95597
 8.81938
 8.7353
 8.79512
 -1.98984
 -2.07356
 -2.18595
 -2.38575
 5.96351
 6.08822
 5.98545
 5.91449
 2.74011
 3.04568
 2.98977
 2.80017
 -0.816179
 -0.653874
 -0.455754
 -0.626229
 0.535553
 0.23188
 0.642376
 0.46692
 5.80083
 5.7647
 5.8941
 5.81189
 7.23779
 7.41432
 7.55917
 7.37081
 3.19784
 3.06256
 3.28775
 3.16712
 7.17048
 6.94881
 4.61364
 4.91652
 4.85383
 4.69579
 4.37177
 4.3897
 4.51058
 4.30622
 4.62477
 4.60685
 4.71049
 6.78187
 6.7206
 6.78141
 2.62802
 2.62219
 2.54659
 2.47999
 2.98759
 3.0158
 3.17622
 2.80924
 5.7868
 5.56819
 5.6669
 5.76546
 1.06239
 0.811791
 1.15886
 1.04593
 3.87932
 4.14284
 4.00014
 3.79649
 6.97601
 6.9773
 7.01281
 6.98307
 5.02508
 4.87958
 5.01559
 2.86658
 2.87404
 3.06881
 2.9004
 3.63299
 3.50415
 3.36961
 -1.95332
 -1.86318
 -1.80182
 -1.74468
 8.03652
 8.11639
 8.0196
 8.24098
 5.27985
 5.07773
 5.1032
 5.23277
 5.40329
 5.44798
 5.61199
 5.39602
 -2.164
 -2.08375
 -2.36839
 -2.55332
 0.876749
 0.751513
 0.775127
 6.06765
 6.10356
 6.18374
 6.08491
 0.605172
 0.88277
 0.765339
 5.9595
 5.94475
 6.08181
 6.04245
 10.0834
 9.99282
 10.0677
 9.98931
 -0.806922
 -0.895706
 -1.07588
 -0.763084
 6.75014
 6.80391
 6.88338
 7.02857
 -1.63151
 -1.56023
 -1.52261
 -1.58504
 6.31556
 6.09994
 6.26633
 6.17246
 10.0142
 10.1793
 10.0437
 10.0414
 7.53904
 7.70798
 7.56044
 7.48015
 6.67778
 6.54563
 6.42703
 6.70854
 3.85984
 4.15932
 6.74503
 6.70903
 6.98722
 6.94707
 2.653
 2.77177
 2.84176
 2.96745
 4.11193
 4.10869
 4.218
 3.93632
 -0.663172
 -0.362437
 -0.863548
 -0.913169
 -0.123328
 0.00330612
 -0.187718
 -0.247821
 0.422247
 0.604606
 0.456404
 0.641642
 -0.329655
 -0.381282
 -0.437598
 -0.276435
 1.87095
 1.9374
 1.72167
 1.89086
 0.318487
 0.0644366
 0.137186
 0.247592
 7.87467
 8.08642
 8.11269
 7.8536
 -0.442531
 -0.591409
 -0.527941
 -0.492777
 4.70977
 4.86982
 4.97094
 4.88729
 0.905689
 1.28501
 1.18379
 -0.165275
 -0.390528
 -0.376419
 -0.296667
 6.66288
 6.86011
 6.87803
 6.80439
 7.59587
 7.65022
 7.73395
 7.69002
 1.44369
 1.48454
 1.61499
 1.25948
 4.43924
 4.46522
 4.51138
 4.63458
 1.89104
 2.04691
 1.90864
 1.9482
 1.93976
 1.94453
 1.51495
 4.96173
 5.01855
 5.18432
 2.04615
 1.95353
 3.2632
 3.54408
 -1.81887
 -1.96911
 -1.95644
 -1.83563
 3.48197
 3.38888
 3.51103
 3.26816
 2.04594
 2.15385
 1.85876
 2.1499
 2.89638
 2.77283
 2.88002
 2.68606
 0.350264
 0.564523
 0.448766
 0.595939
 0.625909
 4.46969
 4.43386
 4.63951
 4.64495
 7.0524
 7.05195
 7.0494
 7.03633
 1.99341
 2.22308
 1.98429
 2.12239
 1.87011
 1.99577
 2.06681
 1.80852
 9.71719
 9.62232
 9.57086
 9.46635
 3.80298
 3.62036
 3.71739
 3.84552
 3.92401
 4.10589
 4.18227
 4.00339
 2.20289
 2.37191
 6.72121
 6.67457
 6.60004
 6.69984
 5.35569
 5.24599
 5.30746
 5.42067
 6.44244
 6.52236
 6.58875
 6.57152
 5.58429
 5.44965
 5.4764
 5.61671
 6.36848
 6.38431
 6.46567
 6.34824
 0.813709
 0.924122
 0.840562
 0.684936
 -0.472126
 -0.44465
 -0.204381
 -0.357728
 5.86286
 5.94833
 6.05643
 5.85559
 3.8126
 3.9982
 3.82855
 3.91191
 0.42714
 0.701131
 0.497842
 0.628774
 4.63502
 4.74269
 4.7639
 4.51941
 5.88687
 5.75194
 7.3951
 7.32061
 7.27787
 7.41302
 4.22191
 4.29097
 4.40812
 4.49467
 0.263021
 0.373558
 0.36143
 0.0785544
 -1.31682
 -1.15018
 -1.20601
 -1.3437
 9.30102
 9.29623
 4.66235
 4.48898
 4.42568
 4.37159
 4.96085
 5.24441
 5.06333
 5.05496
 5.20899
 5.26926
 6.27844
 6.17887
 6.20729
 6.11627
 4.13939
 3.95296
 3.86508
 7.83714
 7.72936
 7.72086
 7.63743
 -0.307637
 -0.490916
 -0.142309
 -0.337837
 -1.11101
 -1.09594
 -1.10165
 -2.10609
 -1.91357
 -1.70892
 -1.89212
 3.03866
 2.71091
 2.83309
 2.79006
 3.84796
 3.58782
 3.95109
 3.72272
 0.942425
 0.592888
 0.464274
 0.676807
 2.17773
 2.2086
 1.99222
 2.18923
 2.5981
 2.39469
 2.50251
 3.48973
 3.45137
 3.56548
 3.30216
 1.53325
 1.09318
 1.25023
 1.48791
 4.55732
 4.65852
 4.5429
 4.51061
 3.65878
 3.71731
 3.48257
 3.78112
 2.10492
 2.15782
 2.26966
 2.05747
 3.82674
 3.9729
 4.03471
 3.8025
 9.96172
 10.0046
 9.8611
 9.86539
 6.16304
 6.2383
 6.23775
 6.36319
 1.56038
 1.55891
 1.30551
 1.27613
 6.19555
 6.15852
 6.38113
 6.44973
 6.70128
 6.93562
 6.69446
 6.54578
 0.0180297
 0.058977
 -0.101881
 0.215875
 0.283036
 0.533245
 0.302347
 0.362
 -0.547088
 -0.328319
 -0.556379
 -0.611138
 1.03401
 1.04577
 0.829824
 0.916158
 4.77802
 4.81388
 4.94393
 4.81325
 6.12011
 6.18589
 6.03748
 6.21903
 1.89925
 2.24216
 1.8801
 2.15692
 6.03203
 5.97326
 5.95116
 5.96005
 7.36064
 7.31757
 7.26808
 7.18684
 4.04731
 3.88208
 4.01586
 3.8566
 5.17019
 5.29493
 5.43848
 4.9998
 4.93699
 4.69187
 4.89359
 7.19298
 7.29496
 7.44379
 7.30123
 5.91819
 5.94642
 6.02719
 5.97787
 1.73393
 1.59098
 1.71268
 1.61313
 3.55807
 3.37547
 3.33862
 -2.13297
 -1.89563
 -1.92907
 -2.06778
 -1.0331
 -1.25029
 -1.42196
 -1.18038
 5.21743
 5.07012
 5.29578
 5.07584
 3.08109
 2.91488
 6.87169
 6.88461
 7.06734
 6.80989
 3.51049
 3.70736
 3.80723
 3.63631
 -0.620399
 -0.691689
 -0.45677
 -0.656224
 6.07507
 6.03559
 5.96733
 4.64914
 4.61044
 4.5685
 4.81963
 5.10527
 4.83734
 4.87588
 4.9374
 3.95717
 3.74147
 3.71501
 4.00057
 4.1548
 4.03526
 3.89103
 4.06169
 3.47693
 3.34863
 3.504
 3.29879
 4.36826
 4.21932
 0.788853
 0.911811
 0.531954
 0.829993
 4.20142
 4.39969
 4.32922
 4.20324
 2.56288
 2.88954
 2.7632
 4.27972
 4.08463
 4.21087
 4.09939
 2.65364
 2.76449
 2.87834
 2.71587
 6.23106
 6.41374
 6.27467
 6.50377
 4.49528
 4.53087
 4.30424
 3.07848
 3.05127
 2.7849
 3.2057
 4.15816
 4.19143
 4.04706
 6.45213
 6.38917
 6.55545
 2.3824
 2.41058
 2.41501
 2.65461
 3.8495
 3.69539
 3.67238
 9.3153
 9.27184
 9.20733
 9.44745
 2.20732
 2.3639
 2.47327
 2.1846
 5.01585
 5.24894
 5.2195
 5.27328
 0.533571
 0.536836
 0.450854
 0.301568
 0.0762914
 0.239235
 -0.0449111
 -0.00139324
 6.63727
 6.40166
 6.68938
 6.64504
 3.24789
 3.40443
 3.51654
 5.50042
 5.70278
 5.5649
 5.56887
 -0.214903
 0.144078
 -0.0510036
 3.72532
 3.546
 3.67316
 3.4746
 1.85889
 1.76678
 1.76828
 1.8184
 -0.616051
 -0.713879
 -0.787866
 -0.590834
 10.4901
 10.5956
 10.5696
 10.4896
 5.72599
 5.6893
 5.5763
 5.74099
 3.24782
 2.87604
 3.01544
 2.93143
 7.40695
 7.53984
 7.57624
 3.83699
 3.65336
 3.71399
 3.88009
 -1.09834
 2.15857
 2.31148
 2.5799
 2.349
 0.242091
 0.249705
 0.198837
 0.106921
 1.02862
 1.12372
 1.16912
 1.00648
 3.20338
 3.28214
 3.55021
 3.80028
 3.80268
 3.78422
 8.98852
 8.84638
 8.97816
 8.89128
 5.40388
 5.4834
 5.56096
 5.68404
 5.66602
 5.52625
 5.65014
 -1.0638
 -1.50147
 -1.06725
 -1.04435
 3.96507
 3.98161
 3.73592
 3.75189
 3.12622
 3.21705
 3.38847
 3.24304
 -0.0941688
 0.0656001
 -0.214418
 0.0670426
 3.6856
 3.73773
 3.50801
 3.70786
 7.94848
 7.88987
 8.04473
 7.99128
 4.18604
 4.25824
 4.13783
 4.22016
 5.78248
 5.77579
 5.74652
 5.62199
 6.13952
 6.28119
 6.25321
 6.17977
 7.16614
 7.10724
 7.17344
 7.17524
 8.26192
 8.33533
 8.37026
 8.16377
 -2.14476
 -1.93807
 -2.0354
 -1.96598
 8.69704
 8.63965
 8.78353
 8.55422
 3.97394
 4.10405
 3.96041
 4.15073
 -1.84363
 -1.81357
 -1.65404
 -1.68851
 4.83886
 4.87428
 4.7543
 4.68514
 7.07258
 -0.575032
 -0.43468
 -0.483327
 -0.733503
 6.29836
 8.02569
 7.83528
 7.80723
 7.98295
 2.8972
 2.63485
 0.880739
 1.16578
 0.837497
 1.12124
 0.112025
 0.14062
 -0.0198854
 0.00809602
 -2.30541
 -2.06371
 -2.31927
 0.836449
 0.554119
 0.570973
 0.594096
 4.695
 -1.43127
 1.93033
 2.00806
 2.08414
 -1.10005
 -1.27877
 -1.31513
 -1.22739
 4.75195
 4.76029
 4.77059
 4.9
 5.70437
 5.65043
 5.79178
 5.86975
 2.00633
 2.15987
 2.09343
 1.7709
 -1.16621
 -1.36494
 -1.10459
 -1.09337
 -0.285256
 -0.219354
 -0.356769
 -0.200414
 2.56508
 2.21946
 2.26132
 8.2871
 8.388
 8.08591
 8.28301
 10.3574
 10.2081
 10.2889
 10.2155
 7.19744
 7.40711
 7.43214
 7.3202
 3.36027
 3.17514
 3.39847
 7.82375
 7.6691
 7.73089
 7.85787
 0.497106
 0.567927
 0.294482
 0.591248
 0.543243
 0.693213
 0.592422
 6.22608
 6.30087
 1.67473
 1.48406
 -2.87021
 -2.69818
 -2.91747
 -2.03707
 -2.12791
 -2.08815
 -2.21114
 4.37474
 4.55402
 4.26022
 4.40249
 5.46392
 5.5037
 5.59639
 5.38077
 4.12887
 4.13511
 3.93068
 3.97178
 -1.54942
 -1.52959
 -1.59173
 -1.52986
 1.74394
 1.63096
 1.70555
 1.84749
 7.16087
 7.17231
 7.16188
 7.0297
 1.61269
 1.53799
 1.70787
 1.45627
 3.14009
 3.09192
 3.28471
 3.0447
 2.03268
 1.87096
 1.89676
 10.7611
 10.7269
 10.7087
 5.44603
 5.54927
 4.72762
 4.7219
 4.90089
 4.62498
 1.15845
 0.917132
 1.08141
 1.15748
 1.61006
 1.50972
 1.23391
 1.46115
 1.44516
 1.56748
 1.18937
 9.11985
 9.13029
 7.26653
 7.28847
 7.18997
 7.25212
 3.12164
 9.23874
 9.38242
 9.32279
 9.31446
 5.8389
 5.61889
 5.79197
 5.81946
 4.50737
 4.60199
 8.21511
 7.93751
 7.96252
 8.10578
 -2.16431
 -2.43391
 -2.3261
 -2.22166
 -1.24679
 -1.32296
 -1.21142
 -1.52796
 6.49326
 6.17069
 6.40942
 6.24089
 5.47783
 5.58584
 5.22662
 5.30524
 5.44438
 5.55577
 5.4456
 1.30186
 1.16628
 1.48709
 1.29459
 7.07274
 6.96108
 6.88238
 6.85816
 3.98403
 3.89671
 4.01505
 2.43717
 2.38956
 2.2872
 2.11576
 5.55357
 5.51612
 5.38937
 5.47538
 6.10459
 5.92446
 5.81393
 6.00976
 6.16043
 6.28929
 6.255
 6.10824
 4.83594
 4.75824
 4.59831
 4.76006
 2.2457
 2.41051
 5.7932
 5.75505
 5.70127
 5.86202
 -2.24565
 -1.84524
 -1.89816
 -1.92238
 6.40783
 6.31089
 6.40377
 6.28781
 7.76373
 7.81018
 7.62403
 7.7168
 3.04778
 2.99833
 8.64353
 8.60325
 8.74894
 8.56349
 5.13182
 5.00797
 5.21806
 -0.984416
 -0.900796
 -1.07003
 -1.10357
 8.44268
 8.51035
 8.45862
 6.20694
 6.21618
 6.04758
 6.10896
 8.10416
 6.25066
 6.33009
 6.29668
 6.48167
 3.73193
 3.86909
 3.70766
 3.73386
 4.5454
 4.50017
 4.3908
 4.55879
 -1.30469
 -1.5926
 3.44076
 3.32532
 3.3709
 3.43712
 6.35301
 6.56304
 6.32265
 6.5767
 5.35553
 4.96329
 5.16854
 5.34417
 -0.524786
 -0.343318
 -0.360805
 -0.372159
 4.53421
 4.4538
 4.25493
 4.32525
 3.05859
 0.218301
 0.0730824
 0.289563
 5.28435
 5.23691
 5.4257
 5.16321
 1.75194
 1.82148
 1.70272
 1.98052
 4.95842
 5.09815
 5.09392
 4.87839
 -1.29117
 -1.03354
 -0.983746
 -1.1347
 -2.79527
 -2.91627
 -2.73191
 6.19662
 6.0681
 5.89483
 6.01897
 2.59716
 2.49245
 2.7535
 2.66084
 1.826
 1.75802
 1.60687
 1.50507
 5.52495
 5.51027
 6.11701
 6.19636
 6.25812
 6.05703
 4.88411
 4.58283
 2.75973
 2.683
 2.79245
 2.86998
 2.30658
 2.22049
 2.05041
 2.31403
 4.68824
 4.60162
 4.44034
 4.53923
 2.97544
 2.95477
 2.94635
 -0.261762
 0.0273066
 0.102023
 -0.0357729
 0.933543
 1.00873
 0.864929
 4.73418
 4.43922
 4.7382
 4.57969
 5.95209
 6.17758
 6.28667
 6.03921
 1.80663
 2.06418
 2.04897
 1.87924
 4.53283
 4.55248
 4.76609
 7.07503
 7.09772
 7.06685
 7.09432
 5.53756
 5.55997
 5.47392
 5.40819
 0.725843
 0.779856
 0.939591
 -2.1193
 -1.84333
 -1.88133
 2.01694
 1.90717
 1.89291
 5.55034
 5.72521
 5.48233
 5.66204
 -1.87447
 -1.91359
 -1.85988
 -2.00992
 2.37208
 2.49441
 2.37241
 2.21023
 0.358432
 0.247385
 -0.0906016
 -0.0262499
 0.704344
 0.581561
 0.704217
 0.680217
 7.6453
 7.77721
 7.77569
 4.83243
 4.78451
 4.92098
 4.76447
 0.441858
 0.330742
 0.544436
 0.539002
 4.27299
 4.17754
 4.14817
 3.93085
 1.58717
 1.58558
 1.63954
 1.89277
 -0.84536
 -1.00694
 7.20073
 7.07292
 7.09693
 7.01633
 1.16671
 1.30158
 0.982971
 1.22979
 4.85924
 4.94653
 5.00925
 4.80652
 2.02276
 2.29642
 -1.68422
 -1.67447
 -1.47075
 -1.77585
 0.377663
 0.0833692
 0.471771
 -0.0388495
 -2.09988
 -2.1225
 -2.31128
 -2.43509
 1.33469
 1.3729
 1.24532
 1.97699
 1.67989
 1.73357
 1.81646
 1.65317
 1.82001
 1.74666
 1.98995
 5.8372
 5.7843
 5.95886
 6.00794
 7.9894
 8.06373
 7.88053
 3.80962
 3.78104
 3.76976
 -0.183944
 0.0494197
 -0.0923436
 0.110123
 4.65345
 4.52222
 4.3519
 4.51076
 6.39711
 6.60674
 6.56624
 6.38645
 3.73816
 3.93789
 4.04626
 4.04234
 5.00172
 4.74169
 4.98754
 -1.67471
 -1.7681
 -1.46974
 -1.47508
 7.01249
 6.95141
 6.61858
 6.51899
 6.50466
 1.61659
 1.52601
 1.75644
 1.39191
 4.01368
 3.79042
 3.78834
 3.88233
 6.66361
 6.6306
 6.4886
 6.63389
 3.09814
 3.46314
 3.44622
 3.2165
 5.25991
 5.39798
 5.15365
 5.16423
 -0.461761
 -0.532805
 -0.872424
 5.53191
 5.56433
 5.40565
 5.42119
 3.18894
 3.0335
 6.75334
 6.54124
 6.60683
 6.71855
 6.48081
 6.64125
 6.56362
 6.63081
 -0.788441
 -0.639731
 6.21785
 6.05336
 6.14605
 6.28389
 3.71833
 3.92193
 3.80981
 3.7131
 4.9713
 7.80642
 7.95109
 7.90498
 2.99332
 3.03526
 2.967
 3.14988
 -0.838891
 -0.863183
 -0.689144
 -0.963173
 7.60096
 7.57624
 7.51007
 7.65772
 6.51544
 6.37981
 6.55425
 6.52217
 1.91151
 1.80027
 1.79249
 7.41391
 7.40007
 7.30237
 7.26081
 -2.1598
 -1.91886
 -2.06514
 -2.20715
 7.15167
 7.03685
 6.99411
 7.22377
 2.26536
 2.5
 2.32598
 2.09024
 4.91469
 4.7929
 4.8366
 4.96854
 6.62445
 6.55992
 6.59466
 5.15944
 4.94089
 5.17549
 4.9963
 6.79705
 6.95904
 6.8517
 6.85208
 6.36388
 6.48154
 6.39639
 1.08299
 1.29566
 1.02902
 1.24025
 1.47556
 4.05561
 3.63693
 3.90684
 3.89719
 -1.06564
 -0.978372
 -0.830211
 -0.980637
 2.99219
 2.75504
 3.12466
 2.84172
 2.2145
 2.04703
 2.21952
 2.28383
 6.55603
 6.63127
 6.44393
 6.1562
 6.20995
 2.47876
 2.7519
 2.55096
 2.44135
 -0.864909
 -1.20017
 3.39294
 3.33458
 3.53456
 3.28496
 6.79804
 6.83918
 6.68816
 -0.338899
 -0.477945
 -0.26206
 -0.346742
 3.44805
 3.72319
 3.63566
 3.58402
 6.63823
 6.73302
 6.63696
 6.56841
 3.9599
 3.99242
 3.69737
 3.90517
 2.41348
 2.0408
 7.45438
 7.5364
 7.49322
 7.58405
 6.23188
 5.94704
 5.81848
 5.91413
 5.7705
 5.81534
 5.85368
 6.06825
 5.99785
 5.88361
 3.58649
 3.59713
 3.64042
 2.61045
 2.70212
 2.78315
 2.88216
 5.9185
 5.94125
 5.90511
 5.93585
 4.8952
 4.92546
 3.12493
 3.28646
 3.20179
 3.36243
 3.15098
 3.12227
 4.07864
 3.84303
 3.81338
 4.02
 8.58913
 8.40969
 8.44245
 8.35796
 3.20911
 6.79826
 6.63938
 6.75172
 6.79047
 -1.56759
 -1.78291
 -1.54154
 1.35711
 1.42754
 1.56247
 1.32202
 4.05589
 3.93916
 4.01663
 4.31049
 3.60335
 3.43426
 3.68216
 6.26967
 6.13365
 6.20673
 6.30467
 -0.625793
 -0.814526
 -0.374282
 -0.688509
 2.34857
 2.42421
 2.23478
 2.30224
 -0.600865
 -0.682941
 -0.323829
 -0.515722
 7.00225
 6.97861
 7.13274
 7.12362
 5.89007
 5.75224
 1.19997
 1.29102
 1.40647
 1.26371
 -0.980127
 -1.00417
 -1.05091
 -0.901614
 -2.77716
 -2.87755
 -2.6896
 -2.94951
 -0.750355
 -0.568896
 -0.768513
 2.40165
 2.2281
 2.44996
 2.31654
 -0.487424
 -0.586462
 -0.687345
 -0.607298
 7.12299
 6.9778
 6.84292
 7.00693
 0.295676
 0.13552
 0.0879321
 2.40823
 2.47481
 2.53534
 2.53656
 6.8265
 6.89903
 6.82374
 6.94576
 1.91016
 1.67051
 1.81727
 1.79978
 2.89108
 2.72354
 2.65733
 2.85729
 5.6057
 5.51771
 5.43342
 5.3089
 7.24828
 7.21827
 7.41374
 7.40121
 4.45195
 4.38873
 4.22235
 4.41405
 8.90923
 8.86822
 8.6686
 8.76327
 6.42803
 6.31633
 6.44631
 6.05738
 6.24002
 6.24355
 6.28943
 9.50378
 9.44577
 9.60405
 9.438
 -0.25771
 -0.0889623
 -0.109151
 0.629785
 0.597589
 0.400481
 0.446697
 5.90719
 5.6317
 5.71929
 7.94432
 7.90181
 7.98355
 7.16614
 7.32209
 7.16263
 7.1489
 5.81736
 5.84238
 5.68952
 5.96668
 2.28433
 1.98926
 2.1479
 2.18609
 8.53811
 8.53992
 8.42922
 8.59248
 2.71327
 3.05165
 3.09311
 2.81484
 0.627248
 0.450603
 0.802988
 0.621619
 3.17257
 3.18707
 2.86548
 3.00286
 4.50064
 4.63306
 4.34513
 6.69688
 6.71367
 6.69579
 6.5938
 -0.667697
 -0.863428
 -0.93377
 -0.859758
 0.312186
 0.177834
 0.332799
 0.475467
 5.70287
 5.55921
 5.64998
 5.78369
 -1.23421
 -1.3589
 -1.47729
 -0.809758
 -1.15808
 -0.874896
 -0.937555
 -1.15563
 -1.19049
 -0.992647
 -1.06125
 8.32845
 8.36972
 9.51603
 9.48861
 9.57677
 9.39401
 2.46645
 2.56196
 2.70988
 3.98639
 4.13019
 3.81983
 4.07961
 3.6617
 3.43885
 3.5098
 3.63404
 10.6571
 4.63173
 2.70319
 2.49724
 0.396258
 0.259239
 0.325594
 0.327505
 7.9489
 5.09696
 4.92536
 5.1014
 -3.01384
 -2.8826
 -2.89019
 -2.89552
 3.59172
 3.74473
 3.59225
 3.41633
 -1.46534
 -1.32504
 -1.45993
 -1.2489
 4.49409
 4.27945
 4.649
 5.03289
 4.80944
 4.94825
 -0.215107
 -0.293666
 -0.015283
 -0.243244
 2.74771
 2.85769
 3.00923
 3.11581
 7.06958
 7.18841
 6.95516
 7.0041
 0.389321
 -0.000517898
 0.146945
 -1.40648
 -1.76297
 -1.76578
 -1.42167
 0.457038
 0.509111
 0.699117
 0.477653
 5.9145
 5.94002
 5.63081
 5.95698
 5.53075
 5.66077
 5.63483
 5.64782
 -0.402344
 -0.576228
 -0.560369
 -0.594586
 4.6819
 4.67084
 4.85242
 1.01543
 0.983264
 1.0761
 1.20301
 6.70693
 6.54918
 6.7965
 6.77864
 2.5328
 2.42438
 2.71651
 2.59624
 6.87914
 6.76302
 6.87306
 6.85994
 3.23857
 3.07772
 3.25228
 3.16227
 0.750905
 0.716158
 0.505411
 0.923407
 7.21922
 7.27025
 7.14605
 3.44136
 3.25704
 0.123948
 0.238008
 0.253818
 0.404391
 4.67246
 4.79047
 4.81063
 7.00722
 7.16331
 7.20526
 7.12778
 1.96427
 1.87798
 1.99016
 1.79682
 2.38105
 2.41133
 2.06442
 2.32193
 10.1279
 10.1334
 9.99431
 10.0838
 3.76749
 3.99121
 3.85224
 9.13533
 9.01605
 8.97476
 3.60549
 3.63858
 3.75131
 3.65825
 3.88462
 6.95758
 6.92226
 7.17067
 7.09098
 4.41101
 4.23184
 4.15074
 0.3879
 0.385097
 0.397015
 0.494089
 4.13355
 4.03557
 3.92534
 3.92871
 3.92923
 4.00867
 4.05317
 -2.67274
 -2.55618
 -2.52061
 -2.34733
 6.10599
 5.76098
 5.84366
 5.95417
 7.44336
 7.43557
 7.36898
 7.38
 5.10728
 5.17436
 4.875
 5.07899
 -0.146772
 -0.264648
 -0.303572
 0.0301781
 10.2151
 10.0932
 10.1911
 10.0206
 1.10835
 1.35405
 1.19588
 1.1796
 7.44566
 7.5605
 7.4872
 7.50751
 0.273969
 0.783129
 0.651964
 0.424407
 0.913095
 1.04947
 1.16895
 1.01205
 1.11163
 0.993964
 5.87132
 5.98562
 5.99745
 5.89936
 -0.652322
 -0.668659
 -0.655896
 1.16906
 1.50767
 1.3585
 1.10828
 6.20036
 6.01236
 6.13689
 6.30986
 5.13108
 5.20856
 4.968
 10.7733
 10.7698
 10.819
 10.7714
 3.89888
 4.17381
 3.88577
 -0.648746
 -0.80907
 -0.600207
 -0.536417
 0.638306
 0.803028
 -0.374647
 -0.613856
 -0.786175
 -0.458304
 1.4951
 1.47339
 7.53714
 7.48347
 7.68068
 7.37608
 0.914838
 0.964722
 0.93857
 1.20118
 3.57825
 3.45823
 5.28276
 5.13974
 5.18552
 5.26422
 0.733671
 0.617379
 0.542076
 0.625958
 5.77005
 6.08589
 6.06973
 5.83559
 -0.480412
 -0.457738
 -0.690418
 -0.99852
 2.84667
 2.78957
 3.03208
 7.78083
 7.85632
 7.87714
 7.77453
 2.35203
 2.39713
 2.49659
 2.61984
 6.09446
 6.26537
 6.31018
 6.38336
 5.92543
 6.13586
 5.9929
 10.3451
 10.355
 10.351
 10.2703
 7.21655
 6.96332
 6.90151
 7.12917
 0.593357
 0.714856
 0.48389
 0.728566
 3.97447
 3.91351
 4.11563
 4.92836
 6.67247
 6.58188
 6.6421
 6.52143
 4.83075
 4.98754
 4.84597
 4.77519
 1.6269
 1.30504
 1.26741
 1.56147
 6.74159
 6.7377
 6.42785
 7.99555
 2.90854
 2.81576
 3.05858
 2.71163
 6.6016
 6.36076
 9.29345
 9.40413
 6.64886
 6.51364
 6.65077
 6.84713
 1.54407
 1.35362
 0.0718538
 0.0860981
 -0.00612173
 0.123296
 5.29446
 5.12822
 5.10677
 5.13751
 -1.39665
 -1.44767
 -1.6294
 -1.45671
 5.24828
 5.22127
 5.59221
 5.57224
 1.10083
 1.06964
 1.19237
 1.4725
 6.19117
 6.18124
 6.09233
 6.08433
 0.904544
 0.76917
 1.05349
 0.872638
 4.58421
 4.41268
 -0.959734
 -0.831088
 1.99139
 1.82764
 2.06587
 1.77163
 1.97997
 2.0844
 2.06975
 1.82738
 3.28789
 3.41994
 3.22343
 3.21695
 0.931548
 1.20731
 0.904404
 0.720312
 6.25753
 6.43316
 6.32855
 6.33923
 -0.787515
 -0.678931
 -0.655879
 -1.09827
 -1.1919
 -0.959016
 -1.11433
 6.81569
 6.62217
 6.62669
 6.71411
 1.57501
 1.83973
 1.80325
 1.68751
 6.83526
 6.68367
 6.66919
 6.51885
 3.59132
 4.13606
 3.85983
 3.8555
 4.12004
 0.294509
 0.258725
 0.258072
 0.52975
 8.87794
 8.99235
 8.91421
 8.77716
 1.709
 1.57518
 1.41298
 1.61405
 3.70648
 3.51797
 3.91069
 3.75647
 1.52512
 1.69189
 1.72472
 1.73707
 2.13445
 -2.61843
 -2.48317
 -2.17429
 -2.32976
 0.757462
 0.741796
 1.08552
 1.00203
 9.26086
 9.18836
 9.08038
 9.28343
 4.62114
 4.83775
 4.928
 4.74104
 5.5538
 3.54324
 3.56294
 3.49864
 3.33544
 -0.468173
 -0.465842
 -0.236063
 -0.123161
 0.27957
 0.311996
 0.0564278
 -0.443108
 0.0631187
 -0.177976
 -0.0729285
 10.1668
 10.0992
 1.06436
 1.10121
 1.09113
 5.71045
 5.71935
 5.77191
 5.55938
 1.36672
 1.47678
 1.33477
 1.5334
 3.2823
 1.89469
 2.11773
 1.8869
 1.94898
 -1.06371
 -0.661965
 -0.781334
 -1.03823
 1.94567
 1.78385
 1.49157
 1.89143
 4.69991
 4.62514
 4.89923
 4.47984
 6.86679
 6.83406
 6.91964
 6.79798
 -2.29238
 -2.01653
 -2.35522
 -2.25466
 1.47558
 1.5729
 1.38463
 1.65654
 -1.96696
 -1.86296
 -1.90617
 -2.07917
 5.66854
 5.92898
 5.66886
 5.63459
 3.3291
 3.43688
 -0.985418
 -1.32159
 -0.962004
 -1.13529
 3.31327
 3.25673
 3.26034
 3.05336
 4.05665
 3.8261
 3.42796
 3.33944
 3.19796
 3.43087
 0.134871
 0.161255
 0.242895
 -0.0152823
 5.24734
 5.48047
 5.5838
 5.37745
 7.63612
 7.50471
 7.6136
 7.61361
 7.08564
 7.14099
 7.14648
 7.15155
 5.42864
 5.32006
 5.30701
 5.47868
 4.4969
 4.76386
 4.58128
 4.33218
 4.63071
 4.48496
 4.40329
 3.65895
 3.79573
 3.87124
 3.69989
 7.7082
 7.74395
 7.67626
 4.86382
 4.98593
 4.7497
 4.79356
 3.31544
 3.1153
 3.13871
 3.39681
 5.88909
 6.07091
 5.80398
 6.08673
 5.49663
 5.33393
 5.37348
 5.39047
 3.00163
 2.99468
 2.83377
 2.68291
 3.90333
 4.08131
 3.91914
 3.96711
 1.7596
 1.86387
 1.77256
 1.85851
 7.17247
 7.1247
 7.06502
 0.508066
 0.634411
 0.346422
 0.602838
 5.8804
 5.70838
 5.83722
 5.96447
 4.51304
 4.61681
 4.7116
 4.44811
 4.13334
 3.95358
 3.9015
 2.57582
 2.58798
 2.50821
 2.34435
 2.05404
 2.03084
 1.88318
 2.14885
 1.68921
 1.6294
 1.45168
 0.0180398
 -0.0431072
 -0.0530009
 2.13856
 2.23805
 2.3879
 2.24244
 -0.190419
 -0.301802
 -0.0164188
 -0.706596
 -0.719803
 -0.656699
 -0.454105
 3.99832
 4.37267
 4.1578
 4.25461
 5.57744
 5.71089
 5.53602
 5.69358
 6.36019
 0.00234923
 0.10532
 -0.266463
 0.0102712
 -0.169914
 0.251505
 10.4379
 10.5055
 10.4287
 10.3754
 1.0233
 1.21357
 4.48594
 4.67301
 4.43625
 -1.9677
 -2.19332
 2.52665
 2.84739
 2.7537
 2.69676
 4.64124
 4.53786
 4.53314
 0.967302
 0.550265
 0.785659
 0.659151
 5.59818
 5.5491
 5.6823
 5.47573
 9.54735
 9.42265
 9.45378
 9.58662
 2.8592
 2.81815
 2.91387
 2.63616
 0.169916
 -0.254386
 0.146695
 0.722305
 0.742846
 0.679727
 0.876169
 5.9873
 6.25427
 6.19914
 6.36132
 5.95591
 5.81787
 6.64047
 6.49754
 6.69178
 -2.03923
 -1.87034
 0.232185
 0.478708
 0.210437
 0.515401
 3.41761
 3.13299
 3.18037
 1.20063
 1.46367
 1.00431
 1.00863
 5.88001
 6.15627
 6.10543
 5.97235
 3.79882
 3.82166
 3.62801
 3.58431
 3.9078
 3.75009
 3.73561
 3.91369
 6.21327
 6.12586
 6.207
 5.80425
 5.90504
 5.82429
 5.84576
 -2.8355
 -3.04148
 -2.91418
 -3.14689
 7.34296
 7.55614
 -0.543745
 -0.673126
 -0.62907
 -0.487669
 4.46424
 4.2669
 4.35442
 4.45286
 3.33585
 3.18661
 3.19175
 3.16991
 7.12376
 6.99224
 3.56855
 3.71496
 3.72288
 3.85245
 4.4927
 4.56922
 4.62719
 4.42541
 0.321285
 0.357365
 0.438606
 0.297801
 4.11207
 3.95969
 3.92445
 4.20919
 5.72016
 5.70692
 2.53552
 2.53021
 2.65325
 2.47762
 1.50609
 1.59463
 1.4064
 3.40039
 3.18287
 3.25842
 3.13951
 6.49729
 6.39974
 6.5432
 6.30232
 9.74328
 9.607
 9.6263
 9.75898
 4.02417
 4.14438
 3.98029
 3.74632
 3.09264
 2.80724
 3.02937
 3.07758
 4.72392
 4.61135
 4.83286
 4.78774
 5.37896
 5.49148
 5.35174
 5.26191
 0.237632
 0.00923044
 2.46757
 2.57962
 2.66517
 8.58719
 8.65204
 8.7364
 8.56067
 6.16689
 6.31675
 6.06513
 6.38281
 3.45196
 3.38431
 3.5113
 3.59132
 0.25653
 0.156388
 0.167512
 4.36849
 4.45192
 4.68552
 4.69287
 5.83584
 5.58707
 5.67613
 5.84849
 1.2071
 1.48426
 1.49933
 1.33678
 2.59823
 2.66456
 2.74934
 2.73238
 0.537051
 0.495588
 0.518297
 0.933894
 0.898842
 0.897906
 0.892458
 4.9696
 4.91941
 5.07817
 5.15901
 4.19011
 4.24869
 4.06849
 9.52998
 9.50579
 9.5285
 9.6176
 5.77813
 5.76541
 7.54166
 7.6553
 7.48826
 7.38228
 6.31818
 6.99077
 -0.3819
 5.64174
 5.84214
 5.68865
 5.92922
 -2.22909
 2.44387
 2.63954
 2.44713
 2.72742
 5.69004
 5.50676
 5.60548
 4.92425
 4.75705
 4.75233
 0.419218
 0.387684
 0.696969
 0.427
 0.564351
 0.700513
 0.525517
 0.698706
 6.70326
 6.93063
 6.93817
 6.77438
 -1.16883
 -1.21246
 -1.32405
 -1.03336
 3.77616
 3.96607
 4.1327
 0.613677
 0.439528
 0.54836
 3.05005
 3.24429
 3.17073
 3.01108
 5.63153
 5.52927
 5.76186
 5.68798
 3.06109
 2.74664
 3.0414
 5.42016
 5.35642
 5.34839
 5.55918
 4.43862
 4.15666
 0.327524
 0.171799
 0.116033
 -0.0897647
 -0.419172
 -0.71745
 -0.549686
 -0.476307
 6.25113
 6.07129
 6.31519
 6.15332
 1.41489
 1.73029
 1.57724
 1.34349
 2.60284
 2.93342
 2.66543
 2.50709
 4.77306
 4.94884
 4.68275
 4.80146
 -0.119739
 -0.00430711
 0.0719634
 0.20122
 4.33749
 4.52795
 4.21664
 4.30876
 3.77864
 3.93341
 3.93852
 3.60878
 4.32829
 4.46003
 4.28487
 4.26004
 6.09601
 5.90452
 6.43935
 6.31057
 6.1833
 6.40096
 7.7918
 8.01574
 7.85297
 7.79577
 2.47703
 2.49206
 2.53396
 2.2849
 2.78862
 2.99451
 2.99619
 -1.26483
 -1.31032
 -1.35447
 -1.32673
 -2.04642
 -2.17779
 -1.94966
 -0.74688
 -0.861435
 -0.517631
 3.06908
 2.81946
 2.65853
 2.9746
 1.79648
 1.65349
 1.5154
 1.9091
 0.445248
 0.237025
 0.398192
 0.201646
 5.47232
 5.66606
 5.61956
 5.49809
 7.44566
 7.31094
 7.22442
 7.22952
 -2.08197
 -2.11928
 -1.89592
 -2.32001
 5.882
 5.9459
 6.03492
 5.84635
 3.31156
 3.31825
 3.20531
 3.37078
 -2.29111
 -2.22307
 -1.92222
 -2.47161
 2.30508
 2.53023
 2.23347
 2.30996
 4.62367
 4.7173
 4.62974
 4.70689
 5.81273
 5.96772
 5.94315
 6.96993
 6.77693
 6.89425
 7.00046
 6.4934
 6.56756
 6.47471
 6.58401
 6.44078
 6.53308
 5.98379
 5.87147
 6.18971
 0.658828
 0.803492
 0.839592
 0.871365
 -0.943676
 -0.792047
 -0.84202
 -0.816513
 2.08162
 2.16181
 2.11532
 2.42089
 4.18426
 -0.296703
 -0.398374
 -0.368375
 -0.208451
 7.00995
 7.02007
 7.0301
 7.06316
 -1.57516
 -1.71642
 -1.52732
 -1.84529
 4.97846
 5.13118
 4.85381
 1.59106
 6.88552
 6.90462
 7.02762
 6.21194
 6.31311
 6.4241
 6.13818
 3.49146
 3.5242
 3.81137
 3.60982
 1.16509
 1.15909
 1.33205
 0.994133
 4.19478
 1.66596
 1.77735
 1.81854
 4.10226
 4.14314
 4.09354
 3.88394
 5.43654
 5.3813
 5.53248
 5.53584
 4.88765
 5.1302
 4.95258
 4.91905
 1.56033
 6.03844
 6.00793
 5.92336
 0.782766
 0.937182
 0.719355
 0.870851
 0.000418118
 0.0856482
 -0.199752
 0.156934
 -0.896897
 -1.03959
 -0.867876
 5.4556
 5.44288
 5.57718
 5.43634
 7.21508
 7.3265
 7.2258
 0.386908
 0.418508
 -0.0646214
 0.0299258
 0.144982
 0.155718
 4.15758
 4.12159
 3.98494
 -1.66443
 -1.59062
 -1.78821
 -1.57096
 0.192604
 0.271804
 0.170837
 0.0832185
 2.32163
 2.27798
 2.17174
 2.11867
 3.30024
 3.23494
 3.36709
 3.53772
 5.868
 5.89503
 5.9482
 5.80412
 0.0322748
 0.0242828
 0.147415
 -0.159356
 5.32329
 5.26621
 5.51015
 4.90316
 4.7355
 4.70297
 4.65799
 -0.9047
 -0.849099
 -1.17033
 -1.00997
 1.71027
 1.68041
 1.75833
 1.8429
 -1.80895
 -1.63829
 -1.44517
 -1.69072
 4.9455
 4.81372
 4.73249
 4.75912
 3.36432
 3.29223
 3.53116
 3.13113
 -0.135911
 -0.0987751
 -0.255278
 -0.165267
 3.50827
 3.35076
 3.58085
 3.53877
 -1.77896
 -2.04952
 -1.82129
 5.53913
 5.60657
 5.63809
 5.60886
 2.89286
 2.8982
 2.97129
 3.1089
 2.43515
 2.20952
 2.39219
 2.3529
 3.77435
 3.89346
 3.57594
 3.80867
 0.0708628
 0.0769653
 -0.20766
 -0.0259489
 4.05224
 4.27594
 4.13283
 4.20292
 2.59095
 2.64886
 2.62429
 2.77559
 7.1092
 7.09947
 7.13172
 7.10836
 0.755378
 0.710211
 0.898307
 1.00853
 7.15348
 7.15692
 7.1602
 5.90295
 5.99338
 5.99223
 5.88415
 6.54927
 6.45773
 6.1385
 6.39679
 1.11856
 1.20473
 1.05222
 0.905017
 1.91426
 1.61883
 1.85988
 1.80805
 5.00195
 5.18252
 5.16116
 5.27567
 -2.49088
 -2.32943
 -2.15043
 9.44776
 9.47752
 2.59273
 2.40496
 2.71068
 2.60963
 8.13148
 8.2796
 8.44563
 8.29993
 1.94927
 1.90743
 1.65624
 1.77366
 4.77949
 5.34265
 5.4196
 5.4675
 5.57737
 1.11978
 1.06864
 1.02221
 0.931001
 -0.280924
 -0.164481
 -0.416637
 -0.217349
 7.10164
 7.1017
 1.55887
 1.44696
 1.10478
 1.47865
 2.88779
 3.27218
 2.84416
 3.05187
 5.74936
 5.74821
 5.86784
 5.5045
 4.05609
 4.24798
 4.28717
 4.04361
 0.342084
 0.608208
 0.081636
 -1.01428
 -0.944253
 -0.972315
 -0.951202
 -2.23062
 -2.22804
 -2.30903
 5.22259
 5.33485
 5.30145
 5.18355
 -0.769695
 -0.601043
 -0.518726
 -0.489452
 6.65364
 6.79214
 6.73587
 6.6963
 2.09392
 2.1406
 2.05324
 2.32376
 3.08307
 2.82479
 3.02693
 3.01738
 -1.04577
 -1.05156
 -1.03237
 -1.18973
 1.80511
 1.67744
 1.86424
 2.00057
 8.51973
 8.60195
 8.64218
 8.52828
 4.17975
 4.47871
 4.2075
 4.41064
 5.13429
 4.88107
 4.88855
 5.1335
 1.21445
 1.10025
 1.32484
 1.49808
 6.43127
 6.55546
 6.60955
 6.59676
 2.62978
 2.78651
 2.76524
 2.51373
 5.34536
 5.48613
 5.52291
 7.31685
 7.41367
 7.39635
 7.46488
 2.52816
 2.32548
 2.66748
 2.12237
 2.14656
 2.26955
 6.01725
 6.18921
 6.31335
 6.36193
 6.37656
 6.29745
 6.23025
 -0.625363
 10.583
 10.5137
 10.5336
 10.6423
 0.137686
 0.296814
 -0.0442146
 0.160134
 6.81238
 4.85261
 4.89249
 4.93555
 4.67797
 5.16326
 5.28711
 4.91223
 5.973
 5.72852
 5.8431
 5.92066
 8.46991
 8.5021
 8.40091
 8.61692
 6.66294
 6.5285
 6.5401
 3.36551
 3.4761
 3.46877
 5.25157
 5.32205
 -2.79614
 -2.52908
 -2.5185
 6.54586
 6.38998
 6.61784
 4.94158
 4.78993
 4.71047
 -0.774993
 -0.998229
 -0.980513
 1.03925
 1.02858
 0.811034
 1.01471
 5.86539
 5.76914
 5.70366
 7.15558
 7.3274
 -1.31081
 -1.13879
 -1.41669
 -1.32341
 7.97034
 7.9176
 8.1013
 7.80361
 6.50643
 6.56816
 9.73409
 9.84618
 9.08877
 9.11155
 9.0412
 4.91197
 4.79497
 5.00771
 -1.14926
 -0.904763
 -0.768938
 1.66454
 1.64593
 1.43381
 5.75086
 5.63946
 5.4598
 5.35199
 5.52321
 -0.252124
 7.24189
 7.2439
 7.174
 7.16727
 5.09152
 4.7505
 4.99302
 4.97343
 1.28416
 1.32205
 1.16771
 1.58139
 1.54889
 1.68528
 1.62162
 4.93533
 5.00404
 4.82179
 4.67526
 1.5571
 1.49243
 1.3041
 1.31636
 0.866114
 1.05319
 0.935956
 0.684364
 3.80802
 1.55807
 1.47453
 1.4469
 1.36804
 -1.64551
 -1.7667
 -1.64101
 -1.49803
 6.13825
 6.44809
 6.49563
 6.26984
 -1.17194
 -1.34285
 -1.22135
 -1.19611
 9.85907
 9.79565
 9.90115
 -1.22793
 -1.07835
 -1.45303
 -1.35819
 6.08095
 6.11938
 6.2901
 6.26944
 0.715804
 0.935169
 0.773556
 0.612443
 6.48768
 6.47515
 6.84435
 6.76296
 -1.89648
 0.407808
 0.725056
 0.594925
 0.818611
 -0.338434
 -0.552325
 -0.465359
 7.07367
 6.98991
 7.12958
 7.19163
 1.16147
 1.32835
 1.32634
 1.45066
 2.79676
 2.58247
 2.56755
 2.65687
 3.0999
 2.97409
 3.26373
 3.28246
 -2.34941
 -2.09842
 4.5589
 4.5387
 4.56402
 4.89587
 4.73316
 4.66008
 4.56482
 1.40733
 1.56296
 1.19898
 1.15675
 1.4789
 1.37332
 1.38028
 1.18745
 2.48117
 2.44234
 2.28941
 2.54313
 6.03213
 6.03722
 5.58191
 5.70317
 5.7136
 4.9355
 4.79827
 4.79611
 4.77216
 7.4321
 7.5671
 7.53936
 7.54315
 5.07207
 5.21289
 5.37068
 8.40861
 8.40959
 8.25931
 5.0789
 5.10001
 5.26653
 4.96068
 6.02745
 5.79914
 6.08785
 4.07042
 1.36457
 1.46281
 1.18685
 4.62106
 4.67383
 4.53811
 4.43054
 6.61259
 6.60237
 6.1851
 6.39804
 3.76821
 3.6282
 3.5577
 3.55329
 0.514559
 0.666336
 -2.54618
 -2.35883
 -2.23018
 -2.56862
 1.31543
 1.37385
 1.19561
 1.51965
 4.50821
 4.54139
 4.56533
 4.44727
 -1.81454
 -1.8405
 -2.24888
 -1.669
 -1.34015
 -1.44445
 -1.50521
 3.52933
 3.79178
 3.87793
 3.63606
 6.91722
 6.96302
 6.83014
 4.43207
 4.45288
 4.21831
 4.43587
 7.07026
 7.27334
 7.05674
 7.28557
 1.94897
 1.95258
 1.88843
 2.38129
 7.07529
 7.07197
 7.08762
 7.03699
 5.95555
 5.84607
 5.79847
 5.88128
 -1.26161
 -1.00553
 -1.3266
 -1.07838
 3.43481
 3.4254
 3.60969
 3.4141
 5.12274
 5.23697
 5.05991
 5.21193
 1.29558
 1.26252
 0.697309
 0.334044
 0.454347
 0.488639
 4.73407
 4.51776
 4.57925
 4.32196
 4.25873
 4.12672
 4.21159
 4.23264
 6.79681
 6.68389
 6.83218
 4.82868
 4.96594
 5.07277
 10.2636
 10.394
 10.2851
 10.3553
 5.83652
 5.7613
 7.08171
 7.00125
 7.07383
 7.22718
 2.85121
 3.06255
 2.87377
 3.12086
 8.40346
 8.22729
 8.15006
 8.30714
 6.34079
 6.38828
 6.56682
 1.93779
 1.88051
 1.91534
 2.02138
 6.27857
 6.12672
 6.33901
 6.5608
 6.54453
 6.71521
 6.67664
 4.98098
 5.08486
 5.05873
 4.85903
 0.884299
 0.318288
 9.1718
 9.10623
 5.93583
 6.08087
 4.39
 4.56428
 4.49134
 4.52645
 2.14218
 1.97169
 2.13441
 1.85187
 3.87867
 3.85825
 3.74738
 3.71085
 7.04414
 7.31339
 7.10104
 7.19315
 2.89775
 3.1472
 3.01826
 6.86402
 6.91329
 6.84213
 6.8499
 -0.569716
 -0.569121
 -0.755113
 -0.447845
 2.14154
 2.14625
 2.1373
 2.35394
 6.64862
 6.53564
 6.70345
 4.34253
 4.57111
 4.36637
 4.26746
 7.16072
 7.18416
 7.12018
 6.35195
 6.16855
 6.22721
 6.33129
 6.48369
 6.51844
 6.34829
 6.46149
 4.5578
 4.72465
 4.76701
 4.83726
 -1.45594
 -1.34343
 -1.20459
 -1.24912
 2.59408
 2.34469
 2.46051
 2.38806
 4.57013
 4.81975
 4.6391
 3.44369
 3.54388
 3.53897
 -0.354791
 -0.0493946
 -0.330667
 -0.139824
 2.46383
 2.42169
 2.64502
 2.3293
 4.76012
 4.60494
 4.55207
 4.55426
 7.38218
 7.34627
 6.69179
 6.79523
 6.59966
 6.59548
 9.44642
 9.4928
 9.6235
 9.44764
 1.2701
 1.23649
 1.22457
 1.34114
 6.16542
 6.35344
 6.29993
 6.31381
 3.84503
 4.04306
 3.91705
 4.1496
 7.65736
 7.73536
 7.7033
 7.76525
 3.26451
 3.37248
 3.48457
 3.46916
 4.35411
 1.47404
 1.59658
 1.74118
 1.67152
 4.68774
 4.91328
 4.95474
 4.74721
 4.77095
 4.66478
 4.53004
 4.59568
 5.29233
 5.47119
 5.40721
 5.51679
 6.58702
 6.76483
 6.48398
 0.297387
 0.24567
 0.180201
 0.602352
 4.82066
 4.88393
 4.88472
 4.95441
 0.52061
 0.430791
 0.255153
 1.99711
 2.16272
 2.01973
 2.12019
 0.940678
 0.594126
 0.779703
 0.569361
 6.72778
 6.57729
 6.75877
 10.6575
 10.5971
 10.5807
 1.65363
 1.37388
 1.44784
 3.20961
 2.85193
 3.02973
 2.81116
 5.10553
 5.02735
 4.94041
 5.10205
 4.53253
 4.46185
 4.72527
 4.66464
 8.73286
 8.62428
 8.87588
 8.61369
 3.78632
 3.88757
 3.91078
 3.93454
 2.78503
 2.76596
 2.60245
 2.86569
 6.2315
 6.21897
 5.7812
 6.12262
 5.95303
 5.93004
 1.82846
 2.005
 1.8793
 1.89657
 6.40772
 6.21833
 2.60136
 2.70583
 6.96663
 10.3935
 10.421
 10.3972
 10.2977
 7.66485
 7.49986
 -2.01147
 -2.29657
 -2.06716
 7.26217
 7.11403
 6.9754
 7.12056
 1.55774
 1.5484
 5.96892
 6.01169
 5.9866
 5.97298
 5.38635
 5.06172
 5.18581
 1.41117
 1.29931
 1.37045
 1.12846
 2.38352
 2.16385
 2.35672
 2.28092
 0.138801
 0.122611
 -0.127169
 4.61273
 4.7933
 4.59438
 4.87402
 4.02843
 0.00368954
 0.397263
 0.0975226
 0.190462
 7.14207
 7.18371
 7.08885
 7.01721
 3.56329
 3.74607
 3.5181
 3.71502
 1.18636
 1.52483
 1.2823
 1.46618
 9.74988
 9.71442
 9.67059
 9.65429
 6.62251
 -1.813
 4.96324
 4.68244
 4.86543
 5.05202
 3.53671
 3.35732
 3.60157
 3.668
 6.02394
 6.2548
 6.1329
 6.07251
 3.34608
 3.44906
 3.35855
 3.31483
 6.8007
 6.76251
 6.60591
 6.8411
 6.70023
 6.59007
 6.71356
 4.5415
 4.36151
 4.64848
 4.52992
 1.08049
 0.890733
 1.32352
 -2.61525
 -2.87152
 -2.6528
 -2.52771
 8.86397
 9.00783
 9.03031
 4.21174
 4.21494
 4.43187
 4.35251
 4.55612
 4.2794
 -0.765907
 -0.724043
 -0.690395
 -0.927366
 1.68531
 1.85329
 1.77788
 1.95141
 6.59709
 6.3352
 6.52203
 7.9972
 4.75497
 4.98201
 4.90369
 4.76486
 4.26443
 4.138
 4.17415
 2.02266
 2.13766
 2.11407
 1.95087
 1.2381
 1.49262
 1.30646
 1.43888
 4.87763
 5.00874
 1.63582
 1.66193
 1.5736
 1.41235
 3.21059
 3.27538
 3.22986
 3.03975
 -1.28244
 -1.41757
 2.6404
 2.83984
 2.6476
 2.74356
 1.72299
 1.61305
 1.56429
 1.46524
 2.10536
 1.96673
 2.10685
 2.09766
 4.12291
 4.01028
 4.65412
 4.52503
 4.67997
 4.79475
 5.37844
 5.54814
 5.4668
 5.42733
 3.18716
 3.04763
 3.03866
 3.1728
 6.7565
 6.62557
 6.53627
 6.45705
 6.06049
 6.09294
 6.16254
 6.09779
 9.19346
 9.10971
 9.12451
 9.26698
 5.38105
 5.67006
 3.31363
 3.63083
 3.39061
 3.49543
 4.92083
 4.96443
 4.86424
 4.73992
 3.66811
 3.53308
 3.44768
 3.59597
 4.56677
 4.53969
 1.40063
 1.49615
 -1.92189
 -1.96936
 -1.98702
 -2.04482
 7.14312
 4.69887
 4.71783
 4.65334
 4.5164
 3.86567
 4.06148
 4.0038
 3.97633
 5.72246
 5.83412
 5.88225
 6.02948
 1.88765
 2.1644
 1.91297
 2.15675
 3.51552
 3.65269
 3.72099
 3.52811
 6.81426
 6.87265
 6.73983
 6.87869
 6.95955
 5.08123
 4.8713
 5.11758
 5.0025
 5.20807
 4.93869
 5.1641
 5.20152
 6.58006
 6.57456
 6.72586
 6.58461
 6.11943
 6.06494
 5.83387
 5.93924
 4.37747
 4.2008
 4.47402
 4.48954
 6.72628
 6.82692
 6.88463
 6.82418
 3.33762
 3.26573
 3.54295
 5.82041
 5.82352
 5.85156
 5.88571
 8.38117
 8.27842
 3.37981
 3.23582
 3.1864
 3.64171
 3.40119
 3.50113
 3.38715
 7.07831
 6.9541
 6.88806
 7.57518
 7.49695
 7.49208
 7.55637
 2.5963
 2.63155
 2.47903
 2.68376
 3.52053
 3.78973
 3.50003
 0.828092
 1.23028
 1.05253
 4.15395
 4.3089
 4.26982
 0.16043
 0.184743
 0.125441
 9.39239
 9.4933
 9.48873
 9.40103
 -1.33071
 -1.41816
 -1.28825
 -1.44019
 5.47007
 5.63025
 3.14057
 3.32741
 6.54546
 6.52812
 6.5692
 6.41089
 2.79317
 2.87254
 2.62744
 1.29285
 1.11487
 1.15188
 1.11715
 0.0681263
 0.408225
 7.10162
 7.0818
 7.15473
 3.37008
 3.39889
 3.58999
 6.06034
 6.23445
 6.0404
 6.99688
 6.99533
 7.04423
 7.11502
 4.74563
 4.66524
 4.85639
 4.59578
 4.98939
 5.19912
 5.14878
 5.01404
 2.06443
 2.13094
 2.15327
 1.91465
 1.42586
 1.59535
 1.49416
 1.75258
 5.1419
 5.13212
 4.98451
 2.63559
 2.70115
 2.82436
 1.91395
 1.72964
 1.85763
 1.80444
 -3.10808
 -2.97396
 -3.17249
 4.05832
 4.10422
 4.11022
 1.92159
 1.78982
 2.06934
 4.26566
 4.15061
 4.40084
 5.54406
 5.75736
 5.70843
 7.09385
 7.02535
 7.06136
 7.02691
 4.13662
 4.47385
 4.27024
 4.41554
 5.86678
 5.92962
 6.05835
 6.6711
 6.48825
 2.18094
 2.32084
 1.99583
 2.20781
 2.16059
 1.97355
 2.253
 2.39345
 6.52816
 6.351
 6.2611
 6.2041
 6.72702
 6.90305
 6.80041
 6.91159
 7.88983
 7.97348
 7.88378
 8.03109
 -0.910766
 -1.02003
 0.435294
 0.736167
 0.57113
 0.404203
 -1.43096
 5.64814
 5.44577
 5.65672
 3.90165
 3.84048
 3.99898
 4.06244
 6.6277
 6.64767
 4.38151
 4.42751
 4.24613
 7.23111
 7.16638
 0.741572
 0.72134
 0.483218
 0.909438
 -0.111044
 -0.0452424
 -0.43939
 -0.217948
 1.27563
 1.23509
 1.47158
 5.49974
 5.36262
 5.37271
 -0.00233035
 0.0292039
 -0.057907
 -0.116676
 5.96652
 6.19003
 6.02015
 5.93816
 1.09427
 1.23933
 1.28243
 1.10359
 5.85878
 6.05604
 6.09844
 5.78139
 6.77831
 6.70956
 6.84116
 -1.43727
 -1.82828
 -1.64012
 -1.54318
 7.02275
 6.95785
 6.98993
 4.79969
 4.72849
 4.53184
 4.64946
 -1.21214
 -1.45455
 -1.32396
 5.87349
 6.01386
 5.8293
 5.94277
 2.47653
 -0.681603
 -0.822041
 -0.328073
 -0.611962
 7.33299
 7.28974
 7.20759
 7.29878
 2.07786
 2.41133
 2.16032
 2.06858
 4.138
 4.06769
 4.33941
 6.75716
 6.86758
 6.73333
 7.06748
 2.43463
 2.49455
 2.32582
 6.14015
 6.2111
 9.26409
 9.39795
 9.25971
 9.17698
 7.74241
 8.09847
 8.11558
 -0.16276
 -0.0533854
 -0.539434
 -0.207981
 -0.15439
 -0.299001
 7.59625
 7.54748
 7.71453
 7.50048
 5.05163
 4.96374
 4.97972
 4.88647
 4.45694
 4.71855
 4.70166
 4.62759
 3.39054
 3.46878
 3.23281
 3.44585
 3.34565
 3.6721
 3.46367
 3.64042
 -0.944796
 6.84722
 6.9177
 6.83671
 6.88926
 -1.10021
 -0.935884
 -1.19998
 3.20964
 3.42788
 3.52599
 3.4397
 7.03898
 6.87431
 6.82195
 3.63352
 3.80555
 3.67346
 3.81588
 4.19569
 2.13156
 2.06273
 1.82359
 1.90986
 5.96265
 5.96661
 5.96572
 4.20211
 3.86817
 3.99661
 -1.2874
 -1.18391
 -0.937765
 -1.15571
 4.24926
 4.30139
 4.37172
 9.80593
 9.75633
 9.89445
 4.26317
 4.39899
 4.28
 4.57989
 2.01246
 1.80469
 1.86344
 4.01228
 3.96987
 0.227358
 0.116885
 0.35718
 0.322394
 1.31607
 1.11897
 1.22822
 1.26229
 -1.5821
 -1.50651
 -1.35665
 -1.20979
 3.48195
 3.86297
 3.58865
 3.51925
 1.65315
 1.70343
 1.78906
 1.87923
 0.228878
 0.0599651
 -0.103617
 6.20639
 6.09798
 6.37323
 6.2725
 4.46181
 4.26815
 5.38701
 5.52349
 5.36577
 5.43788
 2.21412
 2.24566
 2.25269
 2.10842
 4.28977
 4.10469
 4.16159
 4.35263
 2.40939
 2.52668
 2.25401
 2.49829
 4.06786
 4.01739
 3.834
 3.82307
 4.32712
 4.48982
 4.47782
 0.396188
 0.56482
 0.440991
 -0.626567
 -0.615278
 -0.54568
 -0.919596
 0.141542
 0.161006
 -0.00740089
 1.67343
 1.36439
 1.62145
 8.88336
 8.89672
 9.01104
 4.50764
 4.26455
 4.45555
 0.6182
 0.508917
 0.626421
 0.649073
 4.51472
 4.42317
 4.53114
 3.36217
 3.28945
 3.30305
 3.48566
 2.42755
 2.87231
 2.71926
 2.73753
 4.18567
 4.02928
 4.07327
 3.9312
 6.43983
 6.32714
 6.41981
 6.50397
 4.43799
 3.3707
 3.38685
 3.26796
 3.64872
 7.04141
 6.98752
 6.96672
 6.9753
 7.01626
 6.88163
 6.97204
 6.886
 6.70948
 6.6066
 6.66737
 6.75031
 2.436
 2.47331
 2.20722
 2.09027
 6.11026
 6.22196
 6.1478
 6.12179
 -1.96336
 -1.72373
 -1.91632
 -1.73521
 7.99492
 7.91503
 7.8047
 7.81623
 6.13463
 6.11626
 6.15607
 7.32377
 7.44064
 7.52133
 7.49313
 6.68968
 6.80144
 6.57972
 6.91379
 6.8893
 3.88451
 3.91878
 3.78233
 3.48589
 -0.561624
 -0.344781
 -0.270913
 -0.625591
 -0.579881
 -0.736357
 -0.507691
 6.62422
 6.74117
 -1.53774
 -1.70666
 -1.46862
 0.306664
 0.356322
 0.3007
 0.132607
 6.71541
 6.79973
 6.69417
 -1.44034
 -1.53679
 -1.35913
 -1.59831
 5.33702
 5.29426
 5.15937
 5.45293
 6.59343
 6.81353
 6.72071
 6.56089
 7.43899
 7.19125
 7.29258
 7.34339
 8.52361
 8.47068
 8.60793
 8.60378
 2.8842
 2.51048
 2.70468
 2.55324
 5.18649
 5.17646
 5.25436
 5.49814
 -1.48754
 -1.19956
 -1.46691
 9.91916
 9.768
 9.86975
 9.69665
 7.77597
 7.6134
 7.71161
 7.57334
 -1.31134
 -1.6415
 -1.46853
 -1.44598
 4.15494
 4.12357
 3.95828
 0.0463866
 -0.278946
 -0.326634
 6.40179
 6.41536
 6.63441
 -1.56294
 -1.32975
 -1.30588
 -1.45973
 0.198223
 0.298222
 0.355457
 0.545577
 5.91749
 5.81642
 5.66253
 5.81714
 5.20563
 5.39726
 5.21882
 5.44563
 1.15728
 1.1509
 1.08938
 0.849869
 3.69892
 3.81598
 3.95429
 3.85958
 8.11414
 7.95932
 7.9582
 7.9668
 0.0524262
 0.524594
 0.219315
 0.341709
 -1.82222
 3.81569
 3.76119
 3.62523
 3.63125
 -0.58162
 -0.730531
 -0.675515
 -0.930263
 7.00775
 7.00613
 6.98315
 6.97934
 -1.41387
 -1.59894
 -1.33074
 -1.23303
 4.31144
 4.36415
 5.13075
 5.23328
 5.09584
 5.03225
 1.23884
 1.47213
 1.49041
 1.48326
 3.33144
 3.09419
 3.13747
 5.23325
 5.26456
 5.19121
 1.23781
 1.26402
 1.51685
 1.51465
 1.58745
 1.70803
 1.47683
 1.65411
 6.49541
 6.64942
 6.6661
 4.19451
 3.76608
 3.76419
 4.01225
 8.1274
 8.01974
 7.8619
 8.08095
 8.21344
 -1.60864
 -1.17447
 -1.62496
 -1.27638
 3.85854
 3.97612
 4.06446
 3.86821
 -0.304342
 -0.469052
 4.6388
 4.92398
 4.90786
 6.05114
 6.22063
 5.94129
 5.98977
 -1.29184
 -1.19497
 -1.39328
 -1.38169
 6.81745
 6.76126
 6.78517
 5.99926
 6.07068
 5.93016
 6.05508
 5.29547
 5.09269
 5.2451
 5.47457
 2.12033
 1.71388
 1.95889
 1.86064
 6.2647
 6.02695
 6.15927
 6.18273
 1.34934
 2.93694
 2.68591
 2.61743
 2.98432
 -0.54209
 -0.623022
 -0.371134
 -1.13817
 -1.03607
 -1.01958
 -0.842145
 2.81544
 2.70112
 2.97545
 2.84664
 -2.2315
 -2.2149
 -2.20799
 -1.95478
 5.37732
 3.14105
 3.43109
 3.43967
 3.22186
 3.81134
 4.12033
 3.98013
 3.91261
 8.49983
 8.3406
 8.29951
 8.46097
 4.35302
 4.30022
 4.2291
 4.46688
 4.84437
 4.80938
 4.74565
 4.65595
 4.64118
 4.61111
 4.45714
 -0.106791
 0.118534
 0.211274
 4.78733
 4.99714
 4.96349
 4.8373
 -0.00608548
 -0.345081
 -0.161133
 4.08182
 4.22154
 3.76816
 3.63439
 3.69761
 3.60108
 3.66446
 3.602
 3.95497
 3.90702
 3.64733
 3.73755
 -0.314309
 -0.439562
 -0.430956
 5.31258
 -0.857201
 3.32882
 3.18442
 3.35117
 3.54378
 6.59774
 6.57139
 6.76107
 6.24326
 6.06946
 5.99386
 3.76417
 3.68681
 3.89634
 4.19626
 4.20633
 4.10874
 4.00186
 3.96348
 4.1231
 3.82686
 4.0833
 9.95509
 9.92674
 10.0593
 1.18705
 1.44695
 1.20492
 4.33233
 4.27199
 0.46389
 0.795788
 0.701308
 0.79987
 3.02994
 2.84964
 3.02498
 8.37712
 8.36139
 8.5277
 8.46316
 4.74378
 4.97386
 4.79254
 4.90858
 6.42746
 6.51276
 6.59889
 6.65209
 2.20564
 2.50872
 2.34676
 2.22528
 5.59798
 5.74249
 5.62535
 5.83957
 8.05601
 8.08037
 8.08888
 5.274
 5.34469
 5.44617
 5.39865
 2.15582
 1.90293
 1.98995
 1.98116
 4.08474
 3.8694
 3.84033
 3.96487
 6.20148
 6.28913
 6.18745
 5.04344
 5.1933
 5.12347
 5.15651
 6.27901
 6.46647
 6.2485
 6.41481
 7.03099
 6.82323
 6.84815
 7.07553
 -1.16373
 -1.30082
 -1.2165
 -1.28937
 6.72614
 6.59105
 6.63962
 6.58719
 6.2805
 6.40291
 6.22196
 6.23875
 2.69369
 2.41014
 2.51059
 2.34807
 5.28779
 5.34501
 5.1611
 5.23621
 -2.84893
 -2.9405
 -2.91669
 -2.96689
 4.71298
 4.80081
 4.62098
 6.99545
 7.11431
 7.06621
 6.91535
 6.79739
 6.87474
 6.82193
 6.87811
 6.55078
 6.81458
 1.94193
 2.16224
 1.9732
 2.27281
 -2.39594
 -2.24752
 -2.34461
 -2.30867
 4.98606
 5.17347
 5.07012
 5.18094
 6.54562
 6.65376
 6.66923
 2.3498
 2.58158
 2.60443
 2.39925
 4.53887
 4.57095
 4.46679
 4.32172
 6.06863
 6.06034
 6.08184
 5.92634
 7.07824
 6.82755
 6.979
 0.91171
 0.676047
 0.573073
 0.858689
 0.482216
 0.489114
 0.71238
 4.92864
 4.9322
 4.80265
 4.70719
 4.78731
 4.88067
 4.65885
 6.08116
 5.90628
 5.82734
 5.87307
 2.42553
 2.49226
 2.64608
 6.58637
 6.58603
 6.76937
 3.85866
 3.63755
 3.72693
 0.41816
 0.706064
 0.540956
 2.03215
 2.08635
 5.36244
 5.23346
 5.38456
 5.22801
 5.15836
 5.24061
 4.3676
 4.60692
 5.90503
 7.26214
 7.23368
 7.3707
 -0.127607
 -0.0934986
 0.25963
 4.95607
 4.80451
 4.86296
 4.98703
 5.95404
 4.04203
 3.8948
 2.30045
 2.22814
 2.34736
 2.14239
 4.09472
 4.25489
 4.04739
 4.83117
 4.72785
 5.01526
 4.79981
 5.28042
 4.94639
 4.76303
 4.91283
 4.9969
 4.67255
 -0.135844
 0.0907782
 0.148791
 -0.0178075
 -0.2746
 -0.449037
 -0.754499
 -0.655445
 6.63566
 6.4893
 4.05112
 4.09427
 4.1619
 4.31757
 3.37273
 3.3162
 3.2377
 3.14891
 2.56024
 2.36552
 2.57388
 2.612
 4.43065
 4.55087
 4.62288
 4.40425
 4.74924
 4.61676
 4.71353
 4.80765
 0.427279
 0.761217
 0.46237
 0.535059
 6.35004
 6.1437
 6.11075
 5.97652
 6.3851
 6.18162
 6.29076
 1.04804
 0.83709
 0.580594
 0.490938
 6.15553
 6.02101
 6.06947
 5.93924
 -0.63707
 -0.518531
 -0.690039
 -0.585518
 0.377496
 0.511167
 0.429914
 0.560133
 5.12807
 5.02869
 5.20095
 5.1126
 1.92921
 1.85125
 1.98919
 2.20702
 6.00032
 5.89954
 5.7593
 5.71116
 1.30083
 1.433
 1.38468
 6.68257
 6.57382
 6.70852
 6.62872
 3.04544
 3.1216
 2.9924
 2.90878
 5.27673
 5.22101
 1.53075
 1.18312
 1.3433
 1.43273
 1.22616
 1.27397
 1.42491
 4.63483
 4.36792
 4.60788
 0.881972
 0.89234
 0.799994
 0.609966
 8.02323
 7.96536
 7.85712
 7.90796
 6.00386
 5.9395
 5.78299
 5.74314
 2.88864
 3.1698
 3.13342
 2.86701
 -0.375488
 -0.428358
 -0.260108
 -0.436718
 0.272265
 0.0546357
 0.0160314
 0.220493
 -0.61984
 -0.601567
 -0.661721
 -0.248202
 -0.339059
 5.57017
 5.45216
 5.58661
 5.40989
 6.4227
 6.36374
 6.6234
 6.46066
 5.76461
 5.75908
 5.34512
 5.14587
 5.29574
 5.29954
 4.82941
 4.80869
 4.59115
 4.80844
 6.43973
 6.4355
 6.571
 3.69934
 3.83247
 3.7961
 3.87941
 -2.88875
 -2.81355
 -2.62039
 5.49738
 5.5317
 5.46985
 5.29653
 0.526094
 0.83071
 0.640474
 0.562666
 2.11996
 1.85374
 1.94258
 3.99269
 4.11083
 3.89605
 2.03404
 1.78429
 2.02962
 0.431493
 0.622652
 2.24573
 2.21512
 2.21475
 5.94814
 5.87576
 5.82825
 6.03507
 -0.62112
 -0.77421
 -0.615585
 -0.538509
 2.99031
 2.7352
 2.88257
 8.70682
 8.87185
 8.92319
 8.72435
 6.80179
 6.88927
 3.38928
 5.29763
 5.04666
 5.21591
 5.29546
 3.84146
 3.61982
 3.63051
 1.52017
 1.47615
 1.655
 1.50721
 -0.797944
 -0.920302
 4.22069
 4.30237
 4.29305
 4.42558
 6.99645
 7.12776
 7.14034
 6.95274
 0.18377
 0.0436487
 0.0745081
 0.178785
 2.84332
 2.75003
 2.88275
 9.66483
 9.72953
 9.84248
 9.84215
 6.63082
 6.66208
 6.80956
 5.64225
 5.49626
 5.74573
 5.5913
 3.04876
 3.02313
 3.15177
 2.87506
 4.08085
 3.918
 7.09538
 7.04451
 7.06112
 7.05403
 2.6863
 2.45302
 5.70159
 5.92259
 5.81168
 5.74929
 4.9683
 4.88534
 5.11459
 4.95774
 4.0505
 3.84138
 3.7559
 3.9224
 5.72269
 5.81423
 6.01391
 2.13959
 2.4432
 2.13268
 2.37435
 0.908068
 0.70661
 0.512825
 0.870289
 1.20359
 1.21854
 1.19331
 0.975565
 7.08387
 7.24992
 7.1337
 7.26392
 4.07481
 4.20652
 9.05583
 9.20632
 9.14517
 9.29165
 5.02633
 5.20533
 5.29155
 -1.47122
 10.285
 10.2461
 10.246
 10.4401
 4.26005
 4.14925
 4.26419
 4.24376
 5.47087
 5.28746
 5.39086
 1.03816
 0.840393
 0.811783
 1.05981
 0.994689
 1.08033
 0.824182
 0.832117
 1.17568
 1.06818
 1.2667
 1.35282
 5.8914
 5.73688
 5.99118
 5.74073
 6.55446
 6.6146
 6.71052
 6.69307
 2.66886
 2.67475
 2.41346
 2.69078
 4.86661
 5.13326
 4.78731
 4.96528
 -2.49049
 -0.550139
 -0.636539
 3.11481
 3.13129
 4.73178
 4.89206
 4.84916
 -0.730068
 -1.10204
 -0.866539
 -0.793662
 4.38625
 4.47451
 3.28497
 3.46019
 8.37885
 8.2306
 8.40351
 8.24402
 5.91998
 5.9889
 6.11997
 6.02686
 2.7489
 2.47825
 2.70636
 2.54816
 8.05935
 8.22377
 8.09766
 8.02748
 -2.03663
 -1.94162
 -2.17713
 -1.96909
 -0.43635
 -0.156428
 -0.975803
 -0.804834
 -0.601711
 -0.991408
 0.920731
 0.727328
 5.20012
 5.10711
 5.23805
 10.0184
 9.88828
 10.0595
 10.0456
 7.87753
 7.76992
 7.73868
 7.87719
 -0.549112
 -0.737505
 -0.549507
 -0.425359
 1.80364
 1.47847
 1.65956
 3.65609
 3.85371
 3.99184
 3.76531
 5.68853
 5.46378
 5.64926
 5.71702
 0.217348
 -0.0096833
 0.141652
 -0.600899
 3.85109
 3.59738
 5.76797
 5.70334
 2.283
 2.0313
 2.34882
 2.25962
 6.46701
 6.67732
 6.40216
 6.69632
 6.76391
 6.93542
 6.87588
 9.82964
 9.60851
 9.64186
 9.71192
 5.61024
 5.50387
 5.52018
 5.35717
 0.264938
 0.230316
 0.713009
 0.508617
 0.612898
 0.508739
 6.00939
 6.01997
 5.84423
 6.13406
 1.38173
 1.51655
 1.30233
 2.18113
 2.17332
 2.11275
 2.30172
 0.574584
 0.386683
 0.636804
 0.355463
 5.74194
 5.56514
 5.62591
 5.70869
 -1.15434
 -0.765106
 4.74713
 8.77162
 8.7075
 8.61423
 8.55588
 1.37968
 1.43948
 1.24827
 7.91127
 8.01674
 7.94167
 8.07015
 2.12889
 2.15417
 2.15371
 1.94516
 6.92218
 6.92924
 7.10774
 6.87359
 6.36749
 6.39451
 6.23698
 6.20242
 2.50807
 2.34111
 2.32188
 5.32677
 5.23919
 5.3743
 5.48329
 2.92992
 2.97237
 2.82991
 3.15547
 3.29385
 3.45748
 0.685834
 0.606317
 0.632193
 2.11479
 2.08395
 2.25297
 8.90583
 8.88358
 8.74474
 8.85977
 6.62183
 6.45872
 6.70198
 6.40237
 0.0861676
 0.410199
 0.410613
 0.427685
 0.948303
 1.01867
 6.13991
 5.80108
 6.11326
 2.16383
 2.42625
 2.37487
 2.49718
 2.28208
 2.34233
 2.436
 5.88296
 5.97396
 5.8609
 5.82205
 -0.92426
 -0.930278
 5.17694
 5.24786
 5.17369
 5.06597
 6.02049
 6.00672
 5.94246
 2.0055
 1.93677
 4.18293
 4.27565
 4.22413
 4.0372
 6.92188
 6.98692
 2.67975
 2.76633
 5.17595
 5.43512
 5.39121
 5.24619
 3.67708
 3.68313
 3.82714
 3.5454
 3.70445
 3.83217
 3.71246
 7.40947
 7.38672
 7.46329
 7.17049
 7.9332
 7.9285
 7.815
 7.86505
 2.01316
 2.18914
 2.37051
 2.22335
 -0.100012
 -0.132965
 0.0355928
 0.0415029
 3.2839
 3.16354
 3.34885
 4.0106
 4.12102
 4.21748
 4.15513
 4.05659
 1.19905
 1.14421
 5.60023
 5.42183
 5.58808
 5.63555
 6.34116
 -0.12469
 -0.0845889
 0.0973338
 0.0141503
 3.9354
 4.26676
 4.17126
 3.99248
 9.6273
 9.53284
 4.61674
 4.8571
 4.62928
 8.93666
 8.89322
 8.9671
 8.81649
 2.84326
 3.00957
 2.87174
 2.95072
 6.92395
 6.7431
 6.70098
 5.95855
 5.80646
 -1.37028
 -1.32775
 -1.32143
 -0.875734
 -0.872555
 -0.737391
 6.63169
 6.38487
 5.95267
 5.95442
 9.27482
 9.37123
 9.3829
 9.4024
 -0.0868699
 0.22439
 -0.159163
 6.39482
 6.36382
 6.27171
 6.49567
 6.11852
 6.19012
 5.99611
 6.19394
 2.01585
 1.9406
 1.83256
 1.95797
 2.9409
 2.50218
 2.70589
 2.21524
 2.17254
 2.42821
 2.19022
 1.27661
 1.5082
 1.07455
 1.62808
 7.05481
 7.04317
 6.54479
 6.53331
 6.46057
 3.07035
 3.16368
 3.37217
 3.27887
 6.25641
 6.26851
 6.07083
 6.14044
 1.74928
 1.87305
 1.82627
 1.69373
 6.99241
 6.80178
 -0.0431302
 0.117338
 0.0581897
 0.232797
 1.81139
 2.16096
 2.01062
 1.75061
 5.66636
 5.6479
 5.70457
 5.54578
 0.401622
 0.13283
 4.68739
 4.637
 4.57135
 4.52419
 7.97672
 7.95102
 7.9691
 7.93543
 6.94408
 6.85082
 6.95139
 6.81829
 -1.54509
 -1.62428
 -1.68725
 -1.66395
 -0.457568
 -0.358294
 -0.278101
 5.74623
 5.7747
 5.80342
 -1.38495
 -1.50663
 4.58574
 4.5117
 4.6474
 4.39214
 0.229822
 0.391964
 0.183002
 0.385543
 6.14347
 6.2387
 6.11839
 6.26475
 7.43956
 7.27306
 7.34272
 0.771657
 0.488697
 0.510497
 0.527098
 5.08037
 4.83194
 4.87513
 4.93849
 6.51701
 6.4486
 6.33153
 6.64063
 7.12644
 7.36115
 7.05761
 3.2094
 3.41814
 3.08751
 3.83308
 3.78006
 3.95238
 3.72245
 3.18498
 3.21901
 3.01056
 3.26032
 5.25264
 5.07113
 5.24558
 5.0805
 6.00168
 5.96235
 5.86375
 6.08528
 6.63369
 6.77729
 2.37561
 2.08921
 2.39783
 2.40138
 3.66548
 3.93559
 3.72001
 3.83585
 3.52612
 3.81403
 3.84761
 3.94183
 3.59083
 3.74965
 8.83439
 8.78788
 8.65999
 8.75738
 -0.54155
 -0.765101
 -0.510933
 4.92507
 4.93429
 4.99285
 5.11106
 4.38443
 4.54493
 4.38874
 6.81068
 6.7015
 6.87848
 6.82653
 6.36863
 6.5233
 6.41382
 6.4558
 5.05037
 5.00245
 4.847
 6.14866
 6.24663
 1.8312
 1.95696
 1.68116
 -1.80942
 -1.82996
 -1.64669
 -1.77612
 6.39803
 6.59976
 6.58085
 6.38451
 4.37759
 4.2056
 4.13991
 4.33087
 1.19285
 1.12806
 1.35939
 1.34923
 6.26421
 6.18321
 6.32127
 6.06471
 5.78581
 5.67506
 5.61629
 5.4687
 0.773162
 0.965542
 1.23445
 1.16455
 5.84276
 5.64493
 -0.158152
 -0.0724472
 -0.27301
 3.16365
 3.35326
 7.5646
 7.63293
 7.68607
 7.71217
 4.97122
 4.88747
 4.82493
 4.86912
 7.60687
 7.67402
 7.59875
 4.39217
 4.425
 2.83646
 2.68296
 2.46554
 2.82115
 5.04515
 5.02964
 2.4205
 2.20543
 5.14482
 5.25965
 5.15606
 5.09019
 2.34137
 2.50465
 2.245
 2.21068
 1.44118
 1.20875
 0.982307
 1.13761
 -1.27136
 -1.29539
 -1.20417
 -1.2138
 4.21642
 4.11815
 6.35113
 6.35449
 6.6442
 6.72816
 1.37656
 1.62598
 6.83029
 6.65111
 6.7802
 8.47904
 8.45096
 8.21516
 8.31832
 8.75349
 8.61606
 8.69281
 3.75805
 3.50649
 3.54881
 3.57775
 5.10175
 4.93457
 5.06843
 6.43955
 5.70582
 5.56245
 5.78889
 5.60118
 6.50223
 6.36823
 6.6273
 6.46599
 5.31567
 5.4593
 5.28364
 5.44496
 1.99929
 2.40491
 2.38235
 2.05269
 -1.28765
 -1.20101
 -1.20655
 -1.3865
 4.69432
 4.75887
 4.49029
 4.57265
 0.790643
 0.910674
 0.516515
 0.584303
 5.72306
 1.97879
 2.30008
 2.14559
 2.19402
 7.4103
 7.50296
 7.42278
 7.40334
 1.9575
 1.73753
 1.72717
 5.4957
 -0.17698
 -0.186739
 -0.0609665
 -0.494686
 -0.752353
 -0.741881
 -0.761425
 -1.02904
 -0.784787
 -0.966151
 -1.00298
 3.98101
 4.01916
 3.95127
 4.2045
 -0.868829
 -0.881806
 -0.969437
 -0.964392
 6.4834
 6.60755
 6.64331
 6.68058
 2.55184
 2.63797
 2.60324
 2.82846
 4.77139
 4.53942
 4.58167
 4.7479
 8.19077
 8.08161
 8.15764
 2.82396
 4.33041
 4.38888
 4.48366
 4.23544
 -0.75611
 -0.955829
 -0.94026
 -1.02122
 -0.570747
 -0.705054
 -0.912555
 -0.843874
 2.74552
 2.81003
 2.67486
 2.84993
 5.72217
 5.8362
 5.89926
 5.82442
 4.98317
 4.77736
 4.91062
 -0.246764
 -0.391707
 -0.210067
 -0.0101994
 -0.816114
 -0.942666
 -0.941538
 -0.740848
 6.52739
 6.63622
 6.62938
 0.805926
 0.625419
 -0.944674
 -0.88924
 -0.928288
 6.42401
 6.54718
 6.35325
 6.33908
 1.66362
 1.31248
 1.70827
 1.76949
 4.99794
 3.19572
 3.14613
 2.99989
 3.17812
 2.70288
 2.87554
 2.65513
 3.01106
 -0.57897
 -0.70233
 0.403192
 0.110371
 0.303497
 0.0678869
 0.539483
 0.21569
 0.360884
 0.104441
 0.71401
 0.998401
 0.636768
 0.910532
 1.72294
 1.52893
 1.70608
 1.58196
 7.96402
 7.77954
 -0.559162
 -0.651008
 -0.796222
 7.05652
 7.08425
 7.04772
 6.01287
 6.23394
 6.28578
 6.0729
 1.59277
 1.71424
 1.5324
 1.34918
 4.57428
 4.76729
 4.68535
 4.67201
 -1.90502
 -1.72658
 -1.8743
 -2.0519
 3.29237
 3.33882
 3.18433
 3.24381
 0.672606
 0.485566
 0.72479
 2.4215
 2.42106
 3.34313
 3.67571
 3.41213
 3.4157
 3.78922
 4.04537
 3.87293
 4.00389
 6.75744
 6.69934
 6.66971
 2.53679
 2.36392
 2.43758
 2.26532
 5.17576
 5.10022
 4.94905
 -0.0309164
 0.032
 -0.276644
 0.093719
 -0.946684
 3.01267
 3.32605
 3.33942
 3.15684
 2.4864
 2.3307
 2.29839
 2.38791
 2.62414
 2.72888
 2.82119
 9.9423
 10.0316
 9.8956
 9.90211
 6.12604
 5.96168
 6.91572
 7.05214
 4.43828
 4.76391
 4.66431
 4.53937
 10.6906
 10.6424
 -1.6157
 -1.68537
 -1.78102
 -1.95037
 1.62445
 1.22929
 6.67837
 6.70284
 6.60448
 6.61284
 4.347
 4.32851
 4.16805
 4.23148
 0.511054
 0.289255
 0.371315
 0.632995
 5.8484
 5.91894
 5.76253
 5.83237
 4.62919
 4.81089
 4.57333
 4.6816
 0.353033
 0.253846
 0.233764
 0.00432499
 4.6742
 4.6041
 4.61598
 4.84883
 -1.21775
 -1.04862
 -1.09463
 -1.02352
 2.66224
 2.47985
 2.54445
 6.0738
 6.07649
 6.32027
 6.11361
 2.98441
 3.14746
 3.02633
 3.1903
 3.61763
 3.78422
 5.3859
 5.10464
 5.05736
 2.48177
 2.51817
 2.2752
 2.22677
 -1.41279
 -1.38795
 -1.57168
 -1.55571
 -0.161321
 -0.348396
 -0.507407
 -0.141592
 6.33011
 6.36499
 6.51213
 6.4659
 7.02978
 7.04506
 7.07681
 7.0582
 6.68064
 6.90882
 6.76077
 6.83514
 7.29566
 7.2749
 7.34085
 3.89051
 3.92556
 3.89522
 4.17972
 0.845012
 0.718047
 1.62504
 1.32953
 1.50722
 1.54704
 1.22153
 1.07846
 1.33906
 6.09543
 6.23951
 6.18462
 6.29187
 3.94972
 3.90854
 3.77933
 3.80706
 -1.97924
 -2.00826
 -2.07467
 -2.16426
 3.54319
 3.66042
 3.74546
 3.51901
 3.20711
 3.45049
 3.18181
 3.41172
 -0.42729
 -0.563403
 -0.346947
 -0.360732
 6.84606
 7.10607
 6.99397
 6.90956
 1.81541
 1.79211
 6.92617
 7.04956
 0.740085
 0.994481
 0.786738
 0.589119
 3.52389
 3.56758
 3.44988
 3.72891
 7.65688
 7.50744
 7.61967
 6.95524
 7.0009
 7.11385
 7.08917
 5.56001
 5.76637
 3.51894
 3.61202
 3.46617
 3.61441
 2.23226
 2.26285
 2.08221
 4.96811
 5.13492
 5.08947
 4.92973
 5.18699
 4.90411
 5.1976
 5.01319
 1.20706
 1.39764
 1.30725
 1.31619
 7.38605
 7.39895
 7.31343
 -1.51931
 -1.55879
 -1.2552
 -1.28214
 2.75862
 2.83486
 2.8039
 6.35456
 6.29457
 6.22976
 -0.888782
 -0.864496
 -0.650946
 -0.979335
 0.617532
 5.63445
 5.84504
 5.81842
 5.74398
 -0.543929
 -0.100692
 -0.306769
 -0.482702
 2.88074
 2.60952
 2.69931
 -1.48885
 -1.53826
 -1.53914
 -1.50712
 -0.560954
 -0.3755
 -0.363814
 -0.581775
 -0.681595
 7.66863
 7.55431
 4.34502
 4.42172
 4.15881
 4.328
 7.75017
 7.84627
 7.83516
 7.78702
 5.43569
 2.65472
 2.59869
 2.91925
 1.76122
 1.59394
 1.41758
 1.77692
 5.38668
 5.35172
 5.49725
 5.56637
 5.93728
 5.97762
 3.06087
 2.91317
 2.94746
 5.78345
 5.89583
 5.77667
 5.66296
 6.00959
 6.00562
 5.91069
 5.86449
 -0.924913
 -1.00051
 5.3407
 5.1913
 5.33265
 5.34924
 7.3938
 7.12297
 7.40714
 7.19826
 6.13416
 6.08934
 5.73133
 6.03647
 7.25664
 7.35275
 7.24449
 0.963775
 1.19307
 0.983561
 1.8203
 1.78851
 -0.504104
 -0.558943
 -0.392459
 6.66299
 6.84478
 6.78435
 6.83996
 6.43736
 6.34723
 6.28171
 10.1787
 10.0319
 10.1696
 10.2561
 1.1204
 1.41212
 1.09834
 0.956429
 5.77358
 5.68149
 5.79816
 5.50312
 2.76749
 2.93378
 2.83892
 2.72955
 1.40625
 1.47223
 1.70861
 1.59551
 6.39115
 6.38456
 6.31581
 6.24508
 4.41183
 4.2355
 4.43304
 2.0385
 1.98958
 1.83888
 2.71208
 2.70751
 2.82257
 2.58041
 4.64281
 4.85629
 4.87179
 4.84423
 2.52808
 2.42543
 2.33354
 7.33715
 7.04275
 7.29084
 7.25879
 4.13109
 4.10829
 4.08363
 4.28597
 6.54038
 6.70583
 6.70955
 6.61844
 6.78754
 7.03351
 6.73852
 6.79859
 -2.16937
 -2.43661
 -2.0607
 6.53669
 6.65615
 6.55399
 -1.91118
 0.906464
 0.885286
 1.19504
 1.05696
 6.9118
 1.83211
 5.70381
 5.7242
 5.85065
 5.81287
 7.3236
 7.42296
 7.50041
 7.41264
 2.32689
 4.53135
 -1.60057
 -1.55786
 -1.55283
 -1.49894
 10.0404
 9.91972
 9.96136
 5.67855
 5.82717
 5.85357
 7.21726
 7.33118
 -2.38719
 -2.49605
 -2.19397
 -2.28941
 4.97261
