 14.3326
 14.1869
 14.2264
 14.1266
 11.4605
 11.4356
 11.3415
 11.2927
 12.2679
 12.3718
 12.2414
 12.3775
 12.1532
 12.2424
 12.301
 12.3372
 10.37
 10.2253
 10.4405
 10.4809
 10.4445
 10.5672
 10.351
 10.5214
 14.8705
 14.9772
 14.943
 14.8713
 14.8338
 14.7895
 14.789
 14.863
 10.3665
 10.4256
 10.5582
 10.4156
 10.4949
 10.474
 10.5246
 10.3126
 15.2249
 15.2903
 15.1894
 15.17
 12.2207
 12.2108
 12.3177
 12.2465
 13.7891
 13.8071
 13.8903
 13.7117
 11.4291
 11.5991
 11.6515
 11.5478
 12.7566
 12.7796
 12.7119
 12.6262
 14.5337
 14.6119
 14.4777
 14.6082
 10.8945
 10.7994
 10.8897
 10.7397
 11.9296
 12.0025
 11.8977
 11.9785
 12.7436
 12.7195
 12.701
 12.6321
 10.8681
 10.8787
 10.8132
 10.7086
 14.7703
 14.8906
 14.7622
 14.8482
 10.0204
 10.0195
 9.87222
 9.84917
 16.0705
 16.1332
 16.1331
 16.0447
 11.7429
 11.6763
 11.7906
 11.8114
 12.9096
 12.9776
 12.8703
 12.8433
 12.5891
 12.5718
 12.6349
 12.6704
 13.3922
 13.2767
 13.2224
 13.3762
 14.5586
 14.6386
 14.5438
 14.5496
 13.8587
 13.8877
 13.9874
 13.9253
 11.5627
 11.5848
 11.6303
 11.7162
 12.8458
 12.6622
 12.8761
 12.8168
 13.7789
 13.6878
 13.6957
 13.7743
 12.0076
 12.1368
 12.0024
 12.1123
 11.422
 11.4824
 11.4832
 11.4663
 13.7924
 13.9085
 13.7815
 13.9558
 14.426
 14.4353
 14.4523
 14.4476
 12.0719
 12.2243
 12.1077
 12.1255
 15.0129
 14.9699
 14.9481
 14.9334
 11.7868
 11.77
 11.5624
 11.6139
 9.60647
 9.76094
 9.65369
 9.78981
 12.4544
 12.4905
 12.4333
 12.5804
 11.6425
 11.5388
 11.5825
 11.6463
 14.9059
 14.9093
 14.8189
 14.9774
 11.9861
 12.089
 12.0446
 11.9314
 10.3818
 10.4294
 10.304
 10.3808
 14.0741
 13.9854
 14.0248
 14.0661
 12.0008
 11.823
 11.8705
 11.841
 14.4002
 14.3029
 14.3768
 14.4802
 13.7752
 13.8448
 13.8832
 13.9133
 12.7311
 12.8176
 12.8339
 12.9326
 14.5784
 14.6198
 14.6518
 14.568
 12.5268
 12.6293
 12.6157
 12.5467
 13.5777
 13.6935
 13.5621
 13.7387
 12.4444
 12.3763
 12.4408
 12.3816
 13.9044
 13.8131
 13.8822
 13.7471
 12.295
 12.3102
 12.2109
 12.3888
 11.6866
 11.6817
 11.6076
 11.533
 11.603
 11.693
 11.635
 11.7983
 13.9976
 14.0236
 14.1436
 13.9537
 13.337
 13.396
 13.3894
 13.2557
 15.9014
 15.9511
 16.0077
 15.9378
 13.9036
 13.9362
 14.0319
 13.9188
 12.8891
 12.7335
 12.8126
 12.7896
 13.5602
 13.5628
 13.4085
 13.6387
 13.6765
 13.5643
 13.6863
 13.5837
 14.677
 14.738
 14.6548
 14.6543
 10.8001
 10.6482
 10.5829
 10.8087
 10.4281
 10.3753
 10.3125
 10.2671
 12.6496
 12.5088
 12.7447
 12.6634
 13.8618
 13.8929
 13.8207
 13.9515
 11.7523
 11.7008
 11.6339
 11.7603
 14.7201
 14.9304
 14.8464
 14.8418
 14.7732
 14.8547
 14.8968
 14.7593
 16.0949
 16.1626
 16.078
 16.0954
 12.3698
 12.2274
 12.318
 12.2042
 14.0599
 13.9437
 13.9223
 14.045
 14.3027
 14.3793
 14.2557
 14.2434
 10.1582
 10.0066
 10.0629
 9.98684
 14.5198
 14.5686
 14.6514
 14.543
 14.3203
 14.3741
 14.435
 14.3272
 14.1299
 14.0509
 14.1444
 14.2285
 13.1507
 13.176
 13.0803
 13.0955
 14.2485
 14.1286
 14.2168
 14.1773
 13.7949
 13.7393
 13.7058
 13.7612
 13.3315
 13.3636
 13.4092
 13.4474
 14.4599
 14.5869
 14.432
 14.575
 16.327
 16.3424
 16.2362
 16.2347
 14.6896
 14.6512
 14.5848
 14.6406
 12.2715
 12.36
 12.2369
 12.4174
 12.2541
 12.3059
 12.2098
 12.3225
 11.6398
 11.7276
 11.7429
 11.6344
 14.9257
 14.9397
 14.9083
 14.8635
 9.85857
 9.87825
 9.98469
 9.77615
 11.7927
 11.6817
 11.8137
 11.775
 14.9764
 14.9718
 15.0662
 15.0848
 13.7311
 13.7402
 13.7781
 13.5997
 14.3564
 14.2792
 14.4451
 14.3806
 14.3297
 14.3798
 14.3882
 14.8874
 14.8996
 14.9117
 14.9534
 12.0096
 12.0868
 12.1706
 11.9676
 13.3519
 13.1972
 13.2498
 13.3265
 12.2098
 12.0876
 12.1927
 13.8703
 14.0158
 13.918
 13.9595
 13.0857
 12.9879
 13.0229
 13.1512
 11.0048
 11.2066
 11.1916
 10.9393
 14.7123
 14.698
 14.5686
 14.6152
 14.3955
 14.4677
 14.5267
 14.4568
 12.3698
 12.5052
 12.5285
 12.4782
 11.8199
 11.9003
 11.7039
 11.716
 14.8828
 14.8614
 14.9034
 14.9748
 14.4492
 14.4174
 14.2538
 14.3031
 13.4429
 13.3167
 13.2457
 13.4235
 10.5309
 10.4448
 10.4934
 10.4659
 12.3195
 12.1868
 12.1328
 12.1984
 12.96
 13.1343
 12.995
 12.9606
 15.9354
 16.0392
 15.9331
 15.9368
 13.2366
 13.3205
 13.1856
 13.1165
 11.0079
 11.1535
 11.0077
 11.193
 14.1564
 14.3132
 14.0919
 14.1336
 14.4822
 14.4622
 14.5649
 14.5045
 14.505
 14.606
 14.5812
 14.5536
 15.3693
 15.3793
 15.3766
 15.3292
 14.2116
 14.3695
 14.3554
 14.3592
 12.3359
 12.3451
 12.3261
 12.421
 14.9336
 14.8971
 14.8661
 14.8303
 10.7664
 10.887
 10.7813
 10.7451
 14.7559
 14.8816
 14.8705
 14.7652
 11.0751
 11.2735
 11.0521
 11.1798
 13.36
 13.452
 13.4479
 13.3769
 13.5962
 13.4888
 13.4566
 13.559
 14.0183
 14.0173
 13.8715
 13.9787
 14.2317
 14.2321
 14.3251
 14.3464
 10.0128
 9.87626
 9.83437
 9.85802
 14.1453
 14.2167
 14.1438
 14.2009
 9.63203
 9.76191
 9.67373
 9.85868
 11.7866
 11.8314
 11.6781
 11.792
 15.6668
 15.563
 15.5838
 15.6686
 10.2359
 10.2605
 10.1585
 10.1107
 14.5265
 14.4222
 14.5195
 14.6056
 15.6261
 15.693
 15.7266
 15.6326
 11.3588
 11.4052
 11.4737
 11.413
 10.2888
 10.1097
 10.2477
 10.3238
 12.6512
 12.6318
 12.6803
 12.7174
 11.5152
 11.6652
 11.4831
 11.6488
 14.3866
 14.5099
 14.439
 14.4704
 12.435
 12.4848
 12.4421
 12.3354
 13.6864
 13.7163
 13.6298
 13.62
 14.8047
 14.752
 14.8289
 14.8298
 15.1642
 15.185
 15.1946
 15.0994
 13.3002
 13.3424
 13.2336
 13.3814
 12.962
 12.9781
 13.0086
 13.0879
 14.4221
 14.4367
 14.3528
 14.338
 14.4277
 14.5759
 14.4422
 14.4562
 12.1776
 12.1523
 12.2433
 12.2481
 10.4025
 10.5014
 10.3074
 10.2672
 10.6679
 10.7469
 10.6388
 10.6019
 10.742
 10.8892
 10.8551
 10.7713
 11.8668
 11.9443
 11.8314
 11.9483
 14.4293
 14.578
 14.4674
 14.5086
 14.3766
 14.2965
 14.2693
 14.2517
 12.9782
 13.0474
 13.1666
 13.1942
 11.8306
 11.8947
 11.7222
 11.8116
 11.8799
 11.9495
 11.8969
 11.8041
 12.6889
 12.7996
 12.7129
 12.6892
 12.3016
 12.1944
 12.3264
 12.306
 15.0273
 15.0383
 14.9815
 14.8898
 16.6502
 16.7127
 16.6397
 16.7454
 14.132
 14.1418
 14.2571
 14.188
 16.3928
 16.2915
 16.3151
 14.2066
 14.2339
 14.1654
 14.2837
 10.8255
 10.9144
 10.8545
 10.9409
 12.8059
 12.7523
 12.7161
 12.6239
 10.5601
 10.6215
 10.4769
 10.6461
 14.4652
 14.4493
 14.568
 14.4733
 11.9058
 11.9124
 11.7084
 11.7613
 12.6566
 12.6827
 12.8135
 12.7294
 10.073
 9.98566
 9.95148
 10.2038
 11.3373
 11.3657
 11.3077
 11.1941
 14.1032
 13.9956
 14.0684
 14.1072
 11.8637
 11.8774
 11.9962
 11.8481
 11.112
 11.3115
 11.207
 11.2792
 15.6013
 15.7172
 15.6852
 15.71
 12.8349
 12.7919
 12.715
 12.6992
 11.1071
 11.0549
 11.0397
 11.1568
 12.2142
 12.1045
 12.2938
 12.0329
 11.1099
 11.2534
 11.0945
 11.1028
 14.3306
 14.2298
 14.1732
 14.1907
 11.2796
 11.0461
 11.3034
 11.0924
 13.3542
 13.2937
 13.4735
 13.3574
 13.1348
 13.0902
 13.0154
 13.1622
 11.3426
 11.396
 11.4875
 11.2774
 9.67782
 9.79152
 9.79721
 9.71597
 15.0552
 14.9967
 14.9395
 14.9044
 13.8391
 13.7331
 13.6823
 13.8128
 12.3706
 12.4516
 12.5022
 12.4679
 11.3979
 11.3048
 11.3374
 11.2923
 14.0981
 14.1917
 14.1473
 14.1369
 14.8441
 14.7302
 14.675
 14.8199
 11.7941
 11.7856
 11.9536
 11.9349
 12.0999
 11.9938
 12.1066
 12.0573
 10.2014
 10.0759
 9.96592
 10.19
 14.5961
 14.4581
 14.6236
 14.5361
 10.3397
 10.2093
 10.2311
 10.3156
 13.8476
 13.7334
 13.8223
 13.8583
 16.5826
 16.5937
 16.5469
 16.5272
 10.7855
 10.7226
 10.6301
 10.7026
 12.0385
 11.9689
 12.1089
 12.2156
 10.8859
 10.8666
 10.9572
 10.9646
 13.0538
 13.1864
 13.1003
 13.0436
 13.3092
 13.2519
 13.2272
 13.2935
 11.5071
 11.6675
 11.655
 11.5982
 14.4469
 14.3928
 14.4999
 14.4227
 14.6562
 14.5975
 14.5847
 14.6381
 16.0461
 16.093
 16.1072
 16.1256
 12.5762
 12.5005
 12.4447
 12.3962
 12.9334
 12.9811
 12.7866
 12.9193
 12.2765
 12.4696
 12.3261
 12.238
 13.7726
 13.6116
 13.5948
 13.7942
 10.3057
 10.3105
 10.2261
 10.4569
 10.2657
 10.0427
 10.2635
 10.2945
 12.1654
 12.1071
 12.0092
 11.9987
 17.2098
 17.2248
 17.1923
 17.1332
 13.3535
 13.4221
 13.3338
 13.4833
 13.3016
 13.331
 13.4593
 13.3307
 13.3626
 13.3341
 13.4794
 13.4706
 11.3566
 11.4154
 11.2434
 11.4278
 15.8088
 15.7008
 15.8663
 15.8107
 16.1033
 16.1184
 16.1823
 16.2254
 11.2439
 11.343
 11.2464
 11.392
 13.9437
 13.804
 13.9956
 13.828
 13.6067
 13.6328
 13.5848
 13.5796
 12.0067
 12.0581
 12.1095
 12.2279
 14.586
 14.5243
 14.4855
 14.5444
 11.2835
 11.3893
 11.3757
 11.2685
 13.7442
 13.9367
 13.8504
 14.0019
 13.9027
 13.9161
 14.0104
 13.9348
 14.8571
 14.9161
 14.8053
 14.9242
 13.4728
 13.3304
 13.4075
 13.3091
 11.0326
 10.9634
 10.979
 11.0711
 11.9092
 11.7727
 11.7235
 11.8486
 14.5483
 14.5618
 14.4673
 14.4681
 14.1187
 13.9824
 13.9826
 14.1131
 10.6719
 10.6126
 10.515
 10.5829
 11.3861
 11.4968
 11.4358
 11.4658
 13.2537
 13.3004
 13.3719
 13.2957
 14.9741
 14.949
 14.9552
 14.9126
 15.4216
 15.268
 15.3035
 15.4043
 12.1161
 12.2524
 12.3082
 12.1936
 14.7309
 14.8296
 14.7354
 14.9332
 10.8209
 10.9907
 10.9805
 10.8344
 12.3902
 12.2188
 12.3171
 12.4198
 11.2852
 11.328
 11.3801
 11.3066
 11.8335
 11.9959
 11.9789
 11.8798
 13.3331
 13.4039
 13.3243
 13.248
 14.3405
 14.5286
 14.4858
 14.4038
 15.2525
 15.0991
 15.2321
 15.2183
 14.8952
 15.029
 14.8841
 14.9258
 14.3729
 14.4884
 14.5091
 14.4404
 13.1545
 13.1114
 13.1113
 13.3122
 13.1777
 13.1023
 13.1268
 13.227
 13.0519
 13.152
 12.9617
 13.0655
 12.2181
 12.2889
 12.164
 12.1875
 15.7209
 15.827
 15.7742
 15.7837
 12.7466
 12.7109
 12.7665
 12.6394
 14.5686
 14.6787
 14.6297
 14.6046
 13.6287
 13.475
 13.5875
 13.505
 10.3822
 10.6184
 10.4208
 10.4894
 13.1418
 13.2013
 13.2063
 13.2587
 14.7605
 14.8205
 14.7862
 14.9022
 13.575
 13.6063
 13.5112
 13.4512
 14.3113
 14.2496
 14.2548
 14.3512
 13.2494
 13.3972
 13.2508
 13.3712
 15.6667
 15.748
 15.7088
 15.6279
 13.6302
 13.6196
 13.5326
 13.5157
 12.0968
 12.1309
 12.0318
 12.1364
 12.2617
 12.2485
 12.1985
 12.2402
 10.5487
 10.8197
 10.6084
 10.7086
 14.0906
 14.1053
 13.9969
 14.0732
 14.3392
 14.2653
 14.3566
 14.1545
 10.5204
 10.7126
 10.528
 10.5647
 14.3111
 14.3082
 14.1944
 14.3057
 11.0981
 11.1464
 10.997
 11.161
 12.7558
 12.5804
 12.6844
 12.6024
 13.1783
 13.3487
 13.1913
 13.1512
 14.4133
 14.2949
 14.3085
 14.4153
 13.2584
 13.2535
 13.105
 13.2428
 11.0546
 11.0924
 11.0371
 11.0208
 16.6563
 16.622
 16.5955
 16.7174
 15.0188
 15.0429
 15.0435
 15.0082
 14.9065
 14.8839
 14.9097
 14.985
 13.938
 13.8851
 13.9983
 13.8393
 13.6397
 13.7349
 13.6647
 13.7205
 14.0634
 14.1294
 14.1555
 14.0554
 10.1822
 10.2467
 10.0155
 10.2598
 14.4576
 14.5324
 14.5262
 14.3754
 12.3124
 12.3077
 12.2607
 12.3981
 13.0827
 11.2848
 11.4287
 11.4136
 11.4464
 12.4534
 12.3416
 12.2496
 12.3385
 15.1337
 15.0761
 15.0532
 15.0969
 13.8361
 13.8846
 13.7925
 13.7196
 14.1482
 14.2622
 14.1871
 14.1805
 11.0011
 11.1504
 11.1231
 11.1067
 13.5109
 13.685
 13.5621
 13.6109
 10.8565
 10.8368
 10.9903
 10.9661
 11.8925
 11.8131
 11.952
 11.7796
 15.0858
 15.0133
 15.0545
 14.9241
 14.3993
 14.5149
 14.3245
 14.4053
 12.2156
 12.1305
 12.1109
 12.2056
 13.2228
 13.3704
 13.2064
 14.8328
 14.8822
 14.8384
 14.79
 12.1205
 12.3478
 12.1938
 12.2986
 14.1932
 14.3256
 14.3016
 14.245
 13.2646
 13.4361
 13.3452
 13.2487
 10.7114
 10.7123
 10.923
 10.7501
 13.9581
 14.0044
 14.0735
 13.9784
 11.3301
 11.505
 11.3696
 11.3142
 13.0504
 13.1418
 13.0574
 13.1956
 11.5654
 11.6553
 11.7738
 11.6922
 10.8771
 10.8754
 10.7105
 10.785
 13.8831
 13.9008
 13.809
 13.8177
 16.5931
 16.4625
 16.4732
 16.4071
 9.95928
 10.0533
 10.0583
 10.0776
 12.2346
 12.2992
 12.3457
 12.2677
 14.5855
 14.5996
 14.3962
 14.5536
 13.6065
 13.5076
 13.4948
 13.6114
 15.5344
 15.5068
 15.521
 15.602
 10.8509
 10.762
 10.59
 10.7235
 14.8964
 14.9676
 14.9303
 14.9167
 12.6361
 12.5189
 12.6903
 12.6027
 14.4778
 14.6823
 14.5187
 14.5337
 9.82927
 9.8536
 9.84427
 9.99915
 10.021
 10.0593
 10.1549
 10.2533
 11.7756
 11.9004
 11.9398
 11.7425
 12.5624
 12.5167
 12.5502
 12.6479
 12.531
 14.6787
 14.6586
 14.7791
 14.7016
 14.5363
 14.5775
 14.6146
 14.5041
 12.0814
 11.9633
 11.9564
 11.9417
 14.7425
 14.6508
 14.6504
 14.7478
 14.3026
 14.342
 14.3549
 14.2537
 11.8237
 11.7734
 11.7916
 11.9219
 13.813
 13.6734
 13.8116
 13.6786
 12.0808
 12.0698
 12.0586
 11.9615
 14.2528
 14.2787
 14.3651
 14.2726
 13.9737
 13.9015
 13.8719
 13.8615
 13.4026
 13.2795
 13.4446
 13.3241
 12.6036
 12.4615
 12.5363
 12.4027
 11.4457
 11.5143
 11.3089
 11.3451
 12.7293
 12.766
 12.8338
 12.8179
 12.766
 12.6954
 12.6682
 12.6931
 15.1479
 15.1503
 15.0906
 15.0554
 12.2849
 12.2738
 12.2071
 12.2564
 13.0967
 13.0717
 13.0106
 13.0972
 12.9573
 12.974
 13.0562
 12.987
 13.8135
 13.7847
 13.9037
 13.8247
 14.832
 14.8445
 14.7861
 14.9337
 11.6903
 11.7315
 11.6625
 11.6139
 14.7932
 14.872
 14.8447
 14.7158
 10.193
 10.205
 10.007
 10.1247
 11.423
 11.5186
 11.3508
 11.4132
 11.3656
 11.3429
 11.3317
 11.3849
 11.1433
 11.2047
 11.2185
 11.0649
 11.9081
 11.8463
 11.9681
 11.8476
 15.5411
 15.6002
 15.6989
 12.8139
 12.9866
 12.8407
 12.8594
 11.491
 11.5535
 11.5928
 11.5065
 13.8728
 14.0012
 13.9335
 13.9041
 14.2725
 14.2347
 14.3164
 14.2226
 11.8425
 11.8179
 11.7236
 11.9579
 13.4168
 13.4493
 13.41
 13.2968
 14.1706
 14.1614
 14.2111
 14.2216
 10.2349
 10.0459
 12.3246
 12.3413
 12.4764
 12.4566
 13.3538
 13.3969
 13.4631
 12.7215
 12.6781
 12.6957
 12.8246
 15.2728
 15.3146
 15.2021
 15.2162
 11.3298
 11.2341
 11.2325
 11.3892
 12.7684
 12.8004
 12.8736
 12.8556
 13.8839
 13.9803
 13.9207
 13.8193
 12.8731
 12.9962
 12.9578
 12.9021
 14.7937
 14.8492
 14.7514
 14.7998
 15.0258
 14.8467
 14.978
 14.9436
 13.4191
 13.3256
 13.2868
 13.3563
 14.7191
 14.7428
 14.7331
 14.6505
 13.2563
 13.3189
 13.294
 13.3394
 11.1415
 11.1773
 11.3288
 11.3448
 14.6709
 14.6074
 14.5607
 14.6318
 16.0122
 15.9226
 15.9699
 15.922
 12.3876
 12.6195
 12.4862
 12.4279
 13.5611
 13.4772
 13.5822
 13.4795
 14.7916
 14.8086
 14.7024
 14.7239
 13.3513
 13.4114
 13.2849
 13.3056
 10.8294
 10.8746
 10.7904
 10.8165
 14.3737
 14.3822
 14.4365
 14.3858
 12.4947
 12.5662
 12.563
 12.6073
 13.6302
 13.4937
 13.5835
 13.4222
 11.9545
 11.8582
 11.8665
 11.7732
 11.2185
 11.2277
 11.1554
 11.2803
 14.6029
 14.5135
 14.5719
 14.4167
 14.0072
 13.9223
 13.9442
 13.9706
 12.5838
 12.5969
 12.7526
 12.652
 14.8468
 14.8041
 14.8211
 14.7875
 16.5966
 16.6797
 16.673
 16.6244
 12.8947
 12.9982
 13.0053
 13.0119
 16.7924
 16.8162
 16.7705
 16.7096
 16.631
 16.5334
 16.5323
 16.5783
 15.2332
 15.1687
 15.1778
 15.2628
 12.2571
 12.3468
 12.4248
 12.4688
 12.3387
 12.2259
 12.2244
 12.136
 12.1402
 12.2493
 12.1673
 12.3052
 12.4467
 12.582
 12.5547
 12.3975
 15.6567
 15.7311
 15.679
 15.698
 14.6142
 14.6699
 14.5513
 14.5946
 14.6105
 14.7444
 14.7263
 14.6963
 13.7715
 13.6445
 13.764
 13.6321
 12.7427
 12.8172
 12.7391
 12.7943
 11.9576
 11.9718
 12.0309
 11.9221
 14.4539
 14.3333
 14.3126
 14.4324
 12.2244
 13.3724
 13.286
 13.2834
 13.3561
 9.985
 9.95166
 9.77908
 9.88601
 13.5329
 13.5306
 13.441
 13.5244
 10.9224
 10.7539
 10.8769
 14.6984
 14.6351
 14.5987
 14.7181
 16.3886
 16.3022
 16.3334
 16.2795
 13.1942
 13.2116
 13.0725
 13.279
 13.8265
 13.973
 13.9403
 13.9586
 14.7251
 14.6503
 14.5882
 14.5618
 14.5301
 14.491
 14.5865
 14.4804
 15.3496
 15.4985
 15.4092
 15.412
 12.6154
 12.6345
 12.5459
 12.3752
 13.252
 13.1309
 13.281
 13.185
 14.1236
 14.2175
 14.1271
 14.1628
 13.4015
 13.4938
 13.2659
 11.6761
 11.7525
 11.7786
 14.351
 14.3427
 14.4785
 14.502
 15.3875
 15.4302
 15.4276
 15.391
 14.1598
 14.0885
 14.0934
 14.1853
 15.2628
 15.357
 15.2436
 15.3965
 11.6618
 11.4571
 11.6078
 11.5696
 11.7829
 11.7324
 11.6911
 11.6132
 14.851
 14.8928
 14.8737
 14.8878
 15.4543
 15.5812
 15.4988
 15.4621
 12.8557
 13.0162
 12.8845
 12.9493
 10.3913
 10.5156
 10.3211
 10.4835
 15.343
 15.3447
 15.3983
 15.3363
 12.2175
 12.3496
 12.355
 12.1916
 16.0837
 16.14
 16.0737
 16.1162
 11.9589
 11.8752
 11.9927
 11.7735
 13.6923
 13.7836
 13.6431
 13.8151
 11.6781
 11.6734
 11.5349
 11.5526
 14.7244
 14.6882
 14.6661
 14.5666
 13.8995
 13.9933
 13.978
 13.9876
 14.2794
 14.3182
 14.2075
 14.2083
 14.214
 14.2587
 14.1315
 14.3067
 12.9046
 12.8264
 12.8427
 12.9511
 13.4908
 13.5917
 13.4769
 13.484
 11.4683
 11.5891
 11.6521
 11.597
 10.166
 10.0427
 10.3146
 10.3314
 13.5954
 13.6082
 13.6943
 13.6193
 11.1532
 11.2001
 11.2673
 11.0613
 12.0319
 11.8535
 11.7899
 11.8741
 15.6692
 15.7228
 15.8144
 15.6892
 14.8179
 14.6365
 14.6705
 14.7277
 13.7251
 13.8058
 13.8378
 13.7894
 15.3157
 15.3872
 15.4075
 15.4555
 12.7869
 12.655
 12.6731
 12.7304
 11.6593
 11.4281
 11.5561
 11.5253
 15.2549
 15.117
 15.2443
 15.2567
 13.3613
 13.2641
 13.3348
 13.3152
 14.1781
 14.1937
 14.1898
 14.245
 16.551
 16.4842
 16.4608
 16.5381
 13.9355
 13.9545
 13.9588
 13.8608
 13.2642
 13.1882
 13.2107
 13.1695
 12.1481
 12.0312
 12.1098
 11.994
 14.3053
 14.2797
 14.2588
 13.2439
 13.2655
 13.2961
 13.2709
 13.9897
 14.0442
 13.8547
 13.9642
 12.3417
 12.4591
 12.3507
 12.4104
 12.2821
 12.1379
 12.184
 12.1912
 10.8989
 11.0024
 10.9331
 11.0946
 14.5334
 14.5386
 14.4601
 14.559
 10.4174
 10.3776
 10.322
 10.3865
 14.3594
 14.2624
 14.3497
 14.4072
 13.2643
 13.1338
 13.1509
 13.0817
 13.1205
 13.2542
 13.2006
 13.2763
 16.7071
 16.7854
 16.7093
 16.7333
 14.036
 14.1037
 14.0258
 14.0071
 13.2986
 13.3293
 13.2163
 13.0856
 13.4006
 13.369
 13.3445
 13.5036
 9.95868
 9.96891
 10.1109
 10.0108
 14.3647
 14.2492
 14.1829
 14.3325
 14.2219
 14.2876
 14.1621
 14.3165
 12.0338
 11.8881
 11.9992
 11.9399
 14.6448
 14.6656
 14.7263
 14.7374
 14.6779
 14.6993
 14.633
 14.7098
 12.3504
 12.5067
 12.3655
 12.4601
 12.3208
 12.312
 12.4238
 12.3107
 13.0227
 13.0073
 12.8274
 12.9026
 14.2584
 14.3128
 12.6317
 12.7296
 12.5771
 12.7027
 14.2435
 14.1822
 14.2477
 14.2151
 13.6621
 13.5408
 13.498
 13.5343
 10.8552
 10.9421
 11.0012
 10.8433
 13.5428
 13.5073
 13.449
 13.4258
 11.8121
 11.7194
 11.6674
 11.8468
 14.4122
 14.2368
 14.2982
 14.2467
 13.8478
 13.9543
 13.9675
 13.9215
 13.3385
 13.1298
 13.2381
 13.2241
 14.5939
 14.6878
 14.7241
 14.6544
 15.9493
 15.9043
 15.9573
 16.0038
 10.5985
 10.6314
 10.6999
 10.6438
 15.2711
 15.2747
 15.2297
 15.307
 12.7092
 12.6614
 12.7855
 12.7787
 15.9481
 15.9343
 15.8954
 15.9925
 12.7104
 12.5856
 12.6652
 12.6813
 14.3512
 14.3636
 14.4025
 14.3825
 14.3918
 14.359
 14.4647
 14.4009
 12.9519
 12.9075
 13.0445
 12.9629
 11.3771
 11.5122
 11.3931
 11.539
 13.8816
 13.7078
 13.7359
 13.7381
 14.8782
 14.9128
 14.8724
 14.8215
 11.4132
 11.2199
 11.3121
 11.1758
 14.3147
 14.3774
 14.2481
 14.2349
 13.7914
 13.6817
 13.7127
 13.6444
 11.9795
 11.7262
 11.7874
 11.8676
 13.0815
 12.9683
 12.9325
 12.9308
 13.4508
 13.4936
 13.4352
 13.3707
 10.8554
 10.7696
 10.6896
 10.6375
 11.3916
 11.3336
 11.3492
 11.413
 12.848
 12.8207
 12.9799
 12.9198
 13.4704
 13.4061
 13.5203
 13.2799
 14.0366
 13.9995
 13.9957
 13.8513
 14.8672
 14.8738
 14.9553
 11.797
 11.7285
 11.7377
 11.6463
 15.9971
 16.0548
 16.1449
 16.1173
 12.1569
 12.3126
 12.2292
 12.2642
 14.5151
 14.6516
 14.5763
 14.5662
 14.7505
 14.8601
 14.8271
 14.8411
 11.1199
 11.2561
 11.191
 11.0072
 13.1326
 13.2003
 13.0904
 13.17
 13.3699
 13.4102
 14.2559
 13.612
 13.4947
 13.6362
 13.5571
 15.9591
 15.8805
 12.3702
 12.3237
 12.2814
 15.0369
 14.9871
 15.1138
 15.0377
 12.2567
 12.3939
 12.352
 12.3443
 13.7783
 13.6689
 13.7012
 13.7144
 14.2944
 14.1296
 14.2267
 14.2057
 10.9925
 10.9912
 10.8137
 10.9429
 15.0208
 14.9229
 15.0292
 14.9124
 12.534
 12.5382
 12.4925
 12.4196
 10.5967
 10.5724
 10.743
 10.7451
 13.1383
 13.2691
 13.1679
 13.2491
 12.4474
 12.6393
 12.5793
 12.5804
 13.3706
 13.2755
 13.3632
 13.5363
 9.96577
 10.2517
 10.007
 10.2472
 10.2331
 10.2167
 10.2968
 10.4243
 10.4999
 10.5743
 10.5827
 10.4858
 13.6557
 13.7528
 13.6384
 13.6538
 12.7799
 12.9425
 12.8776
 12.8108
 13.4896
 13.5049
 13.5872
 13.5233
 13.7194
 13.7459
 13.6127
 13.7607
 12.2334
 12.1993
 12.1815
 12.3277
 11.4395
 11.2947
 11.3634
 11.2695
 11.3766
 11.3226
 11.4581
 11.2542
 13.0883
 13.0264
 13.1153
 13.0364
 13.4452
 13.438
 13.4825
 13.5369
 14.3834
 14.4419
 14.4071
 14.2887
 11.8751
 11.763
 11.754
 11.916
 15.2559
 15.2448
 15.3422
 15.2264
 11.7782
 11.7055
 11.7781
 11.7948
 12.9491
 12.7501
 12.9294
 12.794
 12.9942
 12.9664
 12.9697
 13.0799
 14.9189
 14.9276
 14.9734
 15.0555
 16.9219
 16.8579
 16.9509
 16.9395
 13.9921
 13.8823
 13.9903
 13.9677
 11.7248
 11.8763
 11.8146
 11.7258
 14.7204
 14.821
 14.7477
 14.6761
 12.7566
 12.6885
 12.8362
 12.6914
 12.6277
 12.5371
 12.4169
 12.4598
 12.0031
 11.9351
 12.1257
 12.0713
 15.4626
 15.5127
 15.5189
 15.4406
 15.4401
 15.4232
 15.4707
 15.4927
 11.6696
 11.4809
 11.5414
 11.5798
 12.2229
 12.4035
 12.4268
 12.3113
 14.0763
 14.0597
 14.1219
 14.1199
 13.3327
 13.3646
 13.2548
 13.1947
 13.0098
 12.9836
 12.9897
 13.0602
 14.0748
 14.1624
 13.9773
 14.1278
 12.472
 12.5585
 12.5208
 12.6143
 9.43916
 9.6301
 9.48771
 9.4594
 12.6767
 12.5165
 12.5381
 12.4585
 13.3093
 13.2539
 13.3357
 13.1958
 13.2606
 13.2659
 13.3663
 13.2654
 12.9827
 12.8954
 12.9675
 13.0717
 10.4376
 10.4397
 10.5646
 10.4538
 11.4989
 11.6214
 11.5478
 12.4999
 12.4933
 12.4285
 12.5163
 14.8622
 14.8767
 14.7793
 14.8832
 13.6838
 13.6833
 13.7718
 13.6468
 11.4173
 11.5909
 11.6472
 11.5822
 14.3814
 14.3377
 14.3188
 14.2723
 13.8807
 13.9565
 13.9657
 13.8491
 13.7224
 13.7781
 13.9033
 13.7891
 12.2342
 12.3267
 12.3586
 12.3392
 12.9129
 13.0086
 12.9017
 13.1042
 12.4929
 12.7058
 12.6254
 12.5887
 14.672
 14.6149
 14.6064
 14.6514
 13.8452
 13.7722
 13.7474
 13.8564
 12.3576
 12.4482
 12.3326
 12.221
 13.904
 13.8569
 13.7937
 13.9515
 12.6795
 12.5547
 12.5592
 12.6211
 14.7219
 14.7612
 14.6951
 14.7791
 10.7591
 10.7148
 10.8651
 10.7605
 14.4206
 14.4888
 14.384
 14.3444
 14.5152
 14.7126
 14.5899
 14.589
 11.9754
 11.971
 11.878
 11.8488
 14.4311
 14.4088
 14.3869
 14.3964
 12.6524
 12.7141
 12.6564
 12.7801
 14.9677
 14.9605
 15.0829
 15.061
 12.9883
 13.0513
 13.0283
 12.9069
 10.9504
 10.7222
 10.907
 10.7855
 12.9078
 13.073
 13.0717
 12.9916
 12.0736
 12.0188
 12.0647
 12.0812
 12.6536
 12.6987
 12.6588
 12.6004
 12.6766
 12.6405
 12.5991
 12.5094
 10.5324
 10.503
 10.4516
 10.6715
 14.6052
 14.6712
 14.7265
 14.7359
 14.4729
 14.5196
 14.6137
 14.5253
 11.2171
 11.1989
 11.2906
 11.0924
 11.0077
 10.9305
 11.0139
 14.153
 14.2004
 14.205
 14.1248
 12.6574
 12.5171
 12.6368
 12.6578
 12.7535
 12.7141
 12.8398
 12.6977
 14.5127
 14.4239
 14.5724
 14.4969
 12.0048
 11.9154
 11.9462
 11.9156
 13.4091
 13.5309
 13.5208
 13.3873
 12.9501
 13.0817
 13.0618
 13.1053
 11.8952
 11.7967
 11.7721
 11.803
 14.9509
 14.9941
 14.9424
 14.8898
 14.1127
 14.238
 14.2142
 14.205
 10.4353
 10.6516
 10.4832
 10.5402
 14.6053
 14.6223
 14.5871
 14.438
 14.9486
 14.9979
 14.9758
 14.9647
 13.3831
 13.3321
 13.3912
 13.2341
 15.9648
 15.9334
 15.9944
 15.8737
 13.1189
 13.0959
 13.1563
 13.1071
 11.7892
 11.8555
 11.8917
 11.9142
 11.3776
 11.4634
 11.4256
 15.0361
 15.0225
 14.9944
 15.0299
 14.3775
 14.2568
 14.3986
 14.283
 14.5125
 14.5496
 14.5892
 14.6284
 14.2111
 14.2931
 14.241
 14.2705
 10.3113
 10.2128
 10.1568
 10.193
 14.8757
 14.8679
 14.9029
 14.9676
 14.2775
 14.3624
 14.2929
 14.1779
 11.4915
 11.4209
 11.5022
 11.5594
 13.8826
 13.9274
 13.8502
 14.1757
 14.2928
 14.2065
 12.8466
 12.9666
 13.0563
 15.7678
 15.6641
 15.6465
 15.7312
 13.0976
 13.0355
 13.0892
 12.99
 13.1278
 13.0706
 13.2381
 13.1984
 11.1679
 11.0872
 11.231
 11.2584
 10.829
 10.8869
 10.6307
 10.8656
 14.5962
 14.6794
 14.6909
 14.5242
 12.8335
 12.6975
 12.6996
 12.7232
 12.8065
 12.7134
 12.6598
 12.7
 13.3739
 13.2301
 13.2934
 13.1933
 13.9422
 13.8861
 13.8786
 14.0163
 12.865
 12.9781
 12.9144
 12.848
 14.6441
 14.6191
 14.6674
 14.5889
 11.08
 11.1328
 11.0708
 11.0334
 14.2337
 14.2518
 14.1977
 14.1468
 11.3724
 11.4994
 11.4261
 11.3872
 10.7014
 10.7912
 10.8686
 10.7279
 10.9242
 10.9721
 10.9693
 11.0054
 14.4077
 14.4833
 12.1827
 12.2044
 12.2944
 12.2337
 14.5417
 14.4034
 14.4752
 14.5171
 11.8276
 11.6042
 11.6841
 11.6361
 11.3382
 11.4683
 11.2921
 11.4523
 14.0215
 13.9533
 13.9346
 13.9928
 12.939
 12.9483
 12.8388
 12.896
 14.2308
 14.2205
 14.1442
 14.2186
 13.6072
 13.6054
 13.5885
 13.4896
 16.4405
 16.3045
 16.4645
 16.3438
 10.9875
 11.0634
 10.8762
 11.0196
 14.1601
 14.2627
 14.137
 14.0966
 15.0278
 15.1059
 15.1017
 14.9955
 13.4822
 13.5291
 13.4212
 13.3766
 14.9299
 15.0652
 15.0921
 14.9327
 13.5799
 13.7076
 13.7319
 13.6379
 12.1292
 12.174
 12.0252
 12.2174
 13.294
 13.3728
 13.3736
 13.3245
 11.1576
 10.9401
 11.1562
 13.4638
 13.3508
 13.5132
 13.3798
 16.4878
 16.5297
 16.5262
 16.5662
 10.1649
 10.1127
 10.0614
 10.1724
 13.0529
 13.0641
 12.9946
 13.0827
 11.8383
 11.9285
 12.0288
 11.8957
 14.656
 14.5615
 14.7905
 14.69
 13.9481
 13.8634
 14.0409
 13.9416
 13.9551
 13.7966
 13.8773
 13.8022
 10.8993
 10.9986
 10.8785
 10.7921
 13.8328
 13.9219
 13.9832
 13.9517
 10.2169
 10.267
 10.1758
 10.3464
 12.2243
 12.3622
 12.3663
 12.2123
 14.6065
 14.5823
 14.5409
 14.5976
 16.0129
 15.9886
 15.9118
 16.0423
 13.5762
 13.7344
 13.64
 13.7625
 13.2403
 13.2434
 13.1411
 13.266
 12.0032
 12.0127
 12.0797
 12.195
 16.3679
 16.4455
 16.3272
 16.3896
 13.5651
 13.6524
 13.5041
 13.5447
 10.5051
 10.5946
 10.6224
 10.5878
 11.6283
 11.5106
 11.5574
 11.6018
 11.5533
 11.5783
 11.4518
 11.6146
 11.5783
 11.6878
 11.7191
 11.6645
 11.529
 11.3578
 11.4627
 11.4738
 12.6946
 12.644
 12.6997
 12.7023
 14.4797
 14.3034
 14.1912
 14.1672
 14.2453
 12.3681
 12.5211
 12.4679
 12.4676
 12.3962
 12.3599
 12.5194
 12.5021
 15.398
 15.3461
 15.3543
 15.3975
 11.2459
 11.2486
 11.3131
 11.25
 11.8501
 11.7424
 11.6195
 11.7075
 14.6259
 14.4717
 14.5006
 14.3275
 14.3297
 14.3524
 14.2911
 14.2209
 14.245
 14.1756
 14.4156
 14.5368
 14.6857
 14.5993
 12.3914
 12.2573
 12.2924
 12.4241
 10.4762
 10.4385
 10.5092
 10.4385
 13.2642
 13.3162
 13.2333
 13.3767
 10.7767
 11.0008
 11.0586
 11.0785
 13.5418
 13.5711
 13.6167
 13.4963
 12.3435
 12.4595
 12.5316
 12.5126
 14.5049
 14.5228
 14.5457
 14.6262
 12.9006
 12.7578
 12.9483
 12.8329
 12.6693
 12.5329
 12.4609
 12.6591
 14.4323
 14.4804
 14.575
 14.5266
 13.8747
 13.9451
 13.7342
 13.8035
 13.482
 13.4975
 13.585
 13.6488
 12.797
 12.7464
 12.7956
 12.7328
 15.1616
 15.1546
 15.1176
 15.0412
 12.4839
 12.6137
 12.5447
 12.4562
 13.8574
 13.9927
 13.8356
 13.7799
 12.1974
 12.2222
 12.1991
 12.2857
 11.1188
 11.2431
 11.143
 11.2002
 10.7918
 10.885
 10.8755
 10.8358
 10.7949
 10.7063
 10.9432
 10.1845
 10.0896
 10.0268
 9.96041
 11.5185
 11.664
 11.7972
 11.6181
 13.2716
 13.2971
 13.213
 13.2313
 10.6707
 10.7575
 10.8419
 10.6946
 13.1305
 13.1249
 13.1936
 13.209
 12.7218
 12.6565
 12.6908
 11.0751
 10.9437
 11.0207
 11.0318
 11.102
 11.2451
 11.186
 12.8641
 12.8968
 12.8008
 12.7697
 13.9223
 13.8707
 13.9392
 13.7932
 12.2853
 12.3841
 12.4181
 12.4368
 10.8633
 10.7664
 10.8404
 10.8974
 14.2514
 14.2863
 14.2405
 14.3395
 13.3486
 13.3888
 13.4669
 13.5011
 13.1561
 12.9858
 13.1539
 13.1515
 12.1024
 12.2259
 12.1425
 12.1355
 14.318
 14.3914
 14.2427
 14.3703
 14.6898
 14.7737
 14.6813
 14.6901
 13.2559
 13.2566
 13.2738
 13.1653
 10.2636
 10.3481
 10.3629
 10.3398
 14.1671
 14.2894
 14.1514
 14.2268
 14.5853
 14.5003
 14.6203
 14.5035
 12.5266
 12.6848
 12.5225
 12.5486
 14.2
 14.1462
 14.2108
 14.6838
 14.593
 14.6332
 12.7696
 12.8659
 12.6758
 12.8216
 14.5253
 14.5716
 14.6446
 14.5324
 14.5954
 14.7123
 14.6147
 14.6209
 12.4646
 12.4314
 12.4943
 14.4015
 14.417
 11.263
 11.2304
 11.0471
 11.0239
 12.2834
 12.1042
 12.111
 12.165
 15.1991
 15.1257
 15.2621
 15.0957
 15.788
 15.7451
 15.8593
 15.7554
 14.1307
 14.3227
 14.2102
 14.1949
 11.061
 11.0628
 10.9848
 11.0431
 12.2735
 12.3619
 12.4184
 12.3683
 14.9955
 15.0197
 15.0266
 15.0413
 14.2098
 14.204
 14.144
 14.0797
 14.1752
 14.1446
 14.1695
 14.4528
 14.3783
 14.3663
 14.3697
 14.3836
 14.462
 14.3655
 14.3323
 14.6498
 14.7695
 14.6767
 14.7483
 10.7231
 10.5837
 10.693
 10.6804
 10.706
 10.5801
 10.7907
 13.322
 13.4013
 13.3057
 13.4334
 14.2375
 14.3736
 14.2179
 14.2541
 10.1736
 10.0589
 14.6745
 14.7491
 14.7286
 14.7925
 12.9362
 12.74
 12.8663
 12.771
 12.5833
 12.6304
 14.5342
 14.5562
 14.4549
 14.5276
 10.6672
 10.5607
 10.7218
 10.4691
 10.3137
 10.4237
 10.3335
 10.1161
 13.5221
 13.473
 13.5109
 15.3675
 15.2851
 15.3213
 14.3368
 14.2025
 14.3474
 14.3169
 11.842
 11.9669
 11.7545
 11.9434
 13.9522
 14.0259
 14.0603
 14.1219
 14.1229
 14.1814
 14.0826
 14.199
 12.347
 12.3432
 12.2992
 12.1505
 16.2866
 16.2132
 16.2948
 16.3681
 12.0372
 12.0164
 11.8975
 11.9154
 11.9601
 11.9752
 11.868
 11.8263
 14.7028
 14.6947
 14.8402
 14.7337
 11.1408
 11.0504
 11.0339
 11.1711
 16.4569
 16.5557
 16.559
 16.6278
 10.7447
 10.9989
 10.9953
 10.9956
 11.4214
 11.5501
 14.1136
 14.0386
 14.0553
 13.98
 14.8128
 14.9169
 14.8544
 14.776
 11.2335
 11.1089
 11.1271
 11.1855
 13.9949
 13.9711
 13.9786
 14.0459
 10.2144
 10.3027
 10.2452
 14.2821
 14.3749
 14.4078
 14.9457
 14.8255
 14.797
 10.8476
 10.7679
 10.8129
 10.8679
 14.2659
 14.3318
 14.3364
 14.3236
 11.1688
 11.1551
 14.992
 14.9136
 14.9928
 14.9665
 13.192
 13.0676
 13.0763
 13.1643
 14.1406
 14.1854
 13.7204
 13.5103
 13.5286
 13.6472
 14.0577
 14.0726
 14.0627
 14.1748
 10.3093
 10.1825
 10.3908
 10.3348
 14.8797
 14.9296
 14.9066
 11.5765
 16.4065
 16.4401
 16.4304
 16.4652
 11.188
 11.1495
 11.0798
 11.3027
 14.1114
 14.0993
 13.9161
 13.9675
 11.976
 12.0456
 12.0246
 11.9931
 14.0832
 14.1624
 14.209
 14.112
 12.4044
 15.3858
 15.4146
 15.4153
 15.373
 12.3643
 12.3699
 12.3992
 12.4958
 11.4887
 11.4314
 11.3532
 11.5954
 11.5474
 11.6936
 11.5342
 11.149
 10.9877
 11.1064
 11.0782
 14.6429
 14.6081
 14.4866
 14.5507
 11.1027
 11.1012
 11.1234
 10.9957
 14.9998
 15.0181
 14.9988
 15.104
 11.2329
 11.1521
 11.1078
 11.1039
 13.383
 13.4466
 13.4615
 13.4888
 12.0415
 11.9662
 11.9233
 11.8934
 12.8648
 12.9247
 12.961
 12.9945
 10.6546
 10.846
 13.0986
 13.2043
 13.1798
 13.1008
 15.2827
 15.3265
 15.2033
 15.3229
 14.9677
 15.0093
 14.8697
 14.9895
 12.8795
 12.7818
 12.7607
 12.7536
 11.9575
 11.9659
 11.979
 11.8227
 11.6884
 11.8134
 11.7325
 11.6579
 10.9809
 11.1287
 11.0877
 11.1857
 11.7033
 11.5331
 11.6279
 11.6979
 14.9399
 14.9539
 14.8859
 15.0181
 14.5489
 14.5615
 14.5815
 14.4333
 10.0632
 10.1822
 10.2295
 10.2139
 12.7222
 12.6544
 12.6934
 12.5136
 14.4053
 14.2723
 14.3908
 14.3238
 16.0511
 16.0632
 15.9586
 16.1133
 11.1371
 11.0753
 11.1958
 10.9453
 14.367
 14.3355
 14.3095
 14.2419
 13.6319
 13.5375
 13.6955
 13.6086
 15.1062
 15.1323
 15.1146
 15.0355
 12.5034
 12.5747
 12.5197
 12.5131
 10.8598
 10.8488
 10.9059
 10.8627
 12.6886
 12.8698
 12.8032
 12.8333
 13.5216
 13.4802
 13.3838
 13.4444
 15.2081
 15.1548
 15.1066
 15.2484
 10.8188
 12.1895
 12.0989
 12.2468
 12.0957
 13.5998
 13.6561
 13.752
 13.6965
 11.8597
 11.7871
 11.8115
 11.6937
 14.3652
 14.4689
 14.4087
 14.3428
 12.5742
 12.4858
 12.6235
 15.2666
 15.1204
 15.2293
 15.2283
 11.4561
 11.6939
 11.552
 11.6218
 14.8419
 14.8625
 14.7842
 14.8437
 9.62308
 9.68533
 9.63915
 9.54146
 14.3901
 14.375
 14.3557
 14.3771
 15.8417
 15.6342
 15.6579
 15.7364
 15.2982
 15.3102
 15.2312
 15.2243
 10.116
 10.2086
 10.2507
 10.3046
 10.6456
 10.6556
 10.5821
 10.564
 13.322
 13.2206
 13.2633
 13.2015
 14.2467
 14.2869
 14.2188
 12.9831
 12.9999
 13.1518
 13.0984
 12.2484
 12.3165
 12.163
 12.1731
 12.8975
 12.6735
 12.7492
 12.7774
 13.1333
 13.1092
 12.9089
 13.0039
 10.0655
 10.1738
 10.1727
 10.2287
 14.6184
 14.6643
 14.5055
 14.6164
 15.2593
 15.4168
 15.4012
 11.9377
 12.013
 12.0006
 12.0739
 11.3251
 11.2007
 11.276
 11.3014
 14.3573
 14.3698
 14.3361
 14.5749
 14.5544
 14.4908
 14.6495
 10.983
 11.0658
 10.9262
 11.1317
 13.3719
 13.4025
 13.2841
 13.3667
 14.4902
 14.6053
 14.512
 14.5181
 13.6462
 13.7091
 13.6991
 13.6189
 11.479
 11.4703
 11.5903
 11.4718
 14.3468
 14.2054
 14.4113
 14.2522
 13.5196
 13.6979
 13.6622
 13.5792
 14.0733
 13.9403
 14.0346
 10.7031
 10.7306
 10.815
 10.8322
 13.2475
 13.2464
 13.3194
 13.1859
 10.0115
 10.0825
 9.80871
 13.0894
 13.0143
 13.0555
 13.0884
 15.1401
 15.0634
 15.1902
 15.1461
 12.7312
 12.7049
 12.6425
 12.5343
 13.1608
 13.0043
 13.2018
 14.3172
 14.2945
 14.1926
 14.2341
 14.8962
 14.8623
 14.9303
 14.8345
 14.3824
 14.3138
 14.2487
 14.3875
 15.8993
 15.869
 15.7828
 15.7687
 13.7849
 13.8097
 13.8584
 13.8731
 14.1021
 14.1502
 14.0015
 14.1747
 10.8118
 11.0153
 10.9739
 10.7459
 14.8399
 14.7071
 14.75
 14.7817
 12.4219
 12.4676
 12.3911
 12.3334
 10.2662
 10.2336
 10.3175
 10.3907
 10.2393
 10.4405
 10.3491
 10.3048
 11.6061
 11.5257
 11.596
 11.5763
 10.2356
 10.0449
 10.0644
 10.3246
 10.867
 10.8593
 10.8776
 9.96742
 10.1978
 10.1371
 10.1369
 15.1563
 15.2067
 15.1594
 15.2415
 13.6165
 13.7564
 13.7777
 13.7342
 13.9979
 13.8723
 13.9701
 13.8679
 13.9271
 13.9974
 13.9916
 14.0241
 10.7251
 10.8205
 10.7039
 10.6749
 13.7424
 13.7375
 13.8416
 13.865
 14.3403
 14.4617
 14.4779
 14.3744
 12.0767
 12.1117
 11.9842
 12.1574
 14.195
 14.1003
 14.1988
 14.1058
 11.8993
 12
 12.0537
 12.9968
 12.8726
 12.8409
 10.9923
 11.1446
 11.1475
 11.0905
 13.637
 13.5919
 13.6777
 13.6776
 12.4063
 12.5175
 12.4778
 12.3769
 13.9613
 14.097
 14.0389
 13.924
 9.99404
 10.0819
 10.477
 10.5311
 10.5847
 10.4059
 15.2192
 15.2594
 15.2573
 15.3227
 12.4082
 12.313
 12.2854
 12.1927
 14.3066
 14.1979
 14.3062
 14.3606
 16.7597
 16.8943
 16.7666
 16.8079
 14.3476
 14.3985
 14.4649
 14.388
 12.0117
 12.1351
 12.017
 14.8883
 14.9026
 14.7656
 14.7779
 10.3435
 10.4897
 10.3169
 10.4512
 14.3264
 14.2789
 14.314
 14.2627
 12.5379
 12.4152
 12.4559
 12.5264
 15.0515
 15.0256
 15.1255
 15.0507
 16.196
 16.1779
 16.1578
 16.1128
 14.4972
 14.4106
 14.4975
 14.5281
 13.7671
 13.8131
 13.727
 12.842
 13.0368
 12.847
 12.9282
 14.669
 14.6528
 14.7487
 11.8065
 11.8632
 11.773
 11.6909
 11.6021
 11.4205
 11.6155
 11.4594
 12.0599
 12.2103
 12.0973
 12.0703
 10.5132
 10.8209
 10.7199
 10.6704
 11.6507
 11.7183
 11.6214
 14.0572
 13.9783
 13.9998
 13.9418
 11.8104
 11.9294
 12.2804
 12.3927
 12.4348
 12.346
 12.0617
 12.1095
 12.0802
 12.009
 14.4164
 14.369
 14.3923
 14.4839
 14.4126
 14.3297
 14.4062
 14.3207
 16.7786
 16.7173
 16.6944
 16.7367
 14.4164
 14.3233
 14.4161
 13.9776
 14.0204
 14.0487
 14.0097
 13.1253
 13.1253
 13.1902
 13.2149
 13.9948
 13.8893
 13.8806
 13.9569
 15.1587
 15.1012
 15.1765
 15.173
 11.433
 11.6197
 11.4843
 11.5648
 13.3612
 13.2756
 13.3548
 13.4383
 10.9196
 10.9222
 10.9648
 10.8711
 12.8629
 12.9642
 12.8694
 12.943
 10.6257
 10.547
 10.6069
 16.1024
 16.0166
 16.0439
 16.0392
 12.097
 11.8982
 12.0507
 12.0311
 13.4732
 13.5703
 13.4513
 13.5054
 14.5836
 14.6581
 13.9618
 13.9348
 13.8772
 13.9018
 13.5865
 13.7196
 13.6962
 10.9277
 10.8808
 11.012
 10.9183
 10.7825
 10.8616
 10.969
 10.9227
 14.6458
 14.6709
 14.6073
 14.661
 13.4349
 13.4644
 14.2151
 14.1089
 14.1795
 14.2698
 11.7151
 11.8279
 11.6152
 11.6043
 15.1209
 15.0954
 15.1339
 15.064
 14.4994
 14.4698
 14.5564
 14.5661
 14.2634
 14.1461
 14.0933
 14.1523
 12.9942
 13.007
 13.0163
 12.8424
 11.9499
 11.9629
 12.0408
 12.0546
 11.6801
 11.7513
 11.8531
 11.7395
 16.4683
 16.4843
 16.5216
 16.5522
 14.865
 14.7645
 14.7228
 12.7837
 12.9954
 12.8699
 12.6801
 12.5857
 12.6996
 12.5486
 10.8358
 10.73
 10.8097
 10.6859
 13.3073
 14.3067
 14.3058
 14.4111
 14.3977
 12.3016
 12.3705
 12.4757
 12.426
 11.5216
 11.6705
 11.6628
 11.501
 11.4249
 11.4107
 14.6507
 14.6971
 14.7433
 14.7572
 13.081
 12.9816
 13.016
 12.9706
 14.9655
 14.999
 14.9687
 14.9255
 12.6097
 13.8013
 13.8678
 13.6958
 13.6555
 14.0259
 13.9524
 13.9058
 13.9779
 10.833
 10.9774
 10.5746
 10.4676
 10.3934
 10.5101
 15.5891
 15.6732
 15.6226
 15.5896
 11.6747
 11.6584
 11.8179
 11.6114
 12.685
 12.8264
 12.7586
 12.6266
 16.3215
 16.2931
 16.295
 16.3596
 13.1635
 13.1606
 13.102
 13.2197
 13.2619
 13.3904
 13.464
 13.4611
 14.6139
 14.7129
 14.5694
 14.6164
 10.1644
 10.0207
 10.0098
 9.98341
 13.371
 13.4921
 13.4807
 14.0834
 13.9763
 13.9712
 14.0725
 10.4793
 10.2944
 10.4339
 10.4092
 14.1267
 14.1922
 14.2778
 14.1069
 13.5079
 13.4273
 11.3904
 11.3971
 11.2884
 11.5067
 12.8271
 12.8072
 12.6649
 12.6659
 10.5227
 10.6026
 10.4377
 10.5267
 13.442
 13.2615
 14.4684
 14.4306
 14.4051
 14.4101
 14.1634
 14.1424
 14.0675
 14.0323
 11.2534
 11.2289
 11.3922
 11.3338
 11.6682
 11.7344
 11.6159
 11.6243
 11.7424
 11.8865
 11.7574
 11.7717
 14.1541
 14.0189
 14.0735
 14.1421
 15.6595
 15.7245
 15.6962
 15.664
 10.2208
 10.0698
 10.2069
 10.1369
 14.6812
 14.6752
 14.6618
 14.606
 12.9162
 12.8175
 12.8024
 12.8889
 13.8986
 13.7312
 13.8479
 13.7869
 12.9217
 13.0632
 12.933
 12.4298
 12.2836
 12.4219
 12.2447
 13.2525
 13.1697
 13.227
 13.3238
 12.0002
 11.9453
 11.8508
 12.0284
 11.9887
 12.0393
 11.9829
 12.1872
 16.2987
 16.1693
 16.2917
 15.0106
 14.9114
 14.8538
 14.8947
 12.8828
 12.9649
 12.9308
 12.9401
 11.4321
 11.2842
 11.3639
 11.2808
 14.2777
 14.4125
 14.2799
 14.2391
 14.1719
 14.162
 12.6384
 12.7085
 12.6263
 12.6206
 12.9787
 12.8635
 12.8309
 12.8131
 9.39604
 9.43316
 9.51256
 9.3481
 15.2724
 15.2322
 15.3007
 15.4169
 11.8645
 11.8385
 13.7603
 13.6511
 13.6362
 13.7512
 12.1183
 12.0458
 12.0587
 12.026
 12.7043
 12.682
 12.6016
 12.6408
 13.6526
 13.644
 13.5409
 13.7237
 12.3221
 12.2065
 12.2367
 12.22
 14.6402
 14.5941
 14.6087
 14.5281
 14.9293
 15.0223
 14.9157
 14.9672
 11.4064
 11.35
 11.2598
 11.069
 12.9508
 12.892
 12.7985
 15.7757
 15.8227
 15.7421
 11.1975
 11.1218
 11.1009
 11.0516
 11.0455
 11.0903
 11.1516
 11.1612
 13.1977
 13.1722
 13.1484
 13.0804
 10.8277
 10.7406
 10.7738
 10.7608
 10.4372
 10.2635
 10.4146
 10.2461
 13.5951
 13.5423
 13.4535
 13.57
 11.5062
 11.4417
 11.3915
 11.4044
 9.49583
 9.44817
 9.58892
 9.42076
 11.7653
 11.7495
 11.828
 11.6377
 12.8421
 13.0114
 12.9379
 13.0537
 11.288
 11.2109
 11.3135
 11.3486
 12.1151
 12.1437
 12.0566
 12.5039
 12.3973
 15.4324
 15.4203
 15.4546
 15.489
 12.5417
 12.4225
 12.4515
 12.4751
 15.6075
 15.5847
 15.5674
 15.5632
 15.4879
 15.5062
 15.4053
 15.3709
 12.7301
 12.6738
 12.6627
 12.7693
 13.7907
 13.7913
 13.8862
 13.7428
 12.3178
 12.1871
 12.2207
 12.2364
 13.1169
 13.2014
 15.0668
 15.1216
 15.0962
 15.0107
 10.3456
 10.2946
 10.2255
 10.3369
 13.7228
 13.8082
 13.6329
 13.7062
 11.1431
 11.1911
 11.2952
 11.2098
 15.0431
 15.1223
 15.0423
 15.0813
 10.9623
 10.7478
 10.8146
 10.7808
 12.5038
 12.6656
 12.5385
 12.5574
 14.2358
 14.3419
 14.4205
 14.3597
 9.74922
 9.81918
 9.80248
 9.90576
 14.0615
 13.9332
 14.0321
 14.0633
 13.542
 13.7062
 13.5953
 13.6581
 10.3199
 10.2943
 10.4223
 10.2857
 13.1959
 13.3635
 13.3168
 13.3216
 11.3153
 11.2139
 11.2751
 11.3278
 11.3337
 11.428
 11.3872
 13.5112
 13.7097
 13.619
 13.6591
 11.4152
 11.2935
 11.3746
 11.3331
 14.7324
 14.6175
 14.6296
 14.7379
 11.0894
 11.0028
 11.0127
 11.0743
 11.1492
 11.1968
 11.1182
 11.1752
 14.507
 14.5305
 14.3363
 14.4386
 14.4419
 14.4844
 14.3796
 14.53
 17.1119
 17.0869
 17.1636
 17.1441
 11.6489
 11.7984
 11.7786
 15.4209
 15.2867
 15.2883
 15.3448
 10.5876
 10.7
 10.6727
 10.6473
 14.5362
 11.2017
 11.3364
 11.2911
 11.1896
 11.199
 11.3035
 11.3108
 16.4428
 16.5465
 16.5186
 16.4709
 16.5716
 16.5776
 16.5921
 16.6199
 10.5812
 10.6982
 10.5915
 10.5059
 14.423
 14.4712
 14.3689
 14.4898
 12.1544
 12.2197
 12.0751
 13.9382
 14.0318
 13.9456
 14.0956
 13.5135
 13.5061
 13.5555
 11.1717
 11.2287
 11.0319
 12.702
 12.6197
 12.5984
 12.6814
 13.9074
 14.0204
 14.0287
 13.9453
 14.5494
 14.5146
 14.5688
 14.5247
 12.1823
 12.103
 12.0898
 15.0748
 15.0261
 15.1674
 15.171
 14.4525
 14.2524
 14.3812
 13.6015
 13.4223
 13.4535
 13.537
 14.5328
 14.4296
 14.4385
 14.4758
 14.5036
 14.3665
 14.3421
 14.3755
 11.0811
 11.1698
 11.1616
 11.1834
 13.4058
 13.5069
 13.4266
 13.371
 14.0631
 14.0915
 12.8381
 12.923
 12.8647
 12.9828
 10.6609
 10.7399
 10.6848
 10.7242
 10.7456
 17.2168
 17.2447
 17.2576
 17.2183
 11.5371
 11.3998
 11.4741
 10.1758
 10.2205
 10.2822
 10.2059
 11.8259
 12.0029
 11.9728
 11.9948
 14.5744
 14.5328
 14.4764
 14.5816
 13.4956
 13.5759
 13.6135
 13.5893
 10.0623
 10.0738
 10.1186
 10.1413
 11.6357
 11.7314
 11.8135
 11.7174
 15.1326
 15.2124
 15.2192
 15.0897
 13.6562
 13.6246
 13.6001
 13.7745
 13.8324
 13.7786
 13.7142
 13.805
 17.2376
 17.2529
 17.2519
 17.2309
 14.7425
 14.7637
 14.7977
 14.6975
 11.6663
 11.5099
 11.6787
 11.5934
 12.5876
 12.5985
 12.486
 12.6365
 13.3281
 13.2488
 13.1558
 13.3009
 12.0226
 11.8956
 11.9361
 11.9411
 12.4988
 12.504
 12.3951
 12.5145
 11.9047
 11.902
 11.9996
 11.7609
 9.70394
 9.93748
 9.86509
 9.63907
 11.4824
 11.5454
 11.5763
 11.7494
 11.9614
 12.0375
 12.1302
 12.0009
 12.1877
 12.896
 12.898
 12.9761
 12.7855
 10.6422
 10.6977
 10.7245
 10.7179
 13.4371
 13.5017
 13.39
 13.4323
 12.6925
 12.6394
 12.5758
 12.7633
 13.0766
 13.2001
 13.1175
 13.0195
 13.8529
 14.0105
 13.893
 13.9946
 15.9917
 15.9463
 15.8382
 16.0057
 9.5196
 9.73525
 12.338
 12.4077
 12.4201
 16.8786
 16.8785
 16.8871
 14.2741
 14.3503
 14.3006
 14.39
 15.4546
 15.4449
 15.5802
 15.5837
 14.7376
 14.7894
 14.7134
 14.8461
 10.4479
 10.6323
 10.5546
 10.5309
 12.94
 13.086
 13.024
 13.1061
 12.0893
 11.9519
 11.9564
 11.8391
 12.5236
 12.5682
 12.6445
 12.7327
 11.9518
 11.8947
 12.0031
 11.9662
 13.3013
 13.2957
 11.2538
 11.5317
 11.2814
 11.5155
 11.8043
 11.886
 11.9474
 11.7066
 14.3035
 14.431
 14.2863
 14.4128
 14.3605
 14.3307
 14.3337
 14.3191
 12.7931
 12.7742
 12.8241
 12.7431
 12.8137
 12.7388
 12.6618
 12.5753
 14.7778
 14.9132
 14.9522
 14.7436
 11.8993
 11.9958
 12.0408
 12.0543
 9.82123
 9.89934
 9.83072
 9.88919
 11.1608
 11.2336
 11.2277
 11.2885
 9.69136
 9.61892
 9.75765
 9.582
 11.0163
 10.8747
 10.9113
 10.9045
 12.9772
 12.8226
 12.9542
 12.9171
 12.1118
 12.1922
 13.2416
 13.0967
 13.279
 13.2008
 14.3745
 14.2722
 14.2881
 14.2482
 11.6213
 11.4379
 11.4328
 11.5589
 13.2846
 13.3124
 13.2802
 13.4114
 13.5714
 13.6607
 13.6918
 13.6402
 14.5319
 14.5306
 14.4793
 14.3869
 14.1283
 14.1304
 14.1925
 14.0277
 14.4367
 14.3648
 14.353
 14.401
 15.9291
 15.9152
 15.9827
 15.9573
 11.7215
 11.6756
 11.8105
 11.7014
 12.2139
 12.1813
 15.6874
 15.668
 15.6769
 15.7728
 13.9719
 13.9301
 12.3235
 12.4235
 12.305
 11.2973
 11.2592
 14.7441
 14.7615
 14.8135
 14.6846
 15.8007
 15.7466
 15.7503
 15.7235
 14.8883
 14.8284
 14.7686
 14.7483
 13.9916
 13.9049
 13.8794
 13.8623
 12.5284
 12.6768
 12.6823
 12.6716
 12.0566
 12.1103
 12.1287
 12.1498
 14.0396
 13.9391
 13.9258
 13.9543
 12.7468
 12.755
 12.6991
 12.8771
 12.9807
 13.0635
 13.0908
 13.0287
 12.8899
 12.8041
 12.7475
 12.8031
 12.7574
 12.9391
 12.7554
 13.2439
 13.3347
 13.1524
 13.2296
 13.7577
 13.7073
 13.8438
 13.7694
 14.4423
 14.3548
 14.4996
 14.358
 10.5979
 10.6417
 10.5586
 10.4738
 13.4201
 13.4203
 13.2978
 13.3098
 14.9313
 14.9302
 15.0887
 14.966
 15.1377
 15.1195
 15.1553
 15.185
 14.8949
 14.9698
 14.9643
 14.916
 14.4509
 14.4608
 14.3401
 14.317
 14.4898
 14.5557
 14.5845
 14.5372
 10.9363
 10.8566
 10.849
 10.8137
 13.5149
 13.5174
 13.5409
 13.4268
 11.8517
 11.7334
 11.8382
 11.8966
 14.4231
 14.2932
 14.4485
 14.354
 10.4716
 10.4225
 10.432
 10.3235
 10.2709
 10.3009
 10.147
 11.8527
 12.0966
 12.0168
 12.0064
 14.2661
 14.2113
 14.3271
 14.2346
 9.91295
 10.1083
 10.068
 13.6741
 13.7644
 13.6955
 13.8414
 11.0402
 11.0176
 11.3115
 11.2675
 11.1567
 11.309
 13.8566
 13.9254
 13.8803
 14.9501
 14.9109
 15.0274
 14.9898
 14.4023
 14.4544
 14.3481
 14.3458
 13.0537
 12.9212
 13.0916
 10.2948
 10.5408
 10.5192
 11.8861
 12.0405
 12.0819
 11.9982
 10.292
 10.3408
 10.5048
 10.1781
 13.6062
 13.4824
 13.4244
 13.4975
 10.8572
 10.8295
 10.7638
 10.9576
 12.9455
 12.9166
 13.0005
 13.0612
 14.1525
 14.2626
 14.2066
 10.0346
 10.1595
 10.0895
 9.89737
 12.2673
 12.6741
 12.5277
 12.5824
 12.6485
 12.4133
 12.3976
 12.4934
 14.2089
 14.2768
 14.2617
 14.2659
 14.2698
 14.1316
 13.5525
 13.6684
 13.6702
 13.6888
 13.5218
 13.3835
 13.4884
 13.4062
 11.9732
 9.8894
 10.1018
 10.1331
 9.99542
 16.2167
 16.3176
 16.2677
 16.2784
 14.015
 14.0785
 14.2543
 14.2906
 14.2355
 14.2086
 14.2847
 14.2737
 14.4187
 14.3651
 11.7942
 11.954
 11.9402
 11.8568
 11.6952
 11.6387
 11.7927
 11.6714
 14.0073
 14.1023
 12.0943
 12.071
 11.911
 12.0156
 12.055
 11.9141
 12.0429
 12.6906
 12.7827
 12.8488
 12.8877
 13.3816
 13.4883
 13.3876
 13.4972
 11.7893
 11.6076
 11.6305
 11.7742
 11.361
 11.3323
 11.2396
 11.3764
 11.5199
 11.3832
 11.4838
 11.7318
 11.6935
 11.7113
 11.8189
 13.5762
 13.5449
 13.5269
 13.6211
 15.4203
 15.4507
 15.3854
 15.3737
 13.8522
 13.8648
 13.9226
 13.894
 11.3397
 11.4746
 11.5659
 11.4454
 12.1264
 12.1888
 12.1941
 12.0865
 13.8135
 13.7523
 13.7072
 13.6988
 12.1724
 12.3006
 12.2147
 12.1784
 12.8088
 12.7664
 12.9357
 12.7562
 12.8346
 12.7153
 12.7617
 12.7145
 12.2326
 12.1405
 12.1558
 10.8011
 10.7561
 10.8377
 10.8094
 13.8919
 13.7785
 13.8302
 13.821
 13.2565
 13.1403
 13.1531
 13.1789
 15.2786
 15.3369
 15.3234
 15.236
 14.5214
 14.4435
 14.4528
 14.5094
 14.3965
 14.5597
 14.4793
 14.5794
 14.5828
 14.5226
 14.538
 14.494
 12.8391
 12.9039
 12.8809
 15.0003
 15.023
 14.9699
 14.9491
 14.7012
 14.6609
 14.5886
 14.6881
 9.98868
 10.1407
 10.1469
 10.0394
 12.774
 12.8407
 12.909
 12.9574
 11.3921
 11.3837
 11.4587
 11.5045
 12.5612
 12.5032
 12.5847
 12.6617
 12.2633
 12.1669
 12.268
 12.2391
 14.2022
 14.2939
 14.2497
 14.3775
 13.1091
 12.8835
 13.0611
 13.0324
 11.2819
 11.1859
 11.2808
 11.2372
 12.4997
 12.5486
 12.3772
 12.4045
 14.6102
 14.6684
 14.5572
 14.5118
 10.7599
 10.7119
 10.7449
 10.688
 13.712
 13.8125
 14.7281
 13.1151
 13.0609
 12.975
 13.141
 13.4221
 13.3108
 13.4376
 13.4644
 15.7374
 15.7532
 15.6563
 13.8945
 14.0016
 14.026
 14.0911
 12.5132
 12.3173
 12.4013
 12.2893
 12.9504
 12.8614
 12.9133
 12.956
 10.8284
 10.7637
 10.7494
 10.7915
 14.4774
 14.3027
 14.4245
 14.2566
 14.2628
 14.2922
 14.1543
 15.516
 15.6545
 15.5776
 15.5283
 14.5291
 14.4026
 14.4922
 12.5583
 12.3206
 12.5204
 14.6065
 14.6212
 14.7096
 14.6648
 13.3805
 13.2719
 13.2478
 13.2528
 17.2224
 17.2269
 17.2203
 17.1566
 13.5574
 13.5957
 13.5955
 14.9616
 14.9835
 14.9631
 14.9626
 13.5652
 13.6195
 13.7153
 13.627
 14.6893
 14.5984
 14.6056
 14.5563
 11.956
 11.9011
 11.9797
 11.8703
 11.6404
 11.7499
 11.6614
 11.5996
 10.2804
 10.2798
 10.2053
 10.3841
 12.7103
 12.8665
 12.7463
 12.7046
 14.7207
 14.837
 14.7307
 14.7962
 14.1158
 14.1589
 15.356
 15.3526
 15.3198
 15.3219
 13.323
 13.2758
 13.8792
 13.7064
 13.7437
 14.3686
 14.3022
 14.2528
 14.3095
 10.4789
 10.4116
 10.6131
 10.5873
 10.7205
 10.7541
 10.8085
 10.7434
 14.2262
 14.1874
 14.2572
 14.3451
 15.014
 14.982
 12.5681
 12.5201
 12.5544
 12.4376
 14.3547
 14.3956
 14.3091
 14.3155
 13.7103
 13.8532
 13.6168
 9.53848
 9.48371
 9.62857
 13.0192
 12.862
 12.9184
 12.9162
 11.0011
 10.8412
 11.0313
 11.1042
 12.8032
 12.6948
 12.6677
 12.8177
 11.8171
 11.7188
 11.6992
 11.8854
 14.7621
 14.6644
 14.7475
 14.7936
 14.3173
 14.1776
 14.36
 14.2192
 12.7816
 12.9034
 12.6687
 12.8245
 13.8279
 13.7062
 13.6734
 13.8378
 14.7381
 14.6994
 14.6612
 14.568
 13.3627
 13.3091
 13.2394
 13.1782
 12.1434
 12.1243
 12.2092
 12.8905
 12.7641
 12.8505
 12.7815
 16.743
 16.657
 16.6009
 16.6602
 15.0107
 15.0135
 14.9904
 15.0036
 13.9099
 13.9121
 13.9218
 13.8092
 15.801
 15.7128
 15.8388
 15.7665
 10.9245
 10.93
 11.0422
 10.1123
 10.2253
 10.3558
 10.2423
 11.5762
 11.3493
 11.4359
 11.4335
 12.9393
 12.1901
 12.0295
 11.985
 12.098
 13.1122
 13.0208
 13.1693
 13.1743
 14.7824
 14.8784
 14.8263
 14.2491
 14.2212
 14.1878
 14.3393
 16.7285
 16.8199
 16.7398
 16.8531
 15.6218
 15.6254
 15.5894
 15.5994
 13.9618
 13.9629
 13.8937
 13.8283
 9.98018
 10.1893
 10.1182
 10.1404
 16.4906
 16.4736
 16.3912
 16.4102
 11.9547
 11.8292
 12.036
 11.8948
 12.9431
 12.9321
 12.82
 12.923
 14.1927
 14.3823
 14.3707
 13.2298
 13.3585
 13.3762
 13.368
 10.2356
 10.1809
 10.1449
 14.71
 14.5478
 14.5255
 13.5754
 13.5396
 13.4089
 13.4355
 13.9781
 14.0087
 14.0408
 14.0646
 13.8809
 13.9037
 13.775
 13.7512
 14.9267
 14.9914
 14.9826
 14.8753
 13.2777
 13.1958
 13.3139
 13.1927
 10.3767
 10.587
 10.5825
 10.6885
 10.9036
 10.9385
 10.9428
 10.8278
 15.1258
 15.1052
 15.0991
 15.1194
 11.0797
 11.0201
 11.0312
 11.1896
 10.5831
 10.3939
 10.4454
 10.621
 11.0604
 11.0733
 11.2281
 11.2123
 12.3387
 12.3579
 12.2567
 12.309
 13.0655
 13.1525
 13.0275
 13.9527
 14.1195
 14.0722
 14.0345
 11.6404
 11.7265
 11.7995
 11.6214
 11.6349
 11.5687
 11.5056
 11.5454
 9.49493
 9.49463
 9.72621
 9.58594
 15.7107
 15.6434
 15.6623
 15.6457
 15.3212
 15.3708
 15.3466
 15.2745
 14.8825
 14.9096
 14.7795
 14.9148
 13.8425
 13.9992
 13.8927
 13.9026
 13.7542
 13.7415
 13.7454
 10.5167
 10.4232
 10.2854
 10.3696
 11.5052
 11.567
 11.6393
 11.6315
 13.2974
 13.3834
 13.4206
 13.3535
 10.8212
 10.7379
 12.6333
 12.6333
 12.6387
 12.7495
 10.9585
 10.8965
 10.7214
 10.8575
 12.8136
 12.6557
 12.8452
 12.6416
 13.984
 13.9173
 14.0784
 14.0267
 15.2489
 15.3158
 15.2589
 15.1768
 16.8164
 16.7243
 16.8503
 16.7763
 11.0928
 11.141
 11.1618
 11.0682
 10.574
 10.5558
 10.5444
 10.4504
 13.5512
 13.6876
 13.6055
 13.6766
 13.03
 13.0945
 13.1137
 13.0278
 14.4133
 14.5191
 14.3402
 12.3686
 12.4669
 12.453
 12.5039
 14.4602
 14.4818
 14.4049
 14.41
 13.2077
 13.3169
 13.4119
 13.338
 12.2623
 12.3278
 12.2967
 12.2428
 12.8879
 12.9272
 12.975
 10.9895
 11.1202
 11.0782
 11.0811
 12.3632
 12.2136
 15.852
 15.7001
 15.8598
 15.7958
 11.7605
 11.853
 11.7986
 14.2011
 14.1633
 14.1681
 14.1937
 12.4909
 12.5153
 12.5526
 13.0814
 13.1995
 13.0731
 13.1473
 12.4309
 12.5673
 12.3541
 12.4785
 12.3127
 12.1734
 16.3888
 16.388
 16.4578
 16.3838
 16.6311
 16.7366
 16.7762
 16.6803
 12.9952
 13.1351
 13.0786
 13.1403
 12.5531
 12.6283
 12.556
 12.6455
 16.3116
 16.3303
 16.3001
 16.2325
 14.2603
 14.3816
 14.9373
 14.9178
 14.8737
 14.7825
 12.2789
 12.3316
 12.1604
 12.2564
 12.6263
 12.5806
 12.4704
 12.675
 12.3741
 12.5173
 12.5512
 12.5135
 14.0042
 14.0005
 13.892
 14.0048
 14.6522
 14.6625
 14.7677
 14.6379
 15.4114
 15.3033
 15.3121
 15.4022
 14.6406
 14.6495
 14.6459
 14.479
 11.6892
 11.794
 11.6691
 11.7523
 12.9939
 13.2699
 13.1345
 15.777
 15.7202
 15.6504
 12.102
 11.9015
 12.0119
 12.0195
 11.9445
 12.1865
 12.059
 12.0192
 13.494
 13.5716
 13.6126
 13.3804
 13.3414
 13.2331
 13.3297
 14.7083
 14.7751
 14.8016
 14.8017
 11.3551
 11.4024
 11.2975
 11.3578
 14.9536
 14.979
 14.9711
 14.9264
 14.9802
 15.0433
 14.987
 10.0504
 9.86586
 9.77607
 9.92015
 11.1338
 11.0428
 14.1753
 14.2214
 14.1165
 14.1549
 13.1098
 12.9803
 13.1125
 13.3336
 13.3983
 13.3663
 13.4723
 14.7301
 14.6451
 14.6878
 11.4777
 11.3931
 11.5758
 11.5163
 14.7176
 14.5749
 14.6746
 14.6956
 11.9219
 12.0418
 12.0857
 12.0206
 14.9096
 14.8535
 14.6023
 14.7212
 14.6304
 14.6835
 14.2509
 14.3061
 14.2787
 14.2411
 15.6147
 15.6455
 15.7393
 15.677
 11.6871
 11.5409
 13.9288
 13.8589
 13.8473
 13.8574
 10.2301
 10.2929
 10.2505
 10.1967
 13.9534
 14.0101
 13.8643
 13.7837
 11.4419
 11.3045
 11.2621
 11.2528
 10.7024
 10.5477
 10.7992
 10.5807
 11.9357
 12.0723
 10.7109
 10.5866
 10.63
 10.6699
 14.7086
 14.7281
 14.7268
 14.6273
 10.7624
 10.7068
 10.6885
 10.772
 10.0588
 9.87684
 9.89414
 10.0243
 12.5211
 12.513
 12.3993
 12.4344
 13.2324
 13.2793
 13.1447
 13.0878
 10.8129
 10.9906
 10.8834
 10.8054
 15.7437
 15.6309
 15.6924
 15.772
 10.8871
 10.6958
 13.9025
 13.8273
 13.8129
 13.7091
 11.0391
 11.0901
 11.2281
 11.2109
 14.6901
 14.5867
 14.6049
 14.6092
 13.6416
 13.8091
 13.7516
 13.6632
 14.4437
 14.4775
 14.3452
 14.6972
 14.7582
 14.696
 14.8002
 14.932
 14.8377
 14.8649
 14.8185
 12.5243
 12.6032
 12.6423
 11.1804
 11.1632
 11.0421
 11.0676
 12.872
 12.9371
 12.975
 14.6903
 14.7707
 14.7152
 13.0594
 12.8789
 13.0332
 12.9304
 12.4194
 12.4486
 12.4032
 12.2584
 13.4025
 13.2676
 13.2489
 13.3009
 13.5933
 13.6545
 13.6832
 13.744
 13.807
 13.8181
 13.6031
 13.5486
 13.4721
 13.6642
 11.0916
 11.172
 11.1066
 11.2092
 11.9661
 12.0546
 11.9812
 11.925
 13.3687
 13.3148
 13.3726
 13.2014
 14.6757
 14.7508
 14.6967
 12.8565
 12.9327
 12.8538
 12.8391
 14.0752
 14.2186
 14.1692
 14.2322
 16.1111
 16.0855
 16.1343
 16.1643
 13.7675
 13.8279
 13.7979
 13.8073
 10.9672
 10.9904
 10.8619
 10.9101
 13.7917
 13.6492
 13.7261
 13.7952
 14.8626
 14.8695
 14.8224
 14.7821
 14.7078
 14.7682
 14.7606
 13.295
 13.273
 13.2977
 12.3452
 13.8545
 14.0259
 13.9222
 13.927
 10.7457
 10.7789
 10.6896
 11.0035
 10.9732
 10.9077
 13.8294
 13.7133
 13.7985
 13.7292
 9.95118
 9.89662
 9.85444
 9.83773
 14.6506
 12.6819
 12.7894
 12.7029
 12.7407
 14.575
 14.5302
 14.5461
 14.5206
 10.7685
 10.7019
 10.9046
 10.7742
 12.1275
 11.9359
 12.0158
 12.0843
 11.5959
 11.5205
 11.6738
 11.6449
 14.9298
 14.8933
 14.8445
 14.9284
 14.089
 13.9921
 14.097
 14.0962
 12.8795
 12.951
 12.8374
 12.959
 13.9135
 14.035
 13.8643
 13.9856
 12.2179
 12.1713
 12.0512
 12.0806
 14.5756
 14.6263
 14.5178
 14.5179
 14.137
 14.0729
 13.9815
 14.0452
 12.5803
 12.5673
 12.5914
 12.4322
 10.6139
 10.4451
 10.5429
 10.4474
 14.8685
 14.8548
 14.7542
 14.804
 15.5345
 15.6517
 15.527
 15.537
 10.7024
 10.5922
 10.6406
 10.586
 15.5158
 15.6056
 15.3612
 15.4047
 15.4168
 15.3194
 13.0914
 13.0199
 13.1287
 13.2125
 14.0901
 14.0226
 14.0243
 14.1362
 9.58667
 9.51829
 9.53467
 9.63939
 10.8169
 10.8294
 10.653
 12.1327
 12.144
 12.0379
 12.1891
 14.7544
 14.723
 14.8314
 14.6899
 14.1707
 14.1908
 14.2305
 14.2791
 14.2101
 14.1292
 12.1397
 11.9389
 12.0019
 12.0814
 12.3297
 12.324
 12.4363
 12.2992
 11.9509
 11.9604
 12.0926
 11.9539
 10.1282
 10.0986
 10.359
 10.0464
 11.6765
 11.6666
 11.7987
 13.6948
 12.8547
 12.8797
 12.84
 12.9374
 12.8034
 12.9362
 12.8992
 12.8761
 11.3012
 11.3791
 11.3851
 11.4573
 11.7097
 11.7869
 11.7851
 11.658
 12.5758
 12.6869
 12.6826
 13.9011
 13.9623
 13.8616
 14.0396
 12.9014
 12.7005
 12.825
 12.7909
 13.8071
 13.7383
 13.865
 16.4327
 16.4329
 16.4903
 16.3883
 11.1953
 10.9877
 11.0665
 11.0956
 11.2775
 11.0523
 11.1755
 16.3757
 12.7763
 12.7438
 12.7918
 12.6367
 12.615
 12.5843
 15.3716
 15.3456
 15.3566
 15.3221
 14.8526
 14.8196
 14.7261
 14.8682
 14.3002
 14.239
 14.2446
 14.3705
 14.4867
 14.4351
 14.3618
 14.4829
 14.4967
 14.4019
 13.6345
 13.714
 13.7472
 13.7658
 13.5531
 13.4392
 9.38133
 9.3745
 14.6646
 14.4941
 14.6672
 14.5619
 13.3462
 13.3813
 13.3101
 13.4376
 14.9164
 14.8906
 15.0596
 15.002
 11.064
 10.9802
 11.2098
 11.1181
 11.2739
 11.3845
 11.2787
 11.3952
 12.241
 12.1552
 12.1346
 12.1939
 12.9281
 12.8883
 12.7158
 12.7977
 12.9994
 13.0725
 14.6852
 11.8549
 11.7161
 11.7505
 11.7182
 10.1842
 10.2077
 10.0006
 10.25
 11.1839
 11.0394
 11.2123
 11.1535
 17.2153
 17.2149
 17.2003
 17.1703
 10.3372
 10.3125
 10.3787
 10.3707
 14.3525
 14.3486
 14.4548
 14.2911
 13.9057
 14.0313
 13.981
 14.0712
 12.0741
 12.0573
 11.9854
 11.9655
 12.0735
 12.1002
 12.1683
 12.1376
 14.7166
 14.5407
 14.63
 14.5895
 10.5402
 10.4743
 10.5547
 10.5342
 11.0389
 10.952
 10.9943
 10.9088
 11.8213
 11.7957
 11.7037
 11.7029
 10.7994
 10.8981
 10.8565
 10.7974
 14.0978
 13.986
 13.9873
 13.9411
 14.7222
 14.6938
 14.6683
 14.6281
 11.1465
 11.2587
 11.297
 11.2646
 13.4568
 13.4605
 13.5099
 13.6096
 13.2546
 13.3111
 13.3344
 13.2628
 16.6709
 16.6286
 16.5741
 16.6234
 10.3947
 10.3639
 10.752
 10.7217
 10.8478
 10.6509
 15.1134
 15.2179
 15.2521
 15.0916
 14.0781
 14.2218
 14.2209
 14.2771
 10.9862
 11.0788
 10.9336
 10.8935
 13.6829
 13.644
 13.7115
 13.5906
 13.7663
 13.7304
 13.862
 13.8519
 10.1999
 10.1682
 10.2475
 10.2963
 12.9128
 12.9421
 12.9041
 12.8548
 13.1876
 13.1466
 13.18
 13.2605
 11.6091
 11.5359
 11.4959
 11.5588
 12.2128
 12.2464
 12.2887
 12.3605
 13.593
 13.5723
 13.7231
 14.0729
 13.9822
 14.0431
 13.8867
 15.3101
 15.3392
 15.3667
 15.2098
 13.8817
 13.8103
 13.7887
 13.7669
 13.0384
 13.1125
 13.0474
 13.1431
 10.0546
 10.0113
 10.0347
 10.2086
 13.8918
 13.6904
 13.7979
 13.7974
 15.0309
 15.0286
 15.1066
 15.1594
 11.877
 11.7642
 11.8216
 11.9189
 12.4251
 12.4396
 12.5026
 12.9485
 12.7757
 12.7654
 12.7188
 15.373
 15.3703
 15.3644
 15.2906
 12.762
 12.8769
 12.8264
 12.9275
 10.6472
 10.6313
 10.6314
 10.6086
 12.8938
 12.8749
 12.8604
 12.7936
 14.9595
 15.0266
 14.9858
 14.9461
 14.5631
 14.4908
 14.5775
 14.6631
 9.28262
 9.32955
 9.2646
 9.25747
 14.126
 14.1025
 14.1192
 14.2602
 12.4778
 12.6739
 12.614
 12.5709
 9.4834
 9.46779
 9.57663
 9.57392
 10.7656
 10.5868
 10.6763
 11.8779
 11.8906
 11.7439
 11.7021
 10.9939
 10.9957
 10.8165
 11.0425
 16.2072
 16.1445
 16.079
 16.1031
 14.4346
 14.3225
 14.4747
 10.3376
 10.1787
 10.2076
 10.1952
 12.5433
 12.5735
 12.4449
 12.6122
 11.5025
 11.5319
 11.3757
 11.6134
 14.8199
 14.8314
 14.9179
 14.9689
 13.7145
 13.5904
 13.7381
 13.6391
 12.1842
 12.3783
 12.3205
 15.2943
 15.2539
 15.1967
 15.2058
 14.6169
 14.7506
 14.6849
 14.7254
 13.8045
 10.3126
 10.24
 10.2826
 10.1807
 16.0131
 16.0109
 16.089
 16.0969
 11.6216
 11.4158
 11.5219
 11.3882
 12.3864
 12.475
 12.4228
 12.5555
 16.5009
 11.2436
 11.3508
 11.184
 10.3935
 10.2182
 10.3236
 10.3038
 13.3449
 13.3069
 13.1346
 13.2672
 12.2614
 12.2682
 12.1665
 12.3372
 14.3815
 14.4914
 13.1185
 13.1764
 13.1693
 13.0411
 14.3922
 14.4576
 14.5129
 14.4197
 13.9769
 14.028
 13.8658
 13.8706
 11.9631
 12.0456
 11.9585
 11.9179
 15.6738
 15.6775
 15.6766
 15.5627
 14.7499
 14.8148
 14.7688
 14.8481
 15.5154
 15.4301
 15.0552
 15.0596
 15.045
 15.0485
 15.1565
 15.2284
 15.1099
 15.2088
 10.2476
 10.3092
 10.4293
 10.4309
 12.573
 12.5691
 12.6214
 12.4369
 13.7131
 13.5585
 13.6598
 13.6456
 12.8529
 12.8976
 12.9262
 12.8132
 10.1849
 10.1994
 15.3425
 15.3975
 15.3852
 15.3391
 10.2057
 10.1638
 10.2723
 15.8909
 15.9298
 15.8936
 15.9456
 10.5093
 10.648
 10.5429
 10.647
 13.8751
 13.9598
 13.8396
 13.9598
 13.417
 13.3891
 13.4482
 10.2307
 10.3083
 10.2854
 10.2063
 12.6835
 12.7965
 12.6607
 12.767
 13.3247
 13.2701
 13.1587
 13.2711
 13.8249
 13.8893
 13.5669
 13.7652
 13.6143
 13.6977
 12.4213
 12.5508
 12.4917
 10.0862
 10.2997
 10.3206
 10.1638
 13.4785
 13.3994
 13.4887
 13.463
 13.665
 13.7282
 14.0756
 14.1942
 14.2212
 14.1263
 15.8163
 15.8012
 15.714
 12.7515
 12.7251
 12.8798
 12.8855
 10.3508
 10.3433
 10.3263
 15.4957
 15.5697
 15.4941
 13.39
 13.4798
 13.4188
 13.5276
 12.1133
 12.1178
 12.2656
 12.2138
 16.1174
 16.1517
 16.1243
 16.1107
 11.0926
 11.0553
 11.1387
 11.1567
 12.0349
 12.1357
 12.118
 12.1564
 11.1564
 11.1155
 11.2048
 10.359
 10.3318
 10.1257
 10.245
 12.9896
 13.1284
 13.0046
 12.9938
 10.699
 10.7329
 10.7862
 10.8046
 13.9113
 13.9517
 13.8758
 14.0023
 10.1524
 12.3564
 13.1807
 13.2375
 13.1281
 13.273
 12.4017
 12.4279
 12.5405
 12.557
 11.7388
 11.7018
 11.7787
 11.8958
 12.4137
 12.4719
 12.3281
 12.3878
 11.5031
 11.5888
 11.4717
 11.4931
 13.1714
 13.2441
 13.1901
 13.0927
 13.3196
 13.2752
 13.2546
 13.2038
 13.6995
 13.7229
 13.7667
 13.6256
 13.2128
 13.2182
 13.3231
 14.8687
 14.8463
 14.8698
 14.7884
 13.0919
 12.1387
 11.9677
 11.9573
 12.0583
 10.4129
 10.4025
 10.5647
 13.9868
 14.1491
 14.0783
 14.129
 12.9132
 12.764
 12.8009
 12.3439
 12.3517
 12.4522
 12.4558
 12.0892
 12.0496
 11.922
 11.8938
 10.8951
 10.8239
 10.7405
 10.8482
 14.4491
 14.4728
 14.4004
 14.5685
 12.7856
 12.8726
 12.9027
 12.9384
 13.2432
 13.3193
 13.3908
 13.2654
 13.3826
 13.464
 13.4741
 13.5534
 13.1447
 13.193
 13.1237
 13.2493
 11.6998
 11.9123
 11.6683
 11.8147
 13.3493
 13.5378
 13.4663
 13.4467
 15.3716
 15.3687
 15.3725
 15.3306
 15.4286
 15.3586
 15.3693
 13.1339
 13.1161
 13.0118
 13.0003
 13.078
 13.0155
 12.9775
 12.9448
 13.2455
 13.3472
 13.1796
 13.1783
 10.5143
 10.5021
 10.6727
 10.6531
 11.6952
 11.8257
 11.8269
 11.6832
 14.1793
 14.1112
 14.1249
 14.0965
 14.7612
 14.6458
 14.6607
 14.8073
 11.0302
 11.059
 11.1381
 11.0226
 15.9796
 16.0326
 16.0122
 15.9209
 13.7785
 13.6651
 13.7298
 13.7442
 15.0128
 14.9407
 14.9519
 14.5044
 14.4329
 14.4238
 14.3473
 11.9299
 11.9746
 11.8732
 12.0637
 14.427
 14.5857
 14.5232
 14.4848
 15.3557
 15.1573
 15.2915
 16.105
 16.0165
 15.9624
 15.9941
 10.0323
 9.98483
 9.90431
 9.79333
 14.3507
 14.423
 14.3616
 14.3228
 12.5296
 12.6992
 12.6705
 12.559
 10.6553
 10.7527
 10.858
 10.7681
 11.3956
 11.2174
 11.4566
 11.3469
 14.2457
 14.2309
 14.3035
 14.2555
 15.0716
 15.1764
 15.2612
 15.1509
 12.822
 12.7446
 12.8654
 12.7971
 15.0346
 14.8982
 13.5768
 13.7471
 13.716
 13.6224
 13.419
 13.4289
 13.497
 13.382
 13.5557
 13.5449
 13.6036
 14.8209
 14.7827
 14.8202
 12.4626
 12.4592
 12.4209
 12.3822
 12.6788
 12.6932
 12.7871
 12.58
 14.238
 14.1083
 14.1649
 14.2278
 11.6499
 11.5046
 11.7007
 11.6321
 13.1693
 13.3163
 13.2369
 13.1216
 14.9733
 14.9743
 14.9981
 14.9777
 13.8275
 13.754
 13.8266
 12.633
 12.6333
 12.7454
 12.641
 13.0423
 12.9758
 12.8937
 10.0328
 10.1017
 10.1275
 10.1651
 15.5535
 15.5986
 15.5445
 15.6782
 13.9613
 13.8407
 13.8598
 13.9316
 14.0096
 14.0372
 14.1325
 14.008
 9.89879
 9.95236
 9.78609
 9.67219
 11.6022
 11.529
 11.5426
 14.3954
 14.4259
 14.4649
 14.4155
 11.3733
 11.5282
 11.4617
 14.3445
 14.3395
 14.4195
 14.3959
 16.7994
 16.7375
 16.7944
 16.7411
 10.6893
 10.6378
 10.5458
 10.7148
 14.8024
 14.8337
 14.8819
 14.9747
 10.2666
 10.3199
 10.3413
 10.3027
 14.5434
 14.4105
 14.5091
 14.4585
 16.7702
 16.8752
 16.7839
 16.7873
 15.2503
 15.3619
 15.2721
 15.2133
 14.7682
 14.684
 14.6171
 14.7862
 13.1408
 13.3137
 14.7723
 14.7554
 14.9184
 14.8937
 12.5178
 12.5785
 12.6199
 12.6881
 13.2944
 13.2921
 13.3655
 13.2051
 10.7559
 10.9259
 10.6391
 10.6112
 11.0385
 11.1211
 11.0266
 10.9672
 11.34
 11.4189
 11.3527
 11.465
 10.9594
 10.9335
 10.9001
 10.9913
 12.0595
 12.1024
 11.9803
 12.0763
 11.2815
 11.1388
 11.1829
 11.2506
 15.4518
 15.5798
 15.5976
 15.4371
 10.8107
 10.7331
 10.7682
 10.789
 13.6351
 13.7266
 13.7763
 13.7265
 11.5868
 11.7967
 11.7333
 11.02
 10.8929
 10.9056
 10.9592
 14.7467
 14.8639
 14.8756
 14.8324
 15.3029
 15.3399
 15.3947
 15.3645
 11.8118
 11.8369
 11.9141
 11.7148
 13.4442
 13.462
 13.4931
 13.5573
 12.0938
 12.187
 12.1019
 12.1145
 12.1098
 12.109
 11.8765
 13.7587
 13.7922
 13.8903
 12.1637
 12.1209
 12.8271
 12.9889
 10.0821
 10.0029
 10.0038
 10.0712
 12.9371
 12.8812
 12.9474
 12.813
 12.1534
 12.2197
 12.0545
 12.2143
 12.6563
 12.5853
 12.6369
 12.5301
 11.3126
 11.3583
 11.2902
 11.3714
 11.3834
 13.499
 13.4871
 13.6036
 13.6082
 14.995
 14.9949
 14.9926
 14.9824
 12.1207
 12.2521
 12.1207
 12.1973
 12.0975
 12.1837
 12.2113
 12.0775
 16.5737
 16.5167
 16.4811
 16.4107
 13.1337
 13.0347
 13.0844
 13.1552
 13.1725
 13.2755
 13.3171
 13.2147
 12.2549
 12.3479
 14.8007
 14.7706
 14.7234
 14.7862
 13.9942
 13.9284
 13.97
 14.0371
 14.6277
 14.6761
 14.7198
 14.7087
 14.1132
 14.0341
 14.0505
 14.1322
 14.5805
 14.5889
 14.6384
 14.565
 11.5865
 11.6395
 11.5889
 11.5064
 10.7989
 10.806
 10.9416
 10.856
 14.2926
 14.3401
 14.4034
 14.2817
 13.1457
 13.2604
 13.1608
 13.1973
 11.3383
 11.4993
 11.3886
 11.4652
 13.6218
 13.6737
 13.6861
 13.5516
 14.3003
 14.224
 15.1901
 15.1434
 15.1158
 15.1995
 13.3955
 13.4346
 13.4865
 13.5419
 11.2193
 11.2833
 11.2835
 11.1233
 10.4472
 10.5398
 10.5124
 10.425
 16.3045
 16.296
 13.5811
 13.4871
 13.443
 13.4226
 13.7483
 13.9118
 13.8066
 13.8033
 13.9019
 13.9424
 14.5214
 14.4588
 14.4795
 14.4193
 13.3198
 13.21
 13.1661
 15.4243
 15.3606
 15.355
 15.3037
 10.9297
 10.8265
 11.0163
 10.916
 10.5741
 10.5775
 10.5692
 9.95169
 10.0697
 10.1816
 10.0833
 12.7355
 12.5496
 12.6266
 12.5962
 13.1503
 13.0067
 13.2124
 13.0845
 11.5774
 11.3874
 11.3153
 11.4335
 12.2246
 12.2354
 12.1184
 12.2268
 12.4677
 12.3516
 12.4084
 12.9676
 12.9447
 13.0113
 12.8682
 11.9188
 11.6872
 11.7677
 11.8944
 13.5572
 13.6041
 13.5381
 13.5223
 13.0468
 13.0797
 12.954
 13.1229
 12.241
 12.2691
 12.3279
 12.2043
 13.1446
 13.2338
 13.2694
 13.1346
 16.7335
 16.7616
 16.6733
 16.6742
 14.4625
 14.5074
 14.5033
 14.5814
 11.9287
 11.9217
 11.7898
 11.7747
 14.4532
 14.4274
 14.5563
 14.5977
 14.7552
 14.8956
 14.7504
 14.6638
 11.0739
 11.0901
 10.9994
 11.1777
 11.1979
 11.3334
 11.209
 11.2373
 10.7644
 10.8867
 10.7514
 10.7325
 11.5955
 11.6036
 11.486
 11.5294
 13.6709
 13.6796
 13.762
 13.6785
 14.4595
 14.4974
 14.4095
 14.5134
 12.1093
 12.2973
 12.1033
 12.2498
 14.4064
 14.3734
 14.3581
 14.365
 15.1828
 15.1553
 15.1268
 15.0726
 13.2798
 13.1879
 13.2596
 13.1687
 13.8856
 13.9569
 14.0408
 13.7863
 13.7549
 13.6169
 13.7352
 15.0564
 15.1161
 15.2097
 15.1214
 14.3189
 14.3348
 14.3853
 14.3516
 12.0429
 11.963
 12.0293
 11.9653
 13.0099
 12.9057
 12.8901
 9.96582
 10.1046
 10.0968
 10.006
 10.5075
 10.3895
 10.297
 10.428
 13.919
 13.8376
 13.9639
 13.8372
 12.7061
 12.6159
 14.8524
 14.858
 14.9672
 14.8168
 12.9743
 13.0753
 13.1432
 13.0516
 10.7042
 10.6676
 10.7989
 10.6898
 14.4147
 14.3934
 14.3472
 13.6033
 13.5903
 13.5571
 13.7
 13.8429
 13.682
 13.7109
 13.7507
 13.2152
 13.0923
 13.0802
 13.2449
 13.2927
 13.2263
 13.1464
 13.2421
 12.9137
 12.8374
 12.9226
 12.8145
 13.4167
 13.3334
 11.4848
 11.5384
 11.3263
 11.5
 13.3164
 13.4314
 13.3905
 13.3193
 12.4383
 12.6219
 12.5583
 13.3675
 13.2577
 13.3263
 13.2645
 12.5297
 12.589
 12.6509
 12.5587
 14.482
 14.5905
 14.508
 14.6425
 13.5308
 13.5503
 13.4244
 12.7342
 12.7252
 12.5664
 12.8054
 13.3443
 13.3593
 13.2775
 14.6326
 14.5943
 14.6965
 12.3674
 12.3795
 12.378
 12.5112
 13.1299
 13.0439
 13.0333
 16.3357
 16.3114
 16.2678
 16.423
 12.241
 12.3262
 12.385
 12.2345
 13.7929
 13.9315
 13.9154
 13.9422
 11.4143
 11.421
 11.3754
 11.2786
 11.1826
 11.2698
 11.1181
 11.1393
 14.7135
 14.5726
 14.7402
 14.7155
 12.8388
 12.9322
 12.9872
 14.0509
 14.171
 14.092
 14.0921
 10.9461
 11.1463
 11.0407
 13.0966
 13.0011
 13.0707
 12.954
 12.1063
 12.0589
 12.0588
 12.0768
 10.8132
 10.7442
 10.7241
 10.8301
 17.0646
 17.1407
 17.1204
 17.0641
 14.212
 14.1934
 14.1262
 14.2191
 12.8054
 12.6028
 12.6781
 12.6331
 15.1818
 15.2677
 15.2816
 13.1126
 13.0078
 13.0453
 13.1342
 10.5115
 12.2486
 12.3256
 12.484
 12.359
 11.2734
 11.2774
 11.2417
 11.1933
 11.6362
 11.7067
 11.7291
 11.6489
 12.8033
 12.8492
 12.9778
 13.1181
 13.1238
 13.1077
 16.1082
 16.0223
 16.1007
 16.0457
 14.0296
 14.078
 14.1221
 14.1895
 14.1726
 14.093
 14.1676
 10.5694
 10.3022
 10.5775
 10.5812
 13.2219
 13.2336
 13.0907
 13.1047
 12.7271
 12.7773
 12.8712
 12.7906
 11.0712
 11.1481
 11.0086
 11.1566
 13.0566
 13.0849
 12.9621
 13.0846
 15.4982
 15.4543
 15.5498
 15.5172
 13.3471
 13.3902
 13.3262
 13.3711
 14.241
 14.2384
 14.2215
 14.1484
 14.4592
 14.5412
 14.5181
 14.478
 15.0715
 15.0348
 15.0765
 15.0742
 15.6792
 15.7249
 15.7427
 15.6185
 9.88795
 10.0258
 9.96348
 9.99994
 15.9454
 15.9088
 15.9945
 15.8465
 13.2346
 13.3051
 13.2232
 13.3337
 10.0566
 10.0878
 10.167
 10.1545
 13.7033
 13.7168
 13.6519
 13.6084
 15.0036
 10.8096
 10.89
 10.8616
 10.7343
 14.5371
 15.5434
 15.4301
 15.4079
 15.5098
 12.6347
 12.4942
 11.5646
 11.7247
 11.5573
 11.7082
 11.1152
 11.1365
 11.0472
 11.0616
 9.81481
 9.96028
 9.81528
 11.5405
 11.3907
 11.3935
 11.3986
 13.6065
 10.3204
 12.1273
 12.1785
 12.2165
 10.5875
 10.4872
 10.463
 10.5218
 13.664
 13.6625
 13.6748
 13.745
 14.1937
 14.1686
 14.2369
 14.2948
 12.1371
 12.2216
 12.1891
 12.012
 10.443
 10.3213
 10.4716
 10.4655
 10.9865
 11.0243
 10.9423
 11.0336
 12.4443
 12.2597
 12.2819
 15.6781
 15.7376
 15.5566
 15.6709
 16.9831
 16.8877
 16.94
 16.8873
 15.0215
 15.1502
 15.1602
 15.0943
 12.8618
 12.7614
 12.8876
 15.3988
 15.303
 15.3415
 15.4233
 11.3197
 11.3584
 11.2083
 11.4584
 11.4202
 11.5094
 11.4565
 14.4731
 14.5181
 11.9825
 11.8484
 9.49481
 9.61303
 9.46892
 9.97154
 9.92818
 9.94739
 9.87414
 13.4318
 13.5358
 13.3694
 13.4505
 14.0618
 14.0844
 14.1385
 14.0158
 13.3273
 13.3345
 13.2219
 13.2337
 10.3178
 10.3255
 10.2944
 10.3308
 12.0315
 11.9785
 12.0182
 12.0962
 15.0495
 15.0542
 15.0508
 14.9649
 11.9562
 11.9224
 12.0124
 11.8694
 12.7844
 12.7538
 12.8598
 12.7316
 12.1701
 12.0747
 12.094
 17.2604
 17.2343
 17.2214
 14.035
 14.0935
 13.6454
 13.6425
 13.7453
 13.5912
 11.7483
 11.6189
 11.7039
 11.7447
 11.9499
 11.8904
 11.7384
 11.8812
 11.8681
 11.9356
 11.7326
 16.2149
 16.2228
 15.1319
 15.1427
 15.0803
 15.1231
 12.7532
 16.2937
 16.3837
 16.3449
 16.339
 14.2728
 14.1434
 14.2497
 14.2644
 13.5339
 13.5814
 15.6516
 15.4861
 15.5004
 15.5848
 9.8667
 9.70205
 9.78098
 9.83387
 10.3766
 10.3434
 10.4103
 10.2178
 14.6354
 14.4495
 14.5836
 14.4847
 14.0615
 14.1278
 13.9161
 13.9668
 14.0393
 14.1095
 14.0416
 11.7863
 11.7221
 11.8873
 11.7813
 14.998
 14.9355
 14.8877
 14.8698
 13.2245
 13.1653
 13.2422
 12.4243
 12.4072
 12.3437
 12.2543
 14.1023
 14.0827
 14.005
 14.0574
 14.4147
 14.3049
 14.243
 14.3557
 14.4647
 14.5425
 14.5233
 14.436
 13.6976
 13.6437
 13.5645
 13.6605
 12.2603
 12.3517
 14.2487
 14.2234
 14.1881
 14.2825
 9.86669
 10.0949
 10.0687
 10.0535
 14.6078
 14.5513
 14.6074
 14.5375
 15.4123
 15.4397
 15.3215
 15.3837
 12.7197
 12.6746
 15.9278
 15.8961
 15.9935
 15.8734
 13.8581
 13.8002
 13.9083
 10.6277
 10.6848
 10.5827
 10.5641
 15.8028
 15.8381
 15.809
 14.4822
 14.4854
 14.3846
 14.4199
 15.5751
 14.5143
 14.5587
 14.5434
 14.6537
 13.0801
 13.1543
 13.0682
 13.0876
 13.5137
 13.488
 13.4263
 13.5216
 10.4396
 10.272
 12.948
 12.8914
 12.9183
 12.9506
 14.5568
 14.6807
 14.5394
 14.688
 13.9849
 13.7585
 13.8752
 13.9814
 10.8183
 10.9244
 10.911
 10.9142
 13.5347
 13.4964
 13.3799
 13.4144
 12.7401
 11.1943
 11.1057
 11.2261
 13.9415
 13.9151
 14.0217
 13.8687
 12.0299
 12.0655
 11.9959
 12.1586
 13.7485
 13.8219
 13.8278
 13.6967
 10.4184
 10.5713
 10.5896
 10.5163
 9.5225
 9.44416
 9.57102
 14.4815
 14.4012
 14.2992
 14.3746
 12.4918
 12.4213
 12.5707
 12.5227
 12.0408
 12.0073
 11.9203
 11.8631
 14.065
 14.0623
 14.419
 14.4725
 14.5075
 14.3881
 13.7319
 13.5614
 12.5248
 12.4862
 12.545
 12.5883
 12.2842
 12.235
 12.1453
 12.2915
 13.5942
 13.5561
 13.4588
 13.5097
 12.6423
 12.63
 12.6242
 10.9323
 11.0978
 11.1347
 11.0621
 11.5746
 11.6138
 11.5338
 13.6243
 13.4455
 13.6135
 13.5312
 14.3165
 14.447
 14.5132
 14.3724
 12.0454
 12.1816
 12.179
 12.0806
 13.5222
 13.533
 13.6514
 15.0322
 15.0476
 15.0267
 15.046
 14.0899
 14.1057
 14.0527
 14.0136
 11.4945
 11.5002
 11.6105
 9.93983
 10.1052
 10.0939
 12.1609
 12.0997
 12.0952
 14.0971
 14.2003
 14.0586
 14.166
 10.1406
 10.1333
 10.1555
 10.0625
 12.3703
 12.4334
 12.3624
 12.2739
 11.2913
 11.2293
 11.0369
 11.08
 11.4971
 11.435
 11.504
 11.4908
 15.3183
 15.3861
 15.3951
 13.679
 13.6522
 13.7306
 13.6399
 11.3797
 11.3077
 11.4327
 11.4301
 13.3846
 13.3289
 13.3098
 13.1875
 11.9267
 11.9251
 11.9587
 12.0989
 10.591
 10.506
 15.072
 14.9959
 15.0094
 14.9593
 11.7097
 11.779
 11.6144
 11.7451
 13.7185
 13.775
 13.8077
 13.6904
 12.1778
 12.3149
 10.2144
 10.22
 10.3275
 10.1509
 11.2964
 11.1388
 11.3447
 11.0607
 9.99179
 9.99118
 9.87631
 9.78485
 11.8217
 11.8519
 11.78
 12.1433
 11.9778
 12.0163
 12.0541
 11.9481
 12.0448
 12.0086
 12.1384
 14.2648
 14.2342
 14.339
 14.3673
 15.5255
 15.5758
 15.4591
 13.1299
 13.1059
 13.1074
 10.9846
 11.1062
 11.0275
 11.144
 13.5768
 13.5017
 13.4064
 13.4953
 14.6015
 14.7224
 14.6986
 14.5962
 13.101
 13.2162
 13.2712
 13.2758
 13.7646
 13.6145
 13.7541
 10.2447
 10.1856
 10.3551
 10.3453
 14.9594
 14.9201
 14.7385
 14.6783
 14.6686
 11.9684
 11.9203
 12.0436
 11.8489
 13.2527
 13.1379
 13.1204
 13.1922
 14.7602
 14.7417
 14.6536
 14.742
 12.7168
 12.9155
 12.9126
 12.7758
 13.9352
 14.0129
 13.8736
 13.881
 10.8489
 10.8192
 10.6344
 14.091
 14.1153
 14.0174
 14.0266
 12.7704
 12.6872
 14.8029
 14.6726
 14.7073
 14.7826
 14.644
 14.7371
 14.6916
 14.7324
 10.6489
 10.74
 14.4797
 14.3847
 14.4374
 14.5171
 13.0871
 13.2049
 13.1373
 13.0886
 13.7788
 15.433
 15.5188
 15.4918
 12.6877
 12.7029
 12.6605
 12.7698
 10.661
 10.646
 10.7454
 10.5904
 15.2693
 15.2633
 15.2135
 15.3011
 14.6722
 14.5878
 14.6953
 14.6764
 12.0721
 12.0068
 12.0019
 15.1595
 15.1449
 15.0911
 15.0627
 9.92756
 10.0786
 9.97527
 9.90256
 15.0399
 14.9667
 14.9402
 15.0839
 12.2936
 12.4233
 12.3246
 12.1915
 13.7493
 13.6858
 13.7066
 13.7835
 14.7261
 14.6878
 14.7059
 13.8669
 13.7405
 13.8792
 13.7744
 14.8527
 14.9578
 14.8904
 14.8896
 14.5676
 14.637
 14.582
 11.6925
 11.8
 11.66
 11.736
 11.8666
 13.2557
 13.0182
 13.1681
 13.1641
 10.5742
 10.6312
 10.7038
 10.6313
 12.6955
 12.5696
 12.7695
 12.619
 12.236
 12.1436
 12.2367
 12.2763
 14.6978
 14.7449
 14.6283
 14.4513
 14.4796
 12.4429
 12.591
 12.4802
 12.4264
 10.6759
 10.4907
 12.8776
 12.8453
 12.9527
 12.8153
 14.8418
 14.8681
 14.7714
 10.9283
 10.87
 10.9819
 10.9351
 12.9282
 13.0763
 13.0344
 13.0042
 14.7506
 14.8112
 14.7516
 14.7085
 13.2065
 13.2264
 13.0629
 13.1749
 12.3605
 12.1592
 15.2306
 15.2816
 15.253
 15.3142
 14.4828
 14.3191
 14.2363
 14.2956
 14.2101
 14.2348
 14.2492
 14.3747
 14.3269
 14.262
 13.0237
 13.0173
 13.0475
 12.4482
 12.4995
 12.5422
 12.5981
 14.3441
 14.3555
 14.3337
 14.3548
 13.7517
 13.7634
 12.7298
 12.8258
 12.7892
 12.8812
 12.7651
 12.746
 13.2872
 13.1488
 13.135
 13.2489
 15.8764
 15.7701
 15.7899
 15.7351
 12.781
 14.8555
 14.7534
 14.8254
 14.8482
 10.287
 10.1722
 10.3066
 11.8031
 11.8538
 11.9163
 11.7844
 13.2435
 13.1709
 13.2137
 13.3812
 13.0428
 12.9451
 13.0801
 14.5269
 14.4457
 14.4924
 14.5509
 10.7375
 10.6352
 10.886
 10.7042
 12.3711
 12.4105
 12.3022
 12.3349
 10.7696
 10.7318
 10.9222
 10.8224
 14.9217
 14.9038
 15.0037
 14.9979
 14.2901
 14.2092
 11.762
 11.8136
 11.8791
 11.8042
 10.5878
 10.5751
 10.5535
 10.6353
 9.561
 9.50214
 9.60571
 9.44584
 10.7214
 10.8161
 10.6999
 12.3735
 12.2932
 12.4082
 12.3393
 10.9544
 10.9035
 10.8305
 10.8868
 15.0263
 14.9344
 14.86
 14.9543
 11.2544
 11.1787
 11.1465
 12.3955
 12.431
 12.4623
 12.4584
 14.869
 14.9179
 14.8674
 14.9465
 12.0759
 11.9416
 12.0283
 12.0166
 12.6175
 12.5263
 12.4925
 12.5947
 14.1092
 14.0498
 14.0158
 13.9361
 15.0961
 15.0778
 15.2003
 15.1919
 13.4591
 13.422
 13.3284
 13.437
 16.0752
 16.0411
 15.9275
 15.9749
 14.6131
 14.5486
 14.6256
 14.3918
 14.5007
 14.4996
 14.5243
 16.4471
 16.4014
 16.5085
 16.408
 10.9951
 11.0934
 11.0857
 11.432
 11.4177
 11.3115
 11.3389
 14.3088
 14.1478
 14.1983
 15.4987
 15.4805
 15.5266
 15.028
 15.1302
 15.0269
 15.0226
 14.2499
 14.2654
 14.1744
 14.3397
 12.314
 12.164
 12.253
 12.2707
 15.8486
 15.8416
 15.7665
 15.8697
 12.5411
 12.724
 12.7501
 12.604
 11.423
 11.3173
 11.5154
 11.4178
 12.7993
 12.8016
 12.6301
 12.6917
 13.5276
 13.5968
 13.434
 14.7925
 14.8018
 14.7945
 14.7279
 10.7345
 10.6205
 10.5885
 10.6183
 11.2856
 11.2101
 11.2922
 11.3652
 14.1617
 14.077
 14.1303
 14.2114
 10.4042
 10.3334
 10.2734
 10.7011
 10.511
 10.6734
 10.6308
 10.5337
 10.4998
 10.6196
 10.5766
 15.7416
 15.767
 16.4472
 16.4323
 16.4907
 16.37
 12.3722
 12.4243
 12.5042
 13.2059
 13.2889
 13.1137
 13.2581
 13.0585
 12.9363
 12.9769
 13.0431
 17.1842
 13.5763
 12.5082
 12.3959
 11.3559
 11.2738
 11.3203
 11.3093
 15.5081
 13.8256
 13.7255
 13.8282
 9.41103
 9.49748
 9.49363
 9.48936
 13.0046
 13.0913
 13.0085
 12.9128
 10.2463
 10.3354
 10.2649
 10.3719
 13.5134
 13.3913
 13.5934
 13.8221
 13.6985
 13.7734
 11.0527
 10.9958
 11.1556
 11.0389
 12.5698
 12.6209
 12.7043
 12.7729
 14.9999
 15.0753
 14.9282
 14.9607
 11.2808
 11.0669
 11.1484
 10.3432
 10.1425
 10.1413
 10.3352
 11.3487
 11.3722
 11.4861
 11.3498
 14.3183
 14.3367
 14.1601
 14.3461
 14.086
 14.1623
 14.1469
 14.1584
 10.918
 10.8163
 10.8266
 10.8058
 13.5982
 13.6091
 13.7041
 11.653
 11.6296
 11.6894
 11.7539
 14.767
 14.6738
 14.8222
 14.8147
 12.4525
 12.3981
 12.5521
 12.489
 14.8887
 14.8182
 14.8822
 14.8739
 12.8077
 12.7034
 12.796
 12.7587
 11.5065
 11.4764
 11.3618
 11.61
 15.0972
 15.1278
 15.0495
 12.9043
 12.8037
 11.2138
 11.2838
 11.2858
 11.3693
 13.5911
 13.6565
 13.669
 14.9514
 15.047
 15.074
 15.0255
 12.1572
 12.1085
 12.1777
 12.0658
 12.3436
 12.3639
 12.1739
 12.3142
 16.8359
 16.8433
 16.7519
 16.8042
 13.1315
 13.2505
 13.1727
 16.2323
 16.1574
 16.1335
 13.0046
 13.0125
 13.0768
 13.0391
 13.1652
 14.8898
 14.8765
 15.0231
 14.9822
 13.4609
 13.368
 13.3146
 11.3418
 11.3463
 11.3531
 11.403
 13.3024
 13.2458
 13.1874
 13.1895
 13.1985
 13.2435
 13.2699
 9.60237
 9.67959
 9.70456
 9.81285
 14.4022
 14.1981
 14.2497
 14.3194
 15.2244
 15.2187
 15.1762
 15.1871
 13.8547
 13.8956
 13.7208
 13.8358
 11.0286
 10.9521
 10.941
 11.1216
 16.8948
 16.8134
 16.8725
 16.7614
 11.7445
 11.8763
 11.7841
 11.7731
 15.2034
 15.278
 15.2383
 15.2489
 11.252
 11.5226
 11.4628
 11.344
 11.5326
 11.6128
 11.676
 11.5846
 11.7338
 11.6647
 14.3068
 14.3703
 14.3772
 14.3207
 10.7571
 10.7619
 10.7631
 11.6907
 11.8796
 11.7919
 11.6568
 14.481
 14.3678
 14.4422
 14.5475
 13.8446
 13.8902
 13.7502
 17.2695
 17.2679
 17.3017
 17.2686
 13.1592
 13.3268
 13.1653
 10.7931
 10.7007
 10.8029
 10.8418
 11.4123
 11.4997
 10.877
 10.7522
 10.6483
 10.8414
 11.8482
 11.8354
 15.252
 15.205
 15.3355
 15.1421
 11.5749
 11.6081
 11.5898
 11.7389
 12.9824
 12.9123
 13.9527
 13.866
 13.8892
 13.9381
 11.5746
 11.5174
 11.4595
 11.5179
 14.236
 14.4184
 14.4111
 14.2743
 10.8573
 10.8767
 10.7526
 10.5615
 12.5772
 12.5429
 12.6815
 15.4318
 15.4812
 15.4923
 15.4252
 12.3501
 12.3817
 12.4385
 12.5011
 14.388
 14.4872
 14.5226
 14.5632
 14.3076
 14.4281
 14.3446
 16.978
 16.9822
 16.9863
 16.9303
 15.077
 14.9177
 14.8799
 15.0239
 11.3639
 11.4373
 11.3105
 11.4422
 13.2483
 13.2187
 13.3258
 13.7301
 14.7623
 14.7079
 14.7445
 14.6688
 13.705
 13.7911
 13.7162
 13.6784
 11.9857
 11.8172
 11.7946
 11.9472
 14.7838
 14.7832
 14.5994
 15.541
 12.6112
 12.5585
 12.6938
 12.5038
 14.7216
 14.5729
 16.3167
 16.3873
 14.7366
 14.6574
 14.7399
 14.8617
 11.9037
 11.7996
 11.1874
 11.1931
 11.1361
 11.2145
 13.9796
 13.8861
 13.8653
 13.8935
 10.3952
 10.3678
 10.2551
 10.3698
 13.9068
 13.8955
 14.1117
 14.0945
 11.695
 11.6788
 11.736
 11.9012
 14.4826
 14.4769
 14.425
 14.4174
 11.5449
 11.4671
 11.6219
 11.5223
 13.5301
 13.4413
 10.599
 10.6714
 12.1937
 12.1091
 12.2337
 12.0792
 12.1614
 12.2165
 12.2105
 12.0811
 12.8383
 12.9134
 12.8046
 12.7978
 11.5457
 11.7069
 11.5464
 11.4309
 14.5176
 14.6234
 14.5595
 14.5655
 10.6892
 10.746
 10.7676
 10.4886
 10.4506
 10.5852
 10.4947
 14.8431
 14.724
 14.7252
 14.7765
 11.8894
 12.0398
 12.0185
 11.9585
 14.8348
 14.7489
 14.7387
 14.6502
 13.0316
 13.2962
 13.1405
 13.1377
 13.2924
 11.2389
 11.2182
 11.2131
 11.3654
 16.0657
 16.1361
 16.0839
 16.0023
 11.9669
 11.8915
 11.8006
 11.9113
 13.0635
 12.9553
 13.173
 13.0865
 11.9498
 12.04
 12.0568
 12.0598
 12.1864
 9.65273
 9.7445
 9.92883
 9.82873
 11.4801
 11.4774
 11.6712
 11.6176
 16.2763
 16.2253
 16.1572
 16.291
 13.5662
 13.6909
 13.7421
 13.6322
 14.0983
 12.9548
 12.9789
 12.9391
 12.8471
 10.8524
 10.8562
 10.9792
 11.0473
 11.2579
 11.2633
 11.1365
 10.86
 11.1479
 11.008
 11.0694
 16.8543
 16.807
 11.6562
 11.6612
 11.6422
 14.1727
 14.1796
 14.208
 14.0834
 11.7993
 11.8593
 11.7712
 11.8812
 12.8286
 12.1095
 12.2272
 12.1016
 12.1428
 10.4907
 10.7074
 10.6486
 10.5037
 12.1221
 12.0347
 11.8678
 12.092
 13.61
 13.5704
 13.7237
 13.4883
 14.8928
 14.872
 14.9271
 14.8484
 9.84807
 10.0172
 9.80033
 9.86711
 11.8727
 11.929
 11.8179
 11.97
 10.0504
 10.1166
 10.0857
 9.97152
 14.1555
 14.3077
 14.1552
 14.1357
 12.8369
 12.8978
 10.5636
 10.379
 10.5816
 10.4804
 12.8405
 12.8042
 12.8056
 12.6933
 13.2644
 13.1315
 12.9387
 12.8666
 12.8042
 12.9354
 11.1796
 11.2062
 11.2476
 11.112
 13.9163
 14.0517
 14.1131
 13.9924
 15.2858
 15.2028
 15.2684
 15.2668
 15.0092
 15.043
 15.0491
 15.0473
 14.0309
 13.9737
 13.9682
 14.0708
 13.4864
 13.641
 13.5327
 13.4281
 13.6006
 13.5205
 13.468
 13.0557
 13.14
 13.1754
 13.0864
 15.3395
 15.3716
 15.3253
 13.7203
 13.7749
 13.6424
 13.6645
 12.8775
 12.7752
 12.7828
 12.9243
 14.2836
 14.3836
 14.2274
 14.3974
 14.0831
 13.9878
 14.0135
 14.0218
 12.6775
 12.6711
 12.581
 12.4988
 13.2243
 13.3217
 13.2339
 13.2652
 12.0455
 12.0991
 12.0354
 12.0785
 15.0504
 15.0227
 14.9853
 11.3684
 11.4304
 11.2757
 11.4206
 14.2808
 14.1795
 14.2472
 14.3259
 13.5269
 13.5944
 13.6435
 13.4922
 13.2975
 13.1997
 13.1663
 12.4308
 12.4425
 12.3967
 12.3038
 12.1868
 12.1683
 12.0917
 12.2329
 11.9715
 11.9503
 11.8426
 11.1276
 11.0773
 11.0921
 12.2636
 12.3186
 12.4004
 12.3054
 10.9592
 10.8927
 11.0541
 10.7298
 10.7227
 10.7614
 10.8769
 13.2149
 13.4285
 13.3119
 13.3585
 14.0906
 14.1715
 14.075
 14.1646
 14.5828
 11.094
 11.1576
 10.9532
 11.0795
 10.9794
 11.2128
 17.0388
 17.0864
 17.0325
 17.001
 11.6432
 11.7481
 13.4761
 13.605
 13.4689
 10.0358
 9.89099
 12.4139
 12.5929
 12.5423
 12.514
 13.5681
 13.5098
 13.5069
 11.6231
 11.3937
 11.5362
 11.4553
 14.1315
 14.1035
 14.1821
 14.0663
 16.4511
 16.3712
 16.3903
 16.4743
 12.6116
 12.5889
 12.6476
 12.4886
 11.1758
 10.9498
 11.1743
 11.4918
 11.4951
 11.4654
 11.5764
 14.3409
 14.5034
 14.4618
 14.5672
 14.3621
 14.2742
 14.7192
 14.6361
 14.7506
 9.96055
 10.0517
 11.1882
 11.3203
 11.1725
 11.3491
 12.9058
 12.7362
 12.7626
 11.7534
 11.8981
 11.6555
 11.6461
 14.2838
 14.4418
 14.4127
 14.3353
 13.1036
 13.1148
 13.0097
 12.9846
 13.1787
 13.0889
 13.0844
 13.1833
 14.4788
 14.4237
 14.4606
 14.2693
 14.3245
 14.2829
 14.2933
 9.49302
 9.35151
 9.44612
 9.28701
 15.1368
 15.2661
 10.806
 10.7571
 10.7756
 10.8612
 13.5033
 13.3933
 13.4419
 13.4944
 12.8941
 12.8126
 12.8116
 12.8064
 15.0409
 14.9542
 12.9693
 13.0512
 13.056
 13.126
 13.4951
 13.5343
 13.5694
 13.4558
 11.3027
 11.331
 11.3757
 11.3017
 13.2791
 13.2001
 13.1758
 13.3416
 14.2019
 14.1979
 12.4653
 12.463
 12.5285
 12.429
 11.8933
 11.9489
 11.8429
 12.899
 12.7784
 12.8167
 12.7569
 14.6485
 14.595
 14.6742
 14.533
 16.6011
 16.5155
 16.527
 16.6095
 13.2439
 13.3156
 13.2325
 13.0953
 12.7469
 12.5842
 12.7054
 12.742
 13.6166
 13.5541
 13.681
 13.6547
 13.9674
 14.0349
 13.9549
 13.9013
 11.2529
 11.1152
 12.4172
 12.4765
 12.5207
 15.8808
 15.9218
 15.975
 15.8688
 14.4581
 14.5469
 14.3927
 14.5821
 12.9414
 12.8982
 12.9756
 13.0153
 11.277
 11.2227
 11.2209
 13.4373
 13.4796
 13.615
 13.6212
 14.2612
 14.1137
 14.1666
 14.2693
 11.7225
 11.8693
 11.881
 11.7875
 12.4398
 12.4777
 12.5232
 12.5128
 11.33
 11.3067
 11.3156
 11.6091
 11.5877
 11.5947
 11.579
 13.7767
 13.7543
 13.8374
 13.8941
 13.3431
 13.3637
 13.2602
 16.4691
 16.4545
 16.4723
 16.5287
 14.254
 14.2497
 15.2598
 15.3275
 15.2265
 15.1681
 14.5448
 14.956
 10.8722
 14.1519
 14.2688
 14.1778
 14.3211
 9.90051
 12.3857
 12.5005
 12.3855
 12.5424
 14.1913
 14.0754
 14.1361
 13.7425
 13.6504
 13.6482
 11.2896
 11.2746
 11.4494
 11.3004
 11.43
 11.5109
 11.4053
 11.5012
 14.7712
 14.9074
 14.9122
 14.8143
 10.4647
 10.4345
 10.3882
 10.5497
 13.1023
 13.212
 13.2994
 11.445
 11.3424
 11.4133
 12.6849
 12.7965
 12.7547
 12.6644
 14.1465
 14.0861
 14.2246
 14.1781
 12.7392
 12.5632
 12.7205
 14.0326
 14.0004
 13.9928
 14.1173
 13.4779
 13.3196
 11.2745
 11.1962
 11.1634
 11.0511
 10.8512
 10.6843
 10.7748
 10.8214
 14.478
 14.3694
 14.5212
 14.4295
 11.8181
 11.9932
 11.9195
 11.7826
 12.4854
 12.6706
 12.5144
 12.4378
 13.6819
 13.776
 13.6277
 13.6902
 11.012
 11.0678
 11.1152
 11.1791
 13.4367
 13.539
 13.3687
 13.4099
 13.1047
 13.1965
 13.1988
 13.0137
 13.3925
 13.4667
 13.3683
 13.3544
 14.4075
 14.2984
 14.5819
 14.507
 14.4312
 14.5585
 15.4098
 15.5516
 15.456
 15.4189
 12.4163
 12.4223
 12.4289
 12.2988
 12.5393
 12.6651
 12.6532
 10.4927
 10.4614
 10.432
 10.4444
 9.91947
 9.85051
 9.97431
 10.6657
 10.6045
 10.797
 12.7176
 12.5805
 12.4857
 12.6617
 12.0294
 11.9463
 11.8692
 12.0883
 11.3562
 11.2375
 11.3383
 11.2187
 14.0466
 14.1612
 14.1329
 14.0604
 15.2126
 15.1272
 15.0789
 15.0802
 9.96695
 9.95771
 10.0661
 9.81904
 14.2833
 14.324
 14.3706
 14.2594
 12.8292
 12.8301
 12.7675
 12.8605
 9.84079
 9.90259
 10.0704
 9.7489
 12.277
 12.4012
 12.2401
 12.2813
 13.5859
 13.642
 13.5956
 13.6357
 14.2465
 14.3377
 14.3253
 14.9316
 14.8175
 14.8873
 14.9511
 14.6643
 14.7118
 14.6547
 14.7208
 14.5933
 14.67
 14.3449
 14.2819
 14.4665
 11.3958
 11.4718
 11.4953
 11.5136
 10.6843
 10.7836
 10.7458
 10.7684
 12.2091
 12.2449
 12.2339
 12.3952
 13.306
 10.8781
 10.8226
 10.8434
 10.9253
 14.9904
 14.9967
 15.0039
 15.0254
 10.2206
 10.1256
 10.2524
 10.058
 13.7488
 13.85
 13.6841
 11.9489
 14.8667
 14.8729
 14.9455
 14.506
 14.562
 14.6272
 14.4572
 12.9408
 12.9623
 13.1214
 13.0164
 11.7097
 11.7015
 11.8008
 11.6189
 13.3175
 12.0022
 12.0596
 12.0914
 13.2733
 13.3024
 13.2708
 13.1541
 14.0494
 14.0175
 14.1059
 14.1058
 13.7204
 13.8616
 13.7578
 13.7422
 11.9367
 14.3946
 14.3818
 14.3256
 11.4777
 11.5627
 11.4517
 11.529
 11.109
 11.1537
 10.9997
 11.1912
 10.6493
 10.5759
 10.6685
 14.0473
 14.0406
 14.1214
 14.0332
 15.0703
 15.1376
 15.0759
 11.2532
 11.2805
 11.0117
 11.0638
 11.1303
 11.1333
 13.3106
 13.301
 13.2198
 10.19
 10.241
 10.1268
 10.2595
 11.2343
 11.2867
 11.233
 11.1737
 12.3183
 12.3152
 12.2459
 12.2217
 12.8612
 12.8249
 12.8942
 12.9908
 14.2935
 14.3152
 14.3436
 14.2545
 11.0735
 11.0658
 11.1319
 10.9599
 13.9763
 13.9441
 14.0838
 13.751
 13.6544
 13.6402
 13.6099
 10.6873
 10.7072
 10.5298
 10.629
 12.0072
 11.9943
 12.0436
 12.0836
 10.1381
 10.2366
 10.3433
 10.2137
 13.7457
 13.667
 13.6222
 13.637
 12.8785
 12.834
 12.9711
 12.7457
 11.0969
 11.1137
 11.0313
 11.0854
 12.937
 12.8452
 12.9686
 12.9462
 10.1549
 9.97783
 10.1243
 14.0851
 14.1224
 14.1456
 14.1281
 12.6377
 12.6419
 12.6715
 12.7589
 12.3681
 12.239
 12.3403
 12.3229
 13.085
 13.1572
 12.9779
 13.1059
 11.1497
 11.1561
 10.9945
 11.0885
 13.2796
 13.4016
 13.3267
 13.3673
 12.4801
 12.5125
 12.4922
 12.5887
 15.0541
 15.0481
 15.0697
 15.0531
 11.5318
 11.5048
 11.6094
 11.6675
 15.0623
 15.0642
 15.0651
 14.3337
 14.3849
 14.3828
 14.3207
 14.6808
 14.6325
 14.445
 14.5934
 11.6506
 11.7067
 11.62
 11.5373
 12.0844
 11.9169
 12.0489
 12.0266
 13.7517
 13.8556
 13.8473
 13.9115
 9.73977
 9.83597
 9.9488
 16.4196
 16.4391
 12.4686
 12.3587
 12.5308
 12.4828
 15.5911
 15.6766
 15.7751
 15.6833
 12.1055
 12.09
 11.9479
 12.0064
 13.6771
 13.9974
 14.0383
 14.0673
 14.1302
 11.7215
 11.6838
 11.6601
 11.6135
 11.0256
 11.0753
 10.9448
 11.0607
 15.05
 15.0499
 11.9213
 11.8639
 11.6748
 11.8823
 12.6001
 12.8141
 12.5825
 12.6949
 14.1955
 14.1927
 14.2669
 14.0496
 13.2874
 13.3884
 13.4124
 13.2761
 11.2777
 11.4249
 11.1482
 10.6447
 10.6882
 10.6695
 10.6876
 9.86522
 9.86205
 9.82141
 13.9273
 13.9953
 13.9743
 13.9096
 10.6509
 10.7565
 10.7945
 10.8167
 14.7567
 14.8445
 14.8087
 14.7824
 12.1992
 12.2
 12.1694
 12.3123
 12.7534
 12.6106
 12.7184
 12.7118
 10.6023
 10.6076
 10.6187
 10.5157
 12.0507
 11.9744
 12.0897
 12.1615
 15.8105
 15.8611
 15.8894
 15.8208
 13.3024
 13.4691
 13.3149
 13.4379
 13.8625
 13.7025
 13.7175
 13.8515
 11.739
 11.6676
 11.793
 11.8996
 14.6224
 14.6996
 14.7373
 14.7249
 12.4846
 12.5739
 12.5442
 12.4048
 13.9571
 14.0462
 14.06
 15.1058
 15.1704
 15.1462
 15.2033
 12.3863
 12.2759
 12.469
 12.1887
 12.2068
 12.2778
 14.3696
 14.4768
 14.5494
 14.5716
 14.5829
 14.5339
 14.4952
 10.735
 17.1343
 17.0859
 17.0954
 17.1724
 11.1874
 11.2871
 11.0854
 11.2007
 14.8325
 13.7023
 13.7237
 13.753
 13.5996
 13.8898
 13.957
 13.7446
 14.3112
 14.1708
 14.2372
 14.2849
 15.802
 15.8279
 15.7667
 15.8956
 14.7603
 14.6771
 14.6826
 12.9071
 12.9702
 12.9608
 13.9472
 13.9866
 9.55569
 9.71798
 9.72804
 14.6754
 14.5878
 14.721
 13.7348
 13.6475
 13.6033
 10.6381
 10.5116
 10.5278
 11.6504
 11.6437
 11.5186
 11.6432
 14.273
 14.2104
 14.176
 15.0438
 15.1504
 10.3961
 10.5096
 10.3452
 10.3977
 15.5012
 15.4676
 15.5762
 15.3985
 14.647
 14.6838
 16.5883
 16.6634
 16.1921
 16.2079
 16.1586
 13.737
 13.6759
 13.7958
 10.4616
 10.6096
 10.6673
 11.9719
 11.9537
 11.8372
 14.2113
 14.1312
 14.0239
 13.9616
 14.0628
 10.9717
 15.1188
 15.1206
 15.0754
 15.07
 13.8502
 13.653
 13.7862
 13.7864
 11.7906
 11.8289
 11.7425
 11.8858
 11.872
 11.9458
 11.9091
 13.7583
 13.7968
 13.6953
 13.6152
 11.9617
 11.9155
 11.8272
 11.8324
 11.5503
 11.6589
 11.5951
 11.4541
 13.1304
 11.9121
 11.8906
 11.8614
 11.819
 10.2388
 10.1677
 10.2358
 10.33
 14.4287
 14.6112
 14.6362
 14.5006
 10.499
 10.418
 10.4903
 10.5037
 16.6621
 16.6316
 16.6985
 10.398
 10.4809
 10.2615
 10.3308
 14.3928
 14.4172
 14.5172
 14.5026
 11.5205
 11.6384
 11.5526
 11.4665
 14.6484
 14.6431
 14.8557
 14.809
 10.0362
 11.2854
 11.4636
 11.3954
 11.5188
 10.9524
 10.8243
 10.8817
 14.9885
 14.9341
 15.023
 15.0618
 11.6697
 11.7659
 11.7582
 11.8274
 12.5852
 12.4764
 12.4646
 12.5099
 12.7422
 12.6721
 12.8397
 12.8461
 9.8436
 9.99454
 13.5279
 13.5151
 13.5276
 13.7455
 13.6545
 13.6151
 13.5539
 11.8451
 11.9247
 11.7178
 11.7057
 11.8422
 11.7797
 11.7804
 11.68
 12.3805
 12.3676
 12.2712
 12.4116
 14.395
 14.3882
 14.1275
 14.2003
 14.2049
 13.7339
 13.6564
 13.6533
 13.6381
 15.1898
 15.2717
 15.2606
 15.2623
 13.8427
 13.9094
 14.0042
 15.7574
 15.7609
 15.663
 13.8299
 13.8435
 13.9395
 13.7649
 14.368
 14.228
 14.3955
 13.2888
 11.8329
 11.8722
 11.7267
 13.5863
 13.623
 13.5478
 13.4802
 14.7101
 14.7008
 14.4549
 14.5835
 13.1356
 13.0628
 13.022
 13.0177
 11.3381
 11.42
 9.6915
 9.80742
 9.88745
 9.67723
 11.7648
 11.8213
 11.7091
 11.8984
 13.5273
 13.5494
 13.5612
 13.4972
 10.1092
 10.0958
 9.85728
 10.193
 10.4357
 10.3695
 10.3397
 12.9858
 13.1371
 13.18
 13.041
 14.9257
 14.9569
 14.8696
 13.4455
 13.4584
 13.3241
 13.444
 14.9605
 15.0938
 14.9646
 15.0961
 12.1003
 12.1082
 12.0739
 12.3386
 15.0338
 15.031
 15.0411
 15.0079
 14.3528
 14.2825
 14.2552
 14.3096
 10.3819
 10.5269
 10.3547
 10.4848
 12.8936
 12.8902
 12.9921
 12.884
 13.8497
 13.9192
 13.8144
 13.9018
 11.8544
 11.8277
 11.4337
 11.2335
 11.294
 11.3122
 13.6361
 13.5128
 13.5458
 13.4042
 13.3644
 13.2909
 13.3408
 13.355
 14.8457
 14.7819
 14.8687
 13.6692
 13.748
 13.8086
 16.9243
 17.016
 16.9435
 16.9908
 14.2797
 14.2302
 14.9961
 14.9452
 14.9862
 15.0751
 12.5777
 12.6915
 12.5891
 12.7252
 15.769
 15.6659
 15.6149
 15.7124
 14.5631
 14.5927
 14.7042
 12.1533
 12.1157
 12.1304
 12.1905
 14.5055
 14.4186
 14.5432
 14.6532
 14.6459
 14.7415
 14.7265
 13.7489
 13.8129
 13.7964
 13.6804
 11.5298
 11.2179
 16.2526
 16.2127
 14.3204
 14.4089
 13.4684
 13.5643
 13.5249
 13.5414
 12.2333
 12.1455
 12.2329
 12.0735
 13.1439
 13.1351
 13.0721
 13.0503
 14.944
 15.1079
 14.973
 15.0406
 12.6364
 12.7772
 12.7002
 14.8983
 14.9267
 14.8794
 14.8836
 10.7951
 10.7769
 10.6815
 10.8488
 12.2564
 12.2613
 12.266
 12.3792
 14.7678
 14.6947
 14.8008
 13.4168
 13.5451
 13.4307
 13.3703
 15.0451
 15.0536
 15.0136
 14.5506
 14.4482
 14.4807
 14.5433
 14.6709
 14.6913
 14.5897
 14.6557
 13.5745
 13.6653
 13.6955
 13.7303
 10.3572
 10.4284
 10.5243
 10.4868
 12.4848
 12.3409
 12.3997
 12.3794
 13.5442
 13.6854
 13.5798
 12.9321
 12.9887
 12.9816
 10.9253
 11.0835
 10.9381
 11.0356
 12.3894
 12.359
 12.489
 12.3122
 13.6734
 13.5883
 13.5433
 13.5603
 15.1727
 15.1433
 14.7945
 14.8604
 14.7386
 14.7365
 16.4151
 16.4436
 16.5235
 16.4081
 11.7945
 11.7714
 11.7666
 11.8251
 14.4613
 14.5772
 14.5399
 14.549
 13.1335
 13.2495
 13.1737
 13.3054
 15.3341
 15.379
 15.3619
 15.4021
 12.8268
 12.8905
 12.9549
 12.9428
 13.4109
 11.8331
 11.9294
 11.9809
 11.9433
 13.6179
 13.7444
 13.7713
 13.6432
 13.6363
 13.579
 13.5036
 13.5374
 13.9327
 14.0346
 13.9952
 14.0667
 14.7046
 14.8132
 14.6449
 11.2313
 11.1997
 11.1587
 11.392
 13.6731
 13.7104
 13.7112
 13.7505
 11.3611
 11.3034
 11.2153
 12.1815
 12.2667
 12.1861
 12.2525
 11.5902
 11.4034
 11.5074
 11.3931
 14.745
 14.6563
 14.7629
 17.1857
 17.1434
 17.1319
 11.9415
 11.7928
 11.8308
 12.7961
 12.5965
 12.7013
 12.5874
 13.8472
 13.797
 13.7451
 13.831
 13.5259
 13.4795
 13.6312
 13.5964
 15.9683
 15.8994
 16.0561
 15.8952
 13.0879
 13.1456
 13.1568
 13.1713
 12.5934
 12.5926
 12.4815
 12.6186
 14.4879
 14.486
 14.2233
 14.4266
 14.3253
 14.3116
 12.0881
 12.1877
 12.1219
 12.1195
 14.6038
 14.4891
 12.499
 12.5536
 14.9069
 17.0057
 17.0252
 17.0107
 16.9457
 15.3172
 15.218
 10.0186
 9.85777
 9.99112
 15.0882
 14.9982
 14.9168
 15.0066
 11.9361
 11.9144
 14.372
 14.3963
 14.3809
 14.3751
 14.005
 13.8179
 13.8956
 11.8074
 11.7619
 11.7908
 11.6542
 12.3636
 12.2461
 12.348
 12.3114
 11.1878
 11.1836
 11.051
 13.5775
 13.6779
 13.5687
 13.7296
 13.2512
 11.0848
 11.3093
 11.1399
 11.196
 15.0471
 15.0764
 15.011
 14.9668
 13.0015
 13.0959
 12.9542
 13.0641
 11.7322
 11.9267
 11.7864
 11.8859
 16.5797
 16.5603
 16.5317
 16.5254
 14.735
 10.0922
 13.7606
 13.5968
 13.7027
 13.8088
 12.9688
 12.8636
 12.9991
 13.0405
 14.3666
 14.508
 14.4314
 14.3987
 12.8945
 12.9543
 12.9068
 12.882
 14.8507
 14.8273
 14.7269
 14.8605
 14.7732
 14.7068
 14.7821
 13.5172
 13.4088
 13.5718
 13.5083
 11.6697
 11.552
 11.7969
 9.61518
 9.45842
 9.59672
 9.68128
 16.0457
 16.1432
 16.1527
 13.3638
 13.3704
 13.4572
 13.4102
 13.5276
 13.372
 10.7239
 10.7337
 10.7768
 10.616
 11.9703
 12.0611
 12.0267
 12.1215
 14.7061
 14.5501
 14.6649
 15.5309
 13.6492
 13.7851
 13.7359
 13.6595
 13.368
 13.2935
 13.3125
 12.1875
 12.2551
 12.231
 12.1479
 11.7979
 11.9328
 11.8341
 11.9037
 13.7072
 13.785
 11.9766
 11.9879
 11.9598
 11.8681
 12.8256
 12.8609
 12.8302
 12.7267
 10.4693
 10.3848
 12.4705
 12.5813
 12.4837
 12.5331
 12.0314
 11.9707
 11.9505
 11.8823
 12.2434
 12.169
 12.2405
 12.2451
 13.3054
 13.2388
 13.603
 13.5242
 13.6105
 13.6784
 13.9863
 14.0859
 14.0406
 14.0133
 12.7913
 12.71
 12.7102
 12.7737
 14.8079
 14.7317
 14.6703
 14.6242
 14.3925
 14.4141
 14.4551
 14.4184
 16.2558
 16.194
 16.2026
 16.2952
 13.983
 14.1532
 12.8401
 13.0213
 12.8855
 12.9416
 13.7362
 13.7591
 13.712
 13.6347
 13.0351
 12.9589
 12.9083
 12.9969
 13.5557
 13.5362
 11.8022
 11.8508
 10.1118
 10.0863
 10.0667
 10.0444
 15.0219
 13.631
 13.6436
 13.608
 13.5294
 13.1962
 13.3011
 13.2645
 13.241
 14.186
 14.2526
 14.278
 14.3689
 12.0642
 12.2165
 12.083
 12.217
 12.9421
 13.0178
 13.0551
 12.9483
 14.8589
 14.8964
 14.8118
 14.8991
 14.9488
 13.8146
 13.7001
 13.8434
 13.795
 13.9164
 13.7663
 13.8852
 13.9059
 14.702
 14.6974
 14.7907
 14.7024
 14.4297
 14.3998
 14.2628
 14.3268
 13.4194
 13.3165
 13.4682
 13.4765
 14.8136
 14.8758
 14.9148
 14.8776
 12.88
 12.8457
 12.9956
 14.2849
 14.2857
 14.3062
 14.3219
 15.7761
 15.7144
 12.8878
 12.8077
 12.7822
 13.0634
 12.9329
 12.9852
 12.9232
 14.9912
 14.9158
 14.8787
 15.3079
 15.2581
 15.2574
 15.293
 12.4702
 12.4981
 12.3998
 12.5025
 12.9569
 13.1086
 12.9498
 11.5669
 11.7961
 11.6905
 13.3089
 13.3959
 13.3749
 11.1881
 11.2145
 11.1636
 16.3509
 16.4164
 16.4171
 16.3571
 10.4599
 10.4058
 10.4848
 10.3923
 14.0574
 14.1543
 12.7674
 12.8538
 14.6602
 14.6552
 14.6813
 14.5858
 12.5695
 12.6218
 12.4855
 11.7448
 11.649
 11.672
 11.6532
 11.1037
 11.2894
 15.0283
 15.0161
 15.0642
 12.8872
 12.8982
 13.006
 14.4156
 14.51
 14.3955
 14.9449
 14.9434
 14.9708
 15.012
 13.646
 13.5986
 13.7073
 13.5568
 13.7816
 13.8998
 13.8766
 13.7933
 12.1528
 12.1862
 12.2013
 12.0711
 11.8373
 11.9397
 11.8807
 12.0261
 13.8634
 13.8457
 13.7716
 12.5145
 12.5576
 12.6229
 12.1427
 12.0334
 12.0959
 12.0547
 9.29959
 9.38825
 9.26251
 13.2751
 13.3083
 13.3098
 12.0941
 12.0216
 12.1727
 13.3819
 13.3204
 13.4592
 14.0859
 14.2083
 14.1799
 15.0238
 14.9854
 15.0028
 14.9777
 13.2894
 13.5319
 13.416
 13.4945
 14.2906
 14.3232
 14.3977
 14.7557
 14.6452
 12.272
 12.3484
 12.1745
 12.2878
 12.2525
 12.1474
 12.3092
 12.3801
 14.6692
 14.56
 14.5063
 14.4775
 14.7949
 14.9081
 14.8392
 14.9146
 15.4833
 15.5366
 15.4804
 15.5741
 10.5717
 10.5123
 11.3222
 11.4931
 11.3954
 11.3025
 10.3406
 14.1507
 14.0293
 14.1477
 13.1877
 13.1567
 13.2416
 13.2849
 14.7515
 14.7573
 13.444
 13.4753
 13.3569
 15.0962
 15.0576
 11.4799
 11.4718
 11.3391
 11.5794
 11.0044
 11.0473
 10.8193
 10.959
 11.7934
 11.7737
 11.8961
 14.0653
 13.9856
 13.9912
 11.0449
 11.0668
 11.0176
 10.9885
 14.3478
 14.4749
 14.3791
 14.3306
 11.6924
 11.7706
 11.8043
 11.6998
 14.2715
 14.3839
 14.407
 14.2272
 14.8069
 14.7657
 14.8407
 10.347
 10.126
 10.2297
 10.2946
 15.0026
 14.9573
 14.9796
 13.6851
 13.6505
 13.5199
 13.6036
 10.4117
 10.2764
 10.3469
 14.2695
 14.35
 14.231
 14.2984
 12.3744
 10.7161
 10.6351
 10.911
 10.7573
 15.1704
 15.1432
 15.0915
 15.1504
 12.2372
 12.4169
 12.2778
 12.2336
 13.3391
 13.3016
 13.4453
 14.7847
 14.8505
 14.7725
 14.9689
 12.389
 12.4344
 12.3295
 14.4322
 14.4773
 16.2759
 16.364
 16.2808
 16.223
 15.3688
 15.586
 15.5948
 10.9554
 11.0152
 10.7723
 10.952
 10.9899
 10.9065
 15.3063
 15.2817
 15.3784
 15.2487
 13.826
 13.7791
 13.791
 13.7276
 13.4898
 13.6372
 13.6307
 13.593
 12.8755
 12.921
 12.7892
 12.9044
 12.8692
 13.0511
 12.9363
 13.0381
 10.5895
 14.8815
 14.9276
 14.8747
 14.9082
 10.5345
 10.6356
 10.4828
 12.8157
 12.9327
 12.993
 12.9441
 14.9732
 14.8751
 14.8419
 13.0109
 13.1071
 13.0351
 13.111
 13.3416
 12.1929
 12.1577
 12.0211
 12.0712
 14.3578
 14.3662
 14.3597
 13.3453
 13.1637
 13.2427
 10.4097
 10.4649
 10.6082
 10.4832
 13.3523
 13.3724
 13.4208
 16.6382
 16.6102
 16.6959
 13.3622
 13.4387
 13.3684
 13.5424
 12.1343
 12.0173
 12.0561
 13.2408
 13.2092
 11.251
 11.1766
 11.3219
 11.2938
 11.8242
 11.7105
 11.7667
 11.7936
 10.2697
 10.3173
 10.405
 10.4996
 12.9594
 13.1712
 13.0184
 12.9839
 11.9545
 11.9884
 12.0295
 12.0718
 11.2572
 11.1602
 11.0636
 14.5041
 14.4414
 14.6034
 14.5398
 13.4677
 13.3599
 14.0171
 14.0979
 14.0082
 14.0475
 12.2793
 12.2893
 12.3034
 12.2178
 13.3806
 13.2798
 13.3056
 13.4203
 12.4066
 12.4739
 12.3302
 12.4653
 13.2703
 13.2446
 13.1347
 13.1339
 13.4324
 13.5206
 13.5198
 11.3127
 11.4058
 11.3456
 10.7977
 10.7936
 10.8335
 10.6352
 11.2806
 11.285
 11.1928
 11.9999
 11.8178
 11.9647
 16.0602
 16.0556
 16.1351
 13.4941
 13.3563
 13.4636
 11.4486
 11.3916
 11.4649
 11.466
 13.4976
 13.4458
 13.5066
 12.8766
 12.8472
 12.8315
 12.9515
 12.3437
 12.587
 12.5068
 12.5108
 13.3472
 13.2552
 13.2886
 13.2086
 14.6213
 14.5554
 14.6087
 14.6636
 13.4548
 12.892
 12.9075
 12.8397
 13.0531
 15.0097
 14.9734
 14.9596
 14.9654
 14.9502
 14.867
 14.9216
 14.8688
 14.7849
 14.7133
 14.7601
 14.8044
 12.3674
 12.3991
 12.2422
 12.1781
 14.4454
 14.5074
 14.4665
 14.4535
 9.96602
 10.1067
 10.0027
 10.1031
 15.5126
 15.4612
 15.3951
 15.4001
 14.4329
 14.4214
 14.4479
 15.1453
 15.2225
 15.275
 15.2562
 14.7498
 14.8208
 14.6849
 14.9359
 14.9183
 13.176
 13.1932
 13.1124
 12.9539
 10.8634
 10.9761
 11.0118
 10.7869
 10.8145
 10.7243
 10.8569
 14.7397
 14.814
 10.2333
 10.1471
 10.272
 11.2687
 11.2943
 11.255
 11.1793
 14.7677
 14.8199
 14.7524
 10.3842
 10.3222
 10.4377
 10.2866
 13.9605
 13.9373
 13.8596
 14.0291
 14.7188
 14.8466
 14.7854
 14.6945
 15.2194
 15.0644
 15.1281
 15.1583
 15.8473
 15.809
 15.8967
 15.8967
 12.6084
 12.4033
 12.518
 12.4216
 13.8825
 13.8804
 13.9227
 14.0659
 10.3154
 10.4947
 10.3283
 16.6908
 16.5954
 16.6603
 16.5482
 15.3991
 15.3043
 15.3573
 15.2765
 10.4645
 10.2604
 10.3714
 10.3799
 13.3466
 13.3287
 13.2387
 11.1702
 10.998
 10.9704
 14.5778
 14.5841
 14.7152
 10.2629
 10.4199
 10.4215
 10.3243
 11.1576
 11.2073
 11.238
 11.3463
 14.3089
 14.2523
 14.16
 14.2484
 13.9038
 14.0178
 13.9076
 14.0384
 11.7189
 11.7135
 11.672
 11.544
 13.0813
 13.1477
 13.2222
 13.172
 15.5802
 15.4845
 15.4888
 15.485
 11.1119
 11.3759
 11.2055
 11.2692
 10.1183
 13.1083
 13.0778
 13.0033
 13.0056
 10.7921
 10.7158
 10.7373
 10.6012
 14.9948
 14.9943
 14.9774
 14.9761
 10.3347
 10.225
 10.3762
 10.4313
 13.4154
 13.441
 13.8573
 13.9165
 13.8414
 13.8014
 11.7378
 11.8632
 11.8769
 11.8739
 12.8601
 12.7261
 12.7442
 13.9078
 13.9271
 13.8831
 11.7619
 11.7672
 11.9121
 11.9198
 11.8949
 11.9611
 11.8337
 11.9292
 14.6492
 14.7482
 14.7558
 13.3476
 13.1092
 13.1125
 13.2444
 15.6215
 15.535
 15.4404
 15.5721
 15.6519
 10.2234
 10.4557
 10.2105
 10.4208
 13.1649
 13.2316
 13.2809
 13.1724
 10.8897
 10.7993
 13.5873
 13.752
 13.7476
 14.3901
 14.4906
 14.3228
 14.352
 10.4231
 10.4682
 10.3723
 10.3684
 14.8693
 14.8324
 14.8485
 14.3719
 14.4163
 14.3355
 14.4075
 13.9599
 13.8467
 13.9297
 14.0639
 12.2026
 11.9698
 12.097
 12.0437
 14.5212
 14.379
 14.4603
 14.4713
 11.7892
 12.6714
 12.5341
 12.4959
 12.692
 10.8348
 10.7876
 10.9226
 10.4887
 10.545
 10.5568
 10.6567
 12.6019
 12.5463
 12.6983
 12.6281
 9.85961
 9.86444
 9.86145
 10.014
 14.0115
 12.7425
 12.9026
 12.9125
 12.7894
 13.1369
 13.3093
 13.2382
 13.1878
 15.8345
 15.7376
 15.7126
 15.8117
 13.4064
 13.3774
 13.3372
 13.4709
 13.7186
 13.6934
 13.6566
 13.6119
 13.6131
 13.5926
 13.512
 11.0544
 11.1875
 11.2413
 13.6883
 13.8032
 13.7882
 13.7077
 11.052
 10.8596
 10.9646
 13.258
 13.3308
 13.1246
 13.0522
 13.0875
 12.9929
 13.0264
 12.9909
 13.2234
 13.1957
 13.0481
 13.0992
 10.9672
 10.8901
 10.8976
 13.9692
 10.6901
 12.8475
 12.7649
 12.8542
 12.9689
 14.6827
 14.6588
 14.7775
 14.4852
 14.3826
 14.3415
 13.1064
 13.0681
 13.1784
 13.3234
 13.3291
 13.271
 13.2134
 13.2326
 13.3199
 13.1575
 13.3005
 16.7381
 16.7217
 16.8063
 11.7223
 11.8718
 11.726
 13.438
 13.3973
 11.3009
 11.4887
 11.4394
 11.4864
 12.6815
 12.5832
 12.6766
 15.7442
 15.749
 15.847
 15.8073
 13.6462
 13.7856
 13.6866
 13.7191
 14.616
 14.6678
 14.7224
 14.7553
 12.2617
 12.4293
 12.3459
 12.2774
 14.1369
 14.2147
 14.1542
 14.2757
 15.5676
 15.5846
 15.5944
 13.9302
 13.972
 14.0314
 14.0052
 12.2175
 12.0803
 12.1249
 12.1258
 13.2947
 13.177
 13.1568
 13.2266
 14.4871
 14.5416
 14.4819
 13.8274
 13.9124
 13.8709
 13.8927
 14.512
 14.6223
 14.492
 14.5937
 14.9479
 14.8189
 14.8236
 14.969
 10.5494
 10.4641
 10.5081
 10.4644
 14.8043
 14.7209
 14.7516
 14.7192
 14.5318
 14.6048
 14.4938
 14.5074
 12.5449
 12.3813
 12.4473
 12.3567
 13.9263
 13.9648
 13.8577
 13.8956
 9.49297
 9.42356
 9.43857
 9.41812
 13.658
 13.7102
 13.6071
 14.9572
 15.032
 14.9998
 14.9116
 14.8492
 14.8987
 14.8647
 14.9009
 14.6789
 14.834
 12.1628
 12.2719
 12.1736
 12.3386
 9.82206
 9.9267
 9.86573
 9.88367
 13.7735
 13.8808
 13.8205
 13.8847
 14.6953
 14.7629
 14.7738
 12.3434
 12.4684
 12.4894
 12.3689
 13.5215
 13.5502
 13.4728
 13.4051
 14.4065
 14.4052
 14.417
 14.324
 15.0073
 14.8523
 14.9466
 11.5641
 11.4395
 11.3857
 11.5306
 11.4135
 11.4043
 11.5331
 13.7391
 13.7296
 13.6571
 13.615
 13.6694
 13.7319
 13.6
 14.412
 14.3138
 14.2715
 14.2857
 12.3782
 12.4048
 12.4964
 14.7051
 14.7015
 14.8145
 13.1412
 13.012
 13.0666
 11.3562
 11.5147
 11.4354
 12.1632
 12.1962
 13.989
 13.9136
 13.995
 13.9052
 13.8641
 13.9119
 13.4566
 13.5926
 14.2989
 15.1184
 15.0985
 15.1848
 10.9935
 11.0112
 11.201
 13.7447
 13.6607
 13.6941
 13.7674
 14.3593
 13.2536
 13.1665
 12.3174
 12.2892
 12.3406
 12.2324
 13.2866
 13.3859
 13.2664
 13.6746
 13.6164
 13.784
 13.6522
 13.9347
 13.7403
 13.6606
 13.7448
 13.7882
 13.6026
 11.0613
 11.1825
 11.2153
 11.1288
 10.9904
 10.8903
 10.7095
 10.7746
 14.7431
 14.6524
 13.2334
 13.274
 13.3054
 13.3894
 12.9123
 12.8801
 12.8423
 12.7911
 12.4259
 12.3198
 12.4376
 12.4567
 13.4914
 13.5525
 13.5966
 13.4715
 13.6565
 13.584
 13.6365
 13.6955
 11.3452
 11.5326
 11.3755
 11.4223
 14.5381
 14.4149
 14.4017
 14.3227
 14.5776
 14.4552
 14.5219
 11.6334
 11.5166
 11.3783
 11.3364
 14.4563
 14.3774
 14.4044
 14.3266
 10.8543
 10.9141
 10.8162
 10.8809
 11.3649
 11.4398
 11.4003
 11.4597
 13.8496
 13.7934
 13.8933
 13.8405
 12.1069
 12.0661
 12.1468
 12.2634
 14.3634
 14.3027
 14.2215
 14.1918
 11.82
 11.8879
 11.8563
 14.7803
 14.7158
 14.7962
 14.7438
 12.7368
 12.7721
 12.7059
 12.6578
 13.9302
 13.8977
 11.9085
 11.7291
 11.8104
 11.8688
 11.7785
 11.802
 11.8804
 13.5955
 13.4452
 13.5833
 11.5876
 11.6012
 11.5518
 11.4372
 15.5546
 15.5124
 15.4472
 15.4836
 14.3568
 14.3215
 14.2239
 14.208
 12.6204
 12.7767
 12.7563
 12.6061
 10.9005
 10.8797
 10.9704
 10.8831
 11.2724
 11.1532
 11.1264
 11.2505
 10.7156
 10.7148
 10.6878
 10.9935
 10.9507
 14.0893
 14.0173
 14.0966
 13.9933
 14.6081
 14.5685
 14.7256
 14.6324
 14.2307
 14.2269
 13.9961
 13.8806
 13.9679
 13.9622
 13.6902
 13.6759
 13.5515
 13.6743
 14.6461
 14.643
 14.7236
 13.0435
 13.1173
 13.0966
 13.1441
 9.48769
 9.53356
 9.65635
 14.0601
 14.0788
 14.0438
 13.9465
 11.3237
 11.4876
 11.3842
 11.3412
 12.2019
 12.0524
 12.0987
 13.2071
 13.2734
 13.1523
 12.1823
 12.044
 12.1906
 11.3434
 11.4638
 12.2912
 12.2719
 12.2702
 14.3289
 14.2869
 14.2582
 14.3809
 10.7926
 10.7045
 10.7992
 10.842
 12.7028
 12.5559
 12.6469
 15.9419
 16.041
 16.0719
 15.9505
 14.8115
 14.8651
 12.8892
 13.9677
 13.8278
 13.92
 13.9666
 13.1649
 13.0454
 13.0522
 11.9522
 11.9174
 12.018
 11.949
 10.7889
 10.7095
 13.3654
 13.4157
 13.4096
 13.482
 14.9223
 14.9953
 15.0049
 14.8839
 11.2442
 11.1604
 11.1852
 11.2411
 12.5741
 12.5232
 12.5951
 16.5378
 16.5751
 16.6537
 16.6552
 14.7403
 14.7596
 14.8541
 14.1571
 14.0749
 14.2163
 14.1281
 12.7237
 12.7124
 12.7887
 12.6329
 13.2697
 13.1763
 15.0464
 15.0136
 15.0238
 15.02
 12.4923
 12.3628
 14.2104
 14.3336
 14.2583
 14.227
 13.757
 13.7095
 13.8419
 13.7517
 13.2647
 13.151
 13.096
 13.1905
 14.1769
 14.2301
 14.3477
 12.2007
 12.374
 12.2008
 12.3307
 11.5494
 11.4432
 11.3376
 11.5349
 11.7008
 11.7149
 11.7058
 11.5755
 14.9616
 15.0663
 14.9874
 15.0644
 13.2961
 13.3688
 16.153
 16.2553
 16.2065
 16.3025
 13.8141
 13.9214
 13.968
 10.2737
 16.9378
 16.9139
 16.9168
 17.0456
 13.351
 13.2853
 13.3512
 13.3373
 14.0602
 13.9546
 14.0082
 11.6092
 11.5045
 11.4813
 11.6225
 11.6024
 11.649
 11.5136
 11.5232
 11.6716
 11.616
 11.7234
 11.7711
 14.2985
 14.2074
 14.358
 14.2083
 14.6779
 14.7165
 14.7655
 14.7587
 12.5021
 12.5098
 12.3633
 12.5178
 13.7062
 13.8626
 13.6685
 13.7711
 9.71809
 10.7921
 10.732
 12.745
 12.7559
 13.6156
 13.7068
 13.683
 10.7066
 10.5006
 10.635
 10.6694
 13.4202
 13.4714
 12.8633
 12.9597
 15.7403
 15.6521
 15.7589
 15.6649
 14.3158
 14.3552
 14.4336
 14.3768
 12.5237
 12.3759
 12.5041
 12.4109
 15.5383
 15.6424
 15.564
 15.5214
 9.93388
 9.99817
 9.85645
 9.9872
 10.8867
 11.052
 10.6216
 10.7133
 10.821
 10.6168
 11.5795
 11.475
 13.8938
 13.8342
 13.907
 16.7486
 16.6642
 16.7749
 16.7686
 15.4281
 15.3632
 15.3471
 15.4313
 10.8326
 10.7229
 10.8318
 10.9043
 12.0267
 11.8461
 11.942
 13.0481
 13.1558
 13.2352
 13.1026
 14.1865
 14.0596
 14.1598
 14.2016
 11.163
 11.0403
 11.1388
 10.8036
 13.136
 12.9964
 14.2064
 14.1682
 12.3116
 12.1832
 12.3552
 12.3077
 14.6158
 14.7424
 14.5784
 14.7565
 14.8172
 14.9258
 14.8848
 16.6396
 16.4936
 16.5109
 16.5627
 14.1244
 14.0639
 14.0744
 13.9802
 11.2615
 11.2391
 11.4946
 11.3747
 11.4466
 11.3747
 14.3645
 14.3688
 14.2665
 14.4409
 11.8359
 11.9102
 11.7929
 12.2695
 12.2735
 12.23
 12.3327
 11.4085
 11.2846
 11.4235
 11.2756
 14.2225
 14.1217
 14.156
 14.2013
 10.4895
 10.7109
 13.6537
 15.9876
 15.9538
 15.8891
 15.8578
 11.8186
 11.8573
 11.7507
 15.4738
 15.5362
 15.4801
 15.5706
 12.1907
 12.2032
 12.1984
 12.0852
 14.9162
 14.9205
 15.0317
 14.8835
 14.5854
 14.5987
 14.5031
 14.4815
 12.4148
 12.3207
 12.306
 13.9759
 13.9225
 14.0053
 14.0659
 12.6798
 12.6977
 12.6207
 12.7989
 12.8204
 12.9267
 11.4079
 11.3643
 11.3819
 12.2177
 12.1979
 12.279
 16.0902
 16.0778
 15.9915
 16.0615
 14.737
 14.6353
 14.7834
 14.602
 11.1007
 11.2772
 11.2831
 11.2933
 11.6425
 11.6883
 14.4473
 14.2518
 14.4349
 12.2472
 12.3983
 12.3774
 12.4492
 12.3286
 12.3671
 12.4162
 14.3034
 14.3573
 14.2917
 14.2667
 10.5725
 10.5754
 13.8954
 13.938
 13.8918
 13.8356
 14.3984
 14.3912
 14.355
 12.1875
 12.1505
 13.3213
 13.3677
 13.3588
 13.2418
 14.9311
 14.9732
 12.5251
 12.5861
 13.8907
 14.0351
 14.0081
 13.9281
 13.0326
 13.036
 13.1176
 12.9615
 13.0477
 13.12
 13.0556
 15.162
 15.1431
 15.1922
 15.0162
 15.4641
 15.4641
 15.3934
 15.4294
 12.1353
 12.2191
 12.3177
 12.2429
 11.0054
 10.9922
 11.0816
 11.0813
 12.8243
 12.76
 12.8643
 13.2506
 13.3193
 13.3695
 13.3038
 13.237
 11.7243
 11.6933
 14.1259
 14.0208
 14.1177
 14.1481
 14.546
 11.0077
 11.0371
 11.1338
 11.0835
 13.2136
 13.3952
 13.3449
 13.2462
 16.5023
 16.4451
 13.5758
 13.7117
 13.5765
 16.0952
 16.0695
 16.1189
 16.0266
 12.6252
 12.7139
 12.6393
 12.6882
 14.9391
 14.8237
 14.7997
 14.3225
 14.2316
 10.4011
 10.4194
 10.4204
 10.6843
 10.6768
 10.7504
 14.7233
 14.5776
 14.3473
 14.3526
 16.2916
 16.3508
 16.3622
 16.3794
 11.0111
 11.1901
 10.9774
 14.6019
 14.5856
 14.5245
 14.6645
 14.412
 14.4545
 14.3373
 14.4549
 12.1878
 12.1374
 12.0869
 12.1544
 12.6567
 12.4089
 12.5318
 12.2265
 12.2082
 12.3424
 12.2149
 11.751
 11.8872
 11.6399
 11.9444
 14.9971
 14.9884
 14.7054
 14.7002
 14.649
 12.7487
 12.8062
 12.917
 12.8688
 14.5112
 14.5207
 14.402
 14.442
 12.042
 12.1163
 12.0917
 12.0227
 14.955
 14.8316
 11.0906
 11.1774
 11.1322
 11.2415
 12.0355
 12.2318
 12.1452
 12.0029
 14.1628
 14.1514
 14.1868
 14.0927
 11.3544
 11.2082
 13.6324
 13.6052
 13.5653
 13.5421
 15.5422
 15.5213
 15.5358
 15.5174
 14.9487
 14.8904
 14.9525
 14.8676
 10.3312
 10.2778
 10.2281
 10.2486
 10.882
 10.9382
 10.9874
 14.2148
 14.2343
 14.2487
 10.4105
 10.3278
 13.5563
 13.505
 13.5799
 13.4293
 11.2512
 11.3372
 11.2279
 11.3388
 14.461
 14.5156
 14.4444
 14.5272
 15.18
 15.0815
 15.1339
 11.5119
 11.3637
 11.3741
 11.4084
 13.8191
 13.6752
 13.6994
 13.7386
 14.6485
 14.6109
 14.5416
 14.7196
 14.987
 15.1423
 14.9531
 12.7628
 12.8857
 12.6998
 13.1477
 13.122
 13.2145
 13.0809
 12.8135
 12.8278
 12.7078
 12.8505
 13.9239
 13.8162
 13.9192
 13.8259
 14.3616
 14.3369
 14.2778
 14.4105
 14.7493
 14.8424
 12.3583
 12.1936
 12.3653
 12.3642
 13.0393
 13.1936
 13.0717
 13.1408
 12.9848
 13.1461
 13.1689
 13.2267
 13.0272
 13.1015
 16.0277
 15.9896
 15.9187
 15.972
 10.8528
 10.7155
 10.8493
 13.7668
 13.7771
 13.7962
 13.8785
 13.4188
 13.5095
 13.4216
 14.8573
 14.7869
 14.9011
 14.8671
 14.5852
 14.6814
 14.6126
 14.6393
 13.8228
 13.7919
 13.7047
 14.4499
 14.5068
 12.0222
 12.0948
 11.9306
 10.1776
 10.1498
 10.2673
 10.1983
 14.5873
 14.6956
 14.6908
 14.5625
 13.4238
 13.3272
 13.2941
 13.407
 11.7194
 11.6858
 11.8041
 11.8031
 14.5024
 14.4605
 14.5406
 14.3897
 14.234
 14.1717
 14.1364
 14.0477
 11.492
 11.6021
 11.7448
 11.716
 14.2657
 14.148
 11.0546
 11.1013
 10.9851
 12.8146
 12.9156
 15.2675
 15.3156
 15.3372
 15.3624
 13.7908
 13.7422
 13.7093
 13.7342
 15.3311
 15.3768
 15.327
 13.4652
 13.4858
 12.5908
 12.5137
 12.3888
 12.5813
 13.7958
 13.7879
 12.3604
 12.2445
 13.8827
 13.9496
 13.8916
 13.8546
 12.3478
 12.4415
 12.3044
 12.2779
 11.8445
 11.7119
 11.5918
 11.6808
 10.4834
 10.4649
 10.526
 10.5177
 13.3484
 13.2884
 14.5482
 14.5505
 14.72
 14.7677
 11.7798
 11.9149
 14.8218
 14.7186
 14.7884
 15.8235
 15.8062
 15.6617
 15.7237
 15.9878
 15.9101
 15.9556
 13.1217
 12.9848
 13.0002
 13.0193
 13.8637
 13.7675
 13.8455
 14.6242
 14.1886
 14.1051
 14.236
 14.1245
 14.6516
 14.5759
 14.7253
 14.6268
 13.9593
 14.0435
 13.9406
 14.0373
 12.1932
 12.4127
 12.4051
 12.226
 10.4708
 10.5244
 10.5257
 10.4062
 13.6128
 13.6472
 13.493
 13.5388
 11.5017
 11.5667
 11.3499
 11.3903
 14.1987
 12.1539
 12.3261
 12.2446
 12.2715
 15.2135
 15.2722
 15.2193
 15.214
 12.1267
 12.0046
 11.9957
 14.0499
 10.9776
 10.9669
 11.039
 10.8218
 10.6806
 10.6754
 10.6668
 10.6267
 10.7804
 10.6683
 10.634
 13.2185
 13.2384
 13.2075
 13.3495
 10.7403
 10.7302
 10.6748
 10.6793
 14.6439
 14.7155
 14.7349
 14.7587
 12.447
 12.4969
 12.4826
 12.6068
 13.6456
 13.5146
 13.5376
 13.6336
 15.6337
 15.5626
 15.6202
 12.6046
 13.4336
 13.4644
 13.5159
 13.3788
 10.7359
 10.628
 10.6303
 10.5917
 10.7556
 10.6716
 10.5588
 10.6011
 12.52
 12.5565
 12.4807
 12.5759
 14.1807
 14.2499
 14.2869
 14.2457
 13.7626
 13.6443
 13.7213
 10.9315
 10.8573
 10.9482
 11.0696
 10.6735
 10.5998
 10.6133
 10.7121
 14.6708
 14.7283
 14.7269
 11.5648
 11.4585
 10.6935
 10.7284
 10.7054
 14.6079
 14.6791
 14.5588
 14.5507
 11.9783
 11.7918
 12.0082
 12.0375
 13.7929
 12.8055
 12.7774
 12.7027
 12.7988
 12.5147
 12.6124
 12.4905
 12.6842
 10.7491
 10.6788
 11.3067
 11.1489
 11.2556
 11.1296
 11.3562
 11.1744
 11.2539
 11.115
 11.4647
 11.6071
 11.4201
 11.5764
 11.9953
 11.895
 11.9814
 11.9178
 15.4816
 15.3667
 10.821
 10.7675
 10.6821
 15.02
 15.0397
 15.015
 14.3685
 14.5047
 14.5342
 14.4076
 11.9053
 11.9795
 11.8828
 11.7719
 13.5648
 13.6751
 13.6266
 13.6152
 10.0986
 10.2103
 10.0999
 9.99877
 12.8683
 12.8967
 12.8133
 12.8459
 11.4368
 11.3385
 11.4592
 12.3448
 12.3465
 12.8975
 13.0788
 12.9383
 12.9405
 13.1035
 13.2622
 13.1366
 13.2235
 14.7801
 14.7355
 14.7199
 12.4487
 12.3467
 12.3951
 12.2961
 13.903
 13.8572
 13.7736
 11.0743
 11.1055
 10.9359
 11.1399
 10.6294
 12.7076
 12.8789
 12.8936
 12.7854
 12.3818
 12.2961
 12.2812
 12.3264
 12.5104
 12.5753
 12.6228
 16.7336
 16.7952
 16.708
 16.7105
 14.4132
 14.3223
 14.9075
 14.994
 13.4643
 13.6431
 13.5935
 13.518
 17.2066
 17.1732
 10.2137
 10.1717
 10.1253
 10.0222
 11.9518
 11.722
 14.7798
 14.7954
 14.7336
 14.7374
 13.4416
 13.4285
 13.3407
 13.379
 11.3474
 11.2217
 11.2734
 11.4153
 14.2818
 14.3221
 14.2328
 14.2712
 13.5695
 13.66
 13.531
 13.588
 11.2465
 11.183
 11.1761
 11.0514
 13.5855
 13.5467
 13.5448
 13.6885
 10.5171
 10.629
 10.597
 10.6422
 12.4823
 12.3834
 12.4166
 14.4071
 14.4077
 14.5537
 14.4282
 12.6671
 12.771
 12.6984
 12.7831
 13.0199
 13.1101
 13.9984
 13.8342
 13.8077
 12.4049
 12.4308
 12.292
 12.2667
 10.3989
 10.4118
 10.2962
 10.2998
 10.9953
 10.8949
 10.8092
 11.0146
 14.5278
 14.5467
 14.6367
 14.6051
 15.0003
 15.0101
 15.0322
 15.0198
 14.749
 14.8823
 14.7878
 14.8385
 15.1222
 15.1092
 15.1495
 13.1845
 13.2068
 13.1829
 13.3475
 11.5807
 11.5162
 11.9942
 11.8337
 11.9324
 11.9436
 11.7177
 11.6353
 11.7814
 14.421
 14.5057
 14.4738
 14.5371
 13.2225
 13.201
 13.1257
 13.1448
 10.0789
 10.0635
 10.0256
 9.9585
 12.9566
 13.0217
 13.072
 12.9463
 12.7777
 12.9139
 12.7635
 12.8855
 10.9135
 10.8381
 10.955
 10.9481
 14.8459
 14.9967
 14.9372
 14.8846
 12.0232
 12.029
 14.9044
 14.9783
 11.4584
 11.5911
 11.4762
 11.3688
 12.9957
 13.0159
 12.9581
 13.1106
 15.3107
 15.2155
 15.2827
 14.9273
 14.9601
 15.013
 15.0075
 14.1075
 14.2305
 12.9911
 13.0445
 12.96
 13.0387
 12.3055
 12.3223
 12.2261
 13.7747
 13.8698
 13.8563
 13.7565
 13.8827
 13.7193
 13.8882
 13.781
 11.7571
 11.8735
 11.8271
 11.8235
 15.1642
 15.1704
 15.1233
 10.2991
 10.2703
 10.4497
 10.4233
 12.5743
 12.6124
 12.5929
 14.5808
 14.5432
 14.5055
 10.6541
 10.6585
 10.7803
 10.5952
 11.4611
 14.1445
 14.2677
 14.251
 14.2084
 10.803
 11.0361
 10.9382
 10.8372
 12.5849
 12.4361
 12.4857
 10.3554
 10.3298
 10.3289
 10.3448
 10.8184
 10.9182
 10.9155
 10.7893
 10.7382
 15.303
 15.2353
 13.4392
 13.4794
 13.3313
 13.4223
 15.4157
 15.4771
 15.4717
 15.4406
 14.0358
 12.5327
 12.4898
 12.673
 12.0181
 11.9199
 11.8187
 12.018
 14.0176
 14.0006
 14.0834
 14.1191
 14.3492
 14.3738
 12.6992
 12.6298
 12.6372
 14.2462
 14.3105
 14.2365
 14.1722
 14.3784
 14.3736
 14.3196
 14.2925
 10.6902
 10.6383
 13.9807
 13.8957
 13.975
 13.9885
 15.149
 14.9884
 15.1526
 15.0281
 14.4128
 14.3923
 14.18
 14.3592
 15.1022
 15.1667
 15.098
 11.5983
 11.7197
 11.5824
 12.0662
 12.0518
 10.829
 10.7965
 10.8981
 14.7482
 14.8605
 14.8245
 14.8513
 14.6171
 14.5619
 14.5201
 16.8735
 16.7701
 16.867
 16.9237
 11.676
 11.8503
 11.6706
 11.5894
 14.2318
 14.1802
 14.2447
 14.0782
 12.5831
 12.6776
 12.6343
 12.5665
 11.7986
 11.8346
 11.9674
 11.8973
 14.5878
 14.5817
 14.5411
 14.496
 13.4714
 13.3713
 13.4812
 12.1583
 12.1353
 12.0524
 12.5411
 12.5448
 12.5947
 12.4577
 13.5615
 13.6839
 13.6909
 13.6766
 12.4873
 12.428
 12.3797
 15.1466
 14.9643
 15.1167
 15.0958
 13.3133
 13.3021
 13.283
 13.4003
 14.6684
 14.7656
 14.7645
 14.7205
 14.8215
 14.9693
 14.7962
 14.8304
 9.92541
 9.75836
 9.99047
 14.6785
 14.7569
 14.6854
 9.99869
 11.5544
 11.5369
 11.7109
 11.6423
 14.9244
 12.0576
 14.1783
 14.1913
 14.2647
 14.2432
 15.1458
 15.2087
 15.2574
 15.2021
 12.3152
 13.5239
 10.2974
 10.3323
 10.3258
 10.3531
 16.7752
 16.7016
 16.7309
 14.1952
 14.2823
 14.3035
 15.0489
 15.1308
 9.73707
 9.66275
 9.84522
 9.78091
 13.7616
 13.9319
 13.8231
 13.7919
 11.3861
 11.2446
 11.2341
 12.4897
 12.5948
 12.2333
 12.2872
 12.0878
 12.2127
 10.6954
 10.7886
 10.8261
 10.7351
 13.5262
 13.5349
 13.3693
 13.4258
 10.9525
 10.877
 11.0146
 10.9466
 13.2647
 13.1976
 13.0765
 13.2365
 11.7368
 11.7233
 11.6633
 11.8077
 11.576
 11.7172
 11.5881
 11.3301
 14.4684
 14.6195
 14.4338
 14.3734
 13.1652
 10.5335
 10.3296
 10.4193
 10.3887
 12.8228
 12.7952
 12.9442
 12.7514
 12.6244
 12.6138
 14.7675
 14.8268
 14.8634
 14.7411
 14.0363
 14.1392
 14.0334
 13.2205
 13.2463
 13.2954
 13.3669
 10.0961
 10.2383
 10.2562
 10.2179
 14.3126
 14.3152
 14.3953
 14.4192
 12.0637
 12.2438
 12.232
 12.1574
 13.3197
 13.2934
 13.3898
 14.8274
 14.7348
 14.7766
 14.7541
 15.7698
 15.7563
 15.8698
 15.7176
 14.0502
 14.1456
 14.1814
 11.2566
 11.2549
 11.1754
 12.8541
 11.8155
 11.9709
 11.8966
 11.8986
 14.2673
 14.299
 14.2824
 14.2844
 11.0095
 10.8034
 10.9075
 10.9548
 12.9618
 13.1331
 12.3471
 12.4257
 12.3915
 12.3243
 12.2154
 12.2562
 12.4607
 15.9129
 15.8629
 15.9972
 15.9027
 9.61125
 9.39058
 9.45631
 9.5935
 14.0034
 13.9026
 13.9492
 14.5269
 14.4606
 14.608
 14.4284
 12.2234
 12.3672
 12.3029
 16.4777
 16.5634
 16.6114
 16.533
 11.8446
 11.8433
 11.634
 11.5954
 11.7181
 11.6905
 14.9859
 15.049
 15.0151
 15.0805
 14.7313
 14.7295
 14.6909
 14.7715
 15.5468
 15.4575
 15.4112
 15.5444
 13.5408
 15.6339
 15.5658
 15.5821
 15.5383
 11.7333
 11.8735
 11.8978
 11.9531
 14.7172
 14.6114
 12.0487
 11.9673
 11.9717
 12.1233
 11.2383
 11.1589
 11.2374
 11.1741
 10.1228
 10.0332
 10.0477
 9.88525
 16.7596
 16.7936
 16.6825
 12.5818
 12.4531
 12.4949
 12.519
 11.5192
 11.4862
 11.6148
 11.5432
 15.9371
 15.8604
 15.8317
 15.9426
 12.6308
 11.7384
 11.6829
 11.6437
 11.78
 10.7806
 10.7071
 10.7818
 13.5468
 13.5045
 13.5187
 13.4381
 10.2891
 10.0992
 10.026
 10.1178
 12.8012
 12.7444
 12.8093
 12.8257
 12.6698
 14.3703
 14.5055
 14.3432
 12.9279
 13.0627
 13.0089
 12.8758
 13.0597
 13.0197
 12.9789
 13.1269
 13.9946
 14.1331
 14.0941
 15.0864
 15.7135
 15.6229
 15.8034
 12.3696
 12.2644
 12.3146
 11.8355
 11.7968
 11.8688
 14.4763
 14.3623
 14.4264
 14.2662
 12.0639
 12.1433
 10.9553
 11.0139
 11.0704
 11.0101
 10.57
 10.6077
 10.6133
 11.0987
 11.0023
 12.468
 12.3715
 12.4552
 11.2849
 11.4461
 11.3407
 14.6994
 16.5364
 16.5808
 16.502
 16.5201
 12.6686
 12.6352
 12.7413
 12.711
 16.2815
 16.2559
 16.1636
 16.2956
 11.9473
 11.9495
 11.8648
 13.1693
 13.224
 13.3121
 13.3359
 14.2957
 14.2215
 14.4026
 14.3391
 12.7477
 12.7149
 12.6029
 11.8531
 11.7708
 13.4133
 13.2846
 13.3844
 13.3491
 13.9606
 13.8826
 13.9353
 14.6972
 14.6928
 14.6867
 12.5355
 12.5146
 12.4181
 12.5808
 11.6952
 11.5658
 11.6645
 11.5878
 9.59962
 9.69005
 9.5536
 9.67784
 13.0242
 13.0335
 9.53859
 9.63598
 9.69319
 12.2791
 14.9843
 14.8999
 14.821
 14.8629
 14.2979
 14.2194
 14.2887
 14.2431
 12.3602
 12.4473
 12.3945
 10.9761
 10.868
 15.0696
 15.0364
 15.1281
 15.011
 11.8314
 11.8877
 15.0006
 15.0472
 12.7997
 12.8123
 12.8701
 15.238
 15.3129
 15.1961
 14.2464
 14.2637
 14.312
 14.2956
 10.9343
 10.9298
 10.861
 10.9416
 13.7668
 13.7548
 13.744
 13.4902
 13.6425
 13.556
 13.5458
 10.6791
 10.8332
 10.832
 10.8535
 15.7911
 15.7554
 15.8257
 13.1961
 13.3208
 13.2606
 11.6225
 11.5495
 12.1332
 12.166
 12.2915
 12.2722
 15.9936
 15.9211
 15.9421
 15.976
 14.4243
 14.4215
 14.4051
 14.3276
 11.4126
 11.3637
 11.3111
 11.2896
 11.3224
 11.366
 11.373
 11.4419
 13.613
 13.7405
 13.628
 13.6577
 9.99639
 9.80196
 9.84267
 9.97687
 14.6615
 14.5737
 14.6955
 16.02
 16.1001
 16.0738
 12.7938
 12.7418
 12.1332
 12.1043
 12.2026
 12.1382
 11.0278
 11.0939
 10.9004
 10.896
 13.8997
 13.0313
 13.6454
 13.5485
 13.4978
 13.4301
 16.8891
 17.0035
 16.9866
 16.876
