 9.88662
 9.69112
 9.7398
 9.60888
 5.90381
 5.86472
 5.73662
 5.66808
 7.03497
 7.18141
 6.99909
 7.18392
 6.87032
 7.00335
 7.07093
 7.12975
 4.2868
 4.09666
 4.38925
 4.45042
 4.4183
 4.59066
 4.2893
 4.52637
 10.6061
 10.744
 10.6998
 10.6085
 10.5515
 10.4953
 10.4946
 10.5886
 4.32592
 4.40669
 4.59453
 4.39843
 4.49509
 4.46492
 4.53458
 4.24016
 11.0738
 11.1571
 11.0283
 11.0034
 6.99126
 6.97496
 7.1253
 7.02644
 9.16557
 9.1876
 9.30127
 9.05932
 5.81576
 6.05929
 6.13626
 5.98478
 7.72539
 7.76148
 7.66577
 7.54713
 10.1625
 10.2668
 10.0876
 10.2604
 5.04274
 4.91275
 5.03953
 4.83277
 6.57584
 6.67903
 6.531
 6.64477
 7.6892
 7.65054
 7.62543
 7.52804
 5.05437
 5.06602
 4.97374
 4.83214
 10.4823
 10.6424
 10.4719
 10.5861
 3.80379
 3.79337
 3.59809
 3.57523
 12.2216
 12.3011
 12.3045
 12.191
 6.2634
 6.17986
 6.3465
 6.37127
 7.9286
 8.02637
 7.88701
 7.84189
 7.47471
 7.44597
 7.53361
 7.58219
 8.59778
 8.43619
 8.36102
 8.57746
 10.2021
 10.3093
 10.1841
 10.1935
 9.2576
 9.29683
 9.43041
 9.34669
 6.00278
 6.03108
 6.10406
 6.22063
 7.84533
 7.59421
 7.8898
 7.80614
 9.15117
 9.02862
 9.03733
 9.14584
 6.63206
 6.81366
 6.61892
 6.77736
 5.85677
 5.94139
 5.94455
 5.91881
 9.16226
 9.31577
 9.14606
 9.38295
 10.0094
 10.0231
 10.0428
 10.0357
 6.72134
 6.94108
 6.76571
 6.802
 10.8276
 10.7687
 10.7426
 10.7197
 6.3516
 6.33077
 6.03791
 6.11191
 3.26141
 3.46554
 3.3288
 3.50482
 7.28198
 7.32807
 7.2491
 7.45876
 6.12758
 5.98142
 6.04411
 6.12547
 10.6751
 10.6799
 10.5647
 10.7691
 6.63686
 6.77614
 6.71597
 6.55486
 4.3619
 4.4258
 4.24932
 4.35498
 9.5485
 9.43004
 9.48241
 9.53684
 6.64472
 6.39795
 6.46322
 6.42728
 9.99303
 9.86639
 9.9683
 10.1049
 9.12457
 9.2196
 9.27102
 9.31398
 7.67591
 7.79798
 7.82113
 7.95403
 10.2249
 10.2768
 10.3193
 10.2156
 7.41605
 7.55865
 7.54121
 7.44354
 8.86497
 9.02625
 8.84876
 9.08957
 7.25871
 7.16516
 7.2633
 7.1716
 9.31877
 9.19576
 9.28513
 9.10346
 7.08725
 7.11041
 6.96986
 7.21637
 6.22224
 6.21132
 6.10842
 6.00567
 6.08174
 6.19907
 6.1147
 6.34953
 9.44743
 9.47713
 9.64276
 9.38571
 8.54924
 8.63063
 8.61746
 8.43541
 11.9982
 12.0661
 12.1363
 12.047
 9.31183
 9.35301
 9.48348
 9.3335
 7.89254
 7.68054
 7.78651
 7.75027
 8.8375
 8.84296
 8.63
 8.94733
 8.97854
 8.82312
 8.9957
 8.85209
 10.3508
 10.4315
 10.3242
 10.3205
 4.94606
 4.732
 4.64677
 4.95999
 4.36038
 4.28235
 4.20005
 4.14144
 7.55164
 7.35942
 7.68768
 7.57643
 9.25438
 9.29657
 9.19563
 9.37316
 6.31305
 6.23413
 6.14328
 6.32344
 10.4179
 10.6933
 10.5845
 10.5795
 10.4893
 10.5956
 10.6499
 10.4675
 12.2362
 12.3212
 12.2115
 12.2348
 7.17118
 6.9779
 7.09763
 6.93852
 9.52983
 9.37202
 9.34167
 9.51044
 9.85928
 9.96257
 9.80245
 9.77491
 3.99025
 3.78759
 3.86384
 3.76238
 10.1364
 10.1964
 10.3059
 10.1627
 9.87327
 9.94504
 10.0282
 9.88339
 9.62183
 9.51393
 9.63931
 9.75327
 8.28463
 8.32081
 8.18715
 8.2101
 9.78363
 9.62306
 9.73975
 9.68794
 9.15208
 9.07342
 9.02843
 9.10697
 8.54229
 8.58573
 8.64699
 8.70134
 10.0708
 10.2371
 10.031
 10.2155
 12.5371
 12.5597
 12.4197
 12.4168
 10.3711
 10.3188
 10.2324
 10.3066
 7.0441
 7.15979
 6.98932
 7.24493
 7.0157
 7.08143
 6.94547
 7.0955
 6.1502
 6.25621
 6.29055
 6.11946
 10.6646
 10.6815
 10.6414
 10.5836
 3.59835
 3.62105
 3.76204
 3.48013
 6.32987
 6.17484
 6.35377
 6.30593
 10.7763
 10.772
 10.8962
 10.9152
 9.06516
 9.07409
 9.13006
 8.88139
 9.92786
 9.82524
 10.0457
 9.96058
 9.8892
 9.95782
 9.96766
 10.6189
 10.6345
 10.6497
 10.7022
 6.67305
 6.7809
 6.89621
 6.61206
 8.54841
 8.33527
 8.41129
 8.51827
 6.94086
 6.7714
 6.9086
 9.26369
 9.45942
 9.33014
 9.38748
 8.16996
 8.04204
 8.08893
 8.26325
 5.25412
 5.52317
 5.50443
 5.15675
 10.397
 10.3754
 10.2008
 10.2642
 9.98287
 10.0798
 10.1539
 10.0652
 7.16306
 7.34935
 7.38553
 7.31657
 6.38543
 6.49685
 6.21619
 6.23652
 10.6396
 10.617
 10.6725
 10.7666
 10.0578
 10.0176
 9.80082
 9.86562
 8.68459
 8.5112
 8.41289
 8.65742
 4.50279
 4.37963
 4.45115
 4.41559
 7.10749
 6.92085
 6.84885
 6.93948
 8.01098
 8.25219
 8.05215
 8.01327
 12.0223
 12.1558
 12.0176
 12.0234
 8.38727
 8.50808
 8.3232
 8.22479
 5.25395
 5.4538
 5.25178
 5.51473
 9.65788
 9.86802
 9.56859
 9.6292
 10.0743
 10.0468
 10.1859
 10.1053
 10.1274
 10.2611
 10.2247
 10.1886
 11.2555
 11.2677
 11.2645
 11.2053
 9.74433
 9.95464
 9.93644
 9.94118
 7.10581
 7.12309
 7.0974
 7.22642
 10.6885
 10.6439
 10.6033
 10.5543
 4.83595
 5.00184
 4.86468
 4.81129
 10.4664
 10.6337
 10.6165
 10.4802
 5.34303
 5.62221
 5.31524
 5.49346
 8.54894
 8.6773
 8.67166
 8.57181
 8.90828
 8.76539
 8.71802
 8.86023
 9.46884
 9.46638
 9.27084
 9.41623
 9.75209
 9.7531
 9.87351
 9.90661
 3.80278
 3.62614
 3.56896
 3.59944
 9.63511
 9.72575
 9.63443
 9.70609
 3.30441
 3.47382
 3.35655
 3.59877
 6.3464
 6.40201
 6.18814
 6.34671
 11.6643
 11.527
 11.5552
 11.6675
 4.13869
 4.17804
 4.02958
 3.96286
 10.1508
 10.007
 10.1364
 10.2518
 11.6326
 11.7157
 11.7577
 11.642
 5.73127
 5.79396
 5.88789
 5.80019
 4.178
 3.936
 4.12136
 4.22181
 7.59412
 7.56083
 7.63484
 7.68048
 5.96029
 6.17027
 5.91072
 6.13951
 9.95564
 10.121
 10.0285
 10.065
 7.28124
 7.34847
 7.28761
 7.136
 9.01993
 9.0699
 8.95157
 8.93779
 10.5136
 10.446
 10.5443
 10.5455
 10.9918
 11.0195
 11.0291
 10.908
 8.48266
 8.54313
 8.39135
 8.5961
 8.00694
 8.01991
 8.06799
 8.17508
 9.9969
 10.0178
 9.90967
 9.88229
 10.0182
 10.2114
 10.033
 10.0556
 6.89148
 6.8634
 6.99401
 6.99107
 4.36718
 4.4908
 4.23123
 4.17859
 4.72113
 4.83877
 4.68443
 4.63945
 4.82402
 5.03477
 4.98782
 4.86954
 6.49543
 6.60367
 6.44935
 6.61415
 10.0228
 10.2183
 10.0717
 10.1269
 9.95304
 9.84759
 9.81054
 9.78632
 8.05306
 8.13814
 8.31558
 8.34624
 6.38032
 6.47228
 6.22026
 6.34205
 6.45463
 6.55499
 6.48536
 6.35541
 7.62167
 7.77446
 7.65665
 7.62425
 7.09278
 6.94358
 7.13089
 7.09977
 10.8238
 10.839
 10.7655
 10.6444
 12.9636
 13.0407
 12.9513
 13.087
 9.6215
 9.63513
 9.79191
 9.69883
 12.6222
 12.4903
 12.522
 9.71106
 9.74753
 9.6581
 9.82069
 5.00491
 5.12956
 5.0475
 5.16882
 7.78649
 7.70805
 7.6611
 7.53439
 4.56446
 4.64624
 4.43788
 4.67644
 10.0644
 10.0424
 10.1986
 10.0699
 6.52075
 6.54099
 6.26386
 6.33497
 7.57376
 7.60046
 7.78495
 7.67831
 3.9036
 3.7868
 3.73426
 4.07241
 5.67909
 5.71684
 5.63613
 5.47245
 9.58979
 9.44285
 9.54213
 9.59558
 6.475
 6.49523
 6.66111
 6.45858
 5.37085
 5.65436
 5.50082
 5.61164
 11.6048
 11.757
 11.7106
 11.7478
 7.83176
 7.76972
 7.66664
 7.64448
 5.38648
 5.31376
 5.27965
 5.4376
 6.95058
 6.797
 7.06406
 6.70059
 5.40939
 5.61004
 5.3855
 5.39993
 9.89431
 9.76114
 9.68494
 9.70081
 5.61443
 5.27668
 5.64219
 5.34324
 8.55904
 8.47471
 8.72644
 8.5672
 8.25057
 8.18564
 8.08136
 8.28746
 5.6979
 5.76414
 5.89851
 5.60598
 3.3452
 3.49734
 3.50606
 3.39656
 10.8527
 10.7752
 10.7014
 10.6563
 9.21598
 9.07494
 9.00348
 9.18048
 7.2001
 7.31011
 7.38455
 7.3363
 5.74859
 5.62145
 5.66116
 5.60891
 9.56934
 9.68935
 9.63368
 9.62168
 10.5822
 10.4277
 10.3546
 10.549
 6.36339
 6.3516
 6.58583
 6.5618
 6.82114
 6.67091
 6.82869
 6.7607
 4.08633
 3.91873
 3.76923
 4.07389
 10.2498
 10.068
 10.2871
 10.1672
 4.22879
 4.05761
 4.08823
 4.19693
 9.23191
 9.07109
 9.18614
 9.2366
 12.8767
 12.8915
 12.8346
 12.808
 4.90088
 4.79883
 4.68846
 4.78028
 6.69737
 6.59849
 6.79372
 6.95032
 4.99356
 4.9698
 5.09527
 5.11049
 8.13655
 8.31649
 8.19151
 8.11816
 8.48001
 8.39619
 8.36186
 8.45744
 5.93954
 6.16435
 6.14216
 6.06821
 10.0459
 9.9738
 10.1154
 10.0136
 10.3128
 10.2323
 10.2181
 10.2845
 12.1713
 12.234
 12.2468
 12.2712
 7.48075
 7.36887
 7.29592
 7.22254
 7.97302
 8.04411
 7.77581
 7.95717
 7.02275
 7.28961
 7.10124
 6.97052
 9.13223
 8.91259
 8.89101
 9.16282
 4.24368
 4.25496
 4.13369
 4.44938
 4.16245
 3.84862
 4.15597
 4.20244
 6.87339
 6.7897
 6.64904
 6.63637
 13.6635
 13.6817
 13.6422
 13.5723
 8.57107
 8.6655
 8.54244
 8.74782
 8.49309
 8.53506
 8.7087
 8.53441
 8.58055
 8.54381
 8.73977
 8.72914
 5.73537
 5.818
 5.57741
 5.83878
 11.8599
 11.7209
 11.936
 11.8628
 12.2649
 12.2798
 12.368
 12.4176
 5.60082
 5.74156
 5.60129
 5.80616
 9.36952
 9.18026
 9.4393
 9.20961
 8.8931
 8.92654
 8.86144
 8.85445
 6.69436
 6.77099
 6.83684
 7.00761
 10.2244
 10.1431
 10.0902
 10.1688
 5.60969
 5.76708
 5.74646
 5.59664
 9.09251
 9.35425
 9.23429
 9.43776
 9.31231
 9.33498
 9.46117
 9.35337
 10.5929
 10.6713
 10.5236
 10.6848
 8.72279
 8.52381
 8.63798
 8.49896
 5.24523
 5.1455
 5.16444
 5.29819
 6.52815
 6.33253
 6.26431
 6.44499
 10.1812
 10.2004
 10.0728
 10.0722
 9.59293
 9.40828
 9.40781
 9.58543
 4.72786
 4.64716
 4.51294
 4.60188
 5.74395
 5.89438
 5.81039
 5.85748
 8.43448
 8.4985
 8.59776
 8.4931
 10.7244
 10.6919
 10.7011
 10.6445
 11.3579
 11.1528
 11.1978
 11.3308
 6.81
 6.99284
 7.07297
 6.90892
 10.4338
 10.5653
 10.4409
 10.7062
 4.97065
 5.20843
 5.1968
 4.99007
 7.21617
 6.97674
 7.11535
 7.26041
 5.55783
 5.61407
 5.68602
 5.59654
 6.41457
 6.63869
 6.61854
 6.48125
 8.53007
 8.62588
 8.52037
 8.41414
 9.90716
 10.1567
 10.099
 9.99212
 11.1326
 10.9293
 11.1071
 11.0875
 10.6575
 10.8355
 10.6424
 10.6994
 9.95429
 10.111
 10.14
 10.0533
 8.27005
 8.2114
 8.21828
 8.48714
 8.2951
 8.20798
 8.22552
 8.37308
 8.11591
 8.25678
 7.98789
 8.1353
 6.92313
 7.02455
 6.8518
 6.88473
 11.7518
 11.8878
 11.8273
 11.8394
 7.69008
 7.64363
 7.72006
 7.54576
 10.209
 10.3579
 10.2931
 10.2578
 8.92823
 8.71723
 8.87083
 8.75718
 4.30463
 4.63014
 4.35507
 4.44373
 8.27472
 8.35745
 8.36341
 8.43526
 10.4669
 10.5456
 10.5006
 10.6551
 8.86926
 8.90859
 8.78037
 8.69679
 9.86632
 9.78254
 9.79067
 9.91771
 8.42597
 8.62678
 8.42229
 8.58361
 11.6911
 11.7961
 11.7454
 11.6426
 8.91964
 8.90672
 8.78233
 8.76101
 6.77231
 6.81932
 6.68433
 6.82241
 7.04456
 7.02595
 6.95434
 7.01524
 4.57318
 4.95122
 4.65341
 4.79673
 9.56829
 9.59011
 9.44544
 9.54752
 9.90235
 9.80337
 9.9217
 9.65437
 4.57456
 4.83554
 4.57732
 4.62544
 9.85399
 9.85022
 9.69551
 9.84762
 5.3272
 5.39904
 5.19354
 5.41548
 7.73038
 7.48536
 7.63233
 7.52072
 8.29537
 8.52998
 8.31293
 8.25634
 9.99591
 9.83932
 9.8592
 9.99989
 8.42602
 8.42406
 8.22506
 8.41245
 5.25126
 5.31171
 5.23008
 5.20705
 12.9627
 12.922
 12.8905
 13.0406
 10.781
 10.8112
 10.8118
 10.7672
 10.6505
 10.6242
 10.6548
 10.7533
 9.36225
 9.29226
 9.44332
 9.22738
 8.93638
 9.06512
 8.96848
 9.04474
 9.51958
 9.60482
 9.64116
 9.50485
 4.07277
 4.1635
 3.84037
 4.18533
 10.0583
 10.1565
 10.1466
 9.9486
 7.07136
 7.05726
 6.99174
 7.18087
 8.18808
 5.63441
 5.83953
 5.80786
 5.84813
 7.28377
 7.13199
 7.00469
 7.12143
 10.9529
 10.8725
 10.8412
 10.9015
 9.22272
 9.28941
 9.1662
 9.0655
 9.65201
 9.80246
 9.69998
 9.68436
 5.23429
 5.44217
 5.40735
 5.38477
 8.75508
 8.99502
 8.82603
 8.89563
 5.04529
 5.01396
 5.23482
 5.20145
 6.49256
 6.38031
 6.57432
 6.33164
 10.8917
 10.7979
 10.8524
 10.6833
 9.98751
 10.1429
 9.88705
 9.99297
 6.89663
 6.77879
 6.75344
 6.88884
 8.37804
 8.58312
 8.36529
 10.5486
 10.6155
 10.5616
 10.4915
 6.82579
 7.13551
 6.92993
 7.0783
 9.70117
 9.87341
 9.84747
 9.76293
 8.42316
 8.66062
 8.53732
 8.40229
 4.79436
 4.79515
 5.08287
 4.84511
 9.3927
 9.45543
 9.54773
 9.4187
 5.68123
 5.91521
 5.72844
 5.65452
 8.12892
 8.25055
 8.13575
 8.32484
 6.03979
 6.1651
 6.33077
 6.21617
 5.01599
 5.01299
 4.78698
 4.88896
 9.29329
 9.31649
 9.19389
 9.20502
 12.8955
 12.7268
 12.7448
 12.6576
 3.78613
 3.91844
 3.91616
 3.95119
 6.99257
 7.07742
 7.15235
 7.04715
 10.2404
 10.2583
 9.9891
 10.1983
 8.90435
 8.77425
 8.75157
 8.91268
 11.5044
 11.4685
 11.4822
 11.59
 5.01468
 4.89777
 4.65581
 4.84636
 10.6223
 10.7126
 10.6658
 10.6492
 7.57382
 7.41147
 7.65006
 7.52859
 10.0909
 10.3638
 10.1475
 10.1622
 3.58167
 3.61752
 3.60277
 3.81916
 3.82093
 3.87289
 4.00309
 4.14062
 6.35225
 6.5299
 6.58233
 6.30942
 7.4668
 7.40133
 7.44986
 7.5833
 7.41759
 10.3683
 10.3402
 10.5039
 10.3978
 10.1691
 10.2239
 10.2719
 10.1236
 6.77463
 6.60593
 6.59721
 6.58008
 10.4327
 10.3136
 10.3119
 10.4392
 9.85279
 9.90103
 9.92148
 9.78385
 6.42955
 6.3612
 6.38911
 6.56713
 9.19434
 9.00572
 9.19327
 9.0116
 6.75586
 6.74003
 6.71867
 6.58664
 9.78624
 9.82248
 9.93805
 9.80622
 9.40284
 9.30048
 9.2658
 9.25079
 8.62298
 8.45645
 8.68299
 8.51471
 7.51386
 7.31667
 7.42425
 7.23778
 5.86111
 5.95698
 5.67362
 5.71596
 7.70316
 7.75401
 7.84868
 7.82723
 7.7451
 7.65109
 7.60944
 7.64629
 10.9597
 10.9631
 10.8875
 10.8419
 7.03819
 7.01537
 6.93068
 6.99166
 8.18476
 8.14847
 8.06986
 8.19046
 7.99434
 8.01251
 8.12842
 8.03063
 9.17259
 9.12972
 9.29457
 9.1883
 10.5578
 10.5733
 10.4985
 10.6891
 6.20593
 6.2517
 6.14948
 6.09813
 10.5064
 10.6118
 10.5752
 10.4032
 4.05817
 4.07595
 3.80857
 3.96431
 5.78361
 5.91655
 5.67864
 5.76486
 5.68818
 5.65906
 5.64964
 5.71959
 5.44479
 5.52475
 5.54637
 5.33376
 6.5157
 6.42839
 6.60082
 6.42768
 11.4982
 11.5758
 11.7058
 7.80794
 8.04522
 7.84343
 7.87386
 5.89345
 5.97355
 6.03201
 5.90648
 9.25917
 9.433
 9.34038
 9.30002
 9.8005
 9.75567
 9.85814
 9.73665
 6.41314
 6.38102
 6.24147
 6.57561
 8.64946
 8.69294
 8.63334
 8.48788
 9.66513
 9.65357
 9.71396
 9.7334
 4.14039
 3.88491
 7.11523
 7.14021
 7.32618
 7.30114
 8.55684
 8.61078
 8.7048
 7.66021
 7.60302
 7.63179
 7.80235
 11.1627
 11.2126
 11.066
 11.0837
 5.67891
 5.54084
 5.54196
 5.75495
 7.72093
 7.76553
 7.8655
 7.84234
 9.27503
 9.4073
 9.33001
 9.19279
 7.90038
 8.07283
 8.018
 7.94194
 10.49
 10.5615
 10.4383
 10.5007
 10.8093
 10.5738
 10.7459
 10.702
 8.65876
 8.52892
 8.47864
 8.57342
 10.4145
 10.4475
 10.4288
 10.3199
 8.43801
 8.5238
 8.49
 8.55287
 5.4202
 5.46712
 5.68008
 5.70307
 10.3415
 10.2573
 10.1978
 10.2886
 12.1301
 12.0138
 12.0844
 12.0202
 7.2262
 7.54637
 7.35795
 7.28761
 8.85252
 8.73801
 8.88033
 8.73987
 10.4979
 10.5203
 10.3826
 10.4109
 8.54541
 8.63115
 8.45818
 8.48272
 4.90281
 4.96545
 4.8455
 4.8839
 9.93736
 9.94715
 10.0187
 9.94801
 7.32522
 7.43478
 7.43074
 7.48482
 8.9353
 8.75552
 8.87822
 8.65561
 6.57932
 6.44881
 6.46342
 6.32873
 5.49421
 5.51532
 5.4112
 5.58287
 10.263
 10.1435
 10.2211
 10.0142
 9.45818
 9.34415
 9.37369
 9.4079
 7.49594
 7.5145
 7.72903
 7.59257
 10.5705
 10.5157
 10.537
 10.4933
 12.8877
 12.9897
 12.9815
 12.9202
 7.9351
 8.08037
 8.08397
 8.10049
 13.1351
 13.1643
 13.1123
 13.0337
 12.927
 12.8019
 12.8049
 12.8654
 11.0991
 11.0131
 11.0285
 11.1381
 7.00565
 7.13096
 7.23911
 7.30419
 7.11337
 6.96365
 6.95793
 6.83696
 6.84211
 6.98607
 6.87603
 7.06718
 7.28825
 7.47657
 7.43806
 7.22206
 11.6642
 11.7601
 11.6922
 11.7127
 10.2623
 10.3338
 10.1783
 10.237
 10.2756
 10.4435
 10.4163
 10.3902
 9.14155
 8.96894
 9.13147
 8.95262
 7.72325
 7.82586
 7.71699
 7.79555
 6.57132
 6.59985
 6.68116
 6.53439
 10.0467
 9.88523
 9.85232
 10.0138
 6.96403
 8.55546
 8.43272
 8.43212
 8.52919
 3.77866
 3.72893
 3.49479
 3.64031
 8.79567
 8.78643
 8.66922
 8.78159
 5.08559
 4.84619
 5.02139
 10.3655
 10.286
 10.2346
 10.3906
 12.6129
 12.5013
 12.5452
 12.4756
 8.33753
 8.35795
 8.16181
 8.4504
 9.18935
 9.39209
 9.34677
 9.37105
 10.4165
 10.3219
 10.2373
 10.1986
 10.1624
 10.1123
 10.2357
 10.0967
 11.2629
 11.45
 11.3375
 11.3377
 7.53063
 7.5606
 7.44027
 7.19949
 8.40104
 8.23103
 8.44297
 8.30794
 9.59173
 9.72384
 9.59831
 9.64982
 8.63128
 8.754
 8.44605
 6.2134
 6.31658
 6.35221
 9.92094
 9.90719
 10.0913
 10.1236
 11.2778
 11.3304
 11.3271
 11.2814
 9.67351
 9.57603
 9.58616
 9.70755
 11.1323
 11.257
 11.1064
 11.3077
 6.13689
 5.8581
 6.06358
 6.00848
 6.36789
 6.2948
 6.23784
 6.12703
 10.5727
 10.6259
 10.6012
 10.6195
 11.4063
 11.572
 11.4617
 11.4142
 7.87646
 8.09822
 7.91453
 8.00238
 4.35067
 4.53132
 4.26283
 4.48825
 11.2304
 11.2334
 11.3017
 11.2233
 6.97191
 7.15395
 7.16497
 6.93549
 12.2189
 12.2935
 12.2102
 12.265
 6.58458
 6.47282
 6.62828
 6.33023
 9.02753
 9.1538
 8.95951
 9.19253
 6.16035
 6.1521
 5.96468
 5.98482
 10.4063
 10.3583
 10.3318
 10.2012
 9.31377
 9.44081
 9.42172
 9.43288
 9.84346
 9.89515
 9.74481
 9.74745
 9.72899
 9.78476
 9.61431
 9.85722
 7.93998
 7.83105
 7.85496
 8.00592
 8.7507
 8.88676
 8.72931
 8.73964
 5.86975
 6.03339
 6.13319
 6.06924
 4.03704
 3.86983
 4.23808
 4.25431
 8.90385
 8.92146
 9.0385
 8.93698
 5.43837
 5.5068
 5.59676
 5.3101
 6.69867
 6.45482
 6.35987
 6.48579
 11.6837
 11.7504
 11.8702
 11.706
 10.5507
 10.3082
 10.3557
 10.4306
 9.07536
 9.18381
 9.22724
 9.16452
 11.2125
 11.3038
 11.3303
 11.395
 7.78058
 7.59871
 7.62272
 7.6995
 6.14218
 5.81619
 5.99647
 5.95852
 11.1342
 10.9507
 11.1208
 11.1365
 8.5795
 8.44543
 8.54239
 8.51537
 9.68351
 9.7019
 9.69679
 9.77067
 12.8321
 12.7447
 12.7218
 12.8188
 9.34498
 9.3698
 9.37852
 9.24275
 8.41489
 8.30899
 8.33762
 8.28564
 6.82601
 6.65732
 6.76998
 6.60546
 9.84508
 9.80964
 9.77784
 8.39377
 8.42427
 8.4674
 8.42828
 9.43598
 9.49643
 9.25458
 9.39776
 7.12049
 7.28268
 7.13715
 7.21106
 7.05336
 6.85713
 6.90732
 6.93053
 5.09014
 5.24046
 5.14097
 5.36358
 10.1598
 10.1565
 10.0565
 10.1873
 4.4068
 4.34528
 4.26533
 4.3642
 9.93042
 9.80035
 9.91581
 9.99224
 8.41942
 8.23894
 8.26189
 8.16302
 8.21093
 8.39492
 8.32305
 8.42451
 13.0269
 13.126
 13.0308
 13.0579
 9.50609
 9.5986
 9.49313
 9.46862
 8.48485
 8.52208
 8.37038
 8.19008
 8.62033
 8.57551
 8.54549
 8.759
 3.77731
 3.79049
 3.983
 3.83451
 9.93642
 9.78336
 9.69524
 9.89398
 9.73979
 9.82783
 9.66216
 9.86649
 6.68248
 6.48598
 6.64059
 6.55131
 10.3126
 10.3396
 10.4202
 10.4343
 10.3477
 10.3767
 10.2877
 10.3885
 7.15505
 7.3736
 7.17533
 7.30353
 7.0817
 7.07584
 7.22866
 7.07342
 8.08617
 8.06689
 7.82044
 7.92058
 9.79705
 9.87027
 7.53239
 7.66906
 7.45318
 7.63089
 9.76623
 9.68494
 9.7687
 9.7289
 8.97576
 8.81018
 8.75353
 8.8063
 4.99577
 5.1142
 5.2
 4.97217
 8.82917
 8.78048
 8.70031
 8.66923
 6.36211
 6.228
 6.1516
 6.41051
 10.0041
 9.76664
 9.84979
 9.779
 9.22671
 9.36895
 9.38908
 9.32381
 8.52993
 8.25106
 8.39921
 8.36952
 10.2264
 10.3514
 10.4002
 10.3103
 12.0515
 12.0019
 12.0663
 12.1289
 4.60298
 4.64906
 4.73663
 4.66001
 11.1444
 11.1528
 11.0917
 11.1915
 7.67387
 7.60646
 7.77911
 7.76875
 12.0536
 12.039
 11.9802
 12.1046
 7.64098
 7.46965
 7.58297
 7.60469
 9.90678
 9.92308
 9.97362
 9.95243
 9.96402
 9.92198
 10.0621
 9.97777
 8.01529
 7.95268
 8.14439
 8.0269
 5.74904
 5.94335
 5.77964
 5.97987
 9.27985
 9.04624
 9.08489
 9.08511
 10.6064
 10.6506
 10.5993
 10.534
 5.81634
 5.54398
 5.6772
 5.48447
 9.87451
 9.96999
 9.79176
 9.77625
 9.16766
 9.01867
 9.05911
 8.96738
 6.63102
 6.2787
 6.36154
 6.47677
 8.18
 8.02255
 7.97594
 7.97348
 8.70112
 8.76646
 8.68209
 8.59689
 5.01346
 4.88618
 4.78212
 4.71166
 5.73636
 5.66009
 5.67642
 5.76827
 7.84089
 7.80654
 8.02536
 7.93925
 8.71865
 8.63094
 8.78523
 8.45693
 9.49661
 9.44657
 9.43909
 9.24434
 10.6025
 10.6128
 10.7167
 6.37218
 6.26872
 6.29406
 6.15696
 12.1272
 12.2028
 12.3139
 12.2841
 6.89747
 7.11658
 6.99909
 7.04445
 10.1318
 10.3121
 10.2139
 10.2009
 10.4373
 10.5776
 10.5366
 10.5536
 5.41363
 5.60728
 5.51279
 5.25025
 8.23032
 8.32523
 8.17018
 8.28084
 8.59584
 8.65065
 9.78195
 8.91981
 8.75937
 8.94993
 8.84363
 12.0573
 11.9589
 7.18858
 7.12035
 7.05683
 10.8447
 10.7738
 10.9446
 10.8432
 7.03976
 7.23182
 7.17349
 7.16439
 9.16067
 9.0108
 9.05488
 9.07011
 9.83822
 9.61781
 9.7486
 9.72286
 5.16812
 5.1658
 4.91037
 5.09748
 10.8148
 10.6865
 10.8262
 10.6726
 7.39855
 7.40003
 7.34301
 7.23957
 4.64588
 4.60755
 4.84774
 4.84844
 8.25355
 8.43163
 8.28731
 8.4006
 7.29412
 7.55695
 7.47168
 7.4758
 8.57275
 8.43889
 8.55721
 8.79297
 3.74179
 4.13669
 3.80244
 4.13566
 4.10154
 4.08476
 4.19557
 4.36333
 4.45161
 4.5483
 4.5563
 4.43073
 8.9665
 9.1003
 8.94585
 8.96534
 7.75882
 7.97949
 7.89284
 7.79884
 8.75495
 8.77613
 8.8889
 8.80082
 9.05122
 9.09341
 8.90627
 9.10709
 6.97887
 6.92835
 6.90199
 7.1019
 5.84113
 5.63131
 5.72283
 5.59998
 5.77657
 5.70032
 5.89454
 5.60996
 8.20338
 8.11659
 8.2393
 8.1319
 8.67592
 8.66952
 8.72677
 8.80104
 9.95656
 10.0365
 9.98809
 9.83168
 6.48071
 6.32151
 6.31257
 6.53693
 11.1458
 11.1332
 11.2571
 11.0984
 6.30222
 6.19496
 6.30666
 6.33651
 7.98131
 7.70844
 7.96048
 7.77012
 8.0541
 8.00335
 8.02271
 8.1586
 10.6845
 10.6985
 10.7623
 10.8681
 13.3075
 13.2284
 13.3397
 13.3267
 9.43932
 9.2913
 9.43687
 9.40578
 6.2387
 6.4608
 6.37981
 6.24442
 10.4014
 10.5318
 10.4378
 10.3415
 7.73802
 7.64634
 7.84654
 7.64429
 7.54293
 7.41508
 7.24688
 7.30981
 6.64918
 6.55433
 6.81998
 6.74096
 11.4057
 11.4766
 11.4805
 11.3829
 11.3727
 11.3542
 11.4143
 11.4415
 6.18976
 5.92311
 6.01683
 6.05749
 6.95984
 7.21311
 7.23197
 7.07288
 9.54176
 9.5201
 9.60319
 9.59784
 8.52072
 8.56743
 8.41751
 8.33258
 8.0551
 8.01988
 8.03234
 8.12123
 9.55453
 9.66828
 9.42323
 9.62431
 7.31695
 7.43035
 7.39022
 7.51669
 3.04064
 3.28655
 3.09958
 3.06318
 7.61828
 7.40425
 7.42991
 7.31804
 8.48555
 8.40705
 8.52174
 8.32657
 8.42783
 8.4368
 8.5751
 8.4304
 8.02522
 7.90812
 8.00657
 8.15054
 4.42216
 4.42189
 4.5959
 4.43993
 5.90577
 6.07371
 5.9676
 7.35684
 7.35423
 7.25596
 7.3807
 10.5802
 10.5978
 10.4758
 10.6091
 9.02153
 9.01757
 9.1393
 8.97087
 5.83562
 6.07736
 6.14209
 6.06703
 9.95388
 9.89826
 9.87078
 9.80914
 9.27582
 9.38174
 9.39368
 9.23729
 9.07203
 9.14445
 9.31689
 9.16323
 6.98705
 7.11201
 7.1558
 7.13704
 7.93095
 8.06674
 7.91323
 8.19641
 7.34769
 7.6476
 7.53437
 7.48546
 10.3358
 10.2639
 10.2501
 10.3099
 9.21879
 9.11789
 9.08409
 9.23069
 7.16057
 7.28901
 7.12675
 6.97516
 9.32555
 9.26069
 9.17551
 9.38985
 7.62327
 7.45517
 7.45789
 7.54771
 10.4047
 10.4552
 10.3696
 10.4779
 4.84667
 4.77975
 4.99218
 4.84764
 10.0056
 10.1008
 9.96055
 9.9056
 10.1446
 10.4046
 10.2429
 10.2418
 6.63507
 6.63201
 6.50209
 6.45864
 10.0064
 9.97528
 9.94645
 9.9618
 7.56966
 7.64847
 7.57225
 7.74278
 10.755
 10.7409
 10.9045
 10.875
 8.05192
 8.1375
 8.10427
 7.93868
 5.1556
 4.83619
 5.09767
 4.92568
 7.94421
 8.16962
 8.16983
 8.05378
 6.72895
 6.64922
 6.72068
 6.73759
 7.5778
 7.64318
 7.59053
 7.50315
 7.62287
 7.56917
 7.51556
 7.38785
 4.53141
 4.50327
 4.42931
 4.73491
 10.254
 10.3407
 10.4103
 10.4255
 10.0859
 10.1468
 10.2688
 10.153
 5.5358
 5.51637
 5.64168
 5.36349
 5.2006
 5.09236
 5.2103
 9.65229
 9.71289
 9.71972
 9.61519
 7.54494
 7.35023
 7.52409
 7.55205
 7.73853
 7.68209
 7.85808
 7.66003
 10.1449
 10.0285
 10.2275
 10.1282
 6.64219
 6.51542
 6.56034
 6.52325
 8.62489
 8.79453
 8.7783
 8.59882
 8.00519
 8.1852
 8.16035
 8.21572
 6.4874
 6.34659
 6.31846
 6.36319
 10.6999
 10.7556
 10.6887
 10.6211
 9.59655
 9.76356
 9.72715
 9.72215
 4.39141
 4.68209
 4.45135
 4.5321
 10.2537
 10.2751
 10.2297
 10.0336
 10.69
 10.7522
 10.7251
 10.71
 8.58348
 8.51653
 8.59649
 8.38089
 12.0646
 12.0226
 12.1043
 11.9459
 8.2173
 8.18608
 8.27029
 8.19988
 6.32841
 6.41444
 6.46609
 6.49949
 5.75097
 5.87382
 5.81729
 10.8301
 10.8128
 10.77
 10.818
 9.95308
 9.79286
 9.98254
 9.82921
 10.1512
 10.2
 10.2596
 10.3032
 9.72284
 9.83127
 9.76329
 9.79795
 4.20442
 4.07458
 3.99521
 4.0434
 10.62
 10.6114
 10.6573
 10.7438
 9.83082
 9.94184
 9.8505
 9.69401
 5.89344
 5.78521
 5.90531
 5.98304
 9.2829
 9.33954
 9.23436
 9.69783
 9.84723
 9.7292
 7.87781
 8.02903
 8.15729
 11.8123
 11.6742
 11.6513
 11.7639
 8.18209
 8.09201
 8.1615
 8.03046
 8.23921
 8.15631
 8.38737
 8.33915
 5.47442
 5.35796
 5.55839
 5.59505
 4.97189
 5.04774
 4.69066
 5.02131
 10.2567
 10.3715
 10.3864
 10.1607
 7.82249
 7.63959
 7.63496
 7.68214
 7.80999
 7.67965
 7.60646
 7.65997
 8.59511
 8.39479
 8.48252
 8.34742
 9.37052
 9.2972
 9.28333
 9.47254
 7.86882
 8.03124
 7.9314
 7.85116
 10.3027
 10.2688
 10.3315
 10.2286
 5.29453
 5.37087
 5.28312
 5.23356
 9.73874
 9.76592
 9.6965
 9.62152
 5.7557
 5.93019
 5.82217
 5.79473
 4.78124
 4.90292
 5.02281
 4.82447
 5.04961
 5.11289
 5.11627
 5.1665
 9.99589
 10.096
 6.88349
 6.91871
 7.0387
 6.95149
 10.177
 9.99143
 10.086
 10.1431
 6.40082
 6.08763
 6.19713
 6.13065
 5.72234
 5.89318
 5.65211
 5.87353
 9.49103
 9.39423
 9.37195
 9.44923
 7.95918
 7.97365
 7.82197
 7.89591
 9.75701
 9.74448
 9.63947
 9.74106
 8.91368
 8.91491
 8.88919
 8.7556
 12.6929
 12.5195
 12.7259
 12.5724
 5.22376
 5.33126
 5.06436
 5.26344
 9.66075
 9.78879
 9.62572
 9.56102
 10.8244
 10.9254
 10.9203
 10.782
 8.73849
 8.80554
 8.65538
 8.60138
 10.7051
 10.8816
 10.9215
 10.7051
 8.85614
 9.02695
 9.06776
 8.9325
 6.82563
 6.88659
 6.68242
 6.95103
 8.48948
 8.59789
 8.59824
 8.53172
 5.45281
 5.15142
 5.44778
 8.70978
 8.55722
 8.76417
 8.58954
 12.7441
 12.8004
 12.7938
 12.844
 4.01258
 3.94682
 3.87347
 4.01897
 8.11092
 8.1306
 8.0347
 8.15842
 6.38462
 6.50943
 6.65334
 6.46198
 10.3346
 10.2097
 10.5134
 10.3811
 9.38764
 9.27066
 9.50718
 9.36939
 9.38464
 9.16979
 9.28388
 9.17912
 5.04066
 5.18177
 5.00969
 4.8864
 9.22196
 9.34169
 9.42678
 9.38225
 4.10173
 4.1728
 4.04425
 4.28366
 6.97603
 7.17063
 7.17534
 6.96004
 10.2562
 10.2245
 10.1698
 10.2456
 12.1303
 12.0955
 11.9962
 12.1661
 8.87149
 9.08739
 8.95779
 9.12758
 8.4119
 8.41314
 8.27421
 8.44389
 6.66578
 6.67148
 6.76911
 6.92745
 12.6002
 12.7039
 12.5503
 12.6266
 8.85659
 8.97437
 8.7731
 8.82997
 4.4847
 4.6168
 4.6503
 4.60487
 6.08624
 5.92723
 5.9926
 6.05611
 6.02035
 6.04324
 5.87142
 6.09768
 6.07733
 6.22838
 6.2751
 6.19695
 5.96863
 5.72457
 5.86857
 5.887
 7.61464
 7.54525
 7.61875
 7.62219
 10.0779
 9.85101
 9.70047
 9.67025
 9.77179
 7.15409
 7.35865
 7.28703
 7.29635
 7.18863
 7.14044
 7.36526
 7.33629
 11.2905
 11.2254
 11.238
 11.2904
 5.53912
 5.54019
 5.62834
 5.53754
 6.42137
 6.26895
 6.09231
 6.21707
 10.2762
 10.0759
 10.1109
 9.89692
 9.89832
 9.92942
 9.83605
 9.74199
 9.7766
 9.67948
 10.0157
 10.1786
 10.3776
 10.2608
 7.19459
 7.00794
 7.05852
 7.23332
 4.41286
 4.36345
 4.45544
 4.36115
 8.42826
 8.50216
 8.38933
 8.58438
 4.89957
 5.21312
 5.30264
 5.32554
 8.82111
 8.85848
 8.92398
 8.76086
 7.14569
 7.30483
 7.40638
 7.38059
 10.1484
 10.173
 10.2012
 10.3128
 7.90671
 7.71567
 7.97515
 7.82195
 7.5917
 7.39858
 7.30023
 7.5722
 10.0281
 10.0911
 10.2154
 10.1508
 9.27441
 9.36927
 9.0846
 9.18238
 8.74315
 8.7642
 8.88495
 8.97066
 7.78342
 7.70942
 7.77745
 7.69354
 11.022
 11.0072
 10.9592
 10.858
 7.35724
 7.53621
 7.43648
 7.31783
 9.24488
 9.42563
 9.21629
 9.13683
 6.90828
 6.94733
 6.91175
 7.03643
 5.42712
 5.60026
 5.45921
 5.54292
 4.87855
 5.00377
 5.00085
 4.94216
 4.93326
 4.80824
 5.14183
 4.04166
 3.91752
 3.82731
 3.74324
 5.97513
 6.17647
 6.36591
 6.11775
 8.45673
 8.49199
 8.37571
 8.40049
 4.7665
 4.8947
 5.01664
 4.80359
 8.23163
 8.22035
 8.31585
 8.33814
 7.68851
 7.59743
 7.64614
 5.24835
 5.07243
 5.17772
 5.19568
 5.34413
 5.53545
 5.45704
 7.8854
 7.94123
 7.80305
 7.75599
 9.33255
 9.26123
 9.35463
 9.15542
 7.04038
 7.1751
 7.22217
 7.24922
 4.99519
 4.85891
 4.96112
 5.04157
 9.79674
 9.83917
 9.77276
 9.90737
 8.5503
 8.60375
 8.71292
 8.75764
 8.2929
 8.06304
 8.29659
 8.28503
 6.80058
 6.97217
 6.85191
 6.83812
 9.86672
 9.96294
 9.76184
 9.93566
 10.3649
 10.4732
 10.3544
 10.3728
 8.39964
 8.39922
 8.42355
 8.27205
 4.19204
 4.31161
 4.33217
 4.29512
 9.66461
 9.82881
 9.64371
 9.74273
 10.2379
 10.1206
 10.2793
 10.1283
 7.40457
 7.62737
 7.40136
 7.43229
 9.71643
 9.65101
 9.73681
 10.3541
 10.2357
 10.2871
 7.73861
 7.86542
 7.60491
 7.80665
 10.1496
 10.208
 10.3078
 10.1594
 10.2271
 10.3822
 10.2562
 10.2601
 7.33056
 7.28255
 7.37342
 10.0084
 10.0302
 5.61014
 5.57035
 5.29959
 5.26975
 7.04386
 6.79031
 6.79795
 6.87968
 11.0601
 10.9602
 11.1452
 10.9222
 11.8373
 11.7892
 11.9312
 11.7971
 9.63644
 9.8927
 9.74134
 9.72255
 5.26915
 5.27106
 5.16552
 5.24762
 7.06378
 7.18633
 7.26619
 7.19415
 10.7529
 10.7843
 10.792
 10.8106
 9.72578
 9.71496
 9.63754
 9.54125
 9.6705
 9.63533
 9.66914
 10.0376
 9.93698
 9.91986
 9.92292
 9.94675
 10.0499
 9.91565
 9.87598
 10.3158
 10.469
 10.3474
 10.4438
 4.75915
 4.57694
 4.71762
 4.71055
 4.81232
 4.63403
 4.92735
 8.49613
 8.60414
 8.47504
 8.65258
 9.77101
 9.9528
 9.74498
 9.79565
 4.01214
 3.8599
 10.3424
 10.4377
 10.4124
 10.4958
 7.97813
 7.70247
 7.8813
 7.75198
 7.46481
 7.52815
 10.1556
 10.1866
 10.0498
 10.1483
 4.73239
 4.58855
 4.80992
 4.45871
 4.2218
 4.3735
 4.25419
 3.95229
 8.78695
 8.71911
 8.77351
 11.2638
 11.1577
 11.2066
 9.91159
 9.73219
 9.92543
 9.88428
 6.43643
 6.61057
 6.3115
 6.58125
 9.39271
 9.49728
 9.53644
 9.62446
 9.61086
 9.68954
 9.55501
 9.7159
 7.13891
 7.14246
 7.07271
 6.8682
 12.4932
 12.4068
 12.507
 12.6017
 6.69807
 6.66494
 6.502
 6.53067
 6.57436
 6.59691
 6.44763
 6.38269
 10.3856
 10.3773
 10.5669
 10.427
 5.38671
 5.26874
 5.24436
 5.43202
 12.7111
 12.8402
 12.8372
 12.9277
 4.81642
 5.18171
 5.17238
 5.18526
 5.83907
 6.01157
 9.60815
 9.50934
 9.53484
 9.43132
 10.5307
 10.6654
 10.5852
 10.4818
 5.51653
 5.34684
 5.37866
 5.4549
 9.42914
 9.39305
 9.40322
 9.49557
 4.1366
 4.2621
 4.17716
 9.82028
 9.94215
 9.99137
 10.7032
 10.5471
 10.5106
 4.94851
 4.84541
 4.90566
 4.98026
 9.79552
 9.8808
 9.88549
 9.87354
 5.42485
 5.40585
 10.7556
 10.6559
 10.7597
 10.7256
 8.31628
 8.14884
 8.15568
 8.28568
 9.61653
 9.68186
 9.05999
 8.77241
 8.80123
 8.96473
 9.54002
 9.56135
 9.5478
 9.69623
 4.22632
 4.03862
 4.33012
 4.24679
 10.6022
 10.6651
 10.6352
 6.01612
 12.6503
 12.6873
 12.6769
 12.7222
 5.46894
 5.42451
 5.31976
 5.63601
 9.59408
 9.5781
 9.33246
 9.3997
 6.63362
 6.72755
 6.69968
 6.6583
 9.57445
 9.6786
 9.74108
 9.61106
 7.21562
 11.2759
 11.311
 11.3119
 11.2596
 7.1764
 7.17887
 7.22407
 7.35875
 5.93558
 5.85064
 5.74556
 6.08325
 5.99822
 6.19933
 5.97274
 5.41547
 5.19881
 5.34932
 5.32036
 10.3081
 10.2597
 10.0999
 10.183
 5.39879
 5.39766
 5.42647
 5.24742
 10.7899
 10.8132
 10.7867
 10.926
 5.58522
 5.47179
 5.40661
 5.4015
 8.5795
 8.66725
 8.68809
 8.72777
 6.71962
 6.61099
 6.55207
 6.50991
 7.8923
 7.97472
 8.02578
 8.07317
 4.70914
 4.98089
 8.17196
 8.31733
 8.28746
 8.17615
 11.1587
 11.2153
 11.0551
 11.2119
 10.7498
 10.8044
 10.617
 10.7777
 7.90941
 7.77201
 7.74573
 7.73418
 6.58109
 6.59121
 6.61509
 6.39372
 6.21383
 6.38791
 6.27558
 6.169
 5.14737
 5.35852
 5.29619
 5.43426
 6.22647
 5.98595
 6.11877
 6.21935
 10.7218
 10.7333
 10.6455
 10.8182
 10.1864
 10.2018
 10.2293
 10.0282
 3.87123
 4.03067
 4.09222
 4.07305
 7.67721
 7.58858
 7.63733
 7.38895
 10.0037
 9.82819
 9.9881
 9.89051
 12.1967
 12.2141
 12.0757
 12.2722
 5.40212
 5.31411
 5.48857
 5.12568
 9.93543
 9.89909
 9.86326
 9.77105
 8.94034
 8.80813
 9.02823
 8.90771
 10.9193
 10.9564
 10.931
 10.8299
 7.34839
 7.44491
 7.36769
 7.35622
 4.99443
 4.98029
 5.05714
 4.9979
 7.62206
 7.86824
 7.77991
 7.82292
 8.77576
 8.72755
 8.58793
 8.67043
 11.0536
 10.9856
 10.9236
 11.1109
 4.95593
 6.92996
 6.80107
 7.00799
 6.80016
 8.91162
 8.98747
 9.1178
 9.04825
 6.47091
 6.36617
 6.39926
 6.23819
 9.95504
 10.0826
 10.0116
 9.91767
 7.42971
 7.31028
 7.50319
 11.1417
 10.9564
 11.0955
 11.0993
 5.87075
 6.20902
 6.00548
 6.10564
 10.5611
 10.5872
 10.4863
 10.5629
 3.28129
 3.36131
 3.30196
 3.17005
 9.95029
 9.92847
 9.90547
 9.93094
 11.9116
 11.6415
 11.6702
 11.7711
 11.1833
 11.1989
 11.0927
 11.091
 3.93891
 4.05781
 4.11818
 4.18538
 4.67799
 4.6911
 4.58293
 4.55884
 8.49541
 8.35392
 8.41302
 8.33155
 9.7679
 9.81598
 9.72451
 8.02766
 8.04943
 8.26209
 8.18631
 7.00332
 7.09541
 6.88661
 6.89214
 7.93682
 7.62607
 7.73089
 7.76833
 8.24808
 8.21251
 7.93877
 8.07009
 3.91235
 4.06493
 4.05971
 4.13695
 10.271
 10.3306
 10.1234
 10.2682
 11.1416
 11.3518
 11.3296
 6.56742
 6.67716
 6.64934
 6.74507
 5.63869
 5.46205
 5.57434
 5.61183
 9.92578
 9.9487
 9.89738
 10.2156
 10.1888
 10.1057
 10.3141
 5.18251
 5.29909
 5.10858
 5.39681
 8.58263
 8.62299
 8.46314
 8.5779
 10.0992
 10.2534
 10.1277
 10.1312
 8.97079
 9.05688
 9.04239
 8.93409
 5.88517
 5.88041
 6.04623
 5.87939
 9.92231
 9.73257
 10.0102
 9.7917
 8.79917
 9.03925
 8.98662
 8.88166
 9.54589
 9.37179
 9.49744
 4.7542
 4.79242
 4.91736
 4.92623
 8.43037
 8.42331
 8.52677
 8.34577
 3.80645
 3.89997
 3.52593
 8.17808
 8.07837
 8.12908
 8.17655
 10.9768
 10.8748
 11.0431
 10.9865
 7.66512
 7.6277
 7.53841
 7.3876
 8.28882
 8.07563
 8.34577
 9.87133
 9.83751
 9.70491
 9.76892
 10.6297
 10.585
 10.6716
 10.5512
 9.96213
 9.87122
 9.78346
 9.97076
 11.9852
 11.9493
 11.8332
 11.8153
 9.16898
 9.20498
 9.27134
 9.28849
 9.57643
 9.64108
 9.43874
 9.67376
 4.96704
 5.2475
 5.19079
 4.87195
 10.5764
 10.3994
 10.4586
 10.499
 7.23018
 7.29849
 7.18727
 7.11232
 4.2101
 4.16773
 4.28629
 4.38553
 4.17025
 4.44536
 4.32026
 4.25284
 6.07225
 5.95467
 6.06406
 6.02203
 4.14978
 3.88309
 3.91014
 4.27598
 5.0084
 4.99196
 5.01758
 3.74999
 4.07105
 3.9833
 3.9821
 10.9767
 11.0423
 10.9824
 11.0856
 8.93383
 9.11604
 9.15005
 9.08663
 9.44706
 9.27597
 9.40889
 9.26763
 9.33802
 9.43241
 9.42594
 9.47033
 4.81461
 4.95612
 4.7994
 4.75642
 9.08843
 9.08142
 9.21963
 9.2579
 9.90619
 10.0695
 10.0898
 9.95282
 6.78205
 6.83184
 6.65028
 6.89305
 9.71596
 9.58515
 9.71965
 9.60206
 6.50654
 6.6475
 6.7148
 8.05247
 7.87949
 7.84006
 5.21973
 5.43256
 5.42606
 5.35297
 8.95872
 8.89796
 9.01377
 9.01429
 7.23192
 7.38665
 7.33272
 7.19393
 9.38641
 9.56994
 9.49017
 9.33722
 3.78197
 3.89746
 4.43963
 4.51838
 4.5954
 4.35162
 11.0648
 11.1154
 11.1137
 11.1961
 7.22964
 7.0941
 7.05883
 6.92831
 9.85824
 9.70563
 9.8472
 9.92796
 13.0963
 13.2706
 13.1063
 13.1593
 9.90596
 9.97246
 10.061
 9.96106
 6.65106
 6.82212
 6.66019
 10.6323
 10.6503
 10.4711
 10.4897
 4.3193
 4.51779
 4.27647
 4.46014
 9.86441
 9.80322
 9.85083
 9.7854
 7.39885
 7.23054
 7.29224
 7.38323
 10.8654
 10.8255
 10.9594
 10.8611
 12.3662
 12.3513
 12.3172
 12.2624
 10.1087
 9.99477
 10.1105
 10.1495
 9.1376
 9.19951
 9.08325
 7.84487
 8.10695
 7.84356
 7.95407
 10.3389
 10.3189
 10.45
 6.38712
 6.46423
 6.34048
 6.22435
 6.05953
 5.79866
 6.07506
 5.84987
 6.73483
 6.94217
 6.78476
 6.74918
 4.54027
 4.9706
 4.82358
 4.76015
 6.15391
 6.26135
 6.13901
 9.53348
 9.42826
 9.45483
 9.37773
 6.3788
 6.54469
 7.03856
 7.19958
 7.25844
 7.12607
 6.71331
 6.78221
 6.74649
 6.64336
 9.99297
 9.92659
 9.95779
 10.0833
 9.98332
 9.8749
 9.97889
 9.86773
 13.113
 13.0348
 13.0072
 13.0605
 9.99877
 9.87708
 9.99841
 9.4315
 9.49028
 9.52657
 9.47562
 8.25735
 8.25791
 8.34739
 8.38148
 9.44869
 9.30457
 9.29398
 9.39699
 10.9954
 10.9191
 11.0168
 11.0136
 5.85692
 6.10934
 5.92085
 6.04211
 8.54286
 8.42625
 8.53885
 8.65137
 5.03488
 5.03423
 5.09806
 4.97535
 7.84794
 7.9929
 7.85987
 7.96093
 4.71222
 4.60936
 4.68542
 12.2445
 12.1323
 12.1712
 12.162
 6.77922
 6.50065
 6.71596
 6.68981
 8.73637
 8.86963
 8.70671
 8.78102
 10.2281
 10.3295
 9.39454
 9.36009
 9.2821
 9.31574
 8.87886
 9.06081
 9.02624
 5.1223
 5.05709
 5.23755
 5.10577
 4.93942
 5.05031
 5.20249
 5.13167
 10.3058
 10.3393
 10.2554
 10.3266
 8.65683
 8.70053
 9.74303
 9.59902
 9.69424
 9.81452
 6.25239
 6.40444
 6.10814
 6.09581
 10.9606
 10.9349
 10.9786
 10.8941
 10.1082
 10.0643
 10.1801
 10.1912
 9.80389
 9.64753
 9.57687
 9.65498
 8.05943
 8.07935
 8.08162
 7.85104
 6.55437
 6.57683
 6.68491
 6.69784
 6.18032
 6.29735
 6.43656
 6.27035
 12.7124
 12.7334
 12.7792
 12.8187
 10.5967
 10.4636
 10.412
 7.77253
 8.06307
 7.89114
 7.6187
 7.48238
 7.64109
 7.43948
 4.95996
 4.81673
 4.92498
 4.75394
 8.50727
 9.85516
 9.85532
 9.99799
 9.9773
 7.09249
 7.19108
 7.33872
 7.26601
 5.97548
 6.18157
 6.1673
 5.9441
 5.7551
 5.72913
 10.3045
 10.3616
 10.4253
 10.4448
 8.1951
 8.05923
 8.10852
 8.04187
 10.7166
 10.7571
 10.7178
 10.6651
 7.52332
 9.1711
 9.26449
 9.03208
 8.9768
 9.48412
 9.38414
 9.32206
 9.41774
 4.94463
 5.15197
 4.59084
 4.43921
 4.34547
 4.5032
 11.5894
 11.695
 11.6329
 11.5888
 6.18841
 6.16135
 6.38281
 6.09132
 7.6068
 7.8099
 7.72308
 7.54072
 12.5222
 12.4861
 12.4873
 12.5699
 8.30396
 8.29884
 8.21891
 8.38186
 8.43456
 8.61164
 8.71118
 8.70345
 10.266
 10.3994
 10.2143
 10.2747
 4.00857
 3.81984
 3.80512
 3.77729
 8.59062
 8.75467
 8.73762
 9.57115
 9.42588
 9.4216
 9.55625
 4.43649
 4.1741
 4.3693
 4.33349
 9.61959
 9.70486
 9.82218
 9.58464
 8.78412
 8.67381
 5.76949
 5.76953
 5.61858
 5.9268
 7.82638
 7.80301
 7.60485
 7.61091
 4.5379
 4.65351
 4.43647
 4.54794
 8.68143
 8.43454
 10.0569
 10.0039
 9.9704
 9.9796
 9.66722
 9.64024
 9.53979
 9.49113
 5.57156
 5.54537
 5.77396
 5.69358
 6.15121
 6.23683
 6.08271
 6.08651
 6.28611
 6.49238
 6.30584
 6.33926
 9.6414
 9.45886
 9.53347
 9.62763
 11.6624
 11.7445
 11.7058
 11.6645
 4.12959
 3.92603
 4.11511
 4.02061
 10.3694
 10.3593
 10.3411
 10.2648
 7.94958
 7.82145
 7.79049
 7.91882
 9.30171
 9.07211
 9.2321
 9.14886
 7.96109
 8.15497
 7.9818
 7.26664
 7.06157
 7.25721
 7.01434
 8.40937
 8.29331
 8.37589
 8.50525
 6.6512
 6.57531
 6.43635
 6.68986
 6.64051
 6.70897
 6.62999
 6.91656
 12.5001
 12.3304
 12.4902
 10.8179
 10.6845
 10.6135
 10.6676
 7.91931
 8.03375
 7.9862
 7.9984
 5.81487
 5.61353
 5.72422
 5.60409
 9.832
 10.0094
 9.83453
 9.76393
 9.67704
 9.66457
 7.54786
 7.6402
 7.52383
 7.51846
 8.03837
 7.88362
 7.83313
 7.81005
 2.99208
 3.03567
 3.1377
 2.93069
 11.158
 11.1085
 11.1965
 11.3513
 6.45112
 6.40083
 9.1208
 8.96817
 8.95021
 9.10545
 6.81668
 6.71013
 6.729
 6.68351
 7.6619
 7.62764
 7.51512
 7.57554
 8.96417
 8.95501
 8.81428
 9.06389
 7.08779
 6.92722
 6.9745
 6.94645
 10.2986
 10.2388
 10.2558
 10.15
 10.6844
 10.7996
 10.6667
 10.7316
 5.82566
 5.74833
 5.61164
 5.3479
 8.00421
 7.9183
 7.79064
 11.8333
 11.8917
 11.7895
 5.50338
 5.38834
 5.3618
 5.29713
 5.2558
 5.31489
 5.40781
 5.42567
 8.33042
 8.29322
 8.25411
 8.17053
 4.95014
 4.83028
 4.87161
 4.85777
 4.44036
 4.2084
 4.40662
 4.17775
 8.89764
 8.82497
 8.70423
 8.86158
 5.97773
 5.88776
 5.81449
 5.83287
 3.128
 3.07334
 3.24657
 3.03387
 6.29251
 6.27821
 6.38467
 6.12237
 7.85523
 8.08368
 7.98529
 8.1457
 5.62096
 5.5239
 5.66498
 5.7149
 6.79742
 6.83991
 6.71273
 7.37462
 7.22632
 11.3889
 11.3689
 11.4182
 11.4616
 7.43594
 7.26771
 7.31267
 7.33989
 11.5841
 11.5533
 11.5313
 11.5243
 11.4393
 11.4664
 11.3301
 11.2923
 7.7048
 7.62377
 7.61046
 7.757
 9.15931
 9.15989
 9.28907
 9.09714
 7.12573
 6.94137
 6.99004
 7.01056
 8.21611
 8.33451
 10.8715
 10.9428
 10.9096
 10.7981
 4.28782
 4.21451
 4.12085
 4.26373
 9.06611
 9.17581
 8.93818
 9.04033
 5.45241
 5.52181
 5.66643
 5.54307
 10.8397
 10.942
 10.8388
 10.8927
 5.14929
 4.85465
 4.94402
 4.90055
 7.38809
 7.61189
 7.43429
 7.45842
 9.76982
 9.91471
 10.0211
 9.93859
 3.43556
 3.52257
 3.50287
 3.6327
 9.52271
 9.35182
 9.48503
 9.5245
 8.83497
 9.05234
 8.90142
 8.99551
 4.22493
 4.18926
 4.36428
 4.17068
 8.3309
 8.55931
 8.49055
 8.49609
 5.63219
 5.49468
 5.58397
 5.64928
 5.69492
 5.82977
 5.77307
 8.77748
 9.04127
 8.92579
 8.97022
 5.78178
 5.61855
 5.7316
 5.67083
 10.4153
 10.2642
 10.2821
 10.4197
 5.31078
 5.19188
 5.20429
 5.28588
 5.39764
 5.46496
 5.35911
 5.43402
 10.1301
 10.1622
 9.90649
 10.0418
 10.0373
 10.091
 9.95254
 10.1516
 13.5415
 13.5107
 13.6047
 13.5797
 6.17562
 6.38418
 6.35833
 11.3573
 11.1842
 11.181
 11.2594
 4.58808
 4.75051
 4.71008
 4.68149
 10.1706
 5.50519
 5.69824
 5.64383
 5.50148
 5.49743
 5.65758
 5.65229
 12.6918
 12.8197
 12.7829
 12.7234
 12.8639
 12.8632
 12.8858
 12.9207
 4.6218
 4.79072
 4.64268
 4.51961
 10.015
 10.0784
 9.94361
 10.1038
 6.85849
 6.94548
 6.74865
 9.36173
 9.48833
 9.37165
 9.57231
 8.78159
 8.77223
 8.83466
 5.48238
 5.55746
 5.28591
 7.62448
 7.50769
 7.48385
 7.60128
 9.31345
 9.46693
 9.47474
 9.36189
 10.1764
 10.1285
 10.2012
 10.1424
 6.88076
 6.76666
 6.74934
 10.8856
 10.8202
 11.0094
 11.0139
 10.0505
 9.79078
 9.96577
 8.90208
 8.65637
 8.7047
 8.80884
 10.1836
 10.0466
 10.0558
 10.1052
 10.1184
 9.93821
 9.90513
 9.95
 5.35322
 5.48412
 5.46626
 5.49912
 8.61975
 8.75721
 8.65516
 8.57276
 9.54525
 9.57508
 7.85599
 7.97102
 7.89352
 8.05614
 4.77136
 4.76306
 4.69227
 4.74197
 4.77064
 13.6749
 13.7078
 13.7217
 13.6762
 5.97553
 5.78208
 5.89236
 4.00285
 4.05311
 4.15067
 4.04061
 6.38353
 6.63073
 6.5808
 6.61904
 10.213
 10.1586
 10.0835
 10.2214
 8.74944
 8.86143
 8.90414
 8.89092
 3.84547
 3.85317
 3.91
 3.94598
 6.16023
 6.2965
 6.40959
 6.27427
 10.9647
 11.073
 11.0815
 10.9072
 8.97043
 8.93446
 8.89953
 9.13852
 9.20211
 9.12866
 9.04468
 9.16973
 13.696
 13.714
 13.7133
 13.6879
 10.4277
 10.4571
 10.5001
 10.3713
 6.1925
 5.96881
 6.20334
 6.08716
 7.47514
 7.49093
 7.3314
 7.54324
 8.52866
 8.42526
 8.29502
 8.48142
 6.66425
 6.48277
 6.54061
 6.54666
 7.37587
 7.37491
 7.22759
 7.39205
 6.519
 6.52021
 6.65385
 6.31919
 3.38001
 3.69412
 3.60157
 3.29696
 5.91962
 6.01503
 6.056
 6.29849
 6.60732
 6.72046
 6.8398
 6.65519
 6.90862
 7.92288
 7.92892
 8.03553
 7.76882
 4.654
 4.72744
 4.76807
 4.76057
 8.66549
 8.75728
 8.60452
 8.66248
 7.61704
 7.54234
 7.45381
 7.71731
 8.17445
 8.34559
 8.22815
 8.09177
 9.25015
 9.46344
 9.30299
 9.43915
 12.1105
 12.0516
 11.9074
 12.1218
 3.13865
 3.42885
 7.10625
 7.20628
 7.22082
 13.2568
 13.2548
 13.2638
 9.81665
 9.9201
 9.85272
 9.97224
 11.4083
 11.3906
 11.5691
 11.5768
 10.4413
 10.5104
 10.4096
 10.5892
 4.42524
 4.68833
 4.57155
 4.5459
 7.96904
 8.16783
 8.08768
 8.19419
 6.78477
 6.58861
 6.60085
 6.43568
 7.41382
 7.46198
 7.57995
 7.68813
 6.55434
 6.48274
 6.62903
 6.58301
 8.47907
 8.47398
 5.57508
 5.97229
 5.60814
 5.94304
 6.38201
 6.49795
 6.58412
 6.25126
 9.85819
 10.0271
 9.83541
 10.002
 9.90759
 9.86558
 9.86979
 9.85198
 7.74733
 7.72546
 7.79226
 7.67694
 7.81225
 7.71459
 7.60589
 7.48747
 10.4912
 10.6703
 10.7207
 10.4486
 6.52539
 6.65577
 6.71806
 6.73959
 3.55685
 3.66485
 3.57744
 3.6468
 5.42947
 5.53185
 5.5176
 5.60246
 3.36569
 3.26989
 3.44935
 3.22414
 5.20639
 5.01319
 5.06507
 5.05427
 8.02893
 7.81764
 8.00192
 7.95135
 6.79705
 6.91406
 8.3965
 8.19618
 8.4467
 8.33686
 9.94157
 9.8069
 9.82551
 9.77271
 6.09587
 5.8492
 5.84002
 6.0201
 8.45729
 8.49796
 8.45109
 8.63077
 8.86798
 8.99009
 9.03216
 8.96229
 10.1598
 10.1567
 10.088
 9.96768
 9.61587
 9.6293
 9.70539
 9.48475
 10.0255
 9.93437
 9.91176
 9.97854
 12.015
 11.9944
 12.0798
 12.0506
 6.24169
 6.17767
 6.3709
 6.2166
 6.94982
 6.90198
 11.7182
 11.6826
 11.6961
 11.8238
 9.4066
 9.35218
 7.11075
 7.24795
 7.08463
 5.59379
 5.5472
 10.4339
 10.4568
 10.5236
 10.3571
 11.8563
 11.7829
 11.7896
 11.7546
 10.6366
 10.5583
 10.4778
 10.4495
 9.43043
 9.32424
 9.28729
 9.25985
 7.39404
 7.60274
 7.60923
 7.59344
 6.75863
 6.83409
 6.85868
 6.88997
 9.49989
 9.35936
 9.3449
 9.38511
 7.67611
 7.69196
 7.6134
 7.86024
 8.05257
 8.1679
 8.20466
 8.119
 7.89877
 7.7793
 7.69916
 7.78069
 7.73428
 7.97947
 7.72646
 8.40108
 8.52445
 8.27292
 8.37929
 9.1199
 9.05262
 9.22802
 9.14216
 10.0384
 9.9217
 10.1132
 9.92745
 4.62227
 4.68358
 4.56715
 4.44895
 8.63438
 8.63608
 8.47333
 8.48472
 10.6926
 10.6941
 10.8937
 10.7377
 10.9659
 10.9497
 10.99
 11.0326
 10.629
 10.7227
 10.7161
 10.6547
 10.0572
 10.0711
 9.90808
 9.87776
 10.0854
 10.1742
 10.2124
 10.1507
 5.04407
 4.93182
 4.92806
 4.88407
 8.79277
 8.79639
 8.82883
 8.67262
 6.42393
 6.27561
 6.41872
 6.49254
 10.0084
 9.83451
 10.0446
 9.91515
 4.44725
 4.37659
 4.39042
 4.21915
 4.1509
 4.1883
 3.98748
 6.45686
 6.80109
 6.68659
 6.67335
 9.79453
 9.7239
 9.87853
 9.75574
 3.66621
 3.92705
 3.87209
 9.00003
 9.12274
 9.03521
 9.23198
 5.23838
 5.20781
 5.62145
 5.55826
 5.39982
 5.61277
 9.25122
 9.34589
 9.28528
 10.7474
 10.6954
 10.8504
 10.7988
 9.98104
 10.0581
 9.91775
 9.91046
 8.13621
 7.95333
 8.18446
 4.21025
 4.55443
 4.52446
 6.48763
 6.69706
 6.76015
 6.64492
 4.20264
 4.25927
 4.4953
 4.03746
 8.89533
 8.72635
 8.6469
 8.74996
 5.03405
 4.98959
 4.89553
 5.17516
 8.00018
 7.96061
 8.07763
 8.1577
 9.64659
 9.79059
 9.71553
 3.82602
 3.99785
 3.90143
 3.63564
 7.009
 7.58637
 7.38326
 7.4524
 7.54752
 7.25091
 7.23153
 7.36448
 9.72738
 9.8147
 9.80104
 9.80684
 9.81184
 9.62841
 8.80843
 8.96786
 8.97475
 9.00453
 8.80705
 8.61822
 8.76309
 8.65185
 6.61241
 3.63449
 3.92189
 3.9716
 3.78526
 12.4089
 12.5378
 12.4674
 12.4805
 9.44213
 9.53272
 9.77187
 9.82089
 9.75026
 9.71445
 9.82999
 9.81404
 10.0068
 9.93511
 6.35839
 6.57905
 6.55622
 6.44163
 6.21151
 6.12351
 6.34013
 6.18058
 9.47285
 9.59858
 6.78574
 6.76126
 6.53507
 6.6835
 6.71556
 6.51968
 6.70042
 7.63939
 7.76411
 7.85558
 7.91065
 8.59952
 8.74719
 8.611
 8.75705
 6.3406
 6.09061
 6.12035
 6.31632
 5.73466
 5.68162
 5.56094
 5.74296
 5.98126
 5.78648
 5.93214
 6.2484
 6.18895
 6.22498
 6.37736
 8.84583
 8.8018
 8.78055
 8.90726
 11.346
 11.3788
 11.2969
 11.2825
 9.23176
 9.25062
 9.32827
 9.28979
 5.7148
 5.90365
 6.03174
 5.86016
 6.82421
 6.90038
 6.91154
 6.75421
 9.17721
 9.09204
 9.03547
 9.01951
 6.87462
 7.05562
 6.93865
 6.88419
 7.78872
 7.72975
 7.97139
 7.72202
 7.81298
 7.64722
 7.71049
 7.65013
 6.9641
 6.84343
 6.85949
 4.84472
 4.78565
 4.89423
 4.85445
 9.28589
 9.133
 9.20391
 9.18768
 8.40124
 8.23855
 8.25912
 8.29749
 11.1706
 11.2496
 11.2341
 11.1176
 10.1412
 10.034
 10.0497
 10.1227
 9.96501
 10.1869
 10.0813
 10.2146
 10.2264
 10.1463
 10.1661
 10.1095
 7.83327
 7.926
 7.89137
 10.7657
 10.7943
 10.7277
 10.7016
 10.3834
 10.3295
 10.2301
 10.3646
 3.78248
 3.98338
 3.99451
 3.85457
 7.74589
 7.8411
 7.9279
 7.9947
 5.75973
 5.74439
 5.84299
 5.92097
 7.43964
 7.35946
 7.47362
 7.58069
 7.01002
 6.87256
 7.01114
 6.96803
 9.72482
 9.84886
 9.7878
 9.96034
 8.22053
 7.90983
 8.1521
 8.11702
 5.63879
 5.50843
 5.64759
 5.58807
 7.34952
 7.4169
 7.18187
 7.22344
 10.2662
 10.3387
 10.188
 10.1331
 4.81022
 4.74374
 4.78453
 4.71268
 9.05838
 9.19617
 10.4125
 8.22628
 8.1502
 8.03563
 8.26327
 8.65059
 8.50131
 8.67506
 8.70997
 11.7571
 11.7781
 11.65
 9.30628
 9.4495
 9.48315
 9.57001
 7.38026
 7.10397
 7.22025
 7.0678
 8.01365
 7.88638
 7.96142
 8.01859
 4.95272
 4.86483
 4.8457
 4.90261
 10.0862
 9.85427
 10.0155
 9.7976
 9.80541
 9.84686
 9.65899
 11.4782
 11.6582
 11.562
 11.4902
 10.1524
 9.98527
 10.1017
 7.45655
 7.11993
 7.40301
 10.2528
 10.2704
 10.3873
 10.3289
 8.59972
 8.45095
 8.41567
 8.42671
 13.678
 13.6827
 13.6762
 13.6011
 8.83251
 8.88719
 8.88273
 10.7244
 10.7513
 10.7259
 10.7248
 8.83406
 8.90885
 9.04149
 8.91817
 10.3527
 10.23
 10.2389
 10.1772
 6.61312
 6.5372
 6.64817
 6.49289
 6.15913
 6.30985
 6.18307
 6.10006
 4.1588
 4.16021
 4.06002
 4.29759
 7.65096
 7.86674
 7.69723
 7.63877
 10.4061
 10.555
 10.4192
 10.5031
 9.60668
 9.66585
 11.2376
 11.2348
 11.1913
 11.1944
 8.4994
 8.43533
 9.28774
 9.05412
 9.1032
 9.93668
 9.84897
 9.78141
 9.86039
 4.48308
 4.39672
 4.67276
 4.63598
 4.7965
 4.84693
 4.92345
 4.82949
 9.75076
 9.6949
 9.7851
 9.90864
 10.7763
 10.7364
 7.44822
 7.38571
 7.43469
 7.2693
 9.90802
 9.96599
 9.84789
 9.86048
 9.05522
 9.24676
 8.92403
 3.18066
 3.10763
 3.29466
 8.09573
 7.8794
 7.96053
 7.95427
 5.22651
 4.9982
 5.26684
 5.36846
 7.80494
 7.6508
 7.61445
 7.82221
 6.37595
 6.23453
 6.20516
 6.47141
 10.4584
 10.3312
 10.4396
 10.4982
 9.88617
 9.7006
 9.94262
 9.75504
 7.76553
 7.93472
 7.6129
 7.82724
 9.21543
 9.0485
 9.00354
 9.23008
 10.4356
 10.3828
 10.3329
 10.2054
 8.57537
 8.50109
 8.40407
 8.32103
 6.88302
 6.8537
 6.97213
 7.91217
 7.7383
 7.85776
 7.76039
 13.0833
 12.9714
 12.905
 12.9807
 10.7733
 10.7756
 10.748
 10.7638
 9.32274
 9.32952
 9.3362
 9.18575
 11.8508
 11.7386
 11.9048
 11.8054
 5.13567
 5.14826
 5.30301
 3.93492
 4.08538
 4.26248
 4.10764
 6.04819
 5.72879
 5.85209
 5.84989
 7.97685
 6.93966
 6.72182
 6.65517
 6.81223
 8.22234
 8.09758
 8.30078
 8.30262
 10.5111
 10.6437
 10.5703
 9.79216
 9.75314
 9.70966
 9.91236
 13.0552
 13.172
 13.0699
 13.2161
 11.6131
 11.62
 11.5694
 11.5931
 9.39731
 9.39971
 9.30407
 9.21426
 3.75498
 4.03633
 3.94353
 3.96972
 12.7553
 12.7403
 12.6323
 12.6611
 6.57924
 6.40796
 6.69556
 6.50186
 7.96145
 7.94858
 7.79043
 7.93373
 9.70842
 9.95933
 9.94891
 8.40131
 8.57648
 8.60409
 8.5941
 4.08643
 4.02337
 3.97047
 10.4132
 10.1966
 10.1654
 8.83391
 8.77822
 8.60098
 8.637
 9.41696
 9.45787
 9.49929
 9.53406
 9.27801
 9.30873
 9.13463
 9.10095
 10.6958
 10.7802
 10.7731
 10.6296
 8.45614
 8.34439
 8.50659
 8.33514
 4.35241
 4.65152
 4.643
 4.79423
 5.04228
 5.09798
 5.11084
 4.93844
 10.9467
 10.9256
 10.9104
 10.9424
 5.34744
 5.26866
 5.28686
 5.50468
 4.62194
 4.36125
 4.43532
 4.67996
 5.33955
 5.35269
 5.57194
 5.54827
 7.11373
 7.14776
 7.00548
 7.07978
 8.15756
 8.27774
 8.10182
 9.38792
 9.61384
 9.54637
 9.4994
 6.1657
 6.28723
 6.39631
 6.15014
 6.10227
 6.01958
 5.92656
 5.98403
 3.10799
 3.10509
 3.40758
 3.22328
 11.7158
 11.6284
 11.6538
 11.633
 11.1946
 11.2565
 11.2259
 11.1341
 10.637
 10.6661
 10.4922
 10.6733
 9.24839
 9.45725
 9.31441
 9.32562
 9.09359
 9.07645
 9.08307
 4.52573
 4.39116
 4.19832
 4.3169
 5.91744
 5.99968
 6.1011
 6.09906
 8.46434
 8.58105
 8.63069
 8.53769
 4.92983
 4.80979
 7.53211
 7.52869
 7.53462
 7.6911
 5.11454
 5.02664
 4.79119
 4.98178
 7.78846
 7.5695
 7.83343
 7.54748
 9.42898
 9.33486
 9.55186
 9.47535
 11.1184
 11.2097
 11.132
 11.0261
 13.1676
 13.0541
 13.2135
 13.1163
 5.32119
 5.39374
 5.42316
 5.28669
 4.65074
 4.62864
 4.60986
 4.47999
 8.82255
 9.01007
 8.89347
 8.98858
 8.08963
 8.17902
 8.20476
 8.08385
 10.0046
 10.1443
 9.90761
 7.20121
 7.3364
 7.31944
 7.39154
 10.0581
 10.088
 9.98697
 9.98978
 8.33612
 8.4893
 8.619
 8.51817
 7.0064
 7.09924
 7.05097
 6.98189
 7.90151
 7.95673
 8.01648
 5.24338
 5.4288
 5.36609
 5.37
 7.17264
 6.96219
 11.9314
 11.7397
 11.9479
 11.8631
 6.28644
 6.41013
 6.33218
 9.70829
 9.66016
 9.6623
 9.7033
 7.31502
 7.3438
 7.39862
 8.19432
 8.35482
 8.17922
 8.28531
 7.26859
 7.46242
 7.16557
 7.33469
 7.10307
 6.90669
 12.6147
 12.6126
 12.7001
 12.6109
 12.9487
 13.0794
 13.1333
 13.0114
 8.06214
 8.25886
 8.18027
 8.26467
 7.41453
 7.51929
 7.42214
 7.55092
 12.521
 12.5444
 12.5105
 12.4201
 9.80015
 9.96219
 10.7135
 10.6859
 10.6343
 10.514
 7.0637
 7.1323
 6.89479
 7.03
 7.52816
 7.47082
 7.31545
 7.59806
 7.19547
 7.39279
 7.43844
 7.3895
 9.44347
 9.43596
 9.29319
 9.44466
 10.316
 10.3403
 10.4727
 10.2993
 11.3564
 11.2136
 11.2268
 11.3469
 10.2958
 10.3034
 10.2986
 10.0778
 6.21535
 6.35269
 6.17519
 6.2859
 8.06311
 8.44261
 8.25483
 11.8125
 11.7407
 11.6463
 6.79522
 6.51531
 6.66783
 6.67595
 6.58144
 6.91359
 6.74219
 6.68169
 8.76124
 8.86697
 8.92344
 8.58106
 8.52535
 8.37797
 8.5139
 10.3894
 10.4757
 10.5094
 10.5089
 5.6889
 5.75629
 5.61039
 5.68926
 10.6954
 10.7268
 10.7176
 10.662
 10.7473
 10.8279
 10.7539
 3.88311
 3.6252
 3.507
 3.70165
 5.44454
 5.31572
 9.67348
 9.73679
 9.59461
 9.64235
 8.21766
 8.03848
 8.21749
 8.53405
 8.6196
 8.57814
 8.72432
 10.4256
 10.3106
 10.372
 5.86518
 5.74484
 6.00819
 5.92323
 10.4094
 10.2192
 10.3534
 10.3826
 6.53606
 6.70015
 6.76917
 6.6878
 10.6403
 10.5699
 10.2564
 10.4128
 10.2939
 10.3617
 9.76972
 9.84442
 9.8065
 9.75937
 11.5982
 11.6426
 11.764
 11.676
 6.18533
 5.98579
 9.3342
 9.23982
 9.2223
 9.23684
 4.10481
 4.19
 4.13625
 4.05348
 9.38024
 9.46264
 9.26987
 9.15675
 5.85093
 5.6569
 5.59855
 5.58945
 4.79591
 4.57685
 4.9276
 4.62856
 6.5556
 6.7485
 4.73794
 4.56232
 4.62191
 4.68451
 10.4023
 10.426
 10.4295
 10.2947
 4.7918
 4.721
 4.69813
 4.80484
 3.85593
 3.61419
 3.64645
 3.81556
 7.41241
 7.40242
 7.24149
 7.29239
 8.40249
 8.46864
 8.28442
 8.20385
 4.96534
 5.21333
 5.06121
 4.95665
 11.7889
 11.6458
 11.729
 11.8237
 5.07289
 4.80839
 9.30439
 9.20197
 9.18142
 9.03909
 5.25503
 5.33697
 5.52002
 5.49695
 10.3628
 10.2259
 10.2501
 10.2568
 8.96548
 9.19319
 9.11362
 8.99531
 10.0523
 10.0961
 9.9182
 10.3753
 10.4537
 10.3709
 10.5059
 10.6805
 10.5603
 10.5958
 10.5362
 7.38869
 7.50174
 7.55636
 5.45177
 5.42968
 5.26103
 5.28828
 7.87075
 7.96157
 8.02121
 10.3613
 10.4667
 10.3909
 8.15907
 7.91329
 8.12495
 7.98165
 7.23805
 7.27548
 7.2191
 7.01488
 8.63602
 8.45231
 8.42648
 8.49631
 8.87528
 8.95595
 8.99824
 9.08834
 9.17636
 9.19542
 8.91311
 8.83367
 8.7321
 8.99391
 5.34827
 5.44243
 5.36099
 5.50996
 6.62974
 6.75293
 6.64754
 6.57105
 8.55762
 8.49543
 8.5766
 8.34001
 10.371
 10.4711
 10.3948
 7.84476
 7.95101
 7.84468
 7.81954
 9.55779
 9.75066
 9.68026
 9.76687
 12.2609
 12.2232
 12.2879
 12.3261
 9.1124
 9.19512
 9.15108
 9.16433
 5.15524
 5.19399
 5.00856
 5.07857
 9.16065
 8.9704
 9.07466
 9.16795
 10.5883
 10.5968
 10.5373
 10.4855
 10.3897
 10.4719
 10.4648
 8.49342
 8.46354
 8.50197
 7.12568
 9.23308
 9.46851
 9.32852
 9.33412
 4.83745
 4.88531
 4.76052
 5.19102
 5.14824
 5.06041
 9.21786
 9.06147
 9.17808
 9.08421
 3.7461
 3.66681
 3.60913
 3.5879
 10.3044
 7.59014
 7.74174
 7.62044
 7.67423
 10.2119
 10.1522
 10.1734
 10.142
 4.88828
 4.78556
 5.06515
 4.89214
 6.84668
 6.58074
 6.68858
 6.78782
 6.06261
 5.95465
 6.17522
 6.13072
 10.6751
 10.6298
 10.5686
 10.6749
 9.56412
 9.43333
 9.57472
 9.57095
 7.86354
 7.96495
 7.81364
 7.98413
 9.34202
 9.50601
 9.27848
 9.44008
 6.97278
 6.90277
 6.73449
 6.77611
 10.2084
 10.2704
 10.1262
 10.1306
 9.63415
 9.55461
 9.42878
 9.51215
 7.47607
 7.45767
 7.48855
 7.27066
 4.69614
 4.46746
 4.59888
 4.46205
 10.6293
 10.6031
 10.4793
 10.5355
 11.5031
 11.6583
 11.4942
 11.5089
 4.7815
 4.61735
 4.69076
 4.62849
 11.466
 11.5836
 11.2843
 11.3428
 11.3637
 11.2354
 8.1905
 8.09695
 8.24606
 8.35675
 9.57208
 9.48025
 9.48303
 9.63151
 3.22673
 3.14243
 3.16173
 3.29502
 4.94369
 4.962
 4.71749
 6.86276
 6.87932
 6.72789
 6.93965
 10.4382
 10.3984
 10.5406
 10.354
 9.67975
 9.70732
 9.75939
 9.82095
 9.727
 9.62072
 6.85873
 6.57315
 6.66389
 6.78069
 7.14427
 7.13884
 7.2941
 7.10126
 6.60455
 6.62132
 6.80247
 6.60993
 3.96498
 3.92724
 4.2838
 3.8501
 6.22253
 6.21223
 6.39604
 9.0282
 7.8705
 7.90992
 7.85746
 7.98967
 7.79904
 7.98489
 7.93057
 7.88768
 5.63186
 5.73257
 5.74427
 5.84541
 6.24936
 6.3613
 6.35517
 6.18003
 7.44402
 7.59704
 7.59729
 9.30403
 9.39649
 9.25825
 9.49148
 7.93405
 7.65755
 7.82592
 7.78529
 9.16964
 9.07379
 9.24797
 12.6919
 12.6935
 12.7674
 12.6371
 5.47829
 5.17824
 5.29624
 5.37091
 5.63107
 5.31079
 5.48486
 12.6059
 7.75294
 7.70985
 7.77518
 7.56088
 7.49484
 7.45634
 11.2624
 11.2306
 11.2457
 11.2007
 10.5946
 10.5497
 10.421
 10.6111
 9.84781
 9.76681
 9.78545
 9.94226
 10.0966
 10.0267
 9.933
 10.0941
 10.1117
 9.98736
 8.95526
 9.06894
 9.11493
 9.13306
 8.83127
 8.67304
 2.97457
 2.9638
 10.3351
 10.1119
 10.3449
 10.2043
 8.54924
 8.59866
 8.49377
 8.6718
 10.6975
 10.6602
 10.8811
 10.811
 5.29318
 5.17467
 5.4887
 5.36202
 5.64235
 5.79844
 5.65065
 5.81345
 7.007
 6.88339
 6.85599
 6.94152
 7.92508
 7.86706
 7.62857
 7.73771
 8.06671
 8.16231
 10.3678
 6.45211
 6.25881
 6.30203
 6.25989
 4.05709
 4.09633
 3.80976
 4.15209
 5.50453
 5.29695
 5.54596
 5.46129
 13.6696
 13.6701
 13.6522
 13.6158
 4.23304
 4.197
 4.28238
 4.27268
 9.91983
 9.91537
 10.0568
 9.8383
 9.30605
 9.4757
 9.40826
 9.53013
 6.73426
 6.71111
 6.61299
 6.58048
 6.72771
 6.77062
 6.86286
 6.81867
 10.4012
 10.1722
 10.2891
 10.2349
 4.50991
 4.42588
 4.53128
 4.50174
 5.24634
 5.13154
 5.18714
 5.06958
 6.41765
 6.38315
 6.25278
 6.25068
 4.95823
 5.09909
 5.03354
 4.95702
 9.58398
 9.43224
 9.43322
 9.37332
 10.3978
 10.3641
 10.3259
 10.279
 5.42
 5.56954
 5.6294
 5.58346
 8.69165
 8.70677
 8.76695
 8.90385
 8.43489
 8.51268
 8.54569
 8.44721
 12.9848
 12.9261
 12.8653
 12.9194
 4.3385
 4.29615
 4.86737
 4.82766
 5.00052
 4.72485
 10.9338
 11.0667
 11.1104
 10.9049
 9.54385
 9.73794
 9.73935
 9.81248
 5.17954
 5.307
 5.09547
 5.04969
 8.98636
 8.93456
 9.02631
 8.861
 9.13461
 9.08563
 9.26397
 9.25064
 4.06544
 4.01898
 4.1267
 4.18218
 7.92323
 7.96735
 7.91426
 7.8455
 8.30857
 8.25291
 8.29677
 8.40976
 6.06239
 5.96426
 5.90901
 6.00864
 6.95801
 7.00964
 7.06597
 7.16735
 8.88276
 8.85674
 9.06031
 9.53793
 9.41439
 9.49644
 9.28151
 11.2092
 11.2544
 11.2838
 11.0817
 9.28961
 9.19453
 9.16463
 9.13543
 8.09791
 8.19895
 8.11394
 8.2413
 3.90185
 3.83839
 3.86773
 4.10816
 9.29129
 9.0181
 9.16391
 9.16548
 10.8281
 10.8272
 10.9289
 11.0029
 6.50204
 6.33724
 6.41938
 6.55427
 7.26267
 7.28766
 7.37455
 7.98497
 7.75299
 7.7296
 7.66847
 11.3075
 11.3067
 11.2991
 11.2015
 7.72897
 7.88705
 7.82003
 7.95335
 4.6436
 4.62115
 4.62591
 4.59267
 7.90753
 7.89456
 7.8618
 7.78479
 10.7199
 10.8055
 10.7529
 10.7028
 10.1889
 10.0896
 10.2042
 10.3203
 2.85298
 2.91682
 2.83505
 2.82685
 9.6148
 9.58196
 9.60484
 9.79736
 7.32877
 7.59821
 7.51914
 7.45409
 3.09798
 3.07818
 3.21942
 3.21986
 4.85944
 4.60491
 4.73775
 6.49481
 6.51305
 6.30448
 6.24513
 5.22616
 5.21661
 4.9723
 5.29337
 12.3745
 12.2927
 12.2104
 12.2408
 10.0385
 9.88783
 10.0963
 4.29096
 4.0775
 4.11765
 4.09284
 7.41441
 7.45973
 7.28331
 7.51751
 5.95522
 6.00139
 5.77723
 6.11671
 10.5669
 10.5816
 10.6977
 10.7623
 9.02842
 8.85484
 9.05755
 8.92271
 6.92975
 7.20384
 7.11825
 11.1595
 11.1076
 11.0355
 11.0473
 10.266
 10.46
 10.3727
 10.4263
 9.17188
 4.26657
 4.16189
 4.22959
 4.0882
 12.131
 12.1293
 12.231
 12.2392
 6.09416
 5.79871
 5.94996
 5.75933
 7.20964
 7.33336
 7.26882
 7.45058
 12.7627
 5.5782
 5.72536
 5.49267
 4.37103
 4.12361
 4.26947
 4.2456
 8.52715
 8.48597
 8.24677
 8.42501
 6.99154
 6.99926
 6.85748
 7.09706
 9.95845
 10.1046
 8.22155
 8.3012
 8.29469
 8.11833
 9.96443
 10.0529
 10.1311
 10.0083
 9.42009
 9.48746
 9.26879
 9.27346
 6.58817
 6.70749
 6.58493
 6.52995
 11.7005
 11.7085
 11.7081
 11.5585
 10.4383
 10.5213
 10.4622
 10.5637
 11.4814
 11.3751
 10.8363
 10.841
 10.8238
 10.8293
 10.9765
 11.0711
 10.9175
 11.0449
 4.12589
 4.20677
 4.37932
 4.37797
 7.46788
 7.46666
 7.53904
 7.28253
 9.03854
 8.82475
 8.9659
 8.94613
 7.87574
 7.93835
 7.97859
 7.82155
 4.07044
 4.09675
 11.2194
 11.2883
 11.2729
 11.2161
 4.10985
 4.049
 4.20426
 11.9789
 12.025
 11.9835
 12.0486
 4.54948
 4.75056
 4.59745
 4.73944
 9.29185
 9.40408
 9.24445
 9.40722
 8.63169
 8.59987
 8.67778
 4.16473
 4.27432
 4.23826
 4.13052
 7.61221
 7.77062
 7.58448
 7.72782
 8.51687
 8.43978
 8.29108
 8.44337
 9.22408
 9.30911
 8.86468
 9.13356
 8.93236
 9.04265
 7.24922
 7.43107
 7.34738
 3.93408
 4.22431
 4.2525
 4.03185
 8.71301
 8.60591
 8.72806
 8.68928
 8.97628
 9.06469
 9.54638
 9.69989
 9.73761
 9.60541
 11.8606
 11.8415
 11.7259
 7.68854
 7.65184
 7.86769
 7.87413
 4.26248
 4.25254
 4.2313
 11.4627
 11.5506
 11.4612
 8.61895
 8.73882
 8.65712
 8.80552
 6.81881
 6.82123
 7.02747
 6.95523
 12.2718
 12.3172
 12.2816
 12.2618
 5.32896
 5.2737
 5.38644
 5.41371
 6.70722
 6.84101
 6.81773
 6.87822
 5.47539
 5.41837
 5.54375
 4.33008
 4.28868
 4.01217
 4.17832
 8.04877
 8.24337
 8.07166
 8.05142
 4.73955
 4.79081
 4.85675
 4.88962
 9.32242
 9.37545
 9.27265
 9.44597
 4.02116
 7.13735
 8.30701
 8.38231
 8.23183
 8.42986
 7.22546
 7.26481
 7.41703
 7.44206
 6.28146
 6.23062
 6.33965
 6.49913
 7.23392
 7.31109
 7.11414
 7.19824
 5.96597
 6.08669
 5.92375
 5.9527
 8.29581
 8.39638
 8.32625
 8.19053
 8.50674
 8.44873
 8.41952
 8.34824
 9.02137
 9.05646
 9.1144
 8.92394
 8.37039
 8.37757
 8.5219
 10.5903
 10.5622
 10.5904
 10.4837
 8.17363
 6.85177
 6.62438
 6.60795
 6.73322
 4.3682
 4.35234
 4.58225
 9.43826
 9.65623
 9.56421
 9.63068
 7.93384
 7.72723
 7.78206
 7.15505
 7.17555
 7.30401
 7.31767
 6.7854
 6.72537
 6.54928
 6.50466
 5.04949
 4.94948
 4.83188
 4.98712
 10.0497
 10.081
 9.98487
 10.2081
 7.78314
 7.89857
 7.93596
 7.99245
 8.4013
 8.49892
 8.60103
 8.42149
 8.58643
 8.69249
 8.71071
 8.81805
 8.25422
 8.3176
 8.22163
 8.3972
 6.23977
 6.54303
 6.19463
 6.40322
 8.54798
 8.80467
 8.7076
 8.6781
 11.2571
 11.2529
 11.2587
 11.2068
 11.3647
 11.2752
 11.2918
 8.24405
 8.21824
 8.07574
 8.05671
 8.15958
 8.08618
 8.02581
 7.97579
 8.41292
 8.55209
 8.32135
 8.32173
 4.52981
 4.50748
 4.74985
 4.71929
 6.22819
 6.40671
 6.41428
 6.21438
 9.68763
 9.59457
 9.61529
 9.57639
 10.475
 10.3192
 10.342
 10.5385
 5.22421
 5.26856
 5.38032
 5.21476
 12.0828
 12.1585
 12.1326
 12.0116
 9.1535
 8.99943
 9.08736
 9.10657
 10.8025
 10.7093
 10.7246
 10.117
 10.0281
 10.0123
 9.90518
 6.5508
 6.60601
 6.4645
 6.73675
 10.0352
 10.2415
 10.1632
 10.1079
 11.268
 11.0046
 11.1825
 12.2523
 12.1405
 12.0718
 12.1167
 3.83285
 3.7665
 3.66646
 3.50971
 9.90916
 10.0066
 9.92508
 9.87121
 7.41384
 7.64926
 7.60784
 7.45749
 4.72655
 4.85875
 5.00982
 4.88025
 5.77122
 5.52874
 5.85524
 5.71044
 9.77579
 9.75122
 9.85084
 9.78636
 10.8902
 11.0294
 11.1428
 10.9952
 7.79203
 7.68649
 7.85699
 7.76343
 10.8399
 10.6618
 8.858
 9.09141
 9.04555
 8.92101
 8.6578
 8.67156
 8.76505
 8.6071
 8.84958
 8.83529
 8.9156
 10.5444
 10.4951
 10.5439
 7.3243
 7.31977
 7.26395
 7.21137
 7.61275
 7.63358
 7.76052
 7.47559
 9.76449
 9.59161
 9.66833
 9.74907
 6.15281
 5.95428
 6.22579
 6.13418
 8.29546
 8.49829
 8.38841
 8.23036
 10.7211
 10.7222
 10.7519
 10.7268
 9.18797
 9.08108
 9.18338
 7.53401
 7.53714
 7.68972
 7.55306
 8.11281
 8.0171
 7.90869
 3.84757
 3.93067
 3.97314
 4.02133
 11.525
 11.5867
 11.5123
 11.688
 9.3793
 9.21885
 9.24166
 9.34084
 9.46047
 9.49635
 9.62485
 9.45629
 3.6708
 3.73963
 3.51241
 3.3607
 6.04731
 5.9483
 5.96663
 9.97878
 10.0127
 10.0708
 9.99833
 5.78246
 5.99846
 5.90641
 9.90374
 9.89442
 10.0018
 9.97064
 13.1557
 13.0796
 13.1457
 13.08
 4.75485
 4.6839
 4.54831
 4.78875
 10.5195
 10.5617
 10.625
 10.7436
 4.13562
 4.2
 4.22959
 4.17791
 10.1759
 10.0026
 10.1339
 10.0629
 13.1078
 13.242
 13.1289
 13.1298
 11.1282
 11.2681
 11.1503
 11.0804
 10.4676
 10.3598
 10.268
 10.4917
 8.26825
 8.5028
 10.4981
 10.4722
 10.6903
 10.6581
 7.37149
 7.45912
 7.51475
 7.61058
 8.47064
 8.46778
 8.55976
 8.34096
 4.85692
 5.09325
 4.69688
 4.65796
 5.26559
 5.37209
 5.23135
 5.16739
 5.68758
 5.81438
 5.71002
 5.85946
 5.13049
 5.09178
 5.04718
 5.17292
 6.7515
 6.80708
 6.63866
 6.77075
 5.6074
 5.4089
 5.46786
 5.55802
 11.394
 11.5622
 11.5842
 11.376
 4.9828
 4.86997
 4.92032
 4.94823
 8.93483
 9.05899
 9.1329
 9.0667
 6.04785
 6.34127
 6.25773
 5.23618
 5.0593
 5.07437
 5.14167
 10.448
 10.6038
 10.6186
 10.5611
 11.1847
 11.2304
 11.2993
 11.2623
 6.41504
 6.44838
 6.55203
 6.27637
 8.70131
 8.72345
 8.76224
 8.85423
 6.78315
 6.90813
 6.79577
 6.82032
 6.81341
 6.81492
 6.48651
 9.11832
 9.16309
 9.29396
 6.89155
 6.82594
 7.82168
 8.04118
 3.9327
 3.81768
 3.82433
 3.91843
 7.98183
 7.90747
 8.00031
 7.81385
 6.88464
 6.9724
 6.74388
 6.9673
 7.56089
 7.46399
 7.54188
 7.39291
 5.64075
 5.75615
 5.66343
 5.77704
 5.79735
 8.75021
 8.72785
 8.88702
 8.89229
 10.7655
 10.7652
 10.7627
 10.7509
 6.84172
 7.02171
 6.83813
 6.94473
 6.77675
 6.88378
 6.93114
 6.7381
 12.8624
 12.7872
 12.7437
 12.6563
 8.24074
 8.10187
 8.17348
 8.27205
 8.31515
 8.45617
 8.51435
 8.37486
 7.01588
 7.14589
 10.5076
 10.4692
 10.4085
 10.4896
 9.43135
 9.34434
 9.39612
 9.48557
 10.2827
 10.3464
 10.4015
 10.3875
 9.60129
 9.49531
 9.51684
 9.62666
 10.2206
 10.2325
 10.2976
 10.2026
 6.01155
 6.09137
 6.02372
 5.90582
 4.96131
 4.9772
 5.16563
 5.04606
 9.83001
 9.89558
 9.98047
 9.82031
 8.25219
 8.40187
 8.2682
 8.32615
 5.68927
 5.9075
 5.75153
 5.85558
 8.89658
 8.97414
 8.99132
 8.80461
 9.8449
 9.74088
 11.0309
 10.9707
 10.9356
 11.0442
 8.58088
 8.63435
 8.71604
 8.7868
 5.54285
 5.63031
 5.62527
 5.40413
 4.38399
 4.51378
 4.47237
 4.35856
 12.5212
 12.5141
 8.88063
 8.74928
 8.69489
 8.65971
 9.11119
 9.33247
 9.19066
 9.185
 9.31184
 9.36234
 10.1473
 10.0663
 10.0913
 10.0153
 8.49835
 8.35176
 8.28712
 11.3611
 11.2761
 11.2692
 11.2024
 5.11839
 4.97489
 5.2432
 5.09694
 4.55559
 4.56439
 4.55596
 3.72997
 3.88849
 4.04687
 3.90538
 7.67008
 7.41554
 7.51536
 7.47799
 8.27071
 8.0715
 8.35319
 8.17712
 6.05582
 5.78735
 5.68664
 5.85229
 6.98464
 7.00424
 6.83928
 6.99066
 7.31624
 7.15763
 7.23861
 8.00546
 7.97487
 8.06474
 7.86434
 6.5225
 6.19051
 6.30756
 6.4878
 8.8236
 8.89522
 8.8054
 8.78188
 8.12564
 8.17097
 7.99342
 8.22462
 6.96735
 7.00726
 7.09139
 6.924
 8.25825
 8.37569
 8.42404
 8.24194
 13.0633
 13.0986
 12.9838
 12.9862
 10.0626
 10.1222
 10.1194
 10.2208
 6.54042
 6.53509
 6.34514
 6.32328
 10.0687
 10.037
 10.2107
 10.2654
 10.4694
 10.6552
 10.4636
 10.3473
 5.34475
 5.37217
 5.246
 5.49433
 5.53451
 5.72639
 5.54986
 5.59296
 4.90995
 5.08032
 4.89676
 4.86226
 6.10419
 6.11439
 5.94865
 6.01242
 8.98595
 9.00683
 9.11255
 9.00587
 10.0416
 10.0928
 9.97584
 10.1169
 6.79653
 7.0595
 6.78464
 6.99365
 9.97144
 9.92613
 9.90748
 9.91539
 11.012
 10.9769
 10.9384
 10.8707
 8.43596
 8.30902
 8.41007
 8.28609
 9.28548
 9.38229
 9.49508
 9.15134
 9.10547
 8.91628
 9.07501
 10.8629
 10.9428
 11.0633
 10.9487
 9.87013
 9.89189
 9.95743
 9.91551
 6.68608
 6.57543
 6.66857
 6.58596
 8.05987
 7.91785
 7.89254
 3.72978
 3.92011
 3.90033
 3.78304
 4.53933
 4.37116
 4.23884
 4.42523
 9.32515
 9.21233
 9.38595
 9.21463
 7.66791
 7.54121
 10.6005
 10.6095
 10.7539
 10.5523
 8.01713
 8.16344
 8.24778
 8.1185
 4.83741
 4.78371
 4.96733
 4.81321
 9.99523
 9.96534
 9.90802
 8.8897
 8.86515
 8.82716
 9.02172
 9.23053
 9.01737
 9.05176
 9.1026
 8.35714
 8.18919
 8.17065
 8.39425
 8.48725
 8.39543
 8.2847
 8.41642
 7.96451
 7.86243
 7.98128
 7.8273
 8.65491
 8.54011
 5.93411
 6.01962
 5.72416
 5.96114
 8.5217
 8.67715
 8.62193
 8.52436
 7.28221
 7.53568
 7.44257
 8.58667
 8.43583
 8.53183
 8.44633
 7.37981
 7.46363
 7.55035
 7.42406
 10.1022
 10.2466
 10.1367
 10.3168
 8.78104
 8.80813
 8.63438
 7.68533
 7.66831
 7.45642
 7.78358
 8.523
 8.54625
 8.4344
 10.2898
 10.2394
 10.373
 7.16162
 7.181
 7.18162
 7.36661
 8.25729
 8.13848
 8.12229
 12.5461
 12.5125
 12.4585
 12.6553
 7.00768
 7.12724
 7.21033
 6.99393
 9.16266
 9.34744
 9.32502
 9.36423
 5.78322
 5.78846
 5.72345
 5.59847
 5.44372
 5.56746
 5.35133
 5.38304
 10.4156
 10.2292
 10.4543
 10.4202
 7.82308
 7.94735
 8.02894
 9.5265
 9.68646
 9.57929
 9.58103
 5.1641
 5.44416
 5.29416
 8.18591
 8.05072
 8.14774
 7.99095
 6.77904
 6.71024
 6.7106
 6.74318
 4.91493
 4.82899
 4.78519
 4.9363
 13.4905
 13.5813
 13.5581
 13.4899
 9.72297
 9.69598
 9.60657
 9.73366
 7.80078
 7.517
 7.62301
 7.55947
 11.0302
 11.139
 11.163
 8.24135
 8.09829
 8.14761
 8.27309
 4.51562
 6.9938
 7.10654
 7.31925
 7.14358
 5.57014
 5.57596
 5.53163
 5.46221
 6.13084
 6.21552
 6.24876
 6.12987
 7.78156
 7.84345
 8.03638
 8.22975
 8.23454
 8.21626
 12.2683
 12.1553
 12.2595
 12.1889
 9.47394
 9.53758
 9.59761
 9.69132
 9.67309
 9.56469
 9.66337
 4.57062
 4.212
 4.57506
 4.58647
 8.36483
 8.37913
 8.18589
 8.20167
 7.69997
 7.76971
 7.90088
 7.78908
 5.298
 5.41432
 5.20736
 5.42055
 8.14256
 8.18221
 8.00873
 8.16956
 11.453
 11.4016
 11.5257
 11.483
 8.53617
 8.59356
 8.50302
 8.56567
 9.76471
 9.76036
 9.73758
 9.63955
 10.0498
 10.1604
 10.1345
 10.0785
 10.8615
 10.8141
 10.8676
 10.8671
 11.6976
 11.7568
 11.7828
 11.619
 3.66928
 3.84602
 3.76428
 3.81741
 12.0446
 11.9979
 12.1116
 11.9238
 8.37682
 8.4756
 8.36392
 8.51313
 3.90729
 3.9407
 4.05888
 4.03673
 9.03271
 9.05587
 8.96495
 8.90839
 10.7794
 4.92863
 5.03941
 5.00073
 4.81375
 10.1637
 11.5136
 11.3633
 11.3379
 11.4751
 7.54652
 7.34805
 6.02219
 6.24396
 5.99977
 6.21496
 5.41104
 5.43707
 5.31224
 5.33303
 3.55659
 3.75288
 3.5517
 5.98946
 5.7752
 5.78356
 5.79639
 8.91082
 4.25311
 6.82161
 6.88687
 6.94278
 4.56893
 4.42795
 4.39737
 4.47176
 8.97208
 8.97452
 8.98665
 9.08472
 9.70087
 9.66243
 9.76469
 9.83316
 6.8578
 6.97591
 6.92752
 6.6799
 4.44328
 4.28027
 4.48707
 4.48732
 5.16494
 5.21682
 5.10617
 5.23081
 7.28605
 7.02404
 7.05581
 11.7072
 11.7866
 11.5475
 11.7013
 13.3841
 13.2625
 13.3286
 13.2656
 10.8428
 11.0106
 11.0274
 10.9395
 7.88328
 7.74235
 7.91557
 11.3403
 11.2159
 11.2658
 11.3699
 5.70274
 5.75721
 5.5461
 5.83478
 5.79041
 5.91021
 5.83419
 10.0936
 10.1531
 6.62114
 6.45554
 3.11262
 3.2612
 3.07484
 3.77069
 3.70442
 3.73364
 3.63398
 8.66707
 8.80776
 8.57999
 8.69072
 9.51916
 9.55009
 9.6227
 9.45568
 8.49956
 8.50622
 8.34992
 8.37442
 4.20203
 4.21546
 4.16918
 4.21874
 6.68292
 6.60191
 6.65849
 6.76739
 10.8458
 10.8535
 10.8469
 10.7381
 6.5782
 6.52549
 6.65409
 6.45745
 7.74317
 7.70387
 7.85118
 7.66985
 6.89118
 6.76284
 6.78591
 13.7239
 13.6937
 13.6781
 9.49422
 9.57388
 8.95018
 8.94578
 9.08564
 8.87329
 6.25818
 6.07471
 6.19733
 6.25556
 6.57368
 6.49343
 6.28099
 6.46779
 6.45259
 6.54681
 6.25903
 12.3891
 12.3983
 10.9408
 10.9568
 10.8768
 10.9293
 7.71617
 12.4877
 12.6038
 12.5548
 12.5479
 9.80811
 9.63496
 9.77411
 9.79476
 8.78845
 8.85795
 11.6611
 11.4418
 11.4613
 11.5738
 3.64742
 3.42742
 3.52345
 3.6017
 4.36312
 4.30986
 4.40029
 4.14214
 10.3075
 10.0562
 10.2401
 10.1076
 9.52346
 9.61003
 9.3273
 9.39182
 9.49662
 9.58719
 9.49856
 6.34113
 6.24353
 6.48322
 6.33485
 10.7758
 10.6902
 10.6274
 10.6063
 8.37319
 8.2992
 8.39734
 7.22202
 7.19136
 7.10814
 6.97991
 9.58184
 9.55385
 9.45209
 9.52098
 10.0066
 9.86253
 9.77753
 9.93019
 10.063
 10.1656
 10.1392
 10.0232
 9.02697
 8.96092
 8.84412
 8.97173
 7.03578
 7.16315
 9.77376
 9.74198
 9.69748
 9.82389
 3.61312
 3.93049
 3.8916
 3.87136
 10.256
 10.1802
 10.2541
 10.1618
 11.3232
 11.3596
 11.2083
 11.2857
 7.66345
 7.61406
 12.0117
 11.9754
 12.0966
 11.9444
 9.25133
 9.16288
 9.31892
 4.64196
 4.71478
 4.57754
 4.55058
 11.8501
 11.9007
 11.8606
 10.093
 10.0988
 9.96506
 10.0129
 11.5666
 10.1297
 10.191
 10.1671
 10.3137
 8.17747
 8.28166
 8.15993
 8.18274
 8.79001
 8.75499
 8.67033
 8.8006
 4.38419
 4.15407
 7.97222
 7.88807
 7.9239
 7.972
 10.199
 10.3642
 10.1756
 10.3744
 9.42519
 9.11868
 9.27784
 9.41835
 4.95499
 5.10017
 5.08406
 5.08154
 8.79852
 8.74085
 8.5844
 8.63548
 7.6812
 5.50712
 5.3886
 5.55707
 9.36765
 9.33135
 9.47717
 9.27131
 6.68492
 6.7365
 6.64223
 6.86265
 9.10956
 9.21391
 9.21622
 9.04357
 4.37608
 4.5843
 4.61658
 4.50637
 3.16044
 3.05849
 3.21782
 10.0884
 9.98421
 9.84775
 9.94709
 7.33102
 7.24259
 7.44628
 7.37721
 6.72094
 6.6714
 6.5524
 6.47308
 9.5457
 9.53781
 10.0139
 10.0801
 10.1281
 9.96921
 9.06857
 8.83564
 7.41836
 7.36189
 7.44494
 7.50484
 7.07616
 7.00882
 6.88065
 7.0839
 8.89983
 8.83975
 8.71112
 8.78449
 7.5831
 7.56653
 7.55949
 5.13614
 5.36477
 5.41958
 5.31511
 6.05091
 6.10728
 5.99553
 8.93873
 8.70273
 8.93336
 8.81567
 9.88152
 10.0575
 10.1446
 9.95295
 6.71694
 6.91125
 6.90314
 6.76939
 8.7907
 8.80545
 8.96924
 10.7993
 10.8183
 10.7924
 10.8158
 9.56722
 9.58647
 9.51727
 9.46521
 5.91438
 5.94023
 6.07769
 3.71783
 3.94137
 3.9181
 6.87816
 6.79343
 6.78473
 9.57704
 9.71483
 9.52436
 9.66716
 3.95239
 3.93039
 3.96784
 3.84417
 7.16086
 7.25198
 7.15573
 7.03175
 5.62935
 5.54279
 5.27643
 5.33181
 5.90709
 5.81598
 5.91161
 5.89307
 11.2141
 11.312
 11.3166
 9.0141
 8.97726
 9.08367
 8.96113
 5.72215
 5.62956
 5.79904
 5.79519
 8.59547
 8.52039
 8.4958
 8.32779
 6.54904
 6.54769
 6.5919
 6.78769
 4.67031
 4.5475
 10.8767
 10.7754
 10.7941
 10.7291
 6.2357
 6.33621
 6.09786
 6.28465
 9.05092
 9.12292
 9.16971
 9.01133
 6.89261
 7.09421
 4.07768
 4.08542
 4.24082
 3.9976
 5.63992
 5.41541
 5.7103
 5.31377
 3.75936
 3.74947
 3.59573
 3.48388
 6.3781
 6.41372
 6.31431
 6.85096
 6.62137
 6.66838
 6.72705
 6.58941
 6.72107
 6.66734
 6.85197
 9.80202
 9.76056
 9.89954
 9.93769
 11.4876
 11.5497
 11.4007
 8.2403
 8.2132
 8.20933
 5.20298
 5.37928
 5.26917
 5.42889
 8.87482
 8.77275
 8.64145
 8.76392
 10.2459
 10.4092
 10.3778
 10.2383
 8.19306
 8.34892
 8.42924
 8.43034
 9.1375
 8.93473
 9.12519
 4.10246
 4.02473
 4.26017
 4.25134
 10.7271
 10.677
 10.4258
 10.3465
 10.3344
 6.58971
 6.52081
 6.69594
 6.41953
 8.40386
 8.23822
 8.22638
 8.31091
 10.4566
 10.4311
 10.3167
 10.4328
 7.68124
 7.95949
 7.95068
 7.76795
 9.3541
 9.46066
 9.27089
 9.2802
 5.0007
 4.95201
 4.69015
 9.56571
 9.59441
 9.46666
 9.47897
 7.75389
 7.63612
 10.521
 10.3508
 10.4002
 10.4937
 10.3074
 10.4329
 10.372
 10.4255
 4.73267
 4.85452
 10.0957
 9.96714
 10.0392
 10.1465
 8.17686
 8.33632
 8.24667
 8.17563
 9.13444
 11.3539
 11.468
 11.4318
 7.6201
 7.64752
 7.59173
 7.73729
 4.72196
 4.70219
 4.84009
 4.62443
 11.1661
 11.1519
 11.0934
 11.2097
 10.3412
 10.2316
 10.3718
 10.3466
 6.7761
 6.68764
 6.68124
 11.0194
 11.0046
 10.9302
 10.8951
 3.69132
 3.89095
 3.76181
 3.65522
 10.8356
 10.7418
 10.7074
 10.8933
 7.06658
 7.24743
 7.11164
 6.9278
 9.09285
 9.00216
 9.03334
 9.13687
 10.4193
 10.3683
 10.394
 9.26882
 9.09799
 9.28325
 9.14245
 10.5714
 10.7045
 10.6175
 10.6173
 10.212
 10.3046
 10.2345
 6.19012
 6.34804
 6.14699
 6.28192
 6.46449
 8.42275
 8.09792
 8.30532
 8.29878
 4.57213
 4.64519
 4.75465
 4.64398
 7.62527
 7.44643
 7.72756
 7.51407
 7.00705
 6.87815
 7.00963
 7.06183
 10.374
 10.4349
 10.2837
 10.0509
 10.0911
 7.25138
 7.46014
 7.30496
 7.22576
 4.72327
 4.46216
 7.90686
 7.86233
 8.01358
 7.82226
 10.5651
 10.5987
 10.475
 5.10381
 5.00777
 5.17023
 5.10469
 7.96324
 8.17172
 8.10878
 8.0681
 10.4416
 10.5192
 10.4417
 10.3861
 8.35153
 8.37777
 8.15115
 8.3089
 7.17022
 6.88636
 11.0816
 11.1478
 11.112
 11.1879
 10.1022
 9.88087
 9.77503
 9.85234
 9.73872
 9.77288
 9.7981
 9.96632
 9.90704
 9.8186
 8.08075
 8.08112
 8.11841
 7.3075
 7.37853
 7.43942
 7.51638
 9.88503
 9.90171
 9.87301
 9.89892
 9.08716
 9.10702
 7.7018
 7.8303
 7.77141
 7.89715
 7.7353
 7.71079
 8.45364
 8.26737
 8.24667
 8.4047
 11.9566
 11.8155
 11.8415
 11.772
 7.76941
 10.5735
 10.4434
 10.5353
 10.5659
 4.17771
 4.01107
 4.20079
 6.37354
 6.43529
 6.53145
 6.34665
 8.41576
 8.32092
 8.38025
 8.6088
 8.10152
 7.96915
 8.15787
 10.1475
 10.0398
 10.0996
 10.1772
 4.85833
 4.71294
 5.06084
 4.81058
 7.15197
 7.20847
 7.06058
 7.10953
 4.88996
 4.83112
 5.1046
 4.95975
 10.6992
 10.678
 10.8049
 10.7975
 9.83988
 9.73154
 6.28472
 6.35557
 6.44575
 6.33824
 4.61543
 4.59618
 4.56262
 4.6788
 3.19232
 3.11198
 3.2585
 3.0457
 4.79742
 4.93459
 4.77555
 7.17431
 7.0509
 7.21637
 7.11716
 5.06388
 4.98964
 4.89961
 4.96995
 10.8155
 10.6975
 10.5942
 10.722
 5.57982
 5.46443
 5.42378
 7.19228
 7.2426
 7.28781
 7.28588
 10.594
 10.6546
 10.5917
 10.6921
 6.77796
 6.59202
 6.70886
 6.69408
 7.53345
 7.40531
 7.35644
 7.50465
 9.60638
 9.53253
 9.47583
 9.37393
 10.9115
 10.8875
 11.0458
 11.0352
 8.7163
 8.66647
 8.53796
 8.68657
 12.2141
 12.1761
 12.0216
 12.091
 10.266
 10.1789
 10.2814
 9.97285
 10.1173
 10.1182
 10.1529
 12.6939
 12.6418
 12.774
 12.6421
 5.1821
 5.316
 5.30277
 5.83344
 5.81086
 5.6603
 5.69734
 9.85736
 9.64155
 9.70976
 11.4522
 11.4228
 11.486
 10.8338
 10.9627
 10.8318
 10.8231
 9.7845
 9.80462
 9.68352
 9.90314
 7.08767
 6.86931
 6.99206
 7.01933
 11.918
 11.9148
 11.8221
 11.9545
 7.4107
 7.66804
 7.70211
 7.49326
 5.82597
 5.68305
 5.95882
 5.82018
 7.76592
 7.7738
 7.53071
 7.62738
 8.78132
 8.88015
 8.65731
 10.4918
 10.5048
 10.4923
 10.4083
 4.84059
 4.68462
 4.63447
 4.68444
 5.607
 5.50251
 5.61975
 5.72653
 9.68047
 9.56731
 9.63864
 9.74523
 4.38689
 4.28898
 4.19991
 4.76329
 4.49412
 4.7189
 4.66407
 4.50731
 4.47088
 4.63103
 4.57485
 11.7639
 11.7971
 12.7
 12.6792
 12.7522
 12.6011
 7.1992
 7.27218
 7.38483
 8.36234
 8.47496
 8.2345
 8.43422
 8.13393
 7.96376
 8.019
 8.11261
 13.6338
 8.86567
 7.38469
 7.22735
 5.6877
 5.57784
 5.63531
 5.62916
 11.4597
 9.21685
 9.08215
 9.22038
 2.9965
 3.1075
 3.10177
 3.09655
 8.071
 8.18968
 8.07378
 7.9397
 4.18836
 4.30484
 4.20313
 4.36054
 8.76917
 8.60278
 8.88421
 9.18831
 9.01723
 9.1223
 5.23926
 5.16917
 5.3892
 5.21877
 7.44388
 7.52206
 7.63821
 7.72635
 10.7767
 10.8731
 10.684
 10.7247
 5.63382
 5.33319
 5.44739
 4.27706
 3.99616
 3.99415
 4.26511
 5.70823
 5.74476
 5.89797
 5.7171
 9.86654
 9.88869
 9.6488
 9.90173
 9.56178
 9.66405
 9.64349
 9.6561
 5.0716
 4.93286
 4.94626
 4.9181
 8.90065
 8.90236
 9.03812
 6.13737
 6.10865
 6.18582
 6.28012
 10.4791
 10.3548
 10.551
 10.5389
 7.27961
 7.19973
 7.41957
 7.32924
 10.6274
 10.535
 10.621
 10.6101
 7.79885
 7.66536
 7.79683
 7.73601
 5.93228
 5.89811
 5.73634
 6.07089
 10.8995
 10.9399
 10.8393
 7.94396
 7.80325
 5.48407
 5.57701
 5.58439
 5.70153
 8.8917
 8.98221
 8.99833
 10.7203
 10.8457
 10.8798
 10.8171
 6.85504
 6.78805
 6.87889
 6.72687
 7.14552
 7.17105
 6.90525
 7.10217
 13.1965
 13.2032
 13.0885
 13.1587
 8.22411
 8.3926
 8.28548
 12.4062
 12.3099
 12.2777
 8.07669
 8.09527
 8.18252
 8.12034
 8.29451
 10.6602
 10.6369
 10.8322
 10.7733
 8.70153
 8.56828
 8.50037
 5.67603
 5.67729
 5.68724
 5.75947
 8.48427
 8.40778
 8.32478
 8.32751
 8.33455
 8.39643
 8.43205
 3.26424
 3.3637
 3.39424
 3.5378
 9.99882
 9.72678
 9.79356
 9.88331
 11.0725
 11.0657
 11.0116
 11.0228
 9.24004
 9.29389
 9.05866
 9.21637
 5.25032
 5.15028
 5.12753
 5.38437
 13.2693
 13.1679
 13.2458
 13.1057
 6.2356
 6.42229
 6.2971
 6.28336
 11.061
 11.1554
 11.1
 11.115
 5.56913
 5.95591
 5.86292
 5.69141
 6.01329
 6.12197
 6.21235
 6.08799
 6.23132
 6.13761
 9.8412
 9.92874
 9.93795
 9.86169
 4.86285
 4.8587
 4.86513
 6.22285
 6.48591
 6.36683
 6.17566
 10.0894
 9.93985
 10.0386
 10.177
 9.24271
 9.3038
 9.11509
 13.7347
 13.7322
 13.7736
 13.7333
 8.29614
 8.5168
 8.29467
 4.88757
 4.76098
 4.91466
 4.96638
 5.82251
 5.94751
 5.05529
 4.87499
 4.73444
 4.99792
 6.4589
 6.44162
 11.1282
 11.077
 11.2405
 10.9927
 6.04343
 6.08605
 6.06329
 6.26903
 8.05072
 7.95603
 9.37472
 9.26027
 9.29389
 9.35766
 5.97208
 5.88709
 5.81838
 5.89091
 9.75492
 10.0014
 9.9902
 9.80646
 4.99981
 5.02207
 4.84418
 4.59103
 7.4882
 7.44241
 7.63191
 11.3424
 11.4045
 11.4201
 11.3356
 7.13957
 7.17868
 7.25648
 7.34756
 9.98542
 10.1191
 10.1597
 10.2155
 9.86388
 10.0273
 9.91535
 13.3755
 13.3824
 13.3828
 13.3145
 10.8858
 10.6803
 10.6308
 10.8159
 5.77128
 5.8695
 5.69136
 5.87841
 8.38461
 8.34065
 8.49236
 9.08619
 10.4629
 10.391
 10.4391
 10.3411
 9.03139
 9.15095
 9.0444
 8.99114
 6.60469
 6.36287
 6.33259
 6.55286
 10.5042
 10.5021
 10.2575
 11.5003
 7.53566
 7.46323
 7.65076
 7.38502
 10.4076
 10.2139
 12.5256
 12.6153
 10.4368
 10.3306
 10.4397
 10.5978
 6.51697
 6.37034
 5.44387
 5.45345
 5.37818
 5.48277
 9.3957
 9.26754
 9.24568
 9.27614
 4.3173
 4.27847
 4.12879
 4.27568
 9.33
 9.31169
 9.60254
 9.58336
 6.20003
 6.1768
 6.26404
 6.48767
 10.087
 10.0793
 10.0096
 10.0014
 6.01853
 5.91169
 6.13002
 5.9903
 8.81677
 8.68942
 4.63047
 4.732
 6.89102
 6.76917
 6.94803
 6.72617
 6.86378
 6.94288
 6.93296
 6.74932
 7.83871
 7.94175
 7.79069
 7.78328
 6.03128
 6.25016
 6.02109
 5.86924
 10.1367
 10.2763
 10.1925
 10.2008
 4.76146
 4.84469
 4.86784
 4.50076
 4.43742
 4.62257
 4.49865
 10.5723
 10.4169
 10.4197
 10.4884
 6.51857
 6.72543
 6.69651
 6.60986
 10.5741
 10.4572
 10.4447
 10.3267
 8.08905
 8.48196
 8.26835
 8.26485
 8.47286
 5.56798
 5.53917
 5.53528
 5.74775
 12.1954
 12.2869
 12.2221
 12.1139
 6.62433
 6.52011
 6.394
 6.54891
 8.1557
 8.00862
 8.31017
 8.19112
 6.54164
 6.6686
 6.69319
 6.69998
 6.94281
 3.31975
 3.43688
 3.68749
 3.55657
 5.91644
 5.90877
 6.1774
 6.10767
 12.487
 12.4254
 12.3379
 12.5057
 8.85493
 9.02409
 9.09408
 8.94658
 9.57815
 8.01934
 8.0429
 7.99083
 7.86479
 5.0015
 5.0054
 5.18097
 5.27192
 5.57542
 5.59252
 5.40397
 5.01627
 5.41525
 5.22342
 5.30731
 13.2248
 13.1673
 6.15854
 6.17677
 6.16012
 9.69091
 9.69891
 9.7388
 9.57175
 6.37441
 6.45879
 6.34282
 6.49622
 7.83045
 6.79478
 6.96298
 6.78659
 6.83865
 4.51492
 4.82343
 4.73577
 4.53392
 6.82414
 6.70091
 6.47137
 6.78208
 8.91482
 8.85854
 9.06941
 8.74615
 10.6259
 10.5992
 10.6693
 10.5694
 3.58343
 3.80983
 3.5256
 3.61174
 6.46886
 6.54571
 6.39554
 6.60667
 3.85372
 3.94052
 3.90243
 3.75549
 9.66234
 9.86654
 9.66242
 9.63586
 7.85438
 7.93796
 4.596
 4.33464
 4.61774
 4.47908
 7.85045
 7.80373
 7.80609
 7.64853
 8.42929
 8.24872
 7.96058
 7.87826
 7.7797
 7.95979
 5.46453
 5.4928
 5.55358
 5.35829
 9.33679
 9.51934
 9.601
 9.43897
 11.1909
 11.0843
 11.1708
 11.1698
 10.7891
 10.8331
 10.8392
 10.8403
 9.4835
 9.40221
 9.39331
 9.52913
 8.75242
 8.96122
 8.81686
 8.64823
 8.88146
 8.77026
 8.70296
 8.13241
 8.24285
 8.29675
 8.16906
 11.2543
 11.2888
 11.2319
 9.05263
 9.13809
 8.95616
 8.98841
 7.87589
 7.72718
 7.74211
 7.93932
 9.8345
 9.97303
 9.76362
 9.98852
 9.5464
 9.41846
 9.45129
 9.46349
 7.6173
 7.60999
 7.48562
 7.37044
 8.34169
 8.47728
 8.35401
 8.39362
 6.69737
 6.77523
 6.69662
 6.75994
 10.8512
 10.8139
 10.7656
 5.74194
 5.8346
 5.61455
 5.81572
 9.82924
 9.69404
 9.79042
 9.8928
 8.78432
 8.87012
 8.94059
 8.73542
 8.4812
 8.34441
 8.30149
 7.28201
 7.29458
 7.23213
 7.10449
 6.91107
 6.88956
 6.77914
 6.97988
 6.61953
 6.58135
 6.43803
 5.38191
 5.32452
 5.32998
 6.99554
 7.07192
 7.18654
 7.06535
 5.18317
 5.09326
 5.31727
 4.82187
 4.81166
 4.86346
 5.02317
 8.37225
 8.66329
 8.50007
 8.56988
 9.58344
 9.68993
 9.55644
 9.67867
 10.2196
 5.35402
 5.43806
 5.15087
 5.34612
 5.20624
 5.53308
 13.452
 13.5095
 13.4442
 13.4022
 6.13327
 6.27997
 8.74145
 8.90116
 8.71666
 3.84367
 3.65443
 7.25123
 7.4993
 7.428
 7.38651
 8.86441
 8.7844
 8.78069
 6.09732
 5.77578
 5.96588
 5.86092
 9.618
 9.58004
 9.68498
 9.52609
 12.7156
 12.6139
 12.6387
 12.7465
 7.51665
 7.48499
 7.56257
 7.34522
 5.47524
 5.152
 5.4649
 5.91118
 5.92144
 5.87648
 6.02979
 9.91126
 10.1247
 10.0755
 10.2095
 9.91208
 9.79971
 10.4208
 10.3091
 10.4617
 3.76108
 3.89148
 5.50772
 5.69588
 5.48813
 5.73022
 7.93514
 7.709
 7.74504
 6.27955
 6.48215
 6.1347
 6.13002
 9.83059
 10.0449
 10.0055
 9.90152
 8.21954
 8.23605
 8.08884
 8.05479
 8.3128
 8.18998
 8.18151
 8.31847
 10.0917
 10.0208
 10.078
 9.78991
 9.86648
 9.80669
 9.82207
 3.12387
 2.94565
 3.05974
 2.85998
 10.9751
 11.1448
 4.93989
 4.85411
 4.88479
 4.99902
 8.75025
 8.59849
 8.66561
 8.73974
 7.89577
 7.78174
 7.78352
 7.77109
 10.8245
 10.7155
 8.03805
 8.15103
 8.15744
 8.25577
 8.75597
 8.81278
 8.85895
 8.70324
 5.62232
 5.65552
 5.71813
 5.61177
 8.46103
 8.34771
 8.31752
 8.54136
 9.71373
 9.70565
 7.28956
 7.2859
 7.37883
 7.24226
 6.49467
 6.56761
 6.42124
 7.92329
 7.7562
 7.81206
 7.72435
 10.3179
 10.2435
 10.3531
 10.1642
 12.8897
 12.7796
 12.7947
 12.9015
 8.4025
 8.49806
 8.37722
 8.1927
 7.70024
 7.47748
 7.64717
 7.69102
 8.92962
 8.84312
 9.0155
 8.98012
 9.4226
 9.5121
 9.40339
 9.33227
 5.5558
 5.37114
 7.22956
 7.3142
 7.37772
 11.9594
 12.012
 12.0801
 11.9406
 10.06
 10.1783
 9.97623
 10.2279
 7.97331
 7.91741
 8.01983
 8.07807
 5.57892
 5.50167
 5.50538
 8.66793
 8.72934
 8.91218
 8.91925
 9.79916
 9.60285
 9.67308
 9.80955
 6.25956
 6.46909
 6.48299
 6.35539
 7.29703
 7.34888
 7.41313
 7.39944
 5.72582
 5.69344
 5.70854
 6.07451
 6.04614
 6.05051
 6.03765
 9.13258
 9.09739
 9.21601
 9.28515
 8.53427
 8.57174
 8.43153
 12.7189
 12.6998
 12.7201
 12.7924
 9.77031
 9.76217
 11.1357
 11.2255
 11.0928
 11.0117
 10.1774
 10.716
 5.04765
 9.64979
 9.80702
 9.68551
 9.87626
 3.64509
 7.19955
 7.35477
 7.20061
 7.41762
 9.69368
 9.54421
 9.62355
 9.09285
 8.96514
 8.96162
 5.65181
 5.62939
 5.87154
 5.66264
 5.80589
 5.91475
 5.77388
 5.90775
 10.4809
 10.6609
 10.6672
 10.5374
 4.45716
 4.41883
 4.34247
 4.5688
 8.20893
 8.35761
 8.48218
 5.83627
 5.69701
 5.7888
 7.64197
 7.79369
 7.73645
 7.61264
 9.64201
 9.56154
 9.74573
 9.68552
 7.68191
 7.4389
 7.66163
 9.48241
 9.4358
 9.42755
 9.59395
 8.72348
 8.5057
 5.60494
 5.48947
 5.44507
 5.28648
 5.01816
 4.78482
 4.91361
 4.97477
 10.1075
 9.96438
 10.1612
 10.0362
 6.4076
 6.65159
 6.54058
 6.35488
 7.32892
 7.58452
 7.37351
 7.2588
 8.99105
 9.1239
 8.91962
 9.00825
 5.24645
 5.33084
 5.39324
 5.48872
 8.65421
 8.79812
 8.56101
 8.62553
 8.21212
 8.33517
 8.33864
 8.0837
 8.6229
 8.7247
 8.58942
 8.57034
 9.99862
 9.85019
 10.2512
 10.1503
 10.0496
 10.2203
 11.3332
 11.5148
 11.3872
 11.3403
 7.23174
 7.24179
 7.26351
 7.07684
 7.43966
 7.60563
 7.59866
 4.43687
 4.39775
 4.35938
 4.37944
 3.73163
 3.63216
 3.808
 4.76048
 4.67314
 4.9425
 7.67103
 7.47986
 7.35197
 7.59584
 6.70185
 6.58854
 6.48128
 6.78628
 5.70867
 5.54517
 5.6778
 5.51834
 9.51272
 9.66553
 9.62838
 9.53203
 11.0661
 10.9566
 10.8901
 10.8932
 3.75006
 3.72852
 3.89263
 3.55427
 9.832
 9.88409
 9.9506
 9.8021
 7.84201
 7.8453
 7.75846
 7.88657
 3.57862
 3.6478
 3.88392
 3.44299
 7.07084
 7.24399
 7.0175
 7.07564
 8.86943
 8.94383
 8.87818
 8.93554
 9.78033
 9.9023
 9.88428
 10.6924
 10.5404
 10.6331
 10.7173
 10.3271
 10.3879
 10.3134
 10.4003
 10.2594
 10.3456
 9.91243
 9.82597
 10.0745
 5.81915
 5.9284
 5.95875
 5.98378
 4.69804
 4.82607
 4.78067
 4.80585
 6.93647
 6.9928
 6.9668
 7.19754
 8.50853
 5.08553
 5.00718
 5.03323
 5.15305
 10.746
 10.7543
 10.7628
 10.7901
 4.12634
 4.00493
 4.1669
 3.90699
 9.11806
 9.24549
 9.02531
 6.56625
 10.6167
 10.6289
 10.7256
 10.1086
 10.1859
 10.273
 10.0474
 7.98846
 8.01581
 8.23619
 8.08584
 6.2352
 6.22725
 6.36315
 6.10549
 8.51973
 6.63201
 6.71511
 6.75266
 8.45331
 8.48877
 8.44804
 8.28679
 9.49994
 9.45681
 9.57557
 9.57686
 9.06341
 9.25376
 9.1141
 9.09048
 6.54615
 9.96746
 9.94657
 9.87628
 5.92382
 6.04291
 5.88051
 5.99364
 5.36142
 5.4261
 5.20723
 5.47987
 4.69218
 4.58402
 4.71657
 9.50636
 9.49679
 9.6036
 9.48942
 10.8806
 10.9694
 10.8888
 5.61368
 5.64458
 5.26893
 5.34222
 5.43347
 5.43978
 8.49993
 8.47904
 8.37053
 4.07042
 4.135
 3.97762
 4.15523
 5.5244
 5.59131
 5.51447
 5.43946
 7.10683
 7.08578
 6.99783
 6.96031
 7.8582
 7.80794
 7.90707
 8.03925
 9.83277
 9.8575
 9.89759
 9.78173
 5.35022
 5.34177
 5.43592
 5.1962
 9.40608
 9.362
 9.55162
 9.08984
 8.95903
 8.93656
 8.89863
 4.71431
 4.75049
 4.50052
 4.63243
 6.65321
 6.63204
 6.69652
 6.757
 3.97586
 4.11188
 4.26207
 4.07508
 9.10315
 8.99856
 8.93645
 8.95685
 7.89603
 7.83737
 8.02438
 7.71424
 5.30131
 5.32772
 5.20923
 5.28154
 7.99286
 7.86916
 8.04302
 8.01145
 4.0009
 3.7711
 3.96273
 9.56464
 9.61618
 9.644
 9.62088
 7.54568
 7.55065
 7.59979
 7.7126
 7.18404
 7.00709
 7.14801
 7.1207
 8.19713
 8.29254
 8.04663
 8.22472
 5.4188
 5.42578
 5.20205
 5.33857
 8.43693
 8.60738
 8.49998
 8.55501
 7.32189
 7.36659
 7.34319
 7.4681
 10.8273
 10.8194
 10.8464
 10.8264
 5.95082
 5.91447
 6.06015
 6.1434
 10.85
 10.8526
 10.8547
 9.87204
 9.94198
 9.94025
 9.85616
 10.3591
 10.2904
 10.0398
 10.2405
 6.17517
 6.24756
 6.12812
 6.01324
 6.78535
 6.55472
 6.73979
 6.70413
 9.12982
 9.27059
 9.25628
 9.34453
 3.43084
 3.56198
 3.71081
 12.6534
 12.6778
 7.31458
 7.16582
 7.40341
 7.33099
 11.5881
 11.7033
 11.8342
 11.7164
 6.81348
 6.78631
 6.59029
 6.67663
 8.9912
 9.42833
 9.48607
 9.52438
 9.60972
 6.22438
 6.17879
 6.14442
 6.07626
 5.19438
 5.27472
 5.08557
 5.24347
 10.8214
 10.8214
 6.53381
 6.45044
 6.18631
 6.47536
 7.51945
 7.81564
 7.49006
 7.64809
 9.72037
 9.71807
 9.81474
 9.52657
 8.4434
 8.58713
 8.61879
 8.43099
 5.61341
 5.81949
 5.42143
 4.64303
 4.70023
 4.67626
 4.69659
 3.61948
 3.61886
 3.55835
 9.33382
 9.42339
 9.39625
 9.3064
 4.74138
 4.88127
 4.93995
 4.96675
 10.4519
 10.5646
 10.5187
 10.4857
 6.93494
 6.95461
 6.89903
 7.10269
 7.69948
 7.50111
 7.65391
 7.64558
 4.60198
 4.60277
 4.61764
 4.48546
 6.72011
 6.6175
 6.7699
 6.8726
 11.8877
 11.9535
 11.988
 11.8975
 8.50366
 8.73343
 8.52318
 8.68555
 9.25481
 9.0486
 9.06112
 9.24753
 6.27472
 6.18042
 6.35495
 6.49628
 10.2745
 10.3747
 10.4207
 10.4078
 7.33914
 7.46109
 7.43334
 7.23973
 9.40265
 9.51775
 9.54158
 10.945
 11.0256
 11.0036
 11.0674
 7.23369
 7.07898
 7.34532
 6.93869
 6.96037
 7.05726
 9.94332
 10.0825
 10.1798
 10.2116
 10.2247
 10.1609
 10.1085
 4.85636
 13.5718
 13.513
 13.5275
 13.6204
 5.47117
 5.60209
 5.32912
 5.48905
 10.5635
 9.03717
 9.06736
 9.10396
 8.89945
 9.28421
 9.37807
 9.08818
 9.88633
 9.69614
 9.78562
 9.84792
 11.8617
 11.8908
 11.8105
 11.9812
 10.4578
 10.3495
 10.3577
 7.916
 8.0021
 7.99309
 9.35865
 9.41282
 3.18179
 3.40023
 3.4109
 10.3545
 10.2346
 10.4133
 9.09449
 8.97618
 8.91508
 4.73053
 4.55489
 4.57299
 6.1448
 6.13611
 5.96459
 6.13013
 9.81832
 9.73887
 9.68998
 10.8403
 10.9787
 4.35142
 4.49762
 4.27451
 4.34778
 11.4648
 11.4221
 11.5664
 11.3313
 10.3198
 10.3686
 12.8781
 12.9713
 12.3624
 12.3816
 12.3218
 9.08383
 8.99685
 9.16108
 4.46126
 4.65998
 4.75381
 6.61072
 6.59101
 6.42738
 9.73249
 9.63512
 9.49273
 9.40856
 9.54362
 5.16916
 10.9223
 10.9241
 10.867
 10.8608
 9.22917
 8.96278
 9.14789
 9.1398
 6.33763
 6.378
 6.25828
 6.51882
 6.49646
 6.60059
 6.55054
 9.10712
 9.15984
 9.01997
 8.90849
 6.56007
 6.50362
 6.36883
 6.37703
 6.00695
 6.15555
 6.06559
 5.86916
 8.24015
 6.52838
 6.47964
 6.44945
 6.3896
 4.11147
 4.0143
 4.11116
 4.23266
 10.0293
 10.2732
 10.3087
 10.1292
 4.47959
 4.35606
 4.45426
 4.47315
 12.9766
 12.9306
 13.0161
 4.38483
 4.50153
 4.20189
 4.28666
 9.98357
 10.0149
 10.1488
 10.1311
 5.92916
 6.09644
 5.97412
 5.8513
 10.3124
 10.3037
 10.5914
 10.5281
 3.87111
 5.6446
 5.89262
 5.7945
 5.96738
 5.12133
 4.94865
 5.02292
 10.7707
 10.702
 10.8159
 10.866
 6.20517
 6.33686
 6.33076
 6.42705
 7.47408
 7.31555
 7.30182
 7.36767
 7.69987
 7.60259
 7.83058
 7.84206
 3.5591
 3.76311
 8.80468
 8.78803
 8.80647
 9.08165
 8.95653
 8.90127
 8.82299
 6.42117
 6.53701
 6.25253
 6.22731
 6.44823
 6.36399
 6.36719
 6.22234
 7.2107
 7.18665
 7.06098
 7.25625
 9.96402
 9.96224
 9.60967
 9.70607
 9.71329
 9.09153
 8.98541
 8.98263
 8.96306
 11.0469
 11.1544
 11.1359
 11.1384
 9.21627
 9.31712
 9.4425
 11.8076
 11.81
 11.6866
 9.21197
 9.22958
 9.35956
 9.12177
 9.94513
 9.762
 9.98752
 8.45125
 6.39713
 6.46318
 6.25501
 8.86719
 8.91232
 8.80829
 8.72101
 10.4039
 10.3939
 10.0655
 10.235
 8.22764
 8.12363
 8.06801
 8.06348
 5.7223
 5.83869
 3.37503
 3.52967
 3.63606
 3.35597
 6.33246
 6.39356
 6.24696
 6.50322
 8.78459
 8.81225
 8.82983
 8.74026
 3.9526
 3.93309
 3.60542
 4.0683
 4.36992
 4.28259
 4.23804
 8.03322
 8.23905
 8.30169
 8.11287
 10.6675
 10.7059
 10.5961
 8.69855
 8.71554
 8.5328
 8.69935
 10.7514
 10.9191
 10.7479
 10.9259
 6.81031
 6.81691
 6.76808
 7.14263
 10.8004
 10.7973
 10.8102
 10.7684
 9.90631
 9.8167
 9.7797
 9.84818
 4.36129
 4.56295
 4.31685
 4.50498
 7.93428
 7.92819
 8.06966
 7.91956
 9.24298
 9.33428
 9.19441
 9.31286
 6.38418
 6.35297
 5.8599
 5.57885
 5.66823
 5.69411
 8.94519
 8.77736
 8.82363
 8.62701
 8.57603
 8.47456
 8.54151
 8.5595
 10.5665
 10.4792
 10.5957
 9.00591
 9.11289
 9.19559
 13.3081
 13.419
 13.3287
 13.3872
 9.81108
 9.7487
 10.7784
 10.7134
 10.7693
 10.889
 7.49022
 7.65064
 7.5068
 7.69648
 11.8125
 11.6746
 11.6106
 11.737
 10.1997
 10.2381
 10.3825
 6.84156
 6.79365
 6.81752
 6.90005
 10.1367
 10.0188
 10.1855
 10.3465
 10.3352
 10.4664
 10.4407
 9.11966
 9.20331
 9.18196
 9.02566
 6.0019
 5.56374
 12.4342
 12.382
 9.87828
 9.99439
 8.69799
 8.83108
 8.77584
 8.80084
 6.97711
 6.85035
 6.97392
 6.75384
 8.2782
 8.26412
 8.17799
 8.14894
 10.7305
 10.9452
 10.7724
 10.8529
 7.54849
 7.74224
 7.63908
 10.6278
 10.6658
 10.6067
 10.6125
 4.92162
 4.9095
 4.77021
 5.00709
 6.99337
 6.99863
 6.99798
 7.16018
 10.4558
 10.3631
 10.4994
 8.64407
 8.82032
 8.66287
 8.58358
 10.8422
 10.8573
 10.8058
 10.1967
 10.0558
 10.1007
 10.1833
 10.3259
 10.3532
 10.2186
 10.3072
 8.83395
 8.96063
 8.99725
 9.04847
 4.27113
 4.36439
 4.48434
 4.44206
 7.32522
 7.13008
 7.21608
 7.17213
 8.8197
 9.01291
 8.87097
 7.96391
 8.04167
 8.0348
 5.09546
 5.32523
 5.11392
 5.25669
 7.2094
 7.17204
 7.34857
 7.10395
 8.9798
 8.86158
 8.81135
 8.8227
 11.0139
 10.9809
 10.4906
 10.575
 10.417
 10.4139
 12.65
 12.687
 12.7914
 12.6464
 6.33361
 6.30476
 6.29657
 6.38265
 10.0612
 10.2122
 10.1668
 10.1782
 8.2575
 8.41368
 8.31306
 8.49328
 11.2295
 11.2903
 11.266
 11.317
 7.8217
 7.90752
 7.99532
 7.98087
 8.6453
 6.44287
 6.55632
 6.64885
 6.59551
 8.91475
 9.08844
 9.12245
 8.95556
 8.96082
 8.88048
 8.77673
 8.82535
 9.36584
 9.50456
 9.45289
 9.54371
 10.39
 10.532
 10.3093
 5.56409
 5.52199
 5.46818
 5.79477
 9.0056
 9.05556
 9.05639
 9.11022
 5.74026
 5.66592
 5.53561
 6.88444
 7.00766
 6.89661
 6.98112
 6.06442
 5.79964
 5.94422
 5.78286
 10.4737
 10.3555
 10.498
 13.6347
 13.5833
 13.5694
 6.58575
 6.37347
 6.42923
 7.77895
 7.50316
 7.64372
 7.48027
 9.23349
 9.16951
 9.10062
 9.22221
 8.79199
 8.73331
 8.9388
 8.89157
 12.0739
 11.9856
 12.1882
 11.9786
 8.20415
 8.28294
 8.29973
 8.31882
 7.47416
 7.46593
 7.32729
 7.524
 10.1067
 10.1003
 9.75252
 10.0228
 9.88837
 9.87018
 6.75441
 6.89156
 6.79717
 6.80287
 10.2534
 10.102
 7.33859
 7.41698
 10.6742
 13.4131
 13.4367
 13.4175
 13.3357
 11.2229
 11.0922
 3.81435
 3.58888
 3.7724
 10.9108
 10.7927
 10.6839
 10.8005
 6.54456
 6.52639
 9.92355
 9.95668
 9.93658
 9.92716
 9.45074
 9.19771
 9.29823
 6.39926
 6.32386
 6.37164
 6.18328
 7.16046
 6.99391
 7.13898
 7.08435
 5.47079
 5.46175
 5.27159
 8.85911
 8.99763
 8.8459
 9.0641
 8.40979
 5.34688
 5.65759
 5.4223
 5.49797
 10.8361
 10.8716
 10.7913
 10.7338
 8.05774
 8.19364
 8.00869
 8.16025
 6.25832
 6.52466
 6.33345
 6.47384
 12.8803
 12.8533
 12.8174
 12.8064
 10.4252
 3.9427
 9.12007
 8.89943
 9.04253
 9.18734
 8.02469
 7.88307
 8.0709
 8.12487
 9.94214
 10.1269
 10.0283
 9.98228
 7.89984
 7.9807
 7.91287
 7.87892
 10.5721
 10.5413
 10.4132
 10.5937
 10.4802
 10.3927
 10.4914
 8.78988
 8.64648
 8.86883
 8.77961
 6.17241
 6.01752
 6.35527
 3.29632
 3.08669
 3.2678
 3.37603
 12.1778
 12.2981
 12.3136
 8.55748
 8.56311
 8.70674
 8.64412
 8.80302
 8.58953
 4.79502
 4.81847
 4.86137
 4.65653
 6.61762
 6.74585
 6.69284
 6.82584
 10.3951
 10.1879
 10.3378
 11.4944
 8.96342
 9.14407
 9.08027
 8.97426
 8.58081
 8.48076
 8.5079
 6.89862
 6.98967
 6.96451
 6.84341
 6.32457
 6.51656
 6.37579
 6.47608
 9.05051
 9.15439
 6.60125
 6.61948
 6.56465
 6.439
 7.79961
 7.84902
 7.8105
 7.66564
 4.41543
 4.30328
 7.33549
 7.48901
 7.34698
 7.41833
 6.6743
 6.58963
 6.55649
 6.47144
 6.96965
 6.86446
 6.96825
 6.96735
 8.48318
 8.39393
 8.89196
 8.7883
 8.90729
 8.99797
 9.43514
 9.56871
 9.50623
 9.47258
 7.76768
 7.65833
 7.65427
 7.75087
 10.5256
 10.423
 10.3477
 10.2856
 9.97366
 10.0004
 10.0553
 10.0052
 12.4456
 12.3728
 12.3842
 12.5012
 9.43413
 9.66185
 7.85008
 8.09748
 7.91127
 7.99039
 9.08682
 9.1192
 9.04784
 8.94741
 8.12156
 8.0169
 7.9492
 8.06731
 8.82639
 8.80247
 6.39013
 6.46104
 3.91219
 3.87576
 3.85559
 3.81682
 10.8195
 8.92914
 8.94505
 8.89571
 8.78899
 8.30655
 8.45428
 8.40737
 8.38102
 9.70435
 9.79261
 9.82882
 9.94696
 6.76112
 6.97417
 6.78393
 6.97141
 7.99873
 8.10391
 8.15607
 8.00794
 10.5828
 10.6306
 10.5223
 10.6339
 10.6989
 9.20315
 9.04371
 9.23658
 9.15818
 9.31998
 9.11323
 9.28243
 9.31023
 10.3857
 10.3805
 10.502
 10.3878
 10.0223
 9.98087
 9.79857
 9.88276
 8.66022
 8.52146
 8.73118
 8.74295
 10.5171
 10.5982
 10.6464
 10.5978
 7.88585
 7.83412
 8.04478
 9.80716
 9.80894
 9.83337
 9.85761
 11.8077
 11.7265
 7.90811
 7.79697
 7.76043
 8.12901
 7.94627
 8.02098
 7.93417
 10.7749
 10.6758
 10.6249
 11.1798
 11.1162
 11.1135
 11.1627
 7.31778
 7.35003
 7.22386
 7.37452
 8.01061
 8.21864
 7.99728
 6.00418
 6.3196
 6.17745
 8.4971
 8.6166
 8.587
 5.48048
 5.5082
 5.45006
 12.5886
 12.6714
 12.6699
 12.5961
 4.38837
 4.31609
 4.42232
 4.29794
 9.51805
 9.64572
 7.73287
 7.86545
 10.3446
 10.334
 10.3677
 10.2418
 7.46215
 7.52846
 7.33973
 6.30899
 6.17318
 6.20361
 6.17711
 5.38507
 5.64753
 10.807
 10.791
 10.8516
 7.90476
 7.92369
 8.07187
 9.98966
 10.1218
 9.96905
 10.7114
 10.7097
 10.7471
 10.8028
 8.95743
 8.89368
 9.0422
 8.83839
 9.14466
 9.30664
 9.27114
 9.16221
 6.89141
 6.94036
 6.95948
 6.77664
 6.42468
 6.56144
 6.48136
 6.6826
 9.25856
 9.24321
 9.13518
 7.36218
 7.41703
 7.50988
 6.82425
 6.67774
 6.77083
 6.7225
 2.88366
 2.99677
 2.8327
 8.43727
 8.47706
 8.48051
 6.79508
 6.69348
 6.9067
 8.59059
 8.50386
 8.6962
 9.56658
 9.73274
 9.69419
 10.8015
 10.7489
 10.7749
 10.745
 8.4778
 8.77349
 8.61572
 8.72561
 9.82859
 9.87526
 9.97573
 10.457
 10.3115
 7.0188
 7.12572
 6.87948
 7.04043
 6.99804
 6.85242
 7.07324
 7.17656
 10.3433
 10.201
 10.1298
 10.0877
 10.5059
 10.65
 10.5641
 10.6574
 11.4198
 11.4879
 11.4155
 11.5352
 4.6307
 4.5465
 5.68117
 5.91733
 5.78488
 5.65519
 4.2661
 9.65083
 9.49013
 9.65255
 8.3166
 8.27163
 8.39132
 8.44533
 10.4366
 10.4488
 8.67767
 8.7169
 8.5665
 10.9036
 10.8523
 5.9098
 5.89648
 5.71113
 6.04454
 5.24686
 5.30229
 4.98949
 5.17331
 6.3347
 6.30541
 6.48262
 9.53568
 9.42834
 9.43608
 5.3167
 5.34424
 5.27615
 5.2328
 9.90694
 10.0801
 9.94891
 9.8843
 6.1948
 6.30547
 6.34518
 6.20352
 9.81403
 9.96682
 9.99907
 9.75405
 10.5329
 10.4785
 10.5803
 4.26877
 3.96034
 4.10644
 4.19008
 10.759
 10.704
 10.7311
 9.0046
 8.95316
 8.78897
 8.88961
 4.40062
 4.21115
 4.31185
 9.81906
 9.92809
 9.77652
 9.86618
 7.20492
 4.82137
 4.70957
 5.09622
 4.87756
 10.9926
 10.9576
 10.8911
 10.9659
 6.95375
 7.20716
 7.01384
 6.94753
 8.51208
 8.45899
 8.66299
 10.5105
 10.5979
 10.4931
 10.7553
 7.19881
 7.25276
 7.11549
 10.0331
 10.091
 12.4883
 12.5988
 12.4891
 12.4188
 11.2875
 11.5722
 11.5848
 5.19127
 5.27572
 4.91637
 5.17166
 5.21898
 5.10414
 11.1873
 11.1517
 11.2817
 11.1114
 9.1988
 9.13268
 9.14691
 9.06781
 8.73871
 8.9409
 8.92975
 8.87517
 7.90438
 7.96588
 7.78384
 7.94578
 7.88251
 8.13386
 7.97446
 8.11284
 4.63208
 10.6106
 10.6687
 10.602
 10.6447
 4.53076
 4.66564
 4.4557
 7.79201
 7.95724
 8.03639
 7.96911
 10.7468
 10.6166
 10.574
 8.09201
 8.22455
 8.124
 8.23133
 8.5359
 6.94514
 6.89396
 6.70671
 6.77484
 9.9123
 9.91893
 9.9147
 8.54159
 8.28768
 8.39105
 4.36921
 4.44827
 4.64526
 4.47213
 8.56447
 8.59884
 8.65882
 12.9389
 12.9007
 13.0117
 8.57661
 8.68156
 8.58751
 8.8225
 6.85828
 6.69658
 6.74619
 8.39602
 8.35809
 5.54965
 5.45554
 5.6496
 5.61709
 6.37213
 6.21696
 6.2984
 6.33008
 4.16094
 4.22375
 4.34355
 4.46696
 7.99677
 8.28973
 8.07863
 8.02815
 6.5949
 6.63736
 6.69951
 6.7641
 5.55423
 5.42108
 5.29014
 10.106
 10.0213
 10.2378
 10.156
 8.72592
 8.57702
 9.4589
 9.56674
 9.44459
 9.49933
 7.03748
 7.05681
 7.06905
 6.95416
 8.59949
 8.45862
 8.49859
 8.65092
 7.20078
 7.29262
 7.08776
 7.27535
 8.43774
 8.40069
 8.25405
 8.24929
 8.64888
 8.7723
 8.76688
 5.65919
 5.78971
 5.69946
 4.89987
 4.90145
 4.95666
 4.6716
 5.53681
 5.5478
 5.41816
 6.6333
 6.38731
 6.58891
 12.1939
 12.1974
 12.294
 8.76186
 8.57354
 8.72099
 5.84001
 5.75781
 5.85387
 5.86412
 8.767
 8.69609
 8.7795
 7.8942
 7.84559
 7.84152
 7.99344
 7.1642
 7.50465
 7.38982
 7.3998
 8.53458
 8.41133
 8.45074
 8.34105
 10.2771
 10.1888
 10.2608
 10.3304
 8.708
 7.9072
 7.9237
 7.83118
 8.125
 10.7715
 10.7264
 10.7092
 10.7164
 10.7238
 10.6156
 10.6875
 10.6185
 10.4923
 10.4045
 10.4593
 10.5216
 7.1841
 7.22008
 7.00878
 6.91922
 10.0281
 10.1139
 10.0571
 10.0381
 3.79592
 3.98772
 3.83941
 3.98075
 11.4826
 11.4174
 11.33
 11.3379
 10.0297
 10.0148
 10.0479
 10.9735
 11.0703
 11.137
 11.1133
 10.4609
 10.552
 10.3743
 10.6719
 10.6509
 8.30135
 8.32662
 8.21855
 7.99459
 4.97158
 5.13536
 5.18916
 4.89399
 4.93084
 4.80661
 4.98842
 10.4288
 10.524
 4.14912
 4.02178
 4.20344
 5.59228
 5.62956
 5.58095
 5.46203
 10.483
 10.551
 10.4645
 4.29307
 4.21211
 4.36125
 4.16362
 9.40168
 9.36934
 9.26407
 9.49332
 10.4015
 10.5737
 10.4968
 10.3728
 11.0683
 10.868
 10.9501
 10.9904
 11.9114
 11.8657
 11.9777
 11.9757
 7.52474
 7.23836
 7.39251
 7.2675
 9.28988
 9.2843
 9.3435
 9.53548
 4.22643
 4.46526
 4.24384
 13.0197
 12.8971
 12.9801
 12.8381
 11.3199
 11.1926
 11.267
 11.159
 4.39868
 4.12716
 4.27206
 4.28727
 8.52205
 8.49749
 8.37203
 5.42388
 5.17576
 5.13852
 10.2329
 10.2424
 10.4159
 4.16042
 4.36148
 4.3722
 4.24382
 5.4736
 5.54723
 5.59085
 5.74042
 9.86344
 9.78567
 9.6634
 9.78345
 9.31098
 9.46247
 9.31888
 9.49575
 6.23827
 6.23218
 6.17927
 5.99699
 8.16516
 8.25612
 8.36081
 8.28957
 11.5739
 11.4497
 11.4517
 11.4532
 5.38523
 5.75336
 5.51549
 5.6077
 3.95794
 8.22919
 8.18714
 8.08326
 8.08722
 4.91422
 4.8021
 4.83912
 4.6441
 10.7477
 10.7467
 10.7268
 10.7243
 4.26751
 4.11836
 4.32915
 4.40621
 8.63032
 8.6686
 9.25083
 9.33091
 9.22637
 9.17452
 6.28283
 6.46051
 6.47686
 6.47208
 7.87044
 7.68625
 7.71571
 9.32549
 9.35058
 9.29242
 6.29918
 6.31335
 6.51197
 6.51618
 6.52726
 6.62007
 6.44184
 6.57699
 10.3179
 10.4444
 10.456
 8.53895
 8.2093
 8.21079
 8.3975
 11.6057
 11.5063
 11.3814
 11.555
 11.6602
 4.11511
 4.44766
 4.09972
 4.38271
 8.2831
 8.37446
 8.44226
 8.29196
 5.09012
 4.96256
 8.87521
 9.09769
 9.0882
 9.97021
 10.1041
 9.88204
 9.92054
 4.37936
 4.44942
 4.3039
 4.30639
 10.5904
 10.5438
 10.5639
 9.93729
 9.99509
 9.88569
 9.98302
 9.3834
 9.22775
 9.34349
 9.52351
 6.9475
 6.62899
 6.81227
 6.73769
 10.1414
 9.95301
 10.0592
 10.0759
 6.36063
 7.58751
 7.39552
 7.34275
 7.62022
 4.95982
 4.89545
 5.08793
 4.48508
 4.56496
 4.57919
 4.7186
 7.49353
 7.41065
 7.62185
 7.52353
 3.61609
 3.626
 3.62683
 3.83233
 9.45139
 7.71625
 7.93874
 7.94874
 7.77971
 8.24553
 8.48318
 8.37979
 8.32005
 11.8935
 11.7667
 11.734
 11.8632
 8.64197
 8.60159
 8.54653
 8.73017
 9.04496
 9.01436
 8.96465
 8.89915
 8.89247
 8.86708
 8.75201
 5.28302
 5.4634
 5.53675
 9.001
 9.1607
 9.13742
 9.03386
 5.32077
 5.05428
 5.19966
 8.43566
 8.53984
 8.22147
 8.11991
 8.16862
 8.06665
 8.11425
 8.06573
 8.36024
 8.32271
 8.12125
 8.19123
 5.14048
 5.03807
 5.04656
 9.3976
 4.7346
 7.86147
 7.74906
 7.87512
 8.02792
 10.3802
 10.3543
 10.5077
 10.1082
 9.97149
 9.91407
 8.20808
 8.15152
 8.30859
 8.52404
 8.53188
 8.45452
 8.37344
 8.37129
 8.49281
 8.26661
 8.4636
 13.0632
 13.0411
 13.149
 6.25229
 6.45681
 6.26168
 8.65333
 8.60282
 5.67683
 5.93715
 5.86587
 5.93699
 7.63117
 7.49344
 7.62581
 11.7862
 11.7821
 11.9126
 11.8608
 8.95591
 9.13951
 9.00142
 9.07083
 10.2691
 10.3373
 10.4074
 10.4503
 7.0204
 7.25364
 7.13318
 7.03862
 9.62154
 9.73063
 9.64375
 9.80931
 11.5421
 11.5626
 11.5722
 9.3567
 9.41251
 9.49226
 9.45589
 6.9715
 6.77819
 6.84274
 6.84
 8.45961
 8.29549
 8.27065
 8.36677
 10.0942
 10.165
 10.0851
 9.1964
 9.31242
 9.25717
 9.28474
 10.1402
 10.2877
 10.1149
 10.2481
 10.7269
 10.5597
 10.5732
 10.7588
 4.51576
 4.40247
 4.46605
 4.40766
 10.512
 10.4034
 10.443
 10.4007
 10.1552
 10.2521
 10.1069
 10.1224
 7.40617
 7.18355
 7.2678
 7.14226
 9.35888
 9.40706
 9.26296
 9.31821
 3.11704
 3.03329
 3.05327
 3.01872
 8.9517
 9.021
 8.88109
 10.7191
 10.8154
 10.7753
 10.6569
 10.5698
 10.6331
 10.5898
 10.6358
 10.3586
 10.566
 6.84923
 7.01087
 6.86965
 7.09993
 3.52558
 3.65551
 3.57506
 3.60182
 9.13762
 9.28349
 9.20224
 9.28893
 10.3679
 10.4555
 10.4686
 7.13373
 7.31008
 7.33326
 7.17055
 8.79211
 8.82343
 8.73123
 8.62804
 9.98784
 9.98367
 9.99984
 9.87659
 10.7844
 10.5828
 10.7049
 6.03338
 5.8549
 5.77723
 5.98993
 5.76225
 5.75857
 5.93515
 9.09173
 9.08718
 8.98749
 8.92099
 8.98852
 9.06658
 8.89119
 9.99557
 9.86103
 9.80159
 9.82978
 7.18746
 7.23201
 7.35453
 10.3899
 10.3877
 10.535
 8.26801
 8.09412
 8.16599
 5.69743
 5.91993
 5.80032
 6.8863
 6.93022
 9.43037
 9.32906
 9.44346
 9.32147
 9.26676
 9.33101
 8.67956
 8.8651
 9.85049
 10.9309
 10.9067
 11.0178
 5.23204
 5.25798
 5.52826
 9.1076
 8.99148
 9.03699
 9.13459
 9.9095
 8.4161
 8.2993
 7.09556
 7.04727
 7.12976
 6.97543
 8.4591
 8.58804
 8.42631
 9.01009
 8.93021
 9.15565
 8.98273
 9.36178
 9.0999
 8.97357
 9.08899
 9.1514
 8.89935
 5.27633
 5.44922
 5.49487
 5.36978
 5.1736
 5.03553
 4.78944
 4.87401
 10.4341
 10.3162
 8.40649
 8.45023
 8.49824
 8.61604
 7.92229
 7.87837
 7.82183
 7.75226
 7.27254
 7.12364
 7.28582
 7.3137
 8.72918
 8.81783
 8.87567
 8.70562
 8.96603
 8.86514
 8.93862
 9.01512
 5.69418
 5.95418
 5.72856
 5.78926
 10.1868
 10.0233
 10.0015
 9.89573
 10.2265
 10.0647
 10.1522
 6.13592
 5.97265
 5.77673
 5.71247
 10.0555
 9.94986
 9.98691
 9.88357
 4.93642
 5.02419
 4.88892
 4.97521
 5.68772
 5.79176
 5.73251
 5.82479
 9.24496
 9.16803
 9.30278
 9.23284
 6.80687
 6.74832
 6.85796
 7.02321
 9.93221
 9.85202
 9.74255
 9.70375
 6.36286
 6.46146
 6.42116
 10.4782
 10.3923
 10.499
 10.4331
 7.67446
 7.72852
 7.63262
 7.56737
 9.3577
 9.31392
 6.51492
 6.25521
 6.374
 6.449
 6.30693
 6.34185
 6.4548
 8.87993
 8.67373
 8.86108
 6.03906
 6.05234
 5.9823
 5.82887
 11.5209
 11.4707
 11.3849
 11.4286
 9.92918
 9.88028
 9.75351
 9.72688
 7.53398
 7.75053
 7.72237
 7.51562
 5.07092
 5.03547
 5.16447
 5.03464
 5.58245
 5.41463
 5.38114
 5.5466
 4.8454
 4.85238
 4.80991
 5.18479
 5.11897
 9.57998
 9.48554
 9.59153
 9.45283
 10.261
 10.2117
 10.4187
 10.2921
 9.75031
 9.74564
 9.42713
 9.27121
 9.38873
 9.38656
 9.02023
 9.00217
 8.83298
 9.00116
 10.2921
 10.2884
 10.3955
 8.13966
 8.24198
 8.21365
 8.27849
 3.09818
 3.15975
 3.32065
 9.53031
 9.5564
 9.50874
 9.37523
 5.71711
 5.94983
 5.80365
 5.74356
 6.94638
 6.73959
 6.80615
 8.36559
 8.45685
 8.29061
 6.89942
 6.70698
 6.90269
 5.69435
 5.85176
 7.05776
 7.03251
 7.03097
 9.88871
 9.83197
 9.79408
 9.95759
 4.89938
 4.77847
 4.9064
 4.96628
 7.63016
 7.43002
 7.54944
 12.047
 12.1778
 12.2184
 12.0596
 10.5459
 10.6158
 7.91336
 9.3892
 9.19649
 9.32526
 9.38756
 8.27603
 8.10803
 8.11675
 6.53975
 6.49906
 6.63804
 6.53241
 4.82675
 4.72379
 8.56225
 8.62802
 8.62033
 8.72128
 10.6967
 10.7972
 10.8084
 10.6546
 5.52721
 5.41483
 5.44371
 5.52334
 7.48471
 7.41344
 7.51449
 12.818
 12.8684
 12.964
 12.9648
 10.4318
 10.4569
 10.5777
 9.65238
 9.53959
 9.73252
 9.61258
 7.66732
 7.64952
 7.7518
 7.5374
 8.44227
 8.31523
 10.8166
 10.7749
 10.7883
 10.7829
 7.36725
 7.18737
 9.71056
 9.87999
 9.78683
 9.74107
 9.12016
 9.05553
 9.23464
 9.11244
 8.42674
 8.26767
 8.19714
 8.32622
 9.69856
 9.77011
 9.92727
 6.95342
 7.19112
 6.95082
 7.13454
 6.02326
 5.87105
 5.72198
 5.9981
 6.24368
 6.2594
 6.24318
 6.06805
 10.758
 10.8926
 10.795
 10.8975
 8.45828
 8.55885
 12.3244
 12.4504
 12.395
 12.5158
 9.17956
 9.32153
 9.38687
 4.20276
 13.3254
 13.2943
 13.2958
 13.4566
 8.5679
 8.48008
 8.56969
 8.55238
 9.52106
 9.37811
 9.4549
 6.11486
 5.96504
 5.93804
 6.13256
 6.09278
 6.1584
 5.9645
 5.97381
 6.21211
 6.13161
 6.28349
 6.34994
 9.84588
 9.72412
 9.92507
 9.72619
 10.3601
 10.409
 10.4803
 10.4684
 7.36709
 7.37486
 7.17197
 7.38643
 9.04498
 9.25467
 8.98825
 9.12722
 3.41684
 4.9264
 4.85082
 7.70746
 7.72156
 8.93181
 9.05631
 9.02339
 4.79606
 4.50587
 4.69246
 4.74522
 8.66422
 8.73341
 7.85518
 7.98937
 11.7847
 11.6678
 11.8065
 11.6811
 9.86898
 9.92241
 10.0264
 9.9517
 7.41329
 7.20629
 7.38316
 7.25764
 11.5257
 11.6592
 11.5577
 11.5018
 3.74582
 3.82694
 3.63663
 3.80906
 5.03683
 5.26096
 4.64001
 4.77121
 4.92605
 4.6306
 6.04941
 5.90134
 9.30228
 9.22611
 9.32649
 13.0975
 12.9907
 13.1311
 13.1212
 11.3812
 11.2957
 11.2725
 11.3829
 4.95508
 4.80515
 4.95439
 5.05349
 6.70242
 6.45077
 6.58792
 8.12517
 8.27563
 8.38338
 8.20515
 9.69079
 9.51769
 9.65809
 9.71257
 5.48711
 5.31235
 5.44032
 4.91496
 8.26159
 8.0676
 9.73541
 9.68455
 7.08574
 6.89905
 7.14092
 7.07339
 10.2838
 10.4511
 10.2334
 10.4678
 10.535
 10.6743
 10.6241
 12.9502
 12.7674
 12.7922
 12.8533
 9.61841
 9.53606
 9.54944
 9.42215
 5.57162
 5.54308
 5.90916
 5.74671
 5.83652
 5.74668
 9.9365
 9.94363
 9.80591
 10.0367
 6.40655
 6.51052
 6.34593
 7.01598
 7.01505
 6.96231
 7.10646
 5.79562
 5.63688
 5.8309
 5.61844
 9.73625
 9.59914
 9.64601
 9.70899
 4.47907
 4.78691
 8.96327
 12.1031
 12.055
 11.9762
 11.932
 6.39343
 6.44363
 6.29507
 11.4227
 11.5056
 11.4397
 11.5492
 6.94243
 6.96102
 6.95757
 6.79817
 10.6625
 10.6681
 10.8121
 10.6218
 10.225
 10.2446
 10.1188
 10.0908
 7.2446
 7.11476
 7.09713
 9.40779
 9.33748
 9.44624
 9.52977
 7.59115
 7.61989
 7.51169
 7.76056
 7.83045
 7.96595
 5.83818
 5.77691
 5.79911
 6.95496
 6.92973
 7.05159
 12.2221
 12.205
 12.0933
 12.1849
 10.4244
 10.2927
 10.4871
 10.2483
 5.39002
 5.63938
 5.64399
 5.65752
 6.10332
 6.16212
 10.0419
 9.77773
 10.0228
 6.99562
 7.20151
 7.16691
 7.26335
 7.09681
 7.14655
 7.21685
 9.84587
 9.91769
 9.82934
 9.79732
 4.62543
 4.6256
 9.29333
 9.34965
 9.28977
 9.20938
 9.96148
 9.95126
 9.90162
 6.89145
 6.83919
 8.51794
 8.58589
 8.55902
 8.40716
 10.6725
 10.726
 7.38744
 7.46253
 9.29126
 9.49018
 9.45488
 9.34384
 8.12352
 8.12825
 8.24004
 8.02371
 8.14465
 8.24378
 8.15312
 11.0186
 10.9975
 11.06
 10.8278
 11.4267
 11.4247
 11.3332
 11.3765
 6.85846
 6.98589
 7.12429
 7.01529
 5.25094
 5.22832
 5.35654
 5.35893
 7.82757
 7.73659
 7.88016
 8.40203
 8.49176
 8.56348
 8.49483
 8.41125
 6.25866
 6.21599
 9.61584
 9.47522
 9.60555
 9.64466
 10.1881
 5.2421
 5.27758
 5.41611
 5.34908
 8.34696
 8.59978
 8.52825
 8.39128
 12.781
 12.706
 8.85936
 9.04503
 8.86491
 12.2386
 12.2045
 12.2658
 12.1454
 7.51948
 7.6451
 7.54018
 7.60427
 10.678
 10.5304
 10.4977
 9.88847
 9.76799
 4.33213
 4.36152
 4.36486
 4.72278
 4.71877
 4.82305
 10.421
 10.2266
 9.90125
 9.90522
 12.5021
 12.5793
 12.5912
 12.6097
 5.26044
 5.50644
 5.20848
 10.2467
 10.2236
 10.1467
 10.328
 10.0104
 10.0669
 9.91249
 10.0688
 6.89616
 6.83239
 6.75527
 6.85076
 7.57856
 7.23797
 7.40151
 7.00076
 6.9714
 7.16348
 6.98293
 6.30699
 6.4913
 6.15138
 6.57767
 10.7678
 10.7575
 10.3733
 10.3652
 10.3031
 7.69299
 7.76872
 7.92571
 7.85636
 10.1322
 10.1431
 9.98601
 10.0402
 6.69197
 6.79088
 6.75577
 6.65636
 10.716
 10.5595
 5.33226
 5.45541
 5.40174
 5.54481
 6.71157
 6.98366
 6.86501
 6.66542
 9.66673
 9.65184
 9.6978
 9.57238
 5.69014
 5.48362
 8.92529
 8.88712
 8.83451
 8.80033
 11.4929
 11.4694
 11.4858
 11.4602
 10.6924
 10.6169
 10.6979
 10.5893
 4.21344
 4.14497
 4.08657
 4.11006
 5.02576
 5.10343
 5.16897
 9.73283
 9.75706
 9.77801
 4.33353
 4.22821
 8.83299
 8.76986
 8.87377
 8.67232
 5.55102
 5.67393
 5.51638
 5.67247
 10.0517
 10.1258
 10.031
 10.1441
 11.0426
 10.9116
 10.973
 5.94409
 5.73095
 5.74663
 5.77576
 9.20573
 9.01146
 9.04465
 9.09578
 10.3251
 10.2731
 10.1809
 10.4213
 10.7916
 10.9863
 10.7415
 7.75739
 7.92203
 7.6662
 8.26289
 8.22458
 8.35482
 8.17407
 7.78131
 7.80438
 7.64134
 7.83617
 9.34324
 9.19991
 9.33743
 9.20986
 9.9319
 9.89991
 9.82142
 9.9974
 10.4387
 10.5568
 7.1544
 6.92912
 7.16767
 7.16851
 8.12333
 8.33383
 8.16666
 8.25901
 8.03215
 8.2542
 8.28269
 8.35807
 8.08579
 8.19887
 12.1532
 12.1103
 12.0126
 12.0866
 4.97074
 4.78906
 4.98184
 9.10811
 9.11847
 9.15497
 9.2559
 8.66274
 8.78702
 8.66635
 10.5801
 10.4906
 10.6358
 10.5929
 10.2254
 10.3503
 10.2614
 10.2956
 9.19624
 9.15677
 9.03683
 10.0479
 10.1245
 6.7122
 6.81135
 6.59033
 4.00246
 3.97573
 4.12898
 4.03049
 10.2367
 10.389
 10.3779
 10.216
 8.66405
 8.5312
 8.48314
 8.63364
 6.25256
 6.20383
 6.37621
 6.37126
 10.1294
 10.0693
 10.1771
 9.97532
 9.76156
 9.6761
 9.62932
 9.51175
 5.93101
 6.08218
 6.28594
 6.23849
 9.80495
 9.64843
 5.26236
 5.32847
 5.16915
 7.77316
 7.91625
 11.1492
 11.2074
 11.2435
 11.2698
 9.14342
 9.07787
 9.03114
 9.0652
 11.2076
 11.2639
 11.2014
 8.69724
 8.72389
 7.49296
 7.37997
 7.20992
 7.48057
 9.17643
 9.16501
 7.17284
 7.00931
 9.27348
 9.36349
 9.28377
 9.23304
 7.13281
 7.26028
 7.06483
 7.03393
 6.43535
 6.25289
 6.08115
 6.20354
 4.43087
 4.40886
 4.48681
 4.47744
 8.5487
 8.46951
 10.1928
 10.1957
 10.4227
 10.4876
 6.36553
 6.55624
 10.5643
 10.4249
 10.5226
 11.8779
 11.8555
 11.667
 11.7486
 12.095
 11.989
 12.0494
 8.2143
 8.02279
 8.05005
 8.07427
 9.24375
 9.11339
 9.21839
 10.2775
 9.69942
 9.58715
 9.76387
 9.61549
 10.3204
 10.217
 10.4187
 10.2898
 9.39253
 9.5055
 9.36741
 9.49558
 6.89274
 7.20155
 7.18733
 6.93603
 4.41358
 4.48519
 4.4837
 4.33017
 8.91469
 8.96317
 8.75377
 8.81705
 5.94446
 6.03653
 5.73173
 5.78647
 9.71288
 6.85808
 7.10179
 6.98553
 7.02272
 11.0519
 11.127
 11.0606
 11.0491
 6.83161
 6.66121
 6.65104
 9.52404
 5.20105
 5.18964
 5.28903
 4.96843
 4.76911
 4.76981
 4.75627
 4.62399
 4.82662
 4.67775
 4.63977
 8.36865
 8.39714
 8.34939
 8.54495
 4.76584
 4.75432
 4.6813
 4.68677
 10.3089
 10.4056
 10.4324
 10.4633
 7.28379
 7.35171
 7.32836
 7.50125
 8.96753
 8.78812
 8.82027
 8.95009
 11.6397
 11.55
 11.6173
 7.49816
 8.65118
 8.69492
 8.76694
 8.57694
 4.80683
 4.65341
 4.66092
 4.60229
 4.89218
 4.78131
 4.62123
 4.67738
 7.40954
 7.45976
 7.35508
 7.48865
 9.70081
 9.79178
 9.84134
 9.78419
 9.12962
 8.96915
 9.07324
 5.14512
 5.03624
 5.17085
 5.33348
 4.74014
 4.63964
 4.6485
 4.79664
 10.3433
 10.4248
 10.4211
 5.99263
 5.84873
 4.70341
 4.74889
 4.71744
 10.261
 10.3572
 10.2007
 10.1897
 6.61407
 6.34813
 6.65167
 6.69586
 9.1556
 7.77931
 7.74072
 7.63244
 7.76773
 7.38859
 7.52261
 7.35333
 7.62492
 4.88734
 4.78969
 5.65792
 5.43411
 5.5835
 5.40387
 5.74523
 5.49208
 5.60419
 5.40726
 5.88835
 6.09855
 5.82748
 6.04247
 6.65016
 6.50508
 6.63421
 6.54181
 11.45
 11.3014
 4.94326
 4.87013
 4.75368
 10.784
 10.8077
 10.7771
 9.9405
 10.1182
 10.1584
 9.99012
 6.53764
 6.63642
 6.49843
 6.35032
 8.83545
 8.98544
 8.92064
 8.90788
 3.91145
 4.05911
 3.92446
 3.78395
 7.86092
 7.89836
 7.78109
 7.82658
 5.85176
 5.71034
 5.88812
 7.16276
 7.16371
 7.90024
 8.15362
 7.95496
 7.95804
 8.21637
 8.42343
 8.27203
 8.38143
 10.5077
 10.4557
 10.4336
 7.27912
 7.14161
 7.20356
 7.06837
 9.29853
 9.23821
 9.1227
 5.32655
 5.37276
 5.13356
 5.42076
 4.65715
 7.64212
 7.8818
 7.89701
 7.75189
 7.21354
 7.09387
 7.07104
 7.13709
 7.35519
 7.44005
 7.50876
 13.0549
 13.1302
 13.0193
 13.0237
 10.0152
 9.88942
 10.6543
 10.7654
 8.71461
 8.96295
 8.88992
 8.79048
 13.6616
 13.6208
 4.10579
 4.04914
 3.97912
 3.84092
 6.58103
 6.2686
 10.4766
 10.4965
 10.4169
 10.4227
 8.66305
 8.64704
 8.52474
 8.57539
 5.72794
 5.55384
 5.62204
 5.82283
 9.81793
 9.8727
 9.75138
 9.80464
 8.86024
 8.99308
 8.81276
 8.89389
 5.59575
 5.5129
 5.50026
 5.32386
 8.88826
 8.83463
 8.83827
 9.02596
 4.47387
 4.61748
 4.57759
 4.63681
 7.35112
 7.21206
 7.26012
 9.99002
 9.99164
 10.1851
 10.02
 7.60403
 7.73786
 7.64105
 7.76315
 8.09135
 8.21778
 9.44619
 9.22534
 9.18883
 7.22754
 7.25961
 7.06936
 7.0332
 4.31269
 4.33201
 4.18018
 4.18909
 5.22119
 5.07826
 4.95653
 5.24215
 10.1713
 10.1977
 10.3155
 10.2765
 10.7607
 10.7733
 10.8002
 10.7847
 10.4555
 10.6343
 10.5135
 10.5761
 10.9471
 10.9304
 10.9831
 8.31036
 8.33912
 8.31113
 8.53393
 6.02047
 5.92647
 6.61115
 6.38519
 6.52246
 6.54588
 6.26154
 6.1486
 6.35147
 10.0061
 10.1192
 10.0765
 10.1608
 8.35903
 8.32832
 8.22681
 8.25043
 3.86693
 3.84474
 3.79219
 3.71118
 8.01954
 8.10978
 8.17719
 8.00306
 7.76689
 7.95466
 7.74724
 7.9204
 5.05944
 4.95388
 5.11997
 5.10942
 10.5865
 10.7894
 10.7052
 10.6371
 6.70537
 6.69962
 10.6571
 10.7547
 5.89365
 6.08522
 5.92443
 5.77271
 8.03804
 8.06868
 7.98291
 8.19582
 11.2155
 11.0937
 11.1825
 10.6823
 10.7216
 10.8022
 10.7882
 9.58609
 9.74924
 8.03322
 8.10593
 7.99151
 8.10313
 7.06208
 7.08531
 6.94898
 9.13055
 9.25996
 9.23224
 9.10318
 9.29027
 9.06934
 9.29824
 9.15378
 6.28355
 6.43772
 6.37031
 6.37175
 11.0114
 11.0208
 10.9554
 4.20162
 4.16641
 4.41099
 4.38197
 7.45166
 7.50757
 7.48211
 10.2168
 10.1682
 10.1174
 4.696
 4.70886
 4.87712
 4.61972
 5.84816
 9.64166
 9.80709
 9.7856
 9.72779
 4.93807
 5.27378
 5.12451
 4.9857
 7.50699
 7.29923
 7.36822
 4.2522
 4.21485
 4.21377
 4.23843
 4.94003
 5.08155
 5.08452
 4.91199
 4.8375
 11.2155
 11.1255
 8.66065
 8.71796
 8.51472
 8.64265
 11.3196
 11.3978
 11.3899
 11.3506
 9.49068
 7.38256
 7.33142
 7.58186
 6.68064
 6.54778
 6.40882
 6.68661
 9.45904
 9.43387
 9.54637
 9.59804
 9.89608
 9.92829
 7.65542
 7.54999
 7.56895
 9.76841
 9.85572
 9.75939
 9.67157
 9.94589
 9.94113
 9.86766
 9.83136
 4.70888
 4.64428
 9.41626
 9.30042
 9.40929
 9.42483
 11.0039
 10.7906
 11.0119
 10.847
 10.0174
 9.98587
 9.70332
 9.94323
 10.9185
 10.9986
 10.9105
 6.07964
 6.25294
 6.07761
 6.73624
 6.71357
 4.97052
 4.92623
 5.06224
 10.4492
 10.5953
 10.5476
 10.588
 10.2726
 10.2004
 10.1471
 13.241
 13.116
 13.2332
 13.3045
 6.19413
 6.42836
 6.18192
 6.0701
 9.7544
 9.68339
 9.77274
 9.54514
 7.46107
 7.59038
 7.52348
 7.43466
 6.39021
 6.44071
 6.62467
 6.53227
 10.2342
 10.2277
 10.1735
 10.1158
 8.70873
 8.57204
 8.72379
 6.88543
 6.85051
 6.73467
 7.41027
 7.41066
 7.49041
 7.3025
 8.8604
 9.02677
 9.03757
 9.01705
 7.30204
 7.22156
 7.15257
 10.9796
 10.7426
 10.9415
 10.915
 8.49155
 8.47513
 8.45254
 8.61119
 10.3471
 10.4769
 10.4779
 10.412
 10.5467
 10.7419
 10.5103
 10.5568
 3.68624
 3.46516
 3.77486
 10.3537
 10.4525
 10.3652
 3.84029
 6.0258
 6.0055
 6.24693
 6.14545
 10.6642
 6.73552
 9.69188
 9.70852
 9.80746
 9.77819
 10.9739
 11.0547
 11.1175
 11.0463
 7.10566
 8.79079
 4.16987
 4.21045
 4.20875
 4.24917
 13.1226
 13.0261
 13.0616
 9.6915
 9.80802
 9.83233
 10.8679
 10.9661
 3.46917
 3.37544
 3.62058
 3.53881
 9.1244
 9.35229
 9.20803
 9.16233
 5.75178
 5.5522
 5.53825
 7.32858
 7.47391
 6.97721
 7.05298
 6.7704
 6.94131
 4.75683
 4.88573
 4.94404
 4.81753
 8.79909
 8.81451
 8.58716
 8.66396
 5.10883
 5.00457
 5.20272
 5.10968
 8.42267
 8.33733
 8.1691
 8.3925
 6.24136
 6.23202
 6.1459
 6.34456
 6.06509
 6.26808
 6.08334
 5.71547
 10.0776
 10.2756
 10.0341
 9.95155
 8.30949
 4.54968
 4.26551
 4.39176
 4.34823
 7.81669
 7.77673
 7.97962
 7.71663
 7.53829
 7.52837
 10.4981
 10.5701
 10.6248
 10.4622
 9.49408
 9.63463
 9.49125
 8.3724
 8.40444
 8.47626
 8.56981
 3.97359
 4.16706
 4.18911
 4.14453
 9.86022
 9.86433
 9.97111
 10.003
 6.72845
 6.97705
 6.95588
 6.85023
 8.52668
 8.48913
 8.62287
 10.5369
 10.4183
 10.4725
 10.4439
 11.8175
 11.8014
 11.9509
 11.7516
 9.50692
 9.63826
 9.68922
 5.54468
 5.54515
 5.43872
 7.87523
 6.41485
 6.63181
 6.52282
 6.52597
 9.78317
 9.826
 9.80169
 9.80355
 5.15646
 4.88369
 5.01768
 5.09193
 8.00502
 8.2407
 7.14839
 7.25382
 7.21172
 7.11647
 6.94381
 6.99655
 7.2873
 12.0002
 11.9329
 12.107
 11.9835
 3.29177
 3.00541
 3.08436
 3.27079
 9.45424
 9.31862
 9.38122
 10.1432
 10.0594
 10.2526
 10.0159
 6.98703
 7.17663
 7.08887
 12.7269
 12.838
 12.8974
 12.8013
 6.45545
 6.45622
 6.13033
 6.07382
 6.25058
 6.21156
 10.7723
 10.8512
 10.8092
 10.8966
 10.4176
 10.4145
 10.3665
 10.4699
 11.5231
 11.4046
 11.3472
 11.5233
 8.80318
 11.6425
 11.5601
 11.5823
 11.5201
 6.26078
 6.4574
 6.49717
 6.57082
 10.4253
 10.2876
 6.74815
 6.63117
 6.63826
 6.85218
 5.5187
 5.40389
 5.51058
 5.42848
 3.95085
 3.8214
 3.83925
 3.62752
 13.1087
 13.1516
 13.0107
 7.47941
 7.30162
 7.35678
 7.39463
 5.96355
 5.91673
 6.1028
 5.99935
 12.036
 11.9325
 11.8957
 12.0408
 7.56654
 6.23806
 6.15793
 6.1037
 6.29891
 4.89356
 4.78326
 4.89524
 8.83162
 8.77437
 8.79436
 8.68295
 4.20763
 3.93602
 3.84477
 3.97858
 7.76337
 7.68787
 7.77728
 7.79831
 7.60479
 9.94385
 10.1226
 9.90788
 7.958
 8.14028
 8.06699
 7.88408
 8.15222
 8.09189
 8.0466
 8.24123
 9.43624
 9.62112
 9.56919
 10.9006
 11.7383
 11.6201
 11.8544
 7.17152
 7.0155
 7.09049
 6.4278
 6.36883
 6.46937
 10.0929
 9.93749
 10.0231
 9.80852
 6.75022
 6.86145
 5.14866
 5.22518
 5.31181
 5.22291
 4.59265
 4.6465
 4.65353
 5.3347
 5.19762
 7.28856
 7.15673
 7.27201
 5.60617
 5.82032
 5.67521
 10.3903
 12.7993
 12.8557
 12.7548
 12.7799
 7.61713
 7.5707
 7.71868
 7.67657
 12.4742
 12.4413
 12.3218
 12.4936
 6.56383
 6.57626
 6.44775
 8.28464
 8.36341
 8.48211
 8.51503
 9.84832
 9.74879
 9.99342
 9.90598
 7.70704
 7.66585
 7.50343
 6.38679
 6.2768
 8.62445
 8.44869
 8.58909
 8.53413
 9.37618
 9.2714
 9.34464
 10.3615
 10.358
 10.3492
 7.38202
 7.36287
 7.22212
 7.45375
 6.2229
 6.04483
 6.1827
 6.07225
 3.26532
 3.37967
 3.20088
 3.3676
 8.08802
 8.09269
 3.19009
 3.3101
 3.39021
 7.03803
 10.7675
 10.6576
 10.5547
 10.6099
 9.85428
 9.74549
 9.83449
 9.77785
 7.18462
 7.30685
 7.23408
 5.17151
 5.0162
 10.8619
 10.8214
 10.9379
 10.7872
 6.40308
 6.47982
 10.7983
 10.8583
 7.75838
 7.77867
 7.85807
 11.094
 11.1902
 11.0411
 9.76116
 9.78366
 9.85152
 9.82298
 5.05749
 5.05696
 4.95506
 5.06128
 9.14462
 9.13019
 9.11464
 8.75396
 8.96355
 8.84338
 8.83189
 4.78453
 4.99573
 4.99591
 5.02899
 11.8485
 11.8042
 11.8916
 8.32247
 8.49334
 8.4091
 6.0934
 5.99565
 6.84084
 6.89052
 7.05818
 7.03709
 12.1238
 12.0308
 12.0543
 12.1
 10.039
 10.0362
 10.0109
 9.90895
 5.75372
 5.68194
 5.60682
 5.57193
 5.65621
 5.703
 5.72691
 5.81564
 8.91137
 9.08394
 8.93325
 8.97472
 3.83145
 3.56878
 3.62369
 3.79581
 10.3154
 10.1978
 10.3591
 12.1465
 12.2452
 12.2083
 7.7873
 7.7228
 6.84847
 6.81128
 6.9511
 6.85348
 5.24607
 5.33652
 5.06674
 5.06441
 9.32223
 8.08675
 8.95862
 8.82497
 8.7561
 8.66086
 13.2686
 13.4135
 13.3893
 13.2558
 6.22541
 6.28776
 10.0168
 9.95232
 9.85826
 9.51438
 9.57625
 9.42322
 9.37355
 10.7419
 10.832
 9.2862
 9.30398
 9.40417
 9.21951
 10.4892
 10.5947
 9.83039
 9.75472
 9.93335
