 -86.0451
 -86.0451
 -86.0451
 -86.0451
 -86.0451
 -86.0451
 -86.0453
 -86.0452
 -86.0451
 -86.0451
 -86.0451
 -86.0451
 -86.0451
 -86.0451
 -86.0451
 -86.0451
 -56.4441
 25.7357
 -74.0577
 -84.0118
 -75.4388
 -89.775
 -48.1437
 -80.9897
 -86.0451
 -86.0451
 -86.0451
 -86.0451
 -86.0451
 -86.0451
 -86.0451
 -86.0451
 -49.6219
 -71.563
 -89.5122
 -62.681
 -69.9734
 -71.5843
 -83.5077
 7.59032
 -86.0451
 -86.0451
 -86.0451
 -86.0451
 -86.0451
 -86.0451
 -86.0451
 -86.0451
 -86.0451
 -86.0451
 -86.0451
 -86.0451
 -86.0443
 -86.0466
 -86.0449
 -86.0458
 -86.0451
 -86.0451
 -86.0451
 -86.0451
 -86.0451
 -86.0451
 -86.0451
 -86.0451
 -85.9472
 -85.8352
 -85.9679
 -85.304
 -86.0451
 -86.0451
 -86.0451
 -86.0451
 -86.0451
 -86.0451
 -86.0451
 -86.0451
 -85.9317
 -85.8335
 -86.3575
 -87.3792
 -86.0451
 -86.0451
 -86.0451
 -86.0451
 25.1105
 26.5457
 27.2258
 25.0375
 -86.0451
 -86.0451
 -86.0451
 -86.0451
 -86.0451
 -86.0451
 -86.0451
 -86.0451
 -86.0451
 -86.0451
 -86.0451
 -86.0451
 -86.0451
 -86.0451
 -86.0451
 -86.0451
 -86.0451
 -86.0451
 -86.0451
 -86.0451
 -86.0451
 -86.0451
 -86.0451
 -86.0451
 -86.0451
 -86.0451
 -86.0451
 -86.0451
 -86.0451
 -86.0451
 -86.0451
 -86.0451
 -86.0451
 -86.0451
 -86.0451
 -86.0451
 -86.0451
 -86.0451
 -86.0451
 -86.0451
 -86.0451
 -86.0451
 -86.0451
 -86.0451
 -86.0451
 -86.0451
 -86.0451
 -86.0451
 -86.0451
 -86.0451
 -86.0451
 -86.0451
 -86.0451
 -86.0451
 -86.0451
 -86.0451
 -86.0451
 -86.0451
 -86.0451
 -86.0451
 -86.0451
 -86.0451
 -86.0451
 -86.0451
 -86.0451
 -86.0451
 -86.0451
 -86.0451
 23.4045
 24.1548
 23.4952
 23.9429
 -86.0451
 -86.0451
 -86.0451
 -86.0451
 -86.0452
 -86.0448
 -86.0451
 -86.0455
 -86.0451
 -86.0451
 -86.0451
 -86.0451
 -86.0451
 -86.0451
 -86.0451
 -86.0451
 -19.9646
 -60.1405
 14.3883
 -29.5314
 -86.0451
 -86.0451
 -86.0451
 -86.0451
 -86.0451
 -86.0451
 -86.0451
 -86.0451
 -86.0451
 -86.0451
 -86.0451
 -86.0451
 -86.0451
 -86.0451
 -86.0451
 -86.0451
 -86.0451
 -86.0451
 -86.0451
 -86.0451
 -86.0451
 -86.0451
 -86.0451
 -86.0451
 -86.0451
 -86.0451
 -86.0451
 -86.0451
 -86.0451
 -86.0451
 -86.0451
 -86.0451
 -86.0451
 -86.0451
 -86.0451
 -86.0451
 -86.0451
 -86.0451
 -86.0451
 -86.0451
 -86.0451
 -86.0451
 -86.0451
 -86.0451
 -86.0451
 -86.0451
 -86.0451
 -86.0451
 -86.0454
 -86.0455
 -86.0452
 -86.0452
 -86.0451
 -86.0451
 -86.0451
 -86.0451
 -86.0451
 -86.0451
 -86.0451
 -86.0451
 -86.0451
 -86.0451
 -86.0451
 -86.0451
 -86.0451
 -86.0451
 -86.0451
 -86.0451
 -86.0451
 -86.0451
 -86.0451
 -86.0451
 -86.0451
 -86.0451
 -86.0451
 -86.0451
 -86.0451
 -86.0451
 -86.0451
 -86.0451
 -86.0451
 -86.0451
 -86.0451
 -86.0451
 -86.0619
 -91.4342
 -88.9686
 -86.0881
 -75.1111
 -82.4011
 -43.9866
 11.2375
 -86.0451
 -86.0451
 -86.0451
 -86.0451
 -86.0451
 -86.0451
 -86.0451
 -86.0451
 -86.0451
 -86.0451
 -86.0451
 -86.0451
 -86.0451
 -86.0451
 -86.0451
 -86.0451
 -86.0451
 -86.0451
 -86.0451
 -86.0451
 -86.0451
 -86.0451
 -86.0451
 -86.0451
 -86.0451
 -86.0451
 -86.0451
 -86.0451
 -86.0451
 -86.0451
 -86.0451
 -86.0451
 -86.0451
 -86.0451
 -86.0451
 -86.0451
 24.8166
 30.39
 23.1177
 33.6297
 -86.0451
 -86.0451
 -86.0451
 -86.0451
 -86.0451
 -86.0451
 -86.0451
 -86.0451
 -86.0451
 -86.0451
 -86.0451
 -86.0451
 -86.0451
 -86.0451
 -86.0451
 -86.0451
 -86.0451
 -86.0451
 -86.0451
 -86.0451
 -86.0451
 -86.0451
 -86.0451
 -86.0451
 -86.0451
 -86.0451
 -86.0451
 -86.0451
 -86.0451
 -86.0451
 -86.0451
 -86.0451
 -86.0451
 -86.0451
 -86.0451
 -86.0451
 -86.0451
 -86.0451
 -86.0451
 -86.0451
 -86.0451
 -86.0451
 -86.0451
 -86.0451
 -86.0451
 -86.0451
 -86.0451
 -86.0451
 -86.0451
 -86.0451
 -86.0451
 -86.0451
 -86.0451
 -86.0451
 -86.0451
 -86.0451
 26.5482
 25.8035
 27.4257
 24.9047
 -86.0451
 -86.0451
 -86.0451
 -86.045
 -86.0451
 -86.0451
 -86.0451
 -86.0451
 -86.0451
 -86.0451
 -86.0451
 -86.0451
 -86.0451
 -86.0451
 -86.0451
 -86.0451
 -86.0451
 -86.0451
 -86.0451
 -86.0451
 -86.0451
 -86.0451
 -86.0451
 -86.0451
 -86.0451
 -86.0451
 -86.0451
 -86.0451
 -86.0451
 -86.0451
 -86.0451
 -86.0451
 -86.0451
 -86.0451
 -86.0451
 -86.0451
 -86.0451
 -86.0451
 -86.0451
 -86.0451
 -86.0451
 -86.0451
 -86.0476
 -86.045
 -86.0446
 -86.0482
 -86.0451
 -86.0451
 -86.0451
 -86.0451
 -86.0451
 -86.0451
 -86.0451
 -86.0451
 -86.0451
 -86.0451
 -86.0451
 -86.0451
 -86.045
 -86.045
 -86.0456
 -86.0457
 -86.0451
 -86.0451
 -86.0451
 -86.0451
 -86.0451
 -86.0451
 -86.0451
 -86.0451
 -86.0451
 -86.0451
 -86.0451
 -86.0451
 -85.7021
 -86.3186
 -86.2743
 -87.305
 -86.0451
 -86.0451
 -86.0451
 -86.0451
 -86.0451
 -86.0451
 -86.0451
 -86.0451
 -86.0451
 -86.0451
 -86.0451
 -86.0451
 -86.0451
 -86.0451
 -86.0451
 -86.0451
 -86.0248
 -86.0545
 -85.9971
 -86.0478
 -86.0451
 -86.0451
 -86.0451
 -86.0451
 -86.0451
 -86.0451
 -86.0451
 -86.0451
 -86.0451
 -86.0451
 -86.0451
 -86.0451
 -86.0451
 -86.0451
 -86.0451
 -86.0451
 -86.0451
 -86.0451
 -86.0451
 -86.0451
 -86.0451
 -86.0451
 -86.0451
 -86.0451
 -86.0451
 -86.0451
 -86.0451
 -86.0451
 -85.8096
 -86.2638
 -85.5836
 -85.5548
 -86.0451
 -86.0451
 -86.0451
 -86.0451
 -86.0455
 -86.0446
 -86.046
 -86.0456
 -86.0451
 -86.0451
 -86.0451
 -86.0451
 -86.0451
 -86.0451
 -86.0451
 -86.0451
 -86.0451
 -86.0451
 -86.0451
 -86.0451
 -86.0451
 -86.0451
 -86.0451
 -86.0451
 24.1012
 25.1848
 24.9542
 25.4759
 -86.0451
 -86.0451
 -86.0451
 -86.0451
 22.4525
 22.8657
 22.7547
 25.773
 -86.0451
 -86.0451
 -86.0451
 -86.0451
 -86.0451
 -86.0451
 -86.0451
 -86.0451
 17.6765
 13.7473
 29.1177
 26.4717
 -86.0451
 -86.0451
 -86.0451
 -86.0451
 -86.0451
 -86.0451
 -86.0451
 -86.0451
 -86.048
 -86.0406
 -86.0427
 -86.0394
 -21.3864
 20.2251
 20.032
 -31.23
 -86.0451
 -86.0451
 -86.0451
 -86.0451
 -86.0448
 -86.0451
 -86.0453
 -86.0452
 -86.0451
 -86.0451
 -86.0451
 -86.0451
 -86.0451
 -86.0451
 -86.0451
 -86.0451
 -86.0451
 -86.0451
 -86.0451
 -86.0451
 -86.0451
 -86.0451
 -86.0451
 -86.0451
 -86.0451
 -86.0451
 -86.0451
 -86.0451
 -86.0451
 -86.0451
 -86.0451
 -86.0451
 -86.0451
 -86.0451
 -86.0451
 -86.0451
 -86.0451
 -86.0451
 -86.0451
 -86.0451
 -86.0451
 -86.0451
 -86.0451
 -86.0451
 -86.0451
 -86.0451
 -86.0451
 -86.0451
 -54.664
 -90.9444
 10.1708
 19.6433
 -84.9049
 -85.2848
 -86.7737
 -91.2486
 -85.6695
 -86.0987
 -86.1157
 -85.9834
 -86.0451
 -86.0451
 -86.0451
 -86.0451
 -86.0451
 -86.0451
 -86.0451
 -86.0451
 -86.0451
 -86.0451
 -86.0451
 -86.0451
 -86.0451
 -86.0451
 -86.0451
 -86.0451
 -86.0451
 -86.0451
 -86.0451
 -86.0451
 -86.0451
 -86.0451
 -86.0451
 -86.0451
 -86.0451
 -86.0451
 -86.0451
 -86.0451
 -86.0451
 -86.0451
 -86.0451
 -86.0451
 -86.0451
 -86.0451
 -86.0451
 -86.0451
 -86.0451
 -86.0451
 -86.0451
 -86.0451
 -86.0451
 -86.0451
 -86.0451
 -86.0451
 -86.0451
 -86.0451
 -86.0451
 -86.0451
 -86.0451
 -86.0451
 -86.0451
 -85.9522
 -86.0547
 -85.9624
 -86.0279
 -86.0451
 -86.0451
 -86.0451
 -86.0451
 -85.6062
 -86.1484
 -84.1693
 -86.1057
 -86.0451
 -86.0451
 -86.0451
 -86.0451
 -86.0451
 -86.0451
 -86.0451
 -86.0451
 -86.0451
 -86.0451
 -86.0451
 -86.0451
 25.8485
 26.8807
 28.621
 30.0554
 -86.0452
 -86.0452
 -86.0452
 -86.0451
 -86.0451
 -86.0451
 -86.0451
 -86.0451
 -86.0451
 -86.0451
 -86.0451
 -86.0451
 -86.051
 -86.0409
 -86.049
 -86.0314
 -86.0451
 -86.0451
 -86.0451
 -86.0451
 -86.0451
 -86.0451
 -86.0451
 -86.0451
 -86.0429
 -86.0384
 -86.0409
 -86.0464
 -86.0451
 -86.0451
 -86.0451
 -86.0451
 -86.0447
 -86.0451
 -86.0456
 -86.0464
 -86.0451
 -86.0451
 -86.0451
 -86.0451
 -86.0396
 -86.079
 -86.0433
 -86.1314
 -86.0451
 -86.0451
 -86.0451
 -86.0451
 -86.0451
 -86.0451
 -86.0451
 -86.0451
 -86.0451
 -86.0451
 -86.0451
 -86.0451
 23.286
 23.1833
 24.4138
 23.5606
 -86.0451
 -86.0451
 -86.0451
 -86.0451
 -86.0451
 -86.0451
 -86.0451
 -86.0451
 -86.0451
 -86.0451
 -86.0451
 -86.0451
 -86.0524
 -86.034
 -86.0454
 -86.0426
 -86.0451
 -86.0451
 -86.0451
 -86.0451
 -86.0451
 -86.0451
 -86.0451
 -86.0451
 -86.0451
 -86.0451
 -86.0451
 -86.0451
 -86.0451
 -86.0451
 -86.0451
 -86.0451
 18.3178
 34.3876
 29.8305
 24.3296
 -86.0451
 -86.0451
 -86.0451
 -86.0451
 -76.014
 1.78383
 0.148701
 -80.0722
 -86.0451
 -86.0451
 -86.0451
 -86.0451
 -86.0451
 -86.0451
 -86.0451
 -86.0451
 -86.1253
 -84.9203
 -91.0736
 -87.7872
 -86.0451
 -86.0451
 -86.0451
 -86.0451
 -86.0453
 -86.0458
 -86.0452
 -86.0456
 -86.0451
 -86.0451
 -86.0451
 -86.0451
 -86.0451
 -86.0451
 -86.0451
 -86.0451
 -86.045
 -86.0452
 -86.0452
 -86.0452
 -86.0451
 -86.0451
 -86.0451
 -86.0451
 -86.0451
 -86.0451
 -86.0451
 -86.0451
 -86.0451
 -86.0451
 -86.0451
 -86.0451
 -86.0451
 -86.0451
 -86.0451
 -86.0451
 -86.0451
 -86.0451
 -86.0451
 -86.0451
 -86.0451
 -86.0451
 -86.0451
 -86.0451
 -86.0451
 -86.0451
 -86.0451
 -86.0451
 19.2064
 26.5247
 25.3249
 -74.9234
 21.075
 22.8354
 23.1999
 16.5519
 -86.0451
 -86.0451
 -86.0451
 -86.0451
 -86.0451
 -86.0451
 -86.0451
 -86.0451
 -86.0451
 -86.0451
 -86.0451
 -86.0451
 -86.0451
 -86.0451
 -86.0451
 -86.0451
 -86.0451
 -86.0451
 -86.0451
 -86.0451
 -86.0404
 -86.0363
 -86.0891
 -86.0346
 -86.0451
 -86.0451
 -86.0451
 -86.0451
 -86.0451
 -86.0451
 -86.0451
 -86.0451
 -86.0452
 -86.0452
 -86.0451
 -86.0451
 -86.0451
 -86.0451
 -86.0451
 -86.0451
 -86.0451
 -86.0451
 -86.0451
 -86.0451
 -86.0451
 -86.0451
 -86.0451
 -86.0451
 -86.0451
 -86.0451
 -86.0451
 -86.0451
 -86.0452
 -86.0451
 -86.0451
 -86.0452
 -86.0451
 -86.0451
 -86.0451
 -86.0451
 -86.0451
 -86.0451
 -86.0451
 -86.0451
 -86.0451
 -86.0451
 -86.0451
 -86.0451
 -86.0451
 -86.0451
 -86.0451
 -86.0451
 -86.0802
 -86.1211
 -86.1641
 -86.0753
 -86.0451
 -86.0451
 -86.0452
 -86.0451
 -86.0451
 -86.0451
 -86.0451
 -86.0451
 -86.0451
 -86.0451
 -86.0451
 -86.0451
 -86.9417
 -90.0117
 -87.2491
 -87.4435
 -86.0376
 -86.0462
 -86.0442
 -86.0434
 -86.0451
 -86.0451
 -86.0451
 -86.0451
 -86.0451
 -86.0451
 -86.0451
 -86.0451
 -86.0451
 -86.0451
 -86.0451
 -86.0451
 -86.0451
 -86.0451
 -86.0451
 -86.0451
 -86.0451
 -86.0451
 -86.0451
 -86.0451
 -86.3428
 -85.894
 -85.979
 -85.9923
 -86.0451
 -86.0451
 -86.0451
 -86.0451
 -86.0334
 -86.0431
 -86.0469
 -86.0413
 -86.0451
 -86.0451
 -86.0451
 -86.0451
 -86.0451
 -86.0451
 -86.0451
 -86.0451
 -86.0451
 -86.0451
 -86.0451
 -86.0451
 -86.0451
 -86.0451
 -86.0451
 -86.0451
 -86.0451
 -86.0451
 -86.0451
 -86.0451
 -86.0451
 -86.0451
 -86.0451
 -86.0451
 -86.0451
 -86.0451
 -86.0451
 -86.0451
 -86.0451
 -86.0451
 -86.0451
 -86.0451
 -86.0451
 -86.0451
 -86.0451
 -86.0451
 -86.0451
 -86.0451
 -86.0451
 -86.0451
 -86.0451
 -86.0451
 -86.0451
 -86.0451
 -86.0451
 -86.0451
 -86.0451
 -86.0451
 -86.0451
 -86.0451
 -86.0451
 -86.0451
 -86.0451
 -86.0451
 -86.0451
 -86.0451
 -77.0496
 -86.7388
 -86.4419
 -90.7491
 -86.0451
 -86.0451
 -86.0451
 -86.0451
 -86.0451
 -86.0451
 -86.0451
 -86.0451
 -86.0451
 -86.0451
 -86.0451
 -86.0451
 -86.0451
 -86.0451
 -86.0451
 -86.0451
 -86.0451
 -86.0451
 -86.0451
 -86.0451
 -86.0451
 -86.0451
 -86.0451
 -86.0451
 -86.0451
 -86.0451
 -86.0451
 -86.0451
 -86.0451
 -86.0451
 -86.0451
 -86.0451
 -86.0451
 -86.0451
 -86.0451
 -86.0451
 -88.6455
 -84.9883
 -88.1658
 -86.2393
 -86.0451
 -86.0451
 -86.0451
 -86.0451
 -86.0451
 -86.0451
 -86.0451
 -86.0451
 -69.1019
 -87.3418
 -72.8032
 -81.4311
 -86.0451
 -86.0451
 -86.0451
 -86.0451
 -86.0832
 -86.0643
 -86.052
 -86.0517
 -86.0451
 -86.0451
 -86.0451
 -86.0451
 -86.0451
 -86.0451
 -86.0451
 -86.0451
 -86.0451
 -86.0451
 -86.0451
 -86.0451
 -86.0451
 -86.0451
 -86.0451
 -86.0451
 -86.0448
 -86.0459
 -86.043
 -86.0455
 -86.0451
 -86.0451
 -86.0451
 -86.0451
 -86.0451
 -86.0451
 -86.0451
 -86.0451
 -86.0451
 -86.0451
 -86.0451
 -86.0451
 -86.0451
 -86.0451
 -86.0451
 -86.0451
 -86.0451
 -86.0451
 -86.0451
 -86.0451
 -86.0451
 -86.0451
 -86.0451
 -86.0451
 32.4456
 22.3312
 29.0652
 19.8027
 -86.0451
 -86.0451
 -86.0451
 -86.0451
 -86.0451
 -86.0451
 -86.0451
 -86.0451
 -86.0451
 -86.0435
 -86.0449
 -86.045
 -86.0451
 -86.0451
 -86.0451
 -86.0451
 -86.0451
 -86.0451
 -86.0451
 -86.0451
 -86.0451
 -86.0451
 -86.0451
 -86.0451
 -86.0451
 -86.0451
 -86.0451
 -86.0451
 -86.0451
 -85.9222
 -86.0627
 -86.0602
 -86.0693
 -86.0451
 -86.0451
 -86.0451
 -86.0451
 -86.0599
 -86.0929
 -86.0534
 -86.0569
 -86.0449
 -86.0449
 -86.0451
 -86.045
 -86.0451
 -86.0451
 -86.0451
 -86.0451
 -86.0451
 -86.0451
 -86.0451
 -86.0451
 -86.0451
 -86.0451
 -86.0451
 -86.0451
 -86.0451
 -86.0451
 -86.0451
 -86.0451
 -86.0451
 -86.0451
 -86.0451
 -86.0451
 -86.0451
 -86.0451
 -86.0451
 -86.0451
 -86.0451
 -86.0451
 -86.0451
 -86.0451
 -86.0451
 -86.0451
 -86.0451
 -86.7829
 -86.5997
 -85.7658
 -85.578
 -86.0451
 -86.0451
 -86.0451
 -86.0451
 -86.0476
 -86.0439
 -86.0447
 -86.0535
 -86.0451
 -86.0451
 -86.0451
 -86.0451
 -86.0451
 -86.0451
 -86.0451
 -86.0451
 -85.8301
 -85.7992
 -86.0925
 -85.8522
 -86.0451
 -86.0451
 -86.0451
 -86.0451
 -86.0451
 -86.0451
 -86.0451
 -86.0451
 26.1099
 26.8867
 26.2407
 28.1192
 -86.0451
 -86.0451
 -86.0451
 -86.0451
 -86.0451
 -86.0451
 -86.0451
 -86.0451
 -86.0451
 -86.0451
 -86.0451
 -86.0451
 -86.0451
 -86.0451
 -86.0451
 -86.0451
 -86.0747
 -87.9362
 -84.7539
 -88.2903
 -86.0451
 -86.0451
 -86.0451
 -86.0451
 -86.0451
 -86.0451
 -86.0451
 -86.0451
 -86.0451
 -86.0451
 -86.0451
 -86.0451
 23.5119
 24.5324
 24.3468
 29.1306
 25.4689
 27.2197
 19.362
 18.7736
 -86.0451
 -86.0451
 -86.0451
 -86.0451
 -86.0451
 -86.0451
 -86.0451
 -86.0451
 -86.0451
 -86.0451
 -86.0451
 -86.0451
 -86.0451
 -86.0451
 -86.0451
 -86.0451
 -86.0451
 -86.0451
 -86.0451
 -86.0451
 -86.0451
 -86.0451
 -86.0451
 -86.0451
 -86.0451
 -86.0451
 -86.0451
 -86.0451
 -86.0451
 -86.0451
 -86.0451
 -86.0451
 -86.0451
 -86.0451
 -86.0451
 -86.0451
 -86.0451
 -86.0451
 -86.0451
 -86.0451
 -86.0451
 -86.0451
 -86.0451
 -86.0451
 -86.0451
 -86.0451
 -86.0451
 -86.0451
 -86.0451
 -86.0451
 -86.0451
 -86.0451
 -86.0451
 -86.0451
 -86.0451
 -86.0451
 -86.0451
 -86.0448
 -86.0451
 -86.0463
 -86.0442
 -86.0451
 -86.0451
 -86.0451
 -86.0451
 -86.0451
 -86.0451
 -86.0451
 -86.0451
 -86.0451
 -86.0451
 -86.0451
 -86.0451
 -86.0451
 -86.0451
 -86.0451
 -86.0451
 -86.0451
 -86.0451
 -86.0451
 -86.0451
 -86.0451
 -86.0451
 -86.0451
 -86.0451
 -86.0451
 -86.0451
 -86.0451
 -86.0451
 -86.0451
 -86.0451
 -86.0451
 -86.0451
 -86.0451
 -86.0451
 -86.0451
 -86.0451
 -86.0451
 -86.0451
 -86.0451
 -86.0451
 11.7262
 4.99184
 29.7344
 27.0625
 -86.0454
 -86.0456
 -86.0422
 -86.0456
 -86.0472
 -86.0488
 -86.0388
 -86.0469
 -86.044
 -86.0453
 -86.0452
 -86.0448
 -86.0449
 -86.0452
 -86.0451
 -86.0452
 -86.0451
 -86.0451
 -86.0451
 -86.0451
 -86.0451
 -86.0451
 -86.0451
 -86.0445
 -86.0464
 -86.0453
 -86.0462
 -86.0451
 -86.0451
 -86.0451
 -86.0451
 -86.0451
 -86.0451
 -86.0451
 -86.0451
 -86.0451
 -86.0453
 -86.0461
 -86.0449
 -86.0451
 -86.0451
 -86.0451
 -86.0451
 -86.0451
 -86.0451
 -86.0451
 -86.0451
 17.7459
 28.2793
 -86.0451
 -86.0451
 -86.0451
 -86.0451
 -86.0451
 -86.0451
 -86.0451
 -86.0451
 -86.0451
 -86.0451
 -86.0451
 -86.0451
 -86.0451
 -86.0451
 -86.0451
 -86.0392
 -86.0641
 -86.0675
 -86.0395
 -86.0451
 -86.0451
 -86.0451
 -86.0451
 -86.0451
 -86.0451
 -86.0451
 -86.0451
 -86.0451
 -86.0451
 -86.0451
 -86.0451
 -86.0451
 -86.0451
 -86.0451
 -86.0451
 -86.0451
 -86.0451
 -86.0451
 -86.0451
 -86.0451
 -86.0451
 -86.0451
 -86.0451
 -86.0451
 -86.0451
 -86.0451
 -86.0451
 -86.0451
 -86.0451
 -86.0451
 -86.0451
 -86.0826
 -86.0607
 -86.0435
 -86.0418
 -86.0451
 -86.0451
 -86.0451
 -86.0451
 -86.0451
 -86.0451
 -86.0451
 -86.0451
 -86.0451
 -86.0451
 -86.0451
 -86.0451
 -86.0451
 -86.0451
 -86.0451
 -86.0451
 -86.0451
 -86.0451
 -86.0451
 -86.0451
 -86.0451
 -86.0451
 -86.0451
 -86.0451
 -86.0502
 -86.1148
 -86.1619
 -86.0211
 -86.0451
 -86.0451
 -86.0451
 -86.0451
 -86.0451
 -86.0451
 -86.0451
 -86.0451
 -86.0451
 -86.0451
 -86.0451
 -86.0451
 -86.0451
 -86.0451
 -86.0451
 -86.0451
 -86.0388
 -86.0394
 -86.0463
 -86.0433
 -86.0451
 -86.0451
 -86.0451
 -86.0451
 -86.0451
 -86.0451
 -86.0451
 -86.0451
 -86.0451
 -86.0451
 -86.0451
 -86.0451
 -86.0451
 -86.0451
 -86.0451
 -86.0451
 -86.0451
 -86.0451
 -86.0451
 -86.0451
 -86.0451
 -86.0451
 -86.0451
 -86.0451
 -86.0451
 -86.0451
 -86.0451
 -86.0451
 -86.0451
 -86.0451
 -86.0451
 -86.0451
 -86.0451
 -86.0451
 -86.0451
 -86.0451
 -86.0451
 -86.0451
 -86.0451
 -86.0451
 -86.0451
 -86.0451
 -86.0451
 -86.0451
 -86.0451
 -86.0451
 -86.0451
 -86.0451
 -86.0451
 -86.0451
 -86.0451
 -86.0451
 -86.0451
 -86.0451
 -86.0451
 -86.0451
 -86.0451
 -86.0451
 -86.0451
 -86.0451
 -86.0451
 -86.0451
 -86.0451
 -86.0451
 -86.0451
 -86.0451
 -86.0451
 -86.0451
 -86.0451
 -86.0451
 -86.0451
 -86.0451
 -86.0451
 -86.0451
 -86.0451
 -86.0451
 -86.0451
 -86.0451
 -86.0451
 -86.0451
 -86.0451
 -86.0451
 -86.0451
 -86.0451
 -86.0451
 28.1362
 34.8214
 25.3365
 28.1446
 -86.0451
 -86.0451
 -86.0451
 -86.0451
 -86.1048
 -85.7664
 -86.1096
 -86.0451
 -86.0451
 -86.0451
 -86.0451
 -86.0451
 -86.0451
 -86.0451
 -86.0451
 -86.0451
 -86.0451
 -86.0451
 -86.0451
 -86.0451
 -86.0451
 -86.0451
 -86.0451
 -86.0451
 -86.0451
 -86.0451
 -86.0451
 -86.0451
 -86.0451
 -86.0451
 -86.0451
 -86.0451
 -86.0451
 -86.0451
 -86.0451
 -86.0451
 -86.0451
 -86.0451
 -86.0451
 -86.0451
 -86.0451
 -86.0451
 -86.0451
 -86.0451
 -86.0451
 -86.0451
 -86.0451
 -86.0451
 -86.0451
 -86.0451
 -86.0451
 -86.0451
 -86.0451
 -86.0451
 -86.0451
 -86.0451
 -86.0451
 -86.0451
 -86.0451
 -86.0451
 -86.0451
 -86.0451
 -86.0451
 -86.0451
 -86.0451
 -86.0451
 -86.0451
 -86.0451
 -86.0451
 -86.0453
 -86.0439
 -86.0452
 -86.0453
 -86.0451
 -86.0451
 -86.0451
 -86.0451
 -86.0451
 -86.0451
 -86.0451
 -86.0451
 -86.0451
 -86.0451
 -86.0451
 -86.0451
 -86.0451
 -86.0451
 -86.0451
 -86.0451
 -54.6297
 -86.294
 -6.50257
 -74.9112
 -86.0451
 -86.0451
 -86.0451
 -86.0451
 -86.0451
 -86.0451
 -86.0451
 -86.0451
 -86.0451
 -86.0451
 -86.0451
 -86.0451
 -86.0451
 -86.0451
 -86.0451
 -86.0451
 -86.0451
 -86.0451
 -86.0451
 -86.0451
 -86.0452
 -86.0452
 -86.0445
 -86.0453
 -86.0451
 -86.0451
 -86.0451
 -86.0451
 -86.0451
 -86.0451
 -86.0451
 -86.0451
 -86.0451
 -86.0451
 -86.0451
 -86.0451
 -86.0451
 -86.0451
 -86.0451
 -86.0451
 -86.0451
 -86.0451
 -86.0451
 -86.0451
 -86.0451
 -86.0451
 -86.0451
 -86.0451
 -86.0452
 -86.0451
 -86.0451
 -86.0451
 14.1327
 30.7905
 -18.3459
 -54.497
 -86.0451
 -86.0451
 -86.0451
 -86.0451
 -86.0581
 -86.0551
 -86.0527
 -86.0552
 -86.0451
 -86.0451
 -86.0451
 -86.0451
 -86.0451
 -86.0451
 -86.0451
 -86.0451
 -86.0451
 -86.0451
 -86.0451
 -86.0451
 -86.0451
 -86.0451
 -86.0451
 -86.0451
 -86.0451
 -86.0451
 -86.0451
 -86.0451
 -86.0451
 -86.0451
 -86.0451
 -86.0451
 -86.0451
 -86.0453
 -86.0453
 -86.045
 -86.0451
 -86.0451
 -86.0451
 -86.0451
 -86.0451
 -86.0451
 -86.0451
 -86.0451
 -86.0451
 -86.0451
 -86.0451
 -86.0451
 -86.0451
 -86.0451
 -86.0451
 -86.0451
 -86.0451
 -86.0451
 -86.0451
 -86.0451
 -86.0451
 -86.0451
 -86.0451
 -86.0451
 -86.0451
 -86.0451
 -86.0451
 -86.0451
 -86.0451
 -86.0451
 -86.0451
 -86.0451
 -86.0451
 -86.0451
 -86.0451
 -86.0451
 -86.0451
 -86.0451
 -86.0451
 -86.0451
 -86.0451
 -86.0451
 -86.0451
 -86.0451
 -86.0451
 -86.0451
 -86.0451
 -85.8073
 -86.0096
 -85.9754
 -86.084
 -86.0451
 -86.0451
 -86.0451
 -86.0451
 -64.745
 -48.1139
 -14.5016
 -46.7217
 -86.0451
 -86.0451
 -86.0451
 -86.0451
 -86.0451
 -86.0451
 -86.0451
 -86.0451
 -86.0451
 -86.0451
 -86.0451
 -86.0451
 -86.0451
 -86.0451
 -86.0451
 -86.0451
 -86.0451
 -86.0451
 -86.0451
 -86.0451
 -86.0451
 -86.0451
 -86.0451
 -86.0451
 -86.0451
 -86.0451
 -86.0451
 -86.0451
 21.9591
 26.8943
 21.9455
 25.4786
 -86.0451
 -86.0451
 -86.0451
 -86.0451
 -86.0451
 -86.0451
 -86.0451
 -86.0451
 -86.0451
 -86.0451
 -86.0451
 -86.0451
 -86.0451
 -86.0451
 -86.0451
 -86.0451
 -86.0451
 -86.0451
 -86.0451
 -86.0451
 -86.0451
 -86.0451
 -86.0451
 -86.0451
 -86.0451
 -86.0451
 -86.0451
 -86.0451
 -86.0451
 -86.0451
 -86.0451
 -86.0451
 -86.0451
 -86.0451
 -86.0451
 -86.0451
 -86.0451
 -86.0451
 -86.0451
 -86.0451
 -86.0451
 -86.0451
 -86.0451
 -86.0451
 -86.0451
 -86.0451
 -85.7159
 -86.0995
 -86.1332
 -86.0004
 -86.0451
 -86.0451
 -86.0451
 -86.0451
 -86.0451
 -86.0451
 -86.0451
 -86.0451
 -86.0451
 -86.0451
 -86.0451
 -86.0451
 -86.0451
 -86.0451
 -86.0451
 -86.0451
 -86.0451
 -86.0451
 -86.0451
 -86.0451
 -86.0451
 -86.0451
 -86.0451
 -86.0451
 -86.0451
 -86.0451
 -86.0451
 -86.0451
 -90.9392
 -89.6692
 -85.7857
 -86.1509
 -86.0451
 -86.0451
 -86.0451
 -86.0451
 -86.0451
 -86.0451
 -86.0451
 -86.0451
 -86.0451
 -86.0451
 -86.0451
 -86.0451
 -86.0451
 -86.0451
 -86.0451
 -86.0451
 -86.0451
 -86.0451
 -86.0451
 -86.0451
 -86.0451
 -86.0451
 -86.0451
 -86.0451
 -86.0451
 -86.0451
 -86.0451
 -86.0451
 -86.0459
 -86.045
 -86.0454
 -86.0451
 -86.0451
 -86.0451
 -86.0451
 -86.0451
 -86.0451
 -86.0451
 -86.0451
 -86.0451
 -86.0436
 -86.0533
 -86.0486
 -86.0566
 -86.0451
 -86.0451
 -86.0451
 -86.0451
 -86.0451
 -86.0451
 -86.0451
 -86.0451
 -86.0451
 -86.0451
 -86.0451
 -86.0451
 -86.0451
 -86.0451
 -86.0451
 -86.0451
 -86.0451
 -86.0451
 -86.0451
 -86.0451
 -85.5516
 -85.5323
 -86.501
 -87.2241
 -86.0506
 -86.0385
 -86.0523
 -86.054
 -86.0451
 -86.0451
 -86.0451
 -86.0451
 -86.0451
 -86.0451
 -86.0451
 -86.0451
 -86.0451
 -86.0451
 -86.0451
 -86.0451
 -86.0451
 -86.0451
 -86.0451
 -86.0451
 -86.0451
 -86.0451
 -86.0451
 -86.0451
 -86.0451
 -86.0451
 -86.0451
 -86.0451
 -86.0451
 -86.0451
 -86.0451
 -86.0451
 -86.0451
 -86.0451
 -86.0451
 -86.0451
 -86.0451
 -86.0451
 -86.0451
 -86.0448
 -86.0484
 -86.0467
 -86.0186
 -86.0451
 -86.0451
 -86.0451
 -86.0451
 -86.0451
 -86.0451
 -86.0451
 -86.0451
 -86.0451
 -86.0451
 -86.0451
 -86.0451
 -86.0451
 -86.0451
 -86.0451
 -86.0451
 -86.0451
 -86.0451
 -86.0451
 -86.0451
 -86.0451
 -86.0451
 -86.0451
 -86.0451
 -86.0451
 -86.0451
 -86.0451
 -86.0451
 -86.0451
 -86.0451
 -86.0451
 -86.0451
 -86.0469
 -86.0526
 -86.0707
 -86.0348
 -86.0451
 -86.0451
 -86.0451
 -86.0451
 -86.0451
 -86.0451
 -86.0451
 -86.0451
 -88.6233
 -89.6387
 -85.5457
 -85.9315
 -86.0451
 -86.0451
 -86.0451
 -86.0451
 -86.0451
 -86.0451
 -86.0451
 -86.0451
 -86.0451
 -86.0451
 -86.0451
 -86.0451
 27.8686
 21.7489
 30.8127
 18.0927
 0.695935
 10.3997
 -48.1483
 -74.2462
 -88.5081
 -86.4168
 -85.4636
 -90.108
 -86.0451
 -86.0451
 -86.0451
 -86.0451
 -86.0451
 -86.0451
 -86.0451
 -86.0451
 -86.0451
 -86.0451
 -86.0451
 -86.0451
 -86.0451
 -86.0451
 -86.0451
 -86.0451
 -86.0451
 -86.0451
 -86.0451
 -86.0451
 -86.0451
 -86.0447
 -86.0449
 -86.0451
 -86.0451
 -86.0453
 -86.0451
 -86.0449
 -86.0451
 -86.0451
 -86.0451
 -86.0451
 -86.0451
 -86.0451
 -86.0451
 -86.0451
 -86.0451
 -86.0451
 -86.0451
 -86.0451
 -86.0451
 -86.0451
 -86.0451
 -86.0451
 -86.0451
 -86.0451
 -86.0451
 -86.0451
 -86.0451
 -86.0451
 -86.0451
 -86.0451
 -86.0451
 -86.0451
 -86.0451
 -86.0451
 -86.0451
 -86.0451
 -86.0451
 -86.0451
 -86.0451
 -86.0451
 -86.0451
 -86.0451
 -86.0451
 -86.0451
 -86.0451
 -86.0451
 -86.0451
 -86.0451
 -86.0451
 -86.0451
 -86.0451
 -86.0451
 -86.0451
 -86.0451
 -86.0451
 -86.0451
 -86.0451
 -86.0451
 -86.0451
 -86.0451
 -86.0451
 -86.0451
 -86.0451
 -86.0451
 -86.0451
 -86.0451
 -86.0451
 -86.0451
 -86.0451
 -86.0451
 -86.0451
 -86.0451
 -86.0451
 -86.0451
 -86.0451
 -86.0451
 -86.0451
 -86.0451
 -86.0451
 -86.0449
 -86.0451
 -86.045
 -86.0451
 -86.0451
 -86.0451
 -86.0451
 -86.0451
 -86.0451
 -86.0451
 -86.0451
 -86.0451
 -86.0451
 -86.0451
 -86.0451
 -86.0451
 -86.0451
 -86.0451
 -86.0451
 -86.0451
 -86.0451
 -86.0451
 -86.0451
 -86.0451
 -86.0451
 -86.0451
 -86.0451
 22.5739
 23.358
 22.7071
 22.6131
 -86.0451
 -86.0451
 -86.0451
 -86.0451
 -86.0451
 -86.0451
 -86.0451
 -86.0451
 -86.0451
 -86.0451
 -86.0451
 -86.0451
 -86.0451
 -86.0451
 -86.0451
 -86.0451
 -69.964
 -46.8676
 -89.3472
 -71.5637
 -86.0451
 -86.0455
 -86.0467
 -86.0451
 -86.0451
 -86.0451
 -86.0451
 -86.0451
 -86.0451
 -86.0451
 -86.0451
 -86.0451
 -86.0451
 -86.0451
 -86.0451
 -86.0451
 -86.0451
 -86.0451
 -86.0451
 -86.0451
 -86.0451
 -86.0451
 -86.0451
 -86.0451
 -86.0451
 -86.0451
 -86.0451
 -86.0451
 -86.0451
 -86.0451
 -86.0451
 -86.0451
 -86.0451
 -86.0451
 -86.0451
 -86.0451
 -86.0451
 -86.0451
 -86.0451
 -86.0451
 -86.0451
 -86.0451
 -86.0451
 -86.0451
 -86.0451
 -86.0451
 -86.0451
 -86.0451
 -86.0451
 -86.0451
 -86.0451
 -86.0451
 -86.0451
 -86.0451
 -86.0451
 -86.0451
 -86.0451
 -86.0451
 -86.0451
 -86.0451
 -86.0451
 -86.0451
 -86.0451
 -86.0451
 -86.0451
 -86.0451
 -86.0451
 -86.0481
 -86.0125
 -86.0494
 -85.998
 -86.0451
 -86.0451
 -86.0451
 -86.0451
 -86.0451
 -86.0451
 -86.0451
 -86.0451
 -86.0451
 -86.0451
 -86.0451
 -86.0451
 -86.0451
 -86.0451
 -86.0451
 -86.0451
 -86.0451
 -86.0451
 -86.0451
 -86.0451
 -86.0451
 -86.0451
 -86.0451
 -86.0451
 -86.0451
 -86.0451
 -86.0451
 -86.0451
 -85.9822
 -86.1685
 -85.8765
 -85.7486
 -86.0451
 -86.0451
 -86.0451
 -86.0451
 -86.0451
 -86.0451
 -86.0451
 -86.0451
 -86.0451
 -86.0451
 -86.0451
 -86.0451
 -86.0451
 -86.0451
 -86.0451
 -86.0451
 -87.8639
 -76.8073
 -68.6163
 -88.034
 -86.0451
 -86.0451
 -86.0451
 -86.0451
 -86.0451
 -86.0451
 -86.0451
 -86.0451
 -86.0487
 -86.0525
 -86.0441
 -86.0404
 -86.131
 -86.0368
 -86.0977
 -86.0451
 -86.0451
 -86.0451
 -86.0451
 -86.0451
 -86.0451
 -86.0451
 -86.0451
 -86.0451
 -86.0451
 -86.0451
 -86.0451
 -86.0451
 -86.0451
 -86.0451
 -86.0451
 -86.0451
 -86.0451
 -86.0451
 -86.0451
 -86.0451
 -86.0451
 -86.0451
 -86.0451
 -86.0451
 -86.0451
 -86.0451
 -86.0451
 -86.0451
 -86.0451
 -86.0451
 -86.0452
 -86.0451
 -86.0451
 -86.0451
 -86.0451
 -86.0451
 -86.0451
 -86.0451
 -86.0451
 -71.5342
 -90.5119
 -71.5138
 -90.7638
 -86.0451
 -86.0451
 -86.0451
 -86.0451
 -86.0451
 -86.0451
 -86.0451
 -86.0451
 -86.0451
 -86.0451
 -86.0451
 -86.0451
 -86.0451
 -86.0451
 -86.0451
 -86.0451
 -86.0451
 -86.0451
 -86.0451
 -86.0451
 -86.0451
 -86.0451
 -86.0451
 -86.0451
 -86.0419
 -86.0443
 -86.0432
 -86.0451
 -86.0451
 -86.0451
 -86.0451
 -86.0451
 -86.0451
 -86.0451
 -86.0451
 -86.0451
 -86.0451
 -86.0451
 -86.0451
 -86.0451
 -86.0451
 -86.0451
 -86.0451
 -61.7228
 18.2742
 19.1965
 14.1084
 -86.0451
 -86.0451
 -86.0451
 -86.0451
 -86.0451
 -86.0451
 -86.0451
 -86.0451
 -86.0451
 -86.0451
 -86.0451
 -86.0451
 -86.0451
 -86.0451
 -86.0451
 -86.0451
 -86.0451
 -86.0451
 -86.0451
 -86.0451
 -86.0451
 -86.0451
 -86.0451
 -86.0451
 -86.0451
 -86.0451
 -86.0451
 -86.0451
 -86.0451
 -86.0451
 -86.0451
 -86.0451
 -86.0451
 -86.0517
 -86.0498
 -86.0671
 -86.0494
 -85.6778
 -85.365
 -90.4653
 -85.2011
 -86.0451
 -86.0451
 -86.0451
 -86.0451
 -86.0451
 -86.0451
 -86.0451
 -86.0451
 -86.0451
 -86.0451
 -86.0451
 -86.0451
 -86.0451
 -86.0451
 -86.0451
 -86.0451
 -86.0451
 -86.0451
 -86.0451
 -86.0451
 -86.0451
 -86.0451
 -86.0451
 -86.0451
 -86.0451
 -86.0451
 -86.0451
 -86.0451
 -86.0303
 -86.0313
 -86.0287
 -86.0744
 -86.0451
 -86.0451
 -86.0451
 -86.0451
 -86.045
 -86.0451
 -86.0449
 -86.0451
 -86.5001
 -85.9664
 -85.9488
 -86.8307
 -86.1754
 -86.1182
 -86.0958
 -86.0302
 -86.0451
 -86.0451
 -86.0451
 -86.0451
 -86.0451
 -86.0451
 -86.0451
 -86.0451
 -86.0451
 -86.0451
 -86.0451
 -86.0451
 -86.0452
 -86.0452
 -86.0452
 -86.0452
 -86.0451
 -86.0451
 -86.0451
 -86.0451
 -86.0451
 -86.0451
 -86.0451
 -86.0451
 -86.0451
 -86.0451
 -86.0451
 -86.0451
 -86.0451
 -86.0451
 -86.0451
 -86.0451
 -86.0451
 -86.0451
 -86.0451
 -86.0451
 -86.0451
 -86.0451
 -85.9785
 -86.04
 -85.992
 -85.9471
 -86.0451
 -86.0451
 -86.0451
 -86.0451
 -86.0451
 -86.0451
 -86.0451
 -86.0451
 -86.0451
 -86.0451
 -86.0451
 -86.0451
 -86.0451
 -86.0451
 -86.0451
 -86.0451
 -86.0451
 -86.0451
 -86.0451
 -86.0451
 -86.0451
 -86.0451
 -86.0451
 -86.0451
 -86.0451
 -86.0451
 -86.0451
 -86.0451
 -86.077
 -85.9343
 -86.0646
 -86.0451
 -86.0451
 -86.0451
 -86.0451
 -86.0451
 -86.0451
 -86.0451
 -86.0451
 18.2985
 28.3967
 27.5711
 19.8684
 -86.0451
 -86.0451
 -86.0451
 -86.0451
 -86.0451
 -86.0451
 -86.0451
 -86.0451
 -86.0451
 -86.0451
 -86.0451
 -86.0451
 -86.0451
 -86.0451
 -86.0451
 -86.0451
 -86.0451
 -86.0451
 -86.0451
 -86.0451
 -86.0479
 -86.0435
 -86.0402
 -86.034
 -86.0451
 -86.0451
 -86.0451
 -86.0451
 13.51
 10.5045
 6.8437
 -28.9484
 -86.0451
 -86.0451
 -86.0451
 -86.0451
 -86.0451
 -86.0451
 -86.0451
 -86.0451
 -86.0451
 -86.0451
 -86.0451
 -86.0451
 -86.0451
 -86.0451
 -86.0451
 -86.0451
 -86.0451
 -86.0451
 -86.0451
 -86.0451
 -86.0451
 -86.0451
 -86.0451
 -86.0451
 -86.0451
 -86.0451
 -86.0451
 -86.0451
 -86.0451
 -86.0451
 -86.0451
 -86.0451
 -89.6495
 -89.2334
 -85.6931
 -86.0296
 -86.0452
 -86.0443
 -86.0456
 -86.0455
 -86.0451
 -86.0451
 -86.0451
 -86.0451
 -86.0451
 -86.0451
 -86.0451
 -86.0451
 -86.0452
 -86.0439
 -86.0454
 -86.0454
 -86.0451
 -86.0451
 -86.0451
 -86.0451
 -86.0451
 -86.0451
 -86.0451
 -86.0451
 -86.0451
 -86.0451
 -86.0451
 -86.0451
 -86.0451
 -86.0451
 -86.0451
 -86.0451
 -86.0451
 -86.0451
 -86.0451
 -86.0451
 -86.0451
 -86.0342
 -86.0331
 -86.0512
 -86.0413
 -86.0449
 -86.0454
 -86.0465
 -86.0454
 -86.0451
 -86.0451
 -86.0451
 -86.0451
 -86.0451
 -86.0451
 -86.0451
 -86.0451
 -86.0451
 -86.0451
 -86.0451
 -86.0451
 -86.0451
 -86.0451
 -86.0451
 -86.0451
 -86.0451
 -86.0451
 -91.3585
 -89.9842
 -85.1021
 -88.5888
 -86.0451
 -86.0451
 -86.0451
 -86.0451
 -86.3205
 -85.9933
 -85.9606
 -86.027
 -86.0451
 -86.0451
 -86.0451
 -86.0451
 -86.0451
 -86.0451
 -86.0451
 -86.0451
 -86.0451
 -86.0451
 -86.0451
 -86.0451
 -86.0451
 -86.0451
 -86.0451
 -86.0451
 -86.0451
 -86.0451
 -86.0451
 -86.0451
 -86.0451
 -86.0451
 -86.0451
 -86.0451
 -86.0451
 -86.0451
 -86.0451
 -86.0451
 -86.0451
 -86.0451
 -86.0451
 -86.0451
 -86.0451
 -86.0451
 -86.0451
 -86.0451
 -86.0451
 -86.0451
 -86.0451
 -86.0451
 -86.0451
 -86.0451
 -86.0451
 -86.0451
 -86.0451
 -86.0451
 -86.0451
 -86.0451
 -86.0451
 -86.0451
 -86.0451
 -86.0451
 -86.0449
 -86.0452
 -86.0452
 -86.0452
 -85.9974
 -86.0488
 -86.0442
 -86.0469
 -85.7439
 -87.3711
 -85.8071
 2.6561
 27.2913
 29.8589
 28.0529
 -86.045
 -86.0451
 -86.0451
 -86.0451
 -86.0451
 -86.0451
 -86.0451
 -86.0451
 -86.0289
 -86.0043
 -86.0633
 -85.8183
 -86.0451
 -86.0451
 -86.0451
 -86.0451
 -86.0451
 -86.0451
 -86.0451
 -86.0248
 -86.1014
 -86.1778
 -86.0926
 -86.1015
 -86.0408
 -86.0415
 -86.0451
 -86.0451
 -86.0451
 -86.0451
 -86.0451
 -86.0451
 -86.0451
 -86.0451
 -86.0451
 -86.0451
 -86.0451
 -86.0451
 -86.0501
 -86.0094
 -86.0098
 -86.047
 -86.0451
 -86.0451
 -86.0451
 -86.0451
 -86.0451
 -86.0451
 -86.0451
 -86.0451
 -86.0451
 -86.0451
 -86.0451
 -86.0451
 -86.0451
 -86.0451
 -86.0451
 -86.0451
 -86.0451
 -86.0451
 -86.0451
 -86.0451
 -86.0451
 -86.0451
 -86.0451
 -86.0451
 -86.0451
 -86.0451
 -86.0451
 -86.0451
 18.0123
 16.3749
 18.1722
 1.95748
 -86.0451
 -86.0451
 -86.0451
 -86.0451
 -86.0451
 -86.0451
 -86.0451
 -86.0451
 -86.0451
 -86.0451
 -86.0451
 -86.0451
 -86.0451
 -86.0451
 -86.0451
 -86.0451
 -86.0451
 -86.0451
 -86.0451
 -86.0451
 -86.0451
 -86.0451
 -86.0451
 -86.0451
 -86.0451
 -86.0451
 -86.0451
 -86.0451
 -86.0451
 -86.0451
 -86.0451
 -86.0451
 -86.0451
 -86.0451
 -86.0451
 -86.0452
 -86.046
 -86.0401
 -86.0388
 -86.0451
 -86.0451
 -86.0451
 -86.0451
 -86.0451
 -86.0451
 -86.0451
 -86.0451
 -86.0451
 -86.0451
 -86.0451
 -86.0451
 -86.0451
 -86.0451
 -86.0451
 -86.0451
 -86.0781
 -86.0366
 -86.143
 -86.1131
 -86.0451
 -86.0451
 -86.0451
 -86.0451
 -86.0451
 -86.0451
 -86.0451
 -86.0451
 -86.0451
 -86.0451
 -86.0451
 -86.0451
 -86.0451
 -86.0451
 -86.0451
 -86.0451
 -86.0451
 -86.0451
 -86.0451
 -86.0451
 -86.0451
 -86.0451
 -86.0451
 -86.0451
 -86.0451
 -86.0451
 -86.0451
 -84.8434
 -87.363
 -85.5315
 -84.6602
 -87.8136
 -87.6578
 -86.0763
 -86.0451
 -86.0451
 -86.0451
 -86.0451
 -86.0451
 -86.0451
 -86.0451
 -86.0451
 14.3335
 33.0424
 -86.0451
 -86.0451
 -86.0451
 -86.0451
 -86.0451
 -86.0451
 -86.0451
 -86.0451
 -86.0451
 -86.0451
 -86.0451
 -86.0451
 -86.0451
 -86.0451
 -86.0723
 -89.5226
 -86.2848
 -88.7298
 -44.566
 -84.3499
 -59.6753
 22.2509
 -86.0451
 -86.0451
 -86.0451
 -86.0451
 -86.0451
 -86.0451
 -86.0451
 -86.0451
 -86.0451
 -86.0451
 -86.0451
 -86.0451
 -86.0451
 -86.0451
 -86.0451
 -86.0451
 -86.0451
 -86.0451
 -86.0451
 -86.0451
 -86.0451
 -86.0451
 -86.0451
 -86.0451
 -86.0451
 -86.0451
 -86.0451
 -86.0451
 -86.0451
 -86.0451
 -86.0451
 -86.0451
 -86.0451
 -86.0451
 -86.0451
 -86.0452
 -86.045
 -86.0448
 -86.0451
 -86.0451
 -86.0451
 -86.0451
 -86.0558
 -86.0776
 -86.1019
 -86.0404
 -86.0451
 -86.0451
 -86.0451
 -86.0451
 -85.4923
 -86.126
 -86.1092
 -86.1004
 -86.0451
 -86.0451
 -86.0451
 -86.0451
 -86.0451
 -86.0451
 -86.0451
 -86.0451
 -86.0451
 -86.0451
 -86.0006
 -86.0601
 -86.1828
 -86.0672
 -86.0451
 -86.0451
 -86.0451
 -86.0451
 24.1028
 12.8988
 22.1922
 -86.0451
 -86.0451
 -86.0451
 -86.0451
 -86.0451
 -86.0451
 -85.8335
 -85.2201
 -85.7461
 -86.0741
 -86.0451
 -86.0451
 -86.0451
 -86.0451
 -86.0207
 -86.0308
 -86.0451
 -86.0451
 -86.0451
 -86.0451
 -86.0451
 -86.0451
 -86.0451
 -86.0451
 -86.0451
 -86.0451
 -86.0451
 -86.0451
 -86.0451
 -86.0451
 -86.0451
 -86.0451
 -86.0451
 -86.0451
 -46.417
 17.8359
 -78.6171
 -63.3828
 -86.0451
 -86.0451
 -86.0451
 -86.0453
 -86.0451
 -86.0451
 -86.0451
 -86.0451
 -86.0215
 -86.0509
 -86.0749
 -86.0397
 -86.0451
 -86.0451
 -86.0451
 -86.0451
 -86.0451
 -86.0451
 -86.0451
 -86.0451
 -86.0451
 -86.0451
 -86.0451
 -86.0451
 -86.0451
 -86.0451
 -86.0451
 -86.0451
 -86.0451
 -86.0451
 -86.0451
 -86.0451
 -86.0451
 -86.0451
 -86.0452
 -86.045
 -86.0451
 -86.0452
 -86.0451
 -86.0454
 -86.0449
 -86.0424
 -86.0443
 -86.0455
 -86.0451
 -86.0451
 -86.0451
 -86.0451
 -86.0468
 -86.0423
 -86.0471
 -86.0264
 -86.0451
 -86.0451
 -86.0451
 -86.0451
 -86.0454
 -86.0445
 -86.0453
 -86.0463
 -86.0451
 -86.0451
 -86.0451
 -86.0451
 -86.0451
 -86.0451
 -86.0451
 -86.0451
 -86.0451
 -86.0451
 -86.0451
 -86.0451
 -86.3869
 -85.8528
 -86.0451
 -86.0451
 -86.0451
 -86.0451
 -86.0451
 -86.0451
 -86.0451
 -86.0451
 -86.0451
 -86.0451
 -86.0451
 -86.0451
 -86.0451
 -86.0451
 -86.0451
 -86.0451
 -86.0451
 -86.0451
 -86.0451
 -86.0451
 -86.0451
 -86.0451
 -86.0451
 -86.0451
 -86.0378
 -86.0391
 -86.0391
 -86.0451
 -86.0456
 -86.0403
 -86.045
 -86.047
 -86.0451
 -86.0451
 -86.0451
 -86.0451
 -86.0451
 -86.0451
 -86.0451
 -86.0451
 18.876
 5.68265
 -25.4772
 6.27251
 -86.0451
 -86.0451
 -86.0451
 -86.0451
 -86.0451
 -86.0451
 -86.0451
 -86.0451
 -86.0451
 -86.0451
 -86.0451
 -86.0451
 -86.0301
 -86.0966
 -86.0139
 -86.119
 -86.0451
 -86.0451
 -86.0451
 -86.0451
 -86.0451
 -86.0451
 -86.0451
 -86.0451
 -86.0451
 -86.0451
 -86.0451
 -86.0451
 -86.0451
 -86.0451
 -86.0451
 -86.0451
 -85.9035
 -85.9947
 -85.9879
 -85.7478
 -86.0451
 -86.0451
 -86.0451
 -86.0451
 -86.0451
 -86.0451
 -86.0451
 -86.0451
 -86.0451
 -86.0451
 -86.0451
 -86.0451
 -84.9671
 -86.0451
 -86.0451
 -86.0451
 -86.0451
 -86.0451
 -86.0451
 -86.0451
 -86.0451
 -86.0451
 -86.0451
 -86.0451
 -86.0451
 -86.0451
 -86.0451
 -86.0451
 -86.0451
 -86.0451
 -86.0451
 -86.0451
 -86.0451
 -86.0451
 -86.0451
 -86.0451
 -86.0448
 -86.0451
 -86.0451
 -86.0451
 -86.0451
 -86.0451
 -86.0451
 -86.0451
 23.7316
 23.781
 23.5187
 22.9769
 -86.0451
 -86.0451
 -86.0451
 -86.0451
 -86.0451
 -86.0451
 -86.0451
 -86.0451
 -86.0451
 -86.0451
 -86.0451
 -86.0451
 25.1427
 12.172
 -53.3056
 -86.6838
 -85.8326
 -85.1228
 -85.6815
 -85.176
 -86.0451
 -86.0451
 -86.0451
 -86.0451
 -86.0451
 -86.0451
 -86.0451
 -86.0451
 -86.0451
 -86.0451
 -86.0451
 -86.0451
 -86.0451
 -86.0451
 -86.0451
 -86.0451
 -86.0451
 -86.0451
 -86.0451
 -86.0451
 -86.0451
 -86.0451
 -86.0451
 26.761
 23.8248
 17.1115
 10.1995
 -86.0451
 -86.0451
 -86.0451
 -86.0451
 -86.0451
 -86.0451
 -86.0451
 -86.0451
 -86.0451
 -86.0451
 -86.0451
 -86.0451
 -86.0451
 -86.0451
 -86.0451
 -86.0451
 -86.0451
 -86.0451
 -86.0451
 -86.0451
 -86.0451
 -86.0451
 -86.2085
 -86.0802
 -85.9856
 -86.0575
 -86.0451
 -86.0451
 -86.0451
 -86.0451
 -86.0451
 -86.0451
 -86.0451
 -86.0451
 -86.0451
 -86.0451
 -86.0451
 -86.0451
 -86.0431
 -86.0287
 -86.0461
 -86.0422
 -86.0451
 -86.0451
 -86.0451
 -86.0451
 -86.0451
 -86.0451
 -86.0451
 -86.0451
 -86.0451
 -86.0451
 -86.0451
 -85.6389
 -85.3564
 -85.0351
 -85.9435
 -86.0451
 -86.0451
 -86.0451
 -86.0451
 25.0331
 23.3525
 24.1194
 -86.0451
 -86.0451
 -86.0451
 -86.0451
 -86.0451
 -86.0451
 -86.0451
 -86.0451
 -86.0451
 -86.0451
 -86.0451
 -86.0451
 -86.0451
 -86.0451
 -86.0451
 -86.0451
 -86.0451
 -86.0451
 -86.0451
 -86.0451
 -86.0451
 -86.0451
 -86.0451
 -86.0451
 -86.0451
 -86.0451
 -86.0451
 -86.0451
 -86.0451
 -86.0451
 -86.0451
 -86.0451
 -86.0451
 -86.0451
 -86.0451
 -86.0451
 -86.0451
 -86.0451
 -86.0451
 -86.1059
 -85.9567
 -85.9107
 -86.9155
 -86.0451
 -86.0451
 -86.0451
 -86.0451
 -86.0451
 -86.0451
 -86.0451
 -86.0451
 14.1417
 24.0328
 22.3033
 10.4874
 18.0916
 -53.3174
 16.6188
 21.2747
 -86.0451
 -86.0451
 -86.0451
 -86.0451
 21.0344
 30.5222
 31.2629
 10.883
 -85.9172
 -86.1018
 -86.1546
 27.2821
 22.6676
 20.1829
 26.0395
 -86.0451
 -86.0451
 -86.0451
 -86.0451
 -86.0451
 -86.0451
 -86.0451
 -86.0451
 -86.0451
 -86.0451
 -86.0451
 -86.0451
 -86.0451
 -86.0451
 -86.0451
 -86.0451
 -87.2056
 -85.9157
 -86.3633
 -88.609
 -86.0451
 -86.0451
 -86.0451
 -86.0451
 -86.0451
 -86.0451
 -86.0451
 -86.0451
 -86.0451
 -86.0451
 -86.0451
 -86.0451
 -86.0451
 -86.0451
 -86.0451
 -86.0451
 -86.0451
 -86.0451
 -86.0451
 -86.0451
 -86.0451
 -86.0451
 -86.0032
 -86.041
 -86.0552
 -86.0597
 -86.0451
 -86.0451
 -86.0451
 -86.0451
 -86.0451
 -86.0451
 -86.0451
 -86.0451
 -86.0451
 -86.0451
 -86.0451
 -86.0451
 29.4507
 26.399
 -90.0366
 -91.3043
 -88.8877
 -75.2113
 -86.0451
 -86.0451
 -86.0451
 -86.0451
 -86.0451
 -86.0451
 -86.0451
 -86.0451
 -86.0451
 -86.0451
 -86.0451
 -86.0451
 -86.0451
 -86.0451
 -86.0451
 -86.0451
 -86.0451
 -86.0451
 -86.0451
 -86.0451
 -86.0451
 -86.0451
 -86.0451
 -86.0451
 -86.0451
 -86.0451
 -86.0451
 17.4116
 -69.7481
 19.8629
 -69.014
 -86.0451
 -86.0451
 -86.0451
 -86.0451
 -86.0451
 -86.0451
 -86.0451
 -86.0451
 -86.0451
 -86.0451
 -86.0451
 -86.0451
 -86.0451
 -86.0451
 -86.0451
 -86.0451
 -86.0451
 -86.0451
 -86.0451
 -86.0451
 -86.0451
 -86.0451
 -86.0451
 -86.0451
 -86.0451
 -86.0451
 -86.0451
 -86.0451
 -86.0451
 -86.0451
 -86.0451
 -86.0451
 -86.0451
 -86.0451
 -86.0454
 -86.0427
 -86.0456
 -86.0462
 -86.0451
 -86.0451
 -86.0451
 -86.0451
 -76.8684
 -87.5178
 -87.1852
 -91.3391
 -86.0451
 -86.0451
 -86.0451
 -86.0451
 -86.0451
 -86.0451
 -86.0451
 -86.0451
 -86.0451
 -86.0451
 -86.0451
 -86.0451
 -86.0451
 -86.0451
 -86.0451
 -86.0451
 -86.0451
 -86.0451
 -86.0451
 -86.0451
 -86.0451
 -86.0451
 -86.0451
 -86.0451
 -86.0451
 -86.0451
 -86.0451
 -86.0451
 -86.0451
 -86.0451
 -86.0451
 -86.0451
 -86.0451
 -86.0451
 -86.0451
 -86.0451
 -86.0451
 -86.0451
 -86.0451
 -86.0451
 -86.0451
 -86.0451
 -86.0451
 -86.0451
 -86.0451
 -86.0451
 -86.0451
 -86.0451
 -86.0451
 -86.0451
 -86.0452
 -86.0451
 -86.0451
 -86.0451
 -86.0451
 -86.0451
 -86.1056
 -86.0344
 -86.0531
 -86.0738
 -86.0451
 -86.0451
 -86.0451
 -86.0451
 -88.9118
 -79.438
 -87.368
 -86.0451
 -86.0451
 -86.0451
 -86.0451
 -86.0451
 -86.0451
 -86.0451
 -86.0451
 -86.0451
 -86.0451
 -86.0451
 -86.0451
 -86.0451
 -86.0451
 -86.0451
 -86.0451
 -86.0451
 -86.0451
 -86.0451
 -86.0451
 -86.0451
 -85.7675
 -85.8946
 -85.9234
 -85.6396
 -86.1983
 -86.0552
 -86.0419
 -85.9957
 -86.0451
 -86.0451
 -86.0451
 -86.0451
 -86.0451
 -86.0451
 -86.0451
 -86.0451
 -86.0451
 -86.0451
 -86.0451
 -86.0451
 -86.0451
 -86.0451
 -86.0451
 -86.0451
 -86.0451
 -86.0451
 -86.0451
 -86.0451
 -86.0451
 -86.0451
 -86.0451
 -86.0451
 -86.0451
 -86.0451
 -86.0451
 -86.0451
 -86.0451
 -86.0451
 -86.0451
 -86.0451
 -86.0451
 -86.0451
 -86.0459
 -86.0458
 -86.045
 -86.0456
 -86.0451
 -86.0451
 -86.0451
 -86.0451
 -86.0451
 -86.0451
 -86.0451
 -86.0451
 -86.0451
 -86.0451
 -86.0451
 -86.0451
 -86.0451
 -86.0451
 -85.7228
 -85.5743
 -85.5272
 -86.0612
 -86.0451
 -86.0451
 -86.0451
 -86.0451
 -86.0451
 -86.0451
 -86.0451
 -86.0451
 -86.0451
 -86.0452
 -86.0451
 -86.0451
 -86.0448
 -86.0453
 -86.0473
 -86.0451
 -86.0451
 -86.0451
 -86.0451
 -86.0451
 -86.0451
 -86.0451
 -86.0451
 -86.0451
 -86.0451
 -86.0451
 -86.0451
 -86.0451
 -86.0451
 -86.0451
 -86.0451
 -86.0451
 -86.0451
 -86.0451
 -86.0451
 -86.0451
 -86.0221
 -86.0612
 -89.1824
 -91.1423
 -66.936
 -95.0904
 -86.0451
 -86.0451
 -86.0451
 -86.0451
 -86.0452
 -86.0451
 -86.0451
 -86.045
 -86.0451
 -86.0451
 -86.0451
 -86.0451
 -86.0451
 -86.0451
 -86.0451
 -86.0451
 -86.0451
 -86.0451
 -86.0451
 -86.0451
 -86.0451
 -86.0451
 -86.0451
 -86.0451
 -86.0451
 -86.0451
 -86.0451
 -86.0451
 29.0862
 30.679
 34.558
 26.8819
 -86.0451
 -86.0451
 -86.0451
 -86.0451
 -86.0451
 -86.0451
 -86.0451
 -88.9393
 -68.367
 -91.7813
 -91.5162
 -86.0451
 -86.0451
 -86.0451
 -86.0451
 -86.0451
 -86.0451
 -86.0421
 -86.0476
 -86.0499
 -86.0465
 -86.0451
 -86.0451
 -86.0451
 -86.0451
 -81.9336
 -89.409
 -61.0761
 -86.6646
 -86.0451
 -86.0451
 -86.0451
 -86.0451
 -86.0451
 -86.0451
 -86.0451
 -86.0451
 -86.0451
 -86.0451
 -86.067
 -86.0862
 -86.0391
 -86.0632
 -86.0455
 -86.0452
 -86.045
 -86.0452
 -86.0451
 -86.0451
 -86.0451
 -86.0451
 -86.0451
 -86.0451
 -86.0451
 -86.0451
 -86.0451
 -86.0451
 -86.0451
 -86.0451
 28.4141
 28.1605
 21.346
 27.9945
 -86.0451
 -86.0451
 -86.0451
 -86.0451
 -86.0451
 -86.0451
 -86.0451
 -86.0451
 -86.0451
 -86.0451
 -86.0451
 -86.0451
 -86.0451
 -86.0451
 -86.0451
 -86.0451
 -86.0451
 -86.0451
 -86.0451
 -86.0451
 -86.0451
 -86.0451
 -86.0451
 -86.0451
 -86.0451
 -86.0451
 -86.0451
 -86.0451
 -86.0451
 -86.0451
 -86.0451
 -86.0451
 -86.0451
 -86.0451
 -86.0451
 -86.0451
 -86.0451
 -86.0451
 -86.0451
 -86.0451
 -86.0451
 -86.0451
 -86.0415
 -86.065
 -86.041
 -86.0659
 -86.0451
 -86.0451
 -86.0451
 -86.0451
 -86.0451
 -86.0451
 -86.0451
 -86.0451
 -86.0451
 -86.0451
 -86.0451
 -86.0451
 -86.0451
 -86.0451
 22.6214
 22.7196
 22.8995
 22.8127
 -86.0451
 -86.0451
 -86.0451
 -86.0451
 -86.0451
 -86.0451
 -86.0451
 -86.0451
 -86.0451
 -86.0451
 -86.0451
 -86.0451
 -86.045
 -86.0451
 -86.0451
 -86.0451
 -86.0451
 -86.0451
 -86.0451
 -86.0451
 -86.0451
 -86.0451
 -86.0451
 -86.0451
 -86.0451
 -86.0451
 -86.0451
 -86.0451
 -86.0451
 -86.0451
 -86.0451
 -86.0451
 -86.0451
 -86.0451
 -86.0451
 -86.0451
 -86.0454
 -86.0452
 -86.0451
 -86.0451
 -86.0451
 -86.0451
 -86.0451
 -86.0451
 -86.0449
 -86.045
 -86.0443
 -86.0437
 -86.0413
 -86.0482
 -86.0445
 -86.05
 -86.0451
 -86.0451
 -86.0451
 -86.0451
 -85.6505
 -85.8554
 -85.689
 -85.4381
 -66.5873
 22.4406
 -61.7278
 14.2217
 -86.0451
 -86.0451
 -86.0451
 -86.0451
 -86.0451
 -86.0451
 -86.0451
 -86.0451
 22.7569
 22.614
 23.1691
 22.6203
 -86.0451
 -86.0451
 -86.0451
 -86.0454
 -86.0451
 -86.0451
 -86.0451
 -86.0451
 -86.0931
 -86.0684
 -86.0557
 -86.0409
 -86.0451
 -86.0451
 -86.0451
 -86.0451
 -86.0451
 -86.0451
 -86.0451
 -86.0451
 -86.0451
 -86.0451
 -86.0451
 -86.0451
 -86.0451
 -86.0451
 -86.0451
 -86.0451
 -86.0451
 -86.0451
 -86.0451
 -86.0451
 -86.0451
 -86.0451
 -86.0451
 -86.0451
 -86.0451
 -86.0451
 -86.0451
 -86.0451
 -86.0451
 -86.0451
 -86.0451
 -86.0451
 -86.0451
 -86.0451
 -86.0451
 -86.0451
 -86.0451
 -86.0451
 -86.0451
 -38.0223
 9.37894
 8.53061
 -51.8531
 -86.0451
 -86.0451
 -86.0451
 -86.0451
 -86.0443
 -86.0461
 -86.0449
 -86.0446
 -86.0451
 -86.0451
 -86.0451
 -86.0451
 -85.9771
 -85.3192
 -85.2563
 -86.0007
 -86.0451
 -86.0451
 -86.0451
 -86.0451
 -86.0451
 -86.0451
 -86.0451
 -86.0451
 23.2083
 23.9761
 24.6532
 26.0217
 -86.0451
 -86.0451
 -86.0451
 -86.0451
 -86.0451
 -86.0451
 -86.0451
 -86.0451
 -60.5085
 -46.9642
 -89.0434
 -50.4745
 -86.0451
 -86.0451
 -86.0451
 -86.0451
 -86.0423
 -86.0365
 -86.0404
 -86.0459
 -86.0438
 -86.0446
 -86.0441
 -86.0451
 -86.0451
 -86.0451
 -86.0451
 -86.0452
 -86.0414
 -86.0371
 -86.0367
 -86.0451
 -86.0451
 -86.0451
 -86.0451
 -86.0642
 -86.1355
 -86.093
 -86.0149
 -86.0218
 -86.0343
 -86.0596
 -86.031
 -86.0451
 -86.0451
 -86.0451
 -86.0451
 -86.0451
 -86.0451
 -86.0451
 -86.0451
 -86.0451
 -86.0451
 -86.0451
 -86.0451
 -86.0451
 -86.0451
 -86.0451
 -86.0451
 -86.0451
 -86.0451
 -86.0451
 -85.8789
 -85.9549
 -85.739
 -86.0089
 -86.0451
 -86.048
 -86.0451
 -86.0449
 -86.0459
 -86.0463
 -86.045
 -86.0446
 -86.0451
 -86.0451
 -86.0451
 -86.0451
 -86.0451
 -86.0451
 -86.0451
 -86.0451
 -88.9517
 -86.685
 -85.0596
 -77.8912
 -86.0451
 -86.0451
 -86.0451
 -86.0451
 -86.0451
 -86.0451
 -86.0451
 -86.0451
 -86.0451
 -86.0451
 -86.0451
 -86.0451
 -86.0451
 -86.0451
 -86.0453
 -86.0489
 -86.0481
 -86.0451
 -86.0451
 -86.0451
 -86.0451
 -86.0451
 -86.0451
 -86.0451
 -86.0451
 -86.0451
 -86.0451
 -86.0451
 -86.0451
 -86.0451
 -86.0451
 -86.0451
 -86.0451
 -86.0451
 -86.0451
 -86.0451
 -86.0451
 -86.0451
 -86.0451
 -86.0451
 -86.0451
 -86.0451
 -86.0451
 -86.0451
 -86.0451
 -86.0451
 -86.0451
 -86.0451
 -86.0451
 -86.0451
 -86.0451
 -86.0451
 -86.0451
 -86.0451
 -86.0452
 -86.0451
 -86.0451
 -86.0451
 -86.0451
 -86.0451
 -86.0451
 -86.0451
 -86.0451
 -86.0451
 -86.0451
 -90.4738
 -86.1473
 -85.3394
 -86.0067
 -86.1532
 -86.0451
 -86.0451
 -86.0451
 -86.0451
 -86.0433
 -86.0284
 -86.0327
 20.2409
 -80.6596
 -61.1452
 -30.1353
 -86.0451
 -86.0451
 -86.0451
 -86.0451
 -86.0451
 -86.0451
 -86.0451
 -86.0451
 -86.0451
 -86.0451
 -86.0451
 -86.0451
 17.2109
 20.7623
 20.8172
 -16.1908
 -86.0451
 -86.0451
 -86.0451
 -86.0451
 -86.0451
 -86.0451
 -86.0451
 -86.0451
 -86.0451
 -86.0451
 -86.0451
 -86.0451
 -86.0451
 -86.0451
 -86.0451
 -86.0451
 -86.0451
 -86.0451
 -86.0451
 -86.0451
 -86.0451
 -86.0451
 -86.0451
 -86.0451
 -86.0451
 -86.0451
 -86.0451
 -86.0451
 -86.0451
 -86.0451
 -86.0451
 -86.0451
 -86.0451
 -86.0451
 -86.0451
 -86.0451
 -86.0451
 -86.045
 -86.0451
 -86.0451
 -86.0451
 -86.0451
 -86.0451
 -86.0451
 -86.0451
 -86.0451
 -86.0451
 -86.0451
 23.768
 26.5195
 26.9543
 23.3675
 -86.0426
 -86.0442
 -86.0449
 -86.0453
 -86.0451
 -86.0451
 -86.0451
 -86.0451
 -86.0451
 -86.0451
 -86.0451
 -86.0451
 -86.0451
 -86.0494
 -86.0127
 -86.0344
 -86.0457
 -86.0451
 -86.0451
 -86.0451
 -86.0451
 -86.0451
 -86.0451
 -86.0451
 -86.0451
 -86.0451
 -86.0451
 -86.0451
 -86.0451
 -86.0451
 -86.0451
 -86.0451
 -86.0451
 -86.0451
 -86.0451
 -86.0451
 -86.0451
 22.9567
 24.2136
 -86.0451
 -86.0451
 -86.0451
 -86.0451
 -86.0451
 -86.0451
 -86.0451
 -86.0451
 -86.0451
 -86.0451
 -86.0451
 -86.0451
 -86.0451
 -86.0451
 -86.0451
 -86.0451
 -86.0451
 -86.0451
 -67.1817
 -89.3861
 -88.042
 -86.2374
 -86.0451
 -86.0451
 -86.0451
 -86.0451
 -86.0451
 -86.0451
 -86.0451
 -86.0451
 -86.0451
 -86.0451
 -86.0451
 -86.0451
 -86.0451
 -86.0451
 -86.0451
 -86.0451
 -86.0451
 -86.0451
 -86.1107
 -86.0431
 -86.0546
 -86.0333
 -86.0451
 -86.0451
 -86.0451
 -86.0451
 -86.0451
 -86.0451
 -86.0451
 -86.0451
 -86.0451
 -86.0451
 -86.0451
 -86.0451
 -86.0451
 -86.0451
 -86.0451
 -86.0451
 -86.0451
 -86.0451
 -86.0451
 -86.0451
 -86.0451
 -86.0451
 -86.0451
 -86.0451
 -86.0451
 -86.0451
 -86.0451
 -86.0451
 24.3646
 25.465
 23.347
 25.0279
 -86.0761
 -86.0433
 -86.0363
 -86.0391
 23.1507
 22.9719
 23.5184
 23.1087
 -86.1271
 -85.8366
 -85.7865
 -85.9127
 -86.0451
 -86.0451
 -86.0451
 -86.0451
 -86.0451
 -86.0451
 -86.0451
 -86.0451
 -86.0451
 -86.0451
 -86.0451
 -86.0451
 -86.0451
 -86.0451
 -86.0451
 -86.0444
 -86.0447
 -86.045
 -86.0451
 -86.0451
 -86.0451
 -86.0451
 -86.0451
 -86.0451
 -86.0451
 -86.0451
 -86.0451
 -86.0451
 -86.0451
 -86.0451
 -86.0451
 -86.0451
 -86.0451
 -86.0451
 -86.0451
 -86.0451
 -86.0451
 -86.0451
 -86.0451
 -86.0451
 -86.0451
 -86.0451
 -86.0447
 -86.0448
 -86.0451
 -86.045
 -86.0451
 -86.0451
 -86.0451
 -86.0451
 -86.0451
 -86.0451
 -86.0451
 -86.0451
 -86.0451
 -86.0451
 -86.0451
 -86.0328
 -86.0418
 -86.0451
 -86.0451
 -86.0451
 -86.0451
 -86.0451
 -86.0451
 -86.0451
 -86.0451
 -86.0451
 -86.0451
 -86.0451
 -86.0451
 -86.0451
 -86.0451
 -86.0451
 -86.0451
 -86.0451
 -86.0451
 -86.0451
 -86.0451
 -86.0451
 -86.0451
 -86.0451
 -86.0451
 -86.0451
 -86.0451
 -86.0451
 -86.0451
 -86.0451
 -86.0451
 -86.0451
 -86.0451
 -86.0451
 -86.0451
 -86.0451
 -86.0451
 -86.0451
 -86.0451
 -86.0451
 -86.0451
 -86.0451
 -86.0451
 -86.0451
 -86.0451
 -86.0451
 -86.0451
 -86.0451
 -86.0451
 -86.0451
 -86.0451
 -86.0451
 -86.0451
 -86.0451
 -86.0451
 -86.0451
 -86.0456
 -87.1735
 -86.8588
 -83.8629
 -86.0451
 -86.0451
 -86.0451
 -86.0451
 -86.0451
 -86.0451
 -86.0451
 -86.0451
 -86.0451
 -86.0451
 -86.0451
 -86.0451
 -86.0451
 -86.0451
 -86.0451
 -86.0451
 -86.0451
 -86.0451
 -86.0451
 -86.0451
 -86.0451
 -86.0451
 -86.0451
 -86.0451
 -86.0866
 -86.1152
 -86.0334
 -85.6994
 -86.0451
 -86.0451
 -86.0451
 -86.0451
 -86.0451
 -86.0451
 -86.0451
 -86.0451
 -86.0451
 -86.0451
 -86.0451
 -86.0451
 -81.8138
 -51.037
 -73.3503
 -60.631
 -48.6926
 -55.3675
 18.355
 -86.0451
 -86.0451
 -86.0451
 -86.0451
 -86.0451
 -86.0451
 -86.0451
 -86.0451
 24.9107
 32.0717
 33.4842
 -86.0451
 -86.0451
 -86.0451
 -86.0451
 -86.0282
 -86.1225
 -86.0457
 -86.0395
 -86.048
 -86.046
 -86.0451
 -86.0451
 -86.0451
 -86.0451
 -86.0451
 -86.0451
 -86.0451
 -86.0451
 -86.0451
 -86.0451
 -86.0451
 -86.0451
 -86.0451
 -86.0451
 -49.9734
 -88.94
 -87.4389
 -86.0451
 -86.0451
 -86.0451
 -86.0451
 11.7278
 -43.7931
 -88.4638
 10.1246
 -86.0451
 -86.0451
 -86.0451
 -86.0451
 -85.8921
 -85.8866
 -86.0673
 -85.9584
 -86.0451
 -86.0451
 -86.0451
 -86.0451
 -86.0451
 -86.0451
 -86.0451
 28.9031
 12.1436
 29.4046
 30.004
 -86.0451
 -86.0451
 -86.0451
 -86.0451
 -86.0451
 -86.0451
 -86.0451
 -86.0451
 -86.0451
 -86.0451
 -86.0451
 -86.0451
 -86.0451
 -86.0451
 -86.0451
 -86.0451
 -86.0451
 -86.0451
 -86.0451
 -86.0451
 -86.0451
 -86.0451
 -86.0451
 26.7762
 22.2486
 24.117
 26.2275
 -86.0451
 -86.0451
 -86.0451
 -86.0451
 -86.0451
 -86.0451
 -86.0451
 -86.0451
 -86.0451
 -86.0451
 -86.0451
 -86.0451
 -86.0451
 -86.0451
 -86.0451
 -86.0451
 -86.0451
 -86.0451
 -86.0451
 -86.0451
 -86.0451
 -86.0451
 -86.0451
 -86.0451
 -86.0451
 -86.0451
 -86.0451
 -86.0451
 -86.0451
 -86.0451
 -86.0451
 -86.0451
 -86.0451
 -86.0451
 -86.0451
 -86.0451
 -86.0451
 -86.0451
 -86.0451
 -86.0451
 -86.0452
 -86.0451
 -86.0451
 -86.0452
 -86.0453
 -86.0456
 -86.045
 -86.0451
 -86.045
 -86.0452
 -86.0451
 -86.0451
 -86.0451
 -86.0451
 -86.0451
 -86.0451
 -86.0451
 -86.0451
 -86.0451
 -86.0451
 -86.0451
 -86.0451
 -86.0451
 -86.0451
 -86.0451
 -86.0451
 -86.0468
 -86.0447
 -86.0449
 -86.0442
 -86.0451
 -86.0451
 -86.0451
 -86.0451
 -86.0451
 -86.0451
 -86.0451
 -86.0451
 -86.0451
 -86.0451
 -86.0451
 -86.0451
 -86.0451
 -86.0451
 -86.0451
 -86.0451
 -86.0451
 -86.0451
 -86.0451
 -86.0451
 -86.0451
 -86.0451
 -86.0451
 -86.0724
 -86.1014
 -86.1474
 -86.1486
 -86.0451
 -86.0451
 -86.0451
 -86.0451
 -86.0451
 -86.0451
 -86.0451
 -86.0451
 -86.0451
 -86.0451
 -86.0451
 -86.0451
 -86.0451
 -86.0451
 -86.0451
 -86.0451
 -86.0451
 -86.0451
 -86.0451
 -86.0451
 -86.0451
 -86.0451
 -86.0451
 -86.0451
 -86.0451
 -86.0451
 -86.0451
 -86.0451
 -86.0451
 -86.0451
 -86.0451
 -86.0451
 -86.0451
 -86.0451
 -86.0451
 25.5706
 23.6512
 28.7952
 29.2169
 -86.0451
 -86.0451
 -86.0451
 -86.0451
 -86.0451
 -86.0451
 -86.0451
 -86.0451
 -86.0451
 -86.0451
 -86.0451
 -86.0451
 -86.0451
 -86.0451
 -86.0451
 -86.0451
 -86.0451
 -86.0451
 -86.0451
 -86.0451
 -86.0451
 -86.0451
 -86.0451
 -86.0451
 -86.0451
 -86.0452
 -86.0451
 -86.0451
 -86.0451
 -86.0451
 -86.0451
 -86.0451
 -86.0451
 -86.0451
 -86.0451
 -86.0451
 -86.0044
 -85.9753
 -85.9517
 -85.6661
 -86.0451
 -86.0451
 -86.0451
 -86.0451
 -86.0451
 -86.0451
 -86.0451
 -86.0451
 -86.0451
 -86.0451
 -86.0451
 -86.0451
 -86.0451
 -86.0451
 -86.0451
 -86.0451
 -86.0451
 -86.0451
 -86.0451
 -86.0451
 -86.0451
 -86.0451
 -86.0451
 -86.0451
 -86.0451
 -86.0451
 -85.6448
 -84.8459
 -86.4819
 -85.5053
 -86.0451
 -86.0451
 -86.0451
 -86.0451
 -86.0451
 -86.0451
 -86.0451
 -86.0451
 -86.0451
 -86.0451
 -86.0451
 -86.0451
 -86.0451
 -86.0451
 -86.0451
 -86.0451
 -86.0451
 -86.0451
 -86.0451
 -86.0451
 -86.0451
 -86.0451
 -86.0451
 -86.0451
 -86.0451
 -86.0451
 -86.0451
 -86.0451
 -86.0451
 -86.0451
 -86.0451
 -86.0451
 -86.0451
 -86.0451
 -86.0451
 -86.0451
 -86.0451
 -86.0451
 -86.0451
 -86.0451
 -86.0451
 -86.0451
 -86.0451
 -86.0451
 -86.0451
 -86.0451
 -86.0451
 -86.0451
 -86.0451
 -86.0451
 -86.0451
 -86.0451
 -61.4567
 -50.5094
 6.54773
 -81.5235
 -86.0451
 -86.0451
 -86.0451
 -86.0451
 -86.0451
 -86.0451
 -86.0451
 -86.0451
 -86.0451
 -86.0451
 -86.0451
 -86.0451
 -86.0451
 -86.0451
 -86.0451
 -86.0451
 -86.0451
 -86.0451
 -86.0451
 -86.0451
 -86.0451
 -86.0451
 -86.0451
 -77.187
 -58.7501
 -88.1928
 -85.7577
 -86.1676
 -86.0604
 -86.2357
 -85.5639
 -86.0451
 -86.0451
 -86.0451
 -86.0451
 -86.0451
 -86.0451
 -86.0451
 -86.0451
 -86.0451
 -86.0451
 -86.0451
 -86.0451
 -86.0451
 -86.0451
 -86.0451
 -86.0451
 -86.0451
 22.5071
 22.4888
 23.2696
 -86.0451
 -86.0451
 -86.0451
 -86.0451
 -85.8692
 -85.8232
 -85.9949
 -86.1297
 -86.0451
 -86.0451
 -86.0451
 -86.0451
 -86.045
 -86.045
 -86.0453
 -86.0451
 -86.0451
 -86.0451
 -86.0451
 -86.0451
 -86.0451
 -86.0451
 -86.0451
 -86.0451
 -86.0451
 -86.0451
 -86.0451
 -86.0451
 -86.0451
 -86.0451
 -86.0451
 -86.0451
 -86.0451
 -86.0451
 -86.0451
 -86.0451
 -86.0451
 -86.0451
 -86.0451
 -86.0451
 -86.0451
 -86.0451
 -86.0451
 -86.0451
 -86.0451
 -86.0451
 -86.0451
 -86.0451
 -86.0451
 -86.0451
 -86.0451
 -86.0451
 -86.0451
 -86.0451
 -86.0451
 -86.0451
 -86.0451
 -86.0451
 -86.0451
 -86.0451
 -86.0451
 -86.0451
 -86.0451
 -86.0066
 -86.0628
 -86.0484
 16.5999
 -52.9693
 -80.0133
 -52.3021
 -86.0427
 -86.0529
 -86.0377
 -86.0376
 -86.0451
 -86.0451
 -86.0451
 -86.0451
 -86.0451
 -86.0451
 -86.0451
 -86.0451
 -86.0451
 -86.0451
 -86.0451
 -86.0451
 -86.0451
 -86.0451
 -86.0451
 -86.0451
 -86.0451
 -86.0451
 -86.0451
 -86.0451
 -86.0451
 -86.0451
 -86.0451
 -86.0451
 -86.0451
 -86.0451
 -86.0451
 -86.0451
 32.1599
 7.55426
 30.9018
 20.6819
 -86.0451
 -86.0451
 -86.0451
 -86.0451
 -86.0451
 -86.0451
 -86.0451
 -86.0451
 -86.0451
 -86.0451
 -86.0451
 -86.0451
 -86.0451
 -86.0451
 -86.0451
 -86.0451
 -86.0451
 -86.0451
 -86.0451
 -43.3281
 13.7119
 18.2344
 -86.0451
 -86.0451
 -86.0451
 -86.0451
 -86.0451
 -86.0451
 -86.0451
 -86.0451
 -86.0451
 -86.0451
 -86.0451
 -86.0451
 -86.0451
 -86.0451
 -86.0451
 -86.0451
 -86.0451
 -86.0451
 -86.0451
 -86.0451
 -86.0451
 -86.0451
 -86.0451
 -52.8181
 -90.5317
 -90.3447
 -89.6213
 -86.0586
 -86.0436
 -86.045
 -86.0485
 -86.0451
 -86.0451
 -86.0451
 -86.0451
 -86.06
 -86.0487
 -86.0384
 -86.0488
 -90.8686
 -63.4591
 -73.2766
 -88.7401
 -86.0454
 -86.0435
 -86.0452
 -86.045
 -86.0451
 -86.0451
 -86.0451
 -86.0451
 -86.0451
 -86.0451
 -86.0451
 -86.0451
 -86.0451
 -86.0451
 -86.0451
 -86.0451
 -86.0451
 -86.0451
 -86.0451
 -86.0452
 -86.0456
 -86.0453
 -86.0455
 22.632
 22.5651
 23.9706
 22.775
 -86.0451
 -86.0451
 -86.0451
 -86.0451
 -86.0451
 -86.0451
 -86.0451
 -86.0451
 -86.0451
 -86.0451
 -86.0451
 -86.0451
 -86.0451
 -86.0451
 -86.0451
 -86.0451
 -86.0451
 -86.0451
 -86.0451
 -91.678
 -80.6804
 2.78737
 -58.9639
 -86.0451
 -86.0451
 -86.0451
 -86.0451
 -86.0451
 -86.0451
 -86.0451
 -86.0451
 -86.0909
 -85.9808
 -86.0451
 -86.0451
 -86.0451
 -86.0451
 -86.1199
 -85.9938
 -85.2041
 -85.4454
 -86.0451
 -86.0451
 -86.0451
 -86.0451
 -86.0451
 -86.0451
 -86.0451
 -86.0451
 -86.0451
 -86.0451
 -86.0451
 -86.0451
 -86.0451
 -86.0451
 -86.0451
 -86.0451
 -86.1068
 -86.0538
 -86.0404
 -86.117
 -76.8225
 -68.9657
 -70.8338
 -13.3327
 -86.0451
 -86.0451
 -86.0451
 -86.0451
 -86.0451
 -86.0451
 -86.0451
 -86.0451
 -86.0451
 -86.0451
 -86.0451
 -86.0451
 -86.0451
 -86.0451
 -86.0451
 -86.0451
 -86.0451
 -86.0451
 -86.0451
 -86.0451
 -86.0451
 -86.0451
 -86.0451
 -86.0451
 -86.0451
 -86.0451
 -86.0451
 -86.0451
 -86.0451
 -86.0451
 -86.0341
 -86.0435
 -86.0472
 -86.0465
 -86.0451
 -86.0451
 -86.0451
 -86.0451
 -86.0451
 -86.0451
 -86.0451
 -86.0451
 -86.0451
 -86.0451
 -86.0451
 -86.0451
 -86.0451
 -86.0451
 -86.0451
 -86.0451
 -86.0451
 -86.0451
 -86.0451
 -86.0451
 -86.0451
 -86.0451
 -86.0451
 -86.0451
 -86.0451
 -86.0451
 -86.0451
 -86.0451
 -86.0451
 -86.0451
 -86.0451
 -86.0451
 -86.0451
 -86.0451
 -86.0451
 -86.0451
 -86.0451
 -86.0451
 -86.0451
 -86.0451
 -86.0451
 -86.0451
 -86.0451
 -86.0451
 -86.0451
 -86.0451
 -86.0451
 -86.0451
 -86.0451
 -86.0451
 -86.0451
 -86.0451
 -86.0451
 -86.0451
 -86.0451
 -86.0451
 -86.0451
 -86.0451
 -86.0451
 -86.0451
 -86.0451
 -86.0451
 -86.0451
 -86.0451
 -86.0451
 -86.0451
 -86.0451
 -86.0451
 -86.0451
 -86.0451
 -86.0451
 -86.0451
 -86.0451
 -86.0451
 -86.0451
 -86.0451
 -86.0451
 -86.0451
 -86.0451
 -86.0451
 -86.0451
 -86.0451
 -86.0451
 -86.0451
 -86.0451
 -86.0451
 -86.0451
 -86.0451
 -86.0451
 -86.0451
 -86.0451
 -86.0451
 -86.0451
 -86.0451
 -86.0451
 -86.0451
 -86.0451
 -86.0451
 -86.0451
 -86.0451
 -86.0451
 -86.0451
 -86.0451
 -86.0451
 -86.0451
 -86.0451
 -86.0451
 -86.0451
 -86.0451
 -86.0498
 -86.0515
 -86.0356
 -86.0497
 -86.0451
 -86.0451
 -86.0451
 -86.0451
 -86.0451
 -86.0451
 -86.0451
 20.6107
 25.2971
 24.4932
 24.3639
 -86.0448
 -86.0433
 -86.0451
 -86.0451
 -86.0451
 -86.0451
 -86.0451
 -86.0451
 -86.0451
 -86.0451
 -86.0451
 -86.0451
 -86.0451
 -86.0451
 -86.0451
 -86.0451
 -86.0451
 -86.0452
 -86.0451
 -86.0451
 -86.0451
 -86.0451
 -86.0451
 -86.0451
 -86.0451
 -86.0451
 -86.0451
 -86.0451
 -86.0451
 -86.0451
 -86.0451
 -86.0451
 -86.0451
 -86.0451
 -86.0451
 -86.0451
 -86.0451
 -86.0451
 -86.0451
 -86.0451
 -86.0451
 -86.0451
 -86.0451
 -86.045
 -86.0451
 -86.0451
 -86.0451
 -86.0451
 17.9176
 -1.79739
 16.6701
 20.6618
 -86.0451
 -86.0451
 -86.0451
 -86.0451
 -86.0451
 -86.0438
 -86.0513
 -86.0419
 -89.2705
 -90.8986
 -84.5862
 -90.9357
 -86.0451
 -86.0451
 -85.6066
 -85.355
 -85.4282
 -85.7961
 -86.0451
 -86.0451
 -86.0451
 -86.0451
 -86.1662
 -85.8977
 -85.6917
 -86.1945
 27.3577
 27.2839
 26.5649
 30.9685
 -86.0451
 -86.0451
 -86.0451
 -86.0451
 -86.0451
 -86.0451
 -86.0451
 -86.0451
 -85.6466
 -86.0252
 -85.6941
 -86.0197
 -86.0451
 -86.0451
 -86.0451
 -86.0451
 -85.7877
 -87.3837
 -86.0451
 -86.0451
 -86.0451
 -86.0451
 -86.0726
 -86.0279
 -86.0417
 -86.0438
 -86.0451
 -86.0451
 -86.0451
 -86.0451
 -86.0451
 -86.0451
 -86.0451
 -86.0451
 -86.0451
 -86.0451
 -86.0451
 -86.0451
 -86.0451
 -86.0451
 -86.0451
 -86.0451
 -86.0451
 -86.0451
 -86.0451
 -86.0451
 -86.0451
 -86.0451
 -85.9833
 -86.0047
 -86.2014
 -86.03
 -86.0451
 -86.0451
 -86.0451
 -86.0451
 -86.0451
 -86.0451
 -86.0451
 -86.0451
 -86.0451
 -86.0451
 -86.0451
 -86.0451
 -86.0451
 -86.0451
 -86.0451
 -86.0451
 -86.0451
 -86.0451
 -86.0451
 -86.0451
 -86.0451
 -86.0451
 -86.0451
 -86.0451
 -86.0451
 -86.0451
 -86.0451
 -86.0451
 -86.0455
 -86.0452
 -86.0455
 -86.0452
 -86.0451
 -86.0451
 -86.0451
 -86.0451
 -86.0451
 -86.0451
 -86.0451
 -86.0451
 -86.0451
 -86.0451
 -86.0451
 -86.0451
 -86.0451
 -86.0451
 -86.0451
 -86.0451
 -86.0451
 -86.0451
 -86.0451
 -86.0451
 -86.0451
 -86.0451
 -86.0451
 -86.0451
 -86.0451
 -86.0451
 -86.0451
 -86.1315
 -85.8361
 -86.0115
 -85.8952
 -86.0451
 -86.0451
 -86.0451
 -86.0451
 -86.0451
 -86.0451
 -86.0451
 -86.0451
 -86.0451
 -86.0451
 -86.0451
 -86.0451
 -86.0451
 -86.0451
 -86.0451
 -86.0451
 -86.0451
 -86.0451
 -86.0451
 -85.2831
 -85.5574
 -86.624
 -86.1659
 -86.1803
 -85.922
 -86.0451
 -86.0451
 -86.0451
 -86.0451
 23.3479
 24.3101
 23.5466
 23.5812
 -86.0451
 -86.0451
 -86.0451
 -86.0451
 -86.0451
 -86.0451
 -86.0451
 -86.0451
 -86.0451
 -86.2065
 -86.3728
 -85.943
 -85.7654
 -86.0451
 -86.0451
 -86.0451
 -86.0451
 -86.0451
 -86.0451
 -86.0451
 -86.0451
 -86.0451
 -86.0451
 -86.0451
 -86.0451
 -86.0451
 -86.0451
 -86.0451
 -86.0451
 -86.0451
 -86.0451
 -86.0451
 -86.0451
 -86.0451
 -86.0451
 -86.0451
 -86.0451
 -86.0451
 -86.0451
 -86.0451
 -86.0451
 -86.0451
 -86.0451
 -86.0451
 -86.0451
 -86.0451
 -86.0451
 -86.0451
 -86.0451
 -86.0451
 -86.0451
 -86.0451
 -86.0451
 -86.6774
 -25.5879
 -74.3675
 -57.8096
 -86.0451
 -86.0451
 -86.0451
 -86.0451
 -86.0451
 -86.0451
 -86.0451
 -86.0451
 -86.46
 -88.9971
 -86.4768
 -86.7015
 -86.0451
 -86.0451
 -86.0451
 -86.0451
 -86.0451
 -86.0451
 -86.0451
 -86.0451
 -86.0451
 -86.0451
 -86.0451
 -86.0451
 -86.0451
 -86.0451
 23.0025
 22.6822
 22.7006
 23.186
 -85.5875
 -85.432
 -90.2343
 -86.0451
 -86.0451
 -86.0451
 -86.0451
 -86.0451
 -86.0451
 -86.0451
 -86.0451
 -86.0451
 -86.0451
 -86.0451
 -86.0451
 -86.0451
 -86.0451
 -86.0451
 -86.0451
 -86.0451
 -86.0451
 -86.0451
 -86.0451
 -86.0451
 -86.0451
 -86.0451
 -86.0451
 -86.0451
 -86.0451
 14.5015
 17.2636
 -63.6921
 20.0051
 -86.0451
 -86.0451
 -86.0451
 -86.0451
 -86.0451
 -86.0451
 -86.0451
 -86.0451
 -86.0451
 -86.0451
 -86.0451
 -86.0451
 -86.0508
 -86.0412
 -86.0414
 -86.0451
 -86.0451
 -86.0451
 -86.0451
 -86.0451
 -86.0451
 -86.0451
 -86.0451
 -86.0451
 -86.0451
 -86.0451
 -86.0451
 -86.0451
 -86.0451
 -86.0451
 -86.0451
 -86.0451
 -86.0451
 -86.0451
 -86.0451
 -86.0451
 -86.0451
 -86.0451
 -86.0244
 -86.2222
 -86.1104
 -86.0656
 -86.0478
 -86.0395
 -86.0495
 -86.0451
 -86.0451
 -86.0451
 -86.0451
 -86.0451
 -86.0451
 -86.0451
 -86.0451
 -86.0451
 -86.0451
 -86.0451
 -86.0451
 -86.0451
 -86.0451
 -86.0451
 -86.0451
 -86.0451
 -86.0451
 -86.0451
 -86.0451
 -86.0451
 -86.0451
 -86.0451
 -86.0451
 -86.0451
 -86.0451
 -86.0451
 -86.0451
 -86.0451
 -86.0451
 -86.0451
 22.5451
 22.6752
 -86.0451
 -86.0451
 -86.0451
 -86.0451
 -86.0451
 -86.0451
 -86.0451
 -86.0451
 -86.0451
 -86.0451
 -86.0451
 -86.0451
 -86.1131
 -86.0185
 -86.0659
 -86.0449
 -86.0451
 -86.0451
 -86.0451
 -86.0451
 -86.0451
 -86.0451
 -86.0451
 -86.0451
 -86.0451
 -86.0451
 -86.0451
 -86.0451
 -86.0451
 -86.0451
 -86.0451
 -86.0451
 -86.0451
 -86.0451
 -86.0451
 27.3154
 14.2921
 30.3042
 14.2959
 -86.0494
 -86.0436
 -86.0459
 -86.0473
 -86.0451
 -86.0451
 -86.0451
 -86.0451
 -81.0679
 -75.4816
 -91.6223
 -89.073
 -86.0451
 -86.0451
 -86.0451
 -86.0451
 -86.0451
 -86.0451
 -86.0451
 -86.0451
 -86.0451
 -86.0451
 -86.0451
 -86.0452
 -86.0451
 -86.0451
 -86.0451
 -86.0451
 -86.0451
 -86.0451
 -86.0451
 -86.0451
 -87.9583
 -86.3897
 -87.802
 -86.747
 -86.0875
 -86.0816
 -86.1662
 -85.8907
 -86.0451
 -86.0451
 -86.0451
 -86.0451
 -86.1196
 -86.0443
 -86.0581
 -86.2563
 -86.0451
 -86.0451
 -86.0451
 -86.0451
 -86.0451
 -86.0451
 -86.0451
 -86.0451
 -86.1502
 -86.0505
 -86.0681
 -86.0596
 -86.0451
 -86.0451
 -86.0451
 -86.0451
 -86.0451
 -86.0451
 -86.0451
 -86.0451
 -86.0451
 -86.0451
 -86.0451
 -86.0451
 -68.8244
 -52.4884
 -86.2865
 -87.2673
 -85.5375
 -87.3588
 -86.0451
 -86.0451
 -86.0451
 -86.0451
 -86.0451
 -86.0451
 -86.0451
 -86.0451
 -86.0508
 -86.0429
 -86.1046
 -86.0655
 -86.0451
 -86.0451
 -86.0451
 -86.0451
 -86.0451
 -86.0451
 -86.0451
 -86.0451
 20.6568
 17.92
 13.3333
 -57.3738
 -86.0451
 -86.0451
 -86.0451
 -86.0451
 -86.0451
 -86.0451
 -86.0451
 -86.0451
 -86.0451
 -86.0451
 -86.0451
 -86.0451
 -86.0451
 -86.0451
 -86.0451
 -86.0451
 -86.0451
 -86.0451
 -86.0451
 -86.0451
 -86.0451
 -86.0451
 -86.0451
 -86.0451
 -86.0451
 -86.0451
 -86.0451
 -86.0451
 -86.0451
 -86.0451
 -86.0451
 -86.0451
 -86.0451
 -86.0451
 -86.0451
 27.5945
 30.0182
 27.5988
 23.3721
 -86.0451
 -86.0451
 -86.0451
 -86.0451
 -86.0451
 -86.0451
 -86.0451
 -86.0451
 -86.0451
 -86.0451
 -86.0451
 -86.0451
 -86.0451
 -86.0451
 -86.0451
 -86.0451
 -86.0451
 -86.0451
 -86.0451
 -86.0451
 -86.0451
 -86.0451
 -86.0451
 -86.0451
 -86.0451
 -86.0451
 -86.0451
 -86.1648
 -85.7285
 -86.169
 -86.0834
 -86.0451
 -86.0451
 -86.0451
 -86.0451
 -86.0451
 -86.0451
 -86.0451
 -86.0451
 -86.0451
 -86.0451
 -86.0451
 -86.0451
 23.0843
 22.9646
 23.2831
 23.403
 -86.0451
 -86.0451
 -86.0451
 -86.0451
 -86.0451
 -86.0451
 -86.0451
 -86.0451
 22.5053
 22.4079
 22.6957
 22.66
 -85.5177
 -85.7915
 -87.7136
 -86.0451
 -86.0451
 -86.0451
 -86.0451
 -85.9177
 -85.9719
 -86.8176
 -85.9612
 -86.0451
 -86.0451
 -86.0451
 -86.0451
 -86.0451
 -86.0451
 -86.0451
 -32.8402
 31.7264
 20.8554
 11.7218
 -86.0451
 -86.0451
 -86.0451
 -86.0451
 -86.0451
 -86.0451
 -86.045
 -86.0451
 -86.0451
 -86.0451
 -86.0451
 -86.0451
 -86.0451
 -86.0451
 -86.0451
 -86.0451
 -86.0451
 -86.0451
 -86.0451
 -86.0451
 -86.0451
 -86.0451
 -86.0451
 -86.0451
 -86.0451
 -86.0451
 -86.0451
 -86.0451
 11.9312
 26.6109
 24.4403
 25.9066
 -86.0451
 -86.0451
 -86.0451
 -86.0451
 -86.0462
 -86.0403
 -86.044
 -86.0404
 -86.0451
 -86.0451
 -86.0451
 -86.0451
 -86.0451
 -86.0451
 -86.0448
 -86.0423
 -35.0945
 9.54521
 14.7577
 12.8497
 -86.0451
 -86.0451
 -86.0451
 -86.0451
 -86.0451
 -86.0451
 -86.0451
 -86.0451
 -86.0451
 -86.0451
 -86.0451
 -86.0451
 -86.0451
 -86.0451
 -86.0451
 -86.0451
 -86.0451
 -86.0451
 -86.0451
 -86.0451
 -86.0451
 -86.0451
 -86.0451
 -86.0451
 -86.0451
 -86.0451
 -86.0451
 -86.0451
 -86.0451
 -86.0451
 -86.0451
 -86.0451
 -86.0451
 -86.0451
 -86.0451
 -86.0451
 -86.0451
 -86.0451
 -86.0451
 -86.0451
 -86.0451
 -86.0451
 -86.0451
 -86.0451
 15.354
 -70.7734
 -76.6177
 -88.2007
 -86.0451
 -86.0451
 -86.0451
 -86.0451
 -86.0451
 -86.0451
 -86.0451
 -86.0451
 -86.0451
 -86.0451
 -86.0451
 -86.0451
 12.5488
 14.6016
 -86.0451
 -86.0451
 -86.0451
 -86.0451
 17.0176
 22.9983
 21.4599
 -86.0451
 -86.0451
 -86.0451
 -86.0451
 -65.5871
 -88.408
 -75.8759
 -86.3271
 -86.0451
 -86.0451
 -86.0451
 -86.0451
 -86.0451
 -86.0451
 -86.0451
 25.8348
 23.6962
 15.4918
 27.6892
 -86.0451
 -86.0451
 -86.0451
 -86.0451
 -86.0451
 -86.0451
 -86.0451
 -86.0451
 -86.0451
 -86.0451
 -86.0451
 -86.0451
 -86.0451
 -86.0451
 -86.0451
 -86.0451
 -86.0451
 30.461
 11.6854
 6.8954
 27.0632
 -86.0451
 -86.0451
 -86.0451
 -86.0451
 -86.0451
 -86.0451
 -86.0451
 -86.0451
 -86.0451
 -86.0451
 -86.0451
 -86.0451
 -86.0451
 -86.0451
 -86.0451
 -86.0451
 -86.0451
 -71.85
 -63.14
 -62.912
 -86.0451
 -86.0451
 -86.0451
 -86.0451
 -86.0451
 -86.0451
 -86.0451
 -86.0451
 -86.0451
 -86.0451
 -86.0451
 -86.0451
 -86.0451
 -86.0451
 -86.0451
 -86.0964
 -86.0711
 -86.047
 -86.0289
 -86.0451
 -86.0451
 -86.0451
 -86.0451
 -86.0455
 -86.0449
 -86.0455
 -5.294
 15.7787
 29.9936
 16.449
 -86.0451
 -86.0451
 -86.0451
 -86.0451
 -86.0108
 -86.0447
 -86.0348
 -86.0499
 -86.0451
 -86.0451
 -86.0451
 -86.0451
 21.5693
 -86.0451
 -86.0451
 -86.0451
 -86.0451
 -86.0451
 -86.0451
 -86.0451
 -86.0451
 -86.0451
 -86.0451
 -86.0451
 -86.0451
 -86.0451
 -86.0451
 -86.0451
 -86.0451
 -86.0451
 -86.0451
 -86.0451
 -86.0451
 -86.0451
 -86.0451
 -86.0451
 -86.0451
 -86.0451
 -86.0451
 -86.0451
 -86.0451
 -86.0451
 -86.0451
 -86.0451
 -86.0451
 -86.0451
 -86.0451
 -86.0451
 -86.0451
 -86.0451
 -86.0451
 -86.0451
 -86.0451
 -86.0451
 -86.0451
 -86.0451
 -86.0451
 -86.0451
 -64.9423
 -71.7682
 -87.5945
 -86.0451
 -86.0451
 -86.0451
 -86.0451
 -86.0451
 -86.0451
 -86.0451
 -86.0451
 -86.0451
 -86.0451
 -86.0451
 -86.0451
 -86.0451
 -86.0451
 -86.045
 -86.0224
 -86.0155
 -85.7094
 -86.0343
 -86.0451
 -86.0451
 -86.0451
 -86.0451
 -86.0451
 -86.0451
 -86.0451
 -86.0451
 -86.0451
 -86.0451
 -86.0451
 -86.0451
 -86.0451
 -86.0451
 -86.0451
 -86.0451
 -86.0451
 -86.0451
 -86.0451
 -86.0451
 -86.0451
 -86.0451
 -86.0451
 -86.0451
 -86.0451
 -86.0451
 -86.0451
 -86.0451
 -86.0451
 -86.0451
 -86.0451
 -86.0451
 -86.0451
 -86.0451
 -86.0451
 -86.0451
 -86.0451
 -86.0451
 -86.0451
 -86.0451
 -86.0451
 -86.0451
 -86.0451
 -86.0451
 -86.0451
 -86.0451
 -86.0451
 -89.152
 -88.7247
 -85.9167
 -88.0309
 -86.0451
 -86.0451
 -86.0451
 -86.0451
 -86.0451
 -86.0451
 -86.0451
 -86.0451
 -86.0451
 -86.0451
 -86.0451
 -86.0451
 -86.0454
 -86.0485
 -86.0447
 -86.0469
 -86.0451
 -86.0451
 -86.0451
 -86.0451
 -86.0451
 -86.0451
 -86.0451
 -86.0451
 -86.0451
 -86.0451
 -86.0451
 -86.0451
 -86.0451
 -86.0451
 -86.0451
 -86.0451
 -86.0451
 -86.0452
 -86.0451
 -86.0451
 -86.0451
 -86.0451
 -86.0451
 -86.0451
 -86.0451
 -86.0451
 -86.0451
 -86.0451
 -86.0451
 -86.0451
 26.4045
 26.6847
 25.3019
 23.9197
 -86.0451
 -86.0451
 -86.0451
 -86.0451
 -86.0451
 -86.0451
 -86.0451
 -86.0451
 -86.7272
 -85.9328
 -85.597
 -85.0044
 -86.0426
 -86.0474
 -86.0448
 -86.0387
 -86.0451
 -86.0451
 -86.0451
 -86.0451
 -86.0451
 -86.0451
 -86.0451
 -86.0451
 -86.0451
 -86.0451
 -86.0451
 -86.0451
 -86.0451
 -86.0451
 -86.0451
 -86.0451
 -86.0451
 -86.0451
 -86.0451
 -86.0451
 -86.0451
 -86.0451
 -86.0451
 -86.0451
 -86.0451
 -86.0451
 -86.0451
 -86.0451
 -86.0451
 -86.0451
 -86.0451
 -86.0451
 -86.0451
 -86.0451
 -86.0451
 -86.0451
 -86.0451
 -86.0451
 -86.0451
 -86.0451
 -86.0451
 -86.0451
 -86.0451
 -86.0451
 -86.0451
 -86.0451
 -86.0451
 -86.0451
 -86.0451
 -86.0451
 -86.0451
 -86.0451
 -86.0451
 -86.0451
 -86.0451
 -86.0451
 -86.0451
 -86.0451
 -86.0451
 -86.0451
 -86.0451
 -86.0451
 23.8991
 34.1863
 27.1419
 22.8462
 -86.0451
 -86.0451
 -86.0451
 -86.0451
 -86.0451
 -86.0451
 -86.0451
 -86.0451
 -86.0451
 -86.0451
 -86.0451
 -86.0451
 27.8436
 26.389
 23.5338
 22.8051
 -86.045
 -86.0454
 -86.0455
 -86.0451
 -86.0451
 -86.0451
 -86.0451
 -86.045
 -86.0451
 -86.0451
 -86.0451
 -86.0451
 -86.0451
 -86.0451
 -86.0451
 -86.0451
 -86.0451
 -86.0451
 -85.8579
 -85.7988
 -88.204
 -85.5069
 -86.0451
 -86.0451
 -86.0451
 -86.0451
 -32.624
 -81.6532
 -87.551
 -86.9898
 -86.0451
 -86.0451
 -86.0451
 -86.0451
 -86.0451
 -86.0451
 -86.0451
 -86.0451
 -86.0451
 -86.0451
 -86.0451
 -86.0451
 -86.0451
 -86.0451
 -86.0451
 -86.0451
 -86.0451
 -86.0451
 -86.0451
 -86.0451
 -86.0451
 -86.0451
 -86.0451
 -86.0451
 -86.0451
 -86.0451
 -86.0451
 -86.0451
 -86.0451
 -86.0451
 -86.8696
 -84.9547
 -89.4889
 -90.7031
 -86.0451
 -86.0454
 -86.046
 -86.0439
 -86.0451
 -86.0451
 -86.0451
 -86.0451
 -86.044
 -86.0613
 -86.0406
 -86.0461
 -86.0451
 -86.0451
 -86.0451
 -86.0451
 -86.0732
 -86.1234
 -86.0902
 -86.061
 -86.0451
 -86.0451
 -86.0451
 -86.0451
 -85.9941
 -85.9111
 -85.6477
 -86.2425
 -86.0451
 -86.0451
 -86.0451
 -86.0451
 -86.047
 -86.0448
 -86.0465
 -86.0661
 -86.0113
 -86.0652
 -86.0534
 -86.0451
 -86.0451
 -86.0451
 -86.0451
 -86.0451
 -86.0451
 -86.0451
 -86.0451
 -86.0451
 -86.0451
 -86.0451
 -86.0451
 -86.0451
 -86.0451
 -86.0451
 -86.0451
 -86.0451
 -86.0451
 -86.0451
 -86.0451
 -86.0451
 -86.0451
 -86.0451
 -86.0451
 -86.0451
 -86.0451
 -86.0451
 -86.0451
 -86.0451
 -86.0451
 27.0182
 26.5224
 24.4736
 29.8521
 -86.0451
 -86.0451
 -86.0451
 -86.0451
 -86.0451
 -86.0451
 -86.0451
 -86.0451
 -86.0451
 -86.0451
 -86.0451
 -86.0451
 -86.0357
 -86.0452
 -86.0451
 -86.0451
 -86.0451
 -86.0451
 -86.0451
 -86.0451
 -86.0451
 -86.0451
 -86.0451
 -86.0451
 -86.0451
 -86.0451
 -86.0451
 -86.0451
 -86.0451
 -86.0451
 -86.0451
 -86.0451
 -86.0451
 -86.0451
 -86.0451
 -86.0451
 -86.0451
 -86.0451
 -86.0451
 -86.0451
 -86.0451
 -86.0451
 -86.0451
 -86.0451
 -86.0451
 -86.0451
 -86.0451
 -86.0451
 -86.0451
 -86.0451
 -86.0451
 -86.0451
 -86.0451
 -86.0451
 -86.0451
 -86.0451
 -86.0451
 -86.0451
 -86.0451
 -86.0451
 -86.0451
 -86.0451
 -86.0451
 -86.0451
 -86.0451
 -86.0451
 -86.0451
 -86.0451
 -86.0451
 -86.0451
 -86.0451
 -86.1896
 -86.3173
 -86.0631
 -86.3824
 -86.0451
 -86.0451
 -86.0451
 -86.0451
 -86.0451
 -86.0451
 -86.0451
 -86.0451
 -86.062
 -86.0442
 -86.0431
 -86.0363
 -86.0451
 -86.0451
 -86.0451
 -86.0451
 -86.0451
 -86.0451
 -86.0451
 -86.0451
 -86.0451
 -86.0451
 -86.0451
 -86.0451
 -86.0451
 -86.0451
 -86.0759
 -86.0423
 -86.0587
 -86.1324
 -89.5245
 -86.0814
 -86.3789
 -85.761
 -86.0451
 -86.0451
 -86.0451
 -86.0451
 -86.0451
 -86.0451
 -86.0451
 -86.0451
 -86.0451
 -86.0451
 -86.0451
 -86.0451
 -86.0451
 -86.0451
 -86.0451
 -86.0451
 -86.0451
 -86.0451
 -86.0451
 -86.0451
 -86.0451
 -86.0451
 -86.0451
 -86.032
 -85.8748
 -85.9668
 -85.8715
 -85.8841
 -86.226
 -86.3729
 27.2718
 28.5437
 10.5001
 23.9705
 -86.0451
 -86.0451
 -86.0451
 -86.0451
 -86.0451
 -86.0451
 -86.0451
 -86.0451
 -86.0451
 -86.0451
 -86.0453
 -86.0451
 -86.0451
 -86.0451
 -86.0451
 -86.0451
 -86.0451
 -86.0451
 -86.0451
 -86.0451
 -86.0451
 -86.0451
 -86.0451
 -86.0451
 -86.0455
 -86.0453
 -86.045
 -86.0451
 -86.0451
 -86.0451
 -86.0451
 -86.0451
 -86.0451
 -86.0451
 -86.0451
 -86.0451
 -86.0451
 -86.0451
 -86.0451
 -86.0451
 -86.0451
 -86.0451
 -86.0451
 -86.0451
 -86.0451
 -86.0451
 -86.0451
 -86.0451
 -86.0451
 -86.0451
 -86.0451
 -86.0451
 -86.0451
 -86.0452
 -86.0455
 -86.0451
 -86.0451
 -86.0451
 -86.0451
 -86.0451
 -86.0451
 -86.0451
 -86.0451
 -86.0434
 -86.0419
 -86.0468
 -86.0437
 -86.0451
 -86.0452
 -86.0455
 -86.0452
 -85.8327
 -86.0836
 -85.8619
 -86.1772
 -86.0451
 -86.0451
 -86.0451
 -86.0451
 -86.0451
 -86.0451
 -86.0451
 -86.0451
 -86.0451
 -86.0451
 -86.0451
 -86.0451
 -86.0451
 -86.0451
 -86.0451
 -86.0451
 -86.0451
 -86.0451
 -86.0451
 -86.0451
 -86.0451
 -86.0451
 -86.0451
 -86.0451
 -86.0451
 -86.0451
 -86.0451
 -86.0451
 -86.0451
 -86.0451
 -86.0451
 -86.0451
 -86.0451
 -86.0451
 -86.0451
 -86.0451
 -86.0451
 -86.0451
 -86.0451
 -86.0451
 -86.0451
 -86.0451
 -86.0451
 -86.0451
 -86.0451
 -86.0451
 -86.0451
 -86.0451
 -86.0451
 -86.0451
 25.7475
 25.0706
 25.6531
 28.5359
 -71.8193
 10.9551
 14.8413
 -53.3644
 -86.0451
 -86.0451
 -86.0451
 -86.0451
 -86.0451
 -86.0451
 -86.0451
 -86.0451
 -86.0451
 -86.0451
 -86.0451
 -86.0451
 -86.0451
 -86.0451
 -85.2327
 -84.7529
 -86.1985
 -86.3167
 -86.0451
 -86.0451
 -86.0451
 -86.0451
 -86.0451
 -86.0451
 -86.0451
 -86.0451
 -86.0451
 -86.0451
 -86.0451
 -86.0451
 -86.0451
 -86.0451
 -86.0451
 -86.0451
 -86.0451
 -86.0451
 -86.0451
 -86.0451
 -86.0451
 -86.0451
 -86.0451
 -86.0451
 -86.0451
 -86.0452
 -86.0451
 -86.0451
 -86.0451
 -86.0451
 -86.0451
 -86.0451
 -86.0451
 -86.0451
 -86.0451
 -86.0451
 -86.0451
 -86.0451
 -86.0451
 -86.0451
 -86.0451
 -86.0451
 -86.0451
 -86.0451
 -86.0451
 -86.0451
 -86.0451
 -86.0451
 -86.0451
 -86.0451
 -86.0451
 -86.0451
 -86.0451
 -86.0451
 -86.0451
 -86.0451
 -86.0451
 -86.0451
 -86.0451
 -86.0451
 -86.0451
 -86.0451
 -86.0451
 -86.0451
 -86.0451
 -86.0451
 -86.0451
 -86.0451
 -86.0451
 -86.0451
 -86.0451
 -86.0451
 -86.0451
 -86.0451
 -86.0451
 -86.0451
 -86.0451
 -86.0451
 -86.0451
 -86.0451
 -86.0289
 -86.0362
 -86.0362
 -86.0524
 -86.0434
 -86.0439
 -86.0401
 -86.0472
 -86.0451
 -86.0451
 -86.0451
 -86.0451
 -86.0451
 -86.0451
 -86.0451
 -86.0451
 -86.0451
 -86.0451
 -86.0451
 -85.9391
 -86.0557
 -86.0308
 -86.0451
 -86.0451
 -86.0451
 -86.0451
 -86.0451
 -86.0451
 -86.0451
 -86.0451
 -85.7059
 -86.1912
 -85.8229
 -86.0321
 -86.0451
 -86.0451
 -86.0451
 -86.0451
 -86.0451
 -86.0451
 -86.0451
 -86.0451
 -86.0451
 -86.0451
 -86.0451
 -86.0451
 -86.0451
 -86.0451
 -86.0451
 -86.0451
 -86.0451
 -86.0451
 -86.0451
 -90.4866
 -86.0451
 -86.0451
 -86.0451
 -86.0451
 -86.0442
 -86.0446
 -86.0307
 -86.0295
 -86.0451
 -86.0451
 -86.0451
 -86.0451
 -86.0451
 -86.0451
 -86.0451
 -86.0451
 -86.0451
 -86.0451
 -86.0451
 -86.0451
 -86.0451
 -86.0451
 -86.0451
 -86.0451
 -86.0451
 -86.0451
 -86.0451
 -86.0451
 -86.0451
 -90.916
 -49.2194
 -91.1925
 -89.7762
 -86.0451
 -86.0451
 -86.0451
 -86.0451
 -86.0451
 -86.0451
 -86.0451
 -86.0451
 -86.1648
 -86.1413
 -86.0774
 -86.122
 -86.0451
 -86.0451
 -86.0451
 -86.0451
 -86.0451
 -86.0451
 -86.0451
 -86.0451
 -86.0451
 -86.0451
 -86.0451
 -86.0451
 -86.0451
 -86.0451
 -86.0451
 -86.0451
 -86.0451
 -86.0451
 -86.0451
 -86.0451
 -86.0451
 -86.0451
 -86.0451
 -86.0451
 -86.0451
 -86.0451
 -86.0451
 -86.0451
 24.8835
 28.9855
 27.7868
 27.0886
 -86.0451
 -86.0451
 -86.0451
 -86.0451
 -86.0451
 -86.0451
 -86.0451
 -86.0451
 25.3317
 26.4865
 22.7229
 28.4923
 -86.0451
 -86.0451
 -86.0451
 -86.0451
 -86.0451
 -85.6402
 -86.0484
 -85.726
 -84.9485
 -86.0451
 -86.0451
 -86.0451
 -86.0451
 -86.0451
 -86.0451
 -86.0451
 -86.0445
 -86.0453
 -86.044
 -86.0453
 -86.0448
 -86.0451
 -86.0433
 -86.0463
 24.66
 26.3305
 23.4959
 -86.0451
 -86.0451
 -86.0451
 -86.0451
 -86.0451
 13.1575
 -86.0451
 -86.0451
 -86.0451
 -88.1015
 -89.923
 -90.766
 -84.9184
 -86.0451
 -86.0451
 -86.0451
 -86.0451
 -86.0451
 -86.0451
 -86.0451
 -86.0451
 -86.0451
 -86.0451
 -86.0451
 -86.0451
 -42.8093
 14.1162
 -60.5111
 -51.6187
 -86.1477
 -86.0475
 -86.1341
 -86.0711
 -86.0451
 -86.0451
 -86.0451
 -86.0451
 -86.0451
 -86.0451
 -86.0451
 -86.0451
 -86.0451
 -86.0451
 -86.0451
 -86.0451
 -86.0451
 -86.0451
 -86.0451
 -86.0451
 -86.0451
 -86.0451
 -86.0451
 -86.0451
 -86.0451
 -86.0451
 -86.045
 -86.0451
 -86.0449
 -86.0499
 -86.0392
 -86.0485
 -86.0481
 -86.0451
 -86.0451
 -86.0451
 -86.0451
 22.6256
 22.9812
 22.4473
 26.232
 24.5954
 26.7465
 25.8195
 -86.0451
 -86.0451
 -86.0451
 -86.0451
 -86.0451
 -86.0451
 -86.0451
 -86.0451
 -86.0451
 -86.0451
 -86.0451
 -86.0451
 -91.3129
 -88.632
 -89.0145
 -83.3465
 -86.0451
 -86.0451
 -86.0451
 -86.0451
 -86.0451
 -86.0451
 -86.0451
 -86.0451
 -86.0451
 -86.0451
 -86.0451
 -86.0451
 -86.0451
 -86.0451
 -86.0451
 -86.0451
 -86.0451
 -86.0451
 -86.0451
 -86.0451
 -86.0451
 -86.0451
 -86.0451
 -86.0451
 -86.0451
 -86.0451
 -86.0451
 -86.0451
 -86.0451
 -86.0455
 -86.0452
 -86.0449
 -86.045
 -86.045
 -86.0453
 -86.0449
 -86.0449
 -86.0451
 -86.0451
 -86.0451
 -86.0451
 -86.0451
 -86.0451
 -86.0451
 -86.0451
 -86.0451
 -86.0451
 -86.0451
 -86.0451
 -86.0451
 -86.0451
 -86.0451
 -86.0451
 -86.0451
 -86.0451
 -86.0451
 -86.0451
 -86.0451
 -86.0451
 -86.0451
 25.0534
 22.6814
 23.8254
 24.0466
 10.748
 11.4632
 -46.9499
 20.7129
 -86.0451
 -86.0451
 -86.0451
 -86.0451
 -86.0451
 -86.0451
 -86.0451
 -86.0451
 -86.0451
 -86.0451
 -86.0451
 -86.0451
 -86.0456
 -86.0451
 -86.045
 -86.0451
 -86.0451
 -86.0451
 -86.0451
 -86.0451
 -86.0451
 -86.0451
 -86.0451
 -86.0451
 -86.0451
 -86.0451
 -86.0451
 -86.0451
 -86.0451
 -86.0451
 -86.0451
 -86.0451
 -86.0451
 -86.0451
 -86.0451
 -86.0451
 -86.0451
 -86.0451
 -86.0451
 -86.0451
 -86.0451
 -86.0451
 -86.0451
 -86.0451
 -86.0451
 -86.0451
 -86.0451
 -86.0451
 27.7423
 25.4849
 33.0428
 31.3883
 -86.0451
 -86.0451
 -86.0451
 -86.0451
 -86.0451
 -86.0451
 -86.0451
 -86.0451
 -86.0451
 -86.0451
 -86.0451
 -86.0451
 -86.0451
 -86.0451
 -86.0451
 -86.0451
 -86.0451
 -86.1007
 -86.0934
 -86.2543
 -86.2271
 -86.0451
 -86.0451
 -86.0451
 -86.0451
 -86.0451
 -86.0451
 -86.0451
 -86.0451
 -86.0451
 -86.0451
 -86.0451
 -86.0451
 -86.0451
 -86.0451
 -86.0451
 -86.0451
 -86.0451
 -86.0451
 -86.0451
 -86.0451
 -91.2944
 -34.6441
 -86.0451
 -86.0451
 -86.0451
 -86.0451
 -86.0451
 -86.0451
 -86.0451
 -86.0451
 -86.0451
 -86.0451
 -86.0451
 -86.0451
 -84.9931
 -85.892
 -85.9104
 -85.877
 -86.0451
 -86.0451
 -86.0451
 -86.0451
 -86.0451
 -86.0457
 -86.0543
 -86.0456
 -86.0451
 -86.0451
 -86.0451
 -86.0451
 -86.0451
 -86.0451
 -86.0451
 -86.0451
 -86.0451
 -86.0451
 -86.0451
 -86.0451
 -77.595
 -89.6014
 -85.7266
 -89.0749
 22.7373
 22.5246
 23.3311
 -86.0451
 -86.0451
 -86.0451
 -86.0451
 -86.0451
 -86.0451
 -86.0451
 -86.0451
 -86.0451
 -86.0451
 -86.0451
 -86.0451
 -86.0451
 -86.0451
 -86.0451
 -86.0451
 -86.0451
 -86.0451
 -86.0451
 -86.0451
 -86.0451
 -86.0451
 -86.0451
 -86.0451
 -86.0451
 -86.0451
 -86.0451
 -86.0451
 -86.0451
 -86.0451
 -86.0451
 -86.0451
 -86.0451
 -86.0451
 -86.0451
 -85.8376
 -86.0842
 -86.0713
 -86.0517
 -86.0453
 -86.0452
 -86.0449
 -86.0451
 -86.0451
 -86.0451
 -86.0451
 -86.0451
 -86.0451
 -86.0451
 -86.0451
 -86.0451
 -86.0451
 -86.0451
 -86.0451
 -86.0451
 -86.0451
 -86.0451
 -86.0451
 -86.0451
 -86.0451
 -86.0451
 -86.0451
 -86.0451
 -86.0451
 -86.0451
 -86.045
 -86.0452
 -86.0451
 26.1643
 30.3073
 27.256
 -86.0451
 -86.0451
 -86.0451
 -86.0451
 -86.0451
 -86.0451
 -86.0451
 17.1426
 -31.827
 -2.90229
 18.7217
 -86.0451
 -86.0451
 -86.0451
 -86.0451
 -86.0393
 -86.0555
 -86.0774
 -86.1116
 -86.0449
 -86.0425
 -86.0453
 -86.0451
 -86.0451
 -86.0451
 -86.0451
 -86.0451
 -86.0451
 -86.0451
 -86.0451
 -86.0482
 -86.0276
 -86.0486
 -86.0511
 -86.0451
 -86.0451
 -86.0451
 -86.0451
 -86.0451
 -86.0451
 -86.0451
 -86.0451
 -83.1813
 -68.0842
 -86.0451
 -86.0451
 -86.0451
 -86.0451
 -86.0451
 -86.0451
 -86.0451
 -86.0451
 -86.0451
 -86.0451
 -86.0451
 -86.0451
 -86.0451
 -86.0451
 14.5696
 21.6261
 -62.7883
 14.7275
 -86.0522
 -86.0653
 -86.044
 -85.9856
 27.1711
 28.298
 25.7005
 24.9859
 -86.0451
 -86.0451
 -86.0451
 -86.0451
 -86.0451
 -86.0451
 -86.0451
 -86.0451
 -86.0451
 -86.0451
 -86.0451
 -86.0451
 -86.0451
 -86.0451
 -86.0451
 -86.0451
 -86.0451
 -86.0451
 -86.0451
 -86.0451
 -86.0451
 -86.0447
 -86.1087
 -86.1158
 -86.0296
 -86.0451
 -86.0451
 -86.0451
 -86.0451
 -86.0451
 -86.0451
 -86.0451
 -86.0451
 -86.0451
 -86.0451
 -86.0451
 -86.0451
 -86.0451
 -86.0451
 -86.0451
 -52.5135
 15.2714
 -88.2235
 -74.3959
 -86.0451
 -86.0451
 -86.0451
 -86.0451
 -86.0451
 -86.0451
 -86.0451
 -86.0451
 -86.0451
 -86.0451
 -86.0451
 -86.0451
 -86.0451
 -86.0451
 -86.0451
 -86.0451
 -86.0451
 -86.0451
 -86.0451
 -86.0451
 -86.0451
 -86.0451
 -86.0451
 -86.0451
 -86.0451
 -85.7964
 -85.7038
 -90.5085
 -86.0451
 -86.0451
 -86.0451
 -86.0451
 -86.0451
 -86.0451
 -86.0451
 -86.0451
 -86.0451
 -86.0451
 -86.0451
 -86.0451
 -86.0451
 -86.0451
 -90.3465
 -88.6131
 -86.0451
 -86.0451
 -86.0451
 -86.0451
 -86.0451
 -86.0451
 -86.0451
 -86.0451
 -86.0451
 -86.0451
 -86.0451
 -86.0451
 -86.0451
 -86.0451
 -86.0451
 -86.0451
 -85.8083
 -87.3451
 -86.0057
 -89.3321
 -86.0451
 -86.0451
 -86.0451
 -86.0451
 -86.0451
 -86.0451
 -86.0451
 -86.0451
 -86.0451
 -86.0451
 -86.0451
 -86.0451
 -86.0451
 -86.0451
 -86.0451
 27.4452
 33.8126
 23.9819
 26.2392
 -86.0451
 -86.0451
 -86.0451
 -86.0451
 -86.0451
 -86.0451
 -86.0451
 -86.0451
 -86.0451
 -86.0451
 -86.0451
 -86.0451
 -86.0451
 -86.0451
 -86.0451
 -86.0451
 -86.0451
 -86.0451
 -86.0451
 -86.0451
 -86.0451
 -86.0451
 -86.0451
 -86.0451
 -86.0451
 -86.0451
 -86.0451
 -86.0451
 -86.0451
 -86.0451
 -86.0451
 -86.0451
 -86.0451
 -86.0451
 -86.0451
 -86.7796
 -86.1836
 -86.1373
 -85.6974
 -86.0451
 -86.0451
 -86.0451
 -86.0451
 -86.0451
 -86.0451
 -86.0451
 -86.0451
 -86.0451
 -86.0451
 -86.0451
 -86.0451
 -86.0451
 -86.0451
 -86.0451
 -86.0451
 -86.0451
 -86.0588
 -87.8632
 -86.0451
 -86.0451
 -86.0451
 -86.0451
 -86.0451
 -86.0451
 -86.0451
 -86.033
 -86.1133
 -86.2302
 -86.1221
 -86.0451
 -86.0451
 -86.0451
 -86.0451
 -86.0451
 -86.0451
 -86.0451
 -86.0451
 -86.0451
 -86.0451
 -86.0451
 -86.0451
 -86.0451
 -86.0451
 -86.0451
 -86.0451
 -86.0451
 -86.0451
 -86.0451
 -86.0451
 -86.0451
 -86.0451
 -86.0451
 -86.0451
 -86.0451
 -86.0451
 -86.0451
 -86.0451
 -86.0451
 -86.0451
 -86.0451
 -86.0451
 -86.0451
 -86.0451
 -86.0451
 -86.0451
 -86.0451
 -86.0451
 -86.0451
 -86.0451
 -86.0451
 -86.0451
 -86.0451
 -86.0451
 -86.0451
 -86.0451
 -86.0451
 -86.0451
 -86.0451
 -86.0451
 -86.0451
 -86.0451
 -86.0451
 -86.0451
 -86.0451
 -86.0451
 -86.0451
 -86.0451
 -86.0451
 -86.0451
 -30.9559
 15.6694
 -68.88
 -86.0451
 -86.0451
 -86.0451
 -86.0451
 -86.0451
 -86.0451
 -86.0451
 -86.0451
 -86.0451
 -86.0451
 -86.0451
 -86.0451
 -86.0451
 -86.0451
 -86.0451
 -87.5644
 -90.2977
 -85.5388
 -87.5932
 -86.0451
 -86.0451
 -86.0451
 -86.0451
 -85.5378
 -85.9386
 -85.6988
 -86.1103
 -86.0451
 -86.0451
 -86.0451
 -86.0451
 -86.0451
 -86.0451
 -86.0452
 -86.0451
 -86.0451
 -86.0451
 -86.6876
 -88.6731
 -87.7792
 -85.4039
 22.8181
 22.851
 23.011
 22.734
 -85.363
 -85.7996
 -85.4271
 -86.0451
 -86.0451
 -86.0451
 -86.0451
 -86.0934
 -86.058
 -86.1344
 -86.1404
 -86.0451
 -86.0451
 -86.0451
 -86.0451
 -86.0474
 -86.0486
 -86.0584
 -86.0451
 -86.0451
 -86.0451
 -86.0451
 -86.0451
 -86.0451
 -86.0451
 -86.0451
 -86.0451
 -86.0451
 -86.0451
 -86.0451
 -86.0451
 -86.0451
 -86.0451
 -86.0451
 -86.0451
 -86.0451
 -86.0451
 -86.0451
 -86.0451
 -86.0451
 -86.0451
 -86.0451
 -86.0451
 -86.0451
 -86.0451
 -86.0451
 -86.0451
 -86.0451
 -86.0451
 -86.0451
 -86.0451
 -86.0451
 -86.0451
 -86.0451
 -86.0451
 -86.0451
 -86.0451
 -86.0451
 -86.0451
 -86.0451
 -86.0451
 -86.0639
 -86.1207
 -86.0385
 -86.0452
 -86.0451
 -86.0447
 -86.0452
 -86.0451
 -86.0451
 -86.0451
 -86.0451
 -86.0451
 -86.0451
 -86.0451
 -86.0451
 -86.0451
 -86.0451
 -86.0451
 -86.0451
 -86.0451
 -86.0451
 -86.0451
 -86.0451
 -86.0451
 -86.0451
 -86.0451
 -86.0451
 -86.0451
 -86.0451
 -86.0451
 -86.0451
 -86.0451
 -86.0451
 -86.0447
 -86.0443
 -86.0452
 -86.0446
 -86.0451
 -86.0451
 -86.0451
 -86.0451
 -86.0451
 -86.0451
 -86.0451
 -86.0451
 -86.0451
 -86.0451
 -86.0451
 -88.621
 -93.3728
 -89.4
 -87.1905
 -86.0454
 -86.0451
 -86.0458
 -86.0452
 -86.0451
 -86.0451
 -86.0451
 -86.0451
 -46.4479
 21.4673
 12.4299
 -86.6449
 -85.0486
 -86.3181
 -90.254
 -85.6012
 -86.9141
 -85.8209
 -85.7464
 -86.0451
 -86.0451
 -86.0451
 -86.0451
 -86.0451
 -86.0451
 -86.0451
 -86.0451
 -86.0451
 -86.0451
 -86.0451
 -86.0451
 -86.0451
 -86.0451
 -86.0451
 -86.0451
 -86.0451
 -86.0451
 -86.0451
 -86.0451
 -86.0451
 -86.048
 -86.0294
 -86.0474
 -86.037
 -86.0451
 -86.0451
 -86.0451
 -86.0451
 22.5092
 22.8282
 23.003
 22.9717
 -86.0451
 -86.0451
 -86.0451
 -86.0451
 27.5681
 14.586
 19.0246
 17.5914
 -86.0451
 -86.0451
 -86.0451
 -86.0451
 -86.0451
 -86.0451
 -86.0926
 -86.1547
 -86.0416
 -86.1049
 -86.0451
 -86.0451
 -86.0451
 -86.0451
 -86.0451
 -86.0451
 -86.0451
 -86.0451
 -86.0812
 -85.9262
 -85.9729
 -31.9005
 23.449
 20.742
 -38.0642
 -86.0426
 -86.0443
 -86.0447
 -86.0448
 -86.0451
 -86.0451
 -86.0451
 -86.0451
 -86.0451
 -86.0451
 -86.0451
 -86.0451
 -86.0067
 -85.6887
 -85.7657
 -85.6883
 -86.0451
 -86.0451
 -86.0451
 -86.0453
 -86.045
 -86.0453
 -86.0451
 -86.0451
 -86.0451
 -86.0451
 -86.0451
 -86.0451
 -86.0451
 -86.0451
 -86.0451
 -86.0451
 -86.0451
 -86.0451
 -86.0451
 -86.0451
 -86.0451
 -86.0451
 -86.0451
 -86.0458
 -86.0457
 -86.0452
 -86.0448
 -86.0451
 -86.0451
 -86.0451
 -86.0451
 -86.0451
 -86.0451
 -86.0451
 -86.0451
 -86.0451
 -86.0451
 -86.0451
 -86.0451
 -86.0451
 -86.0451
 -86.0451
 -86.0451
 -86.0451
 -86.0451
 -86.0451
 -86.0451
 -86.0451
 -86.0451
 -86.0451
 -86.0451
 -86.0451
 -86.0451
 -86.0451
 -86.0451
 -86.0451
 -86.0451
 -86.0451
 -86.0451
 -86.0451
 -86.0451
 -86.0451
 -86.0451
 -86.0451
 -86.0451
 -86.0451
 -86.0451
 -86.0451
 -86.0451
 -86.0451
 -86.0451
 -86.0451
 -86.0451
 -86.0427
 -86.0459
 -86.0478
 -86.0468
 -86.0451
 -86.0451
 -86.0451
 -86.0451
 -86.0451
 -86.0451
 -86.0451
 22.6472
 23.4937
 24.2728
 25.9377
 -86.0451
 -86.0451
 -86.0451
 -86.0451
 -86.0451
 -86.0451
 -86.0451
 -86.0451
 -86.0451
 -86.0451
 -86.0451
 -86.0451
 -86.0075
 -86.0346
 -86.0794
 -86.0715
 -86.0451
 -86.0451
 -86.0451
 -86.0451
 -86.0451
 -86.0451
 -86.0451
 -86.0451
 -86.0451
 -86.0451
 -86.0451
 -86.0451
 -86.0555
 -86.0435
 -86.0413
 -86.0345
 -86.0451
 -86.0451
 -86.0451
 -86.0451
 -86.0452
 -86.0453
 -86.0451
 -86.0451
 -86.0451
 -86.0451
 -86.4688
 -85.8991
 -86.024
 -86.0451
 -86.0451
 -86.0451
 -86.0451
 -86.0451
 -86.0451
 -86.0451
 -86.0451
 -86.0451
 -86.0451
 -86.0451
 -86.0451
 -86.0451
 -86.0451
 -86.0451
 -86.0451
 -86.0451
 -86.0451
 -86.0272
 -86.0619
 -86.0515
 -86.0429
 -86.0451
 -86.0451
 -85.6528
 -88.4527
 -88.6978
 -86.3484
 -86.0451
 -86.0451
 -86.0451
 -86.0451
 -86.0451
 -86.0451
 -86.0454
 -86.0453
 -86.0453
 -86.0452
 -86.0451
 -86.0451
 -86.0451
 -86.0451
 -86.0451
 -86.0451
 -86.0451
 -86.0453
 -86.0456
 -86.0458
 -86.0451
 -86.0451
 -86.0451
 -86.0451
 -86.644
 -86.5722
 -87.5618
 -81.6074
 -86.0451
 -86.0451
 -86.0451
 -86.0451
 -86.0451
 -86.0451
 -86.0451
 -86.0451
 -86.0451
 -86.0451
 -86.0451
 -86.0451
 -86.0451
 -86.0451
 -86.0451
 -86.0451
 -86.0451
 -86.0451
 -86.0451
 -86.0451
 -86.0451
 -86.0451
 -86.0451
 -86.0451
 -86.0451
 -86.0451
 -86.0451
 -86.0451
 -86.0452
 -86.0451
 -86.0451
 -86.0451
 -86.0451
 -86.0451
 -86.0451
 -86.0451
 -86.0451
 -86.0451
 -86.0451
 -86.0451
 -86.0451
 -86.0451
 -86.0451
 -86.0451
 -86.0451
 -86.0451
 -86.0451
 -86.0451
 -86.0451
 -86.0451
 -86.0451
 -86.0451
 -86.0451
 -86.0451
 -86.0451
 -86.0451
 -86.0451
 -86.0451
 -86.0451
 -86.0451
 -86.0451
 -86.0451
 -86.0451
 -86.0451
 -86.0304
 -85.9986
 -86.0781
 -86.0126
 -86.0451
 -86.0451
 -86.0451
 -86.0451
 -78.4347
 -75.9442
 12.4555
 -88.1664
 -86.0451
 -86.0451
 -86.0451
 -86.0451
 -86.0451
 -86.0451
 -86.0451
 -86.0451
 -86.0451
 -86.0451
 -86.0451
 -86.0451
 -86.0451
 -86.0451
 -86.0451
 -86.0451
 -86.0451
 -86.0451
 -87.1719
 -89.1313
 -86.0451
 -86.0451
 -86.0451
 -86.0451
 -86.0451
 -86.0451
 -86.0451
 -86.0451
 -86.0451
 -86.0451
 -86.0451
 -86.0451
 -86.0451
 -86.0451
 -86.0451
 -86.0451
 -86.0451
 -86.0451
 -86.0451
 -86.0451
 -85.8186
 -85.9962
 -85.8927
 -73.0728
 -72.268
 -86.7252
 -81.0035
 -86.0451
 -86.0451
 -86.0451
 -86.0451
 -86.0451
 -86.0451
 -86.0451
 -86.0451
 -86.0451
 -86.0451
 -86.0451
 -86.0451
 -86.0451
 -86.0451
 -86.0451
 -86.0451
 -86.0451
 -86.0681
 -86.0605
 -86.0439
 -86.0429
 -86.0451
 -86.0451
 -86.0451
 -86.0451
 -86.0451
 -86.0451
 -86.0451
 -86.0451
 -86.0451
 -86.0451
 -86.0451
 -86.0451
 -86.0451
 -86.0451
 -86.0451
 -86.0451
 -86.0451
 23.1767
 24.7246
 28.0878
 24.44
 -86.0452
 -86.0449
 -86.0452
 -86.0452
 -86.0451
 -86.0451
 -86.0451
 -86.0451
 -86.0451
 -86.0451
 -86.0451
 -86.0451
 -86.0451
 -86.0451
 -86.0451
 -86.0451
 -86.0451
 -86.2391
 -85.094
 -85.7865
 -86.0644
 -86.0451
 -86.0451
 -86.0457
 -85.3672
 -86.223
 -85.7249
 -86.1151
 -86.0451
 -86.0451
 -86.0451
 -86.0451
 -86.0451
 -86.0451
 -86.0451
 -86.0451
 -86.0451
 -86.0451
 -86.0451
 -86.0451
 -86.0451
 -86.0451
 -86.0451
 -86.0451
 -86.0451
 -86.0451
 -66.2014
 -86.7937
 -87.7113
 -74.4303
 -86.0451
 -86.0451
 -86.0451
 -86.0451
 -86.0451
 -86.0451
 -86.0451
 -86.0451
 -86.0451
 -86.0451
 -86.0451
 -86.0451
 26.1987
 32.0564
 23.8524
 27.6698
 -86.0451
 -86.0451
 -86.0451
 -86.0451
 30.4434
 18.3007
 26.9218
 24.6176
 -86.0451
 -86.0451
 -86.0451
 -86.0451
 -86.0451
 -86.0451
 -90.7426
 -66.478
 -90.975
 -84.8741
 -86.0451
 -86.0451
 -86.0451
 -86.0451
 -86.0451
 -86.0451
 -86.0451
 -86.0451
 -86.0451
 -86.0451
 -86.0452
 -86.045
 -86.0451
 -86.0449
 -86.0451
 -86.0451
 -86.0451
 -86.0451
 -86.0451
 -86.0451
 -86.0451
 -86.0451
 -86.0451
 -86.0451
 -86.0451
 -86.0451
 -86.0451
 -86.0451
 -86.0451
 -86.0451
 -86.0451
 -86.0451
 -86.0451
 -86.0451
 -86.0451
 -86.0451
 -86.0451
 -86.0451
 -86.0451
 -86.0451
 -86.0451
 -86.0451
 -86.0451
 -86.0451
 -86.0451
 -86.0451
 -86.0451
 -86.0451
 -86.0451
 -86.0451
 -86.0451
 -86.0451
 -86.0451
 -86.0451
 -86.0451
 -86.0451
 -86.0451
 -86.0451
 -86.0451
 -86.0451
 -86.0451
 -86.0451
 -86.0451
 -86.0451
 -86.0451
 -86.0451
 -86.0451
 -86.0451
 -86.0451
 -86.0451
 -86.0451
 -86.0451
 -86.0451
 -86.0451
 -86.0451
 -86.0459
 -86.046
 -86.0451
 -86.047
 -86.0451
 -86.0451
 -86.0451
 -86.0451
 -86.0451
 -86.0451
 -86.0451
 -86.0451
 -86.0451
 -86.0451
 -86.0451
 -86.0451
 -86.0451
 -86.0451
 -86.0451
 -86.0451
 -86.0451
 -86.0451
 -86.0451
 -86.0451
 -86.0451
 -86.0451
 -86.0424
 -86.0531
 -86.0525
 -86.0451
 -86.0451
 -86.0451
 -86.0451
 -85.9596
 -86.0154
 -86.0451
 -87.1033
 -85.9314
 -85.5635
 -85.7907
 -86.0451
 -86.0451
 -86.0451
 -86.0451
 -86.0451
 -86.0451
 -86.0451
 -86.0451
 -86.0451
 -86.0631
 -86.0351
 -86.0958
 -86.0732
 -85.9499
 -86.1023
 -86.0451
 -86.0451
 -86.0451
 -86.0451
 -86.0453
 -86.0451
 -86.0451
 -86.0451
 -86.0451
 28.1917
 24.8554
 -86.0451
 -86.0451
 -86.0451
 -86.0451
 -86.0451
 -86.0451
 -86.0451
 -86.0462
 -86.0391
 -86.0457
 -86.0406
 -86.0451
 -86.0451
 -86.0451
 -86.0451
 -86.0451
 -86.0451
 -86.0451
 -86.0451
 -86.0451
 -86.0451
 -86.0451
 -86.0451
 -86.0978
 -85.9169
 -86.0539
 -86.0435
 -86.045
 -86.0434
 -86.0451
 -86.0451
 -86.0451
 -86.0451
 -86.0451
 -86.0451
 -86.0451
 -86.0451
 -86.0451
 -86.0451
 26.9529
 31.8602
 -86.0439
 -86.0452
 -86.0446
 -86.0449
 -86.0451
 -86.0451
 -86.0451
 -86.0451
 -86.0451
 -86.0451
 -86.0451
 -86.0451
 -86.0451
 -86.0451
 -86.0451
 -86.0451
 -86.0451
 -86.0451
 -86.0451
 -86.0451
 -86.0451
 -86.0451
 -86.0451
 -86.0451
 -86.0451
 -86.0451
 -86.0451
 -86.0451
 -86.0451
 -86.0451
 22.786
 22.683
 22.8775
 22.9683
 -86.0451
 -86.0451
 -86.0319
 -86.0524
 -86.0133
 -86.0494
 -86.0451
 -86.0451
 -86.0451
 -86.0451
 -86.0451
 -86.0451
 -86.0451
 -86.0451
 -86.0451
 -86.0451
 -86.0451
 -86.0451
 -86.0451
 -86.0451
 -86.0451
 -86.0451
 -86.0451
 -86.0451
 -86.0326
 -86.0404
 -86.0434
 -86.0344
 -86.0451
 -86.0451
 -86.0451
 -86.0451
 -86.0451
 -86.0451
 -86.0451
 -86.0451
 -86.0451
 -86.0451
 -86.0451
 -86.0451
 -86.0451
 -86.0451
 -86.0451
 -86.0451
 -86.0451
 -86.0451
 -86.0451
 -86.0451
 -86.0451
 -86.0451
 -86.0451
 -86.0451
 -86.0451
 -86.0451
 -86.0451
 -86.0451
 -86.0451
 -86.0451
 -86.0451
 -86.0451
 -86.0451
 -86.0451
 -86.0451
 -86.0451
 -86.0451
 -86.0451
 -86.0451
 -86.0451
 -86.0451
 -86.0405
 -86.0848
 -86.0451
 -86.0451
 -86.0451
 -86.0451
 -86.0451
 -86.0451
 -86.0451
 -86.0451
 -86.0451
 -86.0451
 -86.0451
 -86.0451
 -86.0451
 -86.0451
 -86.0451
 -86.0351
 -86.0295
 -86.0448
 -86.0451
 -86.0451
 -86.0451
 -86.0451
 -86.0451
 -86.0451
 -86.0451
 -86.0451
 -86.0454
 -86.0452
 -86.0452
 -86.0455
 -86.0451
 -86.0451
 -86.0451
 -86.0451
 -86.0452
 -86.0452
 -86.0451
 -86.0452
 -86.0449
 -86.0452
 -86.0451
 -86.0451
 -86.0451
 -86.0451
 -86.0451
 -86.0451
 -86.0451
 -86.0451
 -86.0451
 -86.0451
 -86.0451
 -86.0451
 -86.0451
 -86.0451
 -86.0451
 -86.0451
 -86.0451
 -86.0451
 -86.0451
 -86.0451
 -85.8622
 -86.0451
 -86.0451
 -86.0451
 -86.0451
 27.7453
 -86.0451
 -86.0451
 -86.0451
 -86.0451
 -86.0451
 -86.0451
 -86.0451
 -86.0451
 -86.0451
 -86.0451
 -86.0449
 -86.0462
 -86.0451
 -86.0451
 -86.0424
 -86.0465
 -86.0422
 -86.0459
 -86.0451
 -86.0451
 -86.0451
 -86.0451
 -68.0387
 -57.1364
 -42.1529
 -85.0285
 -86.0451
 -86.0451
 -86.0451
 -86.0433
 -86.0365
 -86.0399
 -86.0451
 -86.0451
 -86.0451
 -86.0451
 -86.0451
 -86.0451
 -86.0451
 -86.0451
 -86.0451
 -86.0451
 -86.0451
 -86.0451
 -86.0451
 -86.0451
 -86.0451
 -86.0451
 -86.0451
 -86.0446
 -86.0408
 -86.0986
 -86.1619
 -85.7521
 -89.4664
 -86.6817
 -85.9705
 -86.0451
 -86.0451
 -86.0451
 -86.0451
 -86.0451
 -86.0451
 -86.0451
 -86.0451
 -86.0451
 -86.0451
 -86.0451
 -86.0451
 -86.0451
 -86.0451
 -86.0451
 -86.0451
 -86.0451
 -86.0452
 -86.0451
 -86.0451
 -86.0451
 -86.0451
 -86.0451
 -86.0451
 -86.0451
 -86.0451
 -86.0451
 -86.0451
 -86.0451
 -86.0451
 -86.0451
 -86.0451
 -86.0451
 -86.0451
 -86.0451
 -86.0451
 -86.0451
 -86.0451
 -86.0451
 -86.0451
 -86.0451
 -86.0451
 -86.0451
 -86.0451
 -86.0451
 -86.0451
 -86.0451
 -86.0451
 -86.0451
 -86.5616
 -90.9575
 -89.0551
 -89.8775
 27.0357
 24.1021
 27.2888
 -88.921
 -86.407
 -85.8817
 -86.0451
 -86.0451
 -86.0451
 -86.0451
 -86.0451
 -86.0451
 -86.0451
 -86.0451
 -86.0426
 -86.0605
 -86.0389
 -86.0926
 -86.0451
 -86.0451
 -86.0451
 -86.0451
 -86.0451
 -86.0451
 -86.0451
 -86.0451
 25.4806
 29.6981
 26.7915
 24.2936
 -86.0451
 -86.0451
 -86.0451
 -86.0451
 -86.0451
 -86.0451
 -86.0451
 -86.0451
 23.7852
 26.3734
 28.9906
 24.3286
 -86.0451
 -86.0451
 -86.0451
 -86.0451
 -86.0451
 -86.0451
 -86.0451
 -86.0451
 -86.0451
 -86.0451
 -86.0451
 -86.0451
 -86.0451
 -86.0451
 -86.0451
 -86.0451
 -86.0451
 -86.0451
 -86.0451
 -86.0451
 -86.0451
 -86.0451
 -86.0451
 -86.0451
 -86.0451
 -86.0451
 -86.0451
 -86.0451
 -85.1588
 -86.2516
 -85.8779
 -86.0406
 -86.0451
 -86.0451
 -86.0451
 -86.0451
 -86.0451
 -85.9142
 -85.9885
 -86.1096
 -86.0337
 -86.0451
 -86.0451
 -86.0451
 -86.0451
 30.3329
 26.6309
 15.4122
 26.3626
 -86.0451
 -86.0451
 -86.0451
 -86.0451
 -86.0451
 -86.0451
 -86.0451
 -86.0451
 -86.0451
 -86.0451
 -86.0451
 -86.0451
 -86.0451
 -86.0451
 -86.0451
 -86.0451
 -86.0451
 -86.0451
 -86.0451
 -86.0451
 -86.0451
 -86.0451
 -86.0451
 -86.0451
 -86.0451
 -86.0451
 -86.0451
 -86.0451
 -86.0451
 -86.0451
 -86.0451
 -86.0451
 -86.0451
 -86.0451
 -86.0451
 -86.0451
 -86.0451
 -86.0451
 -86.0451
 -86.0451
 -86.0451
 -86.0451
 -86.0451
 -86.0662
 -86.1221
 -86.035
 -86.0457
 -86.3244
 -85.9357
 -86.1214
 -86.0451
 -86.0451
 -86.0451
 -86.0451
 -86.0451
 -86.0451
 -86.0451
 -86.0452
 -86.0451
 -86.0476
 -86.0476
 -86.045
 -86.0456
 -86.0451
 -86.0451
 -86.0451
 27.0359
 9.85452
 21.6037
 17.2208
 -86.0418
 -86.0243
 -86.0246
 -86.0632
 -86.0451
 -86.0451
 -86.0451
 -86.0451
 -86.0451
 -86.0451
 -86.0451
 -86.0451
 -86.0451
 -86.0451
 -86.0451
 -86.0451
 -86.0359
 -86.0418
 -86.0439
 -86.0662
 -86.0451
 -86.0451
 -86.0451
 -86.0451
 -86.0451
 -86.0451
 -86.0451
 -85.8362
 -85.8076
 -90.0974
 -87.4945
 -86.0451
 -86.0451
 -86.0451
 -86.0451
 1.33682
 11.334
 -66.4972
 14.7275
 -86.0451
 -86.0451
 -86.0451
 -86.0451
 -86.0451
 -86.0451
 -86.0451
 -86.0451
 -86.0438
 -86.0419
 -86.0507
 -86.0366
 -86.0451
 -86.0451
 -86.0451
 -86.0451
 19.6908
 25.1493
 31.4421
 -86.0451
 -86.0451
 -86.0451
 -86.0451
 -86.0451
 -86.0451
 -86.0451
 -86.0451
 -86.0451
 -86.0451
 -86.0451
 -86.0451
 -86.0451
 -86.0451
 -86.0451
 -86.0451
 -86.147
 -86.1244
 -85.9113
 -86.0967
 -86.0451
 -86.0451
 -86.0451
 -86.0451
 -86.0451
 -86.0451
 -86.0451
 -86.0451
 -86.0451
 -86.0451
 -86.0451
 -86.0451
 -86.0451
 -86.0451
 -86.0451
 -86.0451
 -86.0451
 -86.0451
 -86.0451
 -86.0451
 -86.0451
 -86.0451
 -86.0451
 -86.0451
 -86.0451
 -86.0451
 -86.0451
 -86.0451
 -86.0451
 -86.0451
 -86.0451
 -86.0451
 -86.0451
 -86.0451
 -86.0451
 -86.0451
 -86.0451
 -86.0451
 -86.0451
 23.4135
 25.4706
 25.6303
 -86.0451
 -86.0451
 -86.0451
 -86.0451
 -86.0451
 -86.0451
 -86.0451
 -86.0451
 -86.0451
 -86.0451
 -86.0451
 -86.0451
 -86.0451
 -86.0451
 -86.0451
 -86.0451
 -86.0451
 -86.0451
 -86.0451
 -86.0451
 -86.0451
 -86.0451
 -86.0451
 -86.0687
 -86.0517
 -86.0769
 -86.0489
 -86.0451
 -86.0451
 -86.045
 -86.045
 -86.0458
 -86.045
 -86.0451
 -86.0451
 -86.0451
 -86.0451
 -86.0451
 -86.0451
 -86.0451
 -86.0451
 -86.0451
 -86.0451
 -86.0451
 -86.0451
 -86.0607
 -86.0389
 -86.0864
 -86.0342
 -85.9232
 -86.0373
 -86.1209
 26.0047
 25.4771
 24.4144
 -86.0451
 -86.0451
 -86.0451
 -86.0451
 -87.8137
 -87.9594
 -85.8097
 -85.9252
 -86.0451
 -86.0451
 -86.0451
 -86.0451
 -86.0451
 -86.0451
 -86.0451
 -86.0451
 -86.0451
 -86.0451
 -86.0451
 -86.0451
 -87.9105
 -87.6284
 -89.9782
 -83.7973
 -86.0451
 -86.0451
 -86.0451
 -86.0451
 -86.0451
 -86.0451
 -86.0451
 -86.0451
 -86.0451
 -86.0451
 -86.0451
 -86.0451
 -86.0451
 -86.0451
 -86.0451
 -86.0451
 -86.0451
 -86.0451
 -86.0451
 -86.0451
 -86.0451
 -86.0451
 -86.0451
 -86.0451
 -86.0451
 -86.0451
 -86.0451
 -86.0451
 -86.0451
 -86.0451
 -86.0451
 -86.0451
 -86.0451
 -86.0451
 -86.0451
 -86.0451
 -86.0451
 -86.0451
 -86.0451
 -86.0451
 -86.0451
 -86.0451
 -86.0451
 -86.0451
 -86.0451
 -86.0451
 -86.0451
 -86.0451
 -86.7747
 -86.0451
 -86.0451
 -86.0451
 -86.0451
 -86.0917
 -86.0316
 -86.1201
 -86.0952
 -86.0451
 -86.0451
 -86.0451
 -86.0451
 -86.0451
 -86.0451
 -86.0451
 -86.0451
 -86.0451
 -86.0451
 -86.0451
 -86.0451
 -86.0451
 -86.0451
 -86.0451
 -86.0451
 -86.0451
 -86.0451
 -86.0451
 -86.0451
 -86.0451
 -86.0451
 -86.0451
 -86.0451
 23.1917
 24.2642
 23.5245
 -86.0451
 -86.0451
 -86.0451
 -86.0451
 -86.0451
 -86.0451
 -89.0571
 -66.6977
 -66.6156
 -86.0455
 -86.0452
 -86.045
 -86.0452
 -86.0451
 -86.0451
 -86.0451
 -86.0451
 -86.0451
 -72.2976
 -88.5467
 -55.1785
 -67.4297
 -86.0451
 -86.0451
 -86.0451
 -86.0451
 -86.0451
 -86.0451
 -86.0451
 -86.0451
 -86.0451
 -86.0451
 -86.0451
 -86.0451
 -86.0451
 -86.0451
 -67.507
 -86.4212
 -89.6787
 -86.0451
 -86.0451
 -86.0451
 -86.0451
 -86.0451
 -86.0451
 -86.0451
 -86.0451
 -85.9222
 -86.0451
 -86.0451
 -86.0451
 -86.0451
 -86.0451
 -86.0451
 -86.0451
 -86.0451
 -86.0451
 -86.0451
 -86.0451
 -86.0451
 -86.0451
 -86.0451
 -86.0451
 -86.0451
 -86.0451
 -86.0451
 -86.0451
 -86.0451
 -86.0451
 -86.0451
 -86.0451
 -86.0454
 -86.0451
 -86.0452
 -86.0453
 -86.0451
 -86.0451
 -86.0451
 -86.0451
 -86.0451
 5.84466
 28.6667
 13.5039
 -55.7868
 -86.0451
 -86.0451
 -86.0451
 -86.0451
 -87.131
 -77.3467
 -87.7576
 -87.4976
 -86.0451
 -86.0451
 -86.0451
 -60.2788
 -69.5744
 20.0457
 -14.8427
 -86.0451
 -86.0451
 -86.0451
 -86.0451
 -86.0451
 -86.0451
 -86.0451
 -86.0451
 -86.0451
 -86.0451
 -86.0451
 -86.0451
 30.9317
 -86.0458
 -86.0448
 -86.045
 -86.045
 -86.1285
 -85.8399
 -85.9159
 -86.0451
 -86.0451
 -86.0451
 -86.0451
 -86.0451
 -86.0451
 -86.0451
 -86.0451
 -86.0451
 -86.0451
 -86.0451
 -86.0451
 -86.0451
 -86.0451
 -86.0451
 -86.0451
 24.8867
 26.2215
 -86.0451
 -86.0451
 -86.0451
 -86.0451
 -86.0451
 -86.0451
 -86.0451
 -86.0451
 -86.0451
 -86.0451
 -86.0452
 -86.0451
 -86.0451
 -86.0451
 -86.0451
 -86.0451
 -86.0451
 -86.0451
 -86.0451
 -86.0451
 -86.0451
 -86.0451
 -86.0451
 -86.0451
 -86.0451
 -86.0451
 -86.0451
 -86.0451
 -86.0451
 -86.0451
 -86.0451
 -86.0451
 -86.0451
 -86.0451
 -86.0451
 -86.0451
 -86.0451
 -86.0451
 -86.0451
 -86.0451
 -86.0451
 -86.0451
 -86.0451
 -86.0451
 -86.0451
 -86.0451
 -86.0451
 -86.0451
 -86.0451
 -86.0451
 -86.0451
 -86.0451
 -86.0451
 -86.0451
 -86.0451
 -86.0451
 -86.0451
 -86.0451
 -86.0451
 -86.0451
 -86.0451
 -86.0453
 -86.0451
 23.7641
 25.9998
 28.0303
 23.3593
 -86.0451
 -86.0451
 -86.0451
 -86.0451
 -86.0451
 -86.0451
 -86.0451
 -86.0451
 26.9175
 24.2046
 26.707
 18.7024
 -84.6892
 -70.7984
 -60.15
 -86.0451
 -86.0451
 -86.0451
 -86.0451
 -86.0451
 -86.0451
 -86.0451
 -86.0451
 -86.0451
 -86.0451
 -86.0451
 -86.0451
 -86.0451
 -86.0451
 -86.0451
 -86.0451
 -86.0451
 -86.0451
 -86.0451
 -86.0451
 -86.0451
 -86.0451
 -86.0451
 -86.0451
 -86.0451
 -86.0451
 -86.0451
 -16.3457
 -82.139
 -17.4712
 -72.9846
 -86.0451
 -86.0451
 -86.0451
 -86.0451
 -86.0451
 -86.0451
 -86.0451
 -86.0451
 -86.0451
 -86.0451
 -86.0451
 -86.0449
 -86.0452
 -86.0451
 -86.0451
 -86.0451
 -86.0451
 -86.0451
 -86.0451
 -86.0451
 -86.0451
 -86.0451
 -86.0451
 -86.0451
 -86.0451
 -86.0451
 -86.0451
 -86.0451
 -86.0451
 -86.0451
 -86.0451
 -86.0451
 -86.0451
 -86.0451
 -86.0451
 -86.0451
 -86.0451
 -86.0451
 -86.0451
 -86.0451
 -86.0451
 -86.0451
 -86.0451
 -86.0451
 -86.0451
 -86.0451
 -86.0451
 -86.0451
 -86.0451
 -86.0451
 -86.0451
 -86.0451
 -86.0451
 -86.0451
 -86.0451
 -86.0451
 -86.0451
 -86.0451
 -86.0451
 -86.0451
 -86.0451
 -86.0451
 -86.0451
 -86.0451
 -86.0451
 -86.0451
 -86.0451
 -86.0451
 -86.0451
 -86.0451
 -86.0451
 -86.0451
 -86.0451
 -86.0451
 -86.0451
 -86.0451
 -86.0451
 -86.0451
 -86.0451
 -86.0451
 -86.0451
 -86.0451
 -86.0451
 -86.0451
 -86.0451
 -86.0451
 -86.0451
 -86.0451
 -86.0451
 -86.0451
 -86.0451
 -86.0451
 -86.0451
 -86.16
 -86.0843
 -86.4788
 -86.0436
 -86.0451
 -86.0451
 -86.0451
 -86.0451
 -86.0451
 -86.0451
 -86.0451
 -86.0451
 -86.0451
 -86.0451
 -86.0451
 -86.0451
 -86.0451
 -86.0451
 -86.0451
 -86.0451
 -86.0451
 -86.0451
 -86.0451
 -86.0451
 -86.0451
 -86.0451
 -86.0451
 -86.0451
 -86.0451
 -86.0451
 -36.8202
 -73.1321
 -91.3078
 -85.9256
 -86.0451
 -86.0451
 -86.0451
 -86.0451
 -86.0451
 -86.0451
 -86.0451
 -86.0451
 -86.0451
 -86.0451
 -86.0169
 -86.0462
 -86.0515
 -86.0529
 -86.0451
 -86.0451
 -86.0451
 -86.0451
 -86.0451
 -86.0451
 -86.0451
 -86.0451
 -86.0451
 -86.0451
 -86.0451
 -86.0451
 -86.0451
 -86.0451
 -86.0451
 -86.0451
 -86.0451
 -86.0451
 -86.0451
 -86.0451
 -86.0451
 -86.0451
 -86.0451
 -86.0451
 -86.0451
 -86.0451
 -86.0451
 -86.0451
 -86.0451
 -86.0451
 -86.0451
 -86.0451
 -86.0451
 -86.0451
 -86.0451
 -86.0451
 -86.0451
 -86.0451
 -86.0451
 -86.0451
 -86.0451
 -86.0451
 -86.0451
 -86.0451
 -86.0451
 -86.0451
 -86.0451
 -86.0451
 -86.0451
 -86.0451
 -86.0451
 -86.0451
 -86.0451
 -86.0451
 -86.0451
 -86.0451
 -86.0451
 -86.0451
 -86.0649
 -86.0626
 -86.0672
 -86.0416
 -86.0451
 -86.0451
 -86.0451
 -86.0451
 -86.047
 -86.0453
 -86.0567
 -86.0451
 -86.0451
 -86.0451
 -86.0451
 -86.0454
 -86.0418
 -86.0421
 -86.0433
 -86.0451
 -86.0451
 -86.0451
 -86.0451
 -86.0451
 -86.0451
 -86.0451
 -86.0451
 -86.0451
 -86.0451
 -86.0451
 -86.0451
 -86.0451
 -86.0451
 -86.0451
 -86.0451
 -86.0451
 -86.0451
 -86.0451
 -86.0451
 -86.0451
 -86.0451
 -86.0451
 -86.0451
 -86.0451
 -86.0451
 -86.0451
 -86.0451
 -86.0451
 -86.0451
 -86.0451
 -86.0451
 -86.0451
 -86.0451
 -86.0451
 -86.0451
 -86.0451
 -86.0451
 -86.0451
 -86.0451
 -86.0451
 -86.0451
 -86.0451
 -86.0451
 -86.0451
 -86.0451
 -86.0451
 -86.0451
 -86.0451
 -86.0451
 -86.0451
 -86.0451
 -86.0451
 -86.0451
 28.5062
 26.7225
 23.1192
 -86.0451
 -86.0451
 -86.0451
 -86.0451
 -86.0451
 -86.0451
 -86.0451
 -86.0451
 -86.0451
 -86.0451
 -86.0451
 -86.0451
 -86.0451
 -86.0451
 -86.0451
 -86.0451
 -86.0451
 -86.0451
 -86.0451
 -86.0451
 -86.0451
 -86.0373
 -86.0418
 -86.0501
 -86.0451
 -86.0451
 -86.0451
 -86.0451
 -86.0451
 -86.0469
 -86.0588
 -86.0599
 -86.1151
 -86.0451
 -86.0451
 -86.0451
 -86.0451
 -86.0451
 -86.0451
 -86.0451
 -86.0451
 -86.0451
 -86.0451
 -86.0451
 -86.0451
 -86.0451
 -86.0451
 -86.0451
 -86.0451
 -86.0451
 23.9209
 -86.0451
 -86.0451
 -86.0451
 -86.0451
 -86.0451
 -86.0451
 -86.0451
 -86.0451
 -86.0451
 -86.0451
 -86.0451
 -86.0451
 -86.0451
 -86.0451
 -86.0451
 -86.0451
 -86.0451
 -86.0451
 -86.0451
 -86.0451
 -86.0451
 -86.0451
 -86.0451
 -86.0451
 -86.0451
 -86.0451
 -86.0451
 -86.0451
 -86.0451
 -86.0451
 22.531
 22.452
 22.7921
 23.0471
 -86.0451
 -86.0451
 -86.0451
 -86.0451
 -86.0451
 -86.0451
 -86.0451
 -86.0451
 -86.0451
 -85.5525
 -86.7227
 -85.6053
 -89.8068
 -86.0451
 -86.0451
 -86.0451
 -86.0451
 -86.0451
 -86.0451
 -86.0451
 -86.0451
 -86.0451
 -86.0451
 -86.0451
 -86.0451
 -86.0451
 -86.0451
 -86.0451
 -86.0451
 -86.0451
 -86.0451
 -86.0451
 -86.0451
 -86.0451
 -86.0451
 -86.0451
 -86.0451
 -86.0451
 -86.0451
 -86.0451
 -86.0451
 -86.0451
 -86.0451
 -86.0451
 -86.0451
 -86.0451
 -90.8715
 -78.9594
 -86.0451
 -86.0451
 -86.0451
 -86.0451
 -86.0451
 -86.0451
 -86.0451
 -86.0451
 -86.0451
 -86.0451
 -86.0451
 -86.0451
 -86.0451
 -86.0451
 -86.0451
 -86.0451
 -86.0451
 -86.0451
 -86.0451
 -86.0451
 -86.0451
 -86.0451
 -86.0451
 -86.0451
 -86.0451
 -86.0451
 -86.0451
 -86.0451
 -86.0451
 -86.0451
 -86.0451
 -86.0451
 -86.0451
 -86.0451
 -86.0451
 -86.0451
 -86.0451
 -86.0451
 -86.0451
 -86.0451
 -86.0451
 -86.0451
 -86.0451
 -86.0451
 -86.0451
 -86.0451
 -86.0451
 -86.0451
 -86.0451
 -86.0451
 -86.0451
 -86.0451
 -86.0451
 -86.0451
 -86.0451
 -86.0451
 24.187
 32.1344
 33.8642
 28.3167
 -86.0451
 -86.0451
 -86.0451
 -86.0451
 -86.0451
 -86.0451
 -86.0451
 -86.0451
 -86.0451
 -86.0451
 -86.0451
 -86.0451
 -86.0451
 -86.0451
 -86.0451
 -86.0451
 -86.0451
 -86.0451
 -86.0451
 -86.0451
 -86.0451
 -86.0451
 -86.0451
 -86.0451
 -86.0451
 -86.0451
 -86.0451
 -86.0451
 -86.0451
 -86.0451
 -86.0451
 -86.0451
 -86.0451
 -86.0451
 -86.0451
 -86.0451
 -86.0451
 -86.0451
 -86.0451
 -86.0451
 -86.0451
 -86.0451
 -86.0451
 -86.0451
 -86.0451
 -86.0451
 -86.0451
 -86.0451
 -86.0451
 -86.0451
 -86.0451
 -86.0451
 -86.0451
 -86.0451
 -86.0451
 -86.0451
 -86.0451
 -86.0451
 -86.0451
 -86.0451
 -86.0451
 -86.0451
 -86.0451
 -86.0451
 -86.0451
 -86.0451
 -86.0451
 -86.0451
 -86.0451
 -86.0451
 -86.0451
 -86.0451
 -86.0451
 -86.0451
 -86.0451
 -86.0451
 -86.0451
 -86.0451
 -86.0451
 -86.0451
 -86.0451
 -86.0451
 -86.0451
 -86.0451
 -86.0451
 -86.0451
 -86.0451
 -86.0452
 -86.0451
 -86.0451
 -86.0451
 -86.0451
 -86.0451
 -88.1148
 -89.9862
 -87.6648
 -92.5329
 -86.0451
 -86.0451
 -86.0451
 -86.0451
 -86.0451
 -86.0451
 -86.0451
 -86.0451
 -86.0451
 -86.0451
 -86.0451
 -86.0451
 -86.0451
 -86.0451
 -86.0451
 -86.0649
 -86.0447
 -86.0451
 -86.0451
 -86.0451
 -86.0451
 -86.0451
 -86.0451
 -86.0451
 -86.0451
 -86.0451
 -86.0451
 -86.0451
 -86.0451
 -86.0451
 -86.0451
 -86.0451
 -86.0451
 -86.0451
 -86.0451
 -86.0451
 -86.0451
 -86.0451
 -86.0451
 -86.0451
 -86.0451
 -86.0451
 -86.0451
 -86.0451
 -86.0451
 -86.0451
 -86.0451
 -86.0451
 -86.0451
 -86.0451
 -86.0451
 -86.0451
 -86.0451
 -86.0451
 -86.0451
 -86.0451
 23.0636
 22.5925
 23.278
 -86.0451
 -86.0451
 -86.0451
 -86.0451
 -86.0451
 -86.0451
 -86.0451
 -86.0451
 -86.0451
 -86.0451
 -86.0451
 -86.0451
 -86.0451
 -86.0451
 -86.0451
 -86.0451
 -86.0451
 -86.0451
 -86.0451
 -86.0451
 -86.0451
 -86.0451
 -86.0451
 -86.0451
 -86.0451
 -86.0451
 -86.0451
 -86.0451
 -86.0451
 -86.0451
 -86.0451
 -86.0451
 -86.0451
 -86.0451
 -86.0451
 -86.0451
 -86.0451
 -86.0451
 -86.0451
 -86.0451
 -86.0451
 -86.0451
 -86.0451
 -86.0451
 -86.0451
 -86.0113
 -75.4082
 -86.0386
 -86.045
 -86.0395
 -86.0427
 -53.8966
 -86.0451
 -86.0451
 -86.0451
 -86.0451
 -86.0451
 -86.0451
 -86.0451
 -86.0451
 -86.0451
 -86.0451
 -86.0451
 -86.0451
 -86.0451
 -86.0451
 -86.045
 -86.0451
 -86.0443
 -86.0453
 -86.0377
 -86.035
 -86.1013
 -86.0332
 -86.0451
 -86.045
 -86.0451
 -86.0451
 -86.0451
 -86.0451
 -86.0414
 -86.0475
 -86.0432
 -86.046
 -86.0451
 -86.0451
 -86.0451
 -86.0451
 -86.0451
 -86.0451
 -86.0451
 -86.0451
 -86.0451
 -86.0451
 -86.0451
 -86.0451
 -86.0451
 -86.0451
 -86.0451
 -52.2053
 21.819
 13.0738
 -55.9478
 -86.0451
 -86.0451
 -86.0451
 -86.0451
 -86.0451
 -86.0451
 -86.0451
 -61.2808
 24.3515
 -24.5518
 -86.0451
 -86.0451
 -86.0451
 -86.0451
 -86.0451
 -87.7115
 -92.3131
 -85.1946
 -86.8003
 -86.0451
 -86.0451
 -86.0451
 -86.0451
 -86.0451
 -86.0451
 -86.0451
 -86.0451
 -86.0451
 -86.0451
 -86.0451
 -86.0451
 -86.0451
 -86.0451
 -86.0451
 -86.0451
 -86.0451
 -86.0451
 -86.0451
 -86.0451
 -86.0451
 -86.0451
 -86.0451
 -86.0451
 -86.0451
 -86.0451
 -86.0451
 -86.0285
 -86.0429
 -86.2493
 -86.0131
 -85.963
 -85.7927
 -86.0451
 -86.0451
 -86.0451
 -86.0451
 -86.0451
 -86.0451
 -86.0451
 -86.0451
 -86.0451
 -86.0451
 -86.0451
 -86.0451
 -86.0451
 -86.0451
 -86.0451
 -86.0451
 -86.0451
 -86.0451
 -86.0451
 -86.0451
 -85.7946
 -86.0451
 -86.0451
 -86.0451
 -86.0451
 -89.7851
 -89.2591
 -89.3658
 -86.0451
 -86.0451
 -86.0451
 -86.0451
 -86.0451
 -86.0451
 -86.0451
 -86.0451
 -86.0451
 -86.0451
 -86.0451
 -86.0451
 -86.0451
 -86.0451
 -86.0451
 -86.0451
 -86.0451
 -86.0451
 -86.0451
 -86.0451
 -86.0451
 -86.0451
 -73.8605
 -87.5184
 -87.9517
 -90.5713
 -86.0451
 -86.0451
 -86.0451
 -86.0451
 -86.0451
 -86.0451
 -86.0451
 -86.0451
 -86.0451
 -86.0451
 -86.0451
 -86.0451
 -86.0451
 -86.0451
 -86.0451
 -86.0332
 -86.1023
 -86.025
 -86.0526
 -86.0451
 -86.0452
 -86.0451
 -86.0451
 23.5513
 11.7365
 -54.1495
 -83.8098
 -86.0451
 -86.0451
 -86.0451
 -86.0451
 -86.0451
 -86.0451
 -86.0451
 -86.0451
 -86.027
 -86.0407
 -86.1317
 -86.0451
 -86.0451
 -86.0451
 -86.0451
 -86.0451
 -86.0451
 -86.0451
 -86.0451
 -86.0451
 -86.0451
 -86.0451
 -86.0451
 -86.0451
 -86.0451
 -86.0451
 -86.0451
 -86.0451
 -86.0451
 -86.0451
 -86.0451
 -86.0451
 -86.0451
 -86.0451
 -86.0451
 -86.0451
 -86.0451
 -86.0451
 -86.0451
 -86.0451
 -86.0393
 -86.0373
 -86.0395
 -85.7434
 -85.7589
 -85.7173
 -87.0047
 -86.0496
 -86.0486
 -86.0372
 -86.0451
 -86.0451
 -86.0451
 -86.0451
 -86.0451
 -86.0451
 -86.0451
 -86.0451
 -86.0451
 -86.0396
 -86.0384
 -86.0428
 -86.039
 -86.0451
 -86.0451
 -86.0451
 -86.0451
 -86.0451
 -86.0451
 -86.0451
 -86.0451
 -86.0451
 -86.0451
 -86.0451
 -86.0451
 -86.0451
 -86.0451
 -86.0451
 -86.0451
 -86.0451
 -86.0451
 -86.0451
 -86.0451
 -86.0451
 -86.0451
 -86.0451
 -86.0451
 -86.0451
 -86.0451
 -86.0451
 -86.0451
 -86.0451
 -86.0451
 -86.0451
 -86.0451
 -86.0451
 -86.0451
 -86.0451
 -86.0451
 -86.0451
 -86.0451
 -86.0451
 -86.0451
 -86.0451
 -86.0451
 -86.0451
 -86.0451
 22.6606
 25.5642
 25.2041
 29.7235
 -86.0451
 -86.0451
 -86.0451
 -86.0451
 -86.0451
 -86.0451
 -86.0451
 -86.0451
 -86.0451
 -86.0451
 -86.0451
 -86.0451
 -86.0451
 -86.0451
 -86.0451
 -86.0451
 -86.0451
 -86.0451
 -86.0451
 -86.0451
 -86.0158
 -86.0902
 -86.1602
 -85.6213
 -85.6881
 -85.4621
 -85.9633
 -86.0451
 -86.0451
 36.1994
 28.6488
 22.6562
 -86.0395
 -86.0394
 -86.0421
 -86.0674
 -86.0451
 -86.0451
 -86.0451
 -83.7639
 -72.7827
 -88.643
 -56.0153
 -86.0451
 -86.0451
 -86.0451
 -86.0451
 -86.0451
 -86.0451
 -86.0451
 -86.0451
 -86.0451
 -86.0451
 -86.0451
 -86.0451
 -86.0451
 -86.0451
 -86.0451
 -86.0451
 -86.0451
 -86.0451
 -86.0451
 -86.0451
 -86.0451
 -86.0451
 -86.0451
 -86.0451
 -54.7543
 -86.9269
 -55.464
 -86.0451
 -86.0451
 -86.0451
 -86.0451
 -86.0451
 -86.0451
 -86.0451
 -86.0451
 -89.6268
 -50.5155
 -86.7953
 -86.4517
 -86.0451
 -86.0451
 -86.0451
 -86.0452
 -86.0403
 -86.0452
 -86.0451
 -86.0451
 -86.0451
 -36.3258
 -83.1806
 -84.3612
 -53.0744
 -86.0439
 -86.0455
 -86.0452
 -86.0451
 -86.0451
 -86.0451
 -86.0451
 -86.0451
 -86.0451
 -86.0451
 -86.0451
 -86.0451
 -86.0451
 -86.0451
 -86.0451
 -86.0451
 -86.0451
 -86.0451
 -86.0451
 -86.0451
 -86.0451
 -86.0451
 -86.0451
 -86.0451
 -86.0727
 -86.0412
 -86.0577
 -86.0509
 30.7918
 -86.0451
 -86.0451
 -86.0451
 -86.0451
 -85.03
 -86.4921
 -85.2178
 -89.2679
 -86.0451
 -86.0451
 -86.0451
 -86.0451
 -51.6792
 25.2533
 -69.2049
 -76.6745
 -86.0451
 -86.0451
 -86.0451
 -86.0451
 -86.0451
 -86.0451
 -86.0453
 -86.0455
 -86.0451
 -86.0454
 -86.0451
 -86.0451
 -86.0451
 -86.0451
 -86.0451
 -86.0451
 -86.0451
 -86.0451
 -86.0451
 -86.0451
 -86.0451
 -86.0451
 -86.0451
 -86.0451
 -86.0451
 -86.0451
 -86.0451
 -86.0451
 -86.0451
 -86.0451
 -86.0451
 -86.0451
 -86.0451
 -86.0451
 -86.0451
 -86.0451
 15.4285
 -66.1702
 22.1645
 -74.3725
 -86.0451
 -86.0451
 -86.0451
 -86.0451
 -85.9614
 -86.1814
 -86.0451
 -86.0451
 -86.0451
 -86.0451
 -86.0451
 -86.0451
 -86.0451
 -72.213
 -72.6344
 -55.819
 -35.5496
 -86.0451
 -86.0451
 -86.0451
 -86.0451
 -86.0451
 -86.0451
 -86.0451
 -86.0451
 -86.0451
 -86.0451
 -86.0451
 -86.0451
 -86.0451
 -86.0451
 -86.0451
 -86.0451
 -86.0451
 -86.0451
 -86.0451
 -86.0451
 -86.0451
 -86.0451
 -86.0451
 -86.0451
 -86.0294
 -86.0202
 -86.0439
 -76.8585
 -83.8569
 -85.4635
 -86.6442
 -86.0451
 -86.0451
 -86.0451
 -86.0451
 24.7665
 24.8825
 23.3811
 26.9879
 -86.0451
 -86.0451
 -86.0451
 -86.0451
 -86.0451
 -86.0451
 -86.0451
 -86.0451
 -86.0451
 -86.0451
 -86.0451
 -86.0451
 -86.0451
 -86.0451
 -86.0451
 -86.0451
 -86.0451
 -86.0451
 -86.0451
 -86.0451
 -86.0451
 -86.0451
 -86.0451
 -86.0451
 -86.0534
 -86.0332
 -86.0339
 -86.0451
 -86.0451
 -86.0451
 -86.0451
 -86.0456
 -86.0829
 -86.0522
 -86.0451
 -86.0451
 -86.0451
 -86.0451
 -86.0451
 -86.0451
 -86.0451
 -86.0451
 -86.0451
 -86.0451
 -86.0451
 -86.0451
 -86.1215
 -85.8194
 -86.0263
 -86.0451
 -86.0768
 -86.0451
 -86.0451
 -86.0451
 -86.0451
 -86.0451
 -86.0451
 -86.0451
 -86.0451
 -86.0451
 -86.0451
 -86.0451
 -86.0451
 -86.0451
 -86.0451
 -86.0451
 -86.0451
 -86.0451
 -86.0451
 -86.0451
 -86.0451
 -86.0451
 -86.0451
 -86.0451
 -86.0451
 -86.0451
 -86.0451
 -86.0451
 -86.0451
 -86.0451
 -86.0451
 -86.0451
 -86.0451
 -86.0451
 -86.0451
 -86.0451
 -86.0451
 -86.0451
 -86.0451
 -86.0451
 -86.0451
 -86.0451
 -86.0451
 -86.0451
 -86.0451
 -86.0451
 -86.0451
 -86.0451
 -86.0451
 -86.0451
 -86.0451
 -86.0451
 -86.0451
 -86.0451
 -86.0451
 -86.0451
 -86.0451
 -86.0451
 -86.0451
 -86.0451
 -86.0451
 -86.0451
 -86.0451
 -86.0451
 -86.0451
 -86.0451
 -86.0451
 -86.0451
 -86.0451
 -86.0451
 -86.0451
 -86.0451
 -86.0451
 -86.0451
 -86.0451
 -86.0451
 -86.0451
 -86.0451
 -86.0451
 -86.0451
 -86.0451
 -86.0451
 -86.0451
 -86.0451
 -86.0451
 -86.0451
 -86.0451
 -85.6049
 -88.7655
 -85.8674
 -89.3561
 -86.0451
 -86.0451
 -86.0451
 -86.0451
 -86.0451
 -86.0451
 -86.0451
 -86.0451
 -86.0451
 -86.0451
 -86.0451
 -86.0451
 -86.0451
 -86.0451
 -86.0451
 -86.0451
 22.7764
 22.7613
 22.6728
 22.8232
 -86.0451
 -86.0451
 -86.0451
 -86.0451
 -86.0451
 -86.0451
 -86.0451
 -86.0451
 -86.0451
 -86.0451
 -86.0451
 -86.0451
 -86.0451
 -86.0451
 -86.0451
 -86.0451
 -86.0451
 23.6275
 25.9244
 24.9992
 24.4936
 -86.0451
 -86.0451
 -86.0451
 -86.0451
 -86.0451
 -86.0451
 -86.0451
 -86.0451
 -86.0451
 -86.0451
 -86.0451
 -86.0451
 -86.0451
 -86.0451
 -86.0451
 -86.0451
 -86.0451
 -86.0451
 -86.0451
 -86.0451
 -86.0451
 -86.0451
 -86.0451
 -86.0451
 -86.0451
 -86.0451
 -86.0451
 -86.0451
 -86.0451
 -86.0451
 -86.0451
 -86.0451
 -86.0451
 -86.0451
 -86.0451
 -86.0451
 -86.0451
 -86.0451
 -86.0451
 -86.0451
 -86.0451
 -86.0451
 -86.0451
 -86.0451
 -86.0451
 -86.0451
 -86.0451
 -86.0451
 -86.0451
 -86.0451
 -86.0451
 -86.0451
 -86.0451
 -86.0451
 -86.0451
 -86.0451
 -86.0451
 -86.0451
 -86.0451
 -86.0451
 -86.0451
 -86.0451
 -86.0451
 -86.0451
 -86.0451
 -86.0451
 -86.0364
 -86.0133
 -86.0456
 -86.0451
 -86.0451
 -86.0451
 -86.0451
 -86.0451
 -86.0451
 -86.0451
 -86.0451
 -86.0451
 -86.0451
 -86.0451
 -86.0451
 -86.0451
 -86.0451
 -86.0451
 -86.0451
 -86.0451
 -86.0451
 -86.0451
 -86.0451
 -86.0451
 -86.0451
 -86.0451
 -86.0451
 -86.0403
 -86.0474
 -86.0455
 -86.0449
 -85.8985
 -85.7177
 -85.5427
 -85.5285
 -86.0451
 -86.0451
 -86.0451
 -86.0451
 -86.0451
 -86.0451
 -86.0451
 -86.0451
 -86.0451
 -86.0451
 -86.0451
 -86.0451
 -86.0451
 -86.0451
 -86.0451
 -86.0451
 -86.0451
 -86.0451
 -86.0451
 -86.0451
 -86.0451
 -86.0451
 -86.045
 -86.0452
 -86.0451
 -86.0452
 -86.0451
 -86.0451
 -86.0451
 -86.0451
 -86.0451
 -86.0451
 -86.0451
 -86.0458
 -86.0453
 -86.0435
 -86.0413
 -86.0451
 -86.0451
 -86.0451
 -86.0451
 -86.035
 -86.0421
 -86.053
 -86.0396
 -86.0451
 -86.0451
 -86.0451
 -86.0451
 -86.0451
 -86.0451
 -86.0451
 -86.0451
 -86.0451
 -86.0451
 -86.0451
 -86.0451
 -86.0451
 -86.0451
 -86.0451
 -86.0451
 -86.0451
 -86.0451
 -86.0451
 -86.0451
 -86.0451
 -86.0451
 -86.0451
 -86.0451
 -86.0451
 -86.0451
 -86.0451
 -86.0451
 -86.0451
 -86.0451
 -86.0463
 -86.0452
 -86.045
 -86.0451
 -86.0451
 -86.0451
 -86.0451
 -86.0451
 -86.0451
 -86.0452
 -86.0451
 -86.0451
 -86.0442
 -86.0451
 -86.0451
 -86.0451
 -86.0451
 -86.0451
 -86.0451
 -86.0451
 -86.0451
 -86.0451
 -86.0451
 -86.0451
 -86.0451
 -86.0467
 -86.0416
 -86.0512
 -86.0446
 -86.0429
 -86.0694
 -86.0736
 -86.0405
 -87.6214
 -84.9296
 -87.9904
 -86.0449
 -86.045
 -86.0451
 -86.0451
 -86.0451
 -86.0451
 -86.0451
 -86.0451
 -86.0451
 -86.0451
 -86.0451
 -86.0451
 -86.0451
 -86.0451
 -86.0451
 -86.0451
 -86.0451
 -86.0451
 -86.0451
 -86.0451
 -86.0451
 -86.0451
 -86.0451
 -86.0451
 -86.0451
 -86.0451
 -86.0451
 22.7302
 23.1466
 23.4639
 -86.0451
 -86.0451
 -86.0451
 -86.0451
 -86.0452
 -86.0451
 -86.0451
 -86.0451
 -86.0451
 -86.0451
 -86.0451
 -86.0451
 -86.0451
 -86.0451
 -86.0451
 -86.0451
 -86.0451
 -86.03
 -86.0459
 -86.0451
 -86.0451
 -86.0451
 -86.0451
 -86.0451
 -86.0451
 -86.0451
 -85.6251
 -86.5275
 -85.7008
 -85.6148
 -86.0451
 -86.0451
 -86.0451
 -86.0451
 -86.0451
 -86.0451
 -86.0451
 -86.0451
 -86.0451
 -86.0451
 -86.0451
 -86.0451
 -86.0451
 -86.0451
 -86.0451
 -86.0451
 -86.0451
 -86.0451
 -86.0451
 -86.0451
 -86.0451
 -86.0879
 -85.9677
 -86.0451
 -86.0451
 -86.0451
 -86.0451
 -86.0451
 -86.0451
 -86.0451
 -86.0451
 -86.0415
 -86.0601
 -86.0221
 -86.0258
 -86.0451
 -86.0451
 -86.0451
 -86.0451
 -86.0451
 -86.0451
 -86.0451
 -86.0451
 -86.0451
 -86.0451
 -86.0451
 -86.0451
 -86.0451
 -86.0451
 -86.0451
 -86.0451
 -86.0451
 -86.0451
 -86.0451
 -86.0451
 -86.0451
 -86.0451
 -86.0451
 -86.0451
 -86.0451
 -86.0451
 -86.0451
 -86.0451
 -86.0451
 -86.0451
 -86.0451
 -86.0451
 -86.0451
 -86.0451
 -86.0451
 -86.0451
 -86.0451
 -86.0451
 -86.0451
 -86.0451
 -86.0451
 -86.0451
 -86.0451
 -86.0451
 -86.0451
 -86.0451
 -86.0459
 -86.0467
 -86.0437
 -86.0451
 -86.0451
 -86.0451
 -86.0451
 -86.0451
 -86.0451
 -86.0451
 -86.0451
 -86.0451
 -86.0451
 -86.0451
 -86.0451
 -86.0451
 -86.0451
 -86.0451
 -86.0451
 -86.0451
 14.2416
 -86.0451
 -86.0451
 -86.0451
 -86.0451
 -86.0451
 -86.0451
 -86.0451
 -86.0451
 -86.0451
 -86.0451
 -86.0451
 -86.0451
 -86.0451
 -86.0451
 -86.0451
 -86.0451
 -86.0451
 -86.0451
 -86.0451
 -86.0451
 -86.0451
 -86.0451
 -86.0451
 -86.0451
 -86.0451
 -86.0451
 -86.0451
 -86.0451
 -86.0451
 -86.0451
 -86.0451
 -86.0451
 -86.0451
 -86.0451
 -86.0451
 -86.0451
 -86.0451
 -86.0451
 -86.0451
 23.5317
 -86.0077
 -87.6867
 -86.0451
 -86.0451
 -86.0451
 -86.0451
 -86.0451
 -85.9274
 -87.2615
 -85.8337
 -85.9208
 -86.0451
 -86.0451
 -86.0451
 -86.0451
 -86.0451
 -86.0451
 -86.0451
 -86.0451
 -86.0451
 -86.0451
 -86.0451
 -86.0451
 -86.0451
 -86.0451
 -86.0451
 -86.0451
 -86.0451
 -86.0451
 -86.0451
 -86.0451
 24.3541
 26.7358
 23.6565
 25.9584
 -85.7548
 -86.0975
 -86.0482
 -85.7701
 -86.0399
 -85.9758
 -86.045
 -86.0445
 -86.0451
 -86.0451
 -86.0451
 -86.0451
 -86.0451
 -86.0451
 -86.0451
 -86.0451
 -86.0451
 -86.0451
 -86.0451
 -85.9228
 -87.4015
 -85.9136
 -85.8155
 -86.0451
 -86.0451
 -86.0451
 -86.0451
 -86.0451
 -86.0451
 -86.0451
 -86.0451
 -86.0451
 -86.0451
 -86.0451
 -86.0463
 -86.0458
 -86.0452
 -85.9943
 -86.0451
 -86.0451
 -86.0451
 -86.0451
 -86.0451
 -86.0451
 -86.0451
 -86.0451
 -86.0451
 -86.0451
 -86.0451
 -86.0451
 -86.0451
 -86.0451
 -86.0451
 -86.0451
 -86.0451
 -86.0451
 -86.0451
 -86.0451
 -86.0451
 -86.0451
 -86.0451
 -86.0446
 -86.0441
 -86.0448
 -86.0505
 -86.0432
 -86.0443
 -86.0451
 -86.0451
 -86.0451
 -86.0451
 -86.0451
 -86.0451
 -86.0451
 -86.0451
 -86.0451
 -86.0451
 -86.0451
 -86.0451
 -86.0452
 -86.0451
 -86.0453
 -86.0451
 -86.0451
 -86.0451
 -86.0451
 -88.6696
 -85.9078
 -86.0451
 -86.0451
 -86.0451
 -86.0451
 -86.0451
 -86.0451
 -86.0451
 -86.0451
 -86.0451
 -86.0451
 -86.0451
 -86.0451
 -86.0451
 -86.0451
 -86.0451
 -86.0451
 -86.0451
 -86.0451
 -86.0451
 -86.0451
 -86.0451
 -86.0451
 -86.0451
 -86.0451
 -86.0451
 -86.0451
 -86.0451
 -86.0451
 -86.0451
 -86.0451
 -86.0451
 -86.0451
 -86.0451
 -86.0451
 -86.0451
 -86.0451
 -86.0451
 -86.0451
 -86.0451
 -86.0451
 -86.0451
 -86.0451
 -86.0451
 -86.0451
 -86.0451
 -86.0451
 -86.0451
 -86.0451
 -86.0451
 -86.0451
 -86.0451
 -86.0429
 -86.0448
 -86.045
 -86.0449
 -86.0451
 -86.0451
 -86.0451
 -86.0451
 -86.0451
 -86.0451
 -86.0451
 -86.0451
 -86.0451
 -86.0451
