 -9.85666
 -10.406
 -10.3031
 -10.6303
 -22.7808
 -22.9831
 -23.3635
 -23.5987
 -18.9701
 -18.4585
 -19.0732
 -18.5523
 -19.6102
 -19.0487
 -18.976
 -18.6785
 -30.0782
 -30.533
 -29.7018
 -29.4714
 -28.9916
 -28.4641
 -29.4011
 -28.6561
 -7.93415
 -7.61502
 -7.71647
 -7.91536
 -8.19586
 -8.31084
 -8.31469
 -8.11406
 -28.9319
 -28.6884
 -28.0418
 -28.6172
 -28.6904
 -28.7857
 -28.5814
 -29.4989
 -6.76511
 -6.57926
 -6.86765
 -6.9233
 -18.7198
 -18.8117
 -18.2885
 -18.6165
 -11.7516
 -11.7159
 -11.3837
 -12.0668
 -23.9545
 -23.0344
 -22.6897
 -23.3304
 -16.498
 -16.3136
 -16.642
 -17.0254
 -9.03166
 -8.76066
 -9.23177
 -8.78555
 -27.1362
 -27.5177
 -27.0433
 -27.6866
 -20.2493
 -19.8762
 -20.4021
 -20.0119
 -16.835
 -17.0274
 -17.106
 -17.4507
 -26.0064
 -26.0424
 -26.3544
 -26.7426
 -8.19079
 -7.77425
 -8.21288
 -7.919
 -31.4088
 -31.5936
 -32.085
 -32.0014
 -3.4464
 -3.27462
 -3.23296
 -3.49479
 -22.2625
 -22.4282
 -21.7533
 -21.71
 -15.9152
 -15.5524
 -15.9148
 -16.1532
 -17.6352
 -17.7979
 -17.5101
 -17.351
 -13.8051
 -14.3374
 -14.585
 -13.8431
 -8.86155
 -8.57835
 -8.90192
 -8.85166
 -11.5402
 -11.4283
 -11.0683
 -11.3059
 -23.2392
 -23.1979
 -22.8063
 -22.4231
 -16.1513
 -16.9044
 -15.9683
 -16.2674
 -11.8003
 -12.1403
 -12.1336
 -11.8059
 -21.0755
 -20.454
 -21.2373
 -20.5942
 -22.8295
 -22.5463
 -22.4982
 -22.6252
 -11.872
 -11.4944
 -11.9471
 -11.2655
 -9.51777
 -9.46423
 -9.43594
 -9.46508
 -20.6364
 -19.7737
 -20.5608
 -20.2918
 -6.97168
 -7.14189
 -7.18147
 -7.27904
 -21.4765
 -21.4953
 -22.5166
 -22.2197
 -32.5474
 -32.0819
 -32.3432
 -31.9393
 -18.3105
 -18.2026
 -18.4616
 -17.6853
 -22.6697
 -23.2029
 -22.9416
 -22.8047
 -7.51384
 -7.48788
 -7.74304
 -7.28396
 -20.3599
 -19.9582
 -20.1303
 -20.7314
 -28.6685
 -28.514
 -29.1225
 -28.8431
 -10.7242
 -11.0455
 -10.9046
 -10.763
 -20.6117
 -21.4311
 -21.2209
 -21.2405
 -9.33788
 -9.65012
 -9.34514
 -8.9934
 -12.1819
 -11.8971
 -11.7608
 -11.6079
 -16.8937
 -16.4702
 -16.3699
 -16.0224
 -8.7896
 -8.6775
 -8.56539
 -8.77413
 -17.3589
 -16.9001
 -16.9192
 -17.2749
 -12.7891
 -12.2704
 -12.7801
 -12.0747
 -18.4672
 -18.7751
 -18.3543
 -18.7755
 -11.3443
 -11.6925
 -11.4777
 -11.9833
 -18.5149
 -18.4137
 -18.9153
 -18.109
 -21.6972
 -21.8102
 -22.1411
 -22.454
 -22.5855
 -22.2981
 -22.6352
 -21.7261
 -10.9168
 -10.9051
 -10.3935
 -11.1235
 -13.6017
 -13.3584
 -13.4451
 -13.9964
 -4.002
 -3.81135
 -3.66632
 -3.86841
 -11.4696
 -11.3969
 -11.0161
 -11.3899
 -16.1782
 -16.8413
 -16.5499
 -16.7074
 -12.9577
 -12.9014
 -13.5567
 -12.5809
 -12.7136
 -13.2191
 -12.6355
 -13.1232
 -8.61658
 -8.40972
 -8.67999
 -8.69901
 -26.6242
 -27.3483
 -27.5199
 -26.5394
 -30.114
 -30.386
 -30.5622
 -30.6899
 -17.3896
 -18.0236
 -16.9074
 -17.2564
 -11.6282
 -11.5161
 -11.8444
 -11.3469
 -21.4118
 -21.743
 -22.0483
 -21.3759
 -8.29258
 -7.63765
 -7.87828
 -7.87726
 -8.12846
 -7.85821
 -7.75101
 -8.20418
 -3.54907
 -3.3695
 -3.63305
 -3.57424
 -18.6384
 -19.2092
 -18.9035
 -19.4571
 -10.6999
 -11.149
 -11.251
 -10.7417
 -9.81894
 -9.52317
 -9.90566
 -10.0998
 -30.9594
 -31.4625
 -31.2283
 -31.5408
 -9.24372
 -9.1282
 -8.84839
 -9.21195
 -9.89543
 -9.70395
 -9.45672
 -9.86053
 -10.5347
 -10.8449
 -10.5158
 -10.1984
 -14.51
 -14.3772
 -14.8208
 -14.7236
 -10.0742
 -10.5002
 -10.2058
 -10.3294
 -12.0937
 -12.3679
 -12.4909
 -12.2209
 -13.5765
 -13.4548
 -13.2847
 -13.0986
 -9.2311
 -8.82337
 -9.36122
 -8.93068
 -2.83258
 -2.76049
 -3.11903
 -3.13133
 -8.49691
 -8.63687
 -8.84668
 -8.65739
 -18.9078
 -18.6176
 -19.1871
 -18.2505
 -19.0704
 -18.911
 -19.4137
 -18.9652
 -22.2227
 -22.0691
 -21.7899
 -22.6535
 -7.96612
 -7.93403
 -8.02025
 -8.15333
 -31.6646
 -31.6841
 -31.3425
 -32.0975
 -22.0599
 -22.6093
 -22.0497
 -22.14
 -7.14556
 -7.13899
 -6.83441
 -6.83391
 -12.3364
 -12.338
 -12.1343
 -12.9336
 -9.70374
 -9.96054
 -9.39964
 -9.60865
 -9.8333
 -9.63334
 -9.63094
 -8.06233
 -8.02445
 -7.99492
 -7.8817
 -20.2312
 -19.8626
 -19.5182
 -20.4702
 -13.8724
 -14.5385
 -14.2624
 -13.908
 -19.486
 -20.0709
 -19.6873
 -11.5846
 -11.0421
 -11.373
 -11.1929
 -15.2499
 -15.5619
 -15.4324
 -14.916
 -25.413
 -24.7446
 -24.7565
 -25.8541
 -8.4212
 -8.49671
 -8.97775
 -8.79288
 -9.42415
 -9.16372
 -9.00726
 -9.20446
 -18.8108
 -18.197
 -18.0304
 -18.2432
 -21.5532
 -21.1824
 -22.2329
 -22.1122
 -7.60398
 -7.61381
 -7.47045
 -7.2326
 -9.19718
 -9.28545
 -9.84592
 -9.68273
 -13.271
 -13.8122
 -14.1219
 -13.361
 -29.2634
 -29.7332
 -29.4234
 -29.5246
 -18.7116
 -19.3464
 -19.5149
 -19.2485
 -15.4957
 -14.7112
 -15.4385
 -15.466
 -4.17378
 -3.84847
 -4.1989
 -4.17282
 -14.4132
 -13.966
 -14.5539
 -14.8912
 -25.2775
 -24.6775
 -25.3064
 -24.3623
 -10.3772
 -9.80521
 -10.6548
 -10.4407
 -9.47983
 -9.55926
 -9.17408
 -9.38888
 -9.18692
 -8.83108
 -8.94329
 -9.04082
 -6.36272
 -6.3356
 -6.33893
 -6.46448
 -9.9942
 -9.44649
 -9.48274
 -9.47495
 -19.1166
 -18.9998
 -19.0848
 -18.6754
 -7.74847
 -7.84638
 -7.95456
 -8.08232
 -28.4308
 -27.9066
 -28.177
 -28.4116
 -8.14172
 -7.71258
 -7.77399
 -8.09459
 -25.1879
 -24.225
 -25.1868
 -24.5953
 -14.0874
 -13.6584
 -13.677
 -13.9985
 -12.4387
 -12.8227
 -13.0023
 -12.5496
 -10.9978
 -11.0229
 -11.545
 -11.1303
 -10.2475
 -10.239
 -9.95437
 -9.82506
 -31.3082
 -31.668
 -31.8135
 -31.7691
 -10.5854
 -10.3841
 -10.5745
 -10.424
 -32.4129
 -32.0424
 -32.3051
 -31.7786
 -21.6605
 -21.5538
 -22.3068
 -21.7531
 -5.12963
 -5.48317
 -5.40683
 -5.10807
 -29.5254
 -29.35
 -29.8993
 -30.1346
 -9.0744
 -9.50035
 -9.15318
 -8.84011
 -4.99601
 -4.82418
 -4.74035
 -4.9627
 -24.0363
 -23.8782
 -23.5744
 -23.9219
 -30.3137
 -30.8939
 -30.5013
 -30.3278
 -16.7652
 -16.9502
 -16.629
 -16.5381
 -23.0386
 -22.3314
 -23.2516
 -22.5572
 -9.74044
 -9.29892
 -9.52457
 -9.47219
 -17.9878
 -17.78
 -18.0118
 -18.5645
 -12.2329
 -11.9932
 -12.3556
 -12.3924
 -8.28976
 -8.44499
 -8.22696
 -8.2198
 -6.97916
 -6.91256
 -6.90713
 -7.17753
 -14.0032
 -13.8031
 -14.291
 -13.646
 -15.5377
 -15.5926
 -15.3804
 -15.0576
 -9.64013
 -9.5671
 -9.82822
 -9.97524
 -9.50377
 -9.03636
 -9.50319
 -9.41133
 -19.7456
 -19.7972
 -19.2936
 -19.3897
 -29.1051
 -28.9741
 -29.6011
 -29.6962
 -28.1601
 -27.6563
 -28.2382
 -28.3235
 -27.8469
 -27.0405
 -27.1951
 -27.5878
 -20.4792
 -20.1358
 -20.6352
 -20.0319
 -9.46483
 -8.98617
 -9.35498
 -9.21132
 -9.64273
 -9.89994
 -10.0038
 -10.0828
 -15.2006
 -15.0493
 -14.3324
 -14.3267
 -21.871
 -21.4935
 -22.5586
 -22.1658
 -21.5997
 -21.2084
 -21.3888
 -21.8513
 -17.0309
 -16.5405
 -16.8734
 -16.9664
 -18.6143
 -19.0993
 -18.4132
 -18.569
 -7.26074
 -7.21369
 -7.38263
 -7.68781
 -1.73048
 -1.57235
 -1.75375
 -1.43483
 -10.5316
 -10.4832
 -10.0304
 -10.2885
 -2.6274
 -2.95393
 -2.86697
 -10.4287
 -10.3459
 -10.5716
 -10.0901
 -25.9778
 -25.5587
 -25.8152
 -25.385
 -16.4592
 -16.7753
 -16.8753
 -17.2899
 -28.9633
 -28.7045
 -29.4776
 -28.6734
 -9.41348
 -9.47922
 -9.08674
 -9.44256
 -20.8548
 -20.6277
 -21.5043
 -21.2973
 -17.1624
 -17.1958
 -16.5395
 -16.7722
 -30.6327
 -30.92
 -31.161
 -30.3694
 -24.5645
 -24.4627
 -24.7288
 -25.3886
 -10.5465
 -10.9717
 -10.6833
 -10.5285
 -20.7495
 -20.662
 -20.1061
 -20.7202
 -25.5444
 -24.4774
 -25.1345
 -24.5992
 -5.01205
 -4.62852
 -4.78788
 -4.65197
 -16.2115
 -16.463
 -16.7337
 -16.8044
 -25.2159
 -25.4082
 -25.7862
 -25.3073
 -19.3558
 -19.8911
 -18.9287
 -20.1707
 -24.5413
 -23.8646
 -24.6602
 -24.5534
 -9.73567
 -10.0829
 -10.2915
 -10.3093
 -24.4677
 -25.8059
 -24.4657
 -25.5617
 -13.661
 -13.9405
 -13.1101
 -13.5907
 -14.742
 -15.0037
 -15.3417
 -14.6433
 -24.3301
 -24.2662
 -23.6994
 -24.6487
 -32.5568
 -32.1822
 -32.1877
 -32.4704
 -7.26896
 -7.467
 -7.6337
 -7.73719
 -11.8534
 -12.2196
 -12.4653
 -11.9587
 -18.0284
 -17.7038
 -17.4006
 -17.5667
 -24.5515
 -24.9632
 -24.9008
 -24.951
 -10.7775
 -10.4903
 -10.606
 -10.625
 -7.85992
 -8.28062
 -8.46882
 -7.94999
 -21.3293
 -21.361
 -20.615
 -20.6329
 -19.3151
 -19.8508
 -19.3172
 -19.5318
 -29.8326
 -30.2263
 -30.6449
 -29.8198
 -8.75193
 -9.20759
 -8.6521
 -8.9994
 -30.4426
 -30.86
 -30.7532
 -30.4988
 -11.6825
 -12.2148
 -11.9314
 -11.7646
 -1.93671
 -1.89237
 -2.00147
 -2.07646
 -27.3198
 -27.8579
 -27.9971
 -27.8064
 -20.3515
 -20.7248
 -20.0565
 -19.3918
 -27.9674
 -27.9802
 -27.5861
 -27.4502
 -15.1888
 -14.6278
 -15.0824
 -15.2952
 -14.1319
 -14.4536
 -14.5643
 -14.2215
 -23.3469
 -22.5717
 -22.7447
 -22.8682
 -9.4165
 -9.59544
 -9.24117
 -9.49673
 -8.81819
 -9.04625
 -9.06096
 -8.92505
 -3.73447
 -3.5744
 -3.58282
 -3.51541
 -17.1998
 -17.6297
 -17.8393
 -18.1385
 -15.6403
 -15.3495
 -16.1983
 -15.6409
 -19.4024
 -18.5018
 -19.0124
 -19.5631
 -11.9999
 -12.6217
 -12.6745
 -11.8848
 -29.1592
 -29.0426
 -29.5045
 -28.6062
 -30.2255
 -31.1573
 -30.2829
 -30.0714
 -19.8228
 -20.1247
 -20.6925
 -20.7065
 -0.230337
 -0.196677
 -0.273227
 -0.395256
 -13.4976
 -13.21
 -13.6039
 -12.9809
 -13.8302
 -13.6835
 -13.1792
 -13.6866
 -13.5141
 -13.5966
 -13.0452
 -13.056
 -23.806
 -23.5193
 -24.3355
 -23.3833
 -4.52593
 -4.84942
 -4.32434
 -4.51209
 -3.32657
 -3.33103
 -3.07373
 -3.00423
 -23.8151
 -23.3083
 -23.8681
 -23.1558
 -11.2382
 -11.774
 -11.0402
 -11.7247
 -12.8859
 -12.8285
 -13.0107
 -13.0312
 -19.8208
 -19.4611
 -19.3295
 -18.6933
 -9.03416
 -9.23794
 -9.39151
 -9.18494
 -24.7542
 -24.0081
 -24.1683
 -24.6486
 -12.1086
 -11.3328
 -11.726
 -11.1532
 -11.4068
 -11.3061
 -10.955
 -11.3115
 -7.89058
 -7.67699
 -8.06709
 -7.61159
 -13.2602
 -13.9171
 -13.4688
 -13.954
 -26.079
 -26.47
 -26.4473
 -25.921
 -20.7258
 -21.4761
 -21.7013
 -21.0068
 -9.03183
 -8.96554
 -9.32403
 -9.32474
 -10.7181
 -11.2418
 -11.2491
 -10.7306
 -28.2726
 -28.4897
 -28.8743
 -28.7481
 -24.4678
 -24.0029
 -24.3139
 -24.0369
 -13.9129
 -13.7226
 -13.4069
 -13.7222
 -7.85586
 -7.9299
 -7.90257
 -8.04254
 -5.74594
 -6.28297
 -6.18491
 -5.83898
 -19.9128
 -19.3598
 -19.0587
 -19.6869
 -8.1968
 -7.84748
 -8.16897
 -7.44612
 -26.662
 -25.907
 -25.8719
 -26.5848
 -18.1829
 -18.9925
 -18.509
 -17.9898
 -25.9682
 -25.8135
 -25.5707
 -25.6848
 -21.3302
 -20.6297
 -20.6293
 -21.0441
 -13.7885
 -13.5283
 -13.7836
 -14.13
 -9.73614
 -9.1014
 -9.25574
 -9.51196
 -6.31222
 -6.83983
 -6.36817
 -6.42245
 -7.54935
 -7.07875
 -7.5889
 -7.43589
 -9.55195
 -9.09882
 -9.01266
 -9.19643
 -14.7766
 -14.952
 -14.8612
 -14.0887
 -14.8342
 -14.9178
 -15.0644
 -14.4775
 -15.4674
 -14.9773
 -15.9027
 -15.3726
 -20.0985
 -19.7013
 -20.2811
 -20.177
 -4.69671
 -4.3809
 -4.46492
 -4.4372
 -16.9556
 -17.0713
 -16.8203
 -17.3695
 -8.94802
 -8.53383
 -8.70119
 -8.81392
 -12.7508
 -13.3805
 -12.9384
 -13.2921
 -29.9332
 -28.9899
 -29.8544
 -29.6764
 -14.4867
 -14.2183
 -14.2084
 -13.9941
 -8.21539
 -8.02991
 -8.13932
 -7.73485
 -12.6739
 -12.6116
 -12.9596
 -13.2263
 -9.86653
 -10.1044
 -10.0684
 -9.75078
 -13.9735
 -13.3845
 -14.0574
 -13.6119
 -4.79941
 -4.54943
 -4.66947
 -4.89117
 -12.9221
 -12.9535
 -13.4
 -13.4318
 -20.3491
 -20.169
 -20.6038
 -20.2399
 -18.6071
 -18.6674
 -18.9367
 -18.6905
 -28.2592
 -27.0857
 -28.078
 -27.5483
 -10.6999
 -10.6197
 -11.0022
 -10.7292
 -9.72329
 -9.99849
 -9.71004
 -10.4092
 -27.5118
 -26.7533
 -27.6172
 -27.491
 -9.9989
 -9.99697
 -10.4461
 -10.0077
 -26.0296
 -25.7231
 -26.3744
 -25.7197
 -16.3904
 -17.1992
 -16.682
 -17.0085
 -14.8226
 -14.0771
 -14.7814
 -14.9551
 -9.61038
 -10.0079
 -9.93421
 -9.58627
 -14.1549
 -14.1112
 -14.6595
 -14.0963
 -26.4652
 -26.1354
 -26.5074
 -26.5626
 -1.80267
 -1.86996
 -1.92694
 -1.62496
 -7.73549
 -7.67237
 -7.67265
 -7.7663
 -7.85421
 -7.89315
 -7.8438
 -7.60145
 -11.2625
 -11.4384
 -11.0478
 -11.6574
 -12.7863
 -12.4174
 -12.7181
 -12.4874
 -10.9083
 -10.7008
 -10.5795
 -10.9876
 -29.8646
 -29.536
 -30.5491
 -29.3834
 -9.40871
 -9.16725
 -9.2158
 -9.69397
 -19.3284
 -19.4636
 -19.7114
 -19.0962
 -14.8509
 -24.2181
 -23.4578
 -23.71
 -23.6643
 -18.2966
 -18.7387
 -19.1492
 -18.8711
 -7.05176
 -7.30031
 -7.392
 -7.20913
 -11.6844
 -11.4845
 -11.8109
 -12.1237
 -10.333
 -9.93651
 -10.2334
 -10.3392
 -25.518
 -24.893
 -24.9216
 -24.9839
 -13.3593
 -12.596
 -13.1298
 -12.8996
 -26.1681
 -26.349
 -25.5194
 -25.5446
 -21.0924
 -21.5047
 -20.8509
 -21.7079
 -7.20033
 -7.41884
 -7.27908
 -7.6749
 -9.45977
 -9.03696
 -9.74564
 -9.46933
 -20.4922
 -20.9125
 -20.9396
 -20.4483
 -14.2692
 -13.608
 -14.1857
 -8.1135
 -7.91795
 -8.02498
 -8.26574
 -19.7238
 -18.7656
 -19.3442
 -18.7995
 -10.3315
 -9.90122
 -9.91453
 -10.2279
 -14.3279
 -13.5591
 -13.9287
 -14.3675
 -27.7081
 -27.7055
 -26.8703
 -27.6071
 -11.1416
 -10.9628
 -10.7245
 -11.0882
 -24.3512
 -23.689
 -24.307
 -24.5162
 -15.2735
 -14.9555
 -15.3007
 -14.7133
 -22.5808
 -22.1918
 -21.6476
 -22.0298
 -27.134
 -27.1552
 -27.824
 -27.5069
 -11.3998
 -11.3431
 -11.6671
 -11.6437
 -1.84169
 -2.2405
 -2.16627
 -2.38471
 -30.2051
 -29.755
 -29.8856
 -29.6579
 -19.1347
 -18.9038
 -18.51
 -18.8235
 -8.71999
 -8.68864
 -9.36565
 -8.82998
 -12.6724
 -12.9899
 -13.1242
 -12.6223
 -5.33792
 -5.42644
 -5.43204
 -5.14933
 -26.528
 -26.7929
 -27.6194
 -26.8856
 -8.11416
 -7.92197
 -8.02009
 -8.05088
 -16.7572
 -17.2734
 -16.496
 -16.8935
 -9.18693
 -8.47157
 -9.01527
 -9.03693
 -31.2897
 -31.1683
 -31.2566
 -30.5141
 -31.0741
 -30.976
 -30.5765
 -30.2008
 -21.1531
 -20.5037
 -20.366
 -21.235
 -17.2476
 -17.4867
 -17.2915
 -16.8647
 -17.4689
 -8.31782
 -8.4007
 -7.94003
 -8.2457
 -8.99743
 -8.84791
 -8.73327
 -9.1384
 -19.83
 -20.4516
 -20.4851
 -20.4671
 -8.47945
 -8.75906
 -8.76919
 -8.46671
 -9.8771
 -9.78738
 -9.70716
 -10.103
 -20.8155
 -21.0406
 -20.8895
 -20.3315
 -11.7163
 -12.2483
 -11.713
 -12.2418
 -20.2213
 -20.2867
 -20.4296
 -20.8592
 -10.1094
 -10.0112
 -9.68495
 -10.1044
 -11.2666
 -11.6154
 -11.6465
 -11.7011
 -13.5758
 -14.0325
 -13.3584
 -13.9085
 -17.1625
 -17.8051
 -17.3881
 -18.0068
 -23.3341
 -23.0074
 -23.9304
 -23.913
 -16.3201
 -16.1568
 -15.8456
 -15.9059
 -16.3304
 -16.5593
 -16.7678
 -16.6026
 -7.14928
 -7.14061
 -7.30805
 -7.42044
 -19.3148
 -19.4849
 -19.6695
 -19.5598
 -15.0607
 -15.1983
 -15.3873
 -14.9921
 -15.7967
 -15.8072
 -15.4081
 -15.7483
 -12.0346
 -12.1871
 -11.6713
 -11.9713
 -8.03148
 -7.99908
 -8.1762
 -7.73006
 -22.2655
 -22.2732
 -22.7194
 -22.6557
 -8.16719
 -7.88351
 -7.98958
 -8.42629
 -30.3718
 -30.3182
 -30.966
 -30.6522
 -24.5916
 -24.1171
 -25.02
 -24.7464
 -25.147
 -25.1796
 -25.14
 -24.946
 -24.6659
 -24.5375
 -24.4146
 -25.0664
 -21.0438
 -21.3412
 -20.711
 -21.3835
 -5.56145
 -5.36601
 -5.02618
 -16.1826
 -15.4498
 -16.0935
 -15.9132
 -23.851
 -23.6541
 -23.4084
 -23.9198
 -11.7647
 -11.2693
 -11.5461
 -11.6711
 -10.1733
 -10.2463
 -10.0284
 -10.3217
 -21.5668
 -21.6557
 -22.2549
 -20.9952
 -13.4068
 -13.2697
 -13.5245
 -13.8683
 -10.5414
 -10.5664
 -10.4565
 -10.3555
 -29.5464
 -30.213
 -18.6721
 -18.5385
 -17.9866
 -17.9972
 -13.7634
 -13.6805
 -13.3499
 -16.9918
 -17.1356
 -16.9792
 -16.5301
 -6.23185
 -6.14875
 -6.51131
 -6.47426
 -24.3973
 -24.9476
 -24.8844
 -24.2524
 -16.8523
 -16.7032
 -16.3943
 -16.4424
 -11.7067
 -11.3049
 -11.4928
 -11.8793
 -15.7256
 -15.1452
 -15.3406
 -15.5641
 -8.39717
 -8.24189
 -8.48078
 -8.35145
 -7.43422
 -8.01115
 -7.59369
 -7.69428
 -13.2691
 -13.6792
 -13.7978
 -13.5193
 -8.33507
 -8.24241
 -8.32451
 -8.61779
 -13.9001
 -13.6399
 -13.7408
 -13.5417
 -25.2507
 -25.1462
 -24.4158
 -24.3067
 -8.68573
 -8.89352
 -9.02801
 -8.83028
 -3.79236
 -4.07646
 -3.82788
 -4.00518
 -17.9461
 -16.9229
 -17.5953
 -17.6879
 -12.7145
 -13.0523
 -12.6421
 -13.0622
 -8.30623
 -8.24547
 -8.5701
 -8.4942
 -13.9238
 -13.6079
 -14.122
 -14.1097
 -28.4536
 -28.221
 -28.6656
 -28.4993
 -9.79797
 -9.78449
 -9.6018
 -9.81339
 -18.3008
 -17.8008
 -17.793
 -17.7067
 -12.5754
 -13.0463
 -12.6812
 -13.3737
 -20.8556
 -21.2205
 -21.1178
 -21.6634
 -25.4477
 -25.269
 -25.6697
 -25.1119
 -8.70561
 -9.01293
 -8.81018
 -9.36093
 -10.982
 -11.2907
 -11.2105
 -11.1293
 -17.0656
 -17.0027
 -16.3268
 -16.7226
 -8.13234
 -8.25132
 -8.21179
 -8.31736
 -1.96837
 -1.76246
 -1.78081
 -1.915
 -15.5949
 -15.1103
 -15.1515
 -15.0178
 -1.41575
 -1.35771
 -1.43109
 -1.61959
 -1.90696
 -2.20323
 -2.16138
 -2.00834
 -6.44155
 -6.67286
 -6.60439
 -6.34076
 -19.2882
 -18.8516
 -18.4896
 -18.2254
 -19.0312
 -19.4211
 -19.5068
 -19.8771
 -19.8932
 -19.5085
 -19.8304
 -19.1858
 -18.0613
 -17.436
 -17.5785
 -18.2209
 -5.01763
 -4.78666
 -4.9633
 -4.9317
 -8.90452
 -8.74253
 -9.12594
 -8.96455
 -8.62047
 -8.26279
 -8.37042
 -8.31193
 -11.8294
 -12.3278
 -11.8593
 -12.3709
 -16.2247
 -15.9018
 -16.2627
 -15.9814
 -21.0044
 -20.7925
 -20.5371
 -20.9949
 -9.43692
 -9.88372
 -10.0311
 -9.58102
 -19.3412
 -14.1569
 -14.5705
 -14.5692
 -14.3015
 -30.9333
 -31.1602
 -31.7648
 -31.3715
 -13.1488
 -13.2557
 -13.5435
 -13.2195
 -26.7768
 -27.623
 -26.9914
 -8.70822
 -8.8775
 -9.03231
 -8.65049
 -2.67768
 -2.9417
 -2.81492
 -2.97339
 -14.3717
 -14.3529
 -15.0187
 -14.0646
 -11.9971
 -11.3708
 -11.49
 -11.4433
 -8.39081
 -8.60052
 -8.83633
 -8.96696
 -8.96784
 -9.08919
 -8.79796
 -9.13947
 -5.98148
 -5.59391
 -5.83351
 -5.8519
 -17.1314
 -16.9858
 -17.3428
 -18.182
 -14.3944
 -14.9714
 -14.25
 -14.6986
 -10.8526
 -10.4432
 -10.8382
 -10.6534
 -13.396
 -13.0702
 -13.9585
 -21.6197
 -21.3251
 -21.2202
 -9.63373
 -9.69651
 -9.18126
 -9.08933
 -6.33321
 -6.22793
 -6.23436
 -6.32759
 -10.2539
 -10.5415
 -10.4833
 -10.1679
 -6.48221
 -6.15954
 -6.56028
 -6.04484
 -22.9436
 -23.7899
 -23.1568
 -23.3948
 -21.0058
 -21.3007
 -21.4726
 -21.8799
 -8.16666
 -8.04721
 -8.10592
 -8.05893
 -5.54743
 -5.13263
 -5.42831
 -5.5397
 -15.7728
 -15.0635
 -15.6753
 -15.407
 -29.1056
 -28.3863
 -29.2133
 -28.5073
 -6.29503
 -6.27766
 -6.12092
 -6.29595
 -19.0362
 -18.4774
 -18.3754
 -19.1674
 -3.62544
 -3.43743
 -3.61629
 -3.48541
 -20.8549
 -21.1442
 -20.7561
 -21.6493
 -12.2074
 -11.8213
 -12.417
 -11.7275
 -22.951
 -23.0093
 -23.5382
 -23.5751
 -8.56537
 -8.6846
 -8.73038
 -9.04959
 -11.3441
 -10.9875
 -11.028
 -11.0129
 -9.64774
 -9.50751
 -9.93538
 -9.91141
 -10.2715
 -10.1455
 -10.6164
 -9.88762
 -15.6444
 -16.0094
 -15.9244
 -15.4292
 -13.0971
 -12.7178
 -13.1918
 -13.1622
 -23.7662
 -23.2444
 -22.731
 -22.7858
 -30.1445
 -30.578
 -29.6135
 -29.7018
 -12.4932
 -12.4393
 -12.1029
 -12.3924
 -25.0795
 -24.7925
 -24.6025
 -25.4861
 -20.2157
 -20.9852
 -21.4018
 -20.8382
 -4.87495
 -4.73591
 -4.43954
 -4.84934
 -7.91259
 -8.55072
 -8.4029
 -8.21842
 -12.0518
 -11.7557
 -11.6358
 -11.7758
 -6.12415
 -5.91503
 -5.85253
 -5.67267
 -16.097
 -16.6715
 -16.6054
 -16.3986
 -22.6582
 -23.8471
 -23.2056
 -23.2479
 -6.31334
 -6.79427
 -6.33718
 -6.30705
 -13.5107
 -13.9252
 -13.6356
 -13.7135
 -10.3965
 -10.3698
 -10.3819
 -10.1819
 -2.06406
 -2.27795
 -2.27954
 -2.06996
 -11.5103
 -11.4488
 -11.3859
 -11.8159
 -14.4826
 -14.8357
 -14.7751
 -14.8792
 -20.4795
 -21.1636
 -20.72
 -21.337
 -10.0557
 -10.1619
 -10.2807
 -14.4499
 -14.3456
 -14.1895
 -14.3833
 -11.0108
 -10.9756
 -11.5235
 -11.1572
 -19.0531
 -18.4953
 -18.9229
 -18.809
 -18.939
 -19.5723
 -19.5527
 -19.311
 -26.0081
 -25.4207
 -25.8025
 -25.1399
 -9.0987
 -9.18839
 -9.41568
 -9.08577
 -28.4787
 -28.7504
 -29.0336
 -28.6219
 -9.7056
 -10.0525
 -9.76292
 -9.57164
 -14.3188
 -14.9026
 -14.838
 -15.1891
 -15.1834
 -14.6249
 -14.7856
 -14.5145
 -1.66237
 -1.44209
 -1.64349
 -1.61032
 -10.7151
 -10.4482
 -10.7434
 -10.8024
 -13.9209
 -13.8612
 -14.2954
 -14.8643
 -13.5594
 -13.7227
 -13.7559
 -13.1852
 -30.3831
 -30.381
 -29.8126
 -30.4238
 -9.69198
 -10.0827
 -10.3093
 -9.80453
 -10.2953
 -10.0555
 -10.4687
 -9.95364
 -20.6158
 -21.1867
 -20.6619
 -21.0716
 -8.65347
 -8.58349
 -8.37284
 -8.33492
 -8.59978
 -8.51845
 -8.75221
 -8.50399
 -18.5114
 -17.7586
 -18.4482
 -18.0736
 -19.2379
 -19.1711
 -18.6836
 -19.1896
 -15.4679
 -15.4931
 -16.2367
 -15.9939
 -10.0383
 -9.84355
 -17.4257
 -16.9725
 -17.7475
 -17.1053
 -10.2322
 -10.4435
 -10.252
 -10.3252
 -12.559
 -13.05
 -13.2029
 -12.9987
 -26.9887
 -26.6306
 -26.3001
 -27.1839
 -12.7544
 -12.8972
 -13.1403
 -13.2272
 -21.8108
 -22.3116
 -22.6405
 -21.6223
 -9.39001
 -10.0675
 -9.82893
 -10.0362
 -11.8405
 -11.4587
 -11.3705
 -11.5938
 -13.8651
 -14.6571
 -14.2032
 -14.4089
 -9.06802
 -8.74665
 -8.61629
 -8.82808
 -3.95111
 -4.00459
 -3.88445
 -3.71635
 -29.2084
 -29.0886
 -28.938
 -29.1642
 -6.41844
 -6.3649
 -6.52951
 -6.30128
 -16.4257
 -16.6625
 -16.0983
 -16.1431
 -3.91416
 -3.92457
 -4.13049
 -3.84081
 -17.1144
 -17.6466
 -17.2258
 -17.1657
 -9.85579
 -9.80797
 -9.68815
 -9.69801
 -9.73553
 -9.82986
 -9.4665
 -9.68007
 -15.2792
 -15.4998
 -14.8555
 -15.2911
 -23.963
 -23.1909
 -23.743
 -23.0745
 -11.5934
 -12.2235
 -12.099
 -12.1495
 -8.10149
 -7.9976
 -8.11476
 -8.26044
 -23.5152
 -24.4441
 -23.9347
 -24.6143
 -9.71861
 -9.35347
 -9.8853
 -9.90686
 -11.7382
 -12.1788
 -12.0706
 -12.3304
 -20.3496
 -21.4828
 -21.2645
 -20.8177
 -14.9445
 -15.458
 -15.557
 -15.5633
 -13.1935
 -12.9232
 -13.2397
 -13.4551
 -26.7248
 -27.2712
 -27.5196
 -27.7206
 -24.6288
 -24.8353
 -24.8573
 -24.4993
 -16.3238
 -16.378
 -15.694
 -16.0196
 -13.2253
 -13.4988
 -13.0576
 -14.0378
 -10.8414
 -10.984
 -11.0247
 -11.5869
 -7.94418
 -7.90435
 -7.67195
 -21.4332
 -21.8897
 -21.6177
 -22.2513
 -3.66192
 -3.47555
 -3.2531
 -3.27919
 -19.1129
 -18.3515
 -18.7581
 -18.6614
 -9.23845
 -8.7844
 -9.01969
 -9.04965
 -8.51478
 -8.20902
 -8.29374
 -8.26148
 -24.7508
 -24.051
 -24.4099
 -25.3788
 -15.1532
 -14.8106
 -15.3443
 -14.9657
 -13.4006
 -13.2412
 -10.1924
 -12.5346
 -13.0165
 -12.4741
 -12.774
 -3.98447
 -4.19635
 -18.3264
 -18.5996
 -18.8784
 -7.14265
 -7.35975
 -6.89637
 -7.16375
 -18.5762
 -17.9291
 -18.1158
 -18.1286
 -11.6683
 -12.1141
 -11.9949
 -11.9699
 -10.0152
 -10.5971
 -10.2422
 -10.2807
 -26.8441
 -26.8797
 -27.8037
 -27.1445
 -7.28504
 -7.59985
 -7.25261
 -7.63097
 -17.882
 -17.9469
 -18.0319
 -18.4134
 -27.9702
 -28.1696
 -27.3696
 -27.4153
 -14.8106
 -14.2829
 -14.797
 -14.4163
 -17.9321
 -17.1393
 -17.4564
 -17.3972
 -13.8313
 -14.2852
 -13.9373
 -13.2215
 -31.3232
 -30.2555
 -31.049
 -30.1037
 -30.5302
 -30.4677
 -30.161
 -29.8044
 -29.8795
 -29.6542
 -29.6475
 -29.9304
 -12.5917
 -12.1765
 -12.6027
 -12.5637
 -16.3836
 -15.7579
 -15.9784
 -16.3117
 -13.0015
 -12.9329
 -12.5971
 -12.8607
 -12.296
 -12.1202
 -12.7318
 -12.1368
 -19.286
 -19.5199
 -19.6287
 -19.0124
 -23.6862
 -24.5601
 -24.294
 -24.5994
 -23.4148
 -23.6835
 -22.9542
 -23.8836
 -14.6675
 -14.9604
 -14.5773
 -14.8871
 -13.5056
 -13.4695
 -13.3529
 -13.13
 -9.69308
 -9.4633
 -9.6059
 -10.0061
 -20.8855
 -21.4641
 -21.4311
 -20.719
 -6.18697
 -6.2
 -5.92452
 -6.37659
 -22.3246
 -22.7827
 -22.2163
 -22.027
 -15.8213
 -16.6706
 -15.7942
 -16.4567
 -15.4132
 -15.7257
 -15.4979
 -15.2357
 -7.53412
 -7.48556
 -7.29002
 -7.03298
 -0.968428
 -1.13072
 -0.926585
 -0.948018
 -11.0133
 -11.4209
 -11.0177
 -11.115
 -22.3034
 -21.395
 -21.6516
 -22.2238
 -8.56809
 -8.26494
 -8.476
 -8.72652
 -16.2787
 -16.5472
 -15.9544
 -16.6397
 -17.1432
 -17.6059
 -18.161
 -17.9172
 -20.568
 -20.895
 -19.9976
 -20.3149
 -5.62706
 -5.40912
 -5.43265
 -5.63527
 -5.77628
 -5.79326
 -5.66066
 -5.61259
 -22.1032
 -23.097
 -22.6379
 -22.673
 -19.4496
 -18.5572
 -18.6454
 -19.1877
 -10.8502
 -10.9025
 -10.6804
 -10.7171
 -13.9892
 -13.799
 -14.2429
 -14.5276
 -15.7184
 -15.8707
 -15.7504
 -15.58
 -10.6303
 -10.3739
 -10.99
 -10.4623
 -18.0347
 -17.7243
 -17.717
 -17.3291
 -33.2589
 -32.7499
 -33.1506
 -33.2294
 -16.7662
 -17.3854
 -17.3494
 -17.7504
 -14.1221
 -14.3746
 -13.9878
 -14.6543
 -14.1775
 -14.1224
 -13.697
 -14.2038
 -15.7506
 -16.0707
 -15.7721
 -15.3127
 -28.8299
 -28.9269
 -28.3492
 -28.8385
 -23.807
 -23.2494
 -23.6692
 -17.8132
 -17.7545
 -18.186
 -17.7317
 -8.18681
 -8.15304
 -8.41107
 -8.10846
 -12.1797
 -12.2237
 -11.8613
 -12.3304
 -23.3743
 -22.5128
 -22.4837
 -22.518
 -9.70445
 -9.82502
 -9.9186
 -10.0793
 -11.563
 -11.2257
 -11.1962
 -11.6355
 -12.0683
 -11.8883
 -11.3614
 -11.7891
 -19.1023
 -18.7171
 -18.5849
 -18.5372
 -15.9382
 -15.4545
 -16.0238
 -15.0585
 -17.8495
 -16.801
 -17.1848
 -17.3221
 -8.77221
 -8.91374
 -8.97945
 -8.82176
 -11.9165
 -12.2334
 -12.3354
 -11.9239
 -18.5416
 -18.0833
 -18.6301
 -19.0508
 -11.2449
 -11.4395
 -11.6731
 -11.0648
 -16.7305
 -17.2114
 -17.2518
 -16.9017
 -8.57203
 -8.46067
 -8.65812
 -8.40977
 -27.9305
 -28.1675
 -27.4168
 -27.926
 -9.54079
 -9.25496
 -9.63157
 -9.79207
 -9.034
 -8.38776
 -8.78868
 -8.78998
 -20.1277
 -20.0907
 -20.5308
 -20.7173
 -9.65579
 -9.74954
 -9.8241
 -9.76346
 -17.24
 -17.0624
 -17.2784
 -16.7163
 -7.28193
 -7.35464
 -6.92638
 -7.00794
 -15.3782
 -15.1462
 -15.2762
 -15.7531
 -26.0341
 -27.0374
 -26.1284
 -26.7294
 -15.6701
 -14.9724
 -14.9469
 -15.3904
 -20.5678
 -20.8907
 -20.5426
 -20.5622
 -17.0667
 -16.8099
 -16.9494
 -17.3311
 -16.7194
 -16.9559
 -17.0544
 -17.5291
 -28.8389
 -28.7757
 -29.0611
 -28.0169
 -8.86956
 -8.66621
 -8.51146
 -8.45433
 -9.20874
 -9.05898
 -8.7628
 -9.04997
 -24.599
 -24.5385
 -24.1827
 -25.1055
 -26.5723
 -26.9494
 -26.4771
 -10.4601
 -10.3252
 -10.2991
 -10.5539
 -17.8154
 -18.4558
 -17.7664
 -17.7031
 -16.1679
 -16.3777
 -15.7847
 -16.4423
 -8.93202
 -9.23227
 -8.68462
 -8.94546
 -20.7355
 -21.2019
 -21.0215
 -21.0397
 -13.672
 -13.1186
 -13.2033
 -13.6887
 -15.4208
 -14.8738
 -14.9212
 -14.8031
 -21.3149
 -21.8498
 -21.8437
 -21.6846
 -7.83831
 -7.7142
 -7.86892
 -8.02273
 -10.5673
 -10.1106
 -10.2556
 -10.2011
 -29.6387
 -28.874
 -29.5644
 -29.2716
 -8.91084
 -8.86404
 -8.96772
 -9.45012
 -7.95166
 -7.821
 -7.87421
 -7.91107
 -13.9098
 -14.0727
 -13.8426
 -14.5091
 -4.00831
 -4.11658
 -3.90035
 -4.30097
 -14.9854
 -15.0866
 -14.8054
 -15.0549
 -22.0179
 -21.7993
 -21.5988
 -21.4551
 -24.0882
 -23.6091
 -23.8625
 -7.30026
 -7.33108
 -7.49631
 -7.35903
 -9.65032
 -10.0592
 -9.5522
 -9.94385
 -8.90465
 -8.78517
 -8.55469
 -8.52482
 -10.308
 -10.0188
 -10.2001
 -10.1423
 -30.2148
 -30.5645
 -30.8303
 -30.6566
 -7.79692
 -7.81009
 -7.69048
 -7.46559
 -9.76991
 -9.49423
 -9.73187
 -10.1778
 -23.8217
 -24.3623
 -23.8583
 -23.6295
 -11.5636
 -11.453
 -11.7568
 -10.1123
 -9.7764
 -10.1216
 -15.6709
 -15.3929
 -14.9202
 -4.55871
 -4.9249
 -4.97834
 -4.68307
 -15.192
 -15.5504
 -15.3699
 -15.7272
 -14.826
 -15.1456
 -14.4136
 -14.4899
 -24.6535
 -25.1108
 -24.4583
 -24.3756
 -26.8626
 -26.7117
 -27.8239
 -26.736
 -8.64331
 -8.30213
 -8.26986
 -8.90533
 -16.2157
 -16.7603
 -16.8545
 -16.5373
 -15.9713
 -16.4126
 -16.6299
 -16.4858
 -13.4778
 -14.1206
 -13.832
 -14.2377
 -11.1705
 -11.3416
 -11.4277
 -10.8513
 -16.1467
 -15.5462
 -16.0156
 -16.1446
 -8.81703
 -8.91378
 -8.76646
 -9.01847
 -26.239
 -25.9457
 -26.2639
 -26.3935
 -10.4151
 -10.3061
 -10.4745
 -10.7514
 -23.8921
 -23.3019
 -23.7457
 -23.4976
 -27.7536
 -27.4201
 -26.8166
 -27.5193
 -27.8086
 -27.6508
 -27.5038
 -27.3293
 -9.5305
 -9.27974
 -20.0324
 -19.8416
 -19.4946
 -19.8301
 -8.9451
 -9.44047
 -9.20947
 -9.04379
 -21.5148
 -22.5779
 -22.2723
 -22.4686
 -23.674
 -23.3105
 -24.0346
 -23.3248
 -10.6829
 -11.0084
 -11.0369
 -10.8393
 -16.0309
 -16.0007
 -16.4615
 -16.312
 -10.1864
 -10.2009
 -10.5165
 -10.22
 -12.5176
 -12.4756
 -12.5809
 -12.9722
 -2.37095
 -2.76401
 -2.27825
 -2.61972
 -25.5314
 -25.149
 -26.1347
 -25.4745
 -10.4397
 -10.1696
 -10.5702
 -10.8573
 -7.27312
 -7.03228
 -7.04193
 -7.37187
 -13.1221
 -12.8811
 -13.3666
 -13.4418
 -7.41558
 -6.97252
 -6.83603
 -7.4408
 -12.935
 -12.4706
 -12.2539
 -12.743
 -19.8728
 -19.6845
 -20.3349
 -19.4057
 -13.7548
 -13.4236
 -13.43
 -13.6187
 -24.8505
 -25.7999
 -24.9314
 -13.2119
 -13.6582
 -13.1823
 -13.6331
 -2.32806
 -2.18169
 -2.20732
 -2.10573
 -30.6761
 -30.7938
 -31.049
 -30.715
 -15.681
 -15.5431
 -15.8606
 -15.4315
 -21.9552
 -21.5373
 -20.9552
 -21.7067
 -8.49201
 -8.80813
 -8.02398
 -8.36152
 -11.0383
 -11.3934
 -10.7622
 -11.1861
 -11.1581
 -11.7811
 -11.3992
 -11.7424
 -27.2129
 -26.7219
 -27.3779
 -27.8184
 -11.6416
 -11.318
 -11.0559
 -11.2001
 -29.9585
 -29.7057
 -30.1395
 -29.377
 -19.1793
 -18.4852
 -18.5098
 -19.2406
 -8.89703
 -8.97881
 -9.11235
 -8.90611
 -3.8279
 -3.93179
 -4.17349
 -3.75682
 -12.6335
 -11.9924
 -12.3782
 -11.8566
 -14.0366
 -14.068
 -14.4785
 -13.981
 -20.1644
 -20.2617
 -19.8729
 -19.3966
 -2.60574
 -2.32548
 -2.70124
 -2.55265
 -12.7034
 -12.377
 -12.9549
 -12.7668
 -29.149
 -28.6022
 -28.5289
 -28.6377
 -23.1317
 -23.6258
 -23.3954
 -23.1503
 -22.761
 -22.8819
 -23.3851
 -22.6324
 -22.0654
 -21.5952
 -21.3807
 -21.6747
 -23.0954
 -24.0259
 -23.5603
 -23.451
 -17.2711
 -17.4591
 -17.2994
 -17.3164
 -9.40395
 -9.9795
 -10.3857
 -10.4378
 -10.2092
 -18.9039
 -18.3056
 -18.521
 -18.3587
 -18.8096
 -18.9596
 -18.1342
 -18.3033
 -6.31038
 -6.4448
 -6.40848
 -6.30784
 -25.2965
 -25.31
 -25.0324
 -25.3865
 -21.585
 -22.1264
 -22.8332
 -22.3761
 -8.89321
 -9.36912
 -9.30819
 -9.61387
 -9.62353
 -9.53197
 -9.98795
 -10.2403
 -10.1247
 -10.4267
 -9.29889
 -8.86454
 -8.33798
 -8.6509
 -18.6374
 -19.2652
 -19.0698
 -18.6141
 -29.9738
 -30.0413
 -29.8901
 -30.1329
 -14.2542
 -13.9819
 -14.3067
 -13.7493
 -27.1343
 -26.0652
 -25.6168
 -25.6266
 -12.8559
 -12.7877
 -12.5538
 -13.0131
 -18.498
 -18.0305
 -17.6719
 -17.7355
 -8.80928
 -8.73316
 -8.68202
 -8.34224
 -16.2004
 -16.7397
 -15.9461
 -16.3583
 -17.1487
 -17.8503
 -18.1507
 -17.2794
 -9.44634
 -9.29264
 -8.98839
 -9.15497
 -11.5397
 -11.2793
 -12.0647
 -11.7356
 -13.0388
 -12.981
 -12.6022
 -12.3592
 -16.2697
 -16.5799
 -16.3568
 -16.566
 -6.49994
 -6.58186
 -6.69685
 -6.96689
 -17.5203
 -16.952
 -17.3289
 -17.6618
 -11.6529
 -11.1641
 -11.7258
 -12.0042
 -19.8601
 -19.6588
 -19.8354
 -19.3457
 -24.3804
 -23.8111
 -24.3033
 -23.9581
 -28.0509
 -27.7318
 -27.5427
 -27.8117
 -26.8015
 -27.2168
 -26.1327
 -30.5289
 -30.6865
 -31.0325
 -31.136
 -22.7675
 -22.1607
 -21.463
 -22.2294
 -13.8797
 -13.7693
 -14.1328
 -14.0593
 -27.227
 -26.7347
 -26.2991
 -27.1094
 -15.0604
 -15.1441
 -14.829
 -14.7439
 -16.4529
 -16.7491
 -16.5693
 -27.324
 -27.8055
 -27.4889
 -27.3775
 -25.8097
 -25.2768
 -25.4886
 -15.7787
 -15.5096
 -16.0117
 -16.1934
 -11.4152
 -11.6591
 -11.3714
 -11.9629
 -19.2744
 -18.8479
 -18.6871
 -18.5814
 -27.4371
 -27.8847
 -27.6159
 -27.3245
 -9.87606
 -9.80135
 -10.0326
 -9.64333
 -13.7559
 -13.6226
 -13.254
 -13.1697
 -14.4327
 -15.1039
 -14.345
 -14.4764
 -19.854
 -19.2592
 -19.7201
 -19.822
 -9.91793
 -9.664
 -10.2232
 -9.7302
 -8.55045
 -8.28949
 -8.57697
 -8.46173
 -14.4637
 -14.4874
 -14.3978
 -14.903
 -29.269
 -28.8408
 -28.7849
 -28.98
 -10.5261
 -10.0788
 -10.58
 -10.3359
 -8.79375
 -9.12774
 -8.72377
 -9.08493
 -17.5241
 -16.7499
 -17.5144
 -17.4526
 -10.2379
 -10.3593
 -10.1296
 -8.70267
 -8.98427
 -8.87423
 -16.5442
 -16.2393
 -17.029
 -16.394
 -9.0814
 -8.95234
 -8.68394
 -9.05376
 -9.08633
 -8.68554
 -8.98319
 -9.00696
 -17.6065
 -17.8002
 -17.4485
 -9.20238
 -9.1337
 -24.0927
 -24.1739
 -25.2737
 -25.3446
 -19.1817
 -20.1007
 -20.1096
 -19.7328
 -6.49465
 -6.77944
 -6.26014
 -6.85976
 -4.52811
 -4.58062
 -4.29368
 -4.60236
 -10.2785
 -9.60045
 -10.0171
 -10.0474
 -26.4098
 -26.3769
 -26.7017
 -26.4143
 -18.4951
 -18.0975
 -17.8129
 -18.0854
 -7.77427
 -7.7075
 -7.69418
 -7.65662
 -10.2844
 -10.3405
 -10.5213
 -10.8947
 -10.522
 -10.5627
 -10.4639
 -9.56302
 -9.83979
 -9.88932
 -9.89449
 -9.809
 -9.54467
 -9.94385
 -10.015
 -8.68259
 -8.33979
 -8.63479
 -8.36085
 -28.9431
 -29.3434
 -29.0844
 -28.9589
 -27.0919
 -27.7166
 -26.8345
 -14.2001
 -13.8726
 -14.2497
 -13.6682
 -10.0268
 -9.53815
 -10.0935
 -9.93365
 -30.8725
 -31.2556
 -8.70831
 -8.49606
 -8.54516
 -8.34904
 -15.5598
 -16.5082
 -15.8822
 -16.2602
 -17.7022
 -17.5207
 -9.11115
 -9.02448
 -9.40893
 -9.1155
 -27.8671
 -28.2265
 -27.6021
 -28.6597
 -29.995
 -29.561
 -29.7449
 -30.6121
 -13.0669
 -13.2843
 -13.0774
 -6.19577
 -6.44654
 -6.3087
 -9.54588
 -10.0221
 -9.51083
 -9.62582
 -21.1077
 -20.5089
 -21.5622
 -20.5536
 -11.0499
 -10.6936
 -10.6715
 -10.3687
 -10.6238
 -10.391
 -10.7877
 -10.2944
 -18.7146
 -18.5841
 -18.9336
 -19.6006
 -2.85072
 -2.98836
 -2.788
 -2.56496
 -20.3825
 -20.5704
 -21.0817
 -20.9272
 -21.0078
 -20.9128
 -21.4224
 -21.7398
 -8.47726
 -8.48449
 -8.02753
 -8.37112
 -25.8167
 -26.0946
 -26.2013
 -25.6167
 -2.3498
 -2.03198
 -2.09325
 -1.86645
 -28.0942
 -26.7719
 -26.8563
 -26.6176
 -23.2793
 -22.8235
 -10.4501
 -10.7128
 -10.608
 -10.9212
 -8.11869
 -7.8014
 -7.98053
 -8.24121
 -25.3987
 -25.9345
 -25.7646
 -25.5859
 -11.2223
 -11.3689
 -11.3407
 -11.063
 -29.121
 -28.6701
 -29.0152
 -10.0428
 -9.71631
 -9.548
 -7.70499
 -8.0718
 -8.16032
 -28.0475
 -28.2946
 -28.1045
 -27.8747
 -10.1559
 -9.95161
 -9.9512
 -9.94037
 -25.7125
 -25.8012
 -7.67396
 -7.89449
 -7.63719
 -7.72326
 -14.7732
 -15.2703
 -15.3055
 -14.7912
 -10.7299
 -10.4956
 -12.2212
 -13.0906
 -12.9657
 -12.4564
 -10.5327
 -10.4657
 -10.507
 -10.1155
 -29.7163
 -30.4968
 -29.5289
 -29.8851
 -8.14515
 -8.01007
 -8.08063
 -23.3884
 -2.47103
 -2.43108
 -2.44423
 -2.33013
 -25.2351
 -25.2998
 -25.7347
 -24.5546
 -10.6564
 -10.6969
 -11.3542
 -11.1977
 -20.174
 -19.9121
 -19.9726
 -20.0709
 -10.4438
 -10.1799
 -10.0117
 -10.3657
 -18.5263
 -6.33119
 -6.26194
 -6.25921
 -6.36567
 -18.4351
 -18.4767
 -18.2702
 -17.8044
 -22.8382
 -23.2099
 -23.4613
 -22.3624
 -22.9217
 -22.2546
 -23.1171
 -25.4949
 -26.0763
 -25.832
 -25.7565
 -8.6091
 -8.74592
 -9.14228
 -8.94575
 -24.5691
 -24.5566
 -24.4935
 -25.1043
 -7.32037
 -7.26609
 -7.3458
 -6.98735
 -23.8671
 -24.251
 -24.5256
 -24.5405
 -13.9492
 -13.6694
 -13.6003
 -13.4494
 -19.9832
 -20.3946
 -20.5883
 -20.7471
 -15.6896
 -15.436
 -15.2582
 -15.0986
 -28.0571
 -27.0821
 -15.4385
 -14.9636
 -15.008
 -15.3995
 -6.42058
 -6.29117
 -6.67943
 -6.28658
 -7.33723
 -7.20073
 -7.71409
 -7.27507
 -15.6754
 -16.1439
 -16.1891
 -16.2508
 -20.8661
 -20.8705
 -20.6911
 -21.5047
 -21.906
 -21.3595
 -21.682
 -22.1184
 -27.1137
 -26.3004
 -26.5872
 -26.111
 -22.0428
 -22.8846
 -22.4337
 -22.0332
 -7.33507
 -7.36301
 -7.57171
 -7.14779
 -8.92591
 -8.90771
 -8.8236
 -9.38838
 -31.1263
 -30.7507
 -30.6242
 -30.6407
 -16.6333
 -16.8597
 -16.7615
 -17.5675
 -9.34963
 -9.80659
 -9.35661
 -9.7059
 -3.49547
 -3.43827
 -3.79486
 -3.35322
 -25.3649
 -25.706
 -25.0161
 -26.4246
 -9.72402
 -9.76276
 -9.87269
 -10.132
 -12.5081
 -12.9404
 -12.2384
 -12.6084
 -7.12262
 -7.00522
 -7.08595
 -7.30922
 -18.1509
 -17.8622
 -18.1351
 -18.197
 -27.162
 -27.202
 -26.9789
 -27.1684
 -17.0023
 -16.2745
 -16.5005
 -16.3501
 -13.1705
 -13.2281
 -13.7402
 -13.4938
 -6.71894
 -6.87529
 -7.0214
 -6.53398
 -26.9443
 -19.2343
 -19.6961
 -19.0004
 -19.6351
 -12.43
 -12.2166
 -11.8382
 -11.9752
 -20.7344
 -21.1359
 -21.047
 -21.5276
 -9.41552
 -9.18076
 -9.27248
 -9.59499
 -18.1082
 -18.4596
 -17.7719
 -6.39612
 -6.8074
 -6.48573
 -6.43078
 -23.5156
 -22.2852
 -23.0762
 -22.6874
 -8.19074
 -8.13539
 -8.36621
 -8.1952
 -32.5755
 -32.3867
 -32.5068
 -32.8719
 -9.82973
 -9.89875
 -9.94118
 -9.89505
 -4.29705
 -4.95604
 -4.89974
 -4.66726
 -6.24856
 -6.21236
 -6.50143
 -6.44385
 -31.0196
 -30.7704
 -30.5146
 -30.4216
 -28.469
 -28.419
 -28.8692
 -28.9368
 -14.2124
 -14.6826
 -14.501
 -14.7004
 -10.2123
 -10.1327
 -10.3882
 -15.6826
 -15.65
 -14.9218
 -15.2014
 -19.1398
 -18.8447
 -19.5305
 -19.5909
 -15.5593
 -16.5731
 -16.2348
 -16.1329
 -14.7883
 -14.9468
 -15.7526
 -15.3383
 -30.2358
 -29.7085
 -29.7942
 -29.5568
 -8.86744
 -8.73253
 -9.22301
 -8.8744
 -6.28144
 -5.73117
 -5.79748
 -20.6655
 -20.2083
 -20.4764
 -20.2324
 -25.1406
 -25.7849
 -25.2743
 -25.1207
 -9.6582
 -9.53743
 -9.73708
 -8.98281
 -9.04838
 -9.23877
 -8.73693
 -26.1958
 -25.7942
 -26.3979
 -25.378
 -13.6516
 -13.56
 -13.9976
 -13.6291
 -9.25526
 -8.84746
 -9.18179
 -9.20831
 -12.3346
 -12.0826
 -12.1307
 -12.4364
 -23.6716
 -23.5809
 -23.0286
 -23.6146
 -9.54255
 -10.0622
 -9.29076
 -9.93709
 -12.8143
 -12.1387
 -12.3427
 -12.5565
 -10.7417
 -11.1528
 -10.8302
 -28.4831
 -28.3498
 -27.8354
 -28.0537
 -13.8699
 -13.9556
 -13.5994
 -14.1299
 -31.1606
 -30.9592
 -31.9041
 -15.2065
 -15.4714
 -15.3866
 -15.202
 -6.78637
 -7.05518
 -6.61602
 -6.74469
 -17.0811
 -17.2237
 -17.5782
 -18.0802
 -14.6073
 -15.2555
 -14.4257
 -9.8147
 -9.94097
 -10.2677
 -10.0089
 -8.03865
 -8.1452
 -7.95484
 -8.20912
 -9.60416
 -9.82408
 -10.0721
 -9.55564
 -4.11999
 -4.17298
 -4.4942
 -4.53263
 -11.6359
 -11.5142
 -11.3193
 -11.2997
 -10.7509
 -10.578
 -11.1619
 -10.4876
 -26.448
 -25.6409
 -25.7876
 -26.824
 -7.88226
 -8.34397
 -8.17801
 -8.08304
 -18.6264
 -18.3314
 -18.7756
 -18.9538
 -28.8604
 -28.9483
 -28.5298
 -28.2483
 -29.0779
 -28.2856
 -28.67
 -28.9836
 -22.9182
 -23.407
 -22.8747
 -23.2356
 -29.5768
 -30.3649
 -30.3015
 -29.1058
 -26.9637
 -27.1157
 -27.0172
 -31.1887
 -30.1653
 -30.5158
 -30.5008
 -7.0725
 -6.90916
 -7.04529
 -6.81577
 -12.3612
 -11.9262
 -11.7613
 -11.9976
 -10.9438
 -11.4434
 -11.069
 -11.4857
 -11.4762
 -11.2276
 -11.2159
 -11.0933
 -27.662
 -27.0622
 -27.4766
 -27.6738
 -12.1808
 -12.2053
 -11.827
 -11.6477
 -9.72967
 -9.28784
 -9.25649
 -9.59808
 -19.5501
 -19.3706
 -20.0323
 -19.2083
 -10.1498
 -10.5491
 -10.1492
 -10.4048
 -21.0158
 -20.5249
 -20.4243
 -15.5304
 -16.0989
 -16.1408
 -25.727
 -25.0297
 -25.2714
 -25.3669
 -12.3627
 -12.5347
 -12.2076
 -12.2017
 -18.2379
 -17.7253
 -17.8759
 -18.312
 -11.3012
 -10.7802
 -11.0264
 -11.4193
 -31.2871
 -31.0284
 -29.2647
 -28.9583
 -28.6571
 -29.3855
 -6.76329
 -6.65968
 -6.65961
 -6.48492
 -18.4028
 -18.9057
 -18.9765
 -19.4039
 -9.81413
 -10.2945
 -9.93635
 -9.64488
 -1.47806
 -1.05826
 -1.44523
 -1.31901
 -9.88201
 -9.72371
 -9.48759
 -9.72312
 -20.6815
 -20.1058
 -20.6003
 -7.84887
 -7.80513
 -8.23918
 -8.18371
 -28.4944
 -27.921
 -28.7244
 -28.1914
 -10.076
 -10.2218
 -10.0871
 -10.238
 -18.014
 -18.5533
 -18.2632
 -18.074
 -6.99797
 -7.1479
 -6.78913
 -7.03672
 -3.24465
 -3.21531
 -3.36274
 -3.46472
 -9.285
 -9.57041
 -9.26523
 -9.18161
 -11.8194
 -11.6489
 -11.9743
 -16.1059
 -15.3353
 -16.2078
 -15.8713
 -8.59449
 -8.6247
 -8.2433
 -21.1753
 -20.9601
 -21.3212
 -21.7404
 -23.0877
 -24.1042
 -23.1029
 -23.9879
 -20.1375
 -19.5185
 -20.0341
 -20.1068
 -28.0621
 -26.6658
 -27.2442
 -27.357
 -22.3541
 -21.7957
 -22.0543
 -10.6576
 -10.934
 -10.8888
 -11.0855
 -21.5469
 -20.9801
 -19.2027
 -18.5838
 -18.381
 -18.9551
 -20.6078
 -20.3373
 -20.3987
 -20.8089
 -9.5906
 -9.79494
 -9.70535
 -9.34103
 -9.72259
 -9.99431
 -9.70216
 -9.97499
 -1.50539
 -1.68423
 -1.73771
 -1.61689
 -9.61702
 -9.90824
 -9.61686
 -10.8439
 -10.6711
 -10.5898
 -10.7179
 -14.4644
 -14.4527
 -14.1775
 -14.0726
 -10.8674
 -11.2912
 -11.3114
 -11.0238
 -6.8375
 -7.03742
 -6.80298
 -6.79065
 -23.1732
 -22.4099
 -23.0846
 -22.5109
 -14.0933
 -14.452
 -14.0467
 -13.7316
 -27.8905
 -27.9503
 -27.663
 -27.9792
 -16.531
 -16.0022
 -16.4666
 -16.155
 -27.2096
 -27.4291
 -27.2977
 -3.5826
 -3.86423
 -3.74183
 -3.78917
 -20.1945
 -21.1338
 -20.3611
 -20.4394
 -12.9894
 -12.5884
 -13.0712
 -12.8493
 -8.8909
 -8.61695
 -11.1793
 -11.2542
 -11.4749
 -11.3739
 -12.7281
 -12.2031
 -12.3403
 -26.1279
 -26.3386
 -25.828
 -26.2623
 -26.3354
 -25.9644
 -25.4268
 -25.775
 -8.79068
 -8.68911
 -8.90232
 -8.729
 -13.6291
 -13.4459
 -10.1208
 -10.5276
 -10.2659
 -9.93844
 -21.7954
 -21.394
 -22.3504
 -22.3448
 -6.7333
 -6.72731
 -6.68231
 -6.82715
 -9.30535
 -9.45696
 -9.15138
 -9.13285
 -10.0112
 -10.418
 -10.6051
 -10.4059
 -15.3143
 -15.2122
 -15.3175
 -15.9693
 -21.2162
 -21.0758
 -20.7071
 -20.7502
 -22.4156
 -21.7627
 -21.325
 -21.996
 -2.47158
 -2.4207
 -2.33009
 -2.23329
 -7.97633
 -8.30788
 -8.41467
 -16.2144
 -15.3265
 -15.8418
 -16.863
 -17.3906
 -16.8435
 -17.4308
 -27.3143
 -27.7224
 -27.4119
 -27.9523
 -13.7024
 -9.90221
 -9.88455
 -9.47761
 -9.576
 -18.6457
 -18.2751
 -17.768
 -18.0542
 -22.868
 -22.2022
 -22.3252
 -23.0239
 -25.2229
 -25.4044
 -8.85211
 -8.73754
 -8.55811
 -8.50068
 -14.6818
 -15.0769
 -14.9009
 -15.173
 -7.85488
 -7.77781
 -7.86695
 -7.96893
 -17.09
 -11.833
 -11.5336
 -12.2113
 -12.3838
 -10.8996
 -11.1843
 -11.3449
 -11.0986
 -27.6069
 -26.7964
 -28.729
 -29.2246
 -29.3003
 -28.9404
 -5.05162
 -4.83691
 -4.94906
 -5.0686
 -22.144
 -22.2972
 -21.5425
 -22.6059
 -17.1107
 -16.3605
 -16.571
 -17.1622
 -2.94046
 -3.02393
 -3.02974
 -2.83975
 -14.4147
 -14.4491
 -14.6824
 -14.1677
 -14.0714
 -13.524
 -13.2455
 -13.3184
 -8.76084
 -8.38801
 -8.82862
 -8.68417
 -30.7773
 -31.1779
 -31.2331
 -31.1869
 -13.5062
 -13.0261
 -13.1019
 -10.4962
 -10.9151
 -10.8981
 -10.5418
 -29.4591
 -30.3914
 -29.7522
 -29.8949
 -10.4821
 -10.2658
 -9.9229
 -10.6522
 -12.8489
 -13.1773
 -23.9054
 -24.0479
 -24.5506
 -23.4344
 -16.1309
 -16.1606
 -16.8167
 -16.7283
 -28.4256
 -27.9744
 -28.4418
 -28.3169
 -13.3122
 -14.0474
 -9.51841
 -9.67751
 -9.76442
 -9.72061
 -10.4123
 -10.46
 -10.722
 -10.8707
 -24.7602
 -24.7282
 -23.942
 -24.1892
 -22.7938
 -22.581
 -22.9674
 -23.0628
 -21.7948
 -20.978
 -21.7484
 -21.4257
 -10.656
 -11.1686
 -10.9498
 -10.6666
 -5.03742
 -4.85445
 -4.96841
 -5.05561
 -29.4236
 -29.9615
 -29.3882
 -29.6315
 -8.43364
 -8.48248
 -8.53432
 -8.75445
 -15.7145
 -16.0397
 -16.2604
 -15.7371
 -11.4586
 -12.1587
 -11.6752
 -11.9219
 -15.6305
 -15.0209
 -15.5002
 -18.1022
 -18.8007
 -18.0957
 -18.828
 -14.3447
 -14.7435
 -14.4381
 -14.0883
 -20.4147
 -20.6477
 -21.2035
 -20.2776
 -20.3448
 -20.1726
 -20.4405
 -19.4646
 -2.92559
 -3.35267
 -2.95673
 -7.05972
 -7.42447
 -7.55837
 -7.41922
 -15.5671
 -15.1901
 -15.3476
 -15.3159
 -24.1256
 -24.704
 -24.3257
 -24.8491
 -9.77809
 -9.32675
 -9.77029
 -10.1835
 -10.3902
 -10.41
 -17.3238
 -17.0856
 -17.4999
 -17.4913
 -15.3853
 -15.8072
 -16.0412
 -16.0953
 -33.0378
 -32.9988
 -32.7785
 -33.1357
 -6.24132
 -6.33955
 -6.13444
 -5.72779
 -21.3315
 -21.7018
 -11.9566
 -12.4567
 -12.4739
 -12.0426
 -19.8622
 -20.2632
 -20.2049
 -20.3625
 -16.5892
 -16.7503
 -17.135
 -16.8329
 -12.5531
 -12.5358
 -12.9648
 -12.2208
 -19.1505
 -19.6991
 -19.4568
 -19.6202
 -8.81607
 -8.95308
 -8.93627
 -9.1958
 -7.72837
 -7.49739
 -7.77129
 -7.63458
 -23.2957
 -23.5451
 -24.2
 -25.0058
 -15.4261
 -15.743
 -16.14
 -4.44716
 -4.33483
 -4.55431
 -24.9034
 -25.4226
 -25.4907
 -25.6441
 -26.2573
 -26.0628
 -25.6779
 -25.5251
 -14.5314
 -14.6759
 -14.8663
 -15.0242
 -27.4075
 -27.8075
 -27.7682
 -27.7207
 -28.2266
 -28.8334
 -28.3704
 -29.0324
 -12.5934
 -12.8178
 -13.1691
 -12.7205
 -22.3841
 -22.6857
 -22.9814
 -22.9138
 -32.6547
 -32.6817
 -32.4444
 -32.8664
 -22.2023
 -22.1269
 -21.8051
 -22.6566
 -15.8829
 -15.2384
 -15.5019
 -14.9852
 -24.554
 -24.7194
 -24.2693
 -24.0817
 -20.1967
 -20.0115
 -20.5265
 -17.6079
 -18.1106
 -5.47402
 -5.56252
 -5.40196
 -5.30762
 -17.2776
 -17.8673
 -17.6563
 -17.6425
 -5.35711
 -5.44187
 -5.49205
 -5.52064
 -5.55971
 -5.46694
 -5.84686
 -5.87517
 -16.3
 -16.6084
 -16.6185
 -16.164
 -11.8898
 -11.9003
 -11.5227
 -12.0367
 -18.2873
 -18.9372
 -18.7447
 -18.6959
 -14.9996
 -14.6086
 -7.22173
 -7.05365
 -7.13597
 -7.40028
 -29.3618
 -29.6476
 -29.8984
 -29.6445
 -12.1466
 -11.8855
 -12.5794
 -12.2524
 -24.4422
 -24.1584
 -23.7071
 -24.1854
 -7.29465
 -7.04078
 -7.28725
 -7.13224
 -26.4718
 -27.3329
 -27.1255
 -27.1963
 -17.4144
 -16.717
 -17.3001
 -17.2624
 -9.99681
 -9.57522
 -9.28016
 -9.50969
 -32.5094
 -32.3841
 -32.3813
 -32.1624
 -10.9093
 -11.3528
 -10.9896
 -10.918
 -12.6435
 -12.061
 -12.5019
 -12.1357
 -30.0059
 -30.121
 -29.6122
 -30.2944
 -14.497
 -13.8029
 -14.0639
 -14.0599
 -24.9577
 -25.3872
 -25.0221
 -24.8976
 -24.1592
 -23.6531
 -23.8392
 -12.9968
 -12.2851
 -12.5337
 -12.5258
 -24.2753
 -24.7685
 -24.3749
 -24.6207
 -8.55795
 -8.92972
 -8.87028
 -8.5659
 -26.1753
 -26.5674
 -26.5312
 -26.3128
 -25.8047
 -25.5576
 -25.8738
 -25.6757
 -9.13409
 -9.04056
 -9.67713
 -9.33635
 -9.47124
 -9.36456
 -9.71407
 -9.20625
 -0.491711
 -0.553576
 -0.366394
 -0.423425
 -21.7383
 -21.0511
 -21.1072
 -5.69673
 -6.1025
 -6.15854
 -5.92407
 -28.888
 -28.2645
 -28.4332
 -28.4409
 -8.97506
 -24.814
 -24.0672
 -24.132
 -24.6283
 -24.9114
 -24.155
 -24.3785
 -2.41374
 -2.15574
 -2.2512
 -2.37229
 -1.95342
 -2.01911
 -1.9358
 -1.8593
 -28.14
 -27.4865
 -27.9658
 -28.4372
 -9.4904
 -9.33313
 -9.66377
 -9.25927
 -19.9347
 -19.7058
 -20.323
 -11.2817
 -10.9251
 -11.2553
 -10.7275
 -12.9976
 -13.017
 -12.9026
 -24.5146
 -24.3546
 -25.189
 -17.1505
 -17.607
 -17.6094
 -17.1765
 -11.4779
 -11.0255
 -11.042
 -11.3666
 -9.15765
 -9.30097
 -9.10314
 -9.25953
 -20.0501
 -20.4895
 -20.5424
 -7.07787
 -7.26768
 -6.75538
 -6.7375
 -9.36851
 -10.0023
 -9.50134
 -12.5746
 -13.333
 -13.1221
 -12.9057
 -8.70485
 -9.058
 -9.06772
 -8.93407
 -9.26541
 -9.70778
 -9.80197
 -9.67616
 -24.9979
 -24.4707
 -24.5915
 -24.4614
 -13.6232
 -13.2139
 -13.4447
 -13.7614
 -10.5581
 -10.563
 -15.7892
 -15.4594
 -15.6573
 -15.1527
 -26.8565
 -29.1603
 -29.3306
 -29.2445
 -29.158
 -0.187397
 -0.130338
 -0.113328
 -0.188804
 -23.2325
 -23.9365
 -23.4413
 -31.1824
 -31.1629
 -30.768
 -31.1062
 -21.8331
 -20.9909
 -21.2994
 -21.0538
 -9.01688
 -9.14678
 -9.34567
 -9.01371
 -13.1753
 -12.8217
 -12.7676
 -12.6143
 -31.6124
 -31.6837
 -31.582
 -31.4245
 -21.733
 -21.2323
 -20.8797
 -21.3538
 -6.86001
 -6.56925
 -6.54519
 -7.02473
 -12.5044
 -12.5325
 -12.6525
 -11.9272
 -11.957
 -12.1747
 -12.3835
 -11.9971
 -0.173024
 -0.140957
 -0.139258
 -0.188648
 -8.53203
 -8.45332
 -8.36261
 -8.65264
 -21.8837
 -22.7142
 -21.9577
 -22.3004
 -17.5231
 -17.4723
 -18.0594
 -17.3093
 -13.7355
 -13.9945
 -14.4395
 -13.9899
 -20.6898
 -21.3804
 -21.137
 -21.1563
 -17.5867
 -17.6826
 -18.1468
 -17.5886
 -20.9081
 -20.8129
 -20.4346
 -21.5456
 -32.5729
 -31.8288
 -31.9963
 -32.7109
 -23.0387
 -22.6258
 -22.4949
 -21.6448
 -20.3648
 -19.8846
 -19.6142
 -20.3022
 -19.6093
 -15.7506
 -15.7075
 -15.367
 -16.2666
 -29.1169
 -28.9411
 -28.7695
 -28.7419
 -13.5241
 -13.1991
 -13.6527
 -13.4793
 -17.1467
 -17.4081
 -17.7017
 -16.7866
 -14.9229
 -14.3673
 -14.7704
 -15.2172
 -11.5068
 -10.8941
 -11.3749
 -10.9886
 -3.79752
 -3.93615
 -4.3173
 -3.82079
 -33.0733
 -32.3678
 -19.1355
 -18.7528
 -18.7347
 -1.04783
 -1.06318
 -1.05834
 -9.98508
 -9.68915
 -9.87421
 -9.55173
 -5.5135
 -5.59734
 -5.13827
 -5.09597
 -8.19387
 -8.01012
 -8.27327
 -7.76964
 -28.9932
 -28.0233
 -28.5407
 -28.5038
 -15.8844
 -15.2863
 -15.4683
 -15.2155
 -19.8209
 -20.5633
 -20.4424
 -21.0294
 -17.4387
 -17.4669
 -16.9148
 -16.7257
 -21.2328
 -21.3837
 -20.9304
 -21.0229
 -14.0791
 -14.0497
 -24.6774
 -23.174
 -24.666
 -23.3945
 -21.2489
 -20.8271
 -20.5276
 -21.5873
 -9.84823
 -9.41823
 -9.91083
 -9.49319
 -9.97767
 -10.1075
 -10.0947
 -10.1302
 -16.8542
 -16.8748
 -16.6842
 -17.1062
 -16.0613
 -16.3082
 -16.6863
 -17.0568
 -8.14117
 -7.68206
 -7.57634
 -8.21078
 -20.5547
 -20.1984
 -20.0011
 -19.8715
 -31.8033
 -31.4834
 -31.6583
 -31.5975
 -25.4948
 -25.1193
 -25.2438
 -24.977
 -32.5757
 -32.8132
 -32.4532
 -32.8827
 -26.5519
 -27.1395
 -26.9484
 -27.0137
 -15.5098
 -16.1699
 -15.5454
 -15.6944
 -20.2115
 -19.7138
 -14.354
 -14.9776
 -14.2094
 -14.5899
 -9.78789
 -10.1176
 -10.1052
 -10.2369
 -22.8055
 -23.4871
 -23.5404
 -22.8811
 -14.145
 -13.9765
 -14.1655
 -13.6213
 -12.6444
 -12.2861
 -12.1677
 -12.3693
 -9.10934
 -9.13717
 -9.32435
 -9.59647
 -10.5463
 -10.4144
 -10.2733
 -10.8757
 -9.40794
 -9.61102
 -9.7362
 -9.52722
 -4.16916
 -4.24023
 -4.05038
 -4.09036
 -22.1457
 -22.372
 -21.6257
 -22.1913
 -19.4474
 -19.6451
 -4.71832
 -4.89596
 -4.85074
 -4.51162
 -11.1671
 -11.2863
 -18.756
 -18.3323
 -18.8293
 -25.4842
 -25.5066
 -8.4823
 -8.43229
 -8.27994
 -8.65945
 -4.50475
 -4.70781
 -4.68342
 -4.76376
 -7.79938
 -7.97734
 -8.19876
 -8.28971
 -11.0922
 -11.3036
 -11.4362
 -11.5479
 -17.8019
 -17.086
 -17.0734
 -17.1455
 -19.5581
 -19.2984
 -19.2322
 -19.098
 -10.8836
 -11.3296
 -11.333
 -11.2131
 -17.1964
 -17.1017
 -17.361
 -16.5375
 -15.1758
 -14.8016
 -14.6988
 -14.965
 -16.0589
 -16.4646
 -16.7508
 -16.4507
 -16.3639
 -15.6808
 -16.4649
 -14.3125
 -13.9602
 -14.7435
 -14.4087
 -11.8743
 -12.0581
 -11.6366
 -11.7469
 -9.45369
 -9.76388
 -9.273
 -9.7287
 -28.7131
 -28.5561
 -28.9283
 -29.2771
 -13.5847
 -13.5603
 -14.0166
 -14.0312
 -7.65322
 -7.6217
 -7.20708
 -7.54437
 -6.90065
 -6.87475
 -6.82742
 -6.69625
 -8.02686
 -7.83249
 -7.84413
 -7.97292
 -9.25113
 -9.21687
 -9.65707
 -9.73142
 -9.45911
 -9.22
 -9.11973
 -9.27395
 -28.1726
 -28.5587
 -28.4636
 -28.5356
 -12.8359
 -12.8242
 -12.7231
 -13.188
 -21.6031
 -21.8738
 -21.4329
 -21.2484
 -9.52796
 -9.98736
 -9.40141
 -9.78755
 -29.335
 -29.6354
 -29.5729
 -30.2903
 -30.4287
 -30.3853
 -30.7798
 -20.8786
 -19.6446
 -20.0794
 -20.1178
 -10.2061
 -10.3703
 -9.95542
 -10.2669
 -31.6864
 -31.0691
 -31.2372
 -12.359
 -11.987
 -12.2063
 -11.6276
 -26.4876
 -26.5998
 -25.2955
 -25.5206
 -26.1551
 -25.3914
 -11.5891
 -11.293
 -11.4564
 -7.16254
 -7.29316
 -6.89386
 -7.04228
 -9.52673
 -9.25256
 -9.61908
 -9.67432
 -15.1543
 -15.7431
 -15.0487
 -29.6176
 -28.5304
 -28.6433
 -21.0623
 -20.4576
 -20.1576
 -20.5296
 -29.8045
 -29.8119
 -28.9255
 -30.447
 -12.8452
 -13.3475
 -13.5896
 -13.2292
 -26.2313
 -26.4292
 -26.7886
 -25.7356
 -15.4045
 -15.5279
 -15.1402
 -14.9444
 -10.5382
 -10.1794
 -10.384
 -31.2939
 -30.7515
 -31.0206
 -31.8263
 -19.5028
 -17.3402
 -18.0156
 -17.8775
 -17.5144
 -18.0396
 -18.0556
 -17.629
 -10.252
 -10.0502
 -10.0292
 -10.0103
 -9.99809
 -10.475
 -13.2433
 -12.7414
 -12.6735
 -12.5378
 -12.7331
 -13.2912
 -12.8406
 -13.1608
 -20.6005
 -31.8897
 -31.1372
 -30.9177
 -31.4268
 -3.01412
 -2.71742
 -2.93155
 -2.9102
 -11.3202
 -11.0095
 -10.2964
 -10.1593
 -10.324
 -10.4185
 -9.97807
 -10.0297
 -9.53253
 -9.72096
 -21.5486
 -20.8238
 -20.9778
 -21.3268
 -22.1775
 -22.6003
 -21.8066
 -22.2432
 -10.7173
 -10.3849
 -19.9385
 -19.8842
 -20.702
 -20.1725
 -20.5091
 -21.1498
 -20.5241
 -16.6791
 -16.3253
 -16.0318
 -15.8292
 -13.5626
 -13.1041
 -13.4825
 -13.104
 -21.7736
 -22.5718
 -22.486
 -21.9269
 -23.9828
 -24.324
 -24.6529
 -24.1451
 -22.6623
 -23.3815
 -22.7898
 -22.2232
 -22.5025
 -22.2705
 -21.69
 -13.1077
 -13.2568
 -13.2751
 -12.9187
 -5.90228
 -5.88097
 -6.0586
 -6.08357
 -11.8433
 -11.7624
 -11.5504
 -11.661
 -23.8383
 -23.219
 -22.8026
 -23.4345
 -19.8253
 -19.6986
 -19.5959
 -20.2524
 -11.931
 -12.2033
 -12.3245
 -12.4148
 -19.8686
 -19.2144
 -19.5842
 -19.8197
 -16.3884
 -16.5903
 -15.7063
 -16.5313
 -16.5393
 -17.0987
 -16.9007
 -17.0227
 -19.5771
 -19.8751
 -19.9106
 -28.9952
 -29.1171
 -28.8435
 -28.9749
 -11.6766
 -12.1078
 -11.8906
 -11.9865
 -14.5582
 -15.1104
 -15.0072
 -14.8493
 -6.17187
 -5.95174
 -5.97619
 -6.28415
 -9.15061
 -9.45089
 -9.39497
 -9.20714
 -9.71258
 -9.08065
 -9.34789
 -9.0013
 -8.9594
 -9.1584
 -9.11137
 -9.24745
 -16.1903
 -15.8471
 -16.0033
 -7.69446
 -7.63506
 -7.77934
 -7.83178
 -8.47043
 -8.61518
 -8.9102
 -8.51314
 -31.1189
 -30.6896
 -30.596
 -30.8584
 -16.5042
 -16.1545
 -16.0032
 -15.7812
 -24.3275
 -24.4346
 -24.1773
 -23.6776
 -17.6219
 -17.8879
 -17.4844
 -17.1276
 -19.3945
 -19.9044
 -19.4606
 -19.6277
 -10.163
 -9.81591
 -10.0103
 -9.52716
 -14.743
 -15.7293
 -14.9952
 -15.0553
 -24.1131
 -24.4863
 -23.8913
 -24.0859
 -18.0587
 -17.8497
 -18.5809
 -18.3801
 -8.71721
 -8.57273
 -9.00609
 -9.10112
 -28.7494
 -28.9773
 -28.8919
 -29.0428
 -12.0827
 -11.6771
 -8.44721
 -14.8026
 -15.0529
 -15.3593
 -14.6612
 -13.4649
 -13.8606
 -13.3346
 -13.2726
 -4.89387
 -4.83786
 -5.17536
 -11.3859
 -11.0064
 -10.9024
 -10.673
 -17.7203
 -18.6999
 -18.3175
 -18.7923
 -15.2731
 -15.7365
 -15.4538
 -15.2975
 -27.2973
 -27.5696
 -27.6207
 -27.4533
 -9.31403
 -9.90107
 -9.49242
 -9.955
 -9.93607
 -9.81981
 -10.3477
 -5.43217
 -4.99732
 -5.20245
 -5.43583
 -9.15036
 -9.57667
 -9.29873
 -17.2738
 -18.4622
 -17.4536
 -8.94813
 -8.9186
 -8.62214
 -8.76403
 -13.5188
 -13.9844
 -14.118
 -14.0326
 -0.204338
 -0.200206
 -0.202338
 -0.333114
 -12.9839
 -12.79
 -12.8633
 -7.63105
 -7.58161
 -7.63261
 -7.64374
 -13.0088
 -12.7761
 -12.3546
 -12.7557
 -8.75402
 -9.08386
 -9.06652
 -9.2001
 -20.1198
 -20.3642
 -19.9729
 -20.5353
 -21.8853
 -21.4241
 -21.908
 -22.1236
 -30.4843
 -30.4582
 -30.6957
 -30.1651
 -16.8564
 -16.1622
 -16.7622
 -16.9599
 -8.52937
 -8.1986
 -8.49553
 -8.30805
 -10.469
 -10.2892
 -6.40308
 -6.3943
 -6.51825
 -6.50343
 -14.077
 -14.2731
 -11.4066
 -12.0626
 -11.9362
 -9.76483
 -9.98477
 -10.1783
 -9.93238
 -28.4972
 -28.6271
 -27.8109
 -27.942
 -27.8722
 -27.6531
 -27.3712
 -27.7385
 -10.1578
 -10.3432
 -10.1193
 -9.73863
 -7.72316
 -7.80544
 -17.6757
 -17.8043
 -17.6364
 -18.2211
 -9.84842
 -9.66202
 -10.0072
 -9.94095
 -12.0876
 -11.5484
 -12.5095
 -32.6722
 -32.8463
 -32.4597
 -15.2078
 -15.8781
 -15.5688
 -15.6362
 -25.8275
 -26.6345
 -25.7023
 -25.3988
 -16.0497
 -16.5769
 -16.6813
 -16.0257
 -21.6631
 -22.2135
 -22.3295
 -21.3293
 -8.42291
 -8.72322
 -8.46918
 -8.33841
 -9.61067
 -10.0966
 -9.46424
 -9.95857
 -16.283
 -15.7344
 -16.709
 -16.0406
 -11.6351
 -12.1338
 -12.2762
 -11.5809
 -8.34149
 -8.48157
 -8.61576
 -8.97117
 -13.5953
 -13.8422
 -14.1452
 -14.3924
 -19.0908
 -19.2255
 -18.8274
 -15.8916
 -16.4203
 -16.06
 -16.3925
 -1.4433
 -1.71679
 -1.82891
 -1.65748
 -7.74047
 -7.73994
 -7.79097
 -7.76236
 -11.3746
 -11.3051
 -11.3582
 -11.7706
 -4.51238
 -4.76328
 -4.3439
 -4.62345
 -25.702
 -25.5661
 -25.1142
 -30.9557
 -30.6378
 -30.2193
 -30.5961
 -22.6532
 -23.7948
 -23.3074
 -23.3113
 -15.7185
 -19.0684
 -19.7433
 -20.0315
 -19.5114
 -14.7688
 -15.1511
 -14.5154
 -14.5619
 -7.89317
 -7.50575
 -7.73014
 -9.90395
 -10.031
 -10.1353
 -9.58785
 -1.58313
 -1.31377
 -1.5492
 -1.19743
 -5.14121
 -5.11126
 -5.26735
 -5.11339
 -11.1046
 -11.0941
 -11.375
 -11.6471
 -31.5218
 -30.7855
 -31.0048
 -30.8993
 -2.24638
 -2.23008
 -2.502
 -2.39675
 -20.8363
 -21.3338
 -20.397
 -20.9807
 -15.9821
 -16.0102
 -16.5523
 -16.0672
 -10.2274
 -9.56974
 -9.55169
 -14.037
 -13.5058
 -13.3854
 -13.3982
 -30.9525
 -30.9732
 -31.1745
 -8.16872
 -8.75499
 -8.84957
 -13.2254
 -13.4962
 -14.016
 -13.9134
 -11.1145
 -11.0069
 -10.9107
 -10.7862
 -11.6034
 -11.5218
 -12.0148
 -12.1256
 -7.55223
 -7.34261
 -7.33156
 -7.71414
 -14.0283
 -14.3666
 -13.8525
 -14.4514
 -28.7221
 -27.6377
 -27.714
 -27.1965
 -27.2511
 -26.9586
 -26.7703
 -27.5415
 -7.00982
 -7.01653
 -7.11371
 -6.97672
 -25.1418
 -25.304
 -25.2036
 -24.5561
 -28.0768
 -28.8272
 -28.5491
 -27.8008
 -24.7746
 -24.8058
 -24.0211
 -24.1339
 -19.0391
 -18.8256
 -19.3301
 -19.0563
 -15.0579
 -14.672
 -15.2726
 -11.1173
 -10.4792
 -10.7004
 -10.7927
 -21.9726
 -21.5402
 -21.0424
 -21.8179
 -22.9719
 -23.1079
 -23.5153
 -23.2975
 -33.1428
 -33.1331
 -32.5341
 -32.8788
 -5.03681
 -5.24821
 -5.17962
 -5.22451
 -6.49627
 -6.36687
 -6.42952
 -6.62566
 -7.68126
 -7.65691
 -8.12214
 -7.63731
 -11.3927
 -10.8373
 -11.2277
 -11.2154
 -12.207
 -12.2581
 -12.2291
 -28.4968
 -29.0023
 -29.6271
 -29.2606
 -23.7146
 -23.4866
 -23.1411
 -23.0034
 -14.2983
 -13.9425
 -13.8057
 -14.1123
 -27.5935
 -28.0686
 -17.5035
 -17.5675
 -17.5598
 -17.0017
 -27.2421
 -27.5684
 -28.1842
 -27.5331
 -16.5316
 -17.255
 -16.3715
 -17.3646
 -10.9944
 -11.3112
 -10.6893
 -10.9739
 -6.45249
 -6.19142
 -6.41246
 -6.67083
 -1.31576
 -1.5501
 -1.19283
 -1.43545
 -26.0887
 -25.7358
 -25.6459
 -26.2041
 -27.2368
 -27.2655
 -27.3755
 -27.7886
 -12.9674
 -12.384
 -12.7847
 -12.5145
 -15.5549
 -15.2684
 -15.1919
 -15.6096
 -9.46531
 -9.11457
 -9.71669
 -18.0109
 -17.5946
 -17.6356
 -17.3468
 -9.45279
 -9.36605
 -9.61255
 -9.64848
 -14.7368
 -14.2082
 -13.823
 -14.1287
 -19.4154
 -19.075
 -19.3067
 -19.4631
 -16.0172
 -15.8359
 -15.6812
 -25.0701
 -24.392
 -24.6749
 -24.6646
 -18.4562
 -19.2116
 -4.19534
 -4.60905
 -4.10485
 -4.3213
 -22.2039
 -21.8491
 -22.1529
 -10.2948
 -10.4069
 -10.4405
 -10.2626
 -18.473
 -18.4653
 -18.2274
 -14.7287
 -14.2388
 -14.8206
 -14.4378
 -18.1037
 -17.391
 -18.4057
 -17.8767
 -18.5684
 -19.2683
 -2.66813
 -2.67755
 -2.49222
 -2.65218
 -1.68317
 -1.41548
 -1.27011
 -1.54089
 -15.294
 -14.6519
 -14.8912
 -14.6274
 -17.9081
 -17.546
 -17.8564
 -17.3739
 -2.82549
 -2.78324
 -2.82376
 -3.05705
 -10.0118
 -9.58196
 -7.41241
 -7.50039
 -7.58024
 -7.87482
 -18.6994
 -18.5437
 -19.3434
 -18.882
 -17.4279
 -17.5265
 -18.0745
 -17.168
 -18.2001
 -17.5852
 -17.469
 -17.5564
 -11.1543
 -11.2143
 -11.556
 -11.1477
 -8.66652
 -8.5015
 -8.21398
 -8.69426
 -5.60669
 -5.96599
 -5.92006
 -5.60526
 -8.81738
 -8.83059
 -8.84235
 -9.4099
 -22.0697
 -21.6837
 -22.3555
 -22.059
 -15.2825
 -14.0936
 -14.7035
 -4.70675
 -4.87725
 -5.12689
 -19.9397
 -20.8839
 -20.4045
 -20.4136
 -20.5288
 -19.5247
 -19.9838
 -20.2806
 -12.9797
 -12.667
 -12.4968
 -13.7979
 -13.9915
 -14.4476
 -13.9819
 -8.58299
 -8.38012
 -8.30838
 -8.31659
 -24.8041
 -24.5608
 -25.0696
 -24.8826
 -7.96216
 -7.89778
 -7.91291
 -8.02614
 -7.61462
 -7.43079
 -7.6161
 -30.3814
 -31.2262
 -31.5376
 -30.9843
 -24.3656
 -24.8284
 -10.5181
 -10.3245
 -10.7283
 -10.6382
 -14.8544
 -15.4404
 -14.9098
 -13.7755
 -13.5609
 -13.6564
 -13.1874
 -8.34033
 -8.66417
 -8.46838
 -24.1485
 -24.6092
 -23.6393
 -23.8943
 -8.34437
 -8.85539
 -8.48781
 -8.39583
 -21.0011
 -20.4694
 -20.111
 -20.2787
 -8.07975
 -8.22776
 -8.77466
 -8.3796
 -8.66667
 -8.52101
 -10.2332
 -10.0184
 -10.1302
 -10.2353
 -5.23732
 -5.09405
 -4.80119
 -5.07208
 -22.4444
 -23.0744
 -11.5644
 -11.8316
 -11.9059
 -11.8567
 -30.3879
 -30.1687
 -30.2904
 -30.6033
 -11.1958
 -10.8949
 -11.3917
 -11.7638
 -23.4901
 -24.1785
 -24.3479
 -24.297
 -27.458
 -28.1984
 -27.0762
 -27.9217
 -20.8906
 -20.1829
 -28.9964
 -29.5662
 -29.3784
 -29.1101
 -8.37809
 -8.34663
 -8.2712
 -8.65437
 -29.1385
 -29.273
 -29.308
 -29.1016
 -31.2318
 -31.8502
 -31.5909
 -31.2329
 -17.2768
 -17.2922
 -17.8566
 -17.6672
 -14.0218
 -13.7957
 -14.3612
 -14.6389
 -26.5151
 -25.7281
 -26.2737
 -26.5191
 -4.55213
 -4.87468
 -4.64169
 -4.48792
 -26.0925
 -26.918
 -11.5408
 -11.8572
 -11.9077
 -12.3494
 -26.1525
 -25.7168
 -25.2089
 -25.2713
 -8.67188
 -9.02182
 -8.96087
 -8.93081
 -12.306
 -11.6381
 -11.8842
 -12.2165
 -9.20668
 -9.0933
 -9.59624
 -8.59377
 -8.41296
 -8.62152
 -8.30706
 -7.85201
 -8.12
 -8.02926
 -8.16722
 -17.7572
 -17.3272
 -17.1522
 -25.4145
 -25.4593
 -26.0382
 -26.0557
 -16.2678
 -15.9586
 -15.6834
 -8.67042
 -8.41478
 -8.62155
 -14.8646
 -15.5965
 -14.9469
 -15.4205
 -18.4608
 -18.3861
 -18.4584
 -19.1812
 -13.3407
 -13.8774
 -13.9581
 -13.7677
 -12.9409
 -12.7364
 -12.5672
 -12.1295
 -11.8465
 -11.7532
 -12.4402
 -12.7342
 -13.0013
 -12.2327
 -25.5335
 -25.4191
 -25.6047
 -24.9805
 -20.0282
 -19.6178
 -20.0153
 -20.2423
 -13.9905
 -14.0566
 -13.7859
 -14.5525
 -8.25696
 -7.98704
 -8.22316
 -16.4208
 -16.0608
 -16.3676
 -16.5155
 -10.5378
 -10.0113
 -10.2524
 -9.99067
 -3.44527
 -3.56943
 -3.4031
 -3.31578
 -12.2365
 -11.9851
 -12.1544
 -12.1119
 -26.4289
 -26.2091
 -26.9411
 -26.6727
 -11.8851
 -12.3863
 -12.0874
 -11.824
 -8.11376
 -8.1012
 -8.22035
 -8.34152
 -8.52312
 -8.30058
 -8.31115
 -13.7152
 -13.8074
 -13.6299
 -18.9239
 -11.7824
 -11.0678
 -11.4864
 -11.4695
 -27.6363
 -27.4918
 -27.8855
 -26.577
 -26.7182
 -26.9835
 -11.6349
 -12.0729
 -11.7346
 -11.9997
 -30.8199
 -31.1261
 -31.3189
 -31.3179
 -8.85478
 -17.3901
 -16.8151
 -17.218
 -17.0546
 -8.94519
 -9.09693
 -9.04313
 -9.10812
 -27.2052
 -27.6934
 -26.824
 -27.2546
 -19.417
 -20.2953
 -19.9894
 -19.5911
 -22.8722
 -23.3034
 -22.4294
 -22.6458
 -7.87799
 -7.97677
 -8.09975
 -7.87181
 -10.7283
 -11.0883
 -10.6995
 -10.744
 -16.4973
 -16.1238
 -16.5406
 -15.9588
 -11.1229
 -10.6609
 -11.2784
 -10.8379
 -19.0268
 -19.3101
 -19.9033
 -19.7558
 -9.05565
 -8.93393
 -9.30842
 -9.26603
 -10.4472
 -10.5923
 -10.9685
 -10.7727
 -17.3927
 -17.46
 -17.4212
 -18.054
 -27.2548
 -27.9062
 -27.5406
 -28.0479
 -7.55372
 -7.69405
 -7.93144
 -7.87178
 -5.37133
 -4.96784
 -5.38519
 -5.33114
 -27.8665
 -28.5672
 -28.2134
 -28.2055
 -5.6322
 -5.34104
 -5.8398
 -5.67477
 -5.58335
 -5.90529
 -14.9784
 -15.1902
 -14.7373
 -14.4734
 -10.6298
 -10.8911
 -10.8785
 -10.4977
 -32.9439
 -33.0156
 -33.0252
 -32.7618
 -27.1913
 -27.1078
 -27.8777
 -19.2398
 -19.173
 -19.7357
 -19.0234
 -8.53365
 -8.62164
 -8.27303
 -8.73748
 -10.3478
 -10.2696
 -10.1466
 -10.0201
 -10.2886
 -10.5409
 -19.4538
 -20.5034
 -20.1556
 -19.6996
 -18.2726
 -18.2382
 -17.722
 -18.4049
 -20.1864
 -20.0704
 -19.5207
 -20.1505
 -30.7924
 -30.8243
 -29.8793
 -31.1388
 -21.584
 -21.5489
 -20.9311
 -12.2869
 -15.862
 -15.6799
 -15.8173
 -15.4219
 -16.1637
 -15.5292
 -15.7357
 -16.0227
 -24.7997
 -24.5899
 -24.4955
 -24.1212
 -21.6876
 -21.2462
 -21.3366
 -21.8704
 -17.8985
 -17.399
 -17.3188
 -11.452
 -11.09
 -11.5068
 -10.9075
 -15.6749
 -16.5356
 -16.0507
 -16.0905
 -12.0326
 -12.3453
 -11.8081
 -2.30139
 -2.2858
 -2.11248
 -2.41143
 -25.2147
 -26.3911
 -25.8608
 -25.0203
 -24.048
 -25.2144
 -24.587
 -2.59846
 -16.4095
 -16.501
 -16.3246
 -16.9992
 -17.771
 -17.8526
 -6.29896
 -6.35103
 -6.30791
 -6.42631
 -7.79893
 -7.92532
 -8.31488
 -7.80244
 -9.84607
 -10.0648
 -9.9121
 -9.71502
 -9.31867
 -9.51724
 -9.70437
 -9.29132
 -9.25433
 -9.55353
 -12.3444
 -11.9518
 -11.808
 -11.8329
 -12.8471
 -13.3458
 -33.105
 -33.0808
 -8.55918
 -9.1164
 -8.49022
 -8.85592
 -13.7889
 -13.6254
 -14.0128
 -13.421
 -7.33504
 -7.4609
 -6.91442
 -7.04336
 -25.9535
 -26.3697
 -25.4026
 -25.8132
 -23.7017
 -23.152
 -23.6494
 -23.1043
 -18.9412
 -19.422
 -19.4961
 -19.1511
 -16.4401
 -16.6415
 -17.4384
 -17.1421
 -15.2549
 -15.0196
 -8.46281
 -21.025
 -21.6497
 -21.6039
 -21.6833
 -30.0176
 -29.7699
 -30.6362
 -29.6558
 -24.4308
 -25.1944
 -24.2531
 -24.5802
 -0.220336
 -0.212661
 -0.250003
 -0.319203
 -30.2545
 -30.4179
 -30.2477
 -30.2621
 -9.73713
 -9.74059
 -9.37395
 -9.93814
 -11.5202
 -11.0333
 -11.2226
 -10.8728
 -20.3967
 -20.4751
 -20.8014
 -20.9646
 -20.6088
 -20.3758
 -20.0923
 -20.2639
 -8.52877
 -9.06505
 -8.78162
 -8.92879
 -29.7033
 -29.8727
 -29.6135
 -29.7258
 -26.2893
 -26.5833
 -26.4464
 -26.8187
 -20.9449
 -21.0356
 -21.4996
 -21.539
 -26.4393
 -25.9026
 -26.2698
 -26.3872
 -10.5287
 -10.9618
 -10.9698
 -11.1036
 -8.61012
 -8.66831
 -8.79821
 -8.86839
 -25.3341
 -24.9439
 -24.6453
 -24.8071
 -13.3797
 -13.2294
 -13.1242
 -12.7023
 -13.9208
 -13.6822
 -13.5713
 -13.8737
 -1.71786
 -1.8891
 -1.96338
 -1.90663
 -29.6501
 -29.8052
 -27.1747
 -27.228
 -26.7626
 -27.6334
 -7.02958
 -6.74083
 -6.64012
 -7.09482
 -10.8414
 -10.2915
 -10.2597
 -10.0859
 -26.4554
 -26.0299
 -26.901
 -26.9104
 -12.7135
 -12.8569
 -12.5953
 -13.1078
 -11.8505
 -11.9923
 -11.4862
 -11.5236
 -30.4602
 -30.6531
 -30.3334
 -30.3545
 -16.1445
 -15.957
 -16.1364
 -16.3684
 -14.8366
 -14.9993
 -14.888
 -14.5043
 -23.1775
 -23.394
 -23.6117
 -23.0747
 -19.2847
 -19.0425
 -18.8799
 -18.5092
 -12.813
 -12.8513
 -12.28
 -10.8633
 -11.2209
 -10.994
 -11.648
 -6.10223
 -5.92683
 -5.91533
 -6.38825
 -11.4284
 -11.6869
 -11.7742
 -11.855
 -15.5852
 -15.2694
 -15.487
 -15.1335
 -30.068
 -30.3084
 -30.2675
 -29.5342
 -11.6019
 -12.3801
 -11.9671
 -11.918
 -7.22065
 -7.20447
 -6.94735
 -6.72993
 -20.5546
 -21.2176
 -20.9023
 -20.4616
 -18.1016
 -17.9514
 -17.6667
 -15.6985
 -16.379
 -16.5577
 -16.7253
 -5.71543
 -5.68797
 -5.70977
 -5.95843
 -16.5546
 -16.071
 -16.2344
 -15.914
 -29.4564
 -29.4978
 -29.4682
 -29.5597
 -15.9866
 -15.8973
 -16.1371
 -16.2193
 -7.71151
 -7.51599
 -7.64632
 -7.75032
 -9.12981
 -9.4096
 -9.11859
 -8.80052
 -33.241
 -33.047
 -33.2357
 -33.2208
 -10.5068
 -10.6105
 -10.5406
 -9.97893
 -17.9643
 -17.1398
 -17.3344
 -17.6251
 -33.0118
 -33.0975
 -32.7917
 -32.6892
 -27.623
 -28.542
 -27.9708
 -20.7157
 -20.6592
 -21.4169
 -21.6334
 -25.5968
 -25.8071
 -26.5357
 -25.3739
 -3.29675
 -3.50045
 -3.67877
 -3.60958
 -9.25139
 -9.67692
 -9.06175
 -28.8924
 -29.4579
 -29.3258
 -29.5189
 -17.718
 -17.5097
 -18.0901
 -17.285
 -22.7675
 -22.5608
 -23.4022
 -22.1332
 -7.70503
 -7.66778
 -7.36499
 -7.23122
 -12.5865
 -13.1747
 -12.5353
 -12.9387
 -19.088
 -18.1323
 -18.4852
 -6.58816
 -6.70113
 -6.8532
 -6.83009
 -8.89507
 -8.20043
 -8.41419
 -8.28404
 -11.9488
 -28.9584
 -29.3742
 -28.9971
 -29.447
 -3.80053
 -3.79097
 -3.54398
 -3.54722
 -22.8307
 -23.9755
 -23.4313
 -24.1248
 -18.2904
 -17.8798
 -17.9808
 -17.402
 -2.2726
 -24.3971
 -23.9483
 -24.7292
 -28.8086
 -29.6269
 -29.1151
 -29.1706
 -14.0643
 -14.055
 -14.8486
 -14.3216
 -19.7309
 -19.7285
 -20.1931
 -19.3938
 -9.64264
 -9.2698
 -14.9888
 -14.7412
 -14.706
 -15.2485
 -9.65828
 -9.41082
 -9.17529
 -9.48096
 -11.0406
 -10.8683
 -11.4789
 -11.4885
 -20.9089
 -20.4404
 -20.8926
 -21.0255
 -4.75453
 -4.71131
 -4.70265
 -5.07499
 -8.52085
 -8.33469
 -8.4748
 -8.24332
 -5.38684
 -5.60926
 -7.50544
 -7.51093
 -7.5391
 -7.51201
 -7.0624
 -6.82428
 -7.18617
 -6.89174
 -30.3273
 -30.0821
 -29.5165
 -29.5387
 -17.353
 -17.3067
 -17.0702
 -17.9188
 -12.4193
 -13.0942
 -12.6744
 -12.7066
 -15.7364
 -15.5215
 -15.3862
 -15.8932
 -29.7259
 -29.5762
 -6.47124
 -6.32524
 -6.35858
 -6.47177
 -29.5542
 -29.7299
 -29.2012
 -4.1333
 -4.05968
 -4.11636
 -3.97766
 -27.9126
 -27.0827
 -27.7022
 -27.3123
 -11.3013
 -11.0052
 -11.4237
 -10.9618
 -13.712
 -13.7123
 -13.5247
 -28.9405
 -28.5572
 -28.7405
 -29.055
 -17.074
 -16.5223
 -17.1007
 -16.7033
 -13.8806
 -14.1573
 -14.5357
 -14.101
 -11.4672
 -11.2506
 -12.6298
 -11.83
 -12.3819
 -12.1079
 -18.2304
 -17.5899
 -17.9164
 -30.3115
 -29.5444
 -29.4318
 -30.2059
 -13.5044
 -13.8143
 -13.4461
 -13.6151
 -12.5998
 -12.307
 -10.7411
 -10.3602
 -10.2416
 -10.6503
 -4.62594
 -4.67188
 -4.97534
 -17.0819
 -17.2233
 -16.4737
 -16.469
 -29.9793
 -30.0504
 -30.0466
 -5.371
 -5.23145
 -5.37475
 -13.3952
 -13.0654
 -13.2924
 -12.8528
 -19.6929
 -19.7595
 -19.0713
 -19.3074
 -3.43374
 -3.3131
 -3.39604
 -3.46415
 -25.8992
 -26.1275
 -25.7948
 -25.6709
 -20.1738
 -19.8044
 -19.8621
 -19.5526
 -24.2863
 -24.4704
 -24.0482
 -28.6298
 -28.8205
 -29.5411
 -29.0003
 -15.446
 -14.8019
 -15.3615
 -15.4816
 -28.6977
 -28.4403
 -28.364
 -28.1422
 -11.4158
 -11.2985
 -11.5877
 -11.078
 -30.1125
 -18.9481
 -14.7227
 -14.5364
 -15.0032
 -14.3952
 -18.2325
 -18.0498
 -17.6356
 -17.5128
 -21.8096
 -21.937
 -21.5325
 -21.0899
 -18.4403
 -18.247
 -18.8635
 -18.5658
 -22.5508
 -22.1261
 -22.6537
 -22.5784
 -14.7345
 -14.415
 -14.5618
 -15.0138
 -13.9518
 -14.0733
 -14.1799
 -14.4158
 -12.4928
 -12.3505
 -12.203
 -12.7375
 -14.2258
 -14.2038
 -13.7622
 -8.15009
 -8.2099
 -8.15735
 -8.41571
 -15.3042
 -19.5732
 -20.2391
 -20.3204
 -20.0866
 -29.3208
 -29.3807
 -28.5724
 -10.8839
 -10.2798
 -10.5015
 -10.3315
 -15.9673
 -16.635
 -16.4051
 -18.3751
 -18.1715
 -17.8972
 -17.7306
 -19.8275
 -20.1117
 -20.6789
 -20.8987
 -26.9183
 -27.2587
 -27.7045
 -27.0942
 -9.39721
 -9.32355
 -9.56788
 -9.00053
 -16.0719
 -15.7438
 -15.6961
 -15.4178
 -14.2929
 -14.0704
 -13.7067
 -14.3333
 -13.8195
 -13.5658
 -13.4529
 -13.143
 -14.9395
 -14.7829
 -15.0923
 -14.5051
 -21.6754
 -20.5876
 -21.86
 -21.0884
 -13.8292
 -13.0853
 -13.3633
 -13.4939
 -6.38301
 -6.39518
 -6.37729
 -6.48269
 -5.75156
 -5.94842
 -5.88141
 -14.9027
 -15.002
 -15.4251
 -15.5464
 -15.1916
 -15.2766
 -15.5618
 -15.7837
 -14.128
 -13.7018
 -14.4339
 -14.4016
 -28.375
 -28.5263
 -27.6615
 -27.7843
 -21.9166
 -21.3466
 -21.223
 -21.875
 -10.3662
 -10.6333
 -10.556
 -10.6674
 -8.06768
 -8.50287
 -8.41952
 -7.88124
 -26.5889
 -26.3205
 -25.9393
 -26.585
 -3.96942
 -3.73026
 -3.79145
 -4.10509
 -11.7718
 -12.2108
 -11.9605
 -11.9089
 -7.35323
 -7.55797
 -7.51916
 -9.21821
 -9.41403
 -9.47941
 -9.80738
 -20.833
 -20.7421
 -21.2262
 -20.1925
 -9.22131
 -8.74222
 -8.88862
 -9.08141
 -5.96135
 -6.64553
 -6.18791
 -3.48367
 -3.73691
 -3.88925
 -3.74914
 -31.221
 -31.4251
 -31.5336
 -32.0373
 -9.88104
 -9.61174
 -9.82008
 -9.98979
 -17.4481
 -16.6855
 -16.8492
 -17.2623
 -27.7254
 -27.4209
 -26.8521
 -27.3475
 -24.0817
 -24.7762
 -23.8147
 -24.143
 -10.1913
 -10.296
 -10.0014
 -10.1776
 -6.95276
 -6.59131
 -6.28525
 -6.6802
 -16.647
 -16.9731
 -16.3708
 -16.6672
 -7.14625
 -7.56464
 -12.8521
 -12.1358
 -12.3045
 -12.6564
 -13.2903
 -13.2486
 -12.967
 -13.4432
 -12.6537
 -12.6913
 -12.4545
 -8.05768
 -8.1794
 -8.05954
 -17.6998
 -17.7166
 -17.9448
 -18.0915
 -16.9519
 -16.8657
 -16.5166
 -17.4044
 -10.1968
 -10.6479
 -10.4268
 -10.2525
 -22.2742
 -22.8515
 -22.0009
 -22.2247
 -14.6892
 -14.0474
 -14.3887
 -14.8665
 -7.88865
 -7.8862
 -7.82643
 -7.87526
 -12.0401
 -12.4356
 -12.0867
 -17.4578
 -17.4021
 -16.9406
 -17.2859
 -15.3872
 -15.7499
 -16.0214
 -30.9056
 -30.8465
 -30.614
 -30.503
 -5.36685
 -5.19418
 -5.40652
 -4.95941
 -11.4168
 -11.8341
 -11.811
 -11.5023
 -10.9757
 -10.8842
 -10.5355
 -11.003
 -31.2665
 -31.1422
 -31.8396
 -32.234
 -23.3613
 -23.6828
 -23.6068
 -9.48224
 -9.45612
 -9.24284
 -9.49598
 -23.2025
 -22.4963
 -22.7828
 -9.87272
 -9.92522
 -9.63271
 -9.71406
 -1.27302
 -1.42629
 -1.32076
 -1.45474
 -28.0607
 -28.2589
 -28.7839
 -27.9043
 -8.12397
 -8.01333
 -7.85727
 -7.59215
 -30.5745
 -30.5036
 -30.401
 -30.5057
 -9.00768
 -9.42517
 -9.08535
 -9.30135
 -1.45986
 -1.15068
 -1.38571
 -1.40835
 -6.34615
 -6.0532
 -6.33817
 -6.45281
 -8.31044
 -8.55313
 -8.80391
 -8.24748
 -14.5605
 -13.8922
 -7.95621
 -8.04599
 -7.45833
 -7.53649
 -18.0275
 -17.6628
 -17.5085
 -17.1815
 -14.0476
 -14.0508
 -13.8645
 -14.532
 -27.5061
 -26.7449
 -27.9563
 -28.0877
 -25.9286
 -25.7044
 -26.3199
 -26.2416
 -24.4045
 -23.7242
 -24.2613
 -23.8306
 -26.9224
 -27.0557
 -27.2268
 -26.7672
 -19.7746
 -19.6703
 -20.1937
 -19.7769
 -24.7295
 -25.384
 -25.2236
 -25.0011
 -5.67429
 -5.24889
 -5.20676
 -5.70526
 -26.2909
 -26.7123
 -26.5936
 -26.4962
 -12.65
 -12.2773
 -12.0114
 -12.191
 -22.9501
 -21.9529
 -22.1351
 -26.0771
 -26.6392
 -26.6927
 -26.5119
 -8.26663
 -7.86806
 -7.83862
 -7.99622
 -6.34343
 -6.25387
 -6.10468
 -6.17556
 -20.8712
 -20.7932
 -20.4687
 -21.4184
 -13.0296
 -12.9888
 -12.9095
 -12.5915
 -19.9793
 -19.6467
 -19.9267
 -19.7576
 -19.757
 -19.7192
 -20.8589
 -11.9837
 -11.8626
 -11.5039
 -19.4033
 -19.7211
 -16.2095
 -15.5358
 -30.1522
 -30.5556
 -30.5183
 -30.1776
 -15.5516
 -15.7466
 -15.4302
 -16.0366
 -19.316
 -19.098
 -19.8607
 -19.0848
 -17.4115
 -17.7005
 -17.3835
 -17.8797
 -24.7739
 -23.4262
 -23.6882
 -23.2818
 -23.1711
 -13.2741
 -13.4165
 -12.9333
 -12.9329
 -7.55321
 -7.55418
 -7.55502
 -7.57045
 -19.408
 -18.8632
 -19.4858
 -19.1302
 -20.1288
 -19.9003
 -19.6316
 -20.3875
 -2.00375
 -2.1935
 -2.27964
 -2.45399
 -14.9081
 -15.3758
 -15.0897
 -14.7879
 -14.3886
 -13.965
 -13.7731
 -14.1798
 -19.0706
 -18.6365
 -8.31701
 -8.39809
 -8.53565
 -8.35061
 -11.1751
 -11.4069
 -11.308
 -11.0698
 -8.84908
 -8.68933
 -8.57757
 -8.60992
 -10.5755
 -10.8594
 -10.8081
 -10.5043
 -8.9123
 -8.87661
 -8.71801
 -8.94191
 -23.7185
 -23.3345
 -23.5137
 -23.9668
 -26.2681
 -26.1138
 -25.5032
 -25.9064
 -10.067
 -9.87546
 -9.64927
 -10.0519
 -14.9099
 -14.5222
 -14.9037
 -14.6351
 -24.4105
 -23.7577
 -24.3292
 -24.0079
 -13.077
 -12.7636
 -12.7406
 -13.3416
 -9.98753
 -10.2969
 -6.8096
 -6.9522
 -7.0283
 -6.76569
 -14.0769
 -13.9133
 -13.5427
 -13.3705
 -24.5602
 -24.2899
 -24.3819
 -25.1203
 -29.737
 -29.294
 -29.4554
 -29.7706
 -2.74696
 -2.73217
 -12.581
 -13.0196
 -13.1095
 -13.3101
 -11.8991
 -11.2756
 -11.6692
 -11.6944
 -11.449
 -11.3453
 -9.11893
 -9.29834
 -9.26885
 -9.41017
 -14.0633
 -14.5053
 -14.7421
 -5.71753
 -5.93451
 -5.9509
 -6.11636
 -26.3696
 -26.8412
 -25.8719
 -26.4785
 -29.4874
 -29.4195
 -29.3543
 -31.3105
 -30.9455
 -30.3771
 -30.8585
 -17.0252
 -17.8488
 -17.5986
 -17.6568
 -14.7761
 -15.4351
 -14.566
 -15.1243
 -22.5249
 -23.4631
 -23.7696
 -23.2525
 -18.9202
 -18.7852
 -19.3671
 -18.8512
 -17.9998
 -18.512
 -18.2048
 -15.7734
 -15.8523
 -15.597
 -16.285
 -21.1357
 -22.4067
 -21.9314
 -21.2511
 -13.1298
 -12.821
 -13.0878
 -13.176
 -15.224
 -15.0922
 -15.6998
 -14.9672
 -19.6807
 -19.5311
 -19.2124
 -19.7202
 -14.8692
 -14.5673
 -14.4262
 -14.9581
 -1.54867
 -1.47006
 -1.75417
 -1.73851
 -9.42964
 -9.27553
 -9.2543
 -9.01846
 -21.0508
 -21.0018
 -21.7511
 -21.8404
 -9.13088
 -9.18552
 -8.70646
 -8.57178
 -8.11225
 -7.64083
 -8.12294
 -8.43655
 -25.0286
 -24.8592
 -25.2541
 -24.4451
 -24.0665
 -23.377
 -24.0254
 -23.8241
 -26.6822
 -26.0845
 -26.5971
 -26.8658
 -21.938
 -21.9278
 -22.5168
 -22.2454
 -12.4859
 -12.3488
 -12.0839
 -12.3472
 -9.6053
 -9.46357
 -9.77324
 -9.38109
 -20.0456
 -19.1288
 -20.1256
 -19.3467
 -9.77502
 -9.90525
 -9.94276
 -9.92963
 -6.96281
 -7.04326
 -7.14771
 -7.28494
 -14.4208
 -14.8305
 -14.4791
 -14.8507
 -11.5628
 -11.2803
 -10.9762
 -11.9301
 -12.1036
 -12.6792
 -12.235
 -7.14818
 -6.93628
 -6.65585
 -6.93083
 -9.94246
 -9.87875
 -9.73023
 -9.80127
 -20.721
 -21.0988
 -20.7656
 -20.952
 -15.5701
 -16.0158
 -16.1385
 -31.7454
 -31.2124
 -31.3575
 -31.5977
 -28.0386
 -28.6002
 -29.0645
 -28.3987
 -11.4526
 -11.7954
 -11.2721
 -11.7691
 -16.4741
 -16.9038
 -7.69892
 -7.66348
 -7.28842
 -7.82936
 -15.6101
 -15.076
 -14.8975
 -15.3456
 -26.532
 -26.7399
 -26.1346
 -26.6804
 -9.60546
 -9.69563
 -9.80999
 -12.8174
 -12.9556
 -13.012
 -12.4221
 -11.634
 -12.1905
 -12.1485
 -12.0409
 -14.5249
 -15.0229
 -15.1126
 -14.4668
 -13.7587
 -14.047
 -14.3981
 -13.9913
 -15.4125
 -15.6954
 -15.3011
 -15.8543
 -13.2996
 -13.65
 -22.9829
 -22.5329
 -23.5272
 -22.8212
 -13.635
 -13.1961
 -13.3524
 -13.6461
 -17.9751
 -17.184
 -17.5547
 -13.4979
 -13.9565
 -13.6392
 -13.9103
 -18.1255
 -17.8196
 -17.5129
 -17.9169
 -9.12682
 -8.75712
 -9.03811
 -8.56315
 -13.3346
 -13.2449
 -13.805
 -16.7259
 -16.8383
 -17.4463
 -16.4084
 -14.1687
 -14.06
 -14.4056
 -8.82047
 -8.93893
 -8.62119
 -18.6435
 -18.5399
 -18.4892
 -17.885
 -14.5709
 -14.938
 -15.0182
 -2.83874
 -2.93109
 -3.03832
 -2.60152
 -18.8719
 -18.4539
 -18.1563
 -18.9614
 -11.8842
 -11.405
 -11.4757
 -11.3258
 -24.2806
 -24.2926
 -24.5528
 -24.8279
 -25.7613
 -25.2659
 -26.1035
 -25.9536
 -8.18317
 -8.66848
 -8.0584
 -8.15687
 -16.4124
 -16.057
 -15.7226
 -10.6483
 -10.2285
 -10.5319
 -10.5092
 -25.615
 -24.7065
 -25.233
 -15.19
 -15.6675
 -15.3402
 -15.7874
 -20.3741
 -20.6398
 -20.6158
 -20.4214
 -27.711
 -27.8274
 -28.2144
 -27.6624
 -0.543316
 -0.377723
 -0.413361
 -0.54217
 -10.3905
 -10.4872
 -10.7221
 -10.3486
 -16.1351
 -17.0959
 -16.7291
 -16.9569
 -6.67601
 -6.43194
 -6.31834
 -14.5431
 -14.9717
 -14.8617
 -14.43
 -28.5937
 -19.3427
 -18.8799
 -18.2419
 -18.8776
 -25.204
 -25.1851
 -25.2586
 -25.5344
 -22.46
 -22.3309
 -22.1847
 -22.7255
 -16.4133
 -16.2306
 -15.4113
 -14.8161
 -14.8495
 -14.836
 -3.33933
 -3.62304
 -3.35746
 -3.51805
 -11.1212
 -10.9617
 -10.7857
 -10.4939
 -10.4905
 -10.8033
 -10.5533
 -29.0186
 -29.8744
 -29.1447
 -28.9766
 -14.529
 -14.5051
 -15.0507
 -15.0584
 -16.3285
 -16.0988
 -15.6677
 -16.0291
 -25.9095
 -25.3789
 -26.2707
 -25.4475
 -15.0956
 -14.9622
 -15.5693
 -15.1412
 -5.50054
 -5.58227
 -5.28066
 -5.38544
 -14.0077
 -13.852
 -14.1697
 -13.9617
 -10.2442
 -10.2693
 -10.3336
 -10.5954
 -9.49718
 -9.19521
 -9.22409
 -9.38851
 -7.39573
 -7.50986
 -7.38291
 -7.3649
 -4.85779
 -4.72141
 -4.63951
 -5.0526
 -30.8704
 -30.5444
 -30.7089
 -30.5233
 -3.97854
 -4.08451
 -3.79316
 -4.2097
 -14.5742
 -14.2396
 -14.5779
 -14.1443
 -30.2222
 -30.2929
 -29.7802
 -29.9489
 -12.3749
 -12.2479
 -12.5447
 -12.6656
 -7.49612
 -27.3117
 -26.9634
 -27.0835
 -27.8536
 -9.02272
 -5.34142
 -5.73044
 -5.76321
 -5.3932
 -17.1978
 -17.9179
 -22.8766
 -22.1331
 -23.1364
 -22.3203
 -24.72
 -24.7094
 -25.1308
 -25.0327
 -31.5837
 -31.0494
 -31.7127
 -23.082
 -23.8939
 -23.769
 -23.6355
 -12.5685
 -29.4901
 -19.9984
 -19.8634
 -19.6283
 -29.5306
 -29.9321
 -30.0154
 -29.8426
 -12.6511
 -12.588
 -12.6109
 -12.2847
 -10.3368
 -10.4847
 -10.1097
 -10.0034
 -19.4763
 -19.0737
 -19.2817
 -20.1407
 -28.5601
 -28.9541
 -28.3139
 -28.1627
 -26.6873
 -26.5159
 -26.8304
 -26.4577
 -17.9507
 -18.8877
 -18.7769
 -4.70879
 -4.50146
 -5.11422
 -4.69768
 -0.802038
 -1.081
 -0.929924
 -1.04799
 -6.90271
 -6.49297
 -6.41601
 -6.6491
 -15.7921
 -16.2712
 -15.7334
 -5.66201
 -5.95557
 -5.8397
 -5.61473
 -23.5402
 -23.3453
 -24.0765
 -24.1788
 -24.226
 -23.8614
 -24.1613
 -9.06804
 -8.91849
 -20.5797
 -20.8727
 -33.0827
 -32.801
 -33.1664
 -30.9281
 -31.2254
 -31.1026
 -31.3659
 -13.3572
 -12.9704
 -13.6462
 -13.3256
 -10.9707
 -10.8846
 -10.6822
 -11.1703
 -14.2135
 -14.195
 -14.7089
 -14.5252
 -30.3392
 -30.2606
 -30.4589
 -30.3055
 -20.5722
 -20.9434
 -20.7402
 -20.3503
 -7.30562
 -7.27235
 -7.30332
 -7.53807
 -20.7862
 -21.0458
 -20.5742
 -21.2015
 -16.7027
 -16.806
 -16.2961
 -16.9439
 -19.611
 -20.0007
 -19.9687
 -0.11667
 -0.165697
 -0.195238
 -10.8744
 -10.6326
 -12.6829
 -12.6889
 -12.3012
 -12.9498
 -22.4958
 -23.193
 -22.6793
 -22.4809
 -20.7934
 -21.0132
 -21.7522
 -21.3001
 -21.308
 -20.9724
 -22.035
 -3.21451
 -3.20184
 -7.18071
 -7.12472
 -7.31001
 -7.21041
 -16.6252
 -3.01457
 -2.73877
 -2.84623
 -2.86362
 -10.1133
 -10.5788
 -10.2435
 -10.1757
 -13.3015
 -13.047
 -4.96211
 -5.52486
 -5.47594
 -5.17764
 -30.8488
 -31.4395
 -31.2933
 -30.9681
 -28.3918
 -28.6801
 -28.4434
 -29.1123
 -8.56008
 -9.24941
 -8.72192
 -9.07096
 -10.8338
 -10.6142
 -11.3912
 -11.2412
 -10.9257
 -10.7143
 -10.9311
 -21.7416
 -22.1905
 -21.2366
 -21.7509
 -7.44819
 -7.70399
 -7.86031
 -7.89433
 -14.3762
 -14.5164
 -14.3042
 -18.7685
 -18.967
 -19.1796
 -19.687
 -10.6905
 -10.7828
 -11.0334
 -10.8629
 -9.4134
 -9.77227
 -10.0239
 -9.60109
 -9.46067
 -9.20399
 -9.28065
 -9.58308
 -12.3106
 -12.4428
 -12.878
 -12.5142
 -18.732
 -18.3262
 -10.2127
 -10.2789
 -10.3746
 -10.0366
 -31.4431
 -30.4869
 -30.6749
 -30.7145
 -8.92702
 -9.1334
 -8.94841
 -9.18001
 -6.06051
 -5.9608
 -6.30834
 -6.15323
 -16.8259
 -16.828
 -4.18692
 -4.23401
 -3.98432
 -4.31349
 -11.5817
 -11.9284
 -11.3919
 -28.9304
 -28.8468
 -29.2166
 -29.2532
 -4.57279
 -4.41601
 -4.52241
 -9.29391
 -9.25873
 -9.59854
 -9.46691
 -5.11398
 -9.16847
 -8.99743
 -9.08189
 -8.71173
 -15.0162
 -14.6651
 -15.0918
 -15.0359
 -12.8614
 -12.9664
 -13.2195
 -12.8334
 -29.5873
 -30.2679
 -15.9107
 -16.2476
 -16.1291
 -15.9345
 -8.84417
 -8.40135
 -8.91396
 -8.36659
 -11.1067
 -11.9603
 -11.497
 -11.1556
 -26.994
 -26.5822
 -26.5922
 -26.7097
 -13.0657
 -13.3011
 -13.746
 -13.5438
 -16.9249
 -24.6254
 -24.9051
 -24.3533
 -11.2255
 -11.3401
 -10.9118
 -11.4742
 -20.4783
 -20.2646
 -20.5353
 -19.899
 -11.8973
 -11.5376
 -11.6095
 -12.0433
 -29.3484
 -28.8066
 -28.5699
 -29.0909
 -32.6798
 -32.8929
 -32.5891
 -9.35243
 -9.58824
 -9.949
 -9.7083
 -18.1545
 -18.3459
 -17.694
 -17.9593
 -19.9473
 -20.1717
 -20.5251
 -20.7741
 -10.595
 -10.6603
 -9.33855
 -9.19815
 -9.06794
 -9.47826
 -12.2373
 -12.9459
 -17.2507
 -17.477
 -17.1856
 -16.9932
 -18.4873
 -18.6962
 -19.1709
 -18.4938
 -12.5109
 -12.7814
 -13.1211
 -12.8601
 -16.6926
 -16.734
 -16.7523
 -25.8799
 -25.2024
 -24.9485
 -25.3524
 -22.5989
 -22.3693
 -22.7265
 -12.4694
 -13.0771
 -12.3728
 -12.7975
 -9.68268
 -9.1971
 -8.98162
 -9.52428
 -20.1821
 -19.4526
 -19.5285
 -19.9391
 -13.0199
 -12.9598
 -12.4492
 -7.68299
 -7.64413
 -7.69533
 -7.65224
 -10.6989
 -10.6651
 -10.8351
 -10.9702
 -23.532
 -23.1753
 -22.9147
 -31.3558
 -30.7365
 -30.9191
 -19.6073
 -19.8989
 -19.969
 -10.6745
 -10.306
 -10.8248
 -10.4675
 -31.3499
 -31.5281
 -31.3468
 -31.6453
 -18.8292
 -18.4706
 -18.7557
 -19.1918
 -24.4872
 -24.7715
 -25.576
 -25.5063
 -23.6937
 -24.0767
 -23.7551
 -23.8207
 -6.12415
 -5.80736
 -5.8542
 -12.2212
 -12.3335
 -12.0305
 -12.3739
 -24.6358
 -24.8582
 -24.3261
 -24.3473
 -13.6965
 -13.9057
 -13.9484
 -14.4626
 -20.7596
 -20.7741
 -20.6751
 -20.0313
 -27.2418
 -27.7112
 -7.22424
 -7.47455
 -7.42813
 -7.58335
 -22.0897
 -21.679
 -22.6332
 -21.9147
 -12.3544
 -12.1974
 -12.0351
 -12.4925
 -19.7645
 -18.9399
 -30.4305
 -30.404
 -29.8262
 -30.545
 -24.3311
 -25.1731
 -24.0485
 -25.4114
 -31.6205
 -31.7819
 -32.2062
 -32.3277
 -21.7896
 -21.7732
 -22.1002
 -19.7912
 -20.5818
 -20.5011
 -20.2187
 -20.4159
 -20.0267
 -20.2532
 -19.5888
 -10.0633
 -10.1717
 -9.82813
 -9.71809
 -5.4516
 -5.32307
 -5.66812
 -14.7999
 -14.814
 -14.8897
 -25.7716
 -25.099
 -25.4711
 -24.959
 -12.6232
 -12.9221
 -13.3206
 -12.9475
 -8.88087
 -8.42519
 -8.52258
 -8.91274
 -15.0976
 -14.6162
 -14.3365
 -14.3783
 -11.7404
 -12.3314
 -11.7666
 -30.6554
 -30.8361
 -30.0888
 -30.0347
 -7.59064
 -7.69859
 -8.52188
 -8.72061
 -8.74411
 -20.9821
 -21.2203
 -20.5826
 -21.6203
 -14.4042
 -15.0152
 -14.9182
 -14.8123
 -8.33958
 -8.40999
 -8.68041
 -8.39733
 -16.4332
 -15.4931
 -15.5808
 -16.0916
 -11.3542
 -11.04
 -11.5841
 -11.5798
 -26.7941
 -27.0723
 -28.0097
 -10.7435
 -10.7019
 -11.0126
 -10.9824
 -16.2439
 -16.65
 -8.10234
 -8.5106
 -8.35987
 -8.1713
 -8.66697
 -8.33293
 -8.4957
 -8.36006
 -27.3726
 -27.0873
 -9.20031
 -9.54604
 -9.34864
 -9.04533
 -15.1617
 -14.6941
 -14.9282
 -15.208
 -12.0254
 -5.94709
 -5.6487
 -5.74503
 -16.9502
 -16.7983
 -16.9204
 -16.5112
 -28.0043
 -28.0729
 -27.6598
 -28.3461
 -6.12345
 -6.22058
 -6.30233
 -5.99733
 -8.70491
 -8.96026
 -8.62372
 -8.69297
 -19.5724
 -19.8183
 -19.8349
 -6.51607
 -6.51051
 -6.73624
 -6.7996
 -31.4746
 -30.9884
 -31.1651
 -31.6095
 -7.29011
 -7.49584
 -7.5761
 -7.14994
 -18.9295
 -18.335
 -18.7531
 -19.3147
 -12.1908
 -12.5132
 -12.3796
 -12.0917
 -8.36579
 -8.49472
 -8.40499
 -11.4936
 -11.9713
 -11.4759
 -11.8617
 -8.18851
 -7.89894
 -8.09771
 -8.09423
 -8.91101
 -8.66605
 -8.8127
 -22.5377
 -21.9071
 -22.6817
 -21.6746
 -21.0927
 -14.1471
 -15.142
 -14.4787
 -14.5091
 -29.0024
 -28.8174
 -28.3636
 -28.8105
 -17.0466
 -17.694
 -16.7177
 -17.4888
 -18.7499
 -19.1842
 -18.7222
 -18.5923
 -8.62957
 -8.48806
 -8.84338
 -9.32884
 -9.19703
 -18.639
 -17.9565
 -18.4159
 -18.8052
 -28.4758
 -29.3444
 -15.6991
 -15.8567
 -15.3238
 -15.951
 -8.12103
 -8.04798
 -8.31448
 -26.5579
 -27.0809
 -26.4282
 -26.665
 -15.7595
 -15.0404
 -15.306
 -15.4252
 -8.48657
 -8.31577
 -8.49941
 -8.62596
 -14.4025
 -14.3405
 -15.0636
 -14.5397
 -18.4055
 -19.4134
 -6.74514
 -6.59161
 -6.66707
 -6.51249
 -9.08644
 -9.71656
 -9.94195
 -9.76487
 -10.0616
 -9.95406
 -9.82576
 -9.36597
 -9.47884
 -9.73301
 -15.4983
 -15.3854
 -15.3262
 -17.684
 -17.4606
 -17.234
 -16.9965
 -10.0409
 -9.98373
 -10.0585
 -10.0057
 -12.3637
 -12.2538
 -16.3979
 -16.0454
 -16.3121
 -15.9502
 -16.4879
 -16.5165
 -14.271
 -14.7744
 -14.8849
 -14.3624
 -4.17992
 -4.55296
 -4.48606
 -4.63563
 -16.2197
 -8.19645
 -8.48393
 -8.27786
 -8.20312
 -30.4307
 -30.9512
 -30.3765
 -21.3852
 -21.274
 -20.8166
 -21.4664
 -14.0867
 -14.3149
 -14.1229
 -13.4412
 -15.6278
 -16.0264
 -15.381
 -9.21926
 -9.49635
 -9.36488
 -9.16426
 -26.9391
 -27.4559
 -26.4117
 -27.125
 -19.0154
 -18.7936
 -19.2692
 -19.0549
 -27.0503
 -27.3319
 -26.3001
 -26.8635
 -7.42016
 -7.44184
 -7.175
 -7.19368
 -9.91146
 -10.2002
 -22.3357
 -22.0871
 -21.7947
 -22.2131
 -28.4216
 -28.4378
 -28.6011
 -28.2285
 -32.8443
 -33.0963
 -32.5936
 -33.1631
 -27.8029
 -27.268
 -27.7435
 -18.6013
 -19.178
 -18.5265
 -18.9261
 -28.1779
 -28.4811
 -28.578
 -28.486
 -7.38169
 -7.65273
 -7.94475
 -7.60403
 -24.6436
 -25.195
 -25.2855
 -18.788
 -18.6026
 -18.4295
 -18.3931
 -8.12379
 -7.9993
 -8.12802
 -7.91291
 -19.6137
 -20.2219
 -19.8914
 -19.9203
 -17.1373
 -17.566
 -17.7692
 -17.1862
 -10.3726
 -10.5207
 -10.7882
 -11.0206
 -7.09398
 -7.15165
 -6.78823
 -6.80745
 -13.056
 -13.1919
 -13.5821
 -13.1389
 -3.56628
 -3.60758
 -4.03639
 -3.80192
 -8.78012
 -9.01713
 -8.74787
 -9.5474
 -9.16906
 -9.14771
 -9.0438
 -2.42946
 -2.50384
 -2.23166
 -2.5664
 -26.5673
 -26.145
 -26.2354
 -23.6851
 -23.7933
 -24.362
 -24.2569
 -9.86262
 -10.4636
 -10.2681
 -5.55416
 -5.67066
 -5.4974
 -7.12587
 -6.85875
 -7.14466
 -7.18444
 -10.0875
 -10.0387
 -10.3493
 -9.78427
 -18.9596
 -19.8523
 -19.4338
 -19.3116
 -4.29483
 -4.25677
 -4.44206
 -4.13728
 -17.7628
 -16.8643
 -16.7899
 -17.5608
 -23.5851
 -23.9336
 -23.076
 -23.5783
 -16.5792
 -16.5198
 -17.3835
 -16.9449
 -13.2812
 -12.9318
 -13.6073
 -8.39103
 -8.35709
 -8.40098
 -8.58388
 -27.3413
 -27.808
 -28.0599
 -27.7556
 -24.79
 -25.162
 -24.69
 -24.2683
 -10.1729
 -10.477
 -10.2797
 -10.0072
 -28.5678
 -28.9101
 -29.237
 -28.3158
 -29.2742
 -28.6098
 -28.6567
 -29.2627
 -29.239
 -28.7776
 -28.9426
 -4.84509
 -4.76751
 -2.39467
 -2.45648
 -2.30161
 -2.62649
 -18.0895
 -17.8376
 -17.4472
 -14.2272
 -13.908
 -14.6343
 -14.0033
 -15.261
 -15.8344
 -15.6629
 -15.3245
 -0.278041
 -12.7634
 -17.5391
 -18.0813
 -24.768
 -25.0973
 -24.9882
 -24.8933
 -5.57167
 -11.5994
 -11.9698
 -11.5896
 -33.3709
 -33.132
 -33.1526
 -33.1442
 -15.3808
 -15.0087
 -15.4045
 -15.853
 -28.9919
 -28.6986
 -29.1312
 -28.457
 -13.2152
 -13.7256
 -12.8026
 -11.9753
 -12.5107
 -12.1672
 -26.888
 -26.9666
 -26.2813
 -26.9868
 -17.777
 -17.4195
 -17.0299
 -16.8239
 -7.51999
 -7.29433
 -7.73131
 -7.65051
 -24.0773
 -25.1484
 -24.75
 -29.4225
 -30.2903
 -30.2963
 -29.4473
 -24.264
 -24.0653
 -23.6496
 -24.1015
 -9.89439
 -9.85904
 -10.5466
 -9.82221
 -10.7075
 -10.4346
 -10.4871
 -10.479
 -26.9662
 -27.3801
 -27.3557
 -27.4154
 -12.6179
 -12.7277
 -12.2625
 -22.7623
 -22.7885
 -22.603
 -22.2198
 -8.15355
 -8.47661
 -7.98015
 -8.03293
 -18.3283
 -18.648
 -17.8377
 -18.1693
 -7.91446
 -8.14937
 -7.91881
 -7.9331
 -16.2143
 -16.5145
 -16.0423
 -16.3672
 -23.4227
 -23.4147
 -23.9967
 -23.0251
 -7.24408
 -7.14111
 -7.37674
 -15.5699
 -16.0397
 -25.6853
 -25.4451
 -25.3194
 -24.9361
 -12.6069
 -12.3288
 -12.2814
 -7.57952
 -7.28768
 -7.20648
 -7.34917
 -20.0027
 -20.2263
 -19.9801
 -20.4578
 -18.4776
 -18.4184
 -19.3413
 -18.6566
 -1.22252
 -1.22598
 -1.47767
 -1.29353
 -15.0904
 -14.4985
 -14.8348
 -3.22783
 -3.45788
 -3.54422
 -15.2611
 -15.1088
 -14.8219
 -15.163
 -14.6073
 -7.44941
 -7.56148
 -7.04387
 -7.24003
 -13.372
 -13.8562
 -13.9839
 -24.7856
 -24.8147
 -24.8204
 -24.5007
 -13.9451
 -14.1769
 -14.4587
 -14.4502
 -14.5789
 -14.4041
 -14.3228
 -32.4832
 -32.2953
 -32.2161
 -31.8844
 -9.30159
 -10.0261
 -9.86293
 -9.65364
 -6.73918
 -6.74911
 -6.87706
 -6.87336
 -11.7503
 -11.6206
 -12.2635
 -11.7983
 -26.0785
 -26.2292
 -26.4622
 -25.5602
 -1.07141
 -1.28524
 -1.08856
 -1.39919
 -22.8568
 -22.1462
 -22.5298
 -22.5596
 -6.63015
 -6.42312
 -6.59551
 -6.54373
 -24.805
 -23.3386
 -23.8012
 -24.4746
 -22.282
 -21.9685
 -21.6266
 -21.9978
 -22.8289
 -23.1009
 -10.0573
 -9.79717
 -9.76831
 -9.98648
 -27.4662
 -27.6098
 -27.5388
 -21.8019
 -20.9593
 -21.2744
 -21.9568
 -9.32216
 -9.6971
 -9.44606
 -9.10892
 -11.5074
 -11.3466
 -11.8615
 -0.101897
 -0.110008
 -0.0271754
 -0.105206
 -14.4601
 -13.8844
 -14.5839
 -27.7197
 -28.14
 -27.4731
 -27.3242
 -23.3553
 -22.8839
 -26.3633
 -27.0972
 -27.4383
 -26.7113
 -20.7055
 -20.7551
 -6.35568
 -6.39839
 -6.05758
 -6.61789
 -22.7455
 -22.6801
 -22.7178
 -22.0652
 -15.2562
 -15.517
 -11.3331
 -11.6134
 -11.4897
 -11.345
 -24.2997
 -24.6888
 -24.7576
 -24.6297
 -10.2291
 -9.54986
 -9.60047
 -10.0936
 -27.063
 -27.0715
 -27.7236
 -28.3619
 -17.075
 -17.1933
 -16.6247
 -6.07365
 -5.93764
 -5.88626
 -6.07069
 -18.8099
 -18.7508
 -18.5113
 -18.1425
 -9.30033
 -8.94039
 -8.88788
 -8.7143
 -9.74415
 -9.28071
 -9.59197
 -0.832162
 -0.806009
 -0.837141
 -0.970238
 -7.14432
 -7.60809
 -7.72716
 -7.30839
 -23.2021
 -22.9387
 -23.5613
 -22.884
 -14.608
 -14.7958
 -14.2547
 -11.9796
 -8.35221
 -8.53836
 -8.41738
 -8.63641
 -12.481
 -12.0961
 -12.4412
 -12.6247
 -21.0115
 -21.9679
 -22.0507
 -21.1752
 -8.05814
 -8.07339
 -8.70931
 -5.5302
 -16.9182
 -17.1326
 -16.5381
 -17.4198
 -8.50232
 -8.96248
 -2.85405
 -2.6409
 -8.32607
 -8.60764
 -8.33547
 -7.95886
 -20.9161
 -21.4081
 -25.7497
 -25.6924
 -25.8929
 -25.597
 -11.3999
 -11.7858
 -11.7884
 -11.7808
 -29.9243
 -30.0868
 -30.4473
 -30.153
 -11.1869
 -11.2748
 -10.4763
 -10.4858
 -22.4907
 -22.5926
 -22.1463
 -21.5229
 -9.39077
 -9.41212
 -9.60129
 -9.59882
 -22.4935
 -22.8115
 -22.0462
 -22.5148
 -12.7562
 -13.2139
 -28.3185
 -28.0181
 -20.1867
 -20.695
 -20.0065
 -20.82
 -19.9128
 -19.6356
 -19.6935
 -20.3735
 -16.1147
 -15.8168
 -16.3058
 -16.2794
 -22.3961
 -21.7322
 -22.6247
 -22.9844
 -9.22777
 -8.87615
 -9.07872
 -9.05427
 -27.8435
 -27.5726
 -27.5625
 -28.4237
 -28.8164
 -28.2561
 -28.6243
 -7.99609
 -8.36726
 -8.35407
 -8.17494
 -20.4657
 -19.8134
 -19.8944
 -20.2325
 -7.79019
 -8.12801
 -8.14666
 -8.46528
 -15.596
 -13.9259
 -14.5861
 -14.5981
 -14.0019
 -24.4522
 -24.5129
 -24.456
 -23.7922
 -3.68899
 -3.46218
 -3.60071
 -3.88051
 -20.1524
 -20.4884
 -20.8955
 -20.3673
 -15.0248
 -15.4682
 -14.494
 -14.8678
 -21.5967
 -21.1141
 -21.0261
 -20.9496
 -18.9854
 -32.5151
 -32.3409
 -31.6712
 -31.9392
 -23.0782
 -23.2023
 -22.3455
 -22.4823
 -2.81694
 -2.93108
 -3.1333
 -2.77854
 -12.7689
 -12.2891
 -12.0848
 -12.4772
 -10.6261
 -15.3258
 -15.3657
 -15.4941
 -15.9149
 -26.9335
 -26.9739
 -26.3156
 -26.0383
 -24.8098
 -24.6257
 -25.4341
 -26.7622
 -25.5254
 -26.0853
 -25.854
 -1.13022
 -1.23682
 -22.3648
 -22.1305
 -22.0496
 -10.2009
 -10.1898
 -10.0668
 -10.518
 -21.251
 -20.9541
 -21.2551
 -20.7264
 -16.0958
 -20.0766
 -19.444
 -20.0718
 -19.9529
 -28.0933
 -26.9639
 -27.3581
 -28.0128
 -19.8274
 -20.2755
 -20.961
 -19.9564
 -12.5604
 -12.7446
 -12.0971
 -13.0822
 -8.04477
 -8.10531
 -7.94906
 -8.16744
 -31.7561
 -31.1993
 -31.788
 -31.6474
 -21.1744
 -20.9475
 -21.368
 -20.6765
 -31.1796
 -30.979
 -31.0404
 -31.3405
 -10.3326
 -9.77394
 -10.3331
 -10.4096
 -15.805
 -15.5465
 -28.1644
 -29.037
 -28.1605
 -28.5518
 -15.9621
 -16.0659
 -16.0457
 -16.5876
 -14.22
 -14.7291
 -15.9035
 -15.9825
 -16.4494
 -15.866
 -25.216
 -25.2481
 -24.9942
 -25.7544
 -11.3025
 -10.7993
 -10.5823
 -11.0228
 -6.01899
 -6.26225
 -6.0439
 -6.03674
 -7.47891
 -7.36206
 -7.36777
 -7.33238
 -10.9169
 -11.1882
 -11.2302
 -10.8622
 -12.9712
 -12.3766
 -12.7664
 -13.6562
 -12.9693
 -13.3323
 -13.4785
 -15.3363
 -15.0555
 -14.8232
 -15.299
 -5.92264
 -5.897
 -6.0097
 -12.2773
 -11.9105
 -12.4683
 -12.3486
 -16.2579
 -16.8055
 -16.7261
 -16.0566
 -9.83543
 -9.41183
 -9.97768
 -9.40942
 -10.9197
 -11.265
 -11.2025
 -11.1515
 -16.8281
 -16.8075
 -17.209
 -17.605
 -14.9866
 -14.5258
 -14.9355
 -14.84
 -20.4867
 -20.1899
 -20.3459
 -20.0769
 -7.2445
 -7.34367
 -7.45478
 -24.0694
 -23.6631
 -24.4683
 -23.8455
 -9.8753
 -10.2447
 -9.9281
 -9.67712
 -13.1215
 -12.9333
 -12.6824
 -13.2881
 -13.9171
 -14.3673
 -14.4664
 -17.7831
 -17.7939
 -17.9844
 -18.3839
 -19.5932
 -19.6124
 -20.0445
 -19.2906
 -20.3699
 -20.6289
 -21.0271
 -25.6147
 -25.6788
 -25.8733
 -19.6131
 -19.3407
 -18.9399
 -19.2193
 -25.5697
 -25.8056
 -25.0926
 -27.5912
 -27.6285
 -27.5048
 -26.9964
 -14.191
 -13.3171
 -13.8565
 -13.575
 -10.4544
 -10.1826
 -10.5971
 -10.2487
 -9.00643
 -25.4939
 -25.2646
 -26.2927
 -25.2043
 -25.6882
 -24.5536
 -0.663005
 -0.554339
 -0.678649
 -0.787473
 -22.5537
 -22.04
 -12.9915
 -12.7121
 -13.2545
 -31.0574
 -31.4684
 -18.0185
 -17.231
 -17.4762
 -17.6595
 -12.644
 -12.8817
 -12.8928
 -22.8269
 -23.9695
 -23.4323
 -23.6843
 -10.5827
 -10.6958
 -10.4135
 -10.8903
 -2.24483
 -2.47255
 -2.41247
 -2.1634
 -17.3151
 -17.4183
 -17.2324
 -17.8826
 -24.8469
 -26.0622
 -25.014
 -23.5232
 -23.3837
 -23.6158
 -23.1056
 -9.62645
 -9.1018
 -9.15921
 -8.88355
 -9.94821
 -10.2125
 -8.20893
 -8.51358
 -8.10329
 -30.7291
 -30.2871
 -24.3965
 -23.7022
 -24.404
 -23.7041
 -15.7469
 -16.3875
 -16.2495
 -22.2866
 -21.5804
 -22.8933
 -22.7611
 -9.88605
 -9.27214
 -9.3844
 -9.6767
 -14.7156
 -14.6481
 -15.1465
 -15.2525
 -14.5566
 -14.9182
 -14.9993
 -14.5637
 -9.15387
 -9.32186
 -9.09396
 -10.2195
 -9.97942
 -10.1836
 -10.1225
 -32.7013
 -33.0199
 -32.853
 -33.2739
 -6.76531
 -6.33915
 -27.0716
 -27.6038
 -27.4523
 -27.111
 -13.3244
 -13.8001
 -13.584
 -13.3301
 -16.2962
 -16.6798
 -16.6524
 -16.7553
 -7.44223
 -7.66902
 -15.204
 -14.8495
 -14.8354
 -14.5041
 -13.0496
 -12.8565
 -12.7243
 -13.2067
 -24.8795
 -24.8459
 -24.6195
 -25.0358
 -13.9444
 -14.361
 -14.4074
 -13.7825
 -10.3392
 -10.3861
 -18.4385
 -18.4578
 -18.1166
 -18.5555
 -21.1115
 -20.9485
 -21.4343
 -15.78
 -16.331
 -16.1235
 -16.4521
 -8.63638
 -8.85846
 -8.5329
 -9.04269
 -1.99035
 -2.2522
 -2.21005
 -1.95286
 -14.2833
 -14.0239
 -14.4851
 -15.0074
 -16.7789
 -17.4521
 -16.8752
 -16.8484
 -12.4705
 -12.7333
 -12.2321
 -12.3329
 -10.8073
 -10.577
 -10.8872
 -11.0772
 -25.1334
 -25.6416
 -18.4849
 -18.1877
 -17.923
 -4.23865
 -4.11703
 -3.95398
 -4.30764
 -9.32192
 -9.01389
 -9.49402
 -8.85173
 -15.8323
 -15.9456
 -15.6962
 -15.4499
 -25.1727
 -25.4235
 -25.3449
 -13.4338
 -13.2029
 -12.6765
 -12.6767
 -10.0453
 -10.5663
 -10.3758
 -10.0229
 -21.8237
 -21.0307
 -21.0222
 -21.4271
 -17.6974
 -17.5402
 -17.3122
 -17.3465
 -23.3267
 -23.4307
 -23.3364
 -22.9384
 -23.0181
 -23.0926
 -22.9809
 -12.0191
 -12.1668
 -11.7615
 -11.6363
 -13.9028
 -13.6814
 -14.1122
 -2.42371
 -2.47428
 -2.44455
 -2.27609
 -10.3109
 -10.3526
 -6.40753
 -6.1785
 -6.51541
 -6.74661
 -8.98992
 -7.68784
 -26.2892
 -10.4957
 -10.0719
 -10.381
 -9.89666
 -31.7984
 -18.4023
 -17.9741
 -18.3692
 -17.6753
 -10.4192
 -10.754
 -10.5606
 -12.1108
 -12.5172
 -12.5251
 -23.9237
 -24.0477
 -23.2774
 -23.9909
 -24.1741
 -23.8487
 -24.2573
 -23.7835
 -8.20985
 -7.74654
 -7.73695
 -8.06485
 -28.7989
 -28.8438
 -29.2902
 -28.5053
 -14.8272
 -14.3903
 -13.9438
 -23.972
 -24.3635
 -24.1988
 -16.5833
 -16.107
 -16.2892
 -16.6897
 -10.5165
 -10.7376
 -10.2576
 -10.3901
 -16.9304
 -17.7218
 -16.9188
 -11.0361
 -11.2146
 -11.208
 -10.7676
 -13.3027
 -13.9654
 -24.5122
 -25.0013
 -25.1408
 -25.7016
 -26.3708
 -27.1246
 -26.6549
 -26.5297
 -8.95524
 -9.32073
 -8.8508
 -9.21248
 -21.1114
 -20.2921
 -20.7786
 -21.3273
 -18.0527
 -17.2211
 -17.8523
 -18.3455
 -12.5893
 -12.158
 -12.7974
 -12.4775
 -25.4781
 -25.1175
 -24.9386
 -24.5446
 -13.593
 -13.1081
 -13.8846
 -13.5998
 -14.8528
 -14.5345
 -14.5131
 -15.2981
 -13.3741
 -13.0663
 -13.4764
 -13.5353
 -9.41668
 -9.83868
 -8.53598
 -8.8027
 -9.06242
 -8.60512
 -5.87982
 -5.45562
 -5.79861
 -5.90268
 -18.3455
 -18.2862
 -18.0637
 -18.7719
 -17.1894
 -16.7446
 -16.6556
 -29.8498
 -29.929
 -29.9591
 -29.8821
 -30.4479
 -30.8626
 -30.2108
 -27.193
 -27.5375
 -26.6773
 -16.6833
 -17.3273
 -17.6721
 -16.8812
 -20.0879
 -20.402
 -20.7481
 -19.7553
 -24.4522
 -24.9781
 -24.6558
 -25.0912
 -10.7999
 -10.3923
 -10.4877
 -10.7338
 -6.66354
 -6.91488
 -7.10576
 -7.08962
 -31.2595
 -31.4611
 -30.7364
 -31.7683
 -9.89249
 -9.77141
 -9.55789
 -9.94979
 -15.8571
 -15.8175
 -16.0979
 -15.6984
 -31.6452
 -31.6943
 -30.935
 -32.1938
 -18.4414
 -17.8616
 -18.6481
 -18.4428
 -12.926
 -12.7265
 -12.9567
 -12.7505
 -10.086
 -9.76521
 -9.82565
 -7.67615
 -8.07339
 -7.83394
 -7.62009
 -8.7836
 -8.6538
 -8.83402
 -8.61368
 -8.6066
 -8.52687
 -9.67028
 -9.92222
 -9.23322
 -22.9897
 -22.5713
 -22.5093
 -22.4313
 -29.2511
 -28.9883
 -29.0364
 -29.0329
 -19.5528
 -19.2883
 -19.5488
 -18.7227
 -13.7109
 -25.6249
 -25.9054
 -25.8611
 -25.3774
 -7.80226
 -7.78529
 -7.76747
 -7.71099
 -29.628
 -29.8344
 -29.5363
 -30.2118
 -11.7742
 -11.5161
 -12.0974
 -20.9859
 -7.75707
 -7.70205
 -7.44303
 -9.34885
 -9.11139
 -8.87495
 -9.47748
 -15.5369
 -15.4817
 -14.7589
 -15.3115
 -22.1007
 -22.0725
 -21.6354
 -22.5849
 -13.6873
 -20.892
 -20.5589
 -20.5233
 -13.9686
 -13.9149
 -14.0048
 -14.5106
 -11.0545
 -11.1739
 -10.8518
 -10.8295
 -12.1755
 -11.6546
 -12.0315
 -12.139
 -21.1404
 -9.69967
 -9.78728
 -9.93626
 -22.8184
 -22.3961
 -23.0423
 -22.5968
 -25.5201
 -25.2806
 -26.0748
 -25.0614
 -28.4642
 -28.8422
 -28.3965
 -10.9133
 -10.9437
 -10.6684
 -10.9378
 -7.10014
 -6.88423
 -7.07965
 -23.7763
 -23.7792
 -25.0461
 -24.799
 -24.527
 -24.4658
 -13.8862
 -14.0501
 -14.3391
 -30.0998
 -30.0094
 -30.4838
 -30.0211
 -25.2485
 -25.1046
 -25.3939
 -25.5383
 -18.7901
 -19.0072
 -19.2361
 -19.4207
 -16.1931
 -16.3567
 -16.0044
 -15.5787
 -10.0431
 -10.0131
 -9.88769
 -10.1714
 -24.9116
 -24.8972
 -24.5493
 -25.3302
 -11.236
 -11.3653
 -10.819
 -12.305
 -12.6847
 -12.7895
 -12.8605
 -28.8746
 -28.6364
 -29.4712
 -29.1566
 -20.5971
 -20.6795
 -20.5422
 -20.2477
 -30.7073
 -30.3082
 -29.79
 -30.5046
 -11.9752
 -12.2506
 -12.445
 -12.3817
 -15.908
 -16.0382
 -15.4979
 -16.4549
 -26.6988
 -26.5696
 -27.0359
 -26.8144
 -15.4014
 -15.7772
 -15.1616
 -15.2784
 -30.7052
 -31.1414
 -30.7354
 -10.6555
 -10.5
 -10.4606
 -10.5225
 -17.1912
 -17.1885
 -16.9233
 -16.6446
 -18.2987
 -18.8227
 -18.3594
 -18.5022
 -14.7071
 -14.4605
 -15.2183
 -14.6381
 -25.4334
 -25.4548
 -26.1664
 -25.6178
 -14.3361
 -13.7786
 -14.1411
 -13.9873
 -18.1657
 -18.0165
 -18.0208
 -17.7437
 -7.62187
 -7.63818
 -7.58457
 -7.62186
 -23.6265
 -23.724
 -23.215
 -22.8935
 -7.39673
 -7.38618
 -7.37944
 -10.0719
 -9.8726
 -9.86897
 -10.1037
 -8.50887
 -8.72307
 -9.39732
 -8.83304
 -21.7884
 -21.6534
 -22.0312
 -22.3947
 -19.6577
 -20.3885
 -19.7495
 -19.9467
 -11.6602
 -11.2587
 -11.3247
 -11.0616
 -32.3761
 -32.0446
 -31.698
 -2.58219
 -2.52583
 -18.0359
 -18.4553
 -17.7133
 -18.0438
 -5.0625
 -4.74603
 -4.4077
 -4.68463
 -19.5794
 -19.7612
 -20.3762
 -20.0125
 -12.5548
 -11.2819
 -11.0867
 -10.9925
 -10.7456
 -22.53
 -22.5916
 -22.7451
 -23.0119
 -27.1475
 -26.6844
 -27.4735
 -26.9641
 -7.63523
 -7.6334
 -20.9148
 -21.2505
 -22.1612
 -21.1657
 -16.9703
 -16.0042
 -17.1247
 -16.5775
 -10.082
 -10.0692
 -9.84439
 -10.5883
 -14.3715
 -13.8572
 -13.7847
 -14.3671
 -24.4668
 -23.757
 -25.3042
 -29.4453
 -29.2824
 -29.3259
 -29.3138
 -31.3828
 -31.3593
 -31.6053
 -11.5299
 -11.2976
 -11.362
 -11.6473
 -27.2359
 -26.939
 -26.6335
 -26.6198
 -8.43724
 -8.18044
 -8.28397
 -8.3492
 -19.3792
 -19.0662
 -19.436
 -18.6662
 -16.8394
 -17.5027
 -16.9584
 -16.9667
 -29.2995
 -29.3715
 -29.3051
 -29.6213
 -20.2518
 -20.5165
 -20.1577
 -19.7685
 -4.21374
 -4.0531
 -3.99395
 -4.21943
 -13.6787
 -12.9564
 -13.5996
 -13.1682
 -11.5878
 -12.0755
 -12.1221
 -11.5257
 -21.9713
 -22.1691
 -21.5986
 -21.2583
 -8.86708
 -8.6305
 -8.54466
 -8.5518
 -17.8449
 -17.447
 -17.3792
 -18.029
 -10.9678
 -10.7138
 -10.584
 -6.72311
 -6.55759
 -6.52498
 -6.46218
 -17.8119
 -18.356
 -17.5241
 -19.0283
 -19.0042
 -18.7246
 -9.68733
 -9.36698
 -9.10439
 -8.87095
 -8.8515
 -9.0031
 -9.14467
 -26.8886
 -0.404291
 -0.517742
 -0.471453
 -0.296708
 -25.2627
 -24.9351
 -25.7316
 -25.2049
 -7.9245
 -12.2565
 -12.1591
 -12.0992
 -12.6268
 -11.5874
 -11.2823
 -12.1479
 -9.51152
 -10.0473
 -9.79516
 -9.64455
 -4.44329
 -4.40258
 -4.60703
 -4.16806
 -8.39713
 -8.65407
 -8.6192
 -16.1687
 -15.9025
 -15.8826
 -11.4968
 -11.3325
 -32.994
 -32.4503
 -32.4411
 -8.50106
 -8.85063
 -8.37436
 -11.9203
 -12.2549
 -12.4431
 -27.144
 -27.7094
 -27.7252
 -22.5106
 -22.5361
 -23.063
 -22.6345
 -9.92134
 -10.089
 -10.2514
 -7.30764
 -6.97977
 -29.1652
 -28.8772
 -29.5356
 -29.2992
 -5.42602
 -5.53008
 -5.14707
 -5.7545
 -8.53362
 -8.40892
 -1.97922
 -1.78291
 -3.26319
 -3.2234
 -3.33514
 -12.1284
 -12.4445
 -11.9484
 -28.5232
 -27.998
 -27.461
 -20.6038
 -20.5737
 -21.1117
 -10.2307
 -10.3462
 -10.7182
 -10.9532
 -10.592
 -26.3414
 -7.2377
 -7.23324
 -7.36384
 -7.37088
 -11.7567
 -12.5217
 -11.9364
 -12.049
 -21.9333
 -21.9726
 -22.3845
 -20.3892
 -20.5086
 -20.1387
 -20.2917
 -12.135
 -11.965
 -12.3996
 -12.7652
 -21.3046
 -21.4057
 -22.049
 -21.9906
 -22.8745
 -22.4519
 -22.771
 -23.3943
 -14.8272
 -20.8837
 -21.2795
 -21.2514
 -21.4862
 -30.4334
 -30.7122
 -30.3579
 -30.1275
 -9.29891
 -8.65636
 -8.54024
 -8.98901
 -29.1966
 -29.8054
 -29.545
 -29.4522
 -1.72084
 -1.8783
 -1.67614
 -28.4239
 -28.0385
 -28.9205
 -28.8141
 -9.42761
 -9.35616
 -8.99573
 -9.02518
 -23.955
 -23.3294
 -23.8106
 -24.2612
 -8.6294
 -8.66144
 -7.88148
 -8.05511
 -30.389
 -23.9811
 -23.2003
 -23.5845
 -22.9881
 -26.8538
 -27.3352
 -27.2216
 -7.41281
 -7.56661
 -7.31296
 -7.19662
 -21.631
 -21.2391
 -21.1761
 -20.8532
 -17.5453
 -18.1724
 -18.1841
 -17.9152
 -16.6756
 -16.9786
 -16.3345
 -16.2425
 -32.2639
 -31.7384
 -12.8812
 -12.9127
 -12.8407
 -12.2463
 -12.6341
 -12.818
 -12.996
 -21.3349
 -20.8697
 -21.7972
 -22.0018
 -20.7987
 -21.0428
 -20.9994
 -21.5571
 -18.0727
 -18.25
 -18.5473
 -17.89
 -9.68738
 -9.63333
 -10.6975
 -10.4495
 -10.4189
 -11.9611
 -12.275
 -12.2689
 -12.3143
 -6.62796
 -6.35716
 -6.44467
 -6.42943
 -11.8211
 -11.4239
 -11.093
 -4.50359
 -4.51223
 -4.78523
 -11.74
 -11.7097
 -11.3418
 -12.0266
 -9.56045
 -10.009
 -9.38529
 -14.3376
 -21.6431
 -21.2575
 -22.067
 -12.8777
 -12.7973
 -13.1243
 -13.3431
 -8.32793
 -8.33428
 -9.20226
 -8.7734
 -15.1506
 -15.5549
 -15.6993
 -15.6996
 -23.589
 -23.1823
 -32.2936
 -31.9291
 -31.6799
 -32.3187
 -21.4293
 -21.4866
 -21.8453
 -21.0379
 -13.2574
 -13.1946
 -13.135
 -13.4329
 -30.3663
 -30.4478
 -31.3631
 -30.0116
 -30.0099
 -30.1849
 -30.3927
 -15.6174
 -15.0467
 -14.7723
 -15.3377
 -7.95805
 -7.87854
 -8.11355
 -13.0706
 -13.0347
 -13.5726
 -13.0463
 -7.23994
 -6.88184
 -7.32321
 -6.83513
 -19.5829
 -19.6158
 -19.7848
 -18.4425
 -7.69243
 -7.69615
 -7.66937
 -7.75703
 -9.89941
 -10.1021
 -10.2062
 -10.0566
 -28.6303
 -27.9817
 -28.8942
 -28.1611
 -15.5207
 -15.5576
 -15.1001
 -15.5861
 -11.607
 -11.3718
 -11.7467
 -11.4101
 -22.4061
 -22.4102
 -23.0377
 -23.9968
 -23.6292
 -23.5261
 -12.5
 -13.0016
 -12.8417
 -13.4714
 -13.6092
 -13.9279
 -13.7448
 -13.7215
 -8.1333
 -8.37471
 -8.07228
 -12.163
 -11.8588
 -11.6164
 -0.979103
 -0.767112
 -0.960474
 -0.837717
 -10.1423
 -10.2752
 -7.38953
 -7.54945
 -7.39049
 -7.06542
 -17.0365
 -16.4776
 -16.9695
 -16.3476
 -4.59047
 -4.9601
 -5.09398
 -4.79319
 -9.02955
 -8.94234
 -8.60523
 -20.1549
 -20.2617
 -20.1327
 -19.8604
 -8.99261
 -9.32405
 -8.87586
 -8.26474
 -8.31042
 -7.92929
 -8.04917
 -11.7826
 -11.5746
 -11.6224
 -12.0663
 -22.6278
 -24.1185
 -3.14717
 -3.27869
 -9.84206
 -9.55727
 -13.5697
 -13.1393
 -13.3234
 -13.216
 -19.3301
 -19.8476
 -19.396
 -20.0916
 -14.4707
 -14.5403
 -14.8004
 -14.8779
 -7.30789
 -6.77118
 -7.1614
 -7.04021
 -17.2429
 -16.6423
 -16.904
 -8.07432
 -7.95469
 -8.0806
 -8.06027
 -27.1664
 -26.9828
 -27.5598
 -26.7125
 -19.6134
 -19.6278
 -19.7298
 -19.0957
 -8.49498
 -8.70082
 -8.38579
 -13.4643
 -12.9185
 -13.4098
 -13.6217
 -7.2558
 -7.17663
 -7.30335
 -8.88667
 -9.30293
 -9.16689
 -8.95225
 -8.83214
 -8.7612
 -9.10738
 -8.86937
 -13.2125
 -12.7908
 -12.7293
 -12.5332
 -30.2371
 -30.0039
 -29.7706
 -29.8208
 -18.1246
 -18.7535
 -18.4303
 -18.7186
 -12.9302
 -12.3536
 -12.7479
 -15.8172
 -15.5802
 -15.5461
 -26.6687
 -25.7536
 -26.6035
 -26.0226
 -18.2517
 -18.285
 -17.793
 -18.5708
 -12.5896
 -12.9743
 -13.0067
 -13.0932
 -6.75492
 -6.79352
 -8.41895
 -8.23099
 -8.59688
 -8.60522
 -2.55851
 -2.46597
 -2.20578
 -2.52224
 -22.0262
 -22.0824
 -22.1167
 -21.7576
 -9.33719
 -8.97266
 -9.06006
 -9.03376
 -14.6077
 -14.178
 -14.4376
 -13.8869
 -6.17105
 -6.00808
 -6.07763
 -5.97194
 -16.1875
 -15.9652
 -15.7118
 -15.7092
 -13.3411
 -20.8875
 -20.8039
 -20.1741
 -20.3589
 -12.6715
 -12.1384
 -12.0582
 -12.484
 -12.29
 -12.557
 -12.8759
 -12.6997
 -11.15
 -10.7458
 -10.8648
 -10.6771
 -8.44645
 -8.09519
 -8.66028
 -24.3703
 -24.481
 -24.622
 -23.4788
 -12.2603
 -12.1258
 -12.1261
 -11.9667
 -23.7761
 -23.9729
 -24.505
 -19.972
 -19.4765
 -19.8397
 -19.6699
 -22.7079
 -23.6724
 -23.1989
 -23.781
 -7.87969
 -8.19582
 -7.81503
 -0.279382
 -0.378009
 -0.404868
 -20.3933
 -21.1637
 -20.9711
 -16.3129
 -17.2165
 -16.7995
 -17.4094
 -11.6625
 -11.8157
 -11.9999
 -11.5988
 -13.0119
 -13.1395
 -12.5394
 -12.6783
 -3.91683
 -4.11664
 -3.63555
 -4.15059
 -14.6598
 -14.4236
 -14.356
 -14.3081
 -17.6673
 -17.7976
 -18.0876
 -17.3368
 -9.17733
 -9.23412
 -10.1248
 -9.42934
 -9.77244
 -9.82005
 -20.4153
 -19.9604
 -20.323
 -20.1881
 -8.90313
 -9.27009
 -18.2557
 -17.9629
 -7.49419
 -0.729737
 -0.686568
 -0.730148
 -0.910438
 -6.06146
 -6.39681
 -31.261
 -31.9283
 -31.3971
 -6.90981
 -7.20423
 -7.49327
 -7.21194
 -21.1342
 -21.0093
 -9.92498
 -9.83072
 -9.88126
 -9.91926
 -11.0497
 -11.7786
 -11.5312
 -21.0894
 -21.5275
 -21.2383
 -21.8826
 -18.667
 -19.2658
 -18.7031
 -18.9607
 -25.2041
 -25.3121
 -26.0229
 -12.911
 -12.4767
 -12.9655
 -12.3369
 -14.3457
 -25.2837
 -24.3562
 -25.0925
 -24.9121
 -7.38061
 -7.31566
 -7.46589
 -7.60433
 -15.5425
 -15.0364
 -15.5019
 -15.0085
 -22.1026
 -21.278
 -21.8704
 -21.3593
 -1.87156
 -1.95047
 -2.03312
 -2.08
 -8.47614
 -30.2615
 -11.9746
 -12.5779
 -12.1724
 -11.7534
 -15.4184
 -15.8174
 -15.218
 -15.0862
 -9.54215
 -9.08479
 -9.32117
 -9.45338
 -16.2021
 -15.9632
 -16.2102
 -16.3177
 -8.16868
 -8.23819
 -8.52369
 -7.95637
 -8.22227
 -8.44479
 -8.20179
 -12.8871
 -13.2701
 -12.5974
 -12.9055
 -22.2541
 -22.6633
 -21.5419
 -32.1418
 -32.6875
 -32.2222
 -32.0637
 -3.6706
 -3.42719
 -3.36606
 -13.9617
 -13.9917
 -13.1772
 -13.3563
 -12.8905
 -13.5512
 -28.1014
 -27.8544
 -28.0239
 -28.3279
 -20.3986
 -19.9446
 -20.2257
 -19.7642
 -8.40103
 -8.93318
 -8.56991
 -5.44901
 -12.5167
 -12.0516
 -12.1961
 -12.5321
 -13.6037
 -13.8706
 -13.7768
 -19.8293
 -19.554
 -19.5352
 -20.0199
 -22.4138
 -21.6494
 -22.1881
 -21.833
 -12.1322
 -11.8626
 -20.8073
 -20.7203
 -21.1134
 -21.5443
 -16.5878
 -16.4207
 -16.4936
 -16.9933
 -29.86
 -30.0981
 -17.7463
 -17.2244
 -17.7882
 -17.5125
 -20.7173
 -21.009
 -21.1983
 -21.3542
 -19.7439
 -20.1308
 -19.6996
 -19.7994
 -14.1029
 -14.3404
 -12.8162
 -13.0748
 -12.7039
 -12.4546
 -10.9511
 -10.5945
 -10.7805
 -10.8396
 -16.4779
 -16.8277
 -16.8602
 -16.4652
 -8.11766
 -8.3886
 -8.53903
 -8.70215
 -9.48997
 -9.42791
 -9.28504
 -9.42623
 -3.04906
 -3.17322
 -3.13955
 -2.87965
 -10.9219
 -10.3173
 -15.9349
 -15.1973
 -15.7759
 -15.4929
 -12.0585
 -11.9384
 -12.2336
 -12.4806
 -15.0506
 -15.3689
 -15.5564
 -15.2424
 -13.0537
 -13.0777
 -21.0124
 -20.7216
 -31.3357
 -31.4742
 -31.4351
 -31.6693
 -7.17566
 -12.7599
 -12.7311
 -12.8862
 -13.1978
 -14.9478
 -14.4296
 -14.5515
 -14.5617
 -10.2209
 -9.98451
 -9.8717
 -9.5748
 -19.682
 -18.9712
 -19.6664
 -19.0354
 -15.3516
 -15.0107
 -14.8392
 -15.314
 -8.14119
 -8.0372
 -8.28015
 -7.98401
 -7.8323
 -11.6177
 -12.136
 -11.5893
 -11.9595
 -11.5047
 -12.1441
 -11.583
 -11.4616
 -8.47437
 -8.47877
 -8.18821
 -8.45338
 -9.42165
 -9.55133
 -10.0381
 -9.82676
 -13.2578
 -13.6526
 -12.9924
 -12.9543
 -8.34337
 -8.1547
 -8.05551
 -8.16968
 -16.0912
 -16.3101
 -15.5891
 -10.2482
 -10.2364
 -10.1942
 -10.1026
 -4.76302
 -4.97442
 -15.8575
 -16.2041
 -16.3534
 -15.4423
 -16.0737
 -15.7958
 -16.0916
 -7.41788
 -7.65927
 -7.80436
 -6.50819
 -6.65536
 -6.67105
 -6.52706
 -18.0562
 -18.0134
 -18.3115
 -17.6984
 -15.463
 -14.7988
 -15.5306
 -23.4178
 -22.4075
 -22.8208
 -13.8776
 -13.5034
 -13.6015
 -25.0936
 -25.1606
 -25.1422
 -2.52704
 -2.34393
 -2.37121
 -2.51582
 -30.0776
 -30.2314
 -29.9756
 -30.2668
 -10.8654
 -10.5382
 -16.5994
 -16.008
 -8.40997
 -8.46698
 -8.39861
 -8.71625
 -17.4377
 -17.2884
 -17.9259
 -21.3608
 -21.85
 -21.7832
 -21.8856
 -24.9136
 -24.0178
 -7.47873
 -7.51603
 -7.39485
 -15.9735
 -15.866
 -15.4104
 -9.69549
 -9.29583
 -9.70049
 -7.56957
 -7.56812
 -7.45332
 -7.31374
 -12.5443
 -12.7052
 -12.2773
 -12.8497
 -11.9748
 -11.4939
 -11.6467
 -11.9007
 -19.1416
 -18.9364
 -18.9094
 -19.5363
 -21.1933
 -20.8417
 -21.0791
 -20.4363
 -11.5495
 -11.4932
 -11.8952
 -18.1159
 -17.9999
 -17.6585
 -20.2069
 -20.6527
 -20.2367
 -20.3032
 -33.0387
 -32.7613
 -33.2146
 -14.3056
 -14.2313
 -14.2006
 -19.7089
 -20.0425
 -19.2897
 -13.7248
 -14.0253
 -13.4329
 -10.6143
 -10.1532
 -10.2475
 -7.5083
 -7.66589
 -7.56928
 -7.62115
 -13.8736
 -13.5044
 -13.9971
 -13.6142
 -9.95762
 -9.79924
 -9.51878
 -8.2791
 -8.64065
 -19.4086
 -19.0278
 -19.9395
 -19.3645
 -19.4137
 -19.8649
 -19.2381
 -18.7966
 -8.56409
 -8.91113
 -9.09246
 -9.23078
 -8.23113
 -7.91266
 -8.08163
 -7.89512
 -5.76168
 -5.6069
 -5.77869
 -5.50433
 -27.5833
 -27.8899
 -24.1618
 -23.4148
 -23.773
 -24.2078
 -29.6379
 -10.4116
 -10.8281
 -10.348
 -14.6876
 -14.8646
 -14.4475
 -14.3548
 -8.50426
 -8.43804
 -13.4062
 -13.3431
 -13.6676
 -7.16498
 -7.29442
 -23.2017
 -23.3007
 -23.9024
 -22.8432
 -25.4458
 -25.3358
 -26.2851
 -25.8767
 -21.9468
 -22.0996
 -21.4062
 -10.7624
 -11.0593
 -11.0351
 -24.8943
 -24.8613
 -25.0938
 -25.2818
 -9.78119
 -9.28833
 -9.66497
 -9.8371
 -22.4581
 -22.0525
 -22.0209
 -22.456
 -9.93102
 -9.48946
 -9.39354
 -10.1065
 -7.94236
 -8.08353
 -7.79228
 -29.8322
 -30.7805
 -30.269
 -30.1503
 -7.80143
 -7.90797
 -7.85649
 -12.4793
 -12.6847
 -13.0307
 -12.8064
 -28.4502
 -29.0856
 -28.7343
 -9.8305
 -9.52032
 -9.85579
 -9.61779
 -18.0643
 -27.1835
 -27.4992
 -26.2727
 -27.0388
 -7.03858
 -7.1216
 -7.27596
 -7.11257
 -19.8547
 -18.9268
 -19.5834
 -19.8869
 -14.3053
 -14.482
 -13.7679
 -7.94279
 -7.7178
 -8.00775
 -7.30373
 -18.5412
 -18.48
 -18.831
 -9.33473
 -9.20559
 -2.79458
 -2.55762
 -2.83604
 -2.96653
 -5.93584
 -5.25166
 -5.20615
 -25.2837
 -24.9863
 -26.5656
 -25.6655
 -25.6175
 -25.9472
 -6.3721
 -6.49785
 -6.13719
 -6.56579
 -11.8977
 -12.1212
 -12.1049
 -12.2417
 -13.2765
 -12.6672
 -12.7261
 -12.9289
 -15.6831
 -15.5057
 -16.0826
 -15.531
 -15.972
 -15.1653
 -15.6997
 -15.2937
 -28.2119
 -8.08666
 -7.96221
 -8.10692
 -8.00691
 -28.8702
 -28.5376
 -29.1803
 -16.4752
 -15.9046
 -15.6958
 -15.8913
 -7.5238
 -7.85724
 -7.95168
 -15.1228
 -14.698
 -15.0366
 -14.66
 -13.8838
 -18.9922
 -19.194
 -19.7742
 -19.5723
 -9.88247
 -9.89936
 -9.87536
 -13.9018
 -14.755
 -14.4803
 -29.0605
 -28.7634
 -28.2155
 -28.7207
 -13.5924
 -13.4079
 -13.3007
 -1.8576
 -1.96712
 -1.69833
 -13.5761
 -13.2555
 -13.511
 -12.8483
 -19.3778
 -19.8909
 -19.8033
 -14.3438
 -14.382
 -25.1322
 -25.3253
 -24.7752
 -24.8024
 -21.9472
 -22.4386
 -22.1023
 -22.0843
 -30.408
 -30.2696
 -29.9129
 -29.6517
 -15.7557
 -14.809
 -15.4875
 -15.7023
 -20.5731
 -20.4666
 -20.2015
 -19.9115
 -25.1693
 -25.5964
 -25.9796
 -9.40003
 -9.62985
 -9.05649
 -9.24771
 -13.058
 -13.5178
 -11.1352
 -10.8503
 -11.2076
 -11.0324
 -19.2535
 -19.107
 -19.1846
 -19.5147
 -13.5428
 -14.0044
 -13.8228
 -13.4303
 -18.927
 -18.6414
 -19.4279
 -18.7723
 -14.1938
 -14.3412
 -14.7079
 -14.7867
 -13.7094
 -13.2972
 -13.369
 -24.3861
 -23.9369
 -24.3493
 -27.6193
 -27.4823
 -27.3162
 -28.3867
 -26.2584
 -26.1533
 -26.6269
 -20.8057
 -21.5174
 -20.8855
 -3.61397
 -3.53653
 -3.34946
 -12.9622
 -13.5265
 -13.0777
 -23.9225
 -24.2494
 -23.9909
 -23.8423
 -12.9398
 -13.1522
 -12.9013
 -15.9258
 -16.2027
 -16.0134
 -15.6737
 -18.1371
 -16.9788
 -17.3994
 -17.3076
 -13.94
 -14.2938
 -14.2433
 -14.5904
 -8.80361
 -9.04127
 -8.84058
 -8.69419
 -13.1226
 -15.9661
 -15.9658
 -16.2512
 -15.3057
 -7.74815
 -7.83845
 -7.87721
 -7.86148
 -7.53394
 -7.7958
 -7.6136
 -7.77996
 -8.26829
 -8.41985
 -8.3559
 -8.15436
 -18.3025
 -18.2882
 -18.9005
 -19.216
 -9.5483
 -9.30114
 -9.46471
 -9.53401
 -30.1768
 -29.5992
 -30.137
 -29.66
 -5.37608
 -5.52464
 -5.74798
 -5.71203
 -9.31528
 -9.34975
 -9.27899
 -6.95829
 -6.75616
 -6.62158
 -6.66439
 -8.13472
 -7.92986
 -8.35932
 -8.0197
 -8.05998
 -14.6867
 -14.5948
 -14.896
 -15.6743
 -27.8249
 -27.1894
 -26.9378
 -27.5352
 -27.4234
 -27.8002
 -27.2473
 -8.49555
 -8.2778
 -29.3864
 -29.8606
 -29.2149
 -24.5937
 -24.4453
 -24.5265
 -25.1266
 -8.10306
 -7.9447
 -8.1282
 -30.2294
 -30.3931
 -30.052
 -30.5737
 -11.0384
 -11.1431
 -11.4377
 -10.7989
 -8.49249
 -8.03487
 -8.19752
 -8.535
 -6.76843
 -7.23271
 -7.04228
 -6.94442
 -4.37961
 -4.45668
 -4.21172
 -4.22275
 -17.1168
 -18.0867
 -17.6435
 -17.9301
 -11.4304
 -11.4741
 -11.2871
 -10.7773
 -29.8858
 -29.3834
 -29.8638
 -1.56579
 -1.84999
 -1.66505
 -1.9767
 -5.9061
 -6.24691
 -6.02414
 -6.31851
 -29.9291
 -30.587
 -30.2771
 -30.1963
 -14.1513
 -14.2137
 -14.6515
 -25.9283
 -26.8114
 -26.9577
 -8.71859
 -8.67663
 -8.23137
 -29.9815
 -29.6656
 -29.4863
 -29.7532
 -24.3859
 -24.0604
 -23.8963
 -23.4342
 -9.88022
 -10.1073
 -10.4193
 -10.08
 -11.4529
 -11.0425
 -11.3993
 -10.8963
 -22.2463
 -22.2514
 -22.3232
 -22.995
 -15.2504
 -14.9724
 -14.6116
 -14.8625
 -5.08595
 -5.38696
 -5.41176
 -5.35146
 -25.1783
 -23.9687
 -24.7502
 -24.3895
 -30.6695
 -14.6088
 -14.7424
 -15.0818
 -15.0601
 -27.2017
 -27.6302
 -27.4135
 -28.1315
 -7.83609
 -7.84184
 -7.87598
 -7.88854
 -29.3631
 -29.778
 -29.0952
 -28.868
 -13.6381
 -13.4918
 -11.6016
 -11.3774
 -11.7112
 -11.8246
 -21.729
 -21.0751
 -21.0617
 -21.0831
 -15.9757
 -16.544
 -16.3882
 -11.3227
 -11.2583
 -11.4133
 -21.9928
 -21.8398
 -21.2194
 -21.3054
 -20.4198
 -20.104
 -20.7077
 -20.2235
 -8.66199
 -8.39578
 -8.34312
 -13.91
 -14.9487
 -14.9899
 -14.3351
 -5.27208
 -5.34883
 -5.66922
 -5.2299
 -4.96357
 -29.9416
 -28.7092
 -29.9492
 -29.1771
 -14.7464
 -14.4759
 -14.2494
 -14.7413
 -25.7883
 -26.2315
 -12.7752
 -12.1262
 -12.1939
 -9.6139
 -9.26755
 -9.82662
 -9.72637
 -29.3773
 -29.0574
 -29.694
 -29.5881
 -8.17727
 -8.27258
 -8.23442
 -9.80515
 -9.67168
 -9.978
 -9.70603
 -11.2539
 -11.735
 -11.3625
 -10.8623
 -19.2005
 -20.2092
 -19.4917
 -19.7803
 -9.19531
 -9.67886
 -9.42002
 -9.35612
 -21.2788
 -17.2729
 -17.9327
 -18.1121
 -17.1103
 -27.3231
 -27.5258
 -26.8013
 -28.755
 -28.5145
 -28.477
 -28.0271
 -17.6132
 -17.9723
 -17.277
 -17.6172
 -31.3806
 -31.2915
 -31.2101
 -30.6407
 -11.1599
 -16.3578
 -15.6273
 -15.6504
 -16.1704
 -14.8316
 -14.0702
 -14.4589
 -14.5528
 -4.43561
 -4.75221
 -4.83672
 -4.51997
 -13.3149
 -13.4416
 -13.6086
 -13.0509
 -12.4491
 -12.4916
 -12.636
 -12.888
 -12.9237
 -12.9729
 -13.3772
 -25.9356
 -25.4095
 -25.176
 -12.5466
 -12.0295
 -12.1422
 -12.3656
 -25.0425
 -25.8956
 -25.4587
 -14.0346
 -13.6636
 -15.1126
 -15.4606
 -15.3036
 -15.1705
 -14.9996
 -15.1474
 -14.5413
 -14.6518
 -15.2791
 -15.0634
 -26.7706
 -27.0362
 -27.0319
 -11.2652
 -28.459
 -15.9254
 -16.2804
 -15.8342
 -15.3924
 -8.22524
 -8.23522
 -7.87676
 -9.02967
 -9.4004
 -9.57539
 -15.0069
 -15.227
 -14.6627
 -13.716
 -13.6968
 -13.9063
 -14.1743
 -14.6299
 -14.2156
 -14.9586
 -14.3119
 -1.60667
 -1.6669
 -1.41799
 -22.0192
 -21.3847
 -21.9025
 -13.6524
 -13.7656
 -23.637
 -22.8297
 -23.1042
 -22.7621
 -16.6545
 -17.1184
 -16.6409
 -4.5964
 -4.69298
 -4.34521
 -4.46891
 -12.5162
 -12.0342
 -12.4746
 -12.0207
 -8.85672
 -8.69376
 -8.53213
 -8.43416
 -19.0451
 -18.2544
 -18.7299
 -19.0262
 -10.6359
 -10.2837
 -10.5828
 -10.0948
 -5.34555
 -5.30167
 -5.30807
 -11.227
 -11.079
 -10.8633
 -10.9729
 -19.045
 -19.7163
 -19.4468
 -19.5335
 -14.2247
 -14.7706
 -14.8187
 -14.5178
 -9.36675
 -9.20037
 -9.41296
 -11.9621
 -11.617
 -11.7652
 -11.7115
 -9.00806
 -8.62234
 -9.05822
 -8.73265
 -7.3757
 -7.77921
 -7.67447
 -7.25758
 -29.5761
 -29.826
 -29.5648
 -29.7549
 -8.3155
 -8.5762
 -8.48848
 -8.58503
 -9.18758
 -8.9368
 -9.2877
 -9.2755
 -17.9788
 -18.6532
 -18.4852
 -18.899
 -11.0853
 -10.9955
 -11.3966
 -11.1992
 -32.7326
 -32.7998
 -32.7666
 -32.958
 -12.8373
 -12.6387
 -13.0533
 -7.68423
 -7.46011
 -7.54122
 -7.85283
 -8.18191
 -8.04192
 -8.13488
 -8.03373
 -8.4947
 -7.94664
 -20.2028
 -19.53
 -20.0993
 -19.3141
 -32.4042
 -32.1898
 -32.378
 -32.2773
 -11.9181
 -11.506
 -11.7194
 -11.4796
 -8.66483
 -8.4649
 -8.43776
 -18.7449
 -18.1223
 -18.1388
 -18.5987
 -12.9537
 -12.9385
 -13.0697
 -13.5021
 -9.61245
 -9.65388
 -9.59522
 -9.91606
 -7.50077
 -7.9787
 -7.69218
 -22.5685
 -23.2448
 -23.5422
 -22.6901
 -24.7261
 -24.5666
 -24.0281
 -12.0234
 -11.9447
 -12.2502
 -12.5339
 -12.3995
 -12.2319
 -12.7169
 -9.54025
 -9.94277
 -10.1358
 -9.96918
 -18.4993
 -18.2465
 -17.8902
 -8.44692
 -8.43296
 -8.08167
 -14.589
 -15.0992
 -14.9086
 -24.6544
 -23.8848
 -24.4481
 -19.5493
 -19.443
 -11.0797
 -11.3537
 -10.9921
 -11.3338
 -11.4863
 -11.3045
 -13.5477
 -12.9895
 -9.83888
 -7.141
 -7.18608
 -6.92916
 -25.431
 -25.3446
 -24.3609
 -11.9441
 -12.3074
 -12.1754
 -11.8922
 -9.93571
 -14.2282
 -14.5354
 -18.8228
 -19.0899
 -18.6701
 -19.2535
 -14.137
 -13.7835
 -14.2769
 -12.1787
 -12.4156
 -11.7826
 -12.2161
 -11.2032
 -11.9253
 -12.5357
 -12.183
 -11.9621
 -12.7069
 -26.2794
 -25.6279
 -25.4915
 -26.0135
 -26.7744
 -27.1934
 -27.8449
 -27.7206
 -8.39027
 -8.66938
 -14.0134
 -14.0187
 -13.8122
 -13.4142
 -16.1584
 -16.2958
 -16.5433
 -16.7519
 -17.8601
 -18.3691
 -17.8607
 -17.7413
 -13.4681
 -13.1381
 -12.9924
 -13.4977
 -12.6115
 -12.9403
 -12.7
 -12.5209
 -24.4981
 -23.617
 -24.5049
 -24.375
 -8.78494
 -9.20465
 -9.31698
 -9.59296
 -8.83056
 -9.23817
 -9.02663
 -22.2396
 -22.8037
 -23.5254
 -23.8302
 -9.43063
 -9.71537
 -9.60049
 -9.8618
 -28.422
 -28.0287
 -28.4538
 -28.2678
 -25.11
 -24.755
 -25.0296
 -24.5507
 -11.5706
 -11.7936
 -11.4171
 -11.6062
 -19.7864
 -20.0116
 -19.7124
 -19.1125
 -9.74091
 -9.94329
 -10.246
 -10.3382
 -22.013
 -21.6156
 -21.7117
 -8.39664
 -8.61496
 -8.34551
 -8.48662
 -17.0322
 -16.7841
 -17.1537
 -17.3594
 -11.2071
 -11.3254
 -21.0929
 -22.1318
 -21.6375
 -21.4782
 -22.3213
 -22.1667
 -21.7094
 -12.9111
 -13.5405
 -12.9952
 -23.1387
 -23.1812
 -23.4529
 -23.8737
 -5.46923
 -5.55506
 -5.77418
 -5.69793
 -9.66612
 -9.82134
 -10.1091
 -10.2383
 -17.1549
 -16.4483
 -16.5384
 -17.1784
 -26.6188
 -26.8414
 -26.3665
 -26.951
 -24.9978
 -25.5953
 -25.6526
 -25.188
 -26.6407
 -26.4963
 -26.7204
 -26.4708
 -26.7701
 -10.4912
 -10.7293
 -10.4462
 -10.8261
 -8.79056
 -8.89138
 -8.37905
 -8.72199
 -10.2523
 -10.2614
 -11.2011
 -11.6346
 -11.3109
 -11.2464
 -12.333
 -12.3471
 -12.8405
 -12.3429
 -8.93369
 -8.94038
 -8.66308
 -14.895
 -14.5725
 -14.6538
 -14.4643
 -33.0669
 -32.9144
 -32.5305
 -10.6954
 -10.6151
 -10.7609
 -11.1585
 -23.3482
 -22.5019
 -23.0138
 -23.2245
 -19.1649
 -19.8277
 -19.5684
 -14.1901
 -13.9106
 -14.4135
 -19.676
 -20.3401
 -19.7549
 -24.4143
 -24.02
 -19.0882
 -19.1409
 -19.1158
 -9.82563
 -9.97627
 -10.0687
 -9.64569
 -27.5704
 -27.9704
 -27.6143
 -27.406
 -17.1684
 -17.7632
 -17.4564
 -3.92517
 -3.59446
 -3.48842
 -3.87782
 -7.8531
 -7.67992
 -15.8319
 -11.2862
 -11.8752
 -11.4715
 -11.2899
 -14.8483
 -15.4251
 -15.4042
 -21.5469
 -21.5808
 -21.1164
 -21.6226
 -29.0626
 -29.2732
 -13.9183
 -13.7513
 -13.7699
 -13.4378
 -7.42638
 -7.12825
 -7.11448
 -7.45129
 -25.4178
 -25.7598
 -25.7395
 -25.444
 -17.0654
 -17.308
 -16.9563
 -2.07401
 -1.93751
 -1.75315
 -1.76102
 -8.45825
 -8.39495
 -8.1324
 -10.4804
 -10.807
 -10.2431
 -10.585
 -16.903
 -16.9932
 -16.7123
 -17.3969
 -14.0805
 -14.4536
 -7.65421
 -7.74416
 -7.71347
 -7.72827
 -17.505
 -18.0938
 -10.4741
 -9.95651
 -10.1468
 -10.3078
 -11.9268
 -12.1104
 -11.607
 -11.9553
 -14.2598
 -14.7921
 -14.9472
 -14.5492
 -10.157
 -9.95893
 -9.53682
 -19.0024
 -18.287
 -19.0625
 -18.408
 -22.5377
 -23.1269
 -23.6495
 -22.686
 -21.6413
 -21.6682
 -21.7784
 -22.2564
 -7.17873
 -6.86755
 -7.0573
 -6.7895
 -14.3922
 -14.052
 -3.22421
 -2.96923
 -3.04304
 -2.78514
 -11.9133
 -11.5331
 -11.323
 -29.2052
 -0.937078
 -1.01461
 -1.02483
 -0.680515
 -13.5031
 -13.7348
 -13.4743
 -13.5055
 -10.9211
 -11.3263
 -11.0567
 -22.0177
 -22.5844
 -22.5917
 -21.9808
 -22.2966
 -22.0577
 -22.7909
 -22.7977
 -21.5351
 -21.855
 -21.315
 -21.0825
 -9.96175
 -10.2843
 -9.7634
 -10.2634
 -8.47566
 -8.35688
 -8.13156
 -8.1779
 -17.7427
 -17.7844
 -18.4076
 -17.7264
 -12.1817
 -11.6004
 -12.4147
 -12.0195
 -32.1642
 -26.9258
 -27.0151
 -16.5799
 -16.5672
 -12.3978
 -12.0366
 -12.1381
 -27.5258
 -28.469
 -27.9179
 -27.6721
 -13.1942
 -12.9983
 -16.4168
 -15.97
 -4.57331
 -4.87901
 -4.54117
 -4.86737
 -9.9124
 -9.75828
 -9.49236
 -9.67002
 -17.3227
 -18.0278
 -17.4632
 -17.8157
 -5.16826
 -4.86535
 -5.10645
 -5.24248
 -30.5463
 -30.3625
 -30.9291
 -30.5147
 -26.9457
 -26.2888
 -28.7225
 -28.2493
 -27.6702
 -28.8075
 -22.7655
 -23.2952
 -11.4013
 -11.5755
 -11.2665
 -1.35801
 -1.59462
 -1.28277
 -1.31909
 -5.53816
 -5.75275
 -5.8254
 -5.55678
 -27.3398
 -27.7961
 -27.3329
 -27.0418
 -19.9837
 -20.8101
 -20.3089
 -15.2378
 -14.7279
 -14.4041
 -14.9225
 -10.4248
 -10.9552
 -10.5057
 -10.3717
 -24.4444
 -25.0506
 -24.8058
 -27.5019
 -14.6015
 -15.2443
 -10.0473
 -10.1854
 -18.9642
 -19.7148
 -18.8394
 -19.0827
 -8.57586
 -8.16009
 -8.71447
 -8.13374
 -8.14963
 -7.82806
 -7.92879
 -1.75376
 -2.14458
 -2.06595
 -1.96636
 -10.4702
 -10.7082
 -10.6798
 -11.0336
 -24.9158
 -25.0122
 -23.6147
 -24.113
 -23.9458
 -24.1077
 -9.69099
 -9.65796
 -10.0282
 -9.45556
 -21.5549
 -21.2012
 -21.7793
 -19.2941
 -19.3658
 -19.467
 -18.9508
 -23.9018
 -24.2284
 -23.5599
 -24.401
 -10.3636
 -10.7595
 -10.62
 -10.422
 -28.9188
 -27.9931
 -12.6013
 -3.84949
 -3.99576
 -4.15169
 -4.28335
 -21.3749
 -21.2843
 -21.7633
 -5.57842
 -5.35979
 -5.46052
 -5.25969
 -18.9898
 -18.9158
 -18.8726
 -19.4247
 -7.83288
 -7.81903
 -7.48012
 -7.91338
 -9.01391
 -8.94044
 -9.25088
 -9.31439
 -18.1783
 -18.5815
 -18.5861
 -11.2268
 -11.3959
 -11.1378
 -10.8825
 -17.4421
 -17.2742
 -17.661
 -16.8087
 -15.9868
 -15.6751
 -22.8948
 -23.1099
 -23.0691
 -19.3616
 -19.4354
 -18.8899
 -3.67891
 -3.72654
 -3.99521
 -3.76481
 -8.42761
 -8.73635
 -8.26327
 -8.85071
 -24.7212
 -23.8391
 -23.9194
 -23.8696
 -23.1874
 -23.0485
 -9.4104
 -10.1457
 -9.47691
 -19.3249
 -18.6876
 -18.8849
 -18.5786
 -19.1286
 -19.0124
 -18.7459
 -10.0549
 -9.86292
 -10.1083
 -10.1746
 -27.6818
 -27.7949
 -11.5384
 -11.3882
 -11.5389
 -11.811
 -9.78943
 -9.82382
 -9.96464
 -19.9449
 -20.137
 -13.838
 -13.5813
 -13.8394
 -14.215
 -7.95434
 -7.84035
 -17.9024
 -17.7857
 -11.5739
 -10.9666
 -11.0534
 -11.3866
 -14.9676
 -14.9499
 -14.6153
 -15.3183
 -14.9119
 -14.6135
 -14.924
 -6.53832
 -6.56086
 -6.41852
 -7.01223
 -5.43871
 -5.45989
 -5.67694
 -5.60711
 -19.3739
 -18.8427
 -18.3545
 -18.7858
