 -85.3183
 -85.3276
 -85.3261
 -85.3306
 -85.4375
 -85.4385
 -85.4408
 -85.4422
 -85.4138
 -85.4102
 -85.4144
 -85.4112
 -85.4184
 -85.4145
 -85.414
 -85.4119
 -85.4732
 -85.4752
 -85.4716
 -85.4706
 -85.4683
 -85.466
 -85.47
 -85.4669
 -85.2842
 -85.2786
 -85.2803
 -85.2836
 -85.2973
 -85.2985
 -85.2986
 -85.2961
 -85.4678
 -85.4666
 -85.4637
 -85.4663
 -85.4669
 -85.4673
 -85.4665
 -85.4704
 -85.2585
 -85.2543
 -85.2605
 -85.2615
 -85.4114
 -85.4122
 -85.4084
 -85.4107
 -85.3451
 -85.345
 -85.3408
 -85.349
 -85.444
 -85.4393
 -85.4372
 -85.4408
 -85.3952
 -85.3934
 -85.3961
 -85.399
 -85.3025
 -85.2979
 -85.306
 -85.2985
 -85.4599
 -85.4615
 -85.4593
 -85.4622
 -85.422
 -85.4195
 -85.423
 -85.4204
 -85.3982
 -85.3999
 -85.4004
 -85.403
 -85.4544
 -85.4544
 -85.4561
 -85.4581
 -85.2882
 -85.2798
 -85.2886
 -85.2827
 -85.4788
 -85.4796
 -85.4817
 -85.4813
 -84.912
 -84.8964
 -84.8719
 -84.9078
 -85.4351
 -85.4361
 -85.4322
 -85.4318
 -85.39
 -85.3867
 -85.3897
 -85.392
 -85.4052
 -85.4065
 -85.4046
 -85.4033
 -85.3715
 -85.3768
 -85.3794
 -85.3718
 -85.2972
 -85.2916
 -85.2978
 -85.2954
 -85.3441
 -85.3426
 -85.3382
 -85.3415
 -85.4404
 -85.4402
 -85.4379
 -85.4358
 -85.3924
 -85.3983
 -85.3907
 -85.3933
 -85.346
 -85.3501
 -85.3501
 -85.346
 -85.4287
 -85.4251
 -85.4298
 -85.4259
 -85.4377
 -85.4361
 -85.4357
 -85.4365
 -85.3484
 -85.3447
 -85.3497
 -85.3414
 -85.3131
 -85.3118
 -85.3114
 -85.3122
 -85.425
 -85.4196
 -85.4247
 -85.4231
 -85.2156
 -85.2247
 -85.2229
 -85.232
 -85.4299
 -85.43
 -85.4359
 -85.4342
 -85.4833
 -85.4815
 -85.4827
 -85.4808
 -85.4097
 -85.409
 -85.4108
 -85.4052
 -85.4372
 -85.4402
 -85.4386
 -85.4381
 -85.2617
 -85.2595
 -85.2641
 -85.2559
 -85.4222
 -85.42
 -85.4209
 -85.4249
 -85.4672
 -85.4665
 -85.4692
 -85.468
 -85.3332
 -85.3375
 -85.3356
 -85.3336
 -85.4252
 -85.43
 -85.4287
 -85.4287
 -85.3002
 -85.3055
 -85.2986
 -85.2915
 -85.3542
 -85.3509
 -85.3495
 -85.3473
 -85.3989
 -85.3956
 -85.3946
 -85.3925
 -85.2896
 -85.2878
 -85.285
 -85.2879
 -85.4015
 -85.3979
 -85.398
 -85.4009
 -85.3584
 -85.3519
 -85.3578
 -85.3495
 -85.4104
 -85.4126
 -85.4099
 -85.4128
 -85.3395
 -85.3441
 -85.3417
 -85.348
 -85.4103
 -85.4094
 -85.4131
 -85.4073
 -85.4311
 -85.4317
 -85.4337
 -85.4356
 -85.4362
 -85.4348
 -85.4367
 -85.4314
 -85.3316
 -85.3327
 -85.3242
 -85.3352
 -85.3666
 -85.3641
 -85.3655
 -85.3713
 -84.9823
 -84.9466
 -84.9398
 -84.9612
 -85.3436
 -85.3435
 -85.3385
 -85.3423
 -85.3931
 -85.3984
 -85.3963
 -85.3976
 -85.3617
 -85.3607
 -85.3676
 -85.357
 -85.3604
 -85.3662
 -85.3595
 -85.3654
 -85.3
 -85.2961
 -85.3018
 -85.3014
 -85.4572
 -85.4606
 -85.4616
 -85.4568
 -85.4736
 -85.4746
 -85.4755
 -85.476
 -85.4025
 -85.4072
 -85.399
 -85.4015
 -85.3451
 -85.3439
 -85.3484
 -85.3426
 -85.4294
 -85.4313
 -85.4332
 -85.4291
 -85.2869
 -85.2752
 -85.2786
 -85.2781
 -85.2833
 -85.2769
 -85.2764
 -85.2855
 -84.9653
 -84.9433
 -84.9797
 -84.9756
 -85.412
 -85.4158
 -85.4139
 -85.4177
 -85.3259
 -85.3336
 -85.3352
 -85.3269
 -85.3158
 -85.31
 -85.3155
 -85.3216
 -85.4768
 -85.479
 -85.478
 -85.4792
 -85.3136
 -85.3122
 -85.308
 -85.3135
 -85.3203
 -85.3172
 -85.3128
 -85.3197
 -85.3305
 -85.3348
 -85.3307
 -85.3263
 -85.3766
 -85.3754
 -85.3798
 -85.3788
 -85.324
 -85.3297
 -85.326
 -85.3275
 -85.3532
 -85.3569
 -85.3581
 -85.3547
 -85.3663
 -85.3651
 -85.3634
 -85.3613
 -85.307
 -85.3005
 -85.3097
 -85.3031
 -84.8596
 -84.8387
 -84.9117
 -84.9176
 -85.2945
 -85.2966
 -85.3003
 -85.2972
 -85.4137
 -85.4118
 -85.4157
 -85.409
 -85.4149
 -85.4137
 -85.4173
 -85.4141
 -85.4348
 -85.4338
 -85.4322
 -85.4373
 -85.2936
 -85.2931
 -85.2941
 -85.2961
 -85.4801
 -85.48
 -85.4784
 -85.4817
 -85.4338
 -85.4369
 -85.4337
 -85.4343
 -85.2356
 -85.2332
 -85.2241
 -85.2277
 -85.355
 -85.3553
 -85.3528
 -85.362
 -85.3191
 -85.3223
 -85.3148
 -85.3175
 -85.3213
 -85.3181
 -85.3187
 -85.2961
 -85.2953
 -85.2952
 -85.2934
 -85.4223
 -85.4199
 -85.4179
 -85.4237
 -85.3714
 -85.3778
 -85.375
 -85.3713
 -85.4179
 -85.4218
 -85.4191
 -85.3429
 -85.3359
 -85.34
 -85.3372
 -85.3859
 -85.388
 -85.3871
 -85.3828
 -85.4512
 -85.448
 -85.4481
 -85.4535
 -85.2879
 -85.2897
 -85.3003
 -85.2958
 -85.3068
 -85.3018
 -85.2997
 -85.3029
 -85.4138
 -85.4097
 -85.4085
 -85.4099
 -85.4301
 -85.428
 -85.434
 -85.4333
 -85.2548
 -85.2522
 -85.2483
 -85.2405
 -85.3021
 -85.3034
 -85.313
 -85.3103
 -85.363
 -85.369
 -85.3723
 -85.3641
 -85.4692
 -85.4713
 -85.4699
 -85.4706
 -85.4122
 -85.4164
 -85.4172
 -85.4156
 -85.3857
 -85.3784
 -85.3855
 -85.3853
 -85.0832
 -85.0529
 -85.0885
 -85.0846
 -85.3774
 -85.3727
 -85.3786
 -85.3818
 -85.4508
 -85.4475
 -85.4509
 -85.4459
 -85.3244
 -85.315
 -85.3292
 -85.3252
 -85.3164
 -85.3177
 -85.3116
 -85.315
 -85.31
 -85.3036
 -85.3053
 -85.3074
 -85.2472
 -85.2461
 -85.2458
 -85.249
 -85.3152
 -85.3062
 -85.3064
 -85.3065
 -85.4159
 -85.4151
 -85.4157
 -85.4129
 -85.2817
 -85.2837
 -85.2866
 -85.2888
 -85.4657
 -85.4634
 -85.4646
 -85.4656
 -85.2809
 -85.2719
 -85.2732
 -85.2799
 -85.4502
 -85.4453
 -85.4501
 -85.4472
 -85.3758
 -85.3714
 -85.3716
 -85.3746
 -85.3526
 -85.3568
 -85.3593
 -85.3537
 -85.3376
 -85.3382
 -85.3443
 -85.3391
 -85.3276
 -85.3274
 -85.3238
 -85.3214
 -85.4781
 -85.4799
 -85.4805
 -85.4804
 -85.3329
 -85.3306
 -85.3327
 -85.331
 -85.4832
 -85.4817
 -85.4827
 -85.4805
 -85.4318
 -85.4311
 -85.4356
 -85.4323
 -85.1667
 -85.1893
 -85.1835
 -85.1635
 -85.4711
 -85.4704
 -85.4728
 -85.4738
 -85.3024
 -85.3111
 -85.3044
 -85.2981
 -85.1286
 -85.1206
 -85.1174
 -85.1243
 -85.4444
 -85.4437
 -85.4422
 -85.444
 -85.4745
 -85.4767
 -85.4753
 -85.4747
 -85.3966
 -85.3985
 -85.3956
 -85.3952
 -85.439
 -85.4351
 -85.4401
 -85.4365
 -85.321
 -85.3144
 -85.3176
 -85.3172
 -85.407
 -85.4054
 -85.4073
 -85.4113
 -85.3512
 -85.3475
 -85.3522
 -85.3525
 -85.2991
 -85.3015
 -85.2985
 -85.2981
 -85.2641
 -85.2631
 -85.2629
 -85.2685
 -85.3726
 -85.3707
 -85.3756
 -85.3691
 -85.3861
 -85.3867
 -85.3849
 -85.3819
 -85.3155
 -85.3139
 -85.3181
 -85.3215
 -85.3164
 -85.3097
 -85.3168
 -85.3151
 -85.4199
 -85.4205
 -85.4171
 -85.4175
 -85.4687
 -85.4679
 -85.471
 -85.4713
 -85.4649
 -85.4626
 -85.4651
 -85.4657
 -85.4634
 -85.4596
 -85.4605
 -85.4621
 -85.4225
 -85.4206
 -85.4239
 -85.4198
 -85.3155
 -85.3089
 -85.3141
 -85.3121
 -85.3179
 -85.3211
 -85.3227
 -85.3242
 -85.3837
 -85.3828
 -85.375
 -85.3755
 -85.4323
 -85.4299
 -85.4362
 -85.4341
 -85.4312
 -85.4289
 -85.4299
 -85.4326
 -85.4004
 -85.3967
 -85.399
 -85.3996
 -85.4113
 -85.4147
 -85.4097
 -85.4109
 -85.2622
 -85.2606
 -85.2638
 -85.2715
 -84.5463
 -84.5086
 -84.5488
 -84.4462
 -85.3271
 -85.326
 -85.3182
 -85.3225
 -84.821
 -84.8878
 -84.8667
 -85.3289
 -85.328
 -85.3313
 -85.3234
 -85.4545
 -85.4524
 -85.4538
 -85.4515
 -85.3959
 -85.3987
 -85.3992
 -85.4024
 -85.4686
 -85.4674
 -85.4707
 -85.4672
 -85.3154
 -85.3165
 -85.3106
 -85.3161
 -85.4258
 -85.4242
 -85.4296
 -85.4284
 -85.401
 -85.4014
 -85.3962
 -85.3979
 -85.4754
 -85.4767
 -85.4776
 -85.4741
 -85.4478
 -85.4472
 -85.4484
 -85.452
 -85.3273
 -85.3336
 -85.3293
 -85.3272
 -85.4251
 -85.4246
 -85.421
 -85.425
 -85.452
 -85.4468
 -85.4499
 -85.4473
 -85.1112
 -85.0752
 -85.1013
 -85.079
 -85.3934
 -85.3957
 -85.3975
 -85.3979
 -85.4512
 -85.452
 -85.454
 -85.4515
 -85.4161
 -85.4196
 -85.4131
 -85.4212
 -85.4472
 -85.4434
 -85.4477
 -85.4472
 -85.3153
 -85.3208
 -85.3238
 -85.3247
 -85.4464
 -85.4532
 -85.4465
 -85.452
 -85.3667
 -85.3699
 -85.3603
 -85.3656
 -85.3789
 -85.3817
 -85.3846
 -85.3781
 -85.4462
 -85.4459
 -85.4429
 -85.4478
 -85.4834
 -85.4819
 -85.482
 -85.4832
 -85.2674
 -85.2717
 -85.2746
 -85.2767
 -85.3499
 -85.3535
 -85.3568
 -85.3511
 -85.4064
 -85.404
 -85.4015
 -85.4029
 -85.4472
 -85.4493
 -85.4489
 -85.4492
 -85.335
 -85.3311
 -85.3322
 -85.3325
 -85.2747
 -85.2842
 -85.2883
 -85.2767
 -85.4288
 -85.429
 -85.4245
 -85.4245
 -85.4156
 -85.4192
 -85.4156
 -85.4171
 -85.4717
 -85.4735
 -85.4754
 -85.4716
 -85.2957
 -85.3036
 -85.2938
 -85.3012
 -85.4743
 -85.4763
 -85.4759
 -85.4746
 -85.344
 -85.3515
 -85.3484
 -85.346
 -84.6151
 -84.594
 -84.6099
 -84.6395
 -85.4608
 -85.4632
 -85.4639
 -85.463
 -85.4228
 -85.4252
 -85.4211
 -85.4164
 -85.464
 -85.464
 -85.4623
 -85.4617
 -85.3842
 -85.3787
 -85.383
 -85.3852
 -85.3738
 -85.3771
 -85.3781
 -85.3748
 -85.4411
 -85.4369
 -85.438
 -85.4384
 -85.3152
 -85.3173
 -85.3125
 -85.3161
 -85.3068
 -85.3105
 -85.3105
 -85.3087
 -85.0135
 -84.9943
 -85.003
 -84.9904
 -85.4
 -85.4035
 -85.405
 -85.4073
 -85.3873
 -85.3843
 -85.3917
 -85.3869
 -85.4174
 -85.4114
 -85.4148
 -85.4185
 -85.3503
 -85.3569
 -85.3575
 -85.3485
 -85.469
 -85.4687
 -85.4707
 -85.4663
 -85.4738
 -85.4778
 -85.4741
 -85.4732
 -85.4202
 -85.4219
 -85.4258
 -85.4259
 -84.0484
 -84.0417
 -84.0658
 -84.0968
 -85.3651
 -85.3621
 -85.3664
 -85.3595
 -85.3699
 -85.3684
 -85.363
 -85.3684
 -85.3661
 -85.3668
 -85.3611
 -85.361
 -85.4426
 -85.4411
 -85.4454
 -85.4402
 -85.1057
 -85.126
 -85.084
 -85.1033
 -84.8657
 -84.8847
 -84.8169
 -84.8287
 -85.4433
 -85.4405
 -85.4435
 -85.4395
 -85.3384
 -85.3452
 -85.3356
 -85.3449
 -85.3623
 -85.3621
 -85.3639
 -85.3642
 -85.419
 -85.4162
 -85.4156
 -85.4114
 -85.3112
 -85.3142
 -85.3167
 -85.3137
 -85.4484
 -85.4443
 -85.4455
 -85.4478
 -85.3508
 -85.3404
 -85.3464
 -85.3389
 -85.3408
 -85.3395
 -85.3342
 -85.3397
 -85.2733
 -85.2679
 -85.2788
 -85.2657
 -85.3653
 -85.3723
 -85.3671
 -85.3725
 -85.4545
 -85.4563
 -85.4563
 -85.4538
 -85.4248
 -85.4295
 -85.4309
 -85.4266
 -85.3049
 -85.3033
 -85.3101
 -85.3095
 -85.332
 -85.3391
 -85.3393
 -85.3319
 -85.4651
 -85.466
 -85.4677
 -85.4672
 -85.447
 -85.4445
 -85.4462
 -85.4447
 -85.3698
 -85.368
 -85.3645
 -85.3677
 -85.2927
 -85.2938
 -85.2935
 -85.2954
 -85.1813
 -85.2095
 -85.207
 -85.1879
 -85.4204
 -85.4167
 -85.4146
 -85.4189
 -85.2754
 -85.2653
 -85.2749
 -85.2517
 -85.4572
 -85.4536
 -85.4535
 -85.4568
 -85.4074
 -85.4131
 -85.4098
 -85.406
 -85.4545
 -85.4538
 -85.4526
 -85.4531
 -85.4293
 -85.4253
 -85.4251
 -85.4274
 -85.3695
 -85.3673
 -85.3691
 -85.3729
 -85.3186
 -85.3097
 -85.3118
 -85.3154
 -85.202
 -85.2248
 -85.2015
 -85.2087
 -85.252
 -85.2343
 -85.2529
 -85.2463
 -85.3108
 -85.3011
 -85.2992
 -85.3015
 -85.3798
 -85.3814
 -85.3802
 -85.373
 -85.3818
 -85.382
 -85.384
 -85.3783
 -85.3873
 -85.3827
 -85.3908
 -85.3859
 -85.4227
 -85.4202
 -85.4237
 -85.4231
 -85.0788
 -85.0517
 -85.0447
 -85.0423
 -85.4002
 -85.4009
 -85.399
 -85.403
 -85.3033
 -85.2952
 -85.2984
 -85.3008
 -85.3604
 -85.3668
 -85.3626
 -85.3665
 -85.4722
 -85.4681
 -85.4718
 -85.471
 -85.376
 -85.3733
 -85.3734
 -85.3712
 -85.2861
 -85.2831
 -85.285
 -85.2763
 -85.3566
 -85.3566
 -85.3601
 -85.3632
 -85.3212
 -85.3249
 -85.3241
 -85.3199
 -85.3698
 -85.3639
 -85.3712
 -85.3672
 -85.1023
 -85.0818
 -85.0891
 -85.0996
 -85.3639
 -85.3641
 -85.3692
 -85.3694
 -85.424
 -85.4227
 -85.4253
 -85.4234
 -85.4108
 -85.4113
 -85.4132
 -85.4114
 -85.4647
 -85.4595
 -85.4639
 -85.4615
 -85.3335
 -85.3322
 -85.337
 -85.3335
 -85.314
 -85.319
 -85.3144
 -85.3255
 -85.462
 -85.4581
 -85.4623
 -85.4617
 -85.3218
 -85.3214
 -85.3286
 -85.3219
 -85.4545
 -85.4531
 -85.4561
 -85.453
 -85.3939
 -85.4003
 -85.3961
 -85.3985
 -85.381
 -85.3739
 -85.3808
 -85.382
 -85.3193
 -85.3246
 -85.3232
 -85.3187
 -85.3736
 -85.3729
 -85.3774
 -85.3719
 -85.4566
 -85.455
 -85.457
 -85.457
 -84.6208
 -84.6214
 -84.6283
 -84.5705
 -85.2912
 -85.2904
 -85.2904
 -85.2915
 -85.2835
 -85.284
 -85.2834
 -85.2785
 -85.3401
 -85.342
 -85.3375
 -85.3451
 -85.3616
 -85.3577
 -85.3611
 -85.3586
 -85.3344
 -85.3315
 -85.3291
 -85.3359
 -85.4722
 -85.4707
 -85.475
 -85.4698
 -85.3154
 -85.3121
 -85.3133
 -85.3194
 -85.4175
 -85.4183
 -85.42
 -85.4161
 -85.3794
 -85.4454
 -85.4413
 -85.4428
 -85.4427
 -85.4098
 -85.4126
 -85.4153
 -85.4137
 -85.2601
 -85.2692
 -85.2722
 -85.2654
 -85.3459
 -85.3432
 -85.347
 -85.351
 -85.3202
 -85.3131
 -85.3188
 -85.3219
 -85.4518
 -85.4486
 -85.4488
 -85.4491
 -85.3668
 -85.3583
 -85.3642
 -85.3618
 -85.4557
 -85.4566
 -85.4526
 -85.4525
 -85.4277
 -85.4301
 -85.4264
 -85.4314
 -85.2681
 -85.2721
 -85.269
 -85.2764
 -85.3075
 -85.299
 -85.3135
 -85.3086
 -85.4251
 -85.4277
 -85.4277
 -85.4249
 -85.3739
 -85.3671
 -85.3722
 -85.2832
 -85.2774
 -85.2795
 -85.2867
 -85.4185
 -85.4124
 -85.4161
 -85.4123
 -85.3244
 -85.3177
 -85.317
 -85.3234
 -85.3761
 -85.3682
 -85.3719
 -85.3761
 -85.4625
 -85.4624
 -85.4586
 -85.462
 -85.3384
 -85.3359
 -85.3333
 -85.3379
 -85.4462
 -85.4427
 -85.446
 -85.4471
 -85.3857
 -85.3833
 -85.3862
 -85.381
 -85.4362
 -85.4342
 -85.4313
 -85.4333
 -85.4598
 -85.4599
 -85.4629
 -85.4614
 -85.3416
 -85.341
 -85.3447
 -85.3446
 -84.5518
 -84.661
 -84.6166
 -84.6837
 -85.474
 -85.4721
 -85.4726
 -85.4716
 -85.4157
 -85.4141
 -85.4112
 -85.4133
 -85.2935
 -85.2938
 -85.3052
 -85.296
 -85.3577
 -85.3605
 -85.3626
 -85.3569
 -85.1363
 -85.1426
 -85.1485
 -85.1265
 -85.4568
 -85.4583
 -85.4622
 -85.4587
 -85.2977
 -85.2952
 -85.2966
 -85.297
 -85.3964
 -85.4004
 -85.3943
 -85.3976
 -85.3043
 -85.2909
 -85.3007
 -85.3025
 -85.4785
 -85.4778
 -85.4783
 -85.475
 -85.4774
 -85.4772
 -85.4753
 -85.474
 -85.4277
 -85.4236
 -85.4226
 -85.4282
 -85.4008
 -85.4024
 -85.4007
 -85.3974
 -85.4023
 -85.2735
 -85.2767
 -85.2612
 -85.2731
 -85.2995
 -85.296
 -85.2942
 -85.3029
 -85.4194
 -85.4234
 -85.4237
 -85.4234
 -85.3018
 -85.3058
 -85.3058
 -85.3017
 -85.3179
 -85.3168
 -85.3155
 -85.3223
 -85.425
 -85.4265
 -85.4254
 -85.4219
 -85.3457
 -85.3519
 -85.3456
 -85.3519
 -85.4229
 -85.4233
 -85.4241
 -85.4269
 -85.3225
 -85.3211
 -85.3152
 -85.3232
 -85.342
 -85.347
 -85.3466
 -85.3474
 -85.3683
 -85.3723
 -85.3658
 -85.3716
 -85.4003
 -85.4051
 -85.4017
 -85.4063
 -85.4403
 -85.4385
 -85.4435
 -85.4435
 -85.3928
 -85.3915
 -85.3888
 -85.3892
 -85.3936
 -85.3951
 -85.397
 -85.3956
 -85.2702
 -85.2701
 -85.2734
 -85.2758
 -85.4171
 -85.4183
 -85.4193
 -85.4187
 -85.3821
 -85.3834
 -85.385
 -85.3814
 -85.3905
 -85.3908
 -85.3875
 -85.3904
 -85.3515
 -85.3533
 -85.3467
 -85.3503
 -85.2853
 -85.2847
 -85.2884
 -85.2802
 -85.4348
 -85.435
 -85.4376
 -85.4369
 -85.2879
 -85.2819
 -85.2845
 -85.2924
 -85.4741
 -85.4739
 -85.4768
 -85.4753
 -85.4479
 -85.4453
 -85.4499
 -85.4486
 -85.4504
 -85.4504
 -85.4504
 -85.4493
 -85.4478
 -85.4471
 -85.4465
 -85.4499
 -85.4278
 -85.4295
 -85.4256
 -85.4298
 -85.1948
 -85.1838
 -85.1607
 -85.3926
 -85.3866
 -85.392
 -85.3901
 -85.4436
 -85.4426
 -85.4413
 -85.4439
 -85.3491
 -85.3432
 -85.3467
 -85.3484
 -85.3272
 -85.3278
 -85.3252
 -85.3291
 -85.4304
 -85.431
 -85.4345
 -85.4272
 -85.3659
 -85.3642
 -85.3676
 -85.3705
 -85.3326
 -85.3329
 -85.3319
 -85.3299
 -85.4705
 -85.4736
 -85.4118
 -85.4107
 -85.4071
 -85.4069
 -85.37
 -85.3699
 -85.3663
 -85.4003
 -85.4011
 -85.3997
 -85.3967
 -85.2046
 -85.2045
 -85.2202
 -85.2188
 -85.4464
 -85.4493
 -85.4489
 -85.4458
 -85.3996
 -85.3985
 -85.3961
 -85.3964
 -85.348
 -85.3426
 -85.345
 -85.3493
 -85.3879
 -85.3825
 -85.3845
 -85.3864
 -85.2995
 -85.298
 -85.299
 -85.2985
 -85.2738
 -85.2848
 -85.2771
 -85.2793
 -85.3633
 -85.3677
 -85.3689
 -85.366
 -85.2859
 -85.2833
 -85.286
 -85.2928
 -85.3696
 -85.3669
 -85.368
 -85.3658
 -85.4506
 -85.4501
 -85.4465
 -85.4459
 -85.305
 -85.3078
 -85.3098
 -85.3074
 -84.9973
 -85.0316
 -84.9795
 -85.0093
 -85.4053
 -85.3976
 -85.4031
 -85.4034
 -85.3578
 -85.3615
 -85.3569
 -85.3617
 -85.2984
 -85.2969
 -85.302
 -85.3004
 -85.3728
 -85.3692
 -85.3741
 -85.3746
 -85.4657
 -85.4646
 -85.4664
 -85.4658
 -85.3219
 -85.3218
 -85.3191
 -85.3224
 -85.4093
 -85.4056
 -85.4054
 -85.4048
 -85.3557
 -85.3604
 -85.3563
 -85.3643
 -85.4266
 -85.4286
 -85.4279
 -85.4313
 -85.4516
 -85.4508
 -85.4528
 -85.45
 -85.2966
 -85.3018
 -85.2982
 -85.3081
 -85.3371
 -85.3409
 -85.3399
 -85.3391
 -85.399
 -85.3985
 -85.393
 -85.3961
 -85.2956
 -85.2969
 -85.2967
 -85.2986
 -84.6627
 -84.6233
 -84.6282
 -84.6608
 -85.3861
 -85.3816
 -85.3823
 -85.3805
 -84.5159
 -84.5057
 -84.5035
 -84.5662
 -84.6408
 -84.7212
 -84.6945
 -84.6504
 -85.2085
 -85.2198
 -85.2145
 -85.2036
 -85.4161
 -85.4133
 -85.4108
 -85.4089
 -85.415
 -85.4173
 -85.4181
 -85.4203
 -85.4207
 -85.4184
 -85.4204
 -85.4162
 -85.4076
 -85.4031
 -85.4043
 -85.4084
 -85.1429
 -85.1282
 -85.1424
 -85.1426
 -85.3077
 -85.3055
 -85.3112
 -85.3087
 -85.2881
 -85.2821
 -85.2862
 -85.2804
 -85.3467
 -85.3526
 -85.3471
 -85.3532
 -85.3917
 -85.389
 -85.3921
 -85.3896
 -85.4275
 -85.4261
 -85.4246
 -85.4273
 -85.3097
 -85.3178
 -85.3214
 -85.3127
 -85.4166
 -85.3767
 -85.3804
 -85.3807
 -85.3784
 -85.4764
 -85.4772
 -85.4799
 -85.4782
 -85.365
 -85.3667
 -85.3692
 -85.3659
 -85.4583
 -85.4621
 -85.4592
 -85.3052
 -85.3076
 -85.3101
 -85.3043
 -84.8513
 -84.8949
 -84.8685
 -84.8894
 -85.3743
 -85.3745
 -85.3811
 -85.3715
 -85.3509
 -85.3427
 -85.3437
 -85.3436
 -85.2922
 -85.2958
 -85.3002
 -85.3029
 -85.2997
 -85.302
 -85.2972
 -85.303
 -85.1957
 -85.1848
 -85.1935
 -85.1938
 -85.3999
 -85.3987
 -85.4011
 -85.4074
 -85.3762
 -85.3818
 -85.3749
 -85.3791
 -85.3361
 -85.3299
 -85.3363
 -85.3332
 -85.3639
 -85.361
 -85.3699
 -85.4305
 -85.4287
 -85.4281
 -85.3114
 -85.3129
 -85.3033
 -85.3016
 -85.2496
 -85.2473
 -85.2473
 -85.2491
 -85.323
 -85.3275
 -85.3264
 -85.3218
 -85.2336
 -85.2203
 -85.2369
 -85.2164
 -85.4388
 -85.4431
 -85.44
 -85.4412
 -85.4269
 -85.4288
 -85.4298
 -85.4323
 -85.2979
 -85.2961
 -85.297
 -85.2961
 -85.1429
 -85.1161
 -85.1422
 -85.1469
 -85.3871
 -85.3807
 -85.3864
 -85.384
 -85.4687
 -85.4655
 -85.4693
 -85.466
 -85.2319
 -85.2303
 -85.2247
 -85.231
 -85.414
 -85.4104
 -85.4095
 -85.4149
 -85.0026
 -84.9762
 -84.995
 -84.9772
 -85.4267
 -85.4284
 -85.4261
 -85.4315
 -85.3504
 -85.3453
 -85.353
 -85.3439
 -85.4393
 -85.4396
 -85.4423
 -85.4425
 -85.3034
 -85.3051
 -85.3057
 -85.3103
 -85.3402
 -85.3355
 -85.336
 -85.3359
 -85.3041
 -85.3017
 -85.3103
 -85.3089
 -85.3248
 -85.3228
 -85.3301
 -85.3185
 -85.3869
 -85.3901
 -85.3892
 -85.3849
 -85.3624
 -85.3584
 -85.3636
 -85.3635
 -85.4429
 -85.44
 -85.4373
 -85.4377
 -85.4734
 -85.4753
 -85.4709
 -85.4712
 -85.3542
 -85.3536
 -85.3497
 -85.353
 -85.4495
 -85.448
 -85.4473
 -85.4515
 -85.422
 -85.4268
 -85.4294
 -85.4256
 -85.0992
 -85.0918
 -85.0656
 -85.1026
 -85.2754
 -85.2894
 -85.2859
 -85.2821
 -85.3495
 -85.346
 -85.3446
 -85.346
 -85.1934
 -85.1842
 -85.1822
 -85.1696
 -85.3908
 -85.3957
 -85.3951
 -85.3935
 -85.4368
 -85.4434
 -85.4399
 -85.4401
 -85.2014
 -85.2234
 -85.2016
 -85.2007
 -85.366
 -85.3702
 -85.3673
 -85.3681
 -85.3291
 -85.329
 -85.3291
 -85.3262
 -84.6501
 -84.7013
 -84.6788
 -84.6343
 -85.3461
 -85.3454
 -85.3441
 -85.3499
 -85.3792
 -85.3825
 -85.3821
 -85.3828
 -85.4253
 -85.4294
 -85.4268
 -85.4304
 -85.3256
 -85.3273
 -85.3293
 -85.3782
 -85.3772
 -85.3755
 -85.3779
 -85.3349
 -85.3359
 -85.3423
 -85.3375
 -85.4157
 -85.412
 -85.4147
 -85.4142
 -85.414
 -85.4184
 -85.4182
 -85.4166
 -85.4542
 -85.4513
 -85.4532
 -85.4498
 -85.3076
 -85.3101
 -85.3135
 -85.3085
 -85.4662
 -85.4675
 -85.4688
 -85.4668
 -85.3192
 -85.3241
 -85.3204
 -85.3179
 -85.3755
 -85.381
 -85.3805
 -85.3839
 -85.3851
 -85.3806
 -85.3811
 -85.3793
 -84.5828
 -84.5227
 -84.5687
 -84.5756
 -85.3301
 -85.3259
 -85.3303
 -85.3311
 -85.3705
 -85.3702
 -85.3744
 -85.3799
 -85.3678
 -85.3697
 -85.3696
 -85.3644
 -85.4747
 -85.4746
 -85.472
 -85.4745
 -85.3188
 -85.3242
 -85.3272
 -85.3206
 -85.3286
 -85.3252
 -85.3303
 -85.3239
 -85.4254
 -85.4286
 -85.4255
 -85.4281
 -85.2971
 -85.2955
 -85.2912
 -85.2902
 -85.296
 -85.2941
 -85.2985
 -85.294
 -85.4108
 -85.4051
 -85.4104
 -85.4076
 -85.4168
 -85.4162
 -85.413
 -85.4163
 -85.3875
 -85.3875
 -85.3933
 -85.392
 -85.3235
 -85.3208
 -85.403
 -85.3998
 -85.4056
 -85.4008
 -85.328
 -85.3309
 -85.3285
 -85.3292
 -85.3581
 -85.3634
 -85.365
 -85.3624
 -85.4588
 -85.4571
 -85.4556
 -85.4597
 -85.3579
 -85.3595
 -85.3622
 -85.363
 -85.4323
 -85.4349
 -85.4368
 -85.431
 -85.3033
 -85.3167
 -85.312
 -85.3161
 -85.3497
 -85.3455
 -85.3439
 -85.347
 -85.3703
 -85.3779
 -85.3736
 -85.3761
 -85.3107
 -85.306
 -85.3039
 -85.3071
 -84.9995
 -84.9895
 -84.9863
 -84.9597
 -85.4692
 -85.4688
 -85.4681
 -85.4692
 -85.2295
 -85.2251
 -85.232
 -85.2247
 -85.3937
 -85.3958
 -85.391
 -85.3914
 -84.9814
 -84.9755
 -85.0177
 -84.9863
 -85.4016
 -85.4053
 -85.4021
 -85.4017
 -85.3211
 -85.3201
 -85.3185
 -85.3181
 -85.3217
 -85.3228
 -85.3177
 -85.3206
 -85.3831
 -85.3853
 -85.3791
 -85.3834
 -85.4437
 -85.4395
 -85.4426
 -85.4389
 -85.3456
 -85.3524
 -85.3507
 -85.3521
 -85.2972
 -85.2953
 -85.2973
 -85.2993
 -85.4415
 -85.4465
 -85.4437
 -85.4474
 -85.3082
 -85.2978
 -85.3099
 -85.3098
 -85.344
 -85.3499
 -85.3484
 -85.3517
 -85.4231
 -85.4299
 -85.4286
 -85.4259
 -85.3812
 -85.3859
 -85.3865
 -85.3866
 -85.3629
 -85.3592
 -85.3633
 -85.3653
 -85.458
 -85.4605
 -85.4617
 -85.4625
 -85.4476
 -85.4488
 -85.4488
 -85.447
 -85.3949
 -85.395
 -85.3896
 -85.3925
 -85.3635
 -85.3666
 -85.3621
 -85.372
 -85.3307
 -85.3328
 -85.3339
 -85.3419
 -85.2847
 -85.2836
 -85.2794
 -85.4307
 -85.4334
 -85.4317
 -85.4355
 -84.9319
 -84.9067
 -84.8866
 -84.8747
 -85.4143
 -85.4088
 -85.4117
 -85.4111
 -85.3132
 -85.3065
 -85.3099
 -85.3103
 -85.3027
 -85.2991
 -85.3003
 -85.3
 -85.4478
 -85.4441
 -85.4462
 -85.4511
 -85.3857
 -85.3824
 -85.3872
 -85.3837
 -85.3643
 -85.3626
 -85.3271
 -85.3556
 -85.3612
 -85.3548
 -85.3583
 -85.0119
 -85.0298
 -85.4093
 -85.4113
 -85.4134
 -85.2504
 -85.2577
 -85.2427
 -85.2523
 -85.4103
 -85.4055
 -85.4069
 -85.407
 -85.3427
 -85.3484
 -85.3471
 -85.347
 -85.3247
 -85.3323
 -85.3276
 -85.3276
 -85.4586
 -85.4587
 -85.4628
 -85.4602
 -85.2624
 -85.2699
 -85.2612
 -85.27
 -85.4069
 -85.4076
 -85.4078
 -85.4105
 -85.4634
 -85.4644
 -85.4606
 -85.461
 -85.3804
 -85.3758
 -85.3809
 -85.3773
 -85.4061
 -85.4005
 -85.4031
 -85.4024
 -85.3714
 -85.3761
 -85.3728
 -85.3656
 -85.478
 -85.4736
 -85.4767
 -85.4729
 -85.4747
 -85.4746
 -85.4732
 -85.4716
 -85.4723
 -85.4712
 -85.4709
 -85.4724
 -85.3585
 -85.3536
 -85.358
 -85.3577
 -85.3944
 -85.3898
 -85.3913
 -85.3942
 -85.3608
 -85.3601
 -85.3563
 -85.3593
 -85.3529
 -85.3505
 -85.3582
 -85.351
 -85.4163
 -85.418
 -85.4188
 -85.4148
 -85.4427
 -85.4473
 -85.4461
 -85.4475
 -85.4408
 -85.4422
 -85.4383
 -85.4434
 -85.3775
 -85.3804
 -85.3767
 -85.3796
 -85.3685
 -85.3676
 -85.367
 -85.3646
 -85.3196
 -85.316
 -85.318
 -85.3238
 -85.4261
 -85.4297
 -85.4294
 -85.4251
 -85.1814
 -85.1795
 -85.1694
 -85.1995
 -85.4356
 -85.4382
 -85.4349
 -85.4337
 -85.3901
 -85.3966
 -85.3892
 -85.3949
 -85.3856
 -85.3888
 -85.3864
 -85.3844
 -85.257
 -85.2561
 -85.2479
 -85.2398
 -84.3154
 -84.362
 -84.3211
 -84.3251
 -85.3371
 -85.3422
 -85.337
 -85.3386
 -85.4353
 -85.4303
 -85.4321
 -85.435
 -85.3029
 -85.2986
 -85.3017
 -85.3052
 -85.3926
 -85.3947
 -85.39
 -85.3958
 -85.3998
 -85.4035
 -85.4075
 -85.4057
 -85.4246
 -85.4266
 -85.4212
 -85.4232
 -85.1626
 -85.1432
 -85.1491
 -85.156
 -85.1929
 -85.1913
 -85.1857
 -85.1855
 -85.4338
 -85.4395
 -85.4369
 -85.4372
 -85.4177
 -85.4117
 -85.4121
 -85.4159
 -85.3364
 -85.337
 -85.3342
 -85.3348
 -85.3733
 -85.3711
 -85.3753
 -85.378
 -85.3898
 -85.3916
 -85.39
 -85.3892
 -85.3297
 -85.3273
 -85.3345
 -85.3277
 -85.4075
 -85.4052
 -85.4051
 -85.4022
 -85.4866
 -85.4844
 -85.486
 -85.4863
 -85.3967
 -85.4012
 -85.4012
 -85.4043
 -85.3741
 -85.3764
 -85.3726
 -85.3793
 -85.3737
 -85.3729
 -85.3686
 -85.3741
 -85.3903
 -85.3926
 -85.3904
 -85.3865
 -85.4677
 -85.4684
 -85.4659
 -85.4678
 -85.4434
 -85.4405
 -85.4426
 -85.4048
 -85.4044
 -85.4076
 -85.4043
 -85.2976
 -85.2971
 -85.301
 -85.2966
 -85.3508
 -85.3515
 -85.3471
 -85.3526
 -85.4407
 -85.4357
 -85.4356
 -85.4357
 -85.32
 -85.3214
 -85.3229
 -85.3253
 -85.3429
 -85.3379
 -85.3375
 -85.3437
 -85.3488
 -85.3468
 -85.3396
 -85.345
 -85.4142
 -85.4115
 -85.4106
 -85.4101
 -85.3905
 -85.3861
 -85.3913
 -85.3826
 -85.4051
 -85.3969
 -85.3999
 -85.4009
 -85.3073
 -85.3083
 -85.3101
 -85.3073
 -85.3515
 -85.3553
 -85.3565
 -85.352
 -85.4109
 -85.4076
 -85.4114
 -85.414
 -85.3376
 -85.3403
 -85.3432
 -85.3352
 -85.3967
 -85.4003
 -85.4008
 -85.3978
 -85.3044
 -85.303
 -85.3057
 -85.3023
 -85.464
 -85.4649
 -85.4615
 -85.464
 -85.3156
 -85.3106
 -85.3168
 -85.3194
 -85.3035
 -85.2925
 -85.2992
 -85.2991
 -85.421
 -85.4209
 -85.4237
 -85.4249
 -85.3191
 -85.3206
 -85.3218
 -85.3208
 -85.4023
 -85.4011
 -85.4028
 -85.3984
 -85.246
 -85.2496
 -85.2356
 -85.2399
 -85.3857
 -85.3839
 -85.3853
 -85.3889
 -85.4544
 -85.4592
 -85.4548
 -85.4577
 -85.3876
 -85.3814
 -85.381
 -85.3854
 -85.425
 -85.427
 -85.4249
 -85.425
 -85.3999
 -85.3977
 -85.3988
 -85.402
 -85.3965
 -85.3986
 -85.3992
 -85.403
 -85.4679
 -85.4678
 -85.4691
 -85.4644
 -85.3039
 -85.3017
 -85.2989
 -85.2977
 -85.3064
 -85.304
 -85.2988
 -85.3037
 -85.4472
 -85.4468
 -85.4449
 -85.4497
 -85.4572
 -85.459
 -85.4567
 -85.3297
 -85.3282
 -85.3277
 -85.3309
 -85.4075
 -85.4118
 -85.407
 -85.4067
 -85.3914
 -85.3933
 -85.3881
 -85.3938
 -85.2897
 -85.295
 -85.2825
 -85.2879
 -85.4259
 -85.4286
 -85.4276
 -85.4274
 -85.3702
 -85.3642
 -85.3654
 -85.3697
 -85.3847
 -85.3798
 -85.3802
 -85.3794
 -85.4295
 -85.4326
 -85.4324
 -85.4316
 -85.2888
 -85.2873
 -85.2896
 -85.292
 -85.326
 -85.3185
 -85.3219
 -85.3196
 -85.4712
 -85.4681
 -85.4709
 -85.4697
 -85.3083
 -85.3077
 -85.309
 -85.3157
 -85.295
 -85.2933
 -85.2941
 -85.2944
 -85.3735
 -85.3747
 -85.3725
 -85.3789
 -85.0448
 -85.0552
 -85.0299
 -85.075
 -85.3818
 -85.3828
 -85.3802
 -85.3825
 -85.4336
 -85.4323
 -85.4311
 -85.4302
 -85.4448
 -85.4423
 -85.4436
 -85.2655
 -85.2653
 -85.2722
 -85.2678
 -85.3178
 -85.3233
 -85.3158
 -85.3212
 -85.2938
 -85.2917
 -85.2829
 -85.2859
 -85.3262
 -85.3214
 -85.3248
 -85.3241
 -85.4738
 -85.4753
 -85.4764
 -85.4756
 -85.2731
 -85.2736
 -85.2707
 -85.2649
 -85.3097
 -85.3055
 -85.31
 -85.3181
 -85.4436
 -85.4465
 -85.4439
 -85.4428
 -85.3446
 -85.3439
 -85.3476
 -85.3135
 -85.309
 -85.3161
 -85.3872
 -85.3859
 -85.3814
 -85.0743
 -85.11
 -85.1142
 -85.0859
 -85.3844
 -85.3879
 -85.3863
 -85.3892
 -85.3807
 -85.384
 -85.3773
 -85.3776
 -85.4476
 -85.45
 -85.4466
 -85.4462
 -85.4583
 -85.4577
 -85.4627
 -85.4577
 -85.2838
 -85.2723
 -85.272
 -85.2894
 -85.3922
 -85.3966
 -85.3974
 -85.3946
 -85.3898
 -85.3936
 -85.3953
 -85.3943
 -85.3642
 -85.3713
 -85.368
 -85.3723
 -85.3361
 -85.3379
 -85.3398
 -85.3309
 -85.3927
 -85.3875
 -85.3919
 -85.3927
 -85.3076
 -85.3093
 -85.3073
 -85.3109
 -85.4555
 -85.4541
 -85.4556
 -85.4562
 -85.3291
 -85.3269
 -85.3295
 -85.3343
 -85.444
 -85.4407
 -85.443
 -85.4419
 -85.4623
 -85.4609
 -85.4579
 -85.4612
 -85.4628
 -85.4621
 -85.4615
 -85.4607
 -85.3168
 -85.3134
 -85.4219
 -85.4207
 -85.4185
 -85.4206
 -85.299
 -85.308
 -85.3044
 -85.3011
 -85.4306
 -85.4365
 -85.4349
 -85.436
 -85.4426
 -85.4407
 -85.4447
 -85.4409
 -85.3236
 -85.3303
 -85.3298
 -85.3275
 -85.3925
 -85.3927
 -85.396
 -85.3952
 -85.3265
 -85.3264
 -85.3313
 -85.3268
 -85.3542
 -85.3533
 -85.3549
 -85.3595
 -84.729
 -84.7997
 -84.6991
 -84.7574
 -85.4521
 -85.4502
 -85.4552
 -85.4518
 -85.3275
 -85.3241
 -85.3298
 -85.3354
 -85.264
 -85.258
 -85.2582
 -85.2657
 -85.3624
 -85.3593
 -85.365
 -85.3651
 -85.2466
 -85.2313
 -85.2236
 -85.2489
 -85.3608
 -85.3562
 -85.3527
 -85.359
 -85.4196
 -85.4184
 -85.4225
 -85.4165
 -85.3684
 -85.3649
 -85.365
 -85.3669
 -85.4485
 -85.4534
 -85.4489
 -85.3624
 -85.3673
 -85.363
 -85.3674
 -84.7535
 -84.7145
 -84.7218
 -84.7075
 -85.4758
 -85.4763
 -85.4773
 -85.4758
 -85.3909
 -85.3893
 -85.392
 -85.3883
 -85.4329
 -85.4306
 -85.4269
 -85.4314
 -85.2893
 -85.2953
 -85.2786
 -85.2863
 -85.3342
 -85.3394
 -85.3309
 -85.3373
 -85.3348
 -85.3438
 -85.3375
 -85.3433
 -85.4603
 -85.4583
 -85.4614
 -85.4633
 -85.3453
 -85.3415
 -85.3378
 -85.3399
 -85.4723
 -85.4713
 -85.473
 -85.4698
 -85.4156
 -85.4109
 -85.4112
 -85.4161
 -85.3072
 -85.3085
 -85.3101
 -85.3066
 -85.0144
 -85.0314
 -85.0578
 -85.0081
 -85.3544
 -85.3465
 -85.3512
 -85.3443
 -85.3715
 -85.3721
 -85.376
 -85.3712
 -85.4216
 -85.4223
 -85.4198
 -85.4168
 -84.7825
 -84.7011
 -84.7927
 -84.7767
 -85.3573
 -85.3538
 -85.3601
 -85.3579
 -85.4694
 -85.4671
 -85.4666
 -85.4671
 -85.4398
 -85.4425
 -85.4413
 -85.44
 -85.438
 -85.4387
 -85.4414
 -85.4372
 -85.4333
 -85.4305
 -85.4291
 -85.4309
 -85.4391
 -85.4441
 -85.4417
 -85.4411
 -85.4029
 -85.4039
 -85.4031
 -85.4035
 -85.3098
 -85.3242
 -85.3298
 -85.3299
 -85.3277
 -85.4141
 -85.41
 -85.4115
 -85.4103
 -85.4134
 -85.4144
 -85.4087
 -85.4098
 -85.2496
 -85.2522
 -85.2519
 -85.2497
 -85.451
 -85.4509
 -85.4495
 -85.4513
 -85.4311
 -85.434
 -85.4383
 -85.4358
 -85.3085
 -85.3151
 -85.3145
 -85.3097
 -85.3102
 -85.3081
 -85.3239
 -85.3274
 -85.3255
 -85.3302
 -85.3038
 -85.2956
 -85.2847
 -85.2911
 -85.4122
 -85.4164
 -85.4151
 -85.4124
 -85.4724
 -85.4725
 -85.4718
 -85.473
 -85.3757
 -85.3727
 -85.3755
 -85.3706
 -85.4594
 -85.4543
 -85.4519
 -85.4521
 -85.3593
 -85.359
 -85.356
 -85.3609
 -85.4104
 -85.4074
 -85.4048
 -85.4051
 -85.2837
 -85.2809
 -85.2812
 -85.2692
 -85.3942
 -85.3982
 -85.3921
 -85.3952
 -85.4005
 -85.406
 -85.4081
 -85.4017
 -85.3154
 -85.3132
 -85.3091
 -85.3114
 -85.3437
 -85.3404
 -85.3498
 -85.3451
 -85.3605
 -85.36
 -85.3553
 -85.3524
 -85.3932
 -85.3961
 -85.3942
 -85.3955
 -85.1979
 -85.2079
 -85.2123
 -85.2235
 -85.4027
 -85.3983
 -85.4013
 -85.4038
 -85.3442
 -85.338
 -85.3449
 -85.3492
 -85.4205
 -85.4192
 -85.4204
 -85.4172
 -85.4462
 -85.4431
 -85.4458
 -85.4439
 -85.4646
 -85.4631
 -85.4623
 -85.4635
 -85.4577
 -85.4597
 -85.4546
 -85.4748
 -85.4753
 -85.4769
 -85.4774
 -85.4372
 -85.4339
 -85.4299
 -85.4341
 -85.3698
 -85.3686
 -85.3724
 -85.3716
 -85.4603
 -85.4579
 -85.4557
 -85.4598
 -85.3844
 -85.3854
 -85.3826
 -85.3817
 -85.3941
 -85.3966
 -85.3951
 -85.4607
 -85.4628
 -85.4614
 -85.4609
 -85.4535
 -85.4509
 -85.452
 -85.3875
 -85.3849
 -85.3895
 -85.391
 -85.3413
 -85.3452
 -85.3412
 -85.349
 -85.4168
 -85.4141
 -85.413
 -85.4123
 -85.4617
 -85.4638
 -85.4624
 -85.4611
 -85.3108
 -85.3105
 -85.3161
 -85.3084
 -85.3696
 -85.3686
 -85.3644
 -85.3641
 -85.375
 -85.3811
 -85.3735
 -85.3755
 -85.4202
 -85.4161
 -85.4192
 -85.4199
 -85.3197
 -85.3153
 -85.3242
 -85.3164
 -85.2927
 -85.2872
 -85.2935
 -85.2889
 -85.3773
 -85.3777
 -85.3768
 -85.3816
 -85.47
 -85.468
 -85.4678
 -85.4685
 -85.3323
 -85.3263
 -85.333
 -85.3301
 -85.2989
 -85.3046
 -85.298
 -85.304
 -85.4027
 -85.3966
 -85.4026
 -85.4022
 -85.3237
 -85.325
 -85.3215
 -85.3062
 -85.3101
 -85.3089
 -85.3962
 -85.3942
 -85.4
 -85.3953
 -85.3047
 -85.3025
 -85.2981
 -85.3044
 -85.3118
 -85.3057
 -85.3101
 -85.3107
 -85.4032
 -85.4048
 -85.4019
 -85.294
 -85.2919
 -85.4446
 -85.4448
 -85.4507
 -85.4511
 -85.4159
 -85.4218
 -85.4219
 -85.4195
 -85.2078
 -85.2221
 -85.1953
 -85.2246
 -85.0864
 -85.078
 -85.0662
 -85.0853
 -85.3197
 -85.3085
 -85.3158
 -85.316
 -85.4562
 -85.456
 -85.4576
 -85.4562
 -85.4099
 -85.407
 -85.4049
 -85.407
 -85.2907
 -85.2901
 -85.2897
 -85.2894
 -85.3275
 -85.3287
 -85.3308
 -85.3356
 -85.3302
 -85.33
 -85.3285
 -85.318
 -85.3222
 -85.3228
 -85.323
 -85.3224
 -85.3184
 -85.3245
 -85.3254
 -85.2997
 -85.2945
 -85.2992
 -85.2926
 -85.4683
 -85.4699
 -85.4689
 -85.4685
 -85.4593
 -85.4622
 -85.458
 -85.3763
 -85.3731
 -85.3766
 -85.3708
 -85.3184
 -85.3097
 -85.3193
 -85.3162
 -85.4765
 -85.4781
 -85.3054
 -85.3024
 -85.3031
 -85.3004
 -85.3857
 -85.394
 -85.3887
 -85.3916
 -85.406
 -85.4047
 -85.3035
 -85.3021
 -85.31
 -85.3036
 -85.4627
 -85.4643
 -85.4615
 -85.4662
 -85.4724
 -85.4706
 -85.4712
 -85.4749
 -85.3629
 -85.3654
 -85.3627
 -85.2263
 -85.2357
 -85.2292
 -85.3073
 -85.3155
 -85.3067
 -85.3089
 -85.4273
 -85.4238
 -85.4301
 -85.424
 -85.3338
 -85.3267
 -85.3286
 -85.3223
 -85.331
 -85.327
 -85.3333
 -85.3253
 -85.412
 -85.4108
 -85.4135
 -85.4178
 -84.8236
 -84.8241
 -84.7993
 -84.7527
 -85.4237
 -85.4249
 -85.4281
 -85.4272
 -85.4272
 -85.4267
 -85.4296
 -85.4316
 -85.2939
 -85.2941
 -85.2861
 -85.292
 -85.4535
 -85.4548
 -85.4554
 -85.4525
 -84.7252
 -84.6393
 -84.6749
 -84.6112
 -85.4641
 -85.4582
 -85.4585
 -85.4575
 -85.4406
 -85.438
 -85.3246
 -85.3283
 -85.3264
 -85.3313
 -85.2876
 -85.2818
 -85.2847
 -85.2898
 -85.4515
 -85.454
 -85.4533
 -85.4525
 -85.3418
 -85.3441
 -85.3438
 -85.3402
 -85.4692
 -85.4671
 -85.4686
 -85.3218
 -85.316
 -85.3128
 -85.2796
 -85.2862
 -85.288
 -85.4645
 -85.4656
 -85.4646
 -85.4636
 -85.3268
 -85.324
 -85.3242
 -85.3237
 -85.4529
 -85.4534
 -85.2843
 -85.2876
 -85.2825
 -85.2849
 -85.3814
 -85.3857
 -85.3862
 -85.3814
 -85.3335
 -85.3295
 -85.3521
 -85.3621
 -85.3605
 -85.3544
 -85.3237
 -85.3225
 -85.3233
 -85.3172
 -85.4714
 -85.4749
 -85.4706
 -85.4721
 -85.2977
 -85.2958
 -85.2967
 -85.4412
 -84.7531
 -84.7662
 -84.7661
 -84.7346
 -85.4505
 -85.4512
 -85.4531
 -85.4472
 -85.3332
 -85.3335
 -85.3416
 -85.3401
 -85.4215
 -85.4198
 -85.4202
 -85.4209
 -85.3228
 -85.3188
 -85.3161
 -85.322
 -85.4114
 -85.2486
 -85.2469
 -85.2466
 -85.2492
 -85.41
 -85.4103
 -85.4088
 -85.4053
 -85.4377
 -85.4396
 -85.4412
 -85.4349
 -85.438
 -85.4342
 -85.4392
 -85.4521
 -85.4551
 -85.4538
 -85.4535
 -85.2916
 -85.2942
 -85.3012
 -85.2981
 -85.4473
 -85.4473
 -85.4469
 -85.4502
 -85.2615
 -85.2597
 -85.2631
 -85.2528
 -85.4435
 -85.4456
 -85.4469
 -85.447
 -85.3738
 -85.371
 -85.3703
 -85.3685
 -85.42
 -85.4227
 -85.424
 -85.4249
 -85.3873
 -85.3851
 -85.3833
 -85.3819
 -85.4637
 -85.4592
 -85.3881
 -85.3839
 -85.384
 -85.3875
 -85.2332
 -85.2279
 -85.2422
 -85.2279
 -85.2449
 -85.2399
 -85.2587
 -85.2431
 -85.3872
 -85.3914
 -85.3917
 -85.3923
 -85.4266
 -85.4268
 -85.4255
 -85.4305
 -85.4322
 -85.4292
 -85.4309
 -85.4335
 -85.4601
 -85.4562
 -85.4575
 -85.4552
 -85.4334
 -85.4377
 -85.4354
 -85.433
 -85.2441
 -85.2487
 -85.2534
 -85.2417
 -85.299
 -85.2994
 -85.2975
 -85.3085
 -85.4772
 -85.4756
 -85.475
 -85.4751
 -85.3956
 -85.3972
 -85.3966
 -85.4028
 -85.305
 -85.3131
 -85.304
 -85.3132
 -84.8966
 -84.8851
 -84.9445
 -84.8927
 -85.4509
 -85.4527
 -85.4492
 -85.4561
 -85.3188
 -85.3183
 -85.3205
 -85.3243
 -85.3533
 -85.3588
 -85.3498
 -85.3547
 -85.2652
 -85.2613
 -85.264
 -85.2681
 -85.4089
 -85.407
 -85.4089
 -85.4094
 -85.46
 -85.4602
 -85.4592
 -85.4601
 -85.4
 -85.3947
 -85.3962
 -85.395
 -85.363
 -85.363
 -85.3691
 -85.3666
 -85.2388
 -85.2439
 -85.2484
 -85.23
 -85.4588
 -85.4153
 -85.4183
 -85.4137
 -85.4178
 -85.3511
 -85.3486
 -85.3434
 -85.3443
 -85.425
 -85.4277
 -85.427
 -85.43
 -85.3032
 -85.302
 -85.3
 -85.3093
 -85.4088
 -85.4111
 -85.4061
 -85.2208
 -85.2336
 -85.2226
 -85.2169
 -85.4417
 -85.435
 -85.4394
 -85.4372
 -85.2981
 -85.2974
 -85.3007
 -85.2984
 -85.4834
 -85.4826
 -85.4831
 -85.4846
 -85.3226
 -85.3235
 -85.3242
 -85.3235
 -85.0472
 -85.1018
 -85.1015
 -85.0875
 -85.2036
 -85.2028
 -85.2172
 -85.2096
 -85.4771
 -85.476
 -85.4749
 -85.4742
 -85.4662
 -85.4657
 -85.4676
 -85.468
 -85.3763
 -85.3808
 -85.3793
 -85.3806
 -85.3243
 -85.3236
 -85.3276
 -85.3887
 -85.3889
 -85.3823
 -85.3851
 -85.415
 -85.4129
 -85.4177
 -85.418
 -85.3858
 -85.3945
 -85.3917
 -85.3909
 -85.3803
 -85.3821
 -85.3887
 -85.3851
 -85.4742
 -85.4719
 -85.4722
 -85.4711
 -85.3077
 -85.3062
 -85.3126
 -85.3078
 -85.2002
 -85.1666
 -85.1749
 -85.4254
 -85.4222
 -85.4241
 -85.4227
 -85.4503
 -85.4535
 -85.4511
 -85.4502
 -85.3126
 -85.3096
 -85.3141
 -85.3082
 -85.3091
 -85.3114
 -85.3045
 -85.4551
 -85.4533
 -85.4563
 -85.4513
 -85.3686
 -85.368
 -85.3718
 -85.3681
 -85.3087
 -85.3016
 -85.3073
 -85.3081
 -85.3531
 -85.3501
 -85.3507
 -85.3542
 -85.4427
 -85.4421
 -85.4392
 -85.4422
 -85.305
 -85.315
 -85.2999
 -85.3132
 -85.3578
 -85.35
 -85.353
 -85.3547
 -85.3328
 -85.3371
 -85.3332
 -85.466
 -85.4654
 -85.4632
 -85.4641
 -85.368
 -85.3695
 -85.3653
 -85.3708
 -85.4773
 -85.4766
 -85.4804
 -85.3857
 -85.3877
 -85.3873
 -85.3855
 -85.233
 -85.2417
 -85.2253
 -85.2298
 -85.4008
 -85.402
 -85.405
 -85.4084
 -85.3777
 -85.3836
 -85.3759
 -85.3141
 -85.3171
 -85.3218
 -85.3157
 -85.2957
 -85.2971
 -85.2944
 -85.298
 -85.3151
 -85.3178
 -85.3218
 -85.3131
 -85.0241
 -85.0218
 -85.0641
 -85.0664
 -85.3421
 -85.3403
 -85.3376
 -85.3377
 -85.3332
 -85.3311
 -85.3392
 -85.3297
 -85.4564
 -85.4523
 -85.453
 -85.4582
 -85.2763
 -85.2864
 -85.2831
 -85.2809
 -85.4125
 -85.4104
 -85.4136
 -85.4147
 -85.468
 -85.4685
 -85.4667
 -85.4653
 -85.4691
 -85.4654
 -85.4673
 -85.4686
 -85.4385
 -85.4411
 -85.4383
 -85.4403
 -85.4708
 -85.4741
 -85.4738
 -85.4686
 -85.4586
 -85.4594
 -85.459
 -85.4776
 -85.4732
 -85.4747
 -85.4745
 -85.2682
 -85.2638
 -85.267
 -85.2615
 -85.3509
 -85.3465
 -85.3434
 -85.3471
 -85.3317
 -85.3387
 -85.3342
 -85.3396
 -85.3446
 -85.3419
 -85.3411
 -85.3398
 -85.4626
 -85.4598
 -85.4617
 -85.4626
 -85.3525
 -85.353
 -85.3484
 -85.3455
 -85.3166
 -85.3091
 -85.3097
 -85.3148
 -85.4174
 -85.4162
 -85.4207
 -85.4151
 -85.3171
 -85.3249
 -85.3172
 -85.32
 -85.4274
 -85.4245
 -85.4241
 -85.3876
 -85.3924
 -85.3922
 -85.4531
 -85.4496
 -85.4508
 -85.4513
 -85.3533
 -85.3553
 -85.3516
 -85.3516
 -85.4087
 -85.4052
 -85.4061
 -85.4093
 -85.3424
 -85.3355
 -85.3391
 -85.3435
 -85.4781
 -85.4767
 -85.469
 -85.4676
 -85.4664
 -85.4697
 -85.254
 -85.2524
 -85.2527
 -85.2489
 -85.4105
 -85.4139
 -85.4145
 -85.4171
 -85.3115
 -85.3212
 -85.3154
 -85.3087
 -84.4946
 -84.3404
 -84.4786
 -84.4347
 -85.3241
 -85.3223
 -85.3188
 -85.3217
 -85.4256
 -85.422
 -85.4251
 -85.2824
 -85.281
 -85.2891
 -85.2887
 -85.4665
 -85.4636
 -85.4674
 -85.4647
 -85.3266
 -85.3286
 -85.3266
 -85.3286
 -85.4085
 -85.4121
 -85.4099
 -85.4089
 -85.2293
 -85.2382
 -85.2236
 -85.2331
 -84.9281
 -84.9034
 -84.9485
 -84.9536
 -85.3134
 -85.3176
 -85.3129
 -85.3119
 -85.3463
 -85.3443
 -85.3482
 -85.392
 -85.3857
 -85.3932
 -85.3905
 -85.2921
 -85.2921
 -85.2831
 -85.4277
 -85.4265
 -85.4287
 -85.4312
 -85.4392
 -85.4446
 -85.4396
 -85.4442
 -85.4218
 -85.4183
 -85.4214
 -85.4217
 -85.464
 -85.4573
 -85.46
 -85.4607
 -85.4355
 -85.4322
 -85.4337
 -85.3294
 -85.333
 -85.3328
 -85.3352
 -85.4307
 -85.4275
 -85.4158
 -85.4114
 -85.4102
 -85.4142
 -85.4254
 -85.4238
 -85.4241
 -85.4266
 -85.3134
 -85.3173
 -85.3155
 -85.3085
 -85.3211
 -85.325
 -85.3205
 -85.3244
 -84.5671
 -84.6169
 -84.6247
 -84.593
 -85.3193
 -85.3229
 -85.3193
 -85.3291
 -85.3263
 -85.3254
 -85.3272
 -85.3754
 -85.3751
 -85.3725
 -85.3715
 -85.3305
 -85.337
 -85.3372
 -85.3332
 -85.2476
 -85.2543
 -85.2471
 -85.2452
 -85.4394
 -85.4352
 -85.4391
 -85.4356
 -85.3747
 -85.3781
 -85.3739
 -85.3712
 -85.4633
 -85.4636
 -85.4623
 -85.4638
 -85.3973
 -85.3931
 -85.3969
 -85.3946
 -85.4602
 -85.4615
 -85.4605
 -85.0103
 -85.0452
 -85.0256
 -85.0359
 -85.4227
 -85.4282
 -85.4235
 -85.424
 -85.3597
 -85.3551
 -85.3605
 -85.3581
 -85.3015
 -85.2968
 -85.3398
 -85.3405
 -85.3433
 -85.3419
 -85.3583
 -85.3526
 -85.3546
 -85.4547
 -85.4558
 -85.4533
 -85.4554
 -85.4561
 -85.4543
 -85.4516
 -85.4532
 -85.3062
 -85.3033
 -85.3069
 -85.3047
 -85.3703
 -85.368
 -85.3218
 -85.3281
 -85.3244
 -85.3188
 -85.4317
 -85.4295
 -85.4349
 -85.4349
 -85.2205
 -85.2131
 -85.2186
 -85.2177
 -85.313
 -85.3158
 -85.311
 -85.3107
 -85.3227
 -85.328
 -85.3305
 -85.328
 -85.3843
 -85.3831
 -85.3845
 -85.3899
 -85.429
 -85.4281
 -85.4259
 -85.4262
 -85.4353
 -85.4314
 -85.4289
 -85.4329
 -84.825
 -84.8129
 -84.8021
 -84.7788
 -85.2853
 -85.2913
 -85.2932
 -85.3924
 -85.3851
 -85.3893
 -85.398
 -85.4024
 -85.3979
 -85.4024
 -85.4608
 -85.4626
 -85.4612
 -85.4637
 -85.3679
 -85.3184
 -85.3178
 -85.3106
 -85.3134
 -85.4107
 -85.4081
 -85.4044
 -85.4066
 -85.438
 -85.4342
 -85.4351
 -85.4389
 -85.4509
 -85.4518
 -85.3077
 -85.3061
 -85.3032
 -85.3023
 -85.3775
 -85.3811
 -85.3793
 -85.3823
 -85.2931
 -85.2917
 -85.2929
 -85.2945
 -85.3993
 -85.3452
 -85.3408
 -85.3502
 -85.3526
 -85.3357
 -85.3395
 -85.3412
 -85.3384
 -85.4624
 -85.4584
 -85.4669
 -85.469
 -85.4693
 -85.4678
 -85.1215
 -85.1152
 -85.1163
 -85.127
 -85.4339
 -85.4348
 -85.4304
 -85.4366
 -85.4002
 -85.3943
 -85.3959
 -85.4004
 -84.9188
 -84.9311
 -84.9349
 -84.9066
 -85.3757
 -85.3761
 -85.3783
 -85.3733
 -85.3725
 -85.3669
 -85.3642
 -85.3655
 -85.2937
 -85.2844
 -85.2931
 -85.29
 -85.4759
 -85.4777
 -85.478
 -85.478
 -85.3663
 -85.3612
 -85.3621
 -85.3246
 -85.3313
 -85.3306
 -85.3253
 -85.4705
 -85.4745
 -85.4719
 -85.4725
 -85.3263
 -85.3228
 -85.317
 -85.3296
 -85.3584
 -85.362
 -85.4436
 -85.4444
 -85.4469
 -85.4411
 -85.392
 -85.392
 -85.3972
 -85.3962
 -85.4656
 -85.4636
 -85.4661
 -85.4652
 -85.3647
 -85.372
 -85.317
 -85.3195
 -85.3209
 -85.3202
 -85.3288
 -85.3288
 -85.332
 -85.3342
 -85.4477
 -85.4474
 -85.4435
 -85.4447
 -85.4381
 -85.4369
 -85.4391
 -85.4396
 -85.4316
 -85.4266
 -85.4314
 -85.4293
 -85.3349
 -85.3415
 -85.3386
 -85.3347
 -85.1448
 -85.1338
 -85.1448
 -85.1469
 -85.4702
 -85.4727
 -85.4702
 -85.4713
 -85.2893
 -85.2915
 -85.2925
 -85.2976
 -85.3879
 -85.3904
 -85.3928
 -85.3878
 -85.3399
 -85.3497
 -85.3432
 -85.3466
 -85.3868
 -85.3815
 -85.3855
 -85.4078
 -85.4126
 -85.4076
 -85.4126
 -85.3767
 -85.3807
 -85.3777
 -85.3747
 -85.4231
 -85.4244
 -85.4277
 -85.4221
 -85.4227
 -85.4218
 -85.4234
 -85.4173
 -84.8779
 -84.9518
 -84.8838
 -85.2265
 -85.2418
 -85.2426
 -85.2372
 -85.3858
 -85.3823
 -85.3838
 -85.3835
 -85.4452
 -85.448
 -85.446
 -85.4488
 -85.3126
 -85.3049
 -85.3122
 -85.3256
 -85.3283
 -85.3282
 -85.4027
 -85.4011
 -85.4042
 -85.4041
 -85.3852
 -85.3885
 -85.3908
 -85.3911
 -85.4854
 -85.4852
 -85.4842
 -85.4857
 -85.1973
 -85.1967
 -85.1908
 -85.1658
 -85.4294
 -85.4317
 -85.3484
 -85.3551
 -85.3549
 -85.3499
 -85.42
 -85.4222
 -85.4221
 -85.4231
 -85.3959
 -85.3973
 -85.4004
 -85.3976
 -85.3575
 -85.3567
 -85.3616
 -85.3532
 -85.416
 -85.4195
 -85.4179
 -85.419
 -85.3074
 -85.3091
 -85.3094
 -85.313
 -85.2794
 -85.276
 -85.2805
 -85.2783
 -85.44
 -85.4413
 -85.4451
 -85.4491
 -85.3848
 -85.3878
 -85.3911
 -85.0681
 -85.065
 -85.0767
 -85.4499
 -85.4524
 -85.4529
 -85.4536
 -85.4559
 -85.4549
 -85.453
 -85.4523
 -85.3769
 -85.3784
 -85.3803
 -85.3816
 -85.4612
 -85.463
 -85.4629
 -85.4626
 -85.4649
 -85.4682
 -85.4655
 -85.4689
 -85.3563
 -85.3589
 -85.3628
 -85.3579
 -85.4351
 -85.4369
 -85.4386
 -85.4382
 -85.4839
 -85.4841
 -85.4831
 -85.4849
 -85.4347
 -85.4343
 -85.4324
 -85.4371
 -85.3892
 -85.3839
 -85.386
 -85.3813
 -85.4469
 -85.4475
 -85.4452
 -85.4443
 -85.4228
 -85.4216
 -85.4248
 -85.4033
 -85.407
 -85.1168
 -85.1312
 -85.1111
 -85.1077
 -85.4007
 -85.4053
 -85.4036
 -85.4036
 -85.1846
 -85.1903
 -85.1927
 -85.1954
 -85.1663
 -85.1579
 -85.1852
 -85.1792
 -85.3925
 -85.3952
 -85.3952
 -85.3914
 -85.3487
 -85.349
 -85.3444
 -85.3501
 -85.4085
 -85.4131
 -85.4118
 -85.4114
 -85.3823
 -85.3788
 -85.2687
 -85.2654
 -85.2671
 -85.2724
 -85.4701
 -85.4714
 -85.4725
 -85.4713
 -85.3502
 -85.3473
 -85.3558
 -85.3517
 -85.4464
 -85.4449
 -85.4424
 -85.445
 -85.2656
 -85.2575
 -85.2644
 -85.2594
 -85.4567
 -85.4605
 -85.4597
 -85.46
 -85.4011
 -85.3961
 -85.4005
 -85.4005
 -85.3133
 -85.3045
 -85.2975
 -85.3036
 -85.4836
 -85.483
 -85.483
 -85.482
 -85.3371
 -85.3422
 -85.3378
 -85.3375
 -85.3543
 -85.3475
 -85.353
 -85.3475
 -85.4728
 -85.4733
 -85.4711
 -85.4741
 -85.3765
 -85.3695
 -85.3723
 -85.3724
 -85.4493
 -85.4515
 -85.4497
 -85.449
 -85.4451
 -85.4425
 -85.4434
 -85.3604
 -85.3527
 -85.3548
 -85.3559
 -85.4458
 -85.4484
 -85.4464
 -85.4476
 -85.3038
 -85.3091
 -85.3081
 -85.3039
 -85.4551
 -85.457
 -85.4569
 -85.4558
 -85.4535
 -85.4523
 -85.4538
 -85.4528
 -85.3085
 -85.3065
 -85.316
 -85.311
 -85.317
 -85.316
 -85.3208
 -85.3136
 -84.1597
 -84.1817
 -84.1199
 -84.1464
 -85.4313
 -85.4271
 -85.4275
 -85.1616
 -85.1809
 -85.1892
 -85.1713
 -85.4676
 -85.4649
 -85.4656
 -85.4657
 -85.3009
 -85.4481
 -85.4443
 -85.4446
 -85.4472
 -85.4486
 -85.4447
 -85.4457
 -84.762
 -84.7246
 -84.7514
 -84.7661
 -84.607
 -84.6533
 -84.6184
 -84.5987
 -85.464
 -85.461
 -85.4632
 -85.4654
 -85.3161
 -85.314
 -85.3183
 -85.3127
 -85.4211
 -85.4199
 -85.4235
 -85.3409
 -85.3363
 -85.3406
 -85.3343
 -85.3612
 -85.3614
 -85.3609
 -85.4467
 -85.4457
 -85.4502
 -85.401
 -85.4049
 -85.4047
 -85.4013
 -85.3432
 -85.3369
 -85.3376
 -85.3421
 -85.3136
 -85.3161
 -85.313
 -85.3154
 -85.422
 -85.4246
 -85.425
 -85.2473
 -85.2557
 -85.2369
 -85.2347
 -85.3084
 -85.3183
 -85.3088
 -85.3546
 -85.3637
 -85.3607
 -85.3589
 -85.2805
 -85.2881
 -85.2903
 -85.2872
 -85.3139
 -85.3198
 -85.3212
 -85.3192
 -85.4492
 -85.4464
 -85.4472
 -85.4467
 -85.3679
 -85.3636
 -85.3656
 -85.3693
 -85.3227
 -85.325
 -85.3879
 -85.3852
 -85.3867
 -85.3821
 -85.4588
 -85.4687
 -85.4695
 -85.4691
 -85.4687
 -84.0198
 -84.0056
 -84.004
 -84.024
 -85.4404
 -85.4442
 -85.4413
 -85.4779
 -85.4776
 -85.4762
 -85.4776
 -85.4328
 -85.428
 -85.4299
 -85.4284
 -85.3101
 -85.3118
 -85.3149
 -85.3105
 -85.3636
 -85.3595
 -85.3592
 -85.3562
 -85.4798
 -85.4798
 -85.4794
 -85.4788
 -85.4312
 -85.4281
 -85.426
 -85.4289
 -85.2366
 -85.2229
 -85.2207
 -85.2413
 -85.3562
 -85.3557
 -85.3571
 -85.3483
 -85.3516
 -85.3542
 -85.3563
 -85.3516
 -84.0303
 -84.0219
 -84.018
 -84.0372
 -85.3033
 -85.3023
 -85.3012
 -85.3051
 -85.4322
 -85.4371
 -85.4329
 -85.4347
 -85.4034
 -85.403
 -85.4074
 -85.4019
 -85.3687
 -85.3711
 -85.376
 -85.372
 -85.4258
 -85.43
 -85.4282
 -85.4286
 -85.4033
 -85.4043
 -85.4078
 -85.4034
 -85.4267
 -85.426
 -85.4239
 -85.4303
 -85.4837
 -85.4806
 -85.4813
 -85.4841
 -85.4387
 -85.4362
 -85.4356
 -85.4304
 -85.4223
 -85.4191
 -85.4175
 -85.422
 -85.4186
 -85.3881
 -85.3876
 -85.3846
 -85.3925
 -85.4692
 -85.4684
 -85.4677
 -85.4676
 -85.3685
 -85.3647
 -85.3692
 -85.3675
 -85.4012
 -85.4031
 -85.4052
 -85.3984
 -85.3804
 -85.3749
 -85.379
 -85.3833
 -85.3394
 -85.3302
 -85.3379
 -85.3321
 -84.992
 -85.0062
 -85.056
 -85.0059
 -85.4855
 -85.4828
 -85.4159
 -85.4133
 -85.4132
 -84.3114
 -84.322
 -84.3356
 -85.3202
 -85.3152
 -85.3182
 -85.3127
 -85.1379
 -85.1529
 -85.1169
 -85.1078
 -85.2762
 -85.2714
 -85.2787
 -85.2633
 -85.468
 -85.4635
 -85.466
 -85.4657
 -85.3911
 -85.3863
 -85.3875
 -85.3856
 -85.4192
 -85.4241
 -85.4233
 -85.427
 -85.4028
 -85.4034
 -85.3989
 -85.3974
 -85.4289
 -85.4299
 -85.4272
 -85.4277
 -85.3738
 -85.3731
 -85.4472
 -85.4393
 -85.4474
 -85.4408
 -85.4286
 -85.426
 -85.424
 -85.4305
 -85.3195
 -85.3133
 -85.3205
 -85.3147
 -85.3252
 -85.3272
 -85.327
 -85.3275
 -85.3995
 -85.3996
 -85.3982
 -85.4015
 -85.3906
 -85.3924
 -85.3955
 -85.3984
 -85.2852
 -85.2753
 -85.2742
 -85.285
 -85.4241
 -85.4218
 -85.4206
 -85.4197
 -85.4806
 -85.4793
 -85.4801
 -85.4798
 -85.4519
 -85.4501
 -85.4507
 -85.4494
 -85.4838
 -85.4848
 -85.4833
 -85.485
 -85.4571
 -85.4598
 -85.4589
 -85.4593
 -85.3863
 -85.392
 -85.3864
 -85.3876
 -85.4231
 -85.4197
 -85.3766
 -85.3823
 -85.3753
 -85.3792
 -85.3225
 -85.3265
 -85.327
 -85.3286
 -85.438
 -85.4415
 -85.4418
 -85.4383
 -85.3745
 -85.3724
 -85.3748
 -85.3694
 -85.3568
 -85.3528
 -85.3514
 -85.3538
 -85.3095
 -85.3105
 -85.3137
 -85.3164
 -85.3285
 -85.3257
 -85.3242
 -85.3332
 -85.3045
 -85.3077
 -85.3113
 -85.3068
 -85.0772
 -85.0873
 -85.072
 -85.0705
 -85.434
 -85.4353
 -85.4311
 -85.4343
 -85.4173
 -85.4186
 -85.0801
 -85.114
 -85.1096
 -85.0735
 -85.3393
 -85.3403
 -85.4128
 -85.4101
 -85.4132
 -85.4521
 -85.4521
 -85.302
 -85.3017
 -85.2994
 -85.3046
 -85.0962
 -85.1176
 -85.1153
 -85.1174
 -85.2797
 -85.2823
 -85.2871
 -85.2895
 -85.3368
 -85.3392
 -85.3412
 -85.3429
 -85.4052
 -85.4001
 -85.3999
 -85.4007
 -85.4174
 -85.4156
 -85.4152
 -85.4143
 -85.3343
 -85.3409
 -85.3407
 -85.3392
 -85.4021
 -85.4015
 -85.4032
 -85.3971
 -85.3826
 -85.3791
 -85.3783
 -85.3807
 -85.3914
 -85.3949
 -85.3973
 -85.3949
 -85.3939
 -85.3886
 -85.3949
 -85.3756
 -85.3725
 -85.3798
 -85.3768
 -85.3446
 -85.347
 -85.3419
 -85.342
 -85.3162
 -85.3208
 -85.3137
 -85.3199
 -85.4674
 -85.4667
 -85.4684
 -85.4699
 -85.3669
 -85.3666
 -85.3713
 -85.3717
 -85.2751
 -85.2734
 -85.2675
 -85.2732
 -85.2492
 -85.245
 -85.2459
 -85.2406
 -85.2949
 -85.2921
 -85.2923
 -85.2937
 -85.3043
 -85.3044
 -85.3116
 -85.3123
 -85.3168
 -85.3134
 -85.3117
 -85.3142
 -85.4645
 -85.4662
 -85.4658
 -85.4662
 -85.3585
 -85.3584
 -85.3572
 -85.3623
 -85.4311
 -85.4323
 -85.43
 -85.4289
 -85.3134
 -85.3203
 -85.3105
 -85.3177
 -85.47
 -85.4714
 -85.471
 -85.4738
 -85.4742
 -85.4741
 -85.4759
 -85.4257
 -85.4176
 -85.4203
 -85.4208
 -85.3288
 -85.3307
 -85.325
 -85.3288
 -85.4801
 -85.4774
 -85.478
 -85.3531
 -85.3482
 -85.3509
 -85.3434
 -85.4566
 -85.4571
 -85.4514
 -85.4525
 -85.4556
 -85.4517
 -85.3438
 -85.3396
 -85.3417
 -85.2296
 -85.2331
 -85.219
 -85.2257
 -85.3072
 -85.3002
 -85.3073
 -85.3091
 -85.383
 -85.3882
 -85.3823
 -85.4706
 -85.4659
 -85.4665
 -85.4274
 -85.4239
 -85.422
 -85.4243
 -85.4716
 -85.472
 -85.4679
 -85.4746
 -85.3616
 -85.3668
 -85.3693
 -85.365
 -85.4554
 -85.4564
 -85.4581
 -85.453
 -85.3849
 -85.3859
 -85.3823
 -85.3809
 -85.3319
 -85.3272
 -85.3301
 -85.4782
 -85.476
 -85.4771
 -85.4803
 -85.4185
 -85.4031
 -85.4079
 -85.4071
 -85.4044
 -85.407
 -85.4071
 -85.4039
 -85.3264
 -85.3239
 -85.3235
 -85.3232
 -85.3229
 -85.3294
 -85.3662
 -85.3606
 -85.3596
 -85.3578
 -85.3561
 -85.3624
 -85.3572
 -85.3606
 -85.4248
 -85.4807
 -85.4775
 -85.4766
 -85.479
 -84.8393
 -84.7845
 -84.8471
 -84.8493
 -85.3432
 -85.3385
 -85.3297
 -85.3277
 -85.3298
 -85.3311
 -85.3233
 -85.3239
 -85.3171
 -85.3198
 -85.4305
 -85.4263
 -85.4273
 -85.4294
 -85.4347
 -85.437
 -85.4323
 -85.435
 -85.3267
 -85.3215
 -85.4207
 -85.4202
 -85.4255
 -85.4222
 -85.4248
 -85.4285
 -85.4248
 -85.3962
 -85.3935
 -85.3911
 -85.3893
 -85.3672
 -85.3623
 -85.366
 -85.3626
 -85.432
 -85.4365
 -85.4359
 -85.433
 -85.444
 -85.4456
 -85.4476
 -85.4448
 -85.4367
 -85.4407
 -85.4375
 -85.4347
 -85.4361
 -85.4352
 -85.4318
 -85.3652
 -85.3669
 -85.3667
 -85.3632
 -85.2047
 -85.2078
 -85.2155
 -85.2152
 -85.3502
 -85.3488
 -85.3464
 -85.3478
 -85.4431
 -85.4399
 -85.4378
 -85.4412
 -85.419
 -85.4183
 -85.4174
 -85.4219
 -85.3484
 -85.3519
 -85.3531
 -85.3544
 -85.42
 -85.4157
 -85.4182
 -85.4196
 -85.3942
 -85.396
 -85.3882
 -85.3951
 -85.397
 -85.4014
 -85.3999
 -85.4005
 -85.4188
 -85.4205
 -85.421
 -85.4683
 -85.4687
 -85.4675
 -85.468
 -85.3479
 -85.3529
 -85.3502
 -85.3519
 -85.3798
 -85.3849
 -85.3838
 -85.3822
 -85.1901
 -85.1754
 -85.1735
 -85.191
 -85.3064
 -85.3114
 -85.3107
 -85.307
 -85.3179
 -85.3063
 -85.3109
 -85.3053
 -85.3086
 -85.3112
 -85.3105
 -85.3126
 -85.3921
 -85.389
 -85.3905
 -85.2885
 -85.2876
 -85.2902
 -85.2907
 -85.2894
 -85.293
 -85.2995
 -85.2904
 -85.4775
 -85.4755
 -85.4751
 -85.4764
 -85.3958
 -85.3928
 -85.3922
 -85.3903
 -85.4467
 -85.4471
 -85.4457
 -85.4433
 -85.404
 -85.4059
 -85.4028
 -85.4001
 -85.4176
 -85.4209
 -85.4182
 -85.4192
 -85.3215
 -85.316
 -85.3195
 -85.3114
 -85.378
 -85.387
 -85.3806
 -85.3809
 -85.4453
 -85.4472
 -85.4441
 -85.4451
 -85.4082
 -85.4068
 -85.4117
 -85.4101
 -85.2919
 -85.2902
 -85.3007
 -85.3013
 -85.4674
 -85.4685
 -85.4678
 -85.4686
 -85.3493
 -85.3443
 -85.2933
 -85.3801
 -85.3824
 -85.3848
 -85.3786
 -85.3667
 -85.3703
 -85.3647
 -85.3646
 -85.1514
 -85.1473
 -85.1722
 -85.3415
 -85.337
 -85.3354
 -85.3326
 -85.4044
 -85.4116
 -85.4089
 -85.4122
 -85.3831
 -85.3874
 -85.3847
 -85.3834
 -85.4607
 -85.4619
 -85.4621
 -85.4614
 -85.3137
 -85.3216
 -85.316
 -85.3178
 -85.3174
 -85.316
 -85.3241
 -85.1502
 -85.1243
 -85.134
 -85.155
 -85.3101
 -85.3167
 -85.3128
 -85.4006
 -85.4096
 -85.4019
 -85.3097
 -85.3094
 -85.3049
 -85.3071
 -85.3661
 -85.3712
 -85.3726
 -85.3714
 -84.0422
 -84.0447
 -84.0365
 -84.0717
 -85.3626
 -85.3603
 -85.3616
 -85.2763
 -85.2759
 -85.2767
 -85.2775
 -85.3615
 -85.3589
 -85.3536
 -85.3586
 -85.3067
 -85.3118
 -85.3116
 -85.3135
 -85.4212
 -85.4228
 -85.4202
 -85.4239
 -85.4322
 -85.4294
 -85.4323
 -85.4336
 -85.4742
 -85.4742
 -85.4752
 -85.473
 -85.3978
 -85.3923
 -85.3974
 -85.3988
 -85.3024
 -85.2979
 -85.3017
 -85.2991
 -85.3217
 -85.3188
 -85.2475
 -85.2463
 -85.2518
 -85.2505
 -85.373
 -85.375
 -85.3409
 -85.349
 -85.3474
 -85.3214
 -85.3243
 -85.3271
 -85.3232
 -85.4661
 -85.4667
 -85.4627
 -85.4634
 -85.4637
 -85.4627
 -85.4613
 -85.4629
 -85.3223
 -85.3255
 -85.3222
 -85.3157
 -85.2899
 -85.2911
 -85.4054
 -85.406
 -85.4049
 -85.4091
 -85.3184
 -85.3147
 -85.3212
 -85.3198
 -85.3477
 -85.3404
 -85.3532
 -85.4841
 -85.4848
 -85.4832
 -85.3839
 -85.3895
 -85.3866
 -85.3874
 -85.4535
 -85.4571
 -85.4527
 -85.4514
 -85.3903
 -85.3947
 -85.3954
 -85.3903
 -85.4309
 -85.4342
 -85.4347
 -85.4291
 -85.3015
 -85.3058
 -85.3024
 -85.3004
 -85.3085
 -85.3167
 -85.3059
 -85.3144
 -85.3931
 -85.3885
 -85.3962
 -85.3908
 -85.3426
 -85.3493
 -85.3512
 -85.3419
 -85.2916
 -85.2938
 -85.2969
 -85.3032
 -85.3664
 -85.3693
 -85.3724
 -85.3748
 -85.414
 -85.415
 -85.4122
 -85.3904
 -85.3944
 -85.3918
 -85.3945
 -84.4457
 -84.5412
 -84.548
 -84.4991
 -85.2916
 -85.2913
 -85.2922
 -85.2918
 -85.3409
 -85.3391
 -85.3407
 -85.346
 -85.0836
 -85.0984
 -85.0608
 -85.0907
 -85.4529
 -85.4523
 -85.4498
 -85.4764
 -85.4749
 -85.4732
 -85.4747
 -85.4365
 -85.4427
 -85.4399
 -85.44
 -85.3889
 -85.4134
 -85.4179
 -85.4199
 -85.4166
 -85.3789
 -85.3823
 -85.3763
 -85.3769
 -85.2616
 -85.2479
 -85.2568
 -85.3148
 -85.3175
 -85.319
 -85.3094
 -84.5316
 -84.4452
 -84.5201
 -84.3982
 -85.1416
 -85.1397
 -85.1537
 -85.1292
 -85.3351
 -85.3351
 -85.3388
 -85.3426
 -85.4793
 -85.4762
 -85.4771
 -85.4766
 -84.6994
 -84.6691
 -84.7442
 -84.6983
 -85.4265
 -85.4293
 -85.4238
 -85.4271
 -85.3913
 -85.3918
 -85.3961
 -85.3921
 -85.3222
 -85.311
 -85.3101
 -85.3708
 -85.3652
 -85.3635
 -85.3634
 -85.4769
 -85.4773
 -85.478
 -85.2677
 -85.2827
 -85.2854
 -85.3663
 -85.3698
 -85.3748
 -85.3739
 -85.339
 -85.3377
 -85.3367
 -85.3346
 -85.3452
 -85.3441
 -85.3501
 -85.3517
 -85.2645
 -85.2595
 -85.2582
 -85.2692
 -85.3715
 -85.375
 -85.3696
 -85.3761
 -85.4668
 -85.4619
 -85.4621
 -85.4598
 -85.4606
 -85.4595
 -85.4584
 -85.4619
 -85.2571
 -85.2557
 -85.2607
 -85.2538
 -85.4499
 -85.4507
 -85.4503
 -85.4469
 -85.4637
 -85.4672
 -85.466
 -85.4625
 -85.4484
 -85.4485
 -85.4443
 -85.445
 -85.4152
 -85.4137
 -85.417
 -85.4152
 -85.3822
 -85.3787
 -85.3844
 -85.3355
 -85.3266
 -85.3303
 -85.3308
 -85.4333
 -85.4307
 -85.4275
 -85.4319
 -85.439
 -85.4397
 -85.4419
 -85.4408
 -85.4859
 -85.4857
 -85.4837
 -85.4847
 -85.163
 -85.1748
 -85.1702
 -85.1727
 -85.2508
 -85.2478
 -85.2486
 -85.2523
 -85.2683
 -85.2681
 -85.2805
 -85.2679
 -85.3388
 -85.3313
 -85.3367
 -85.3367
 -85.3518
 -85.3525
 -85.3521
 -85.4657
 -85.4679
 -85.4708
 -85.4691
 -85.4431
 -85.4421
 -85.4401
 -85.4394
 -85.3773
 -85.3738
 -85.3726
 -85.3757
 -85.462
 -85.4643
 -85.4046
 -85.4052
 -85.4051
 -85.4009
 -85.4603
 -85.4617
 -85.4645
 -85.4617
 -85.3963
 -85.4016
 -85.395
 -85.4026
 -85.3327
 -85.3385
 -85.3287
 -85.3342
 -85.2225
 -85.2085
 -85.2204
 -85.2301
 -84.4419
 -84.5043
 -84.3892
 -84.4818
 -85.4552
 -85.4532
 -85.453
 -85.4557
 -85.4608
 -85.461
 -85.4615
 -85.4634
 -85.3605
 -85.3533
 -85.3586
 -85.3555
 -85.3887
 -85.3864
 -85.3857
 -85.3893
 -85.3137
 -85.3085
 -85.3174
 -85.4065
 -85.4035
 -85.404
 -85.4013
 -85.3171
 -85.3158
 -85.319
 -85.3202
 -85.381
 -85.3759
 -85.3725
 -85.3753
 -85.4177
 -85.4154
 -85.417
 -85.4179
 -85.3917
 -85.3901
 -85.3886
 -85.45
 -85.4463
 -85.4479
 -85.4477
 -85.4102
 -85.4156
 -85.0174
 -85.0456
 -84.9944
 -85.0188
 -85.4347
 -85.4327
 -85.4344
 -85.3214
 -85.3229
 -85.3241
 -85.3201
 -85.4112
 -85.4114
 -85.4096
 -85.3782
 -85.3733
 -85.3793
 -85.3753
 -85.4075
 -85.4019
 -85.4095
 -85.4057
 -85.4103
 -85.4153
 -84.8471
 -84.848
 -84.8199
 -84.8338
 -84.4755
 -84.4177
 -84.3517
 -84.4334
 -85.3837
 -85.3779
 -85.38
 -85.3774
 -85.4067
 -85.4039
 -85.4064
 -85.4029
 -84.8427
 -84.8453
 -84.8363
 -84.8788
 -85.3221
 -85.3157
 -85.2555
 -85.2594
 -85.2597
 -85.2657
 -85.412
 -85.4111
 -85.4165
 -85.4136
 -85.4036
 -85.4041
 -85.408
 -85.4016
 -85.4079
 -85.4035
 -85.4028
 -85.4031
 -85.3407
 -85.3421
 -85.3454
 -85.3406
 -85.2946
 -85.288
 -85.2828
 -85.295
 -85.1393
 -85.1615
 -85.1563
 -85.1339
 -85.3052
 -85.3057
 -85.3058
 -85.3149
 -85.4338
 -85.4314
 -85.4353
 -85.4337
 -85.3838
 -85.3725
 -85.3785
 -85.1305
 -85.1415
 -85.1598
 -85.4209
 -85.4267
 -85.4238
 -85.4239
 -85.4239
 -85.4178
 -85.4206
 -85.4226
 -85.3607
 -85.3573
 -85.3551
 -85.3702
 -85.3722
 -85.3767
 -85.3719
 -85.3041
 -85.301
 -85.3002
 -85.3004
 -85.4484
 -85.4472
 -85.4499
 -85.4489
 -85.2962
 -85.2952
 -85.2954
 -85.297
 -85.2787
 -85.2751
 -85.279
 -85.4745
 -85.4783
 -85.4796
 -85.4771
 -85.4461
 -85.4486
 -85.3313
 -85.328
 -85.3338
 -85.3332
 -85.3804
 -85.3858
 -85.3811
 -85.37
 -85.3682
 -85.3689
 -85.3636
 -85.2857
 -85.2939
 -85.2891
 -85.4456
 -85.4479
 -85.4433
 -85.4443
 -85.2841
 -85.2958
 -85.2873
 -85.2845
 -85.4276
 -85.4244
 -85.422
 -85.4231
 -85.2977
 -85.2998
 -85.2986
 -85.2912
 -85.2959
 -85.2939
 -85.3255
 -85.3217
 -85.3236
 -85.3252
 -85.1584
 -85.1458
 -85.1256
 -85.1494
 -85.4356
 -85.4391
 -85.3471
 -85.3502
 -85.3514
 -85.3508
 -85.4747
 -85.4737
 -85.4742
 -85.4756
 -85.337
 -85.3318
 -85.3382
 -85.3439
 -85.4414
 -85.445
 -85.4459
 -85.4455
 -85.4611
 -85.4646
 -85.4594
 -85.4633
 -85.4268
 -85.4224
 -85.468
 -85.4703
 -85.4695
 -85.4685
 -85.2899
 -85.2907
 -85.2856
 -85.2951
 -85.4687
 -85.4692
 -85.4694
 -85.4685
 -85.4776
 -85.4805
 -85.4794
 -85.4777
 -85.4004
 -85.4005
 -85.4049
 -85.4035
 -85.3698
 -85.3671
 -85.3732
 -85.3761
 -85.4566
 -85.4526
 -85.4554
 -85.4567
 -85.0592
 -85.0841
 -85.0542
 -85.0596
 -85.4546
 -85.4588
 -85.344
 -85.3484
 -85.3488
 -85.3546
 -85.455
 -85.4531
 -85.4503
 -85.4506
 -85.3053
 -85.3106
 -85.3097
 -85.309
 -85.3498
 -85.3405
 -85.344
 -85.3487
 -85.2966
 -85.2951
 -85.3057
 -85.3027
 -85.2998
 -85.3028
 -85.2984
 -85.2891
 -85.2934
 -85.2914
 -85.2937
 -85.4047
 -85.4012
 -85.3999
 -85.4517
 -85.4518
 -85.4545
 -85.4547
 -85.3942
 -85.3916
 -85.3893
 -85.3044
 -85.3007
 -85.3038
 -85.3797
 -85.3862
 -85.3804
 -85.3849
 -85.4112
 -85.4107
 -85.4109
 -85.4159
 -85.3643
 -85.3697
 -85.3705
 -85.3687
 -85.363
 -85.3611
 -85.3589
 -85.3505
 -85.3469
 -85.3454
 -85.3513
 -85.3555
 -85.3583
 -85.3492
 -85.4527
 -85.4517
 -85.453
 -85.4497
 -85.4204
 -85.4176
 -85.4203
 -85.4219
 -85.3732
 -85.3734
 -85.3707
 -85.3785
 -85.268
 -85.2597
 -85.2699
 -85.3961
 -85.3932
 -85.3954
 -85.3968
 -85.3246
 -85.3162
 -85.3213
 -85.3164
 -84.9285
 -84.9565
 -84.931
 -84.9178
 -85.355
 -85.352
 -85.3543
 -85.3539
 -85.4569
 -85.4558
 -85.4592
 -85.4581
 -85.3486
 -85.354
 -85.3506
 -85.3474
 -85.2961
 -85.2962
 -85.2974
 -85.2993
 -85.2976
 -85.2936
 -85.2946
 -85.3674
 -85.3685
 -85.366
 -85.4141
 -85.347
 -85.337
 -85.3434
 -85.3429
 -85.4621
 -85.4615
 -85.4633
 -85.4572
 -85.4579
 -85.4592
 -85.3445
 -85.3498
 -85.3459
 -85.3491
 -85.4767
 -85.4781
 -85.4789
 -85.4789
 -85.3081
 -85.4033
 -85.3986
 -85.4015
 -85.4005
 -85.3025
 -85.3048
 -85.3041
 -85.3053
 -85.4601
 -85.4625
 -85.4584
 -85.4605
 -85.4167
 -85.4226
 -85.4206
 -85.4177
 -85.4385
 -85.441
 -85.4361
 -85.4372
 -85.2893
 -85.2915
 -85.2928
 -85.2896
 -85.3337
 -85.3383
 -85.3332
 -85.3344
 -85.3964
 -85.3933
 -85.3965
 -85.3917
 -85.3337
 -85.3265
 -85.3358
 -85.3291
 -85.4135
 -85.4155
 -85.4195
 -85.4185
 -85.3094
 -85.3077
 -85.3136
 -85.3128
 -85.327
 -85.328
 -85.3337
 -85.3318
 -85.4025
 -85.4031
 -85.4031
 -85.4073
 -85.4605
 -85.4639
 -85.4619
 -85.4642
 -85.2456
 -85.2553
 -85.2574
 -85.2609
 -85.1471
 -85.1161
 -85.1481
 -85.1417
 -85.4636
 -85.4667
 -85.4651
 -85.4651
 -85.195
 -85.1793
 -85.1643
 -85.1497
 -85.1383
 -85.1581
 -85.3821
 -85.3834
 -85.3794
 -85.3777
 -85.3315
 -85.3349
 -85.3347
 -85.3299
 -85.4854
 -85.4855
 -85.4857
 -85.4846
 -85.46
 -85.4596
 -85.4631
 -85.415
 -85.4146
 -85.4184
 -85.4136
 -85.3027
 -85.3039
 -85.2988
 -85.3057
 -85.3276
 -85.3265
 -85.3251
 -85.324
 -85.3279
 -85.3306
 -85.4167
 -85.4237
 -85.4214
 -85.4183
 -85.4087
 -85.4082
 -85.4044
 -85.4095
 -85.4215
 -85.4208
 -85.4171
 -85.4212
 -85.4759
 -85.4761
 -85.472
 -85.4774
 -85.4298
 -85.4295
 -85.4258
 -85.3535
 -85.3888
 -85.387
 -85.3882
 -85.3848
 -85.3922
 -85.3864
 -85.3883
 -85.3913
 -85.4487
 -85.4477
 -85.4473
 -85.4453
 -85.4309
 -85.4283
 -85.4289
 -85.432
 -85.4073
 -85.4037
 -85.403
 -85.3398
 -85.333
 -85.3396
 -85.3314
 -85.3877
 -85.3948
 -85.391
 -85.391
 -85.3525
 -85.3564
 -85.3499
 -84.6452
 -84.6329
 -84.589
 -84.6596
 -85.4504
 -85.456
 -85.4534
 -85.4494
 -85.4443
 -85.4504
 -85.4472
 -84.7766
 -85.3945
 -85.395
 -85.3939
 -85.399
 -85.4064
 -85.4069
 -85.2416
 -85.2414
 -85.2396
 -85.2446
 -85.2668
 -85.2695
 -85.2812
 -85.2667
 -85.3123
 -85.3161
 -85.3115
 -85.3202
 -85.3146
 -85.3178
 -85.3192
 -85.3136
 -85.3131
 -85.317
 -85.3504
 -85.3444
 -85.3423
 -85.3438
 -85.3575
 -85.3634
 -85.4858
 -85.4855
 -85.2902
 -85.3014
 -85.2885
 -85.2959
 -85.3699
 -85.3682
 -85.3725
 -85.366
 -85.2332
 -85.2407
 -85.2219
 -85.2226
 -85.4541
 -85.456
 -85.4515
 -85.4534
 -85.4428
 -85.4397
 -85.4425
 -85.4395
 -85.4139
 -85.4173
 -85.4178
 -85.4153
 -85.397
 -85.3983
 -85.4043
 -85.4023
 -85.3829
 -85.3811
 -85.2915
 -85.427
 -85.4307
 -85.4305
 -85.4309
 -85.4725
 -85.4715
 -85.4753
 -85.471
 -85.4462
 -85.4504
 -85.4453
 -85.4472
 -84.0452
 -84.0365
 -84.0521
 -84.0748
 -85.4736
 -85.4743
 -85.4734
 -85.4736
 -85.3189
 -85.3185
 -85.3132
 -85.3211
 -85.3428
 -85.3363
 -85.3388
 -85.3339
 -85.4234
 -85.4238
 -85.4261
 -85.4268
 -85.4253
 -85.4238
 -85.4221
 -85.4232
 -85.3018
 -85.3089
 -85.3048
 -85.3076
 -85.4717
 -85.4725
 -85.4713
 -85.4718
 -85.4558
 -85.4573
 -85.4566
 -85.4584
 -85.4268
 -85.4273
 -85.4301
 -85.4304
 -85.457
 -85.4543
 -85.456
 -85.4566
 -85.3257
 -85.3326
 -85.3329
 -85.3342
 -85.3029
 -85.3038
 -85.306
 -85.3066
 -85.4512
 -85.4493
 -85.4478
 -85.4486
 -85.3651
 -85.3628
 -85.3622
 -85.3573
 -85.3699
 -85.3675
 -85.3663
 -85.3694
 -84.5587
 -84.6258
 -84.6113
 -84.6325
 -85.4714
 -85.4719
 -85.4597
 -85.4599
 -85.4578
 -85.4617
 -85.2595
 -85.2537
 -85.2509
 -85.2604
 -85.3344
 -85.3261
 -85.3254
 -85.3233
 -85.4566
 -85.4545
 -85.4587
 -85.4587
 -85.3606
 -85.3621
 -85.3595
 -85.3652
 -85.3471
 -85.3489
 -85.3427
 -85.3432
 -85.4749
 -85.4756
 -85.4743
 -85.4742
 -85.3937
 -85.3921
 -85.3935
 -85.3954
 -85.3824
 -85.3838
 -85.3829
 -85.3794
 -85.4401
 -85.4411
 -85.4423
 -85.4395
 -85.4165
 -85.4148
 -85.4136
 -85.411
 -85.3603
 -85.3602
 -85.3541
 -85.3353
 -85.3403
 -85.3372
 -85.3463
 -85.1898
 -85.1729
 -85.181
 -85.2009
 -85.3421
 -85.3454
 -85.3464
 -85.3474
 -85.3892
 -85.3866
 -85.3883
 -85.3854
 -85.4731
 -85.4741
 -85.4739
 -85.4705
 -85.3464
 -85.3552
 -85.3507
 -85.3492
 -85.2519
 -85.2505
 -85.2409
 -85.2329
 -85.4233
 -85.4275
 -85.4255
 -85.4228
 -85.4078
 -85.4066
 -85.4044
 -85.3881
 -85.3935
 -85.3954
 -85.3966
 -85.1471
 -85.1378
 -85.1414
 -85.1577
 -85.3961
 -85.3925
 -85.3934
 -85.3914
 -85.4703
 -85.4702
 -85.4705
 -85.4706
 -85.3914
 -85.3905
 -85.3927
 -85.3932
 -85.284
 -85.2801
 -85.2834
 -85.2846
 -85.3109
 -85.3152
 -85.3109
 -85.3058
 -85.4861
 -85.4854
 -85.4861
 -85.4859
 -85.3244
 -85.3263
 -85.3251
 -85.3148
 -85.4069
 -85.4012
 -85.4024
 -85.4047
 -85.4854
 -85.4859
 -85.4848
 -85.4843
 -85.4617
 -85.4657
 -85.4632
 -85.4249
 -85.4243
 -85.4292
 -85.4305
 -85.4522
 -85.4531
 -85.4568
 -85.4511
 -84.9824
 -85.01
 -85.0256
 -85.0185
 -85.2986
 -85.307
 -85.2922
 -85.4676
 -85.4705
 -85.4699
 -85.4705
 -85.4049
 -85.4031
 -85.4074
 -85.4015
 -85.4373
 -85.4359
 -85.4407
 -85.4335
 -85.2579
 -85.2559
 -85.2478
 -85.2466
 -85.359
 -85.3659
 -85.3587
 -85.3631
 -85.4142
 -85.4074
 -85.41
 -85.2553
 -85.257
 -85.2598
 -85.2598
 -85.3076
 -85.2876
 -85.2911
 -85.289
 -85.3505
 -85.4686
 -85.4704
 -85.4689
 -85.4709
 -85.0094
 -85.0013
 -84.9719
 -84.9816
 -85.4381
 -85.4443
 -85.4416
 -85.4449
 -85.4095
 -85.4067
 -85.4071
 -85.4027
 -84.7399
 -85.4465
 -85.4441
 -85.4483
 -85.4673
 -85.4707
 -85.4685
 -85.4687
 -85.3738
 -85.373
 -85.3811
 -85.3758
 -85.4204
 -85.4204
 -85.4231
 -85.4184
 -85.3179
 -85.3127
 -85.3831
 -85.3809
 -85.3801
 -85.3849
 -85.3167
 -85.3123
 -85.3084
 -85.313
 -85.3358
 -85.3338
 -85.3418
 -85.3425
 -85.4271
 -85.4242
 -85.427
 -85.4277
 -85.0768
 -85.0708
 -85.0649
 -85.0965
 -85.3044
 -85.3018
 -85.304
 -85.3006
 -85.1413
 -85.1497
 -85.2826
 -85.2837
 -85.284
 -85.2827
 -85.2668
 -85.2606
 -85.2688
 -85.2622
 -85.4744
 -85.4731
 -85.4709
 -85.4708
 -85.4013
 -85.4008
 -85.3989
 -85.4054
 -85.3562
 -85.3641
 -85.3597
 -85.3597
 -85.3875
 -85.3855
 -85.3843
 -85.3888
 -85.4719
 -85.4712
 -85.2539
 -85.2507
 -85.2515
 -85.2539
 -85.4705
 -85.4717
 -85.4691
 -85.0472
 -85.0482
 -85.0442
 -85.0336
 -85.4641
 -85.46
 -85.4628
 -85.4611
 -85.3376
 -85.3336
 -85.3391
 -85.3325
 -85.3711
 -85.3703
 -85.3689
 -85.4685
 -85.4668
 -85.4675
 -85.469
 -85.4006
 -85.3962
 -85.4005
 -85.3978
 -85.3711
 -85.3742
 -85.3771
 -85.3732
 -85.3398
 -85.3371
 -85.3556
 -85.3449
 -85.3515
 -85.349
 -85.4087
 -85.4038
 -85.4067
 -85.4743
 -85.4709
 -85.4704
 -85.4737
 -85.3694
 -85.3724
 -85.3688
 -85.3708
 -85.3588
 -85.3553
 -85.3316
 -85.3261
 -85.3242
 -85.3306
 -85.1306
 -85.1343
 -85.1573
 -85.4011
 -85.4024
 -85.3966
 -85.3966
 -85.4728
 -85.4731
 -85.4731
 -85.1284
 -85.1337
 -85.1302
 -85.365
 -85.3614
 -85.3637
 -85.3591
 -85.4188
 -85.4193
 -85.4149
 -85.4163
 -84.9609
 -84.9378
 -84.9486
 -84.9666
 -85.454
 -85.455
 -85.4534
 -85.4528
 -85.4224
 -85.42
 -85.4203
 -85.4182
 -85.4458
 -85.4468
 -85.4445
 -85.4669
 -85.4676
 -85.4712
 -85.4688
 -85.3867
 -85.3808
 -85.386
 -85.3872
 -85.4674
 -85.4662
 -85.4658
 -85.4649
 -85.3424
 -85.3416
 -85.3451
 -85.3385
 -85.4734
 -85.4145
 -85.3808
 -85.3794
 -85.3835
 -85.3781
 -85.4085
 -85.4071
 -85.4044
 -85.4033
 -85.4321
 -85.4327
 -85.4303
 -85.4278
 -85.4111
 -85.41
 -85.414
 -85.4119
 -85.4361
 -85.4337
 -85.4368
 -85.4364
 -85.3806
 -85.3777
 -85.3785
 -85.3828
 -85.3722
 -85.3729
 -85.3741
 -85.3764
 -85.358
 -85.3561
 -85.3547
 -85.3602
 -85.3737
 -85.3735
 -85.3691
 -85.297
 -85.2979
 -85.297
 -85.3008
 -85.3867
 -85.4171
 -85.4215
 -85.4221
 -85.4208
 -85.4697
 -85.4699
 -85.4662
 -85.3296
 -85.3197
 -85.3227
 -85.32
 -85.3915
 -85.3969
 -85.3949
 -85.4097
 -85.408
 -85.4063
 -85.4048
 -85.4193
 -85.4213
 -85.4248
 -85.4261
 -85.4595
 -85.461
 -85.4633
 -85.4603
 -85.3146
 -85.3139
 -85.3172
 -85.3092
 -85.3905
 -85.3876
 -85.3877
 -85.3847
 -85.3756
 -85.374
 -85.3701
 -85.3763
 -85.3719
 -85.3698
 -85.3683
 -85.3651
 -85.383
 -85.3818
 -85.3846
 -85.3792
 -85.4309
 -85.4244
 -85.4321
 -85.4274
 -85.3709
 -85.3638
 -85.3665
 -85.3683
 -85.2519
 -85.2521
 -85.2517
 -85.254
 -85.1884
 -85.1954
 -85.1885
 -85.3819
 -85.3828
 -85.3863
 -85.3877
 -85.3843
 -85.3847
 -85.3875
 -85.3895
 -85.3729
 -85.3684
 -85.3759
 -85.3756
 -85.4653
 -85.466
 -85.462
 -85.4623
 -85.4324
 -85.4293
 -85.4283
 -85.432
 -85.3286
 -85.3324
 -85.3312
 -85.3327
 -85.2691
 -85.2822
 -85.2787
 -85.2628
 -85.4576
 -85.4561
 -85.4543
 -85.4575
 -85.0411
 -84.9996
 -85.0071
 -85.0478
 -85.3459
 -85.3511
 -85.3483
 -85.3476
 -85.2684
 -85.2714
 -85.2707
 -85.3075
 -85.3108
 -85.312
 -85.3176
 -85.4266
 -85.426
 -85.4289
 -85.4226
 -85.3003
 -85.2945
 -85.2944
 -85.3002
 -85.1831
 -85.2173
 -85.1959
 -84.9526
 -84.9857
 -84.9991
 -84.971
 -85.4782
 -85.479
 -85.4794
 -85.4814
 -85.3236
 -85.3196
 -85.3224
 -85.3252
 -85.4022
 -85.3964
 -85.3978
 -85.4007
 -85.4622
 -85.4609
 -85.4582
 -85.4605
 -85.4449
 -85.4481
 -85.4435
 -85.4449
 -85.327
 -85.3291
 -85.3246
 -85.327
 -85.2317
 -85.2168
 -85.2013
 -85.2199
 -85.3978
 -85.4003
 -85.3955
 -85.3978
 -85.2545
 -85.2634
 -85.3596
 -85.3506
 -85.3529
 -85.3574
 -85.3641
 -85.3636
 -85.3606
 -85.3657
 -85.3561
 -85.3565
 -85.3538
 -85.2861
 -85.2889
 -85.2864
 -85.4043
 -85.4044
 -85.4063
 -85.4073
 -85.3994
 -85.3987
 -85.3963
 -85.4028
 -85.327
 -85.3327
 -85.3295
 -85.3279
 -85.4345
 -85.4377
 -85.433
 -85.4342
 -85.3799
 -85.3739
 -85.377
 -85.3812
 -85.2942
 -85.2941
 -85.2934
 -85.294
 -85.352
 -85.3573
 -85.3528
 -85.404
 -85.4035
 -85.4001
 -85.4025
 -85.3869
 -85.3902
 -85.3921
 -85.4768
 -85.4764
 -85.4755
 -85.4749
 -85.1606
 -85.1475
 -85.1651
 -85.1343
 -85.345
 -85.3495
 -85.3497
 -85.3457
 -85.3366
 -85.3355
 -85.3309
 -85.3371
 -85.4782
 -85.4778
 -85.4809
 -85.4825
 -85.4411
 -85.4429
 -85.4423
 -85.3062
 -85.3076
 -85.3019
 -85.3081
 -85.4398
 -85.4357
 -85.4374
 -85.3238
 -85.325
 -85.3208
 -85.3219
 -84.3835
 -84.4212
 -84.4184
 -84.4535
 -85.4648
 -85.4655
 -85.4675
 -85.4636
 -85.2875
 -85.2854
 -85.2825
 -85.2778
 -85.4752
 -85.4745
 -85.4741
 -85.4746
 -85.3039
 -85.3104
 -85.3048
 -85.3089
 -84.4932
 -84.3925
 -84.4551
 -84.477
 -85.2131
 -85.2048
 -85.2144
 -85.215
 -85.2916
 -85.2958
 -85.3
 -85.2905
 -85.3769
 -85.3709
 -85.265
 -85.2689
 -85.2506
 -85.2521
 -85.4077
 -85.4046
 -85.4036
 -85.4012
 -85.3724
 -85.3723
 -85.371
 -85.3774
 -85.4613
 -85.4581
 -85.4635
 -85.464
 -85.4545
 -85.4533
 -85.4562
 -85.4559
 -85.4465
 -85.4432
 -85.4458
 -85.4434
 -85.4594
 -85.46
 -85.4607
 -85.4585
 -85.4189
 -85.4184
 -85.4217
 -85.419
 -85.4482
 -85.4513
 -85.4506
 -85.4495
 -85.1828
 -85.1558
 -85.1553
 -85.1823
 -85.4561
 -85.4581
 -85.4577
 -85.4572
 -85.3575
 -85.3528
 -85.3496
 -85.3518
 -85.4382
 -85.4331
 -85.4336
 -85.4549
 -85.4576
 -85.458
 -85.4568
 -85.2872
 -85.2792
 -85.279
 -85.2827
 -85.2292
 -85.2269
 -85.2221
 -85.2238
 -85.4259
 -85.4256
 -85.4233
 -85.4293
 -85.3585
 -85.3585
 -85.3577
 -85.3534
 -85.4207
 -85.4189
 -85.4204
 -85.4195
 -85.4193
 -85.419
 -85.426
 -85.3484
 -85.3471
 -85.3427
 -85.4161
 -85.4184
 -85.3929
 -85.3872
 -85.4738
 -85.4756
 -85.4753
 -85.4738
 -85.3864
 -85.3879
 -85.385
 -85.3905
 -85.4157
 -85.4143
 -85.4195
 -85.4143
 -85.4031
 -85.405
 -85.4028
 -85.4063
 -85.4484
 -85.4406
 -85.442
 -85.4396
 -85.439
 -85.3662
 -85.3682
 -85.3631
 -85.3632
 -85.2754
 -85.2754
 -85.2752
 -85.275
 -85.4167
 -85.4132
 -85.4174
 -85.415
 -85.422
 -85.4204
 -85.4187
 -85.4236
 -84.6692
 -84.7211
 -84.733
 -84.7497
 -85.3813
 -85.3855
 -85.3827
 -85.38
 -85.3751
 -85.3709
 -85.369
 -85.3729
 -85.4148
 -85.4118
 -85.2999
 -85.3008
 -85.3027
 -85.3001
 -85.3409
 -85.3437
 -85.343
 -85.3401
 -85.3078
 -85.3053
 -85.3042
 -85.3048
 -85.3312
 -85.3349
 -85.3344
 -85.3301
 -85.3018
 -85.301
 -85.2985
 -85.3023
 -85.4432
 -85.4413
 -85.4422
 -85.4446
 -85.4558
 -85.4552
 -85.4521
 -85.4541
 -85.3254
 -85.3224
 -85.3192
 -85.3248
 -85.3818
 -85.3784
 -85.3818
 -85.3791
 -85.4465
 -85.4432
 -85.4461
 -85.4446
 -85.3654
 -85.3616
 -85.3619
 -85.3685
 -85.3219
 -85.327
 -85.2496
 -85.2541
 -85.2557
 -85.2479
 -85.3747
 -85.3732
 -85.3691
 -85.3673
 -85.4473
 -85.4459
 -85.4464
 -85.4502
 -85.4715
 -85.4695
 -85.47
 -85.4718
 -84.7733
 -84.7561
 -85.3543
 -85.36
 -85.3602
 -85.3634
 -85.3471
 -85.3392
 -85.3443
 -85.3445
 -85.3423
 -85.3414
 -85.309
 -85.3108
 -85.3114
 -85.3121
 -85.3731
 -85.3776
 -85.3798
 -85.1759
 -85.1854
 -85.1876
 -85.1973
 -85.4566
 -85.4588
 -85.4542
 -85.4572
 -85.4708
 -85.4706
 -85.4703
 -85.4783
 -85.477
 -85.4746
 -85.4764
 -85.4002
 -85.4065
 -85.4047
 -85.405
 -85.381
 -85.3871
 -85.3794
 -85.3845
 -85.4359
 -85.441
 -85.4426
 -85.4398
 -85.4131
 -85.4121
 -85.4162
 -85.4125
 -85.4072
 -85.411
 -85.4087
 -85.3899
 -85.3904
 -85.3885
 -85.3944
 -85.428
 -85.4354
 -85.4326
 -85.4286
 -85.3653
 -85.3613
 -85.3641
 -85.365
 -85.384
 -85.3829
 -85.3884
 -85.3818
 -85.4197
 -85.4187
 -85.4167
 -85.4198
 -85.382
 -85.3796
 -85.3783
 -85.3829
 -84.5139
 -84.4901
 -84.5879
 -84.5781
 -85.3167
 -85.3144
 -85.3136
 -85.3106
 -85.4277
 -85.4273
 -85.4317
 -85.4323
 -85.2989
 -85.299
 -85.2878
 -85.2856
 -85.28
 -85.269
 -85.2803
 -85.2873
 -85.4495
 -85.4487
 -85.4508
 -85.4465
 -85.4448
 -85.4409
 -85.4444
 -85.4434
 -85.4583
 -85.4552
 -85.4577
 -85.4591
 -85.4325
 -85.4325
 -85.436
 -85.4344
 -85.3552
 -85.3534
 -85.3503
 -85.3532
 -85.3196
 -85.3174
 -85.3222
 -85.3163
 -85.421
 -85.4152
 -85.4215
 -85.4165
 -85.3215
 -85.3235
 -85.3241
 -85.3238
 -85.2643
 -85.2664
 -85.2686
 -85.2709
 -85.3785
 -85.3824
 -85.379
 -85.3822
 -85.3452
 -85.3415
 -85.3379
 -85.3483
 -85.351
 -85.3579
 -85.353
 -85.2567
 -85.2509
 -85.2433
 -85.2514
 -85.324
 -85.3229
 -85.3213
 -85.3216
 -85.426
 -85.4283
 -85.4263
 -85.4273
 -85.3874
 -85.3913
 -85.3924
 -85.48
 -85.4778
 -85.4782
 -85.4793
 -85.4639
 -85.4668
 -85.4687
 -85.4658
 -85.3418
 -85.3465
 -85.3392
 -85.3459
 -85.3942
 -85.3977
 -85.2575
 -85.2564
 -85.2435
 -85.2616
 -85.3871
 -85.3823
 -85.3809
 -85.385
 -85.4573
 -85.4582
 -85.4552
 -85.4579
 -85.3178
 -85.3193
 -85.3206
 -85.3598
 -85.3617
 -85.3623
 -85.3553
 -85.3432
 -85.3498
 -85.35
 -85.3491
 -85.3785
 -85.3828
 -85.3839
 -85.3785
 -85.3683
 -85.3713
 -85.3748
 -85.3707
 -85.384
 -85.3862
 -85.3826
 -85.3879
 -85.3641
 -85.3679
 -85.4392
 -85.4366
 -85.442
 -85.4383
 -85.3668
 -85.3625
 -85.3641
 -85.3671
 -85.4064
 -85.4009
 -85.4038
 -85.3657
 -85.3705
 -85.367
 -85.3699
 -85.4091
 -85.4069
 -85.4046
 -85.4075
 -85.3042
 -85.298
 -85.3026
 -85.2942
 -85.3677
 -85.3666
 -85.3726
 -85.3969
 -85.398
 -85.4025
 -85.3944
 -85.3764
 -85.3751
 -85.3784
 -85.307
 -85.3084
 -85.304
 -85.4113
 -85.4104
 -85.4099
 -85.4058
 -85.3772
 -85.3807
 -85.3816
 -84.8926
 -84.9117
 -84.9194
 -84.8571
 -85.4126
 -85.4095
 -85.4073
 -85.4133
 -85.3487
 -85.3436
 -85.3446
 -85.3422
 -85.4461
 -85.446
 -85.4474
 -85.4487
 -85.454
 -85.4513
 -85.4556
 -85.4547
 -85.272
 -85.2849
 -85.2684
 -85.2716
 -85.3954
 -85.3924
 -85.3895
 -85.3284
 -85.3224
 -85.3271
 -85.3266
 -85.4523
 -85.4477
 -85.4504
 -85.3854
 -85.3897
 -85.3868
 -85.3904
 -85.424
 -85.4256
 -85.4254
 -85.4242
 -85.4625
 -85.4632
 -85.4648
 -85.4623
 -84.1333
 -84.0875
 -84.0931
 -84.1282
 -85.3309
 -85.3325
 -85.3355
 -85.3302
 -85.3913
 -85.3992
 -85.3963
 -85.3981
 -85.2317
 -85.2232
 -85.2149
 -85.377
 -85.381
 -85.3802
 -85.3758
 -85.4663
 -85.417
 -85.4138
 -85.4094
 -85.4139
 -85.4504
 -85.4504
 -85.4508
 -85.4521
 -85.4355
 -85.4346
 -85.4338
 -85.437
 -85.395
 -85.3935
 -85.3857
 -85.3805
 -85.3812
 -85.3805
 -84.8864
 -84.9337
 -84.8851
 -84.9055
 -85.341
 -85.3392
 -85.3368
 -85.3327
 -85.3319
 -85.3362
 -85.3333
 -85.4681
 -85.472
 -85.4687
 -85.4679
 -85.3788
 -85.3787
 -85.3831
 -85.3837
 -85.3928
 -85.3909
 -85.3871
 -85.3903
 -85.4538
 -85.4512
 -85.4555
 -85.4516
 -85.3825
 -85.3812
 -85.387
 -85.3834
 -85.1523
 -85.1516
 -85.1325
 -85.1396
 -85.3741
 -85.3727
 -85.376
 -85.3739
 -85.3282
 -85.3288
 -85.3297
 -85.3331
 -85.3163
 -85.3115
 -85.3115
 -85.3141
 -85.2777
 -85.2802
 -85.2774
 -85.2764
 -85.1065
 -85.1009
 -85.085
 -85.1177
 -85.4766
 -85.4749
 -85.4756
 -85.475
 -85.0042
 -85.0132
 -84.9732
 -85.0126
 -85.3798
 -85.3766
 -85.3797
 -85.3758
 -85.4741
 -85.4744
 -85.4722
 -85.473
 -85.3557
 -85.3536
 -85.3572
 -85.358
 -85.2731
 -85.4604
 -85.4588
 -85.4594
 -85.463
 -85.298
 -85.1417
 -85.1679
 -85.1657
 -85.1389
 -85.4005
 -85.4061
 -85.4379
 -85.4337
 -85.4395
 -85.4349
 -85.4485
 -85.4485
 -85.4507
 -85.45
 -85.4796
 -85.4774
 -85.4803
 -85.4395
 -85.4439
 -85.4432
 -85.4425
 -85.356
 -85.4706
 -85.4213
 -85.4206
 -85.419
 -85.4705
 -85.472
 -85.4726
 -85.4715
 -85.3599
 -85.3587
 -85.3595
 -85.3555
 -85.3254
 -85.3279
 -85.3214
 -85.3203
 -85.4166
 -85.4138
 -85.4153
 -85.421
 -85.4671
 -85.4688
 -85.4659
 -85.4652
 -85.4577
 -85.4569
 -85.4583
 -85.4566
 -85.4058
 -85.4126
 -85.4119
 -85.062
 -85.0386
 -85.1022
 -85.0534
 -84.248
 -84.3523
 -84.2965
 -84.3258
 -85.2112
 -85.1939
 -85.1846
 -85.1977
 -85.3884
 -85.3925
 -85.388
 -85.1611
 -85.1739
 -85.168
 -85.1612
 -85.4416
 -85.4406
 -85.4446
 -85.4452
 -85.4456
 -85.4436
 -85.4452
 -85.2988
 -85.2961
 -85.424
 -85.4258
 -85.486
 -85.4847
 -85.4859
 -85.4768
 -85.478
 -85.4776
 -85.4786
 -85.365
 -85.3613
 -85.3682
 -85.3651
 -85.3386
 -85.3376
 -85.3348
 -85.3415
 -85.376
 -85.3757
 -85.3805
 -85.3784
 -85.4738
 -85.4736
 -85.4743
 -85.4736
 -85.4251
 -85.4274
 -85.4261
 -85.4237
 -85.2713
 -85.2703
 -85.271
 -85.2752
 -85.4252
 -85.427
 -85.4241
 -85.4278
 -85.3974
 -85.3984
 -85.3939
 -85.3992
 -85.4188
 -85.4214
 -85.4211
 -84.0094
 -84.0214
 -84.0325
 -85.3336
 -85.3298
 -85.3598
 -85.3596
 -85.3558
 -85.3629
 -85.4365
 -85.4404
 -85.4372
 -85.4365
 -85.4257
 -85.4268
 -85.4312
 -85.4288
 -85.4286
 -85.4268
 -85.433
 -84.9486
 -84.9515
 -85.2708
 -85.2692
 -85.2731
 -85.2714
 -85.3968
 -84.939
 -84.8929
 -84.9075
 -84.9108
 -85.3264
 -85.3327
 -85.3288
 -85.3276
 -85.3675
 -85.3646
 -85.1181
 -85.1579
 -85.1525
 -85.1298
 -85.4766
 -85.4791
 -85.4784
 -85.477
 -85.4659
 -85.4671
 -85.4658
 -85.4693
 -85.2903
 -85.3044
 -85.2934
 -85.3002
 -85.3327
 -85.3297
 -85.3405
 -85.3387
 -85.3371
 -85.3347
 -85.3372
 -85.4317
 -85.4342
 -85.4288
 -85.4318
 -85.2639
 -85.2726
 -85.2763
 -85.2767
 -85.3756
 -85.3764
 -85.375
 -85.413
 -85.4144
 -85.4157
 -85.4192
 -85.3339
 -85.3354
 -85.3383
 -85.3364
 -85.3086
 -85.314
 -85.3185
 -85.3117
 -85.318
 -85.3146
 -85.3157
 -85.3201
 -85.353
 -85.3544
 -85.3599
 -85.3555
 -85.4116
 -85.4089
 -85.3279
 -85.3286
 -85.3297
 -85.325
 -85.4784
 -85.4743
 -85.4752
 -85.4753
 -85.3094
 -85.3126
 -85.31
 -85.3133
 -85.2256
 -85.2202
 -85.2321
 -85.2293
 -85.3979
 -85.3975
 -85.0804
 -85.0771
 -85.0614
 -85.0825
 -85.3429
 -85.3479
 -85.3404
 -85.4684
 -85.4679
 -85.4697
 -85.4698
 -85.1121
 -85.0949
 -85.1038
 -85.3132
 -85.3123
 -85.317
 -85.315
 -85.1092
 -85.3063
 -85.3034
 -85.3049
 -85.2988
 -85.3819
 -85.3785
 -85.3828
 -85.3822
 -85.3589
 -85.3601
 -85.3628
 -85.3586
 -85.4711
 -85.474
 -85.391
 -85.3938
 -85.3927
 -85.391
 -85.2908
 -85.2794
 -85.2926
 -85.2786
 -85.3388
 -85.3489
 -85.3432
 -85.3399
 -85.4589
 -85.4571
 -85.4571
 -85.4576
 -85.3623
 -85.3653
 -85.3696
 -85.3673
 -85.3993
 -85.4473
 -85.4487
 -85.4458
 -85.339
 -85.3407
 -85.3349
 -85.3419
 -85.4242
 -85.4228
 -85.4243
 -85.4207
 -85.3453
 -85.3397
 -85.342
 -85.3469
 -85.4696
 -85.4674
 -85.4663
 -85.4686
 -85.4842
 -85.485
 -85.4836
 -85.3154
 -85.3181
 -85.3231
 -85.3203
 -85.4083
 -85.4097
 -85.4049
 -85.4069
 -85.4202
 -85.4217
 -85.4239
 -85.4254
 -85.3278
 -85.3291
 -85.3043
 -85.3019
 -85.2995
 -85.3069
 -85.3524
 -85.3609
 -85.4004
 -85.4022
 -85.3999
 -85.3984
 -85.4098
 -85.4113
 -85.4147
 -85.4098
 -85.3525
 -85.357
 -85.3606
 -85.357
 -85.3957
 -85.3959
 -85.3962
 -85.4535
 -85.45
 -85.4487
 -85.4507
 -85.4366
 -85.4352
 -85.4372
 -85.3543
 -85.3604
 -85.3519
 -85.358
 -85.3115
 -85.3023
 -85.2986
 -85.3093
 -85.4225
 -85.4176
 -85.4182
 -85.4208
 -85.3621
 -85.3612
 -85.355
 -85.29
 -85.2894
 -85.29
 -85.2895
 -85.3333
 -85.333
 -85.3351
 -85.3367
 -85.4417
 -85.4397
 -85.4382
 -85.4788
 -85.4761
 -85.4767
 -85.4184
 -85.4204
 -85.4208
 -85.333
 -85.328
 -85.335
 -85.3309
 -85.4785
 -85.479
 -85.4785
 -85.4798
 -85.4139
 -85.4113
 -85.4131
 -85.4161
 -85.4466
 -85.448
 -85.452
 -85.4517
 -85.4428
 -85.4448
 -85.4431
 -85.4435
 -85.1912
 -85.1656
 -85.1753
 -85.3519
 -85.3534
 -85.3499
 -85.3537
 -85.4476
 -85.4488
 -85.446
 -85.4462
 -85.3699
 -85.3719
 -85.3718
 -85.3767
 -85.4256
 -85.4258
 -85.4253
 -85.4215
 -85.4607
 -85.4628
 -85.269
 -85.2738
 -85.2731
 -85.2763
 -85.4343
 -85.4318
 -85.4375
 -85.4332
 -85.3554
 -85.354
 -85.3518
 -85.3572
 -85.4201
 -85.4146
 -85.4745
 -85.4744
 -85.4719
 -85.4751
 -85.4458
 -85.45
 -85.4443
 -85.4513
 -85.4795
 -85.48
 -85.4821
 -85.4825
 -85.4323
 -85.4323
 -85.4341
 -85.42
 -85.4251
 -85.4246
 -85.4228
 -85.4231
 -85.4206
 -85.4222
 -85.4179
 -85.3246
 -85.3259
 -85.3218
 -85.32
 -85.1626
 -85.1559
 -85.1754
 -85.3798
 -85.3795
 -85.3805
 -85.453
 -85.4496
 -85.4516
 -85.4489
 -85.3563
 -85.3596
 -85.364
 -85.3599
 -85.2978
 -85.287
 -85.2898
 -85.2992
 -85.3832
 -85.3787
 -85.3762
 -85.3766
 -85.3421
 -85.3503
 -85.3427
 -85.4755
 -85.4764
 -85.4732
 -85.4729
 -85.2758
 -85.2774
 -85.3033
 -85.3064
 -85.3066
 -85.4277
 -85.4289
 -85.4253
 -85.4316
 -85.3769
 -85.3829
 -85.3817
 -85.3812
 -85.2922
 -85.2934
 -85.2981
 -85.2932
 -85.3929
 -85.3845
 -85.3856
 -85.3898
 -85.3413
 -85.3368
 -85.3442
 -85.3445
 -85.4577
 -85.4591
 -85.4634
 -85.3347
 -85.3346
 -85.3382
 -85.3379
 -85.3923
 -85.3957
 -85.2853
 -85.2918
 -85.2883
 -85.2863
 -85.296
 -85.29
 -85.2936
 -85.2907
 -85.4608
 -85.4594
 -85.306
 -85.3118
 -85.308
 -85.3021
 -85.3849
 -85.3808
 -85.3826
 -85.3853
 -85.3495
 -85.2169
 -85.2004
 -85.2063
 -85.3985
 -85.3974
 -85.398
 -85.3947
 -85.4637
 -85.4639
 -85.4622
 -85.4652
 -85.1822
 -85.1958
 -85.1918
 -85.1733
 -85.3056
 -85.3091
 -85.3042
 -85.3055
 -85.4174
 -85.419
 -85.4192
 -85.2055
 -85.1994
 -85.2151
 -85.2141
 -85.479
 -85.4767
 -85.4777
 -85.4795
 -85.2677
 -85.2711
 -85.2726
 -85.2646
 -85.4138
 -85.4099
 -85.4126
 -85.4161
 -85.3529
 -85.3572
 -85.3553
 -85.352
 -85.2902
 -85.2924
 -85.2899
 -85.3427
 -85.3484
 -85.3427
 -85.3473
 -85.2981
 -85.2939
 -85.2966
 -85.2967
 -85.3014
 -85.297
 -85.2979
 -85.4366
 -85.4331
 -85.4374
 -85.4311
 -85.4278
 -85.3729
 -85.3824
 -85.376
 -85.3764
 -85.4686
 -85.4674
 -85.4657
 -85.4674
 -85.4
 -85.4049
 -85.3976
 -85.4035
 -85.4118
 -85.4148
 -85.4116
 -85.4107
 -85.3045
 -85.3026
 -85.3076
 -85.3067
 -85.3037
 -85.4125
 -85.4081
 -85.4108
 -85.4139
 -85.466
 -85.4697
 -85.3879
 -85.3895
 -85.3846
 -85.3901
 -85.2941
 -85.2932
 -85.2964
 -85.4573
 -85.4597
 -85.4565
 -85.4578
 -85.3896
 -85.3832
 -85.3857
 -85.3868
 -85.3032
 -85.3009
 -85.3036
 -85.3053
 -85.3755
 -85.3751
 -85.3819
 -85.377
 -85.4092
 -85.4162
 -85.2588
 -85.2557
 -85.2572
 -85.2541
 -85.2956
 -85.3092
 -85.3151
 -85.3126
 -85.3176
 -85.3155
 -85.3077
 -85.2982
 -85.2985
 -85.3043
 -85.3872
 -85.3859
 -85.3855
 -85.4039
 -85.4021
 -85.4004
 -85.3985
 -85.3261
 -85.3252
 -85.3263
 -85.3256
 -85.3572
 -85.3556
 -85.3942
 -85.3915
 -85.3933
 -85.3907
 -85.3951
 -85.395
 -85.3768
 -85.3808
 -85.3822
 -85.3772
 -85.029
 -85.0721
 -85.065
 -85.0764
 -85.3928
 -85.2985
 -85.3024
 -85.2995
 -85.2986
 -85.4747
 -85.4765
 -85.4742
 -85.429
 -85.4282
 -85.4253
 -85.4294
 -85.3725
 -85.374
 -85.3719
 -85.3651
 -85.3899
 -85.3931
 -85.3875
 -85.314
 -85.318
 -85.3165
 -85.3137
 -85.4587
 -85.4612
 -85.4561
 -85.4596
 -85.4154
 -85.4138
 -85.417
 -85.4155
 -85.4591
 -85.4604
 -85.4555
 -85.4583
 -85.2567
 -85.2548
 -85.251
 -85.2517
 -85.3211
 -85.3254
 -85.4356
 -85.4342
 -85.4326
 -85.4349
 -85.466
 -85.4655
 -85.4663
 -85.4649
 -85.4845
 -85.4854
 -85.4835
 -85.4857
 -85.4625
 -85.46
 -85.4622
 -85.4115
 -85.4157
 -85.411
 -85.414
 -85.4645
 -85.466
 -85.4663
 -85.4659
 -85.2726
 -85.2779
 -85.2837
 -85.2769
 -85.4478
 -85.4507
 -85.451
 -85.4137
 -85.4124
 -85.4113
 -85.411
 -85.2969
 -85.295
 -85.2968
 -85.2941
 -85.418
 -85.4221
 -85.4198
 -85.42
 -85.4007
 -85.4038
 -85.4055
 -85.4008
 -85.3194
 -85.3204
 -85.3275
 -85.33
 -85.2623
 -85.2635
 -85.2559
 -85.256
 -85.3602
 -85.3617
 -85.3659
 -85.3611
 -84.9567
 -84.9509
 -85.0174
 -84.9719
 -85.2987
 -85.3028
 -85.2979
 -85.3122
 -85.306
 -85.3053
 -85.3036
 -84.7585
 -84.7554
 -84.708
 -84.7965
 -85.4572
 -85.4551
 -85.4556
 -85.4432
 -85.4436
 -85.4467
 -85.4462
 -85.3144
 -85.3249
 -85.3215
 -85.1787
 -85.1886
 -85.1783
 -85.2507
 -85.2462
 -85.2528
 -85.2544
 -85.3248
 -85.3241
 -85.3281
 -85.3206
 -85.4142
 -85.4203
 -85.4175
 -85.4167
 -85.0418
 -85.0255
 -85.035
 -85.0075
 -85.4051
 -85.3983
 -85.398
 -85.4041
 -85.4419
 -85.4436
 -85.4392
 -85.4419
 -85.3963
 -85.396
 -85.4027
 -85.3994
 -85.367
 -85.3629
 -85.3699
 -85.3014
 -85.3011
 -85.3014
 -85.304
 -85.4605
 -85.4626
 -85.4637
 -85.4623
 -85.4486
 -85.4508
 -85.4482
 -85.4462
 -85.3193
 -85.3239
 -85.3208
 -85.3166
 -85.4669
 -85.4683
 -85.4698
 -85.4654
 -85.4695
 -85.4667
 -85.4668
 -85.4694
 -85.4695
 -85.4671
 -85.4682
 -85.1432
 -85.1382
 -84.7692
 -84.7895
 -84.7647
 -84.8153
 -85.407
 -85.4051
 -85.4022
 -85.3735
 -85.3706
 -85.3776
 -85.3713
 -85.3846
 -85.3897
 -85.3882
 -85.3853
 -84.0555
 -85.3586
 -85.4026
 -85.4069
 -85.4483
 -85.45
 -85.4494
 -85.449
 -85.1825
 -85.3439
 -85.3483
 -85.3439
 -85.4866
 -85.4856
 -85.4858
 -85.4857
 -85.3854
 -85.3821
 -85.3857
 -85.3896
 -85.4689
 -85.4672
 -85.4695
 -85.4663
 -85.3652
 -85.3707
 -85.3604
 -85.3508
 -85.3572
 -85.353
 -85.4587
 -85.4591
 -85.4559
 -85.4592
 -85.4057
 -85.4028
 -85.3999
 -85.3985
 -85.2767
 -85.2716
 -85.2804
 -85.2793
 -85.4441
 -85.4499
 -85.4478
 -85.4701
 -85.4736
 -85.4738
 -85.4701
 -85.4457
 -85.4447
 -85.4427
 -85.4447
 -85.3183
 -85.3181
 -85.329
 -85.3175
 -85.3331
 -85.3295
 -85.3301
 -85.3304
 -85.4591
 -85.461
 -85.4609
 -85.461
 -85.3564
 -85.3582
 -85.3524
 -85.4379
 -85.438
 -85.437
 -85.4349
 -85.2852
 -85.2915
 -85.2819
 -85.2836
 -85.41
 -85.412
 -85.4064
 -85.4088
 -85.2854
 -85.2904
 -85.2859
 -85.285
 -85.393
 -85.3951
 -85.3909
 -85.3943
 -85.4414
 -85.4412
 -85.4443
 -85.4393
 -85.2712
 -85.2689
 -85.2739
 -85.3863
 -85.3904
 -85.4533
 -85.452
 -85.4513
 -85.4494
 -85.3554
 -85.3519
 -85.3512
 -85.2746
 -85.2698
 -85.2674
 -85.2702
 -85.4215
 -85.4229
 -85.4214
 -85.4243
 -85.4097
 -85.4093
 -85.4157
 -85.411
 -84.3938
 -84.4057
 -84.4831
 -84.4102
 -85.3833
 -85.3777
 -85.3807
 -84.9755
 -85.0046
 -85.0176
 -85.3844
 -85.3824
 -85.3792
 -85.3832
 -85.3781
 -85.2393
 -85.2477
 -85.2275
 -85.2387
 -85.3667
 -85.3722
 -85.3727
 -85.4485
 -85.4486
 -85.4487
 -85.447
 -85.3704
 -85.3729
 -85.3758
 -85.3757
 -85.3785
 -85.3772
 -85.3769
 -85.4833
 -85.4825
 -85.4819
 -85.4805
 -85.3
 -85.3133
 -85.3105
 -85.3079
 -85.2492
 -85.25
 -85.2536
 -85.2541
 -85.3483
 -85.3471
 -85.3541
 -85.3487
 -85.4546
 -85.4553
 -85.4564
 -85.4522
 -84.3555
 -84.4214
 -84.3392
 -84.4421
 -85.4385
 -85.4345
 -85.4368
 -85.4369
 -85.2381
 -85.232
 -85.241
 -85.2377
 -85.448
 -85.4404
 -85.4429
 -85.4463
 -85.4346
 -85.4327
 -85.4307
 -85.4329
 -85.4387
 -85.4401
 -85.3225
 -85.3178
 -85.317
 -85.3212
 -85.4619
 -85.4625
 -85.4622
 -85.4317
 -85.4267
 -85.4284
 -85.4324
 -85.3142
 -85.3193
 -85.316
 -85.3114
 -85.3415
 -85.3397
 -85.3457
 -84.0144
 -84.0172
 -83.9874
 -84.0121
 -85.3754
 -85.3704
 -85.3773
 -85.4626
 -85.4648
 -85.4618
 -85.4611
 -85.4405
 -85.438
 -85.4564
 -85.4598
 -85.4615
 -85.4581
 -85.4249
 -85.4253
 -85.2113
 -85.2072
 -85.1975
 -85.2156
 -85.4374
 -85.4371
 -85.4373
 -85.4338
 -85.3835
 -85.3856
 -85.3426
 -85.3454
 -85.3435
 -85.3422
 -85.4462
 -85.4482
 -85.4486
 -85.4479
 -85.3243
 -85.3136
 -85.3149
 -85.3225
 -85.4595
 -85.4596
 -85.4624
 -85.4657
 -85.3991
 -85.3999
 -85.3954
 -85.2308
 -85.2264
 -85.2231
 -85.2292
 -85.4136
 -85.4133
 -85.4118
 -85.4092
 -85.3
 -85.2929
 -85.2938
 -85.2885
 -85.3108
 -85.3014
 -85.3082
 -84.269
 -84.2511
 -84.283
 -84.317
 -85.2621
 -85.2707
 -85.2732
 -85.2648
 -85.4398
 -85.4382
 -85.4417
 -85.438
 -85.3793
 -85.3813
 -85.3759
 -85.3477
 -85.2975
 -85.301
 -85.2989
 -85.3015
 -85.3579
 -85.3532
 -85.3573
 -85.3596
 -85.4278
 -85.4335
 -85.434
 -85.4288
 -85.2798
 -85.2806
 -85.2942
 -85.189
 -85.3977
 -85.3993
 -85.3946
 -85.4016
 -85.3003
 -85.3069
 -84.8575
 -84.8183
 -85.2931
 -85.2984
 -85.294
 -85.2872
 -85.4265
 -85.4294
 -85.4532
 -85.4529
 -85.4539
 -85.4524
 -85.3432
 -85.3482
 -85.3479
 -85.3484
 -85.4722
 -85.4729
 -85.4746
 -85.4731
 -85.3347
 -85.3366
 -85.3249
 -85.3244
 -85.4365
 -85.4372
 -85.4345
 -85.4312
 -85.3163
 -85.3166
 -85.3195
 -85.319
 -85.4357
 -85.4375
 -85.433
 -85.4359
 -85.3566
 -85.3631
 -85.465
 -85.4639
 -85.4234
 -85.4266
 -85.4224
 -85.4272
 -85.4205
 -85.419
 -85.4196
 -85.4239
 -85.392
 -85.3899
 -85.3939
 -85.3933
 -85.4347
 -85.431
 -85.4362
 -85.438
 -85.3133
 -85.3081
 -85.3108
 -85.3105
 -85.4632
 -85.4625
 -85.4622
 -85.466
 -85.4677
 -85.4651
 -85.4668
 -85.2846
 -85.2908
 -85.2907
 -85.2873
 -85.4234
 -85.419
 -85.4197
 -85.4218
 -85.2594
 -85.2708
 -85.2709
 -85.28
 -85.3892
 -85.3709
 -85.3775
 -85.3776
 -85.3719
 -85.4464
 -85.4466
 -85.4463
 -85.443
 -85.0066
 -84.9742
 -84.9873
 -85.0264
 -85.4215
 -85.4237
 -85.4262
 -85.4228
 -85.3817
 -85.3859
 -85.3766
 -85.3804
 -85.4319
 -85.429
 -85.4285
 -85.428
 -85.4137
 -85.4832
 -85.4827
 -85.4799
 -85.4811
 -85.439
 -85.4399
 -85.4353
 -85.436
 -84.8023
 -84.8086
 -84.8417
 -84.8009
 -85.3586
 -85.3535
 -85.3511
 -85.3551
 -85.3278
 -85.3847
 -85.3856
 -85.3866
 -85.3904
 -85.4587
 -85.459
 -85.4559
 -85.4545
 -85.4491
 -85.4484
 -85.4523
 -85.4579
 -85.4522
 -85.4549
 -85.4536
 -84.3524
 -84.3666
 -85.4351
 -85.4336
 -85.4331
 -85.3221
 -85.3219
 -85.3201
 -85.3267
 -85.4278
 -85.426
 -85.4277
 -85.4244
 -85.3917
 -85.4217
 -85.4177
 -85.4218
 -85.4207
 -85.4646
 -85.4591
 -85.461
 -85.4642
 -85.4199
 -85.4227
 -85.4267
 -85.4206
 -85.3549
 -85.3572
 -85.3491
 -85.361
 -85.2956
 -85.2966
 -85.2942
 -85.2973
 -85.4801
 -85.4776
 -85.4804
 -85.4796
 -85.4285
 -85.4273
 -85.4296
 -85.4256
 -85.4779
 -85.477
 -85.4773
 -85.4788
 -85.3243
 -85.315
 -85.3246
 -85.3259
 -85.3882
 -85.386
 -85.4643
 -85.4682
 -85.4643
 -85.466
 -85.3903
 -85.3908
 -85.3907
 -85.3953
 -85.3751
 -85.3794
 -85.3906
 -85.3912
 -85.3953
 -85.3903
 -85.4512
 -85.4512
 -85.45
 -85.4538
 -85.3407
 -85.3343
 -85.3314
 -85.3372
 -85.1642
 -85.1731
 -85.1608
 -85.1589
 -85.2749
 -85.2715
 -85.2725
 -85.2705
 -85.3323
 -85.3368
 -85.3378
 -85.3324
 -85.3599
 -85.3532
 -85.3576
 -85.3704
 -85.3633
 -85.3674
 -85.3684
 -85.3866
 -85.3845
 -85.3822
 -85.3865
 -85.1678
 -85.1742
 -85.177
 -85.3525
 -85.3467
 -85.3541
 -85.3523
 -85.3943
 -85.3983
 -85.3979
 -85.3925
 -85.3146
 -85.3061
 -85.316
 -85.3071
 -85.3384
 -85.3425
 -85.3422
 -85.3413
 -85.3978
 -85.3974
 -85.4005
 -85.4036
 -85.385
 -85.3807
 -85.3843
 -85.3834
 -85.4242
 -85.4223
 -85.4232
 -85.4215
 -85.2659
 -85.2683
 -85.2703
 -85.4446
 -85.4426
 -85.4467
 -85.4437
 -85.3159
 -85.3223
 -85.3164
 -85.3123
 -85.3626
 -85.361
 -85.358
 -85.3646
 -85.3701
 -85.3749
 -85.3757
 -85.4047
 -85.4048
 -85.4063
 -85.4091
 -85.4185
 -85.4185
 -85.4214
 -85.4164
 -85.4225
 -85.4243
 -85.4267
 -85.4524
 -85.4532
 -85.4539
 -85.4188
 -85.417
 -85.4144
 -85.4162
 -85.4523
 -85.4536
 -85.4499
 -85.4619
 -85.462
 -85.4615
 -85.4592
 -85.3722
 -85.3628
 -85.369
 -85.3656
 -85.3235
 -85.3195
 -85.3271
 -85.3215
 -85.3078
 -85.452
 -85.4509
 -85.4557
 -85.4503
 -85.4529
 -85.447
 -84.1995
 -84.1699
 -84.2047
 -84.2534
 -85.4365
 -85.4335
 -85.3596
 -85.3584
 -85.3644
 -85.4773
 -85.4791
 -85.4066
 -85.4009
 -85.4028
 -85.4042
 -85.3566
 -85.3592
 -85.3594
 -85.4377
 -85.4438
 -85.441
 -85.4425
 -85.3301
 -85.332
 -85.3279
 -85.3354
 -84.6385
 -84.6789
 -84.6702
 -84.6116
 -85.4021
 -85.4028
 -85.4018
 -85.4062
 -85.4485
 -85.4544
 -85.4492
 -85.4419
 -85.441
 -85.4423
 -85.4396
 -85.3112
 -85.3031
 -85.3023
 -85.2993
 -85.3247
 -85.3285
 -85.2751
 -85.2827
 -85.2717
 -85.4761
 -85.4738
 -85.4461
 -85.4423
 -85.4461
 -85.4423
 -85.388
 -85.3934
 -85.3918
 -85.4355
 -85.4316
 -85.4388
 -85.4379
 -85.3143
 -85.3018
 -85.3041
 -85.3102
 -85.3785
 -85.3777
 -85.3827
 -85.3836
 -85.3779
 -85.381
 -85.3823
 -85.3784
 -85.2981
 -85.3009
 -85.2934
 -85.326
 -85.3213
 -85.3254
 -85.3239
 -85.4841
 -85.4854
 -85.4846
 -85.4863
 -85.2303
 -85.2132
 -85.4601
 -85.4623
 -85.4618
 -85.46
 -85.3661
 -85.3711
 -85.3689
 -85.366
 -85.3955
 -85.3984
 -85.3982
 -85.3992
 -85.2757
 -85.2793
 -85.3827
 -85.3794
 -85.3793
 -85.376
 -85.3604
 -85.3582
 -85.3566
 -85.3623
 -85.4489
 -85.4487
 -85.4475
 -85.4496
 -85.3709
 -85.3755
 -85.3756
 -85.3699
 -85.3288
 -85.3297
 -85.4113
 -85.4114
 -85.409
 -85.412
 -85.4279
 -85.4271
 -85.43
 -85.3884
 -85.3931
 -85.3913
 -85.3941
 -85.297
 -85.3014
 -85.295
 -85.3044
 -84.6591
 -84.7265
 -84.7134
 -84.6454
 -85.3751
 -85.3729
 -85.3779
 -85.3822
 -85.3985
 -85.4033
 -85.3989
 -85.3992
 -85.355
 -85.358
 -85.3522
 -85.3534
 -85.3246
 -85.3214
 -85.3268
 -85.3294
 -85.4502
 -85.4526
 -85.4107
 -85.4086
 -85.4065
 -85.0616
 -85.0479
 -85.032
 -85.0716
 -85.3081
 -85.3028
 -85.3096
 -85.299
 -85.3906
 -85.3913
 -85.3896
 -85.3871
 -85.4504
 -85.4515
 -85.4512
 -85.3661
 -85.3633
 -85.3577
 -85.3578
 -85.3238
 -85.3311
 -85.3282
 -85.3236
 -85.4316
 -85.4268
 -85.4268
 -85.4292
 -85.4041
 -85.4029
 -85.4011
 -85.4013
 -85.4405
 -85.4411
 -85.4406
 -85.4387
 -85.439
 -85.4396
 -85.4388
 -85.3499
 -85.3519
 -85.3465
 -85.3452
 -85.3718
 -85.3688
 -85.3734
 -84.8105
 -84.8238
 -84.8269
 -84.7905
 -85.33
 -85.3306
 -85.2209
 -85.2131
 -85.2271
 -85.2359
 -85.3014
 -85.2802
 -85.4557
 -85.3308
 -85.3253
 -85.3289
 -85.323
 -85.4803
 -85.4102
 -85.4076
 -85.4098
 -85.405
 -85.3277
 -85.3312
 -85.3288
 -85.3514
 -85.3566
 -85.3565
 -85.4438
 -85.4446
 -85.4403
 -85.4442
 -85.4455
 -85.4437
 -85.4459
 -85.4434
 -85.2883
 -85.2785
 -85.2788
 -85.285
 -85.4681
 -85.4682
 -85.4701
 -85.4665
 -85.3792
 -85.3754
 -85.3705
 -85.4442
 -85.446
 -85.4455
 -85.3948
 -85.3907
 -85.3922
 -85.3956
 -85.3308
 -85.334
 -85.3278
 -85.3291
 -85.3991
 -85.405
 -85.3987
 -85.339
 -85.342
 -85.3415
 -85.3363
 -85.3658
 -85.3724
 -85.4466
 -85.4492
 -85.4499
 -85.4526
 -85.4559
 -85.4596
 -85.4573
 -85.4566
 -85.2875
 -85.295
 -85.287
 -85.2965
 -85.4277
 -85.4227
 -85.4258
 -85.429
 -85.4072
 -85.4011
 -85.4057
 -85.4095
 -85.358
 -85.353
 -85.3607
 -85.3564
 -85.452
 -85.4501
 -85.4493
 -85.4473
 -85.3681
 -85.3626
 -85.3712
 -85.368
 -85.3806
 -85.3782
 -85.3779
 -85.3848
 -85.3647
 -85.3614
 -85.3657
 -85.3664
 -85.3077
 -85.3155
 -85.2813
 -85.2869
 -85.2916
 -85.2818
 -85.1945
 -85.1732
 -85.1944
 -85.1989
 -85.4086
 -85.4081
 -85.4065
 -85.4115
 -85.3994
 -85.3962
 -85.3951
 -85.4718
 -85.4722
 -85.4723
 -85.4721
 -85.4751
 -85.4768
 -85.474
 -85.46
 -85.4616
 -85.4575
 -85.3967
 -85.4017
 -85.404
 -85.398
 -85.4215
 -85.4234
 -85.4254
 -85.4192
 -85.4466
 -85.4493
 -85.4477
 -85.4498
 -85.3336
 -85.3279
 -85.3293
 -85.3323
 -85.2416
 -85.2497
 -85.2553
 -85.2553
 -85.4783
 -85.4791
 -85.476
 -85.4805
 -85.3187
 -85.3169
 -85.3129
 -85.3192
 -85.3887
 -85.3882
 -85.3906
 -85.3873
 -85.48
 -85.4799
 -85.4769
 -85.482
 -85.4095
 -85.4052
 -85.411
 -85.4094
 -85.3626
 -85.3606
 -85.3634
 -85.3609
 -85.3242
 -85.3196
 -85.3208
 -85.2782
 -85.2863
 -85.2814
 -85.277
 -85.308
 -85.3066
 -85.3092
 -85.3058
 -85.2863
 -85.2895
 -85.3125
 -85.317
 -85.3043
 -85.4387
 -85.4363
 -85.436
 -85.4354
 -85.4692
 -85.4681
 -85.4684
 -85.4683
 -85.4183
 -85.4165
 -85.4185
 -85.4131
 -85.3676
 -85.4529
 -85.4544
 -85.4541
 -85.4517
 -85.292
 -85.2921
 -85.2915
 -85.291
 -85.4712
 -85.4725
 -85.4709
 -85.474
 -85.3427
 -85.3405
 -85.3477
 -85.4276
 -85.27
 -85.2684
 -85.2607
 -85.3109
 -85.3059
 -85.301
 -85.3128
 -85.3864
 -85.3861
 -85.3793
 -85.3848
 -85.4344
 -85.4342
 -85.4316
 -85.4372
 -85.3678
 -85.4271
 -85.425
 -85.4249
 -85.3712
 -85.371
 -85.3716
 -85.3766
 -85.3402
 -85.3416
 -85.3378
 -85.3372
 -85.352
 -85.3463
 -85.3503
 -85.3521
 -85.4286
 -85.3203
 -85.3219
 -85.3237
 -85.4375
 -85.4351
 -85.4389
 -85.4364
 -85.4517
 -85.4507
 -85.4546
 -85.4494
 -85.4663
 -85.4679
 -85.466
 -85.3369
 -85.3374
 -85.3339
 -85.3369
 -85.2548
 -85.25
 -85.2552
 -85.443
 -85.443
 -85.4498
 -85.4484
 -85.4469
 -85.4467
 -85.3703
 -85.3726
 -85.375
 -85.4736
 -85.4732
 -85.4751
 -85.4731
 -85.4507
 -85.45
 -85.4514
 -85.4521
 -85.4136
 -85.4146
 -85.4165
 -85.4178
 -85.3925
 -85.3939
 -85.3909
 -85.3872
 -85.3246
 -85.3245
 -85.3224
 -85.3264
 -85.449
 -85.4491
 -85.4471
 -85.4513
 -85.3399
 -85.3416
 -85.3342
 -85.3559
 -85.3601
 -85.3615
 -85.3619
 -85.4675
 -85.4665
 -85.4701
 -85.4687
 -85.4249
 -85.4251
 -85.4245
 -85.4225
 -85.4755
 -85.4739
 -85.4715
 -85.4748
 -85.3486
 -85.3518
 -85.3541
 -85.3533
 -85.3902
 -85.3909
 -85.3867
 -85.3945
 -85.458
 -85.4573
 -85.4595
 -85.4584
 -85.3846
 -85.388
 -85.3819
 -85.3832
 -85.4758
 -85.4777
 -85.4759
 -85.3317
 -85.3292
 -85.3294
 -85.3302
 -85.4001
 -85.4001
 -85.3978
 -85.3958
 -85.409
 -85.4124
 -85.4091
 -85.4102
 -85.3779
 -85.3758
 -85.383
 -85.3773
 -85.4517
 -85.4518
 -85.4552
 -85.4525
 -85.3767
 -85.3712
 -85.3746
 -85.3734
 -85.4091
 -85.408
 -85.4078
 -85.4062
 -85.2892
 -85.2892
 -85.2885
 -85.2892
 -85.4429
 -85.4434
 -85.4406
 -85.4388
 -85.2747
 -85.2742
 -85.2743
 -85.3266
 -85.3236
 -85.3236
 -85.327
 -85.2912
 -85.296
 -85.3093
 -85.2977
 -85.4316
 -85.4308
 -85.4331
 -85.4352
 -85.4182
 -85.4229
 -85.4187
 -85.42
 -85.3401
 -85.3345
 -85.3358
 -85.3318
 -85.4828
 -85.4815
 -85.48
 -84.8346
 -84.8231
 -85.4074
 -85.41
 -85.405
 -85.4077
 -85.1113
 -85.0772
 -85.0408
 -85.064
 -85.4177
 -85.419
 -85.423
 -85.4206
 -85.3573
 -85.3435
 -85.3407
 -85.3397
 -85.3363
 -85.4368
 -85.4372
 -85.438
 -85.4396
 -85.46
 -85.4578
 -85.4615
 -85.4591
 -85.2891
 -85.2889
 -85.4261
 -85.4282
 -85.4334
 -85.4278
 -85.3973
 -85.3893
 -85.3987
 -85.3942
 -85.317
 -85.3164
 -85.3135
 -85.3249
 -85.3767
 -85.3716
 -85.3711
 -85.3764
 -85.4464
 -85.4428
 -85.4508
 -85.4706
 -85.4697
 -85.4698
 -85.4696
 -85.4786
 -85.4786
 -85.4796
 -85.3451
 -85.3423
 -85.3429
 -85.3469
 -85.4603
 -85.4587
 -85.4573
 -85.4572
 -85.3017
 -85.298
 -85.2994
 -85.3
 -85.4169
 -85.4146
 -85.4173
 -85.4119
 -85.3981
 -85.4031
 -85.399
 -85.3989
 -85.4698
 -85.47
 -85.4696
 -85.4713
 -85.4229
 -85.4243
 -85.4223
 -85.4198
 -84.9922
 -84.9711
 -84.9747
 -84.9997
 -85.3666
 -85.3579
 -85.3654
 -85.3613
 -85.3426
 -85.3477
 -85.3492
 -85.3408
 -85.4333
 -85.4342
 -85.431
 -85.4293
 -85.3074
 -85.304
 -85.3029
 -85.303
 -85.4051
 -85.4021
 -85.4014
 -85.4062
 -85.3317
 -85.3294
 -85.3261
 -85.2112
 -85.208
 -85.1955
 -85.2042
 -85.4042
 -85.4084
 -85.4026
 -85.4138
 -85.4136
 -85.4118
 -85.3194
 -85.3156
 -85.3116
 -85.2971
 -85.2969
 -85.2993
 -85.3021
 -85.4585
 -84.1029
 -84.1379
 -84.1137
 -84.0605
 -85.4508
 -85.4492
 -85.453
 -85.4505
 -85.2725
 -85.353
 -85.3517
 -85.3516
 -85.3568
 -85.3437
 -85.3392
 -85.351
 -85.3
 -85.3111
 -85.3058
 -85.3038
 -85.0789
 -85.08
 -85.0995
 -85.0546
 -85.2999
 -85.3037
 -85.3025
 -85.3939
 -85.3918
 -85.3915
 -85.3462
 -85.3441
 -85.4853
 -85.4831
 -85.4829
 -85.2922
 -85.2997
 -85.2905
 -85.3467
 -85.3507
 -85.353
 -85.4599
 -85.4627
 -85.4626
 -85.4363
 -85.4365
 -85.4392
 -85.4371
 -85.3182
 -85.3202
 -85.3231
 -85.2701
 -85.2631
 -85.469
 -85.4676
 -85.4706
 -85.4696
 -85.1428
 -85.1462
 -85.1148
 -85.1594
 -85.2863
 -85.284
 -84.6562
 -84.6135
 -84.9495
 -84.9441
 -84.9517
 -85.3513
 -85.356
 -85.3499
 -85.4664
 -85.4637
 -85.4613
 -85.4246
 -85.4243
 -85.4274
 -85.3267
 -85.3241
 -85.3295
 -85.3328
 -85.3277
 -85.4559
 -85.2722
 -85.2719
 -85.2747
 -85.2747
 -85.3458
 -85.355
 -85.3476
 -85.3498
 -85.4331
 -85.4335
 -85.4358
 -85.4229
 -85.4236
 -85.4212
 -85.4222
 -85.3514
 -85.3492
 -85.3546
 -85.3592
 -85.4291
 -85.4297
 -85.4336
 -85.4332
 -85.438
 -85.4358
 -85.4376
 -85.4408
 -85.3799
 -85.427
 -85.4292
 -85.4291
 -85.4307
 -85.4745
 -85.4758
 -85.4742
 -85.4731
 -85.305
 -85.293
 -85.29
 -85.2978
 -85.4698
 -85.4724
 -85.4713
 -85.4708
 -84.5525
 -84.6253
 -84.5621
 -85.4657
 -85.464
 -85.4683
 -85.4674
 -85.3083
 -85.3071
 -85.3004
 -85.3006
 -85.4449
 -85.4416
 -85.4441
 -85.4465
 -85.2918
 -85.2924
 -85.2752
 -85.2791
 -85.4744
 -85.444
 -85.4399
 -85.442
 -85.4387
 -85.4586
 -85.4607
 -85.4603
 -85.2676
 -85.2713
 -85.2665
 -85.2642
 -85.4305
 -85.4281
 -85.4277
 -85.4257
 -85.4042
 -85.4089
 -85.409
 -85.407
 -85.3971
 -85.3993
 -85.3949
 -85.3937
 -85.4823
 -85.48
 -85.3596
 -85.3596
 -85.3588
 -85.3524
 -85.3571
 -85.3594
 -85.3609
 -85.4286
 -85.4256
 -85.4313
 -85.4326
 -85.4247
 -85.4262
 -85.4258
 -85.4292
 -85.4066
 -85.4082
 -85.41
 -85.4052
 -85.3172
 -85.3157
 -85.3349
 -85.3319
 -85.3313
 -85.3481
 -85.3519
 -85.3518
 -85.3523
 -85.2347
 -85.2237
 -85.2314
 -85.229
 -85.3468
 -85.3406
 -85.3365
 -85.0573
 -85.0609
 -85.0795
 -85.3461
 -85.3461
 -85.3413
 -85.3499
 -85.3103
 -85.317
 -85.3059
 -85.3775
 -85.4311
 -85.4287
 -85.4336
 -85.3601
 -85.3596
 -85.3632
 -85.3655
 -85.2857
 -85.2855
 -85.3031
 -85.2951
 -85.3846
 -85.3886
 -85.3894
 -85.3894
 -85.4418
 -85.4396
 -85.4823
 -85.4809
 -85.4798
 -85.4824
 -85.4293
 -85.4299
 -85.4318
 -85.427
 -85.3667
 -85.366
 -85.3654
 -85.3687
 -85.4741
 -85.4745
 -85.4783
 -85.4726
 -85.4733
 -85.474
 -85.4749
 -85.3883
 -85.3838
 -85.3809
 -85.3858
 -85.2948
 -85.2934
 -85.2969
 -85.3589
 -85.3588
 -85.3646
 -85.3587
 -85.2376
 -85.2296
 -85.2445
 -85.2255
 -85.4173
 -85.4177
 -85.4188
 -85.4093
 -85.2907
 -85.2908
 -85.2905
 -85.2917
 -85.3232
 -85.3258
 -85.3273
 -85.3254
 -85.4671
 -85.4639
 -85.4681
 -85.4648
 -85.3854
 -85.3858
 -85.3816
 -85.3861
 -85.345
 -85.3421
 -85.3466
 -85.3423
 -85.436
 -85.436
 -85.4388
 -85.4441
 -85.4422
 -85.4416
 -85.3536
 -85.3598
 -85.3575
 -85.365
 -85.3675
 -85.3708
 -85.3691
 -85.3692
 -85.2937
 -85.2978
 -85.293
 -85.3494
 -85.3457
 -85.3424
 -84.3357
 -84.2786
 -84.3484
 -84.3057
 -85.327
 -85.3285
 -85.26
 -85.2637
 -85.2598
 -85.2486
 -85.3986
 -85.3939
 -85.398
 -85.3929
 -85.0906
 -85.1243
 -85.1311
 -85.1113
 -85.3098
 -85.3088
 -85.3042
 -85.4225
 -85.4232
 -85.4223
 -85.4207
 -85.2997
 -85.3061
 -85.2975
 -85.2683
 -85.2698
 -85.257
 -85.2637
 -85.3419
 -85.3396
 -85.3398
 -85.3459
 -85.4361
 -85.4443
 -84.9601
 -84.9799
 -85.3211
 -85.3173
 -85.3702
 -85.3656
 -85.3677
 -85.3663
 -85.4168
 -85.4203
 -85.4173
 -85.4216
 -85.3763
 -85.377
 -85.3794
 -85.3801
 -85.2442
 -85.225
 -85.2352
 -85.2376
 -85.4016
 -85.3972
 -85.3988
 -85.2954
 -85.2913
 -85.2935
 -85.2927
 -85.4606
 -85.4596
 -85.4624
 -85.4585
 -85.4194
 -85.4196
 -85.4203
 -85.4161
 -85.3024
 -85.3054
 -85.3007
 -85.3659
 -85.3598
 -85.3653
 -85.3674
 -85.2631
 -85.2588
 -85.2624
 -85.2979
 -85.307
 -85.304
 -85.3003
 -85.3072
 -85.3062
 -85.3116
 -85.3078
 -85.3659
 -85.3611
 -85.3606
 -85.3583
 -85.4741
 -85.473
 -85.4717
 -85.4722
 -85.4082
 -85.4129
 -85.4108
 -85.4124
 -85.3606
 -85.354
 -85.3585
 -85.3902
 -85.3883
 -85.3877
 -85.4581
 -85.4538
 -85.4579
 -85.4552
 -85.4085
 -85.4084
 -85.4052
 -85.4107
 -85.3573
 -85.362
 -85.3616
 -85.3631
 -85.2426
 -85.2419
 -85.3019
 -85.2995
 -85.3042
 -85.3041
 -84.7956
 -84.7728
 -84.7069
 -84.7732
 -85.4338
 -85.4342
 -85.4342
 -85.4322
 -85.3094
 -85.3035
 -85.3048
 -85.3043
 -85.3776
 -85.3738
 -85.376
 -85.3705
 -85.2152
 -85.2072
 -85.2106
 -85.2077
 -85.3926
 -85.3911
 -85.3892
 -85.3889
 -85.3647
 -85.4266
 -85.4263
 -85.4221
 -85.4231
 -85.3573
 -85.3506
 -85.3496
 -85.3546
 -85.3503
 -85.354
 -85.3578
 -85.3554
 -85.3361
 -85.3299
 -85.3309
 -85.3296
 -85.2927
 -85.286
 -85.2965
 -85.4461
 -85.4466
 -85.4474
 -85.4412
 -85.3527
 -85.3514
 -85.3513
 -85.3493
 -85.4427
 -85.4438
 -85.4466
 -85.4214
 -85.4181
 -85.4205
 -85.4195
 -85.4375
 -85.4425
 -85.4402
 -85.4433
 -85.2539
 -85.2635
 -85.2514
 -84.0611
 -84.0953
 -84.1032
 -85.4228
 -85.4277
 -85.4266
 -85.393
 -85.4003
 -85.3971
 -85.402
 -85.3445
 -85.3464
 -85.3486
 -85.343
 -85.3606
 -85.3617
 -85.3549
 -85.3565
 -85.005
 -85.0239
 -84.9679
 -85.0308
 -85.3775
 -85.3754
 -85.3746
 -85.3743
 -85.4048
 -85.406
 -85.4083
 -85.4025
 -85.3055
 -85.3076
 -85.3238
 -85.3142
 -85.3189
 -85.3197
 -85.4241
 -85.4213
 -85.4236
 -85.4227
 -85.3082
 -85.3129
 -85.41
 -85.4081
 -85.2512
 -84.2128
 -84.2032
 -84.2188
 -84.2837
 -85.195
 -85.211
 -85.4782
 -85.4809
 -85.4788
 -85.2279
 -85.239
 -85.2493
 -85.2396
 -85.4284
 -85.4274
 -85.3242
 -85.3228
 -85.3236
 -85.3241
 -85.337
 -85.3469
 -85.3439
 -85.4275
 -85.4301
 -85.4282
 -85.4322
 -85.412
 -85.416
 -85.4118
 -85.4139
 -85.4504
 -85.4511
 -85.4545
 -85.362
 -85.357
 -85.3626
 -85.356
 -85.3771
 -85.4506
 -85.4461
 -85.4497
 -85.4489
 -85.2728
 -85.2719
 -85.2736
 -85.2765
 -85.3879
 -85.3831
 -85.3867
 -85.3821
 -85.434
 -85.4294
 -85.4328
 -85.4298
 -84.5515
 -84.5837
 -84.6075
 -84.6334
 -85.3008
 -85.4741
 -85.3492
 -85.3558
 -85.3512
 -85.3462
 -85.3854
 -85.3887
 -85.3833
 -85.3824
 -85.3082
 -85.3
 -85.3044
 -85.3066
 -85.3941
 -85.3923
 -85.3944
 -85.3952
 -85.2981
 -85.2988
 -85.303
 -85.2843
 -85.2887
 -85.2932
 -85.2888
 -85.3581
 -85.3622
 -85.3542
 -85.3584
 -85.4341
 -85.4364
 -85.4299
 -85.4821
 -85.4841
 -85.4823
 -85.4817
 -84.9974
 -84.9765
 -84.9615
 -85.3739
 -85.3745
 -85.3623
 -85.3644
 -85.3592
 -85.3666
 -85.4641
 -85.463
 -85.4637
 -85.4651
 -85.4232
 -85.4203
 -85.4224
 -85.4194
 -85.2908
 -85.3005
 -85.2944
 -85.1726
 -85.3566
 -85.3521
 -85.3533
 -85.3574
 -85.3676
 -85.3699
 -85.3689
 -85.4203
 -85.4185
 -85.4184
 -85.4215
 -85.4367
 -85.4321
 -85.4353
 -85.4333
 -85.3506
 -85.3478
 -85.4255
 -85.425
 -85.4274
 -85.4301
 -85.3973
 -85.396
 -85.3964
 -85.4003
 -85.4717
 -85.4728
 -85.405
 -85.4009
 -85.4054
 -85.4032
 -85.426
 -85.4277
 -85.429
 -85.4298
 -85.4202
 -85.4226
 -85.4198
 -85.4205
 -85.3745
 -85.3764
 -85.3601
 -85.3625
 -85.3582
 -85.3556
 -85.3338
 -85.3291
 -85.332
 -85.3322
 -85.3957
 -85.3986
 -85.3988
 -85.3956
 -85.2875
 -85.2926
 -85.2953
 -85.298
 -85.3078
 -85.3065
 -85.304
 -85.3067
 -84.9002
 -84.9032
 -84.8956
 -84.8557
 -85.3328
 -85.3245
 -85.3899
 -85.3837
 -85.3889
 -85.3861
 -85.3495
 -85.3474
 -85.3522
 -85.3547
 -85.3819
 -85.3847
 -85.3864
 -85.3837
 -85.3639
 -85.3635
 -85.4268
 -85.425
 -85.4782
 -85.4789
 -85.4787
 -85.4797
 -85.2452
 -85.3608
 -85.3607
 -85.3625
 -85.3657
 -85.3829
 -85.3778
 -85.3791
 -85.3789
 -85.3229
 -85.319
 -85.3173
 -85.3124
 -85.4181
 -85.4134
 -85.418
 -85.4137
 -85.3842
 -85.381
 -85.3794
 -85.3839
 -85.2973
 -85.296
 -85.2994
 -85.2909
 -85.2891
 -85.3422
 -85.3499
 -85.3432
 -85.3494
 -85.3433
 -85.3519
 -85.3445
 -85.3414
 -85.2942
 -85.2942
 -85.289
 -85.2936
 -85.3088
 -85.3116
 -85.3199
 -85.3169
 -85.3622
 -85.3664
 -85.3585
 -85.3582
 -85.3007
 -85.2983
 -85.2967
 -85.2983
 -85.3916
 -85.3936
 -85.3874
 -85.3294
 -85.3291
 -85.3286
 -85.3272
 -85.1412
 -85.1572
 -85.3895
 -85.3921
 -85.3936
 -85.387
 -85.3925
 -85.3901
 -85.3925
 -85.2691
 -85.274
 -85.2775
 -85.2496
 -85.2537
 -85.2535
 -85.2489
 -85.408
 -85.4076
 -85.4097
 -85.4051
 -85.3854
 -85.3792
 -85.3859
 -85.4415
 -85.4363
 -85.4384
 -85.3697
 -85.3655
 -85.3666
 -85.4502
 -85.4506
 -85.4505
 -84.6976
 -84.6604
 -84.6864
 -84.7018
 -85.4726
 -85.4733
 -85.4722
 -85.4734
 -85.3341
 -85.3299
 -85.3964
 -85.3912
 -85.2855
 -85.2875
 -85.2874
 -85.2934
 -85.4028
 -85.4016
 -85.4065
 -85.4295
 -85.4324
 -85.4321
 -85.4328
 -85.4487
 -85.444
 -85.2755
 -85.276
 -85.2746
 -85.3914
 -85.3903
 -85.3867
 -85.321
 -85.3146
 -85.3207
 -85.2608
 -85.2622
 -85.2577
 -85.2523
 -85.357
 -85.3583
 -85.3537
 -85.3598
 -85.3501
 -85.3443
 -85.3467
 -85.3489
 -85.4145
 -85.4131
 -85.4128
 -85.4171
 -85.4282
 -85.4262
 -85.4276
 -85.4238
 -85.3419
 -85.3399
 -85.3463
 -85.4086
 -85.408
 -85.4055
 -85.4222
 -85.4251
 -85.4225
 -85.423
 -85.4854
 -85.4845
 -85.4859
 -85.3766
 -85.3757
 -85.3754
 -85.4185
 -85.4207
 -85.4157
 -85.3698
 -85.373
 -85.3673
 -85.3284
 -85.3218
 -85.3226
 -85.2761
 -85.281
 -85.2777
 -85.2781
 -85.37
 -85.3706
 -85.3756
 -85.3716
 -85.3153
 -85.312
 -85.3064
 -85.2895
 -85.2954
 -85.4176
 -85.415
 -85.421
 -85.4174
 -85.4177
 -85.4205
 -85.4168
 -85.4137
 -85.295
 -85.3012
 -85.3043
 -85.3067
 -85.2941
 -85.2894
 -85.2911
 -85.2884
 -85.2027
 -85.1962
 -85.2042
 -85.1922
 -85.4619
 -85.4633
 -85.4451
 -85.4413
 -85.4431
 -85.4454
 -85.4712
 -85.3263
 -85.3321
 -85.3246
 -85.3803
 -85.3822
 -85.3781
 -85.3777
 -85.3004
 -85.299
 -85.3656
 -85.3656
 -85.3684
 -85.2639
 -85.2671
 -85.4399
 -85.4404
 -85.4436
 -85.438
 -85.4518
 -85.4512
 -85.456
 -85.4539
 -85.433
 -85.4342
 -85.4302
 -85.3331
 -85.3372
 -85.3366
 -85.4492
 -85.449
 -85.4502
 -85.4512
 -85.3166
 -85.3083
 -85.3148
 -85.3176
 -85.436
 -85.4337
 -85.4335
 -85.4359
 -85.315
 -85.306
 -85.304
 -85.3182
 -85.2661
 -85.2707
 -85.261
 -85.4718
 -85.4758
 -85.4736
 -85.4731
 -85.293
 -85.2947
 -85.294
 -85.3566
 -85.3594
 -85.3624
 -85.3591
 -85.4657
 -85.4687
 -85.4671
 -85.3099
 -85.3036
 -85.3074
 -85.3027
 -85.4071
 -85.4596
 -85.4612
 -85.4554
 -85.459
 -85.2669
 -85.2686
 -85.2718
 -85.2688
 -85.4206
 -85.4146
 -85.4188
 -85.4208
 -85.3784
 -85.3801
 -85.3729
 -85.2658
 -85.2568
 -85.2669
 -85.2441
 -85.4114
 -85.4111
 -85.4135
 -85.3089
 -85.3072
 -84.7659
 -84.7293
 -84.7984
 -84.8059
 -85.1927
 -85.1588
 -85.1527
 -85.451
 -85.4494
 -85.457
 -85.4526
 -85.4523
 -85.4539
 -85.2312
 -85.2375
 -85.2213
 -85.2385
 -85.3505
 -85.3535
 -85.3535
 -85.3541
 -85.3657
 -85.3592
 -85.36
 -85.3625
 -85.3872
 -85.3857
 -85.3908
 -85.3858
 -85.3909
 -85.3838
 -85.3887
 -85.3854
 -85.4652
 -85.2966
 -85.2948
 -85.297
 -85.2952
 -85.4676
 -85.4663
 -85.4691
 -85.3951
 -85.3905
 -85.3889
 -85.3902
 -85.2736
 -85.2808
 -85.2822
 -85.3826
 -85.3785
 -85.3818
 -85.3781
 -85.3713
 -85.4136
 -85.415
 -85.4189
 -85.4176
 -85.3226
 -85.323
 -85.3224
 -85.3726
 -85.3808
 -85.3785
 -85.4681
 -85.4667
 -85.4643
 -85.4666
 -85.3669
 -85.3643
 -85.3637
 -84.6157
 -84.6513
 -84.5707
 -85.367
 -85.3636
 -85.3661
 -85.3593
 -85.4162
 -85.4197
 -85.419
 -85.3764
 -85.3762
 -85.4502
 -85.4512
 -85.4485
 -85.4487
 -85.4333
 -85.4361
 -85.4341
 -85.4341
 -85.4748
 -85.4742
 -85.4725
 -85.4715
 -85.3894
 -85.3812
 -85.3871
 -85.3893
 -85.4249
 -85.4241
 -85.4225
 -85.4205
 -85.4503
 -85.4525
 -85.4542
 -85.3166
 -85.3199
 -85.3113
 -85.3141
 -85.3605
 -85.3656
 -85.3406
 -85.3372
 -85.342
 -85.3395
 -85.4168
 -85.4156
 -85.4164
 -85.4184
 -85.367
 -85.3718
 -85.3696
 -85.3661
 -85.415
 -85.4132
 -85.4185
 -85.4141
 -85.3748
 -85.3766
 -85.3791
 -85.3803
 -85.3714
 -85.367
 -85.3681
 -85.4462
 -85.444
 -85.4462
 -85.4621
 -85.4612
 -85.4606
 -85.4654
 -85.4558
 -85.4553
 -85.4576
 -85.4264
 -85.4304
 -85.4268
 -84.9542
 -84.92
 -84.9073
 -85.3603
 -85.3664
 -85.3616
 -85.444
 -85.4457
 -85.4444
 -85.4437
 -85.3599
 -85.3622
 -85.3594
 -85.3901
 -85.3929
 -85.3912
 -85.3883
 -85.4063
 -85.3974
 -85.4008
 -85.3998
 -85.3715
 -85.3749
 -85.3747
 -85.3782
 -85.304
 -85.3082
 -85.3046
 -85.3027
 -85.3619
 -85.3905
 -85.3905
 -85.393
 -85.3849
 -85.2918
 -85.293
 -85.2937
 -85.2934
 -85.2698
 -85.2757
 -85.2712
 -85.2745
 -85.2934
 -85.2933
 -85.295
 -85.2891
 -85.4087
 -85.4088
 -85.413
 -85.4152
 -85.3155
 -85.3115
 -85.314
 -85.3157
 -85.4741
 -85.4715
 -85.4738
 -85.4717
 -85.1497
 -85.1567
 -85.1714
 -85.1666
 -85.3043
 -85.3047
 -85.3036
 -85.2603
 -85.2564
 -85.2547
 -85.2547
 -85.2809
 -85.2768
 -85.2854
 -85.2969
 -85.2977
 -85.3794
 -85.3786
 -85.381
 -85.3882
 -85.4629
 -85.4601
 -85.459
 -85.4619
 -85.4614
 -85.463
 -85.4605
 -85.3025
 -85.2992
 -85.4702
 -85.4726
 -85.4696
 -85.4469
 -85.4462
 -85.4467
 -85.4497
 -85.2818
 -85.2791
 -85.2814
 -85.4737
 -85.4744
 -85.4726
 -85.4753
 -85.3351
 -85.3369
 -85.3407
 -85.3322
 -85.296
 -85.2873
 -85.29
 -85.2962
 -85.2591
 -85.2686
 -85.2646
 -85.2628
 -85.0834
 -85.0831
 -85.0704
 -85.0685
 -85.3999
 -85.407
 -85.4041
 -85.4057
 -85.3418
 -85.3426
 -85.3401
 -85.3339
 -85.4719
 -85.4697
 -85.4719
 -84.4804
 -84.5657
 -84.5209
 -84.5911
 -85.1951
 -85.2119
 -85.2005
 -85.2159
 -85.472
 -85.4751
 -85.4736
 -85.4732
 -85.3753
 -85.3757
 -85.3802
 -85.4546
 -85.4585
 -85.4594
 -85.2909
 -85.289
 -85.2789
 -85.4724
 -85.471
 -85.4702
 -85.4716
 -85.4463
 -85.4446
 -85.4438
 -85.4411
 -85.3217
 -85.3252
 -85.3293
 -85.3243
 -85.3419
 -85.3362
 -85.3406
 -85.3336
 -85.4348
 -85.4349
 -85.4351
 -85.4389
 -85.3858
 -85.3836
 -85.3802
 -85.3824
 -85.1016
 -85.1246
 -85.1314
 -85.115
 -85.4502
 -85.4442
 -85.4481
 -85.4462
 -85.4756
 -85.3772
 -85.3785
 -85.3818
 -85.3815
 -85.4598
 -85.4618
 -85.4607
 -85.464
 -85.2936
 -85.2937
 -85.2942
 -85.2946
 -85.4697
 -85.4715
 -85.4685
 -85.4674
 -85.3686
 -85.3669
 -85.3446
 -85.342
 -85.3465
 -85.3475
 -85.431
 -85.427
 -85.427
 -85.4271
 -85.3906
 -85.3952
 -85.3936
 -85.3407
 -85.3398
 -85.3419
 -85.4335
 -85.4325
 -85.429
 -85.4296
 -85.4232
 -85.4212
 -85.425
 -85.4218
 -85.3007
 -85.298
 -85.2961
 -85.3714
 -85.3812
 -85.3819
 -85.3754
 -85.1738
 -85.1471
 -85.169
 -85.1443
 -85.1218
 -85.4725
 -85.4668
 -85.4725
 -85.4689
 -85.3795
 -85.3771
 -85.3748
 -85.3796
 -85.4536
 -85.4556
 -85.3587
 -85.3508
 -85.3521
 -85.3182
 -85.3133
 -85.3209
 -85.3194
 -85.4704
 -85.4693
 -85.4718
 -85.4715
 -85.2992
 -85.3002
 -85.2999
 -85.3228
 -85.3214
 -85.3258
 -85.3218
 -85.339
 -85.3459
 -85.3404
 -85.3335
 -85.415
 -85.4215
 -85.4166
 -85.4189
 -85.3122
 -85.3192
 -85.3156
 -85.3144
 -85.4285
 -85.4022
 -85.407
 -85.4084
 -85.4008
 -85.4613
 -85.4622
 -85.4588
 -85.4672
 -85.4662
 -85.4659
 -85.464
 -85.4053
 -85.408
 -85.4032
 -85.4057
 -85.4788
 -85.4785
 -85.4783
 -85.4757
 -85.3411
 -85.3934
 -85.3871
 -85.3875
 -85.3919
 -85.38
 -85.3725
 -85.3766
 -85.3773
 -85.0845
 -85.1118
 -85.1206
 -85.0916
 -85.364
 -85.3654
 -85.3671
 -85.3612
 -85.3576
 -85.3577
 -85.3593
 -85.3625
 -85.3618
 -85.3623
 -85.3669
 -85.4541
 -85.4516
 -85.4504
 -85.3572
 -85.3506
 -85.3526
 -85.3542
 -85.4498
 -85.4542
 -85.452
 -85.372
 -85.3679
 -85.3849
 -85.388
 -85.3866
 -85.3825
 -85.3809
 -85.3822
 -85.3777
 -85.3787
 -85.3846
 -85.3826
 -85.4579
 -85.4592
 -85.4592
 -85.341
 -85.466
 -85.3898
 -85.3929
 -85.3889
 -85.385
 -85.27
 -85.2672
 -85.2593
 -85.2919
 -85.2992
 -85.3044
 -85.3831
 -85.3851
 -85.3797
 -85.3684
 -85.3682
 -85.3703
 -85.3731
 -85.3805
 -85.3764
 -85.3834
 -85.3772
 -84.5867
 -84.6057
 -84.537
 -85.4334
 -85.4298
 -85.4326
 -85.3696
 -85.3707
 -85.4421
 -85.4375
 -85.4391
 -85.4372
 -85.396
 -85.3997
 -85.3957
 -85.0758
 -85.1013
 -85.0633
 -85.0732
 -85.3552
 -85.3497
 -85.3552
 -85.3485
 -85.3071
 -85.305
 -85.3026
 -85.3014
 -85.4139
 -85.4084
 -85.4119
 -85.4138
 -85.3318
 -85.3254
 -85.331
 -85.3227
 -85.1691
 -85.1664
 -85.1697
 -85.3395
 -85.3377
 -85.3349
 -85.3365
 -85.4141
 -85.4186
 -85.4167
 -85.4175
 -85.375
 -85.3803
 -85.3806
 -85.3779
 -85.3167
 -85.3145
 -85.3176
 -85.3517
 -85.3475
 -85.3491
 -85.3488
 -85.2999
 -85.2926
 -85.3003
 -85.2947
 -85.246
 -85.2576
 -85.2491
 -85.2397
 -85.4705
 -85.4717
 -85.4706
 -85.4715
 -85.3006
 -85.3045
 -85.3034
 -85.3046
 -85.3132
 -85.3094
 -85.3142
 -85.3145
 -85.4077
 -85.4122
 -85.4113
 -85.4141
 -85.3305
 -85.3304
 -85.3363
 -85.3325
 -85.484
 -85.4845
 -85.4844
 -85.485
 -85.3623
 -85.36
 -85.3644
 -85.2813
 -85.2768
 -85.2781
 -85.2846
 -85.2985
 -85.2965
 -85.2978
 -85.2963
 -85.2915
 -85.2789
 -85.4228
 -85.4186
 -85.4223
 -85.4175
 -85.4832
 -85.482
 -85.4828
 -85.4824
 -85.3486
 -85.3437
 -85.3461
 -85.3432
 -85.3051
 -85.3027
 -85.3022
 -85.4126
 -85.4083
 -85.4087
 -85.4116
 -85.3598
 -85.3601
 -85.3605
 -85.3661
 -85.3173
 -85.3187
 -85.3167
 -85.3215
 -85.2753
 -85.2841
 -85.2791
 -85.4361
 -85.44
 -85.4417
 -85.4369
 -85.4482
 -85.4475
 -85.4448
 -85.3478
 -85.3454
 -85.3497
 -85.354
 -85.3529
 -85.3513
 -85.357
 -85.3126
 -85.3202
 -85.3239
 -85.3199
 -85.4109
 -85.4089
 -85.4064
 -85.2922
 -85.2912
 -85.2857
 -85.3769
 -85.3816
 -85.38
 -85.4481
 -85.4441
 -85.447
 -85.4182
 -85.4175
 -85.3381
 -85.3415
 -85.3364
 -85.3407
 -85.3428
 -85.3404
 -85.3682
 -85.3623
 -85.3156
 -85.2686
 -85.2692
 -85.2639
 -85.4515
 -85.451
 -85.4458
 -85.3477
 -85.3524
 -85.3508
 -85.3473
 -85.3241
 -85.3748
 -85.3772
 -85.4122
 -85.414
 -85.411
 -85.4151
 -85.3737
 -85.3701
 -85.3751
 -85.3492
 -85.352
 -85.3442
 -85.3492
 -85.3379
 -85.3468
 -85.3565
 -85.3521
 -85.349
 -85.3583
 -85.456
 -85.4529
 -85.4523
 -85.455
 -85.4582
 -85.4601
 -85.4629
 -85.4625
 -85.2929
 -85.2976
 -85.3705
 -85.3714
 -85.3689
 -85.3643
 -85.394
 -85.3951
 -85.3973
 -85.3988
 -85.4053
 -85.4091
 -85.4055
 -85.4044
 -85.3688
 -85.365
 -85.3637
 -85.3689
 -85.3588
 -85.3627
 -85.3599
 -85.3583
 -85.447
 -85.4426
 -85.4472
 -85.4468
 -85.2913
 -85.2984
 -85.3031
 -85.3069
 -85.2998
 -85.3066
 -85.3035
 -85.4341
 -85.4373
 -85.4414
 -85.4432
 -85.3164
 -85.3207
 -85.3186
 -85.3221
 -85.466
 -85.4641
 -85.466
 -85.4653
 -85.4502
 -85.4484
 -85.4498
 -85.4473
 -85.3442
 -85.3469
 -85.3423
 -85.3447
 -85.4192
 -85.4207
 -85.419
 -85.415
 -85.3204
 -85.3231
 -85.3276
 -85.3287
 -85.4335
 -85.4313
 -85.4319
 -85.3006
 -85.3039
 -85.2999
 -85.3019
 -85.4008
 -85.3986
 -85.4015
 -85.4032
 -85.3387
 -85.34
 -85.4278
 -85.4338
 -85.431
 -85.4302
 -85.4359
 -85.435
 -85.4324
 -85.3624
 -85.3689
 -85.3636
 -85.4397
 -85.4399
 -85.4415
 -85.4436
 -85.1819
 -85.1837
 -85.1959
 -85.1948
 -85.3161
 -85.3192
 -85.3223
 -85.3251
 -85.4005
 -85.395
 -85.3957
 -85.4005
 -85.4576
 -85.4586
 -85.4564
 -85.4592
 -85.4496
 -85.4525
 -85.4527
 -85.4505
 -85.4578
 -85.4572
 -85.4582
 -85.457
 -85.4583
 -85.3262
 -85.3296
 -85.3256
 -85.331
 -85.2998
 -85.3013
 -85.2924
 -85.2988
 -85.3275
 -85.3276
 -85.339
 -85.3445
 -85.3405
 -85.3386
 -85.3543
 -85.3538
 -85.3594
 -85.3538
 -85.3096
 -85.3097
 -85.3054
 -85.3799
 -85.3768
 -85.3776
 -85.3758
 -85.4854
 -85.4848
 -85.4832
 -85.3263
 -85.3242
 -85.3272
 -85.3337
 -85.4405
 -85.4357
 -85.4387
 -85.4398
 -85.4149
 -85.4193
 -85.4176
 -85.373
 -85.3702
 -85.3753
 -85.4188
 -85.423
 -85.4192
 -85.4467
 -85.4447
 -85.4154
 -85.4157
 -85.4154
 -85.3208
 -85.3229
 -85.3238
 -85.3181
 -85.4617
 -85.4635
 -85.4619
 -85.4609
 -85.4017
 -85.4057
 -85.4036
 -84.9917
 -84.9433
 -84.9241
 -84.9771
 -85.2626
 -85.2584
 -85.3895
 -85.3399
 -85.3478
 -85.3424
 -85.34
 -85.381
 -85.3862
 -85.3861
 -85.431
 -85.4312
 -85.4285
 -85.4315
 -85.4685
 -85.4694
 -85.3732
 -85.3718
 -85.372
 -85.3685
 -85.2474
 -85.233
 -85.2343
 -85.2413
 -85.4514
 -85.4531
 -85.453
 -85.4516
 -85.399
 -85.401
 -85.3981
 -84.6308
 -84.5829
 -84.5572
 -84.5648
 -85.3008
 -85.2995
 -85.2962
 -85.3276
 -85.3324
 -85.3234
 -85.3287
 -85.3994
 -85.4002
 -85.3983
 -85.4034
 -85.3728
 -85.3763
 -85.2901
 -85.2912
 -85.2909
 -85.291
 -85.4025
 -85.4069
 -85.3302
 -85.3212
 -85.3237
 -85.3266
 -85.3488
 -85.3509
 -85.3449
 -85.3493
 -85.3749
 -85.38
 -85.3812
 -85.3774
 -85.32
 -85.3165
 -85.3093
 -85.4135
 -85.4087
 -85.414
 -85.4094
 -85.4356
 -85.4389
 -85.442
 -85.4364
 -85.4309
 -85.4313
 -85.4319
 -85.4346
 -85.2309
 -85.2214
 -85.2237
 -85.2135
 -85.3786
 -85.3751
 -84.8743
 -84.8478
 -84.8377
 -84.8097
 -85.3485
 -85.3438
 -85.3409
 -85.4696
 -84.3138
 -84.3503
 -84.3597
 -84.241
 -85.3652
 -85.3674
 -85.3646
 -85.3648
 -85.3375
 -85.3427
 -85.3385
 -85.433
 -85.4362
 -85.4364
 -85.4326
 -85.4347
 -85.4333
 -85.4376
 -85.4376
 -85.4302
 -85.4321
 -85.4289
 -85.4273
 -85.3235
 -85.3279
 -85.3211
 -85.3273
 -85.2894
 -85.2869
 -85.2806
 -85.2825
 -85.4049
 -85.4055
 -85.4096
 -85.405
 -85.3501
 -85.3424
 -85.3534
 -85.3488
 -85.4821
 -85.4585
 -85.4591
 -85.3959
 -85.396
 -85.3525
 -85.3485
 -85.3497
 -85.4612
 -85.4654
 -85.463
 -85.4619
 -85.3616
 -85.3595
 -85.3963
 -85.3928
 -85.0677
 -85.1004
 -85.0713
 -85.1032
 -85.3228
 -85.3204
 -85.3166
 -85.3187
 -85.4009
 -85.4063
 -85.4021
 -85.4047
 -85.1101
 -85.0937
 -85.1111
 -85.1176
 -85.4755
 -85.4745
 -85.4771
 -85.4753
 -85.459
 -85.4557
 -85.4673
 -85.4653
 -85.4627
 -85.4678
 -85.4375
 -85.4403
 -85.3405
 -85.3425
 -85.338
 -84.3739
 -84.4477
 -84.3529
 -84.3773
 -85.1489
 -85.1622
 -85.1653
 -85.1533
 -85.4608
 -85.463
 -85.4608
 -85.4595
 -85.4203
 -85.4256
 -85.4225
 -85.3843
 -85.3795
 -85.3765
 -85.3812
 -85.3283
 -85.337
 -85.3296
 -85.3278
 -85.4469
 -85.4499
 -85.4488
 -85.4622
 -85.377
 -85.3832
 -85.317
 -85.3193
 -85.4144
 -85.4195
 -85.4136
 -85.4152
 -85.2896
 -85.2815
 -85.2923
 -85.2812
 -85.2914
 -85.2855
 -85.2878
 -84.5369
 -84.6203
 -84.5872
 -84.5918
 -85.3256
 -85.3293
 -85.3292
 -85.334
 -85.4492
 -85.4498
 -85.4425
 -85.4451
 -85.4443
 -85.4451
 -85.3186
 -85.3179
 -85.3231
 -85.3159
 -85.4309
 -85.4288
 -85.4322
 -85.4164
 -85.4168
 -85.4175
 -85.414
 -85.4438
 -85.4453
 -85.4418
 -85.4463
 -85.3306
 -85.3361
 -85.3341
 -85.3311
 -85.4676
 -85.4637
 -85.3585
 -85.0141
 -85.0363
 -85.0458
 -85.065
 -85.4294
 -85.429
 -85.4317
 -85.1624
 -85.1468
 -85.1438
 -85.1401
 -85.4134
 -85.4128
 -85.4125
 -85.4163
 -85.2832
 -85.2829
 -85.2767
 -85.2844
 -85.3102
 -85.3085
 -85.3129
 -85.3134
 -85.4082
 -85.411
 -85.4109
 -85.3413
 -85.3429
 -85.3405
 -85.3369
 -85.4044
 -85.403
 -85.4058
 -85.3996
 -85.391
 -85.3886
 -85.4383
 -85.4395
 -85.4392
 -85.4163
 -85.4169
 -85.413
 -85.0336
 -85.0399
 -85.0673
 -85.0416
 -85.2937
 -85.299
 -85.2908
 -85.301
 -85.4478
 -85.4431
 -85.4435
 -85.4432
 -85.4405
 -85.4397
 -85.3107
 -85.3227
 -85.3118
 -85.4171
 -85.413
 -85.4145
 -85.4122
 -85.4157
 -85.4151
 -85.4133
 -85.3263
 -85.3236
 -85.3271
 -85.3278
 -85.4621
 -85.4625
 -85.3428
 -85.341
 -85.3427
 -85.3466
 -85.3214
 -85.322
 -85.3242
 -85.4211
 -85.4223
 -85.3706
 -85.3676
 -85.3715
 -85.3747
 -85.2945
 -85.2931
 -85.407
 -85.4065
 -85.3449
 -85.336
 -85.337
 -85.3418
 -85.3806
 -85.3807
 -85.3773
 -85.3842
 -85.3803
 -85.3776
 -85.3806
 -85.2024
 -85.1983
 -85.1953
 -85.2204
 -85.1394
 -85.1431
 -85.1553
 -85.1582
 -85.4156
 -85.4119
 -85.4083
 -85.4116
 -85.4509
 -85.4515
 -85.4491
 -85.4488
 -85.3904
