 32.0187
 32.1945
 32.2327
 32.3854
 31.809
 31.8486
 31.7181
 31.6704
 32.4504
 32.4978
 32.4316
 32.518
 32.3306
 32.336
 32.5084
 32.4553
 31.291
 31.1389
 31.3279
 31.3429
 31.3308
 31.3969
 31.2614
 31.3709
 30.8407
 30.4669
 30.6301
 30.7705
 30.6004
 30.7777
 30.8079
 30.5361
 31.268
 31.3228
 31.4215
 31.2998
 31.3548
 31.3476
 31.3785
 31.2416
 29.2986
 29.0208
 29.4248
 29.5135
 32.1934
 32.2018
 32.2563
 32.2028
 32.4688
 32.5064
 32.4371
 32.5333
 32.063
 32.134
 32.1989
 32.127
 32.5968
 32.5863
 32.5703
 32.5467
 31.6796
 31.5587
 31.7998
 31.5855
 31.6897
 31.6162
 31.688
 31.5786
 32.0526
 32.0983
 32.0386
 32.0993
 32.7939
 32.8021
 32.8048
 32.7904
 31.5083
 31.5555
 31.4909
 31.3805
 30.818
 30.4921
 30.9365
 30.6145
 31.016
 31.0357
 30.9026
 30.871
 25.3427
 24.9699
 24.9671
 25.4564
 32.2054
 32.1114
 32.1823
 32.224
 32.8408
 32.8303
 32.6801
 32.7336
 32.5794
 32.6026
 32.6184
 32.6423
 32.7236
 32.764
 32.7435
 32.7049
 31.5871
 31.3716
 31.5298
 31.5594
 32.293
 32.2907
 32.2288
 32.2394
 32.1363
 32.1567
 32.165
 32.2535
 32.6767
 32.557
 32.6998
 32.6705
 32.3717
 32.3722
 32.4177
 32.366
 32.3455
 32.4159
 32.3587
 32.4153
 31.7554
 31.7971
 31.7965
 31.7969
 32.4664
 32.3819
 32.4793
 32.3206
 31.9764
 31.9681
 32.0144
 32.0195
 32.5763
 32.645
 32.6236
 32.5618
 30.1114
 30.3099
 30.3197
 30.3999
 32.1576
 32.1318
 31.9928
 32.021
 30.7211
 30.8312
 30.7202
 30.8592
 32.6264
 32.6556
 32.6312
 32.6879
 32.131
 32.0602
 32.0868
 32.1641
 30.6287
 30.6453
 30.8631
 30.3668
 32.416
 32.4691
 32.4509
 32.3626
 31.1508
 31.19
 31.1086
 31.1606
 32.195
 32.2491
 32.2538
 32.2294
 32.3028
 32.1897
 32.2219
 32.1853
 32.0376
 32.1003
 31.9385
 31.7735
 32.5393
 32.4713
 32.4403
 32.4248
 32.7468
 32.7575
 32.7758
 32.7614
 31.6982
 31.6815
 31.6128
 31.6426
 32.3732
 32.4473
 32.4048
 32.388
 32.8148
 32.7411
 32.7171
 32.6839
 32.7322
 32.6615
 32.6177
 32.6734
 32.5824
 32.6043
 32.5996
 32.659
 32.2893
 32.3018
 32.2486
 32.3877
 32.0006
 32.0457
 31.964
 31.8798
 32.1222
 32.2058
 32.1686
 32.2855
 32.5207
 32.5343
 32.4148
 32.5917
 32.5735
 32.5549
 32.6129
 32.5785
 26.4939
 26.142
 25.9356
 26.3041
 32.4437
 32.3736
 32.2855
 32.4344
 32.8446
 32.7251
 32.8003
 32.8053
 32.6217
 32.629
 32.7462
 32.6132
 32.8002
 32.8391
 32.7308
 32.7538
 31.0982
 30.9261
 31.0645
 31.1412
 31.5423
 31.4347
 31.3439
 31.5375
 31.2906
 31.2699
 31.1988
 31.1651
 32.8225
 32.7177
 32.8206
 32.7929
 32.4675
 32.4288
 32.4899
 32.3542
 32.0689
 32.0564
 31.9894
 32.0834
 31.2297
 30.4728
 30.8835
 30.9421
 30.8582
 30.7528
 30.4527
 31.0857
 25.3135
 24.9526
 25.4293
 25.2038
 32.4962
 32.3538
 32.4584
 32.3829
 32.3952
 32.5866
 32.589
 32.4736
 31.871
 31.7754
 31.885
 32.0287
 31.1496
 31.0154
 31.0524
 30.9973
 31.6185
 31.5822
 31.3994
 31.6118
 31.9249
 31.7831
 31.7426
 31.8901
 32.2133
 32.3082
 32.1886
 32.0579
 32.586
 32.5254
 32.531
 32.4985
 31.9574
 32.1034
 31.9828
 32.0387
 32.48
 32.4997
 32.5281
 32.4872
 32.4841
 32.4758
 32.4946
 32.4462
 31.7085
 31.4507
 31.7931
 31.5352
 24.1265
 23.8473
 24.3827
 24.5442
 31.2032
 31.424
 31.5117
 31.3252
 32.3093
 32.446
 32.3484
 32.446
 32.362
 32.4664
 32.393
 32.5528
 31.996
 32.1564
 32.1043
 32.0938
 30.6114
 30.6133
 30.7649
 30.8961
 30.8574
 30.9011
 31.0034
 30.8283
 32.2958
 32.2036
 32.3368
 32.2661
 30.2796
 30.2533
 29.939
 29.9545
 32.6147
 32.6307
 32.5468
 32.7262
 31.7903
 31.9595
 31.6319
 31.7686
 31.8664
 31.7804
 31.7172
 30.4301
 30.4296
 30.3472
 30.2611
 32.2409
 32.3099
 32.3543
 32.2471
 32.8626
 32.8819
 32.8417
 32.8338
 32.4246
 32.3081
 32.4778
 32.7314
 32.6103
 32.6768
 32.6508
 32.6907
 32.6651
 32.6701
 32.6808
 31.6265
 31.8217
 31.7967
 31.5947
 31.4602
 31.544
 31.7689
 31.7629
 31.9367
 31.8794
 31.8081
 31.8468
 32.4783
 32.5493
 32.5326
 32.5141
 32.3358
 32.3781
 32.2701
 32.2831
 30.7594
 30.7003
 30.6095
 30.3868
 31.9176
 32.0102
 32.1394
 32.0397
 32.6767
 32.6777
 32.6754
 32.7251
 31.4906
 31.4202
 31.4529
 31.411
 32.4196
 32.3668
 32.3271
 32.3672
 32.7949
 32.815
 32.8362
 32.797
 25.9171
 25.5751
 25.9786
 26.032
 32.6896
 32.6162
 32.5861
 32.6427
 31.5966
 31.7524
 31.5993
 31.7468
 32.3409
 32.1484
 32.4325
 32.3257
 31.9076
 31.9247
 31.7338
 31.814
 31.3415
 31.1174
 31.2693
 31.3209
 28.8255
 28.8103
 28.8088
 28.9846
 32.2759
 32.1002
 32.1201
 32.0657
 32.5298
 32.5021
 32.4892
 32.5545
 30.4371
 30.3556
 30.4504
 30.648
 31.6488
 31.7575
 31.6402
 31.6246
 31.1111
 30.773
 30.8516
 31.0811
 31.6876
 31.8405
 31.6628
 31.7583
 32.5885
 32.5688
 32.552
 32.618
 32.4774
 32.4589
 32.5003
 32.455
 32.2492
 32.2517
 32.4004
 32.2995
 32.0209
 32.0154
 31.9358
 31.838
 31.0392
 30.894
 30.8658
 30.8712
 32.0801
 32.0627
 32.0724
 32.0659
 30.6737
 30.7778
 30.7201
 30.8839
 32.0563
 32.1571
 32.0042
 32.1166
 27.4365
 27.9629
 27.862
 27.4747
 31.0736
 31.0817
 31.0217
 30.9839
 31.7325
 31.9434
 31.78
 31.6534
 27.3621
 27.1727
 26.9561
 27.3542
 31.9287
 31.97
 32.0185
 31.9886
 31.1735
 31.0616
 31.1326
 31.1859
 32.4323
 32.4618
 32.4306
 32.4997
 32.018
 32.1212
 32.0086
 32.1343
 31.8466
 31.6137
 31.7229
 31.7632
 32.3446
 32.4121
 32.3798
 32.3409
 32.569
 32.4358
 32.4675
 32.4909
 30.7649
 30.9025
 30.6702
 30.693
 29.7778
 29.5692
 29.6814
 29.9855
 32.6355
 32.5836
 32.6156
 32.5906
 32.8523
 32.9491
 32.8942
 32.9563
 32.1388
 32.0961
 32.1387
 32.2939
 31.7202
 31.4892
 31.7363
 31.6768
 32.3819
 32.2743
 32.3124
 32.4319
 31.2853
 31.42
 31.2113
 31.1785
 31.4562
 31.4971
 31.4423
 31.3853
 31.522
 31.6302
 31.5863
 31.5529
 32.184
 32.2042
 32.0773
 32.1674
 31.6762
 31.3636
 31.6242
 31.5152
 31.7248
 31.8897
 31.9225
 31.9353
 32.4829
 32.5878
 32.5181
 32.5718
 32.4179
 32.4786
 32.3652
 32.4494
 32.3443
 32.3804
 32.3143
 32.2445
 32.603
 32.6386
 32.6019
 32.5924
 32.3075
 32.2279
 32.2943
 32.309
 30.1784
 30.242
 30.4723
 30.7154
 22.7461
 22.619
 22.7203
 22.3967
 32.4078
 32.4493
 32.2599
 32.3993
 23.81
 24.3138
 24.1839
 32.1793
 32.089
 32.1375
 31.8863
 31.3842
 31.4591
 31.3946
 31.4636
 32.5774
 32.5742
 32.5465
 32.5076
 31.3754
 31.445
 31.3614
 31.4889
 31.7023
 31.7332
 31.5417
 31.7852
 32.3403
 32.2932
 32.1031
 32.154
 32.6524
 32.7685
 32.7992
 32.6507
 31.0494
 30.9623
 30.9591
 31.1887
 31.9055
 31.9451
 31.9102
 31.8068
 32.2874
 32.4308
 32.3485
 32.256
 32.1357
 32.1329
 32.2321
 32.0698
 31.8173
 31.9382
 31.9227
 31.9199
 27.7212
 27.1335
 27.3242
 27.181
 32.6111
 32.6084
 32.5787
 32.5752
 31.6066
 31.5863
 31.6117
 31.7456
 32.5445
 32.4846
 32.6049
 32.445
 31.577
 31.7007
 31.5858
 31.5663
 32.005
 32.1209
 32.1819
 32.3182
 31.9392
 31.7983
 31.9677
 31.8223
 32.8836
 32.878
 32.8449
 32.8717
 32.7978
 32.7474
 32.7686
 32.741
 31.9263
 32.0014
 32.0491
 31.8785
 30.7678
 30.8493
 30.8448
 30.7816
 30.3784
 30.6438
 30.7993
 30.934
 32.4243
 32.5128
 32.5228
 32.4449
 32.2786
 32.3626
 32.3416
 32.3222
 32.1103
 32.0151
 32.0758
 31.9938
 32.2174
 32.2434
 32.2336
 32.209
 30.8814
 31.3427
 31.4836
 31.0285
 32.1481
 32.138
 32.2701
 32.2432
 32.1411
 32.0868
 32.164
 32.1148
 31.1745
 31.0622
 30.9678
 31.161
 31.5056
 31.8032
 31.4274
 31.6085
 31.3413
 31.1917
 31.2049
 31.3243
 32.6422
 32.7851
 32.8299
 32.7945
 22.8878
 22.9722
 23.1655
 23.0988
 31.5499
 31.5401
 31.4328
 31.5183
 32.4343
 32.3889
 32.4785
 32.5489
 31.7105
 31.6857
 31.7707
 31.761
 32.658
 32.7584
 32.8299
 32.7003
 32.8998
 32.9618
 32.9584
 32.9442
 32.0074
 32.1152
 32.1264
 32.0737
 31.6601
 31.8246
 31.5819
 31.7144
 31.4321
 31.6054
 31.5868
 31.5548
 25.544
 25.2729
 25.3228
 25.2889
 32.5284
 32.5026
 32.4587
 32.4536
 32.7775
 32.7754
 32.6594
 32.7707
 32.5745
 32.7284
 32.5322
 32.5399
 32.5192
 32.6345
 32.6365
 32.5208
 31.1917
 31.15
 31.1084
 31.3324
 31.1569
 31.0026
 31.1514
 31.1761
 32.3811
 32.4093
 32.3001
 32.2761
 26.2178
 26.6839
 25.2419
 24.1461
 32.5298
 32.4952
 32.5457
 32.5663
 32.5281
 32.4913
 32.5484
 32.5035
 32.5341
 32.4991
 32.5676
 32.529
 32
 32.0194
 31.8956
 32.0397
 27.0257
 27.4798
 26.6511
 26.9708
 25.0106
 24.8177
 24.5678
 24.4238
 31.6518
 31.7196
 31.6829
 31.7942
 32.5376
 32.6357
 32.5023
 32.6843
 32.591
 32.5702
 32.6033
 32.5958
 32.1647
 32.1909
 32.2575
 32.2522
 31.2739
 31.4155
 31.493
 31.3453
 31.9008
 31.9799
 31.9273
 31.8612
 32.6616
 32.5605
 32.5773
 32.4682
 32.4229
 32.2547
 32.2397
 32.4399
 30.7735
 30.6474
 31.0625
 30.7292
 32.5645
 32.6348
 32.5235
 32.5574
 31.8196
 31.7814
 31.7896
 31.8441
 32.2943
 32.2093
 32.154
 32.2377
 31.4148
 31.3754
 31.5816
 31.7307
 32.5758
 32.7236
 32.7279
 32.5892
 31.5079
 31.4652
 31.3882
 31.4427
 32.0308
 32.141
 32.0822
 32.0863
 32.5048
 32.4884
 32.4861
 32.4991
 30.4496
 30.5332
 30.4719
 30.6899
 28.4211
 29.3972
 29.3281
 28.8418
 32.4169
 32.5519
 32.5792
 32.5143
 31.3717
 31.1084
 31.3632
 30.767
 31.5957
 31.7208
 31.701
 31.6113
 32.5675
 32.4359
 32.4812
 32.5136
 32.1017
 32.1528
 32.2053
 32.0922
 32.1862
 32.2842
 32.2745
 32.2126
 32.6762
 32.6522
 32.6721
 32.6656
 31.8853
 31.5216
 31.6255
 31.7537
 29.4145
 29.9673
 29.3463
 29.6823
 30.7561
 30.3495
 30.8118
 30.4969
 31.7639
 31.5305
 31.463
 31.5185
 32.9169
 32.9007
 32.8502
 32.966
 32.8746
 32.68
 32.8547
 32.7419
 32.86
 32.9059
 32.922
 32.9782
 32.561
 32.5944
 32.5039
 32.5144
 27.3129
 26.7896
 26.8772
 26.7636
 32.6749
 32.6475
 32.6748
 32.6142
 31.4892
 31.2374
 31.3506
 31.3366
 32.5471
 32.6814
 32.558
 32.62
 31.3542
 31.5489
 31.3969
 31.4723
 32.5698
 32.5653
 32.5313
 32.5964
 30.9749
 30.7597
 30.8557
 30.5511
 32.6142
 32.6259
 32.6563
 32.64
 31.8955
 31.9102
 31.9427
 31.7906
 32.7436
 32.7542
 32.7861
 32.7974
 27.1966
 26.8258
 27.1333
 27.5359
 32.5556
 32.5283
 32.6075
 32.6268
 32.3667
 32.4136
 32.3353
 32.4211
 32.2385
 32.2217
 32.2078
 32.2131
 31.426
 31.6091
 31.47
 31.5355
 32.0677
 32.0453
 32.1502
 32.0907
 32.0743
 32.1717
 32.0857
 32.3252
 31.1866
 31.3848
 31.239
 31.2757
 32.0867
 32.1833
 32.3593
 32.1031
 31.865
 31.8895
 31.7765
 31.9239
 32.5795
 32.5159
 32.5415
 32.4768
 32.9238
 32.9573
 32.8785
 33.0035
 31.6663
 31.8749
 31.8601
 31.6491
 32.7529
 32.704
 32.6609
 32.7124
 31.8619
 31.8766
 31.8235
 31.8303
 23.0359
 23.0757
 23.0877
 22.8568
 30.2629
 30.165
 30.1629
 30.3485
 30.7037
 30.6856
 30.6781
 30.4523
 32.409
 32.4425
 32.3576
 32.5019
 32.5893
 32.5272
 32.5687
 32.5331
 32.5395
 32.5797
 32.5574
 32.6162
 31.0964
 31.1385
 30.9811
 31.1669
 31.5905
 31.4188
 31.4187
 31.771
 32.5473
 32.61
 32.5667
 32.679
 32.7387
 31.8421
 31.9525
 31.9587
 32.0065
 32.5626
 32.4976
 32.4443
 32.5121
 29.7675
 30.0811
 30.181
 29.9983
 32.4393
 32.4023
 32.4725
 32.5216
 32.2334
 32.1861
 32.2785
 32.3904
 31.6636
 31.7865
 31.7501
 31.7314
 32.8322
 32.7543
 32.826
 32.7221
 31.4166
 31.403
 31.4892
 31.4975
 32.2761
 32.232
 32.2798
 32.191
 30.1425
 30.4762
 30.2959
 30.8297
 31.9039
 31.6419
 31.9865
 31.9094
 32.7318
 32.6531
 32.6409
 32.6809
 32.8248
 32.79
 32.7403
 31.1281
 31.0214
 31.0454
 31.2555
 32.4471
 32.5885
 32.4656
 32.5379
 32.334
 32.3231
 32.2306
 32.4487
 32.8123
 32.8301
 32.8043
 32.8484
 31.5254
 31.5301
 31.7022
 31.5594
 32.3548
 32.3285
 32.2337
 32.3478
 31.9375
 32.1169
 32.0017
 31.9359
 32.6315
 32.647
 32.6384
 32.6636
 32.021
 32.0665
 32.1326
 32.094
 31.6788
 31.676
 31.546
 31.62
 32.2495
 32.2356
 32.2931
 32.2798
 22.8767
 23.4353
 23.2652
 23.7547
 30.8517
 30.9071
 30.9433
 30.924
 32.279
 32.3875
 32.3302
 32.2498
 31.6658
 31.5927
 32.0219
 31.7119
 32.6167
 32.6562
 32.6623
 32.6241
 28.3656
 28.469
 28.5302
 28.0931
 31.5801
 31.4552
 31.3333
 31.414
 30.6977
 30.4485
 30.5452
 30.5682
 32.4236
 32.3596
 32.4326
 32.3875
 31.7502
 31.2127
 31.6605
 31.5429
 30.8065
 30.8458
 30.8301
 30.9547
 31.0083
 31.0011
 31.1068
 31.1246
 32.0496
 32.1189
 32.1895
 31.9761
 32.3929
 32.4454
 32.4649
 32.5575
 32.4888
 31.3554
 31.4758
 31.1235
 31.3664
 31.5833
 31.5076
 31.472
 31.7073
 32.3347
 32.259
 32.2519
 32.2346
 30.9567
 31.1907
 31.2509
 30.9349
 32.0886
 32.097
 32.023
 32.126
 32.1667
 32.1165
 32.1104
 32.2488
 32.434
 32.4638
 32.4068
 32.4928
 32.3293
 32.3225
 32.3653
 32.249
 31.868
 31.7607
 31.6445
 31.972
 32.3057
 32.3885
 32.4091
 32.406
 32.6483
 32.6817
 32.6371
 32.6682
 32.5371
 32.4634
 32.4872
 32.4119
 32.013
 32.0683
 31.8932
 31.9421
 32.4161
 32.4146
 32.4469
 32.4303
 32.5449
 32.457
 32.5108
 32.4752
 29.9432
 29.9072
 30.0807
 30.1679
 32.4906
 32.5273
 32.4437
 32.5163
 32.9717
 32.983
 32.8941
 32.9091
 32.649
 32.6843
 32.6742
 32.6788
 32.7203
 32.8114
 32.6726
 32.731
 30.9323
 30.9505
 31.0217
 30.6588
 32.167
 32.2299
 32.1837
 32.1203
 30.9906
 30.7446
 30.7752
 31.2834
 31.1805
 31.1834
 31.0152
 31.1238
 32.0739
 32.1833
 32.0418
 32.0977
 32.1239
 32.0974
 32.0556
 32.1242
 31.6584
 31.7444
 31.744
 31.5947
 32.1874
 32.1781
 32.2601
 32.1876
 28.1189
 27.7974
 27.288
 32.5787
 32.6169
 32.5847
 32.5697
 32.1198
 32.1945
 32.2145
 32.1741
 32.4313
 32.2889
 32.3762
 32.3705
 32.0736
 32.0295
 32.0273
 32.0597
 32.3506
 32.3228
 32.2815
 32.4084
 32.642
 32.679
 32.6791
 32.6375
 32.1678
 32.148
 32.1888
 32.132
 31.1801
 31.0065
 32.4308
 32.4406
 32.5103
 32.5071
 32.6589
 32.6485
 32.6234
 32.6443
 32.6283
 32.6178
 32.6811
 29.1836
 29.1029
 29.5327
 29.456
 31.9474
 31.8828
 31.8757
 32.0178
 32.625
 32.6361
 32.6658
 32.6561
 32.4424
 32.3457
 32.3609
 32.4614
 32.4974
 32.5232
 32.5144
 32.4787
 31.1545
 30.926
 31.2702
 31.0029
 30.2785
 30.9689
 30.4736
 30.5598
 32.5299
 32.5564
 32.478
 32.5102
 30.9289
 30.7842
 31.0064
 31.1078
 32.4816
 32.489
 32.4701
 32.4807
 31.801
 31.8377
 31.9436
 31.9609
 31.0628
 31.2912
 31.3401
 31.1695
 25.8796
 26.283
 25.8715
 26.1281
 32.4663
 32.6098
 32.5567
 32.4213
 32.4644
 32.4943
 32.513
 32.4996
 30.7388
 30.782
 31.0258
 31.0325
 32.6407
 32.6455
 32.6635
 32.6458
 31.7655
 31.8202
 31.7655
 31.7804
 31.8793
 31.9107
 31.8394
 31.9677
 32.8391
 32.7929
 32.8066
 32.8933
 32.8075
 32.7582
 32.7505
 32.7863
 32.2769
 32.2075
 32.1987
 32.1524
 31.9719
 31.945
 31.8998
 32.0118
 31.4569
 31.7079
 31.5943
 31.8077
 32.1246
 32.1938
 32.1864
 32.1744
 32.4164
 32.4266
 32.5489
 32.4391
 30.5294
 30.718
 30.6142
 30.7075
 23.0513
 22.9348
 22.9462
 22.9673
 32.5507
 32.5629
 32.6407
 32.5715
 22.5376
 22.4186
 22.3781
 22.5617
 23.0049
 23.3234
 23.279
 23.0586
 29.6982
 29.9319
 29.844
 29.5763
 32.5473
 32.5713
 32.6348
 32.6242
 32.5549
 32.4536
 32.4687
 32.3957
 32.3706
 32.4776
 32.3948
 32.4866
 32.4684
 32.5145
 32.502
 32.4409
 27.386
 27.0974
 27.2159
 27.3743
 31.4317
 31.3329
 31.5649
 31.4625
 31.3704
 31.2897
 31.3157
 31.2126
 32.3844
 32.4398
 32.4043
 32.3959
 32.4044
 32.4454
 32.4144
 32.4111
 32.3808
 32.3466
 32.4017
 32.2988
 31.8976
 32.1391
 32.1797
 31.9265
 32.4759
 32.7934
 32.889
 32.7985
 32.7953
 31.0424
 31.0409
 30.9035
 30.9814
 32.5667
 32.5904
 32.5999
 32.5891
 31.6517
 31.5596
 31.6403
 31.373
 31.4201
 31.5475
 31.3686
 23.9928
 24.463
 24.0657
 24.5067
 32.8743
 32.8682
 32.8724
 32.8656
 32.6783
 32.4974
 32.6711
 32.5479
 31.2201
 31.2979
 31.4864
 31.6091
 31.7726
 31.8038
 31.6685
 31.8393
 28.8481
 28.2319
 28.5555
 28.7158
 32.6146
 32.5985
 32.5379
 32.4667
 32.9415
 32.9302
 32.8719
 32.9497
 32.3586
 32.077
 32.244
 32.1631
 32.7271
 32.7662
 32.6952
 31.977
 32.0668
 32.0917
 32.1117
 32.1126
 31.8241
 31.7382
 28.7015
 28.5775
 28.5881
 28.7326
 31.9701
 32.0967
 32.0136
 31.9457
 29.4153
 29.0167
 29.3877
 28.8199
 32.2362
 32.0658
 32.1813
 32.1699
 31.9599
 31.9476
 31.9045
 31.8601
 30.5696
 30.4495
 30.4932
 30.476
 28.3635
 27.9664
 28.2913
 28.4831
 32.7289
 32.7498
 32.7377
 32.7934
 31.2943
 31.3764
 31.191
 31.3472
 29.1652
 29.1478
 29.0006
 29.1998
 32.3521
 32.417
 32.409
 32.3408
 25.3546
 24.9496
 25.2068
 25.0154
 32.2727
 32.1571
 32.3165
 32.0847
 32.6015
 32.5558
 32.6191
 32.6335
 32.1934
 32.1972
 32.0685
 32.1057
 31.0904
 31.1999
 31.199
 31.4307
 32.3512
 32.2697
 32.2561
 32.3117
 32.0666
 32.029
 32.2019
 32.1584
 32.3142
 32.361
 32.5127
 32.0843
 32.6135
 32.5987
 32.6754
 32.6887
 32.6196
 32.5934
 32.6414
 32.6243
 32.1112
 32.2539
 32.2376
 32.1191
 31.1016
 30.9969
 31.2369
 31.2771
 32.415
 32.4075
 32.3731
 32.4013
 31.8292
 31.8641
 31.8991
 31.7692
 32.3586
 32.1942
 32.1793
 32.2313
 27.5266
 27.3512
 26.9684
 27.4999
 30.9358
 31.3512
 31.3136
 31.1898
 32.5211
 32.5142
 32.4842
 32.4717
 29.3161
 29.0718
 28.9579
 28.7239
 32.4877
 32.4009
 32.4224
 32.4973
 32.2228
 32.0421
 32.137
 32.0957
 29.2997
 29.8989
 29.4638
 29.2713
 32.5214
 32.5313
 32.5652
 32.5255
 32.0139
 32.0293
 32.0467
 31.9875
 23.2415
 23.5176
 23.5467
 23.2245
 32.3366
 32.3242
 32.3269
 32.3998
 32.6794
 32.6937
 32.6989
 32.6725
 32.4547
 32.4229
 32.4646
 32.3667
 32.0826
 32.0922
 32.1554
 32.6536
 32.6449
 32.6466
 32.6591
 32.384
 32.4645
 32.4384
 32.4202
 32.4531
 32.5355
 32.4526
 32.5219
 32.3994
 32.2292
 32.3991
 32.2973
 31.5864
 31.6355
 31.5972
 31.7468
 31.5086
 31.6564
 31.713
 31.518
 31.2052
 31.1889
 31.1368
 31.1954
 31.7741
 31.9581
 31.7836
 31.6526
 32.9464
 32.9359
 32.9311
 32.9216
 32.8876
 32.8383
 32.9349
 32.9032
 22.6359
 22.5352
 22.6378
 22.591
 32.0497
 31.9952
 32.0694
 32.0703
 32.7919
 32.8662
 32.8
 32.7623
 32.6453
 32.6484
 32.65
 32.6158
 30.8682
 30.8882
 31.0077
 30.9774
 31.8141
 31.9851
 32.0796
 31.8431
 32.0203
 31.9493
 32.1377
 31.8823
 32.3634
 32.2436
 32.3176
 32.3061
 31.1056
 31.1009
 30.9565
 30.9803
 31.4814
 31.4341
 31.639
 31.4617
 32.3975
 32.5152
 32.3919
 32.5302
 32.517
 32.4816
 32.5642
 32.4901
 32.6631
 32.6521
 32.6231
 32.6236
 31.9553
 31.8936
 32.734
 32.7236
 32.6859
 32.7049
 31.972
 32.0234
 32.0134
 31.9839
 32.5355
 32.5831
 32.5792
 32.5673
 31.7006
 31.7699
 31.7978
 31.7107
 32.4336
 32.4497
 32.4554
 32.4627
 32.2688
 32.2604
 32.2291
 32.3234
 31.9233
 32.2191
 32.1122
 32.2619
 32.4554
 32.3599
 32.353
 32.4198
 32.8436
 32.7314
 32.7521
 32.8708
 31.6456
 31.3634
 31.2523
 31.3581
 25.9525
 25.996
 25.8438
 25.5979
 31.5005
 31.5119
 31.5864
 31.5384
 29.3133
 29.2466
 29.5335
 29.1571
 32.3972
 32.393
 32.457
 32.473
 25.9261
 25.9268
 26.3094
 25.8855
 32.6034
 32.557
 32.5775
 32.5776
 31.9179
 31.9276
 31.881
 31.832
 31.7122
 31.7916
 31.5664
 31.6995
 32.5482
 32.543
 32.552
 32.6186
 32.0177
 32.1018
 31.9927
 32.1246
 32.4093
 32.5658
 32.5437
 32.5299
 30.4622
 30.4132
 30.4964
 30.6485
 31.9318
 31.7849
 31.8512
 31.7485
 32.0449
 31.7079
 32.0216
 31.9676
 32.4867
 32.4731
 32.5708
 32.5146
 32.2051
 32.0195
 32.0878
 32.1102
 32.68
 32.658
 32.6331
 32.6248
 32.5226
 32.4528
 32.4914
 32.4751
 31.5688
 31.5324
 31.4452
 31.4234
 32.0996
 32.0262
 32.0713
 32.1099
 32.6401
 32.6279
 32.6624
 32.6531
 32.7627
 32.7827
 32.7864
 32.7915
 32.5314
 32.5646
 32.6113
 32.6587
 30.7848
 30.7357
 30.5523
 31.9727
 31.9833
 31.9196
 31.8958
 25.5967
 25.391
 25.0109
 25.0288
 32.2098
 32.3018
 32.2576
 32.3192
 31.591
 31.3056
 31.472
 31.4754
 31.0518
 30.6925
 30.7248
 30.7071
 31.7188
 31.8232
 31.7451
 31.6318
 32.6322
 32.6465
 32.6832
 32.7019
 32.4922
 32.4807
 32.0628
 32.5321
 32.5606
 32.623
 32.5801
 26.1209
 26.4882
 32.3646
 32.3669
 32.3586
 29.9048
 30.1591
 29.7046
 29.9879
 32.2459
 32.3338
 32.2947
 32.2743
 32.3201
 32.4041
 32.3643
 32.4023
 31.8789
 32.1343
 31.9918
 32.0381
 31.7785
 31.783
 31.6789
 31.7187
 30.1722
 30.5454
 30.209
 30.657
 32.5673
 32.5797
 32.5365
 32.5161
 31.4432
 31.4274
 31.5716
 31.5528
 32.8755
 32.8637
 32.9083
 32.8948
 32.4815
 32.5955
 32.567
 32.5684
 32.8013
 32.8599
 32.8606
 32.8351
 31.0369
 31.2163
 31.0726
 31.2191
 31.2423
 31.1997
 31.2623
 31.3859
 31.414
 31.5061
 31.5543
 31.4164
 32.5194
 32.4669
 32.5439
 32.5456
 32.578
 32.6165
 32.6015
 32.5897
 32.5249
 32.4849
 32.4967
 32.4894
 32.8947
 32.7782
 32.8854
 32.8658
 32.433
 32.4207
 32.4063
 32.5169
 32.0028
 31.9048
 31.9681
 31.8726
 31.872
 31.8301
 31.9081
 31.7245
 32.4952
 32.5071
 32.5396
 32.4733
 32.6235
 32.6401
 32.6095
 32.5996
 31.8688
 31.7024
 31.819
 31.9838
 32.1993
 32.1274
 32.1053
 32.2372
 29.3142
 29.3523
 29.0713
 29.7216
 32.2672
 32.2228
 32.262
 32.2607
 32.7994
 32.7698
 32.8206
 32.7691
 32.7846
 32.8932
 32.7406
 32.9658
 30.8583
 30.6854
 30.4705
 30.3809
 22.3626
 22.2218
 22.4109
 22.3907
 32.1475
 32.2429
 32.1729
 32.1606
 32.1863
 32.217
 32.0983
 32.1509
 31.1223
 30.8576
 31.014
 31.3316
 32.5535
 32.4981
 32.6006
 32.5445
 32.6819
 32.6433
 32.5861
 32.5878
 32.3461
 32.3016
 32.4118
 32.3921
 28.6612
 28.3597
 28.3507
 28.7065
 28.6245
 28.6782
 28.5064
 28.339
 32.0828
 31.9392
 31.9284
 32.0201
 32.4651
 32.5489
 32.7228
 32.6077
 32.2075
 32.205
 32.1691
 32.187
 32.6331
 32.6309
 32.6512
 32.6594
 32.9003
 32.7953
 32.8264
 32.8756
 32.1828
 32.1215
 32.2995
 32.1739
 32.5734
 32.6816
 32.5486
 32.6367
 30.5305
 30.7005
 30.5908
 30.5659
 32.6701
 32.5525
 32.5846
 32.5506
 32.77
 32.8498
 32.8331
 32.7975
 32.8119
 32.8088
 32.7914
 32.8781
 32.6715
 32.6475
 32.6552
 32.6733
 31.2757
 31.2554
 31.328
 31.287
 32.1322
 32.237
 32.1966
 32.716
 32.661
 32.681
 32.6962
 30.8011
 30.7892
 30.9145
 30.6618
 32.492
 32.5349
 32.4829
 32.4936
 31.9394
 32.1061
 32.2101
 32.0877
 31.8629
 31.8897
 31.9601
 31.9972
 32.6944
 32.6092
 32.5959
 32.6713
 32.6391
 32.6805
 32.563
 32.5677
 32.5341
 32.6282
 32.6479
 32.592
 32.81
 32.8514
 32.8265
 32.9055
 32.6898
 32.7771
 32.7611
 32.7352
 31.0678
 31.1813
 31.2294
 31.1072
 32.4401
 32.4966
 32.5036
 32.4283
 32.4882
 32.524
 32.4679
 32.3995
 32.2821
 32.3423
 32.3508
 32.2709
 32.5051
 32.3844
 32.4162
 32.4265
 30.9184
 30.7863
 30.9905
 30.7281
 31.5122
 31.5127
 31.6207
 31.511
 31.7351
 31.5784
 31.766
 31.8264
 31.5645
 31.1016
 31.4432
 31.4568
 32.1871
 32.1308
 32.0685
 32.0641
 32.0017
 32.0601
 32.0712
 32.0063
 32.5276
 32.5935
 32.539
 32.5997
 30.5324
 30.6445
 30.1292
 30.2724
 32.6158
 32.6136
 32.5984
 32.6171
 31.6592
 31.4893
 31.6071
 31.5253
 32.58
 32.6848
 32.6742
 32.706
 32.4488
 32.4281
 32.4153
 32.4582
 32.5956
 32.6083
 32.5287
 32.5699
 32.4971
 32.5145
 32.4249
 32.4037
 31.3505
 31.2961
 31.257
 31.417
 31.4748
 31.1796
 31.174
 31.0149
 31.6578
 31.6206
 31.4655
 31.6084
 31.8321
 31.8047
 31.8876
 31.738
 31.7798
 31.7161
 31.7906
 31.9857
 31.9635
 31.9473
 32.0129
 32.7765
 32.7251
 32.7137
 32.716
 32.3818
 32.3862
 32.4185
 32.3773
 31.7785
 31.8498
 31.621
 31.7042
 32.3776
 32.3275
 32.3383
 32.3028
 32.6742
 32.6548
 32.6398
 32.6934
 32.7013
 32.7787
 32.7127
 32.8104
 32.2886
 32.2348
 32.1951
 32.2037
 30.518
 30.3414
 30.5498
 30.7277
 32.4312
 32.3296
 32.4274
 32.3009
 31.3109
 31.4885
 31.3537
 31.4001
 31.3781
 31.3427
 31.443
 31.7387
 30.4873
 30.3194
 30.3467
 30.4531
 32.6495
 32.6516
 32.6494
 32.6602
 25.8251
 26.1468
 25.7123
 26.3417
 32.9285
 32.9055
 32.908
 32.9284
 32.2686
 32.3617
 32.3835
 32.3907
 31.9717
 32.0266
 32.0069
 30.2918
 30.377
 30.5016
 30.409
 31.7961
 31.9776
 31.7875
 31.9537
 31.4308
 31.328
 31.2296
 31.2275
 32.209
 32.1895
 32.1445
 32.2146
 31.246
 31.1458
 31.1138
 31.1524
 30.7424
 30.7347
 30.6565
 30.462
 32.2278
 32.1384
 32.2151
 32.3834
 32.0938
 32.0616
 32.0975
 32.1393
 32.4118
 32.3706
 32.4352
 32.0722
 32.0938
 32.2057
 32.44
 32.5507
 32.5306
 27.2071
 27.5932
 27.7331
 27.3173
 32.9561
 32.9557
 33.0322
 32.9346
 32.7416
 32.7379
 32.7325
 32.7168
 31.7341
 31.6833
 31.8041
 31.825
 31.6148
 31.6573
 31.482
 31.6468
 31.4208
 31.1048
 31.0507
 31.4688
 32.8553
 32.7458
 32.8166
 32.6895
 32.4347
 32.4043
 32.3743
 32.4104
 32.6879
 32.6764
 32.6901
 32.6548
 32.5073
 32.5517
 32.581
 32.4638
 32.7521
 32.7298
 32.8184
 32.6592
 31.1203
 31.1635
 31.0486
 31.2534
 31.8704
 31.9144
 31.86
 31.8192
 32.4629
 32.4167
 32.4061
 32.5605
 31.8747
 32.0045
 31.9778
 31.796
 31.5773
 31.6438
 31.6983
 31.5929
 31.8174
 31.8671
 31.8405
 31.8746
 31.6757
 31.5015
 32.4961
 32.4744
 32.5704
 32.5487
 31.6517
 32.0081
 31.7739
 31.7286
 32.1923
 32.0463
 32.1057
 32.0661
 31.7833
 31.958
 31.7716
 31.9102
 32.2366
 32.3489
 32.3215
 32.2852
 32.7392
 32.6744
 32.6896
 32.7169
 31.9649
 31.998
 32.0602
 31.9998
 32.6135
 32.5334
 32.5857
 32.543
 23.7607
 24.3592
 23.8007
 24.0149
 31.6032
 31.6583
 31.5228
 31.6558
 32.1578
 32.2387
 32.2662
 32.4704
 29.9935
 29.7617
 29.7836
 30.1495
 32.6519
 32.6127
 32.6531
 32.5767
 30.628
 30.4158
 30.1208
 30.7835
 32.8958
 32.8384
 32.8281
 32.9083
 32.5141
 32.5467
 32.4319
 32.5612
 32.4744
 32.4587
 32.4748
 32.4792
 31.7669
 31.5677
 31.7782
 32.7295
 32.6798
 32.8979
 32.7937
 23.6183
 23.2931
 23.439
 23.3024
 31.1163
 31.0628
 31.0329
 31.156
 32.7535
 32.7621
 32.7426
 32.7459
 32.4392
 32.5086
 32.6011
 32.5095
 31.3502
 31.5805
 30.9409
 31.2871
 32.2317
 32.3357
 32.265
 32.3869
 32.5531
 32.6127
 32.5216
 32.5857
 31.6994
 31.7374
 31.6331
 31.594
 32.2944
 32.2361
 32.205
 32.2163
 31.1936
 31.2135
 31.1823
 31.2805
 32.3377
 32.3928
 32.3893
 32.3313
 31.1993
 31.2395
 31.3672
 31.2493
 25.3675
 25.7566
 26.088
 25.2542
 32.7232
 32.6935
 32.7732
 32.6215
 32.5416
 32.5679
 32.5467
 32.6074
 32.2502
 32.2895
 32.3034
 32.3876
 23.7913
 23.4406
 23.9896
 23.5862
 32.5823
 32.5787
 32.5915
 32.5487
 31.3302
 31.3633
 31.4166
 31.3813
 32.2147
 32.0882
 32.1284
 32.1544
 31.891
 31.9798
 31.8678
 32.0122
 31.8589
 31.9741
 31.9719
 31.946
 32.1026
 31.9853
 32.0738
 32.0687
 32.6354
 32.6399
 32.6407
 32.6246
 31.7531
 31.8882
 32.0655
 32.1196
 31.9698
 32.6339
 32.8147
 32.7496
 32.6802
 32.6489
 32.614
 32.694
 32.7409
 28.6273
 28.8632
 28.7075
 28.6129
 31.9808
 31.9991
 32.0621
 32.018
 32.2624
 32.2299
 32.1049
 32.1532
 31.3939
 31.7009
 31.6438
 31.9664
 31.9523
 31.9686
 31.8833
 31.9715
 31.9344
 32.0223
 31.8891
 31.6127
 31.2823
 31.5587
 32.527
 32.4473
 32.46
 32.5657
 31.4511
 31.4437
 31.5109
 31.4286
 32.6572
 32.6655
 32.6801
 32.6428
 31.6103
 31.7886
 31.8226
 31.8515
 32.6263
 32.6411
 32.5944
 32.6147
 32.4426
 32.5146
 32.5327
 32.5169
 31.3658
 31.3275
 31.3154
 31.1207
 32.6857
 32.6143
 32.6881
 32.6119
 32.8
 32.7129
 32.6705
 32.8163
 31.6547
 31.5756
 31.3205
 31.4877
 32.4414
 32.3918
 32.5307
 32.4752
 32.6175
 32.619
 32.6196
 32.6771
 32.5916
 32.5794
 32.6043
 32.5947
 29.7226
 29.8193
 30.0137
 30.0358
 32.3243
 32.4104
 32.4153
 32.3189
 32.7064
 32.6237
 32.7218
 32.7463
 32.5078
 32.502
 32.4992
 32.5377
 31.5698
 31.6762
 31.6076
 31.6258
 31.5657
 31.6682
 31.6228
 31.5979
 31.6002
 31.5348
 31.7033
 31.1813
 31.1166
 31.0668
 30.9937
 31.9932
 32.1066
 32.1774
 32.0477
 32.5028
 32.4992
 32.5012
 32.5032
 31.3847
 31.4484
 31.5126
 31.4069
 32.6835
 32.7042
 32.6957
 32.6931
 32.4865
 32.438
 32.4473
 31.9833
 31.8506
 31.9196
 31.9223
 31.8257
 31.9715
 31.9043
 32.6065
 32.5567
 32.5681
 32.5791
 32.6421
 32.5646
 32.5882
 32.6816
 32.4767
 32.5344
 32.558
 32.5582
 31.5858
 31.5052
 31.5889
 31.6328
 32.028
 32.0554
 32.1884
 32.0389
 32.6718
 32.652
 32.6437
 32.6106
 32.7333
 32.6476
 32.6505
 32.729
 32.2634
 32.3883
 32.3506
 32.3792
 32.1776
 32.1291
 32.3958
 32.1464
 31.3436
 31.1968
 31.3661
 31.2087
 32.9666
 32.9726
 32.9574
 32.957
 31.0779
 31.1359
 31.1469
 31.158
 32.0965
 31.8984
 32.1056
 32.0041
 31.3391
 31.6846
 31.4473
 31.5528
 32.5103
 32.5601
 32.4938
 32.5393
 32.1099
 32.0711
 32.0163
 31.0324
 31.2593
 31.1532
 32.5821
 32.6287
 32.5659
 32.5999
 31.6996
 31.7231
 31.3731
 31.6256
 31.6059
 31.3169
 31.4921
 31.5624
 32.3666
 32.377
 32.3785
 31.5893
 31.5186
 31.7897
 31.7813
 31.6533
 31.6314
 32.4944
 32.4273
 32.4242
 32.4095
 29.8836
 30.1077
 29.6294
 30.2663
 26.876
 26.908
 26.4174
 26.9685
 32.2432
 32.0699
 32.2435
 32.1663
 31.8717
 31.8808
 31.805
 31.8502
 32.2133
 32.2869
 32.2857
 32.2844
 30.3681
 30.1856
 30.2217
 30.1512
 32.012
 32.0415
 32.0734
 32.4886
 32.384
 32.3419
 32.2797
 31.9449
 32.0652
 32.1303
 32.1357
 31.9662
 31.9062
 32.1466
 32.092
 31.3446
 31.0584
 31.3626
 31.2232
 31.6149
 31.4931
 31.5873
 31.5412
 31.4902
 31.4002
 31.5916
 32.6791
 32.6723
 32.6745
 32.6503
 32.0237
 31.855
 32.0612
 31.9876
 31.1543
 31.0494
 31.1574
 31.0144
 31.0199
 30.8084
 32.8376
 32.7913
 32.8125
 32.7656
 32.5416
 32.5826
 31.7829
 31.5914
 31.8251
 31.7858
 31.5614
 31.4789
 31.5981
 31.4173
 31.281
 31.3688
 31.2989
 31.151
 32.6015
 32.6105
 32.6002
 29.0517
 29.3394
 29.2336
 32.0429
 32.1827
 32.0444
 32.1291
 32.2595
 32.3364
 32.1857
 32.294
 32.2554
 32.1509
 32.1739
 32.0641
 32.0182
 31.9779
 32.0964
 31.9039
 32.6133
 32.5883
 32.5703
 32.4798
 24.4152
 24.6939
 24.45
 24.1281
 32.2801
 32.3084
 32.1674
 32.1654
 32.4004
 32.4007
 32.346
 32.3277
 31.3189
 31.2166
 30.8447
 31.1965
 31.8983
 31.8033
 31.7909
 31.9146
 23.7703
 23.3454
 23.3164
 23.0386
 31.6262
 31.782
 31.7926
 31.7523
 31.8322
 32.0057
 32.3533
 32.3637
 32.3272
 32.4125
 30.9197
 30.6396
 30.8773
 31.0352
 31.9716
 31.8575
 31.8499
 31.9098
 32.2983
 32.338
 32.3191
 32.2384
 31.0404
 31.0945
 31.0708
 31.9918
 31.9326
 31.7228
 30.6099
 30.9983
 31.0083
 31.6729
 31.5764
 31.6376
 31.6841
 31.9698
 31.9304
 31.9369
 31.8569
 31.926
 31.9125
 30.3814
 30.6269
 30.3748
 30.3835
 32.8115
 32.759
 32.7979
 32.7104
 32.5428
 32.3991
 32.6907
 32.787
 32.7178
 32.6799
 32.3083
 32.2327
 32.2329
 32.2139
 31.2454
 31.1375
 31.3148
 31.2769
 30.6926
 30.5907
 30.6822
 32.1795
 23.4584
 23.6212
 23.5119
 23.3179
 31.8767
 31.7716
 31.7697
 31.9452
 32.1344
 32.1523
 32.3689
 32.3078
 32.1752
 32.2785
 32.2324
 32.1679
 32.119
 32.0654
 32.0135
 32.0757
 32.5143
 28.7476
 28.6887
 28.6993
 28.8133
 32.4046
 32.4682
 32.454
 32.5153
 31.9344
 31.9376
 31.8106
 32.0272
 32.1156
 32.2554
 32.1204
 31.8105
 31.6341
 31.7973
 31.7266
 31.642
 31.7645
 32.0248
 31.9135
 31.5674
 31.5532
 31.5864
 31.4836
 30.2378
 30.2664
 30.2705
 29.9097
 31.6561
 31.5919
 31.5876
 31.5845
 32.6911
 32.6728
 32.6762
 32.6575
 32.3551
 32.3121
 32.2739
 32.2592
 32.4437
 32.4629
 32.471
 32.4656
 31.5664
 31.6958
 32.9077
 32.9492
 32.9435
 32.9355
 29.3047
 29.0239
 29.5865
 29.0592
 30.6998
 30.5291
 30.9122
 30.6015
 32.5138
 32.4905
 32.4254
 32.4581
 32.3089
 32.3085
 32.3082
 32.1987
 32.1024
 32.189
 32.1303
 32.0912
 31.7591
 31.8777
 31.8734
 31.9532
 32.1252
 32.0857
 32.1154
 32.1882
 30.4844
 30.6058
 30.745
 30.3477
 31.6274
 31.5048
 31.5011
 31.8088
 31.0906
 31.1959
 31.2584
 31.2377
 32.7427
 32.6404
 32.7214
 32.5955
 31.6464
 31.7908
 31.6075
 31.7889
 25.3514
 25.35
 25.7763
 25.1732
 31.8741
 31.8129
 31.8986
 31.7378
 31.7987
 31.8218
 31.8453
 31.933
 32.7315
 32.7665
 32.6771
 32.7803
 29.8281
 29.6654
 29.7633
 30.1016
 32.6023
 32.6489
 32.6285
 32.6371
 31.6499
 31.6442
 31.6901
 31.644
 32.5814
 32.6453
 32.6078
 32.6179
 32.9658
 32.8616
 32.9226
 32.9365
 29.7113
 29.9033
 30.1033
 29.5661
 31.5979
 32.3873
 32.3411
 32.4392
 32.315
 32.5429
 32.5179
 32.4819
 32.4069
 32.1209
 32.0629
 32.1116
 31.979
 31.7036
 31.6527
 31.6719
 31.8087
 32.8331
 32.7477
 32.8366
 29.3718
 29.8738
 29.4853
 29.3658
 31.9809
 32.1302
 32.0446
 32.0907
 30.6155
 30.5502
 30.7729
 30.5902
 30.7352
 30.8016
 30.7625
 30.678
 32.0152
 32.0888
 32.0441
 32.0879
 26.742
 27.7931
 27.7055
 27.2457
 29.5136
 29.4695
 29.7316
 29.6345
 31.0956
 31.2048
 31.224
 31.3072
 31.4934
 31.5338
 31.4919
 31.4586
 32.7412
 32.7562
 32.7283
 32.7394
 32.2909
 32.349
 32.448
 32.9198
 32.8595
 32.8773
 32.87
 32.4443
 32.5404
 32.3393
 32.4503
 32.5819
 32.5328
 32.5511
 32.5856
 32.698
 32.6853
 32.6527
 32.6673
 30.952
 31.021
 31.0373
 31.0826
 31.2532
 31.062
 31.5379
 31.252
 29.4942
 28.6411
 28.9397
 32.1788
 32.2344
 32.2931
 32.3815
 32.0593
 31.9552
 31.9727
 32.0146
 32.0462
 32.038
 32.0716
 31.3717
 31.3968
 31.5864
 31.163
 31.7404
 31.7834
 31.6478
 31.8066
 32.6458
 32.6329
 32.6483
 32.6335
 31.7547
 31.5367
 31.7579
 31.85
 32.3996
 32.3612
 32.3889
 32.4101
 32.0438
 32.0243
 32.1065
 32.0538
 32.0564
 32.2884
 31.9643
 32.195
 32.519
 32.4895
 32.563
 32.4817
 32.2396
 32.3407
 32.2836
 31.59
 31.6107
 31.6481
 31.7154
 32.5829
 32.6629
 32.6039
 32.5787
 31.0646
 31.1044
 30.9312
 32.6344
 32.6007
 32.642
 32.6358
 30.1124
 30.3868
 29.8686
 30.0857
 32.8281
 32.7937
 32.7218
 32.7035
 32.84
 32.7631
 32.8484
 32.1882
 32.2693
 32.2833
 32.0812
 30.4462
 30.6063
 30.3885
 30.6169
 31.6819
 31.8642
 31.938
 31.681
 26.2588
 26.6026
 26.8378
 26.9942
 32.3244
 32.2791
 32.2295
 32.2622
 32.3092
 32.1874
 32.442
 32.1488
 31.5233
 31.7217
 31.6769
 31.4915
 30.7947
 31.1898
 30.9736
 30.9614
 32.5382
 32.5399
 32.5175
 32.4579
 31.0546
 31.0126
 31.0625
 31.1309
 31.0304
 31.2006
 31.1151
 31.1117
 32.1584
 32.1096
 32.1067
 32.1524
 31.1425
 31.0193
 31.0423
 31.2154
 31.7157
 31.7226
 31.7272
 31.0114
 31.1813
 31.142
 31.1474
 29.6975
 29.4778
 29.5987
 29.4332
 32.6287
 32.6828
 32.6324
 32.6974
 32.3681
 32.5033
 32.3755
 32.5138
 32.3613
 32.2245
 32.2927
 32.2394
 31.4895
 31.5468
 31.4436
 31.4304
 32.6092
 32.5855
 32.6199
 32.4819
 31.8987
 31.6398
 31.5694
 31.8792
 32.1445
 32.161
 32.1024
 32.2307
 32.1784
 32.3375
 32.2263
 32.1789
 32.2303
 32.2861
 32.3512
 32.7071
 32.672
 32.678
 31.622
 31.739
 31.7995
 31.7253
 32.3928
 32.3855
 32.3655
 32.3461
 32.4638
 32.5124
 32.4912
 32.3957
 32.3333
 32.2346
 32.2693
 32.3844
 31.0132
 31.1214
 31.4811
 31.5267
 31.5442
 31.3824
 29.6318
 29.4472
 29.3726
 29.1027
 32.4622
 32.4269
 32.3824
 32.3743
 32.1932
 32.4213
 32.3602
 32.1498
 22.573
 22.4385
 22.5965
 22.476
 31.7659
 31.6448
 31.5121
 31.6751
 32.3638
 32.4655
 32.3601
 30.6655
 30.662
 31.0684
 30.9263
 31.0902
 31.2421
 31.1094
 31.2462
 32.1102
 32.1053
 32.0827
 32.0638
 32.5387
 32.4684
 32.4746
 32.5288
 30.1828
 30.4284
 29.9847
 30.2582
 24.8763
 24.6533
 24.9982
 25.1965
 31.607
 31.7336
 31.6166
 31.5654
 32.3224
 32.2959
 32.3415
 32.6677
 32.7658
 32.7293
 32.7573
 31.3771
 31.5026
 31.2661
 32.1602
 32.2166
 32.1187
 32.0727
 32.2287
 32.0989
 32.2022
 32.1105
 32.3302
 32.4094
 32.3448
 32.3322
 31.3403
 31.5864
 31.5221
 31.4673
 32.0645
 32.057
 31.9127
 32.2126
 32.2179
 32.2713
 32.2492
 32.1809
 32.2588
 32.5385
 32.6107
 32.6096
 32.6263
 32.4092
 32.4232
 32.3805
 32.3523
 32.066
 32.1849
 32.1353
 31.9612
 31.9226
 31.9693
 31.8606
 31.907
 22.5999
 22.8035
 22.7737
 22.7905
 31.691
 31.8913
 31.7033
 32.2253
 32.1725
 32.1423
 32.1429
 32.4813
 32.4933
 32.5022
 32.498
 32.3518
 32.4346
 32.3612
 32.3357
 29.7502
 29.9853
 29.6833
 29.7153
 31.9461
 32.1277
 32.0151
 32.0473
 32.9407
 32.9589
 32.9409
 32.9017
 31.8203
 31.8304
 31.8517
 31.7455
 32.6792
 32.6666
 32.652
 32.6654
 31.3453
 31.2361
 31.3461
 25.0307
 25.664
 25.3609
 25.4276
 32.3777
 32.2461
 32.3422
 32.3254
 32.4356
 32.4106
 32.4471
 32.4181
 31.4893
 31.1417
 32.1987
 32.218
 32.2501
 32.259
 32.6361
 32.5469
 32.5577
 31.6513
 31.6114
 31.7206
 31.6585
 31.4135
 31.4808
 31.5513
 31.559
 31.1073
 31.1168
 31.2977
 31.0471
 32.6237
 32.6319
 32.1789
 32.3128
 32.2196
 32.1167
 32.121
 32.2257
 32.0675
 32.0509
 29.9172
 29.8575
 29.885
 29.9997
 31.6441
 31.7462
 31.6005
 31.6134
 31.9934
 32.1556
 32.2332
 32.1606
 32.7664
 32.7911
 32.838
 32.729
 32.3718
 32.3524
 32.4155
 32.4575
 32.2285
 32.2494
 32.3278
 32.2587
 23.6987
 23.5167
 23.4374
 23.3517
 30.8054
 31.1533
 31.1312
 32.5543
 32.6319
 32.5871
 32.5909
 32.5621
 32.6559
 32.4696
 31.622
 31.546
 31.6043
 31.4936
 32.4708
 32.1496
 32.1232
 31.9511
 31.9396
 32.5478
 32.5634
 32.612
 32.6105
 31.9839
 32.1065
 32.1114
 31.9779
 32.2205
 32.2324
 31.3226
 31.2985
 31.1183
 31.0638
 32.5286
 32.4439
 32.4494
 32.4923
 30.3066
 30.3148
 30.4469
 30.5036
 32.5368
 32.6836
 32.587
 32.6176
 32.6346
 32.1524
 32.2161
 32.2774
 32.2124
 31.6095
 31.7565
 31.4727
 31.4053
 31.3319
 31.419
 27.6597
 27.1203
 27.3757
 27.5552
 32.1196
 32.1189
 32.2606
 32.1112
 32.8062
 32.8076
 32.7115
 32.6636
 24.3621
 24.3742
 24.473
 24.1698
 32.4983
 32.53
 32.5063
 32.5111
 32.6664
 32.6818
 32.648
 32.6517
 31.6875
 31.4622
 31.659
 31.6182
 31.1603
 31.0215
 31.0057
 30.949
 32.5427
 32.5276
 32.6065
 32.1222
 32.2021
 32.173
 32.1307
 31.3795
 31.2382
 31.3365
 31.3155
 32.2659
 32.2599
 32.119
 32.4666
 32.4529
 32.4839
 32.0002
 32.041
 31.9565
 32.1087
 32.667
 32.6221
 32.5897
 32.5646
 31.3659
 31.4198
 31.2118
 31.351
 32.6296
 32.6312
 31.9005
 32.026
 32.0435
 31.9829
 32.0839
 32.1449
 32.2345
 32.3012
 31.9868
 31.9534
 32.0721
 32.0291
 32.1978
 32.2788
 32.1324
 32.1711
 32.2268
 32.3206
 32.2308
 32.1833
 32.1224
 32.2906
 32.2331
 32.1294
 27.5055
 27.2926
 27.4071
 27.5937
 31.1199
 30.9739
 31.0765
 31.0094
 30.9371
 30.9612
 30.9988
 31.1678
 32.7479
 32.6056
 32.6893
 32.6391
 32.6929
 32.7592
 32.7169
 32.7465
 32.737
 32.8023
 32.6781
 32.472
 32.407
 32.455
 32.324
 32.6622
 32.6684
 32.6511
 32.6538
 32.3972
 32.3564
 32.335
 32.4343
 32.2934
 32.3282
 32.3053
 32.4065
 24.2162
 24.8067
 24.1798
 30.2841
 30.6121
 30.6937
 30.5801
 32.4416
 32.4607
 32.4475
 32.4675
 32.0405
 31.9209
 31.9959
 31.9317
 32.0239
 31.9022
 32.0359
 31.9499
 31.9906
 32.0142
 32.5957
 32.6421
 32.6235
 32.6095
 32.6528
 32.5566
 32.6058
 32.5901
 30.5476
 30.6006
 30.6724
 30.5204
 29.4768
 29.4898
 29.3274
 28.7454
 32.2496
 32.2818
 32.4068
 32.4926
 32.4938
 32.4327
 32.3694
 32.4108
 32.3843
 32.3437
 32.4832
 32.505
 32.4742
 32.4583
 32.5597
 32.5694
 32.6105
 32.5197
 32.5338
 32.4669
 32.4485
 32.4571
 31.1554
 31.277
 31.2317
 31.4275
 30.6262
 30.403
 30.6219
 30.5464
 31.9297
 31.8773
 31.8239
 31.665
 32.6184
 32.6212
 32.5909
 26.7773
 26.515
 26.9669
 31.6529
 31.6402
 31.6033
 31.5514
 31.7716
 31.837
 31.8531
 31.8544
 32.9094
 32.9307
 32.9984
 32.8616
 31.6166
 31.5494
 31.5718
 31.5571
 31.2292
 31.0199
 31.2245
 31.0503
 32.5353
 32.5781
 32.5516
 32.5707
 31.8132
 31.7481
 31.7406
 31.7413
 30.6017
 30.5521
 30.6752
 30.5253
 32.25
 32.2019
 32.2766
 32.1279
 32.5327
 32.6385
 32.5853
 32.6184
 31.9642
 31.9069
 31.9908
 32.0042
 32.4013
 32.4136
 32.3978
 32.4955
 32.4484
 28.425
 28.486
 28.2904
 28.1858
 32.4056
 32.3589
 32.3207
 32.4065
 27.7786
 27.9283
 28.0065
 28.0607
 28.413
 28.2334
 28.848
 28.8416
 32.4108
 32.4299
 32.3868
 32.4646
 32.5175
 32.5083
 32.427
 32.5391
 32.23
 32.1766
 32.1766
 32.1998
 32.8538
 32.8287
 30.0309
 29.7611
 29.8582
 30.2484
 31.2092
 31.1575
 31.1151
 31.2326
 32.7439
 32.8094
 32.8673
 32.8196
 31.66
 31.6699
 31.7757
 31.7209
 29.9686
 29.8125
 30.0614
 29.8036
 31.7119
 31.5541
 31.6051
 31.5795
 32.4919
 32.5519
 32.5115
 32.5272
 32.1726
 32.0013
 31.7698
 31.9686
 30.7933
 30.8632
 30.8441
 30.9458
 32.2411
 32.3781
 32.2662
 32.226
 32.578
 32.6775
 32.682
 32.5282
 31.253
 31.2292
 31.3302
 31.2138
 32.879
 32.926
 32.9818
 32.9866
 32.0264
 31.9248
 31.9581
 32.0362
 31.9172
 31.9722
 31.9538
 32.7552
 32.7539
 32.7273
 32.7747
 32.0784
 31.9473
 32.0092
 31.9943
 31.0535
 31.4036
 31.342
 31.1249
 31.887
 31.812
 31.8099
 31.884
 31.902
 31.939
 31.8585
 31.9311
 31.5772
 31.519
 31.7854
 31.6253
 31.573
 31.4782
 31.687
 31.3892
 23.7964
 23.3785
 24.9097
 24.3733
 31.9278
 32.0647
 32.0201
 28.8345
 29.4102
 29.3941
 29.0672
 31.5215
 31.5891
 31.5845
 31.5424
 31.5707
 31.8827
 31.9704
 31.8956
 31.8171
 31.8871
 31.9176
 32
 23.7586
 23.3538
 23.5181
 23.7365
 23.0882
 23.2394
 23.0866
 23.0536
 31.4669
 31.5493
 31.4585
 31.3979
 31.7258
 31.6092
 31.8329
 31.5846
 32.3959
 32.4417
 32.3426
 32.3885
 32.2847
 32.3701
 32.199
 32.6372
 32.617
 32.6094
 31.7397
 31.8261
 31.624
 32.8025
 32.7131
 32.6875
 32.7376
 32.4587
 32.3522
 32.3731
 32.4169
 31.3138
 31.3934
 31.2664
 31.3711
 32.5138
 32.4856
 32.4644
 30.2747
 30.3254
 29.775
 29.8603
 31.8451
 32.0178
 31.7663
 32.7472
 32.7703
 32.693
 32.8146
 31.5071
 31.6935
 31.7147
 31.6321
 31.482
 31.7585
 31.8097
 31.7552
 31.6608
 31.7259
 31.703
 31.6989
 32.9537
 32.9434
 32.8839
 32.939
 32.1903
 32.2899
 32.4415
 32.499
 32.444
 32.4986
 31.3002
 31.7322
 31.6757
 31.7082
 31.7389
 25.6881
 27.3612
 29.5816
 26.2663
 32.0377
 31.9443
 32.0186
 31.1292
 31.2054
 31.2051
 31.155
 32.2454
 32.3738
 32.385
 32.363
 31.2845
 31.3719
 31.4904
 31.2735
 32.7402
 32.7038
 32.8168
 32.5949
 31.049
 31.0958
 31.1344
 31.1378
 31.9004
 31.9576
 32.038
 31.9639
 29.8095
 29.34
 29.3109
 29.8336
 32.6351
 32.6157
 32.658
 32.5402
 32.4936
 32.5305
 32.5516
 32.4858
 28.3883
 29.4823
 29.539
 27.7946
 31.0604
 30.9617
 30.8361
 31.1102
 32.0434
 31.9291
 32.0737
 32.007
 32.6795
 32.6843
 32.6349
 32.6694
 32.6186
 32.5523
 32.5288
 32.72
 32.3414
 32.2643
 32.3392
 32.3022
 32.4238
 32.5
 32.3736
 32.493
 32.2015
 32.1946
 32.2445
 32.129
 30.7567
 30.9315
 30.8744
 30.7153
 32.0056
 32.0452
 32.0575
 32.2197
 32.3594
 32.3778
 32.4879
 32.4177
 32.4263
 32.6526
 32.6396
 32.6881
 32.63
 31.4765
 31.5363
 31.5453
 31.5402
 32.6259
 32.6069
 32.6469
 32.6312
 32.6677
 32.6831
 32.66
 32.685
 32.6596
 32.689
 32.69
 32.6741
 32.5537
 32.4418
 32.5205
 32.5017
 25.6258
 25.9335
 26.6312
 25.7005
 30.6315
 30.7803
 32.5702
 32.5991
 32.6077
 22.4105
 22.394
 22.3638
 31.8398
 31.7494
 31.8437
 31.692
 28.5024
 28.591
 28.0449
 28.007
 31.3605
 31.2263
 31.4183
 31.053
 31.3764
 31.5258
 31.4596
 31.4411
 32.706
 32.7316
 32.7074
 32.7601
 32.3853
 32.3079
 32.2644
 32.1847
 32.4278
 32.5579
 32.4871
 32.7055
 32.4031
 32.3067
 32.4183
 32.3644
 32.6674
 32.6799
 31.9771
 32.1618
 31.9934
 32.1365
 32.1217
 32.1762
 32.2302
 32.0113
 31.894
 31.7177
 31.9041
 31.7702
 32.1145
 32.194
 32.1856
 32.1612
 32.7539
 32.7199
 32.7481
 32.7343
 32.6783
 32.5981
 32.5778
 32.5383
 30.9849
 30.6469
 30.4077
 31.2102
 32.103
 32.2366
 32.2711
 32.2516
 30.8209
 30.8776
 30.8051
 30.8712
 31.8701
 31.9237
 31.9378
 31.9821
 30.7406
 30.681
 30.8027
 30.6526
 31.8051
 31.6726
 31.7074
 31.6978
 32.8361
 32.7578
 32.7928
 32.7656
 32.3491
 32.3997
 32.6599
 32.6677
 32.6557
 32.6659
 31.7396
 31.9363
 31.8878
 31.9613
 32.1211
 31.9611
 31.9633
 32.0321
 32.6427
 32.6566
 32.6314
 32.6273
 32.4158
 32.3932
 32.3714
 32.3849
 31.4645
 31.4206
 31.5223
 31.7843
 32.2913
 32.1181
 32.1477
 32.2842
 32.0707
 32.0875
 32.2417
 32.1385
 26.0377
 26.1178
 25.8255
 25.8752
 32.211
 32.1557
 32.2321
 32.1549
 32.4682
 32.4913
 27.2156
 27.3495
 27.3277
 26.8278
 32.3911
 32.4132
 32.4194
 32.4636
 32.4152
 32.0555
 32.0022
 30.9265
 30.7946
 30.6721
 31.0543
 26.5179
 26.9411
 26.817
 26.9433
 30.5
 30.7835
 30.9559
 30.9812
 32.3971
 32.2465
 32.2985
 32.3946
 32.7038
 32.7107
 32.737
 32.7101
 32.0982
 32.133
 32.1491
 32.1458
 32.1856
 32.3339
 32.3102
 32.2587
 32.8819
 32.8284
 32.8473
 32.9098
 32.4673
 32.4711
 32.486
 32.4594
 32.8316
 32.7698
 32.767
 32.7008
 32.5496
 32.6441
 32.5892
 32.7545
 32.7323
 32.7795
 32.743
 32.5377
 32.5641
 32.7016
 32.4394
 31.7027
 31.8116
 31.5875
 31.8267
 31.3908
 31.431
 31.3604
 31.2953
 33.0128
 33.0054
 32.9078
 32.9683
 30.4488
 30.4726
 30.009
 30.4168
 29.9986
 29.8755
 29.9043
 29.6643
 30.4913
 30.3063
 30.3005
 30.5618
 31.8133
 31.743
 31.9932
 32.0213
 31.9186
 31.7515
 31.6913
 31.7671
 31.8799
 31.8095
 31.7865
 31.7444
 32.424
 32.4155
 32.4057
 32.4388
 32.2922
 32.1809
 32.2419
 32.3183
 31.9042
 32.2174
 31.8795
 32.0337
 31.314
 31.2787
 31.2971
 31.3079
 31.278
 31.3026
 31.1379
 32.2016
 32.3866
 32.3679
 32.341
 31.944
 32.0014
 31.8326
 32.0027
 30.9236
 31.0898
 31.0609
 32.6085
 32.6262
 32.4746
 32.4792
 31.8586
 31.8406
 32.0032
 31.976
 31.886
 32.038
 32.328
 32.2857
 32.3199
 30.3019
 30.4332
 30.0483
 30.1585
 32.1697
 31.9673
 32.064
 32.1611
 32.864
 32.8059
 32.9126
 31.2763
 31.4303
 31.4075
 32.2702
 32.388
 32.3922
 32.3277
 31.2558
 31.2677
 31.416
 31.1531
 32.5782
 32.6287
 32.6323
 32.6407
 31.5425
 31.5216
 31.4856
 31.6063
 32.5701
 32.5834
 32.5902
 32.6572
 32.1203
 32.0832
 32.1078
 31.0353
 31.1311
 31.0887
 30.9537
 32.4903
 32.6785
 32.6107
 32.6756
 32.6891
 32.3675
 32.3374
 32.4124
 31.9359
 31.888
 31.931
 31.9243
 31.9297
 32.0571
 32.9023
 32.8728
 32.7993
 32.7227
 32.4942
 32.5053
 32.4553
 32.4752
 32.2714
 30.9076
 31.0812
 31.0863
 30.9636
 24.4897
 24.0535
 24.3761
 24.2573
 32.4751
 32.3498
 32.0933
 32.0584
 32.0589
 32.0765
 31.9262
 31.9798
 31.7
 31.8522
 32.1811
 32.2899
 32.3013
 32.2256
 32.06
 32.0782
 32.2091
 32.0329
 32.2759
 32.3241
 32.2878
 32.214
 32.1065
 32.1715
 32.3638
 32.2728
 32.3549
 32.5464
 32.618
 32.6417
 32.6423
 32.7228
 32.691
 32.7041
 32.6981
 32.2159
 32.067
 32.1024
 32.2066
 31.9516
 32.0079
 31.8462
 32.028
 31.9548
 31.8656
 31.8964
 32.1989
 32.2259
 32.1344
 32.2113
 32.6499
 32.6583
 32.6552
 32.6304
 28.3679
 28.3014
 28.5617
 28.5826
 32.3958
 32.3975
 32.3324
 32.3622
 31.9073
 31.9877
 32.0481
 31.9808
 32.5654
 32.6752
 32.6762
 32.6082
 32.8147
 32.8401
 32.866
 32.8765
 32.5663
 32.649
 32.5519
 32.5714
 32.7594
 32.7408
 32.7862
 32.7238
 32.6793
 32.6361
 32.6633
 32.6284
 32.467
 32.3801
 32.3955
 31.7365
 31.7157
 31.7961
 31.7789
 32.3979
 32.4801
 32.4405
 32.4583
 32.7678
 32.7659
 32.7598
 32.7575
 29.3612
 29.0405
 28.9099
 29.2652
 31.799
 32.0529
 31.9157
 31.9218
 32.1146
 31.8074
 31.9315
 31.7134
 31.3698
 31.5735
 31.5429
 31.5893
 32.7843
 32.8091
 32.7804
 30.1038
 30.0307
 30.1535
 30.2349
 31.1519
 31.262
 31.4807
 31.4027
 30.9883
 31.1375
 31.1396
 31.013
 32.5816
 32.5911
 32.6311
 32.6464
 31.9393
 31.9734
 32.0737
 32.016
 32.6882
 32.6693
 32.735
 32.742
 32.4558
 32.4185
 32.4886
 32.4886
 32.1064
 31.9901
 32.0403
 31.8596
 32.8553
 32.7796
 32.8543
 32.8132
 31.7183
 31.6354
 31.6697
 31.6293
 32.5391
 32.563
 32.4606
 32.4755
 31.5859
 31.5253
 31.755
 31.766
 31.657
 31.6091
 31.6753
 31.5925
 32.5713
 32.4953
 31.3875
 32.6754
 32.6652
 32.634
 32.6781
 32.6689
 32.6397
 32.6616
 32.6474
 27.038
 26.9518
 27.4574
 32.3245
 32.2529
 32.2417
 32.1745
 32.6337
 32.515
 32.5812
 32.4707
 32.5321
 32.5784
 32.5425
 32.5861
 31.6157
 31.5546
 31.5525
 31.5854
 31.5736
 31.9476
 31.7285
 32.108
 32.1071
 31.9511
 32.2014
 28.3799
 27.7586
 28.0234
 28.3755
 31.5472
 31.7407
 31.6495
 32.5255
 32.4163
 32.5034
 31.2396
 31.2037
 30.9762
 31.0795
 32.6754
 32.6444
 32.6807
 32.6274
 26.9143
 26.8376
 26.5371
 24.2554
 32.5905
 32.5675
 32.5702
 30.6382
 30.589
 30.6255
 30.595
 32.9568
 32.9068
 32.9278
 32.9578
 31.3324
 31.588
 31.5777
 31.5902
 32.0718
 32.0293
 32.0705
 32.0034
 31.9674
 32.0783
 32.0257
 31.9482
 31.3243
 31.3165
 31.2443
 31.4065
 32.7927
 32.835
 32.7807
 32.7837
 30.9401
 30.6008
 30.9457
 30.7423
 32.327
 32.3138
 28.955
 28.9903
 28.9959
 29.0564
 32.9759
 32.9718
 32.4277
 32.4579
 32.4833
 31.7335
 31.8589
 31.9476
 31.855
 31.299
 31.2289
 31.4337
 31.4008
 31.4828
 31.4885
 31.5413
 31.5172
 32.2541
 32.3656
 32.3456
 32.0946
 30.2872
 30.3854
 32.5303
 32.5021
 32.5091
 32.4683
 32.2431
 32.1258
 32.2575
 32.1838
 32.639
 32.6383
 32.7511
 30.6154
 30.5862
 30.7069
 32.6257
 32.6004
 32.5952
 32.6221
 31.6831
 31.5962
 31.7287
 31.7693
 32.5965
 32.5784
 32.5625
 32.6269
 32.3239
 32.2405
 32.2717
 32.3487
 30.8008
 31.0911
 30.8249
 30.7364
 32.1037
 32.1683
 32.0554
 32.2053
 32.5821
 32.6104
 32.5232
 32.5797
 32.5214
 32.5781
 32.598
 32.5119
 30.9862
 31.1985
 31.1605
 31.5393
 32.6875
 32.76
 32.6679
 32.6659
 32.1543
 32.1605
 32.2214
 32.6068
 32.5866
 32.5972
 32.5863
 22.6109
 22.7691
 22.9857
 22.7254
 30.1611
 30.2497
 30.2369
 30.2125
 32.433
 32.415
 32.466
 32.4929
 26.9231
 27.3358
 26.5577
 27.141
 31.5444
 31.504
 31.6393
 31.154
 31.2698
 31.3757
 31.2914
 32.0895
 31.9412
 32.0254
 32.0028
 32.6604
 32.4701
 32.2998
 32.3015
 32.3868
 32.849
 32.8269
 32.8674
 32.9118
 31.0094
 30.6466
 30.874
 32.0619
 32.0582
 32.0433
 31.9248
 22.7006
 22.488
 22.6518
 22.3993
 27.7893
 27.7204
 27.9703
 27.689
 32.4049
 32.4074
 32.4765
 32.5096
 30.9845
 31.154
 31.0846
 31.1145
 23.3289
 23.347
 23.5984
 23.6446
 32.2702
 32.1734
 32.3001
 32.2128
 32.9262
 32.87
 32.8622
 32.909
 32.256
 32.0505
 31.9926
 32.5425
 32.609
 32.5355
 32.5396
 31.1775
 31.0877
 31.078
 31.3038
 31.586
 31.6356
 32.8838
 32.9048
 32.937
 32.9215
 32.1898
 32.1655
 32.1343
 32.1328
 32.3887
 32.3492
 32.4745
 32.4892
 30.3161
 30.172
 30.0831
 30.4196
 32.7124
 32.6932
 32.7298
 32.7332
 31.2472
 31.3876
 31.3989
 31.4618
 31.6792
 31.6476
 31.6549
 31.6064
 30.0489
 29.9999
 30.1662
 30.0293
 31.7116
 31.6466
 31.6348
 31.7815
 31.4747
 31.3089
 31.3441
 31.4807
 31.5265
 31.5794
 31.6927
 31.6917
 32.5371
 32.5064
 32.4631
 32.4842
 32.823
 32.8425
 32.8504
 32.416
 32.2464
 32.3722
 32.3082
 31.9323
 31.9944
 32.0149
 31.8876
 32.1764
 32.0953
 32.0618
 32.0867
 30.5918
 30.6143
 30.7629
 30.6903
 27.3482
 27.6596
 27.5437
 27.6059
 29.0373
 28.8746
 29.0024
 29.377
 30.7596
 30.7725
 31.1816
 30.7583
 32.2219
 32.1833
 32.2323
 32.2688
 32.9098
 32.9294
 32.9302
 31.4206
 31.3597
 31.2485
 31.3138
 32.0681
 32.112
 32.1873
 32.1428
 32.6892
 32.6729
 32.6812
 32.7057
 31.6281
 31.5502
 32.5722
 32.5857
 32.6054
 32.6301
 31.7927
 31.7465
 31.5815
 31.6801
 32.715
 32.6967
 32.719
 32.6759
 32.3214
 32.4069
 32.339
 32.4958
 29.5237
 29.2298
 29.5184
 29.6412
 22.5536
 22.6549
 22.3964
 22.6458
 31.8096
 31.8661
 31.8452
 31.791
 31.2067
 31.1767
 31.1861
 31.1144
 32.8496
 32.8405
 32.885
 32.9223
 32.6853
 32.6912
 32.6997
 32.7053
 31.7341
 31.5576
 31.8189
 32.2432
 32.303
 32.2485
 32.3028
 31.6347
 31.5662
 31.7383
 31.7362
 32.8862
 32.8835
 32.8504
 32.8517
 32.4911
 32.52
 32.5314
 32.4666
 32.6448
 32.6476
 32.7809
 31.4691
 31.5571
 31.5494
 31.556
 32.4477
 32.3358
 26.3026
 27.153
 26.3444
 26.5702
 32.2467
 32.3445
 32.3109
 32.4541
 32.4422
 32.5242
 32.3636
 32.7829
 32.8267
 32.8414
 32.5287
 32.6099
 32.5762
 32.5356
 32.5733
 32.639
 32.5219
 32.6216
 32.4358
 32.3593
 23.7515
 23.831
 23.4909
 23.7872
 22.9132
 22.545
 22.4928
 22.7729
 32.7602
 32.7459
 32.7488
 32.7686
 32.7409
 32.7948
 32.6825
 32.658
 24.3967
 24.2633
 24.3274
 24.7464
 31.9092
 31.7571
 30.6937
 30.788
 30.7828
 31.091
 32.3236
 32.3874
 32.2752
 32.2914
 32.5748
 32.523
 32.4956
 32.5827
 32.4165
 32.509
 32.5275
 32.5017
 32.2344
 32.2286
 32.3539
 32.2468
 31.4106
 31.2469
 31.1427
 31.3854
 28.4783
 29.0478
 28.9141
 28.5327
 31.3268
 31.3832
 31.3756
 31.7009
 32.0745
 32.2355
 32.1334
 32.2194
 32.741
 32.8221
 32.8055
 27.0694
 27.2069
 27.6451
 32.3093
 32.1611
 32.2673
 32.2795
 32.2432
 32.4149
 32.3131
 32.2994
 32.4657
 32.4472
 32.4693
 32.8944
 32.9445
 32.886
 32.8754
 30.884
 30.7088
 30.6183
 30.6351
 32.0814
 32.1066
 32.0159
 32.0753
 30.4053
 30.3827
 30.3861
 30.4911
 30.4738
 30.3017
 30.4909
 30.9893
 30.8457
 30.7766
 30.9028
 31.5875
 31.5293
 32.0983
 32.0225
 32.1648
 32.151
 32.7506
 32.703
 32.8037
 32.5695
 32.5481
 32.5833
 32.5422
 30.9267
 31.1628
 30.9277
 32.0758
 32.0176
 32.1002
 32.0864
 31.3456
 31.6162
 31.3759
 31.3343
 32.2564
 32.3659
 32.3512
 32.2512
 30.4981
 30.631
 31.456
 31.2786
 31.5146
 31.3169
 32.2779
 32.243
 32.2986
 32.2605
 27.8535
 27.6787
 27.2152
 27.5495
 32.2287
 32.0896
 32.3542
 32.4115
 32.4174
 32.3963
 31.1289
 31.1846
 31.1537
 31.1122
 32.5787
 32.4742
 32.5424
 32.636
 31.992
 31.8979
 31.8644
 31.8392
 31.5088
 31.3954
 31.572
 31.4083
 32.2476
 32.3254
 31.6746
 31.595
 31.6397
 31.6274
 30.9345
 30.8328
 30.8898
 31.1375
 31.737
 31.6969
 31.6664
 31.7588
 31.1207
 30.9352
 30.9386
 31.0761
 32.3562
 32.338
 32.2954
 32.3005
 32.8253
 32.8
 32.7757
 32.7744
 31.5431
 31.7041
 31.6266
 31.5251
 27.1671
 27.5287
 27.302
 26.9691
 31.5826
 31.4
 32.5751
 32.5691
 32.6881
 32.6973
 31.7955
 31.7772
 31.9568
 31.9431
 30.967
 31.2415
 31.2095
 31.2086
 32.5454
 32.524
 32.5691
 32.5354
 31.6518
 31.7239
 31.8245
 31.0985
 31.0291
 31.2417
 30.9492
 30.3886
 30.6661
 30.6108
 30.7245
 32.6942
 32.7325
 32.7324
 31.8586
 31.8452
 31.7804
 31.8013
 32.7811
 32.8131
 32.7215
 31.2694
 31.0005
 31.2869
 32.5488
 32.4658
 32.52
 32.4999
 32.503
 32.5405
 32.4899
 32.4123
 32.5058
 32.4897
 32.5032
 32.5137
 32.5981
 32.5691
 32.5495
 32.7101
 32.6268
 32.5475
 32.7731
 32.858
 32.8429
 32.7865
 31.6687
 31.8548
 31.7198
 31.8017
 32.0925
 32.1637
 32.136
 32.0671
 32.9769
 32.8371
 32.8076
 32.7731
 31.2778
 31.1043
 31.3619
 32.6676
 32.6802
 32.6565
 32.6805
 32.4087
 32.2872
 32.3125
 32.2697
 25.3164
 25.5036
 25.2956
 25.1884
 32.5306
 32.501
 32.5284
 32.5099
 31.6189
 31.6357
 31.5641
 31.576
 32.4761
 32.5179
 32.4776
 32.4444
 30.5713
 30.5237
 30.7348
 30.8115
 31.0973
 30.844
 30.7506
 32.5451
 32.5264
 32.4852
 32.5492
 32.693
 32.5388
 32.5437
 32.5508
 31.5713
 31.5864
 31.5193
 31.7777
 31.7578
 31.6888
 32.3879
 32.3909
 32.317
 32.3454
 30.8738
 30.8211
 30.8004
 30.7878
 31.4079
 32.7638
 32.8568
 32.8521
 32.8109
 31.6867
 31.8622
 31.7652
 31.7235
 31.5199
 31.4869
 31.6566
 31.5194
 32.2365
 32.0607
 32.1678
 32.2041
 32.0625
 32.0001
 32.0893
 32.1095
 30.5005
 30.5797
 30.7054
 30.4331
 32.2716
 32.3579
 32.2846
 32.2589
 32.9443
 32.9599
 32.8584
 32.908
 32.3558
 32.287
 32.2808
 32.3368
 32.4203
 32.4146
 32.3307
 32.3534
 31.5452
 31.5702
 31.7445
 31.6736
 32.2124
 32.2313
 32.3071
 32.2732
 32.52
 32.5148
 32.5209
 32.4528
 31.3148
 31.1411
 31.2522
 31.2007
 30.684
 30.8604
 30.9401
 31.0006
 28.1208
 27.5904
 28.2257
 28.2378
 31.4507
 31.3918
 31.4336
 31.3419
 28.1823
 27.7107
 28.9446
 28.7977
 28.605
 29.0085
 32.692
 32.6795
 32.6942
 32.6832
 32.1512
 32.2646
 32.2566
 32.1639
 30.6508
 30.6021
 30.6096
 30.7077
 31.6119
 31.6187
 31.495
 32.2196
 32.2166
 32.1833
 32.2903
 31.2031
 31.2491
 30.9189
 31.3569
 32.1243
 32.0737
 32.0097
 31.9163
 32.032
 32.1714
 32.3225
 32.212
 32.2432
 32.2749
 32.2952
 32.2845
 32.3483
 32.2868
 32.1231
 32.0833
 32.2298
 32.1223
 31.129
 31.097
 31.2968
 31.0756
 32.0638
 32.0279
 32.1389
 32.5585
 32.6566
 32.6024
 32.5587
 32.6105
 32.5736
 32.6266
 32.6527
 32.7325
 31.9303
 32.0238
 32.0007
 32.0738
 32.0871
 32.1173
 32.1361
 32.0194
 32.6618
 32.7201
 32.689
 32.6912
 32.4667
 32.5602
 32.6092
 32.5605
 32.4553
 32.5593
 32.4682
 32.4437
 32.4927
 32.4108
 23.3631
 23.4556
 23.1192
 23.4696
 31.9142
 31.7993
 31.8383
 31.7012
 31.8288
 31.6607
 31.749
 24.0365
 32.614
 32.5956
 32.6013
 32.5459
 32.7122
 32.6772
 28.7852
 29.0037
 28.9331
 28.9351
 30.9607
 31.0082
 31.1972
 30.7907
 32.2105
 32.233
 32.0272
 31.718
 31.4839
 31.5929
 31.8528
 31.5785
 31.5494
 31.7533
 32.5927
 32.495
 32.4516
 32.5574
 32.784
 32.8535
 30.5229
 30.5422
 31.5307
 31.7402
 31.3505
 31.582
 32.5813
 32.5474
 32.6606
 32.6446
 30.3713
 30.5152
 30.065
 30.0583
 31.8018
 31.7624
 31.9392
 31.8806
 31.6575
 31.7399
 31.651
 31.7429
 32.2341
 32.2154
 32.1796
 32.2044
 32.8787
 32.9371
 32.8509
 32.907
 32.8553
 32.8595
 31.2614
 32.188
 32.0894
 32.1326
 32.1005
 31.169
 31.1695
 31.0062
 31.2126
 31.746
 31.6159
 31.7616
 31.7006
 26.7486
 26.8516
 26.3961
 24.9606
 31.3143
 31.3012
 31.3846
 31.3631
 31.8488
 31.8231
 31.6042
 32.0144
 32.7571
 32.5752
 32.6712
 32.5913
 32.4972
 32.5027
 32.3827
 32.4436
 32.4638
 32.4523
 32.5125
 32.5023
 30.9353
 31.4768
 31.245
 31.2829
 31.4289
 31.3499
 31.4301
 31.4169
 31.8028
 31.7116
 31.7533
 31.6843
 32.001
 31.9781
 31.9231
 31.9206
 31.3838
 31.4546
 31.4752
 31.391
 32.3398
 32.4533
 32.4576
 32.4733
 31.3529
 31.3061
 31.4654
 31.4469
 31.8137
 31.9156
 31.9251
 31.903
 32.9436
 32.7913
 32.9109
 32.8797
 32.4679
 32.4592
 32.4455
 32.4527
 22.7928
 22.9706
 23.0555
 22.9435
 31.2602
 31.2509
 31.5661
 31.5403
 31.6436
 31.5079
 29.7347
 29.324
 29.1864
 29.9422
 32.3676
 32.1531
 32.1596
 32.0284
 31.7327
 31.8244
 31.7222
 31.6703
 32.8603
 32.8606
 32.7852
 32.8311
 32.3323
 32.336
 32.2789
 32.2656
 31.1191
 31.1183
 31.1725
 31.2651
 32.7004
 32.6916
 32.6882
 32.6768
 32.6905
 32.6867
 32.6985
 32.6856
 32.1698
 32.1262
 32.0778
 32.0726
 32.2947
 32.2755
 32.3469
 32.3863
 32.5731
 32.6007
 32.5022
 32.2232
 32.3424
 32.2863
 32.434
 29.2342
 28.9901
 28.9419
 29.5079
 32.314
 32.2967
 32.334
 32.3417
 32.7465
 32.742
 32.7172
 32.7616
 30.9882
 30.9676
 31.0019
 31.1453
 32.3762
 32.548
 32.4544
 32.4894
 30.4478
 30.4339
 30.2088
 29.9105
 32.2022
 32.1728
 32.2128
 32.2866
 32.3977
 32.3649
 32.4171
 32.8223
 32.7432
 32.764
 32.737
 28.7448
 28.7449
 28.7614
 29.102
 32.5862
 32.607
 32.5944
 32.6364
 31.5913
 31.6155
 31.5473
 31.5659
 32.6861
 32.5218
 32.6653
 32.4606
 30.3411
 30.1609
 30.2313
 30.355
 31.6387
 31.8647
 31.7046
 31.4729
 30.4541
 30.4795
 30.427
 30.4245
 32.4287
 32.4817
 32.4539
 32.2521
 32.5067
 32.6085
 32.561
 32.5712
 30.5869
 30.556
 30.6388
 30.6391
 31.6701
 31.5516
 31.591
 32.1662
 32.2184
 32.083
 32.0574
 31.6573
 31.7187
 31.5379
 31.7076
 24.8917
 25.2006
 25.5251
 25.354
 31.841
 31.8856
 31.6501
 31.2311
 31.052
 31.0786
 31.1129
 32.6399
 32.6657
 32.5883
 32.642
 31.9357
 31.987
 31.8609
 32.0175
 30.8956
 30.8434
 30.5101
 30.4162
 32.8854
 32.9424
 32.89
 32.9476
 32.2876
 32.3904
 32.3933
 29.207
 29.5155
 29.7555
 29.6261
 31.4223
 30.9973
 31.2773
 31.1238
 32.4535
 31.0879
 31.0536
 31.0387
 30.9719
 25.7932
 25.7777
 25.3648
 25.2059
 32.1362
 32.008
 32.0502
 32.0126
 32.3762
 32.4006
 32.3236
 32.4343
 23.5415
 31.783
 31.8793
 31.7331
 31.2694
 31.1637
 31.2485
 31.225
 32.9416
 32.8441
 32.8172
 32.9257
 32.4978
 32.5109
 32.4756
 32.5256
 31.7341
 31.4893
 32.658
 32.6508
 32.666
 32.6502
 31.9092
 31.807
 31.6361
 31.7525
 32.3815
 32.3257
 32.4416
 32.3763
 32.2925
 32.3249
 32.2808
 32.2326
 27.2024
 27.2431
 27.2036
 27.706
 30.8389
 30.6619
 30.7774
 30.5744
 28.385
 28.6045
 30.1445
 30.085
 30.1009
 30.1386
 29.8366
 29.4301
 30.0044
 29.5895
 31.1574
 31.252
 31.2918
 31.3201
 32.6715
 32.6373
 32.6691
 32.5514
 32.5762
 32.6633
 32.5225
 32.6198
 32.4633
 32.4666
 32.4616
 32.4396
 31.051
 31.0582
 28.9453
 28.7591
 28.8117
 28.9317
 31.13
 31.0583
 31.1488
 26.1043
 25.8888
 26.1347
 25.7907
 31.1826
 31.2837
 31.2349
 31.3007
 32.3532
 32.2829
 32.4031
 32.2842
 32.6672
 32.6854
 32.6535
 31.0187
 31.0609
 31.068
 30.9985
 32.6086
 32.6498
 32.5958
 32.6478
 32.6771
 32.6634
 32.6531
 32.6831
 32.2647
 32.2705
 32.612
 32.6235
 32.6222
 32.5793
 32.5458
 32.6175
 32.5586
 30.9992
 31.1679
 31.1927
 31.0812
 32.6207
 32.6256
 32.609
 32.6296
 32.5472
 32.5138
 32.2708
 32.3155
 32.2395
 32.4773
 26.6698
 26.7278
 27.1827
 32.8452
 32.7939
 32.8472
 32.8679
 31.2652
 31.2539
 31.2369
 28.4108
 28.0971
 28.2929
 32.5002
 32.5882
 32.5906
 32.5331
 32.3063
 32.3226
 32.4058
 32.3845
 24.9009
 24.7507
 24.911
 24.9432
 31.8215
 31.8051
 31.8889
 31.8931
 32.175
 32.3089
 32.2948
 32.2627
 31.6022
 31.5666
 31.6368
 31.1674
 31.1689
 30.9509
 31.0333
 32.5954
 32.5983
 32.5714
 32.6101
 31.5137
 31.54
 31.6167
 31.6049
 32.4242
 32.3454
 32.4254
 32.3004
 31.06
 32.5437
 32.652
 32.6635
 32.6593
 32.6719
 32.4697
 32.4603
 32.5495
 32.5558
 32.1322
 32.1029
 32.1553
 32.2528
 32.4402
 32.4837
 32.4094
 32.4349
 31.8577
 31.9045
 31.8021
 31.8247
 32.7002
 32.6932
 32.6946
 32.6948
 32.6555
 32.6639
 32.6593
 32.667
 32.5185
 32.4828
 32.449
 32.5447
 32.6333
 32.6136
 32.6515
 30.7863
 30.8232
 30.8367
 31.1338
 32.7023
 32.5311
 32.3206
 32.3171
 32.4692
 31.3381
 31.3268
 31.4634
 32.4877
 32.3603
 32.4154
 32.3963
 32.697
 32.6444
 32.6493
 32.3697
 32.3043
 32.4384
 32.371
 32.3781
 32.3901
 32.2723
 32.2811
 31.5524
 31.5089
 31.4353
 31.5199
 31.7267
 31.5873
 31.7859
 31.386
 32.615
 32.7234
 32.7473
 32.6959
 32.7365
 32.7634
 32.7485
 32.8334
 32.6861
 32.7049
 32.6787
 32.6845
 32.6799
 32.6939
 32.6948
 32.6786
 32.0416
 32.18
 32.0232
 32.1132
 32.6701
 32.6056
 32.6315
 32.6349
 28.7881
 28.8223
 28.763
 28.9052
 28.4507
 28.859
 28.7842
 32.7391
 32.7683
 32.7597
 32.7536
 32.8241
 32.6577
 32.713
 32.7594
 32.6631
 32.7172
 32.69
 32.6143
 31.3878
 31.3894
 31.4995
 31.5278
 32.1244
 32.2114
 32.2024
 32.1021
 32.0063
 32.1221
 32.0641
 32.1097
 31.2258
 31.5245
 31.3659
 31.0351
 31.7593
 31.8051
 31.8557
 31.7624
 25.8304
 25.368
 25.4705
 26.0297
 32.3266
 32.3866
 32.3361
 32.3483
 30.2846
 30.6593
 30.5891
 31.8731
 31.8125
 31.9252
 32.1734
 32.1873
 32.2824
 32.2013
 32.2839
 31.709
 31.3456
 31.5138
 31.549
 28.9974
 29.9107
 29.2293
 25.3111
 25.6167
 25.901
 25.6588
 30.9909
 30.9565
 30.903
 30.8361
 31.7729
 31.6401
 31.7828
 31.8324
 32.4949
 32.5675
 32.5693
 32.4924
 31.5055
 31.5917
 31.6573
 31.6039
 31.9859
 31.8649
 32.0363
 31.9531
 31.8403
 31.8901
 31.7656
 31.8464
 30.4013
 30.0023
 29.6645
 30.0992
 32.716
 32.6772
 32.7085
 32.6784
 30.2332
 30.7887
 32.7976
 32.7906
 32.8427
 32.7725
 32.4762
 32.4781
 32.4597
 32.4741
 32.4112
 32.4222
 32.3891
 30.8749
 30.9358
 30.8524
 32.3385
 32.3519
 32.3373
 32.3022
 32.5356
 32.5397
 32.571
 32.5
 31.9883
 32.1825
 32.0982
 32.0108
 32.1133
 31.9831
 32.1414
 32.0734
 32.6832
 32.6556
 32.6714
 32.6921
 30.444
 30.4516
 30.3529
 30.4163
 32.7708
 32.8972
 32.832
 32.5727
 32.5637
 32.6266
 32.5249
 32.661
 32.6688
 32.6252
 30.9832
 31.088
 31.0659
 31.1244
 28.0827
 27.7987
 28.1722
 27.5303
 32.332
 32.4508
 32.4237
 32.3744
 32.2792
 32.2675
 32.1781
 32.313
 30.8819
 30.9234
 30.7786
 30.6836
 32.2196
 32.1411
 32.1668
 32.0317
 32.1034
 31.9351
 32.1357
 31.7811
 31.921
 31.8417
 31.7728
 31.7888
 31.6208
 31.6693
 22.4886
 22.6239
 22.5387
 22.6505
 31.4222
 31.3993
 31.3918
 31.5006
 30.9497
 30.8206
 30.6138
 30.3702
 31.246
 31.3457
 31.3614
 31.3247
 31.5484
 31.7436
 31.5632
 31.6944
 22.6055
 22.4415
 22.5582
 22.5674
 29.3567
 29.038
 29.4233
 29.4835
 31.1933
 31.2992
 31.617
 31.1216
 32.6143
 32.6536
 30.9677
 31.1478
 30.7136
 30.7544
 32.6736
 32.7641
 32.782
 32.7838
 32.8195
 32.8191
 32.8954
 32.8753
 31.5876
 31.6883
 31.4741
 31.4715
 31.6569
 31.7673
 31.7273
 31.619
 31.9659
 31.9225
 31.9554
 32.0951
 31.6507
 31.6391
 31.6153
 31.6985
 32.2557
 32.3088
 32.2131
 32.2833
 31.9175
 31.8267
 31.8572
 31.9245
 28.5566
 28.0781
 27.9596
 28.662
 31.3918
 31.3516
 31.3648
 31.3821
 32.7541
 32.7919
 32.6025
 32.5862
 32.2009
 32.2876
 32.2903
 31.7105
 31.61
 31.609
 31.7165
 31.0734
 30.6676
 30.6583
 30.7304
 29.215
 29.0883
 28.9405
 29.0556
 32.0589
 32.0634
 32.1806
 32.0007
 32.4731
 32.4964
 32.5804
 32.4602
 32.3744
 32.4377
 32.3714
 32.2892
 32.2929
 32.2946
 32.19
 32.6169
 32.573
 32.5574
 32.4682
 32.4696
 32.688
 32.7868
 30.9712
 30.9113
 30.9285
 30.9767
 32.6809
 32.6205
 32.6484
 32.5702
 32.3368
 32.4356
 32.2917
 32.3984
 32.8306
 32.7898
 32.7452
 32.7022
 31.9865
 31.8811
 31.8205
 31.9056
 31.9
 32.6003
 32.631
 32.5986
 32.5958
 30.5711
 30.5784
 30.584
 30.595
 32.1787
 32.2746
 32.1903
 32.2706
 32.3961
 32.572
 32.5264
 32.4622
 22.96
 23.2728
 23.4128
 23.8272
 32.7842
 32.7894
 32.835
 32.782
 32.6752
 32.7075
 32.6878
 32.6566
 32.4028
 32.4692
 30.6896
 30.8
 30.9478
 30.752
 32.3153
 32.37
 32.3493
 32.2841
 31.2563
 31.1502
 31.0073
 30.9918
 32.0882
 32.1597
 32.1375
 32.0959
 31.708
 31.6953
 31.5212
 31.672
 32.228
 32.2295
 32.1657
 32.1008
 31.4178
 31.3814
 31.4966
 31.435
 31.9912
 31.8947
 31.7681
 31.9156
 32.8548
 32.9604
 32.9088
 32.8356
 31.958
 32.0985
 32.0329
 32.0869
 32.7819
 32.7097
 32.6073
 32.7029
 31.9475
 32.03
 29.6114
 29.8428
 29.9566
 29.586
 33.1138
 33.1045
 32.9935
 33.0815
 31.7805
 31.822
 31.8229
 31.7209
 31.4077
 31.4913
 31.4918
 31.3556
 24.0368
 24.3022
 32.6864
 32.7211
 32.6669
 32.748
 32.3793
 32.3333
 32.3589
 32.4169
 32.4129
 32.4795
 31.5266
 31.667
 31.6124
 31.7325
 32.8329
 32.709
 32.7995
 28.7864
 29.183
 29.1522
 29.3558
 31.5688
 31.5092
 31.6192
 31.5614
 31.4346
 31.4135
 31.4102
 30.963
 31.021
 31.0983
 31.0594
 32.8042
 32.6412
 32.7537
 32.6935
 32.6054
 32.591
 32.6173
 32.6042
 32.037
 31.9249
 31.862
 31.9541
 32.2947
 32.2551
 32.1852
 32.2775
 32.4732
 32.3482
 32.3765
 32.8023
 32.8102
 32.7843
 32.7483
 32.3638
 32.2171
 32.2752
 32.3612
 32.5927
 32.5595
 32.5888
 32.6018
 32.8358
 32.8002
 32.8234
 32.9204
 32.4916
 32.5102
 32.5251
 32.4273
 32.6924
 32.7225
 32.7347
 32.7179
 22.7372
 22.6554
 22.859
 22.8485
 31.5514
 31.4711
 31.4633
 31.2888
 32.3296
 32.2885
 32.2514
 32.2423
 31.8946
 31.9422
 31.7575
 31.6733
 31.0332
 30.6281
 31.0492
 31.2837
 31.652
 31.632
 31.5556
 31.713
 31.6007
 31.6991
 31.6325
 31.6292
 31.3459
 31.4618
 31.3344
 31.3442
 31.8659
 31.8784
 31.7951
 31.8105
 32.7399
 32.5681
 32.6604
 32.5683
 31.9677
 31.9087
 32.0199
 31.7878
 32.4858
 32.5635
 32.5007
 32.5725
 32.0602
 32.1186
 32.1053
 32.1413
 29.7661
 29.7992
 29.98
 30.1906
 32.6985
 32.7028
 32.6942
 32.6802
 32.3721
 32.3318
 32.2151
 32.6786
 32.7436
 32.8023
 32.774
 30.2445
 30.0015
 29.6689
 30.0393
 31.8527
 31.8466
 31.7271
 31.7992
 32.423
 32.3615
 32.4135
 32.3274
 32.9176
 32.8678
 32.8661
 30.984
 31.0945
 31.1195
 31.0307
 31.3014
 31.1853
 31.1448
 31.2262
 32.6809
 32.7355
 32.6431
 32.7363
 32.4448
 32.4234
 30.8574
 30.842
 30.5609
 31.0203
 32.92
 32.8739
 32.9835
 32.9898
 31.2859
 31.2763
 31.3829
 31.3068
 31.7813
 31.803
 31.819
 32.8168
 32.8916
 32.7883
 32.7825
 32.6515
 32.6757
 32.7182
 32.7143
 32.6644
 32.6729
 32.6594
 32.6637
 32.4685
 32.4795
 32.4789
 32.4868
 32.6472
 32.5666
 32.5783
 32.6149
 32.501
 32.4865
 31.8538
 31.8569
 31.6936
 31.8394
 32.5013
 32.5068
 32.49
 32.5114
 32.4849
 32.5698
 32.5668
 32.5403
 32.5357
 32.5048
 32.5094
 32.6061
 32.63
 32.659
 32.6027
 31.7016
 31.4233
 31.6325
 31.3223
 32.6559
 32.6464
 32.681
 32.7641
 32.7906
 32.6385
 32.7958
 32.6834
 32.6717
 32.6719
 31.1659
 31.3123
 31.0324
 32.625
 32.6307
 32.6357
 32.6791
 32.5771
 32.516
 32.5593
 24.1922
 24.3493
 24.5921
 23.87
 32.3666
 32.4365
 32.4512
 32.3779
 32.4743
 32.3466
 32.3668
 32.3355
 32.0472
 32.0666
 32.038
 31.9219
 31.8201
 31.9291
 31.7879
 31.8155
 31.2983
 31.5948
 31.163
 31.285
 32.7923
 32.8905
 32.8708
 32.1746
 32.1162
 32.1964
 32.1579
 31.5688
 31.7404
 31.6669
 32.6595
 32.6639
 32.6698
 32.6176
 32.431
 32.4167
 32.4154
 32.3869
 31.6514
 31.5592
 31.5859
 31.6582
 23.1002
 24.3339
 24.0042
 23.1591
 32.0141
 32.0531
 32.1335
 32.0131
 32.6516
 32.5545
 32.5715
 32.5922
 29.7676
 29.5004
 29.3677
 32.4843
 32.4691
 32.471
 32.4888
 31.3867
 32.4335
 32.4529
 32.6311
 32.5506
 32.0209
 32.0177
 31.9655
 31.9314
 32.1827
 32.3199
 32.3313
 32.2796
 32.6695
 32.724
 32.622
 32.653
 32.6467
 32.6523
 25.307
 25.7891
 25.1114
 25.5477
 32.2527
 32.2022
 32.1489
 32.0521
 32.0744
 32.1894
 32.0903
 31.5086
 31.2546
 31.5216
 31.5169
 32.6659
 32.6728
 32.6751
 32.668
 32.4057
 32.4212
 32.4545
 32.418
 31.8346
 31.8743
 31.7999
 31.8871
 32.7656
 32.7848
 32.7497
 32.8926
 28.5859
 28.6321
 28.2016
 28.375
 32.6342
 32.6381
 32.6559
 32.6429
 31.9471
 31.9264
 31.9616
 32.0833
 31.771
 31.579
 31.5531
 31.6709
 30.096
 30.2099
 30.1058
 30.074
 27.366
 27.1622
 26.8361
 27.4708
 30.8617
 31.0337
 30.9736
 30.9742
 26.1729
 26.3191
 25.8016
 26.6152
 32.6832
 32.6707
 32.6693
 32.6725
 30.921
 30.9651
 30.9959
 30.991
 32.5922
 32.5847
 32.6297
 32.6394
 30.5182
 31.652
 31.708
 31.6812
 31.5952
 31.8688
 28.2146
 28.8267
 28.9121
 28.3635
 32.7502
 32.667
 32.1092
 32.2506
 32.1359
 32.2386
 31.5501
 31.5814
 31.507
 31.5329
 30.8116
 30.93
 30.808
 32.0101
 31.917
 31.8901
 31.8714
 32.5692
 31.1965
 32.3908
 32.4553
 32.4596
 31.5459
 31.4872
 31.4402
 31.55
 32.5199
 32.5145
 32.5145
 32.475
 32.3495
 32.4492
 32.2147
 32.2847
 32.4068
 32.4924
 32.491
 32.3521
 31.1581
 31.0541
 31.1777
 31.1401
 31.7771
 31.8173
 31.7468
 31.82
 32.516
 32.4323
 32.4355
 27.5839
 27.2807
 28.0829
 27.4968
 22.7348
 22.3234
 22.5149
 22.3445
 30.1417
 29.6512
 29.5991
 29.8318
 32.5415
 32.5262
 32.6121
 28.5465
 28.9869
 28.8023
 28.4054
 31.7555
 31.7707
 31.6628
 32.1509
 32.0673
 32.1695
 32.1351
 31.8553
 31.7819
 32.4472
 32.1885
 30.5707
 30.6767
 30.5717
 30.9373
 30.9281
 30.9226
 30.8812
 32.6793
 32.6317
 32.6881
 32.6638
 32.2018
 32.162
 32.1008
 32.2443
 32.7721
 32.8674
 32.8892
 32.8352
 31.325
 31.3164
 31.3095
 31.3408
 32.3327
 32.3312
 32.3627
 32.4111
 30.0097
 30.0226
 30.1454
 30.3913
 32.4319
 32.4188
 32.4657
 32.3567
 32.8147
 32.7547
 32.842
 32.7887
 32.3153
 32.1995
 32.2474
 29.962
 27.7524
 26.6998
 32.1523
 32.1274
 32.5389
 32.5681
 32.445
 32.5746
 32.2931
 32.1854
 32.2963
 32.2674
 32.3366
 32.3136
 32.2023
 32.3769
 32.378
 32.386
 32.273
 24.5148
 24.4794
 29.9314
 29.8532
 30.0434
 29.9678
 32.5821
 24.4488
 23.9358
 24.1702
 23.9667
 31.9492
 32.1401
 31.9821
 31.9967
 32.6422
 32.5602
 27.4435
 28.3419
 28.096
 27.6583
 30.8194
 30.6872
 30.7793
 30.7999
 31.1442
 31.1543
 31.2272
 31.0152
 31.3931
 31.7976
 31.5464
 31.7464
 32.5088
 32.4917
 32.6433
 32.656
 32.1303
 32.0931
 32.1348
 32.2054
 32.2233
 32.2764
 32.1869
 30.4372
 30.5609
 30.7665
 30.7953
 32.871
 32.8034
 32.866
 32.7632
 32.7939
 32.7307
 32.6711
 32.1164
 32.1346
 32.1833
 32.1499
 32.0226
 32.1993
 32.2861
 32.0625
 31.5493
 31.3621
 31.4185
 31.6068
 32.6503
 32.5321
 32.6924
 32.7629
 32.3477
 32.4075
 31.9628
 31.9884
 31.996
 31.8714
 30.9752
 31.1429
 31.1218
 31.1125
 31.1994
 31.3417
 31.2028
 31.3702
 28.7294
 28.668
 29.1928
 28.8788
 32.764
 32.6334
 26.1239
 26.2403
 25.7826
 26.482
 32.5503
 32.7475
 32.4931
 31.4645
 31.5465
 31.4216
 31.4289
 26.6594
 26.3213
 26.628
 31.5926
 31.579
 31.8068
 31.7327
 28.0752
 31.8809
 31.7227
 31.8577
 31.5672
 32.6649
 32.6562
 32.6541
 32.7509
 32.4586
 32.4592
 32.4775
 32.4607
 31.3408
 31.2123
 32.8481
 32.886
 32.9242
 32.9023
 31.6097
 31.2849
 31.5776
 31.3453
 32.3264
 32.5433
 32.4477
 32.3171
 31.6284
 31.7012
 31.6824
 31.7004
 32.8141
 32.8578
 32.8669
 32.8291
 32.7761
 31.7988
 31.7183
 31.8098
 32.413
 32.4418
 32.3372
 32.4434
 32.3474
 32.3535
 32.3102
 32.4257
 32.6791
 32.6012
 32.6131
 32.6583
 31.3456
 31.452
 31.4614
 31.4095
 30.6081
 30.5547
 30.6791
 31.5839
 31.7624
 31.9444
 31.7672
 32.7099
 32.5612
 32.7008
 32.6933
 32.2464
 32.2498
 32.1731
 32.1269
 32.1158
 32.2089
 31.963
 32.0357
 31.8997
 32.1281
 32.7646
 32.7949
 32.3224
 32.3227
 32.3526
 32.3582
 32.2571
 32.2233
 32.1744
 32.3017
 32.5779
 32.6674
 32.6131
 32.5543
 32.3885
 32.3844
 32.3652
 31.6208
 31.7893
 31.7941
 31.7608
 32.0159
 32.0414
 31.9808
 32.6411
 32.6432
 32.5696
 32.6189
 31.984
 31.7846
 31.649
 31.8626
 32.2371
 32.3108
 32.3357
 32.2504
 32.5201
 32.5342
 32.4902
 30.1891
 30.1684
 30.2356
 30.1844
 32.1122
 32.1356
 32.1518
 32.1961
 32.1097
 32.0515
 32.2192
 30.905
 31.0456
 31.0755
 32.3692
 32.3237
 32.3411
 32.1408
 32.0312
 32.2146
 32.0559
 31.1215
 31.1544
 31.1335
 31.0574
 32.5033
 32.5207
 32.4778
 32.4347
 31.9364
 31.8872
 31.7206
 31.7798
 32.0981
 32.0693
 32.1308
 32.1178
 29.3438
 28.9922
 28.9925
 32.3865
 32.3761
 32.3416
 32.3922
 32.0943
 31.991
 32.1272
 32.1294
 32.6746
 32.6731
 32.7133
 32.7092
 32.237
 32.2282
 32.2534
 32.3321
 31.2486
 31.2142
 29.945
 30.3188
 30.1872
 30.4075
 32.0097
 32.0592
 31.9553
 32.0628
 32.5081
 32.5082
 32.4645
 32.5271
 32.3678
 32.3694
 31.1941
 31.188
 31.2635
 31.1171
 31.9279
 31.83
 31.9608
 31.7303
 31.0437
 31.0584
 30.9368
 30.856
 32.261
 32.3131
 32.2574
 32.321
 32.1697
 32.2521
 32.2487
 32.2168
 32.3102
 32.2918
 32.3503
 32.0135
 32.0747
 31.8722
 31.858
 28.2528
 28.1147
 28.5879
 32.8278
 32.8275
 32.8474
 31.6787
 31.7658
 31.689
 31.8029
 32.467
 32.481
 32.4966
 32.4671
 31.5065
 31.143
 31.0804
 31.4727
 32.8857
 32.9969
 32.8619
 32.9731
 32.6207
 32.6569
 32.5868
 31.2262
 31.1722
 31.2959
 31.2978
 30.5858
 30.7504
 30.8854
 31.0448
 31.0882
 32.3094
 32.3214
 32.3598
 32.2378
 32.907
 32.9501
 32.8134
 32.9764
 31.2033
 31.3201
 31.4519
 31.266
 32.7277
 32.7948
 32.8166
 32.717
 32.3211
 32.2051
 32.4307
 32.3557
 31.6719
 31.6599
 31.5205
 32.1188
 32.1356
 32.1745
 32.1771
 32.5287
 32.5223
 30.9486
 31.2517
 31.068
 31.0336
 31.5167
 31.1614
 31.3279
 31.2505
 31.4214
 31.5179
 31.5102
 31.785
 31.5778
 31.4765
 32.6583
 32.6826
 32.6697
 32.6921
 32.6887
 28.718
 28.2402
 28.4081
 32.796
 32.7409
 32.7154
 32.822
 31.5127
 31.51
 31.5675
 31.46
 29.1761
 29.3283
 29.4047
 29.0122
 31.0493
 31.2448
 31.0061
 31.0459
 32.2074
 32.1147
 32.1003
 29.66
 29.6706
 29.9034
 29.9959
 30.9434
 31.1068
 30.9822
 30.9379
 30.1922
 30.4887
 30.6077
 30.0126
 32.4466
 32.5065
 32.4575
 32.3898
 32.6034
 32.6162
 32.6114
 32.5604
 31.0078
 31.1215
 31.1547
 32.4265
 32.4666
 32.4389
 32.4852
 30.7142
 30.4249
 30.7068
 30.6498
 31.2723
 31.0926
 31.2237
 32.1986
 32.2274
 32.1555
 32.1166
 32.1945
 32.8284
 32.6961
 32.7495
 32.7628
 31.4509
 31.5493
 31.5521
 31.5561
 32.719
 32.6906
 32.7179
 32.6916
 32.2366
 32.1812
 32.2246
 32.2875
 31.1292
 30.9672
 31.2875
 31.9464
 31.8857
 32.6468
 32.6414
 32.6818
 32.6087
 31.5452
 31.4191
 32.5205
 32.4915
 32.5032
 32.4864
 30.6185
 30.5438
 30.9003
 31.64
 31.6296
 31.7135
 31.6482
 32.5999
 32.5853
 32.6416
 32.5858
 30.8205
 30.644
 30.8105
 30.9418
 32.8192
 32.8338
 32.8201
 32.8042
 32.5689
 32.4351
 29.2785
 29.0778
 29.1769
 28.8937
 31.747
 32.0022
 32.1369
 32.1073
 32.2056
 32.1417
 31.9835
 31.8018
 31.8031
 31.9178
 32.8503
 32.7485
 32.8212
 32.3249
 32.379
 32.3665
 32.4201
 32.1526
 32.1217
 32.1089
 32.136
 32.4969
 32.47
 32.4529
 32.5121
 32.6321
 32.6415
 32.6231
 32.6206
 32.6276
 32.6375
 32.6346
 32.6274
 26.5252
 26.9872
 26.8553
 27.2489
 32.4984
 30.7689
 31.039
 30.8645
 30.7444
 31.1984
 31.1648
 31.2418
 32.256
 32.3659
 32.3717
 32.2565
 32.6296
 32.6106
 32.6244
 32.6315
 32.7644
 32.7237
 32.7457
 31.4433
 31.618
 31.5145
 31.3646
 31.4893
 31.4184
 31.6264
 31.4696
 32.5626
 32.5807
 32.4976
 32.4965
 31.5748
 31.5645
 31.6901
 31.6271
 30.5459
 30.6023
 30.2573
 30.2834
 31.9669
 32.0604
 32.26
 32.3079
 32.3569
 32.323
 31.3944
 31.4609
 31.4531
 31.4624
 30.6719
 30.6365
 30.7027
 30.5723
 31.6255
 31.6887
 31.5885
 32.5575
 32.5526
 32.6195
 32.5772
 31.8989
 31.8385
 31.7728
 31.8371
 30.2029
 30.4277
 30.8635
 30.4348
 31.8516
 31.815
 31.7846
 32.5357
 32.548
 32.5424
 32.5248
 30.5814
 30.5208
 30.6588
 30.3379
 32.1733
 32.0451
 32.1708
 32.1397
 32.4851
 32.4585
 32.4441
 32.4662
 32.2804
 32.2053
 32.3968
 32.3557
 29.7984
 29.8848
 29.3452
 29.3541
 32.5324
 32.4848
 32.4816
 32.4933
 25.5131
 25.5795
 26.402
 26.0492
 31.5915
 31.7625
 31.6051
 31.9629
 31.8111
 31.7249
 31.619
 23.6891
 23.7071
 23.3775
 23.8654
 31.7647
 31.8613
 31.8592
 31.883
 31.9145
 31.8127
 31.8431
 32.256
 32.4093
 32.3608
 28.414
 28.5244
 28.2461
 30.2642
 29.9622
 30.2416
 30.3459
 31.9628
 31.9527
 32.0819
 31.8464
 32.5301
 32.4581
 32.5275
 32.5324
 26.5146
 26.4337
 26.7637
 26.2098
 32.7085
 32.7758
 32.7733
 32.7096
 31.973
 31.8867
 32.0308
 31.9668
 32.8023
 32.7346
 32.7001
 32.6042
 32.6115
 32.5855
 32.6286
 30.9982
 30.9278
 31.0944
 31.2095
 31.5664
 31.4629
 31.4621
 31.456
 31.9048
 31.8014
 31.8987
 31.9123
 32.1198
 32.1894
 32.109
 32.1096
 31.1697
 31.1332
 31.0902
 31.5352
 31.4046
 31.5238
 31.49
 31.4808
 31.4025
 31.5494
 31.467
 27.1344
 27.0647
 23.2748
 23.4129
 23.1863
 23.6184
 32.3275
 32.3556
 32.3722
 32.6256
 32.6531
 32.5947
 32.6178
 32.8735
 32.8428
 32.8666
 32.8605
 25.7518
 32.627
 32.5177
 32.4381
 32.0817
 31.9942
 32.064
 32.0146
 28.4398
 32.2945
 32.3548
 32.2841
 30.5424
 30.6255
 30.6223
 30.6234
 32.8238
 32.8596
 32.8559
 32.842
 31.0019
 31.1195
 31.0389
 31.1085
 32.7015
 32.6743
 32.6007
 32.5492
 32.6826
 32.6104
 31.8851
 31.808
 31.9538
 31.8749
 32.754
 32.7565
 32.77
 32.8709
 30.2824
 30.0674
 30.5375
 30.4601
 31.9023
 31.7051
 31.772
 31.2718
 31.1548
 31.1419
 31.2832
 31.9496
 31.9556
 32.0525
 31.95
 32.2823
 32.2834
 32.5247
 32.2551
 32.1263
 32.063
 32.0676
 32.0748
 31.713
 31.6234
 31.6316
 31.6312
 32.5081
 32.7387
 32.5999
 32.1551
 32.1232
 32.1925
 32.2226
 31.2251
 31.4471
 31.0412
 31.0807
 32.5664
 32.6161
 32.6174
 32.6159
 30.6896
 30.8523
 30.6478
 30.7478
 32.5492
 32.3886
 32.411
 32.4578
 32.0479
 32.0001
 31.928
 32.1524
 30.0063
 29.9164
 30.0852
 32.535
 32.5198
 31.9123
 32.0113
 31.9915
 32.0846
 32.6311
 32.614
 32.5877
 30.3266
 29.8442
 29.8418
 30.034
 32.4428
 32.4009
 32.4884
 32.3874
 32.5294
 32.5724
 32.4426
 32.5344
 22.4529
 22.528
 22.6812
 22.4704
 33.033
 33.0159
 33.0037
 24.7568
 25.1109
 25.2509
 32.6209
 32.6611
 32.758
 32.8148
 32.8246
 30.5793
 30.7453
 30.3014
 30.5091
 32.6148
 32.648
 32.6667
 32.0221
 32.0496
 32.0515
 32.0832
 32.7192
 32.6927
 32.6986
 32.696
 32.7888
 32.7368
 32.7008
 30.6784
 30.7408
 30.7892
 30.8724
 32.0153
 32.2751
 32.2392
 32.214
 29.4128
 29.4943
 29.553
 29.5706
 32.425
 32.3872
 32.5253
 32.4312
 31.7756
 31.6776
 31.7096
 31.8174
 22.4572
 22.4741
 22.4543
 22.3776
 32.3655
 32.4741
 32.3535
 32.3505
 29.2531
 28.9664
 29.1553
 29.1176
 31.9831
 32.1525
 32.1443
 32.0705
 31.8166
 31.9169
 31.9477
 31.8558
 32.2778
 32.2092
 32.3318
 32.2188
 32.2217
 32.2802
 31.458
 31.4863
 31.47
 32.0757
 32.2276
 32.1479
 32.0654
 31.6572
 31.8878
 31.713
 31.5012
 32.3652
 32.362
 32.4212
 29.8423
 30.1518
 34.6062
 30.3632
 32.7357
 32.8515
 32.8298
 31.6282
 31.5208
 31.5557
 31.6024
 31.9168
 31.9662
 31.5369
 31.4681
 31.3655
 31.5353
 32.0463
 32.0121
 29.4012
 29.3308
 28.936
 29.6593
 32.0448
 32.0783
 32.0548
 32.1674
 32.6404
 32.563
 32.3485
 32.4383
 32.4259
 32.3732
 32.3306
 32.2956
 32.1935
 32.2833
 32.3884
 31.9643
 31.936
 32.2556
 31.6315
 31.6542
 31.5796
 31.3742
 32.4085
 32.3714
 32.4882
 28.6515
 28.4228
 28.3788
 28.7068
 32.4625
 32.5075
 32.534
 32.5341
 31.9852
 31.7781
 31.8293
 31.7476
 32.2567
 32.0595
 32.1728
 22.5193
 22.5415
 22.4738
 22.4752
 30.0349
 30.6208
 30.7921
 30.3396
 31.7603
 31.8529
 31.76
 31.8428
 33.0453
 33.0539
 33.059
 32.4411
 30.9213
 31.0341
 30.9658
 31.222
 32.4257
 32.3733
 32.4835
 32.4864
 32.3868
 32.2599
 32.2367
 32.3286
 31.0344
 31.0245
 31.5432
 28.1025
 32.4565
 32.404
 32.4934
 32.4043
 31.102
 31.4674
 23.7413
 23.8146
 30.9864
 31.2036
 30.9585
 30.6325
 32.2626
 32.1979
 31.9558
 31.9601
 31.893
 31.978
 32.7447
 32.8374
 32.7473
 32.8383
 31.3793
 31.3574
 31.2415
 31.3723
 32.5236
 32.5484
 32.3866
 32.3626
 32.1392
 32.1207
 32.1509
 32.2832
 31.506
 31.5103
 31.6245
 31.6595
 31.9518
 31.8819
 32.0059
 31.9067
 32.6053
 32.6115
 31.4791
 31.5087
 32.4779
 32.4353
 32.4853
 32.4401
 32.4966
 32.468
 32.4572
 32.3838
 32.6131
 32.6134
 32.5972
 32.5967
 32.0096
 32.1573
 32.0499
 31.9235
 31.3996
 31.1451
 31.3241
 31.2873
 31.4783
 31.448
 31.509
 31.2642
 31.2811
 31.3913
 31.3094
 30.907
 31.2322
 31.1811
 30.9884
 32.048
 32.2123
 32.1625
 32.1683
 31.0336
 31.1242
 31.24
 31.4162
 32.7036
 32.663
 32.598
 32.6295
 32.7343
 31.8444
 31.8308
 31.8191
 31.9241
 25.4146
 25.0907
 25.2068
 25.7498
 32.1292
 32.0622
 31.9804
 32.061
 32.7386
 32.5989
 32.7309
 32.6316
 32.3655
 32.4518
 32.4509
 32.4244
 32.2276
 30.7451
 30.7979
 30.9357
 30.8577
 31.9773
 31.9824
 32.1122
 32.0617
 24.3624
 24.4392
 24.773
 24.1771
 32.6627
 32.59
 32.5503
 32.6274
 32.5095
 32.4327
 32.5121
 32.4812
 32.4154
 31.6358
 31.6391
 31.7127
 31.7836
 31.7732
 31.7247
 31.6757
 31.6407
 31.8507
 31.732
 31.7995
 22.3184
 22.4273
 32.1752
 32.1417
 32.0592
 31.953
 31.9834
 31.8676
 32.0559
 32.2673
 32.3115
 32.2116
 32.3002
 32.602
 32.3858
 32.4367
 32.346
 32.464
 31.2354
 31.4034
 31.3796
 31.2416
 32.3615
 32.3181
 32.2032
 32.3387
 32.6924
 32.7475
 32.7085
 32.7477
 30.4394
 30.5009
 30.3583
 30.5807
 30.9015
 31.0584
 30.8423
 30.9129
 32.198
 32.2327
 32.1494
 32.2415
 31.0348
 31.1007
 31.0552
 30.932
 32.2632
 32.111
 32.276
 32.2701
 32.4302
 32.4547
 31.4263
 31.305
 31.4477
 31.372
 32.5542
 32.52
 32.4974
 32.4652
 32.6615
 32.6593
 32.8237
 32.5778
 32.6834
 32.7747
 31.7163
 31.7862
 31.8019
 31.7118
 32.3295
 32.1998
 32.1628
 32.2826
 29.216
 29.4705
 29.2097
 29.2321
 30.1309
 30.1837
 30.1608
 30.0638
 32.5071
 32.6185
 32.6224
 32.6243
 32.5247
 32.5396
 32.4839
 32.651
 32.6072
 32.6376
 32.6502
 32.6756
 32.7116
 32.6795
 32.7297
 29.025
 29.0674
 29.1631
 32.7968
 32.587
 32.6581
 32.6232
 32.7279
 32.8264
 32.7561
 32.7812
 32.1475
 31.9848
 32.216
 31.9171
 32.1395
 32.2771
 32.2212
 32.2343
 32.5558
 32.5423
 32.4987
 32.4677
 32.8325
 32.8259
 32.8892
 32.9338
 32.432
 32.4532
 32.3637
 32.3732
 30.0466
 30.1528
 30.271
 31.935
 31.9536
 31.8605
 31.9632
 32.0315
 32.1075
 31.9851
 31.8962
 32.8798
 32.9435
 32.9045
 32.8964
 32.7552
 32.7864
 32.7265
 32.3167
 32.3651
 32.3188
 32.2481
 32.4366
 32.4106
 32.3741
 32.4501
 32.3531
 32.3731
 32.2491
 31.8452
 31.7094
 31.7995
 32.6321
 32.6864
 32.733
 32.5783
 31.5609
 31.4782
 31.6161
 31.5471
 31.5458
 31.5702
 31.6657
 32.8688
 32.8828
 32.8989
 32.8882
 32.2707
 32.2044
 32.3228
 32.1635
 31.4375
 31.7384
 31.8027
 31.6754
 31.7085
 31.6252
 31.8116
 22.792
 23.3127
 22.7164
 22.6949
 32.1185
 32.2018
 32.6715
 32.7242
 32.7354
 31.0145
 30.8716
 32.4375
 32.5317
 32.5287
 32.5329
 32.4321
 32.4547
 32.4408
 32.2207
 32.0427
 32.1929
 32.0743
 32.2488
 32.2457
 32.1604
 32.3046
 23.615
 23.8294
 23.8576
 23.5287
 32.5672
 32.5658
 32.5906
 32.5211
 31.8211
 31.6795
 31.8629
 32.0601
 32.0429
 32.0344
 32.1246
 32.1419
 31.7979
 31.8782
 31.6624
 32.0797
 32.0571
 31.3388
 31.5199
 31.2704
 30.9142
 31.0148
 31.743
 31.8378
 31.707
 31.8936
 32.8094
 32.6544
 32.7034
 32.1903
 32.2711
 32.1395
 32.1207
 32.252
 31.9928
 31.9996
 32.119
 32.5719
 32.5475
 32.5399
 32.5276
 32.6998
 32.7213
 32.6954
 32.6939
 31.8643
 31.9152
 31.7304
 32.3128
 32.2661
 32.3358
 32.3385
 30.5988
 30.4858
 30.5798
 30.4449
 30.0857
 29.6294
 31.4791
 31.522
 31.5007
 31.6132
 32.7777
 32.8051
 32.7974
 32.8006
 32.6612
 32.6419
 32.6217
 32.6554
 30.2658
 30.4629
 32.478
 32.5039
 32.5158
 32.4949
 32.673
 32.6459
 32.6459
 32.6796
 31.9947
 32.0488
 32.085
 32.0357
 32.6381
 32.6639
 32.6381
 32.6651
 32.0589
 32.0968
 32.5743
 32.5809
 32.6025
 32.5385
 32.258
 32.3128
 32.2253
 32.6483
 32.5988
 32.5989
 32.6104
 31.3158
 31.4753
 31.2835
 31.557
 23.0295
 23.2739
 23.3005
 23.0432
 32.8512
 32.8385
 32.8414
 32.8407
 32.5912
 32.5237
 32.5689
 32.597
 32.408
 32.4387
 32.417
 32.4238
 32.2774
 32.2541
 32.3445
 32.3413
 31.9401
 31.8178
 32.6199
 32.623
 32.6799
 26.1034
 25.8391
 25.7169
 26.3035
 31.8267
 31.5944
 31.9832
 31.5507
 32.6303
 32.6068
 32.6337
 32.6483
 31.9997
 31.9664
 31.9398
 32.7866
 32.7406
 32.74
 32.7567
 31.977
 32.0601
 32.103
 31.9569
 32.211
 32.2949
 32.3158
 32.2432
 32.2768
 32.3131
 32.3252
 32.3083
 31.7088
 31.69
 31.671
 32.1378
 32.1318
 32.1427
 32.1077
 32.6371
 32.7383
 32.5851
 32.7069
 32.7379
 32.7144
 32.6788
 23.4741
 23.5336
 23.4935
 23.1214
 32.1305
 32.2027
 29.2467
 28.9691
 29.3311
 29.6715
 31.6934
 30.5443
 31.5797
 32.0911
 31.8745
 32.0672
 31.7848
 30.93
 32.4383
 32.4921
 32.439
 32.5118
 32.3799
 32.5093
 32.4672
 32.5244
 32.5552
 32.5585
 31.7796
 31.7755
 31.9402
 31.8075
 32.0546
 32.1452
 32.0308
 32.1026
 30.806
 30.4309
 30.3629
 30.7087
 31.2224
 31.1963
 31.2095
 31.3359
 32.847
 32.7854
 32.8189
 32.0723
 31.99
 32.0404
 32.5051
 32.6185
 32.5938
 32.5144
 32.097
 32.1423
 31.9652
 32.031
 32.8564
 32.7566
 32.8412
 32.2281
 32.2545
 32.2455
 32.1103
 32.6126
 32.6558
 31.9565
 31.8973
 31.8649
 31.787
 31.582
 31.4341
 31.4983
 31.5686
 31.5979
 31.7561
 31.5996
 31.8032
 32.136
 32.2591
 32.2495
 32.1118
 32.6969
 32.8003
 32.694
 32.6685
 32.7736
 32.6357
 32.7034
 32.7304
 31.5974
 31.6264
 31.6605
 31.6864
 32.9703
 32.93
 32.9485
 32.8142
 32.6798
 32.6769
 32.6863
 32.6723
 32.4679
 32.4624
 32.4893
 32.4711
 31.837
 32.0639
 31.4492
 31.6507
 31.768
 31.5233
 28.7042
 28.1019
 28.4816
 28.6963
 32.7729
 32.7665
 32.652
 32.6377
 32.507
 32.6372
 32.557
 31.4782
 31.4494
 31.4139
 31.4141
 30.8198
 30.7832
 30.8546
 31.4034
 31.3803
 31.5248
 32.5938
 32.5412
 32.4762
 32.5677
 32.2258
 32.1473
 32.1029
 32.264
 32.0214
 31.9177
 32.0222
 31.9134
 32.0797
 31.99
 32.0012
 32.0733
 29.5208
 29.8695
 30.0792
 30.0582
 30.9419
 30.946
 31.0252
 30.8113
 31.8317
 31.8287
 31.7204
 31.856
 32.4549
 32.4453
 32.4141
 32.4478
 30.8358
 30.937
 31.0383
 30.8082
 32.2108
 32.2758
 32.2099
 32.2354
 32.5642
 32.543
 32.5635
 32.5309
 31.9886
 31.8806
 31.8453
 30.5229
 30.8594
 30.6624
 30.3974
 31.0791
 30.9435
 31.0907
 30.9189
 31.2965
 31.3155
 32.0097
 32.1581
 31.8562
 31.734
 31.784
 31.8009
 31.8424
 31.6527
 31.7507
 31.6969
 31.7377
 32.4607
 32.4456
 32.4701
 32.5033
 32.6173
 31.3773
 31.3388
 31.3687
 31.405
 30.3923
 30.2764
 30.3649
 30.2151
 31.0905
 30.9716
 31.1225
 30.9428
 32.5242
 32.6344
 32.6256
 32.278
 30.4382
 30.3382
 30.1524
 31.9651
 31.8093
 31.6513
 32.0131
 32.6437
 32.6703
 32.7379
 32.7468
 32.0157
 31.9895
 32.0946
 31.9601
 32.5021
 32.3856
 32.4137
 32.4659
 32.6379
 32.6866
 32.6753
 32.6478
 32.2746
 32.3141
 32.1965
 32.2038
 32.5629
 32.4251
 32.5277
 32.5237
 32.3024
 31.8253
 31.8847
 31.8802
 31.9027
 31.9519
 31.8847
 31.9213
 31.8561
 31.867
 31.7575
 31.9131
 31.4315
 31.4058
 31.4568
 32.2009
 32.1954
 32.1703
 32.2048
 30.2356
 29.8407
 30.1367
 31.6611
 31.7249
 31.5149
 31.5597
 31.6406
 31.617
 32.8327
 32.8756
 32.8748
 31.047
 31.0916
 31.0225
 31.1376
 31.9508
 32.0207
 31.9848
 31.9054
 32.2893
 32.494
 32.339
 32.3405
 32.8408
 32.8267
 32.7891
 32.8695
 31.92
 31.9586
 31.8803
 31.9376
 31.6068
 31.5711
 31.6294
 31.4714
 32.4842
 32.5453
 32.3658
 32.5156
 32.5521
 32.5726
 32.5829
 31.6486
 31.6326
 31.5037
 31.6029
 32.3783
 32.4158
 32.4602
 32.4731
 31.1417
 31.207
 31.3145
 31.1755
 32.4841
 32.4496
 32.4751
 32.4888
 32.6344
 32.6024
 32.6648
 32.5761
 31.9045
 31.9118
 31.8424
 31.9158
 32.5631
 32.4633
 32.5105
 32.4813
 31.1198
 30.9413
 31.0853
 32.1167
 32.1305
 32.0499
 32.069
 32.8128
 32.821
 32.7746
 32.8818
 32.3956
 32.2869
 32.3709
 32.3926
 32.5246
 32.6057
 32.5236
 32.5585
 31.8241
 31.8384
 31.7158
 31.7779
 32.8364
 32.797
 32.9018
 32.8693
 32.5246
 32.5372
 32.513
 32.5901
 30.0159
 30.0763
 29.9814
 29.976
 32.0626
 32.028
 32.1416
 32.178
 30.2981
 30.3108
 30.2443
 32.1805
 32.0964
 32.0732
 32.1698
 31.4874
 31.6648
 31.9676
 31.6863
 31.9453
 32.0454
 31.9611
 31.8843
 32.2528
 32.1004
 32.1964
 32.2312
 32.3565
 32.2997
 32.3968
 32.3147
 30.7953
 30.8531
 30.9526
 23.7355
 23.7487
 32.5433
 32.4843
 32.5647
 32.5583
 27.7736
 27.4088
 26.9082
 27.2792
 32.2768
 32.3026
 32.1677
 32.1696
 32.6936
 32.2471
 32.1947
 32.1635
 32.084
 32.1958
 32.125
 32.1255
 32.0761
 31.8798
 31.8913
 31.7926
 31.9113
 30.101
 30.1125
 32.3865
 32.3603
 32.2255
 32.3359
 32.6484
 32.7583
 32.6792
 32.7298
 32.3086
 32.2561
 32.2292
 32.3397
 32.9898
 32.9436
 32.9022
 32.9759
 31.9503
 32.044
 31.8583
 31.551
 31.6039
 31.5942
 31.6411
 30.8914
 30.8683
 30.853
 32.3799
 32.3454
 32.3431
 32.4107
 31.3858
 31.5158
 31.5225
 31.5491
 30.8242
 30.5833
 30.6922
 30.7966
 32.4076
 32.2766
 32.3514
 32.4044
 32.8705
 32.7977
 32.8376
 32.8227
 31.4874
 31.5239
 31.548
 31.4002
 32.2896
 32.2276
 32.3515
 32.383
 26.6411
 26.3392
 26.1473
 26.4642
 32.5951
 32.6226
 32.5987
 32.6773
 32.7245
 32.6466
 32.7331
 32.651
 32.1459
 32.0807
 32.1599
 32.2694
 31.2742
 31.0842
 31.0534
 30.9909
 32.6772
 32.7432
 32.6031
 32.5363
 32.3835
 32.3222
 32.2747
 29.8609
 29.7416
 29.6272
 29.6498
 32.3605
 32.2841
 32.3944
 32.26
 32.3016
 32.3759
 31.7461
 31.4981
 31.3355
 31.7663
 31.7837
 31.8778
 31.9971
 31.471
 23.8852
 23.1152
 23.128
 24.452
 31.874
 31.9775
 31.7982
 31.8908
 31.04
 32.5516
 32.5388
 32.513
 32.5989
 32.7011
 32.6369
 32.7632
 31.9055
 32.1015
 31.9987
 32.0132
 26.4557
 26.4523
 26.6697
 25.9161
 30.8161
 31.0545
 31.0956
 32.699
 32.7183
 32.695
 32.3783
 32.3397
 30.6571
 30.785
 30.8025
 31.3022
 31.5078
 31.1028
 32.3715
 32.3874
 32.4432
 31.3419
 31.2253
 31.2764
 32.1111
 32.1054
 32.0071
 32.1265
 32.072
 32.0673
 32.1422
 29.917
 29.5462
 31.2967
 31.4354
 31.2753
 31.311
 28.2088
 28.1434
 27.7689
 28.5004
 31.5045
 31.4167
 23.1465
 22.9756
 24.601
 24.6205
 24.7561
 32.5518
 32.54
 32.4906
 31.2597
 31.4224
 31.4286
 32.3166
 32.2766
 32.2076
 32.028
 32.0458
 32.0722
 32.15
 32.1029
 31.7342
 30.0205
 30.0567
 30.1504
 30.1789
 32.8234
 32.8746
 32.7876
 32.9016
 32.2442
 32.3124
 32.2404
 32.0138
 32.0237
 32.0729
 32.0316
 32.5501
 32.6012
 32.6594
 32.6636
 32.5228
 32.4411
 32.4103
 32.4198
 32.0569
 32.1495
 32.0996
 31.998
 32.843
 32.1474
 32.2763
 32.1712
 32.1267
 31.218
 31.1544
 31.2094
 31.3094
 31.8961
 31.5243
 31.4784
 31.8187
 31.3031
 31.2608
 31.3139
 31.3372
 22.6869
 22.9562
 22.8526
 31.2164
 31.2747
 31.0665
 31.1892
 31.7606
 31.6908
 31.5241
 31.5406
 32.0583
 32.1517
 32.0986
 32.022
 31.5883
 31.647
 31.0201
 31.1577
 30.9876
 31.8193
 31.9544
 31.913
 32.0031
 31.731
 31.632
 31.674
 30.4471
 30.5826
 30.2384
 30.101
 31.9652
 32.0822
 32.025
 32.0834
 32.5526
 32.5512
 32.5299
 32.5165
 32.6024
 32.5942
 32.6475
 32.6517
 30.8846
 31.0083
 32.5812
 32.5711
 32.516
 32.9358
 32.9707
 32.9887
 32.9161
 32.3608
 32.4143
 32.2173
 32.2349
 32.2405
 32.1765
 32.1803
 32.1303
 32.459
 32.4846
 32.3632
 32.4324
 31.9909
 31.865
 32.1645
 32.0594
 32.0734
 32.4414
 32.4871
 32.4268
 32.4155
 29.3385
 29.005
 29.0343
 29.0482
 32.8503
 32.6877
 32.6492
 27.031
 27.0427
 27.378
 32.4986
 32.4566
 32.3341
 32.5277
 31.9767
 32.206
 31.9657
 32.7201
 32.3338
 32.3083
 32.2062
 32.8988
 32.9598
 32.9906
 32.9316
 31.2123
 31.2113
 31.8617
 31.5714
 32.9749
 32.94
 32.9688
 32.9566
 31.8211
 31.8875
 30.7788
 30.8682
 30.9369
 30.7764
 32.1822
 32.2788
 32.1793
 32.3505
 32.5878
 32.6079
 32.5825
 32.6242
 31.1135
 31.1026
 30.9318
 31.1716
 31.2854
 31.2265
 31.2092
 32.7772
 32.7399
 32.7764
 32.7361
 30.329
 30.2772
 30.5069
 32.7812
 32.79
 32.7777
 32.7485
 30.3562
 30.0742
 30.4982
 29.9886
 32.3441
 32.365
 32.3438
 32.5308
 30.18
 30.1926
 30.1118
 30.2385
 31.9789
 32.008
 32.0522
 32.0538
 31.1517
 31.284
 31.1613
 31.2356
 32.4385
 32.4544
 32.4799
 32.4517
 32.3067
 32.2904
 32.3297
 32.3064
 32.4964
 32.4464
 31.8762
 31.7052
 31.7189
 31.7341
 32.7495
 32.793
 32.8121
 32.8388
 32.6544
 32.6459
 32.6755
 32.6598
 30.7811
 31.0244
 30.7516
 32.4095
 32.383
 32.3709
 22.4062
 22.7561
 22.4501
 22.6018
 31.9722
 31.9797
 30.4208
 30.4
 30.2975
 29.9816
 32.3813
 32.4137
 32.3834
 32.4444
 26.9918
 27.5127
 27.7772
 27.2878
 31.4491
 31.3544
 31.0363
 32.4856
 32.4314
 32.4316
 32.4661
 31.5471
 31.6868
 31.4663
 31.1442
 31.1153
 30.8895
 30.9746
 32.4136
 32.4268
 32.4336
 32.4579
 32.0227
 31.7661
 24.6918
 24.8738
 31.8347
 31.696
 32.6251
 32.5834
 32.6016
 32.5931
 32.4094
 32.3882
 32.4283
 32.3167
 32.4694
 32.5075
 32.4827
 32.4598
 30.432
 29.8774
 30.284
 30.1865
 32.6022
 32.6475
 32.6314
 30.4871
 30.4692
 30.5519
 30.5455
 31.4591
 31.4213
 31.3593
 31.457
 32.5054
 32.5067
 32.5485
 32.6033
 31.0911
 31.1904
 31.0042
 32.8251
 32.8063
 32.8283
 32.7937
 30.3359
 30.2597
 30.3626
 31.166
 31.4475
 31.3453
 31.2763
 31.5236
 31.4643
 31.6729
 31.5307
 32.9846
 32.9595
 33.0076
 32.9349
 31.2365
 31.323
 31.4677
 31.3766
 32.6236
 32.4448
 32.4233
 32.6082
 32.6631
 32.5826
 32.629
 32.6427
 32.6566
 32.6354
 31.5843
 31.665
 31.5836
 31.6273
 32.4748
 32.4177
 32.5211
 32.4052
 32.8733
 32.8798
 32.7738
 32.9149
 29.8029
 29.7713
 30.9976
 30.789
 31.2502
 31.2632
 23.7819
 23.6734
 23.4336
 23.8252
 32.242
 32.1931
 32.2307
 32.237
 31.8641
 31.7005
 31.6686
 31.6748
 32.6006
 32.6492
 32.6127
 32.6487
 29.1852
 28.8723
 29.058
 28.8122
 32.636
 32.658
 32.672
 32.6725
 32.4779
 32.0392
 32.2222
 32.139
 32.1335
 32.8025
 32.792
 32.8124
 32.7488
 32.5194
 32.5284
 32.5865
 32.5425
 32.2203
 32.1173
 32.1619
 32.1474
 31.2971
 31.088
 31.5155
 31.8057
 31.7807
 31.7278
 31.92
 32.4054
 32.3568
 32.3764
 32.3647
 31.9442
 31.8807
 31.8338
 32.4901
 32.5246
 32.4594
 32.5486
 32.0035
 31.9222
 31.9633
 31.8887
 30.9348
 31.067
 30.8306
 25.2065
 24.2281
 23.7692
 32.2264
 32.1049
 32.1477
 32.7586
 32.663
 32.7354
 32.6932
 32.5436
 32.4818
 32.5038
 32.3697
 32.863
 32.7867
 32.7785
 32.7952
 25.871
 26.3243
 25.4139
 26.2289
 32.4716
 32.481
 32.4712
 32.4743
 32.7707
 32.81
 32.5635
 32.6134
 31.4415
 31.4947
 32.0524
 31.7284
 31.8999
 31.9246
 32.426
 32.5007
 32.4744
 32.4219
 31.2558
 31.6145
 32.5709
 32.5681
 30.7684
 22.7213
 22.8826
 22.691
 22.5237
 28.9296
 29.3601
 30.9861
 30.8873
 30.9774
 30.103
 30.5173
 30.8588
 30.451
 32.33
 32.2902
 32.1258
 32.0599
 32.07
 32.1135
 32.2527
 32.3959
 32.413
 32.0978
 32.1572
 32.1424
 32.0119
 32.4989
 32.4631
 32.5903
 32.5218
 31.8693
 31.8486
 31.7673
 32.5839
 32.5417
 32.6111
 32.5162
 32.6616
 31.7503
 31.9126
 31.7987
 31.8353
 30.19
 30.1462
 30.2929
 30.4777
 32.7719
 32.7535
 32.6067
 32.6583
 32.1649
 32.3191
 32.2057
 32.2639
 23.0312
 23.0608
 23.155
 23.1017
 30.9002
 30.9959
 32.5246
 32.5746
 32.5361
 32.4948
 32.6593
 32.5701
 32.6456
 32.6672
 32.0807
 31.9303
 31.94
 32.1111
 32.673
 32.6997
 32.7047
 32.6936
 30.4925
 30.6199
 30.8645
 30.8938
 31.1478
 31.2448
 31.1069
 32.7579
 32.673
 32.6932
 32.733
 32.2207
 32.0857
 32.3167
 30.6448
 30.5486
 30.652
 30.7097
 25.2066
 24.858
 24.8414
 32.6256
 32.6396
 32.6612
 32.6042
 32.6675
 32.656
 31.6142
 31.5937
 31.6719
 31.4924
 32.2384
 32.2847
 32.2699
 32.3307
 31.3809
 31.718
 31.4594
 28.2952
 32.5813
 32.4719
 32.5085
 32.559
 32.6319
 32.6153
 32.5941
 32.4839
 32.5428
 32.4829
 32.4633
 32.2432
 32.3483
 32.2786
 32.314
 32.5449
 32.5147
 32.5023
 32.4881
 32.5555
 32.4602
 32.6942
 32.7008
 32.6739
 32.6481
 31.4671
 31.3809
 32.3504
 32.4336
 32.4434
 32.4447
 32.3905
 32.3596
 32.3577
 32.2551
 32.5338
 32.491
 32.514
 32.5586
 32.6439
 32.6461
 32.7609
 32.8096
 32.7936
 32.7589
 32.1991
 32.1112
 32.1625
 32.1732
 32.5893
 32.4888
 32.5595
 32.4869
 30.9455
 31.2373
 31.2299
 31.4012
 32.0408
 32.0994
 32
 32.0893
 24.3753
 24.4608
 24.5082
 24.0846
 32.2764
 32.1567
 32.5333
 32.6295
 32.5697
 32.5785
 32.6004
 32.6299
 32.6273
 32.6539
 32.626
 32.5779
 32.5176
 32.6297
 32.5894
 32.6163
 32.0652
 32.073
 31.1502
 31.1189
 31.0967
 31.0975
 30.482
 32.552
 32.5502
 32.5577
 32.5934
 33.0653
 33.0778
 33.0084
 32.9521
 32.0074
 31.9758
 31.8853
 31.8655
 32.2348
 32.3397
 32.2903
 32.3886
 32.4766
 32.5018
 32.4906
 32.4586
 30.5602
 30.422
 30.6816
 30.673
 30.4485
 32.5193
 32.5669
 32.4817
 32.5184
 32.5562
 32.6628
 32.4426
 32.6687
 31.2321
 31.2175
 31.0303
 31.2151
 31.8932
 31.9798
 32.1826
 32.0933
 32.5905
 32.5495
 32.5355
 32.5193
 30.9334
 30.6759
 30.6405
 30.7993
 32.8697
 32.8697
 32.9352
 32.1657
 32.182
 32.2041
 32.1282
 26.8618
 27.1734
 32.7392
 32.7498
 32.7137
 32.9616
 32.9073
 32.9195
 32.8992
 30.2118
 30.4902
 30.6251
 29.0187
 29.2057
 29.3371
 29.0957
 32.5476
 32.6152
 32.4673
 32.4565
 32.7319
 32.7889
 32.764
 32.1249
 32.3219
 32.219
 32.7028
 32.7106
 32.7039
 31.7941
 31.8433
 31.7466
 23.9789
 23.7169
 23.7142
 23.9854
 31.4707
 31.4204
 31.501
 31.4163
 32.372
 32.2353
 32.7138
 32.6176
 31.4228
 31.4499
 31.3153
 31.5799
 32.5441
 32.6548
 32.5444
 31.9418
 31.8856
 31.9088
 31.887
 31.7169
 31.8574
 30.4012
 30.4732
 30.3081
 32.6183
 32.5857
 32.5986
 31.8126
 31.5907
 31.7602
 30.3869
 30.4636
 30.4419
 30.1056
 32.5605
 32.5983
 32.5327
 32.6079
 32.4868
 32.3657
 32.3909
 32.4859
 32.2054
 32.195
 32.2487
 32.1769
 32.1958
 32.2886
 32.2441
 32.3459
 32.6955
 32.6011
 32.7193
 32.6179
 32.6623
 32.6837
 32.6238
 32.4892
 32.5108
 32.3933
 30.4425
 30.5051
 30.4292
 32.701
 32.8305
 32.8248
 32.3141
 32.2615
 32.3414
 32.7655
 32.7931
 32.6684
 32.2822
 32.099
 32.1532
 30.2623
 30.3766
 30.284
 30.2697
 32.5815
 32.7033
 32.7011
 32.6913
 32.3316
 32.273
 32.1476
 31.1713
 31.4377
 32.5443
 32.6118
 32.5079
 32.5359
 32.4573
 32.3854
 32.5121
 32.5311
 31.3691
 31.5579
 31.6742
 31.8153
 30.8378
 30.5122
 30.6943
 30.556
 28.579
 28.3519
 28.51
 28.1915
 31.3269
 31.29
 31.8832
 32.0119
 31.9321
 31.8562
 31.2507
 32.243
 32.3105
 32.1877
 32.6889
 32.6904
 32.6828
 32.708
 31.1895
 31.0778
 32.8602
 32.8356
 32.7379
 30.1372
 30.3175
 31.972
 31.9862
 31.8781
 32.0718
 31.5759
 31.6382
 31.4231
 31.5867
 32.2656
 32.2071
 32.2719
 32.2356
 32.2857
 32.3037
 31.505
 31.5377
 31.4895
 31.484
 32.1744
 31.88
 32.0777
 32.1302
 32.1967
 32.2526
 32.3114
 32.2142
 32.2647
 32.0575
 31.9904
 32.2662
 31.0533
 31.1874
 31.0531
 31.2979
 31.131
 31.2183
 31.273
 30.279
 30.3115
 30.2464
 32.6955
 32.7361
 32.5786
 32.9319
 31.2485
 31.1434
 31.1904
 32.0725
 31.9628
 31.999
 31.9224
 32.3318
 31.5305
 31.4508
 31.6582
 31.563
 29.8038
 29.8718
 30.0808
 29.8387
 32.5964
 32.7162
 32.6284
 32.6067
 32.6951
 32.7342
 32.6398
 31.0856
 30.743
 30.9906
 30.4792
 32.5557
 32.6446
 32.5071
 31.6743
 31.5879
 24.0604
 23.7312
 24.1389
 24.5206
 28.737
 27.5892
 27.6181
 31.4661
 31.5066
 31.4668
 31.5945
 31.6537
 31.5817
 29.1125
 29.1636
 28.7785
 29.3683
 32.4359
 32.4546
 32.4607
 32.4914
 32.6566
 32.6261
 32.6289
 32.6479
 32.5172
 32.5597
 32.4704
 32.4859
 32.6386
 32.6917
 32.66
 32.6724
 31.3503
 30.5136
 30.3825
 30.5277
 30.4454
 31.4377
 31.5062
 31.3902
 32.8589
 32.8502
 32.904
 32.9438
 30.546
 30.8266
 30.9308
 32.5023
 32.555
 32.559
 32.5167
 32.7572
 32.2328
 32.2265
 32.1014
 32.1574
 31.986
 32.0822
 31.9978
 32.6349
 32.6894
 32.7627
 31.3671
 31.419
 31.5145
 31.4276
 32.6156
 32.5457
 32.6049
 23.0304
 23.0695
 22.8209
 32.6293
 32.6271
 32.5867
 32.6225
 32.2888
 32.1576
 32.2626
 32.6825
 32.6791
 31.9516
 31.8591
 32.0028
 31.9494
 32.3095
 32.2039
 32.2459
 32.2846
 31.1525
 31.1966
 31.279
 31.3644
 32.8482
 32.87
 32.8719
 32.8162
 32.1215
 32.2005
 32.1906
 32.1856
 31.9759
 31.889
 31.8057
 31.7286
 31.9154
 31.5589
 31.6502
 32.5883
 32.586
 32.2676
 32.1681
 32.2718
 32.2261
 32.4317
 32.4076
 32.4455
 32.3897
 32.6416
 32.6668
 32.6334
 32.6488
 32.6027
 32.6468
 32.5847
 32.6739
 32.6792
 32.6722
 32.6801
 32.6874
 32.6626
 32.635
 32.6472
 31.9324
 31.9886
 31.9655
 31.6253
 31.6398
 31.65
 31.5165
 32.158
 32.1441
 32.0576
 32.3699
 32.2113
 32.3237
 25.5725
 25.2406
 25.1601
 32.4762
 32.4682
 32.4517
 32.0492
 32.0143
 32.1008
 32.0585
 32.4859
 32.4963
 32.5154
 32.7705
 32.8004
 32.5982
 32.813
 32.4865
 32.6153
 32.6065
 32.5736
 32.9718
 32.9325
 32.9589
 32.943
 31.3514
 31.458
 31.3976
 31.25
 32.5069
 32.8328
 32.8855
 32.8458
 32.9356
 30.1543
 30.2671
 30.2637
 30.2765
 30.1611
 30.4173
 30.2456
 30.4278
 30.7444
 30.9004
 30.8192
 30.6696
 32.4741
 32.5543
 32.3941
 32.3401
 31.9645
 31.8072
 31.9364
 31.9425
 30.8222
 30.9296
 30.8847
 30.9434
 28.2049
 28.3997
 28.6686
 28.6389
 32.0784
 32.116
 32.1189
 29.7592
 29.4892
 29.1742
 29.3214
 31.1034
 30.9448
 31.2934
 30.4937
 30.4726
 32.8505
 32.8384
 32.8233
 32.8162
 31.7419
 31.8058
 31.8272
 31.5661
 31.593
 31.5274
 31.6384
 30.8727
 30.702
 31.0885
 31.0076
 31.1066
 31.967
 31.9734
 31.9178
 31.9166
 31.0528
 30.8858
 31.1515
 31.3304
 31.2695
 31.4291
 31.2282
 32.2341
 32.2137
 32.2866
 32.1676
 31.3265
 30.9535
 31.0567
 31.3576
 29.2085
 29.8921
 29.6364
 29.458
 26.6389
 26.7514
 26.2649
 26.3127
 32.5644
 32.5014
 32.5711
 32.4735
 32.412
 32.4212
 32.3739
 32.2363
 31.2886
 31.4504
 31.2908
 22.8342
 23.0628
 22.9804
 23.2403
 28.9265
 29.3781
 29.0893
 29.3885
 31.4839
 31.2631
 31.3917
 31.3891
 32.869
 32.9159
 32.8671
 31.8627
 31.7721
 31.7235
 31.6566
 31.6876
 31.3842
 31.2171
 31.3796
 31.3735
 31.2504
 31.6271
 31.6452
 31.6467
 31.7733
 31.8839
 31.9516
 32.0691
 31.9858
 32.619
 32.5688
 32.5939
 32.4811
 32.1667
 32.1513
 32.1186
 32.0248
 32.692
 32.673
 32.6616
 32.6953
 28.0042
 28.4481
 28.4474
 28.3275
 31.7477
 31.9371
 31.8252
 31.8531
 31.077
 32.483
 32.4985
 32.4666
 32.4773
 31.6176
 31.5695
 31.5783
 31.4876
 30.3727
 30.3828
 30.3781
 30.3988
 31.2783
 31.1861
 31.3034
 31.3486
 32.8353
 32.7911
 32.4556
 32.3934
 32.4587
 32.4727
 32.2313
 32.3201
 32.3221
 32.3508
 32.6168
 32.5524
 32.5367
 32.2654
 32.3126
 32.2799
 32.1901
 32.1642
 32.284
 32.3231
 32.0237
 32.0691
 31.9829
 32.0398
 31.2483
 30.9189
 30.937
 32.8083
 32.8623
 32.8469
 32.8505
 27.657
 28.2893
 28.7753
 28.1251
 27.6953
 31.1581
 31.3424
 31.1353
 31.3492
 32.9361
 32.8893
 32.9436
 32.9271
 31.465
 31.4148
 32.7406
 32.7662
 32.7936
 31.6797
 31.4604
 31.8091
 31.7714
 31.2688
 31.2536
 31.249
 31.1964
 30.6096
 30.7729
 30.6831
 31.7792
 31.6792
 31.8366
 31.6996
 32.6246
 32.6731
 32.6127
 32.5039
 32.4636
 32.2594
 32.3216
 32.2592
 31.5428
 31.7921
 31.6878
 31.6574
 32.1191
 32.7367
 32.6748
 32.624
 32.7149
 31.5612
 31.515
 31.6183
 31.3558
 31.389
 31.4168
 31.4733
 32.5448
 32.5513
 32.5978
 32.5752
 30.8474
 30.8382
 30.8148
 30.9446
 32.2722
 32.5061
 32.5719
 32.6092
 32.5326
 32.9174
 32.9199
 32.9751
 32.8648
 26.6519
 27.0568
 27.2153
 26.5357
 32.4815
 32.4634
 32.4791
 32.4568
 32.537
 32.5366
 32.5392
 32.5778
 32.8739
 32.8526
 32.9012
 31.7701
 31.8938
 31.9465
 32.8058
 32.7488
 32.7029
 32.7979
 31.5737
 31.4081
 31.4916
 32.6135
 32.5513
 32.671
 32.6747
 32.682
 32.596
 32.5589
 32.5453
 32.9753
 32.954
 32.8948
 32.9235
 31.7854
 31.7104
 31.706
 32.3291
 31.5558
 32.5732
 32.4976
 32.5189
 32.6587
 31.2019
 31.2087
 30.9434
 31.8291
 31.9365
 32.0746
 32.6364
 32.6797
 32.6671
 32.5521
 32.578
 32.5036
 32.5169
 32.6474
 32.6651
 32.6936
 32.7386
 22.6458
 22.6567
 22.5223
 32.1419
 32.2688
 32.1289
 32.9041
 32.834
 31.7408
 31.9329
 31.9085
 31.8993
 32.4444
 32.3921
 32.4275
 26.9828
 27.1155
 26.6591
 26.8909
 32.7268
 32.799
 32.8901
 32.4776
 31.2225
 31.0374
 30.9371
 30.8116
 32.5478
 32.6409
 32.6058
 32.5747
 32.4307
 32.2526
 32.4134
 32.2524
 27.9295
 27.9865
 27.9037
 32.2247
 32.2106
 32.1349
 32.1818
 32.3497
 32.2632
 32.2796
 32.2941
 32.9079
 32.9148
 32.8826
 32.9026
 31.4635
 31.3331
 31.4972
 32.4579
 32.3832
 32.4259
 32.4073
 31.7869
 31.5665
 31.8369
 31.6226
 30.4658
 30.7729
 30.6991
 30.3202
 31.5259
 31.4352
 31.4661
 31.4259
 30.6687
 30.896
 30.7979
 30.9088
 31.3929
 31.2091
 31.4612
 31.4623
 32.6604
 32.5379
 32.6149
 32.5641
 32.3611
 32.3907
 32.4342
 32.3565
 30.6342
 30.5642
 30.5689
 30.5844
 32.836
 32.8569
 32.9105
 30.5116
 30.208
 30.3543
 30.7463
 30.5461
 30.4001
 30.4823
 30.3917
 31.415
 30.9135
 32.5265
 32.5367
 32.4788
 32.5558
 30.848
 30.9641
 30.9143
 30.9205
 32.4917
 32.4182
 32.4449
 32.3991
 31.2413
 30.9768
 30.9981
 32.4905
 32.5385
 32.5704
 32.4922
 32.6892
 32.8243
 32.6005
 32.7867
 31.6719
 31.6863
 31.691
 31.8487
 30.4453
 30.9422
 30.6526
 32.0187
 31.9293
 31.885
 31.9705
 32.1473
 32.0693
 32.204
 32.5863
 32.4793
 32.4907
 32.6458
 32.7327
 32.8343
 32.7656
 31.9159
 32.1107
 32.1974
 32.002
 32.448
 32.3982
 32.5281
 31.2879
 31.2142
 30.967
 32.7485
 32.6649
 32.7381
 31.9779
 32.1167
 32.0933
 32.313
 32.3647
 32.3246
 32.3553
 32.2711
 32.3702
 32.3196
 32.3325
 32.9218
 32.9107
 32.2599
 29.8211
 29.8934
 29.5364
 31.6043
 31.629
 31.7799
 32.3161
 32.3878
 32.3636
 32.3805
 32.0557
 32.7062
 32.7052
 32.6713
 32.7295
 32.6895
 32.632
 32.7191
 32.8828
 32.8294
 32.6411
 32.6705
 32.6567
 32.5832
 32.3683
 32.4511
 32.8177
 32.7647
 32.6959
 32.7324
 31.7765
 31.8638
 31.878
 31.7941
 31.7744
 31.6987
 31.5565
 31.6014
 31.2495
 31.494
 32.6197
 32.7556
 32.7156
 32.7212
 32.6784
 32.6595
 32.6605
 32.6403
 32.3512
 32.2909
 32.3884
 32.3896
 32.7185
 32.6743
 32.6571
 32.7009
 32.5252
 32.5615
 32.5215
 32.5184
 31.9728
 32.1073
 31.9986
 32.026
 31.5922
 31.7651
 31.842
 31.8933
 31.4847
 31.7095
 31.5454
 32.107
 32.0106
 31.896
 31.8872
 31.5537
 31.7147
 31.6791
 31.8276
 31.7296
 31.7937
 31.7027
 31.7412
 32.1113
 32.1899
 32.1681
 32.192
 32.3407
 32.3872
 32.3465
 32.331
 32.3647
 32.3448
 32.4065
 32.4704
 31.8505
 31.9494
 32.0053
 32.0628
 32.334
 32.3666
 32.316
 30.9051
 31.1353
 30.8464
 30.9478
 32.6852
 32.683
 32.6798
 32.6469
 32.2427
 32.2756
 32.3105
 32.2606
 32.2876
 32.3537
 32.2278
 32.2329
 32.2779
 32.6155
 32.6956
 32.6272
 32.17
 32.205
 32.1627
 32.0519
 27.8068
 27.9403
 28.244
 28.1265
 31.8932
 31.9391
 32.0786
 32.1292
 32.5289
 32.5879
 32.5908
 32.522
 31.5945
 31.61
 31.6681
 31.6323
 31.9492
 31.8633
 31.8436
 31.9581
 31.3409
 31.2979
 31.3057
 31.7139
 31.7087
 32.0429
 32.0756
 31.9904
 32.1106
 31.4557
 31.4924
 31.1398
 31.4148
 31.9817
 31.957
 32.5822
 32.7058
 32.6355
 32.6409
 32.5476
 32.5767
 32.6083
 32.5703
 31.5319
 31.5467
 31.3149
 32.4969
 32.5232
 32.489
 32.55
 30.6321
 30.667
 30.7678
 32.409
 32.3638
 32.3523
 32.4648
 31.7148
 31.8172
 31.7398
 31.7152
 32.3566
 32.2324
 32.2308
 32.5692
 32.5862
 32.5146
 32.5216
 32.4253
 32.6094
 31.9544
 32.0877
 32.4325
 32.4083
 32.4118
 31.8262
 31.9526
 32.0101
 31.7702
 31.6252
 31.5529
 31.6363
 31.6774
 32.7057
 32.6414
 32.7402
 26.1713
 25.5499
 25.4357
 26.1041
 31.0389
 30.9635
 32.6154
 32.6452
 32.7767
 32.6731
 32.6126
 32.9348
 32.9305
 32.9391
 32.4958
 32.4203
 32.4992
 32.4923
 31.7419
 31.6728
 32.6298
 32.6311
 32.624
 32.6032
 30.5197
 30.2144
 30.2178
 30.5188
 32.0191
 31.9364
 31.9809
 32.0207
 32.3524
 32.3304
 32.347
 23.2473
 23.083
 22.7785
 22.8106
 30.8977
 30.8821
 30.5369
 32.2346
 32.4228
 32.1952
 32.3482
 32.6258
 32.6247
 32.6572
 32.5969
 32.6875
 32.6601
 30.1444
 30.2794
 30.2213
 30.2698
 32.3741
 32.2837
 32.4217
 32.2269
 32.1497
 32.2585
 32.3513
 32.3834
 32.3241
 32.3444
 32.8861
 32.9114
 32.8261
 32.876
 32.0598
 31.9989
 31.8353
 32.3079
 32.4506
 32.3446
 32.3926
 32.0443
 31.9727
 31.8677
 32.0661
 31.9943
 32.0068
 32.041
 31.888
 30.2242
 29.9254
 30.1122
 29.9022
 32.6243
 32.632
 24.9099
 24.6319
 24.6982
 24.3751
 32.7012
 32.7199
 32.6325
 31.0996
 22.5266
 22.4191
 22.4703
 22.9802
 32.5128
 32.4692
 32.4761
 32.4713
 32.184
 32.3018
 32.2363
 31.9264
 31.886
 31.8107
 31.9753
 31.9961
 32.0252
 31.9339
 31.956
 31.8922
 31.8724
 31.9442
 31.976
 31.9466
 32.0624
 31.7875
 32.0952
 31.0708
 31.0821
 30.7837
 30.9394
 32.5191
 32.5254
 32.4605
 32.5252
 32.7363
 32.6345
 32.7765
 32.7136
 30.7528
 31.5662
 31.4746
 32.5947
 32.6044
 32.4258
 32.3348
 32.3842
 31.5751
 31.4266
 31.5203
 31.539
 32.498
 32.4992
 32.7008
 32.7132
 27.0465
 27.4435
 27.0336
 27.4871
 31.8136
 31.7379
 31.6044
 31.7429
 32.4037
 32.3331
 32.4221
 32.2998
 27.8967
 27.385
 27.7874
 27.9345
 30.8321
 30.9195
 30.7873
 30.8954
 31.6656
 31.8254
 31.4779
 31.5305
 31.6083
 31.4668
 32.0723
 32.0064
 32.4366
 32.4091
 32.3459
 22.5105
 22.752
 22.5459
 22.6569
 28.4447
 28.728
 28.8065
 28.4046
 31.6278
 31.5275
 31.6267
 31.6884
 32.2451
 32.0746
 32.1244
 32.8034
 32.8178
 32.8449
 32.7649
 32.0986
 32.2292
 32.0311
 31.9869
 31.6049
 31.5352
 31.6352
 31.515
 32.7805
 32.7474
 32.0192
 32.0291
 32.4549
 32.4117
 32.5349
 32.5191
 31.5312
 31.1377
 31.5651
 31.1775
 30.8389
 30.5934
 30.571
 22.8984
 23.4046
 23.3677
 23.2244
 32.2143
 32.279
 32.3049
 32.3758
 31.931
 31.8836
 32.0488
 31.9419
 32.0399
 31.9387
 31.8101
 31.8269
 32.0396
 31.6569
 32.2266
 32.2844
 32.2012
 32.5495
 32.6053
 32.506
 32.5866
 31.9908
 31.8577
 31.9732
 31.8638
 31.9841
 32.1286
 32.0868
 32.0211
 31.4009
 31.553
 32.5316
 25.5672
 25.8383
 26.0801
 26.2865
 32.177
 32.2165
 32.144
 28.4454
 28.1171
 28.2585
 28.054
 32.2689
 32.2709
 32.2216
 32.1549
 30.6796
 30.6761
 30.2944
 30.7704
 31.2654
 31.2021
 31.4427
 31.4911
 32.4669
 32.4081
 32.3955
 32.314
 32.3712
 32.2777
 32.1945
 32.6938
 32.6791
 32.6591
 32.7162
 32.4618
 32.6129
 31.7156
 31.6915
 31.7155
 32.5368
 32.5014
 32.4978
 25.4138
 25.5092
 25.978
 25.5991
 31.3169
 31.4972
 31.1261
 31.5848
 31.6433
 31.7773
 31.8195
 31.8368
 32.206
 32.2653
 31.9492
 32.3393
 32.0585
 32.4075
 32.5114
 32.5246
 32.6265
 32.5603
 32.6016
 32.6169
 31.8697
 31.7747
 31.8927
 31.9349
 31.3728
 31.4222
 32.7145
 32.6722
 32.7141
 32.7916
 32.1022
 32.1115
 32.1854
 32.5257
 32.5032
 32.6524
 32.5849
 32.7383
 32.6259
 30.4151
 30.2539
 32.5602
 32.6331
 32.4031
 32.2015
 32.2087
 32.3936
 32.5626
 32.4953
 32.6105
 32.5236
 32.5353
 32.5599
 32.5692
 29.8057
 29.8107
 29.6875
 30.2908
 28.3892
 28.3835
 28.6948
 28.5668
 32.3416
 32.348
 32.4124
 32.3706
 31.6177
 31.6024
 31.6586
 31.6637
 32.5788
 32.5667
 32.6448
 32.6334
 32.6639
 32.6429
 32.6498
 32.5651
 32.0008
 31.9746
 32.1409
 32.2599
 32.177
 32.1097
 31.4336
 31.605
 31.6344
 31.7113
 31.6518
 32.7721
 32.7557
 32.7909
 32.7969
 23.3171
 23.4449
 32.637
 32.5954
 32.6317
 25.145
 25.2463
 25.1068
 25.5758
 32.6546
 32.6745
 32.6606
 32.6907
 30.5178
 30.8808
 31.0206
 31.8237
 31.9004
 31.323
 31.3136
 31.3371
 31.5363
 31.5285
 31.5678
 31.0112
 31.4549
 32.1505
 32.1962
 24.3799
 24.019
 23.8673
 24.0885
 31.5653
 31.7483
 31.5695
 31.2996
 31.3367
 31.5013
 31.1697
 31.9331
 31.9055
 32.0286
 31.9077
 32.4546
 32.3928
 32.3995
 32.4447
 32.7571
 32.5611
 32.686
 32.4002
 32.4217
 32.4726
 32.4089
 32.1752
 32.2813
 32.0843
 32.3139
 30.5594
 30.5899
 31.3217
 31.3499
 31.3734
 32.6907
 32.725
 32.7379
 32.7362
 31.4881
 31.4588
 31.7507
 31.6839
 32.3801
 32.4632
 32.4494
 32.4176
 30.5322
 30.7778
 31.7955
 31.849
 31.7933
 31.8788
 32.2624
 32.3882
 32.33
 32.2453
 32.0412
 32.0481
 32.0103
 32.1093
 31.9967
 31.8648
 32.5858
 32.6059
 32.613
 32.6231
 28.2076
 28.2852
 28.2338
 28.3215
 30.5942
 30.8055
 30.523
 30.8348
 31.3685
 31.3048
 31.2101
 31.2493
 31.6678
 31.7187
 31.7591
 32.0675
 32.0175
 32.0107
 31.4007
 31.3137
 32.8386
 32.7528
 32.7079
 32.6664
 31.8463
 31.9394
 31.8575
 31.9448
 31.9321
 31.8452
 31.9193
 31.746
 29.6553
 29.9681
 29.9447
 32.0896
 31.9853
 31.9808
 32.114
 32.3672
 32.3796
 32.388
 32.4193
 31.4762
 31.5297
 31.6355
 31.2372
 30.1953
 29.7986
 30.4152
 32.5522
 32.6945
 32.5958
 32.6375
 32.6422
 32.6427
 32.6327
 32.7287
 32.7199
 32.6476
 32.719
 32.5165
 32.4908
 32.4738
 32.5408
 31.7476
 31.7858
 31.9205
 31.6429
 30.9409
 30.7025
 32.4734
 32.3712
 32.4651
 32.4577
 32.6587
 32.6878
 32.6569
 32.6745
 32.6474
 32.6809
 32.7012
 32.8941
 32.8683
 32.7651
 25.6282
 25.9277
 26.2162
 26.0269
 31.691
 31.5002
 31.5961
 32.7707
 32.7647
 32.6716
 32.7354
 32.4355
 32.411
 32.4328
 30.6226
 30.8231
 30.4816
 30.5879
 31.2707
 31.0257
 31.2238
 31.1721
 32.4189
 32.4387
 32.5168
 31.729
 31.5905
 32.1647
 32.2026
 32.0782
 31.1968
 31.1298
 31.2625
 31.1931
 31.5802
 31.198
 31.311
 31.3811
 32.5122
 32.5209
 32.542
 32.6107
 32.0288
 32.027
 32.0659
 32.1034
 31.4792
 31.5744
 31.4251
 31.7082
 32.0026
 32.1215
 32.1895
 32.2938
 32.0224
 32.1053
 32.1926
 32.1842
 31.9713
 32.0902
 31.8184
 31.8551
 31.7751
 32.909
 32.9181
 29.3616
 29.2645
 28.9961
 29.0053
 32.4497
 32.4854
 32.505
 32.4903
 28.9451
 28.8402
 29.0731
 32.6152
 32.6183
 32.6659
 32.6486
 32.5307
 32.6653
 32.3158
 32.3049
 32.4046
 32.3707
 32.4051
 32.3402
 32.403
 32.4315
 32.5552
 32.668
 32.5836
 32.501
 32.1803
 32.084
 32.0109
 32.0719
 31.3491
 31.3182
 31.384
 31.3788
 32.7205
 32.7295
 31.6581
 31.5944
 31.2271
 31.0794
 31.9734
 32.0534
 30.8749
 31.166
 30.9047
 26.51
 26.5671
 27.3818
 27.132
 25.7976
 26.2003
 25.9519
 33.0156
 32.9703
 32.9559
 32.9742
 32.3963
 32.4656
 32.4149
 31.6224
 32.0848
 32.1525
 32.0089
 32.1264
 31.5934
 31.7917
 31.3786
 31.5869
 32.1716
 32.0988
 32.1869
 32.1167
 32.5953
 32.7437
 32.756
 32.6149
 31.4495
 31.4941
 31.5082
 31.3939
 32.5998
 32.594
 32.6347
 32.6067
 31.9769
 32.0257
 31.8778
 31.9107
 32.0711
 32.4018
 32.5016
 32.4635
 32.5069
 29.5666
 29.4067
 29.5618
 29.6048
 32.3378
 32.2728
 32.2705
 32.1584
 31.6421
 31.6056
 31.6843
 31.5953
 31.4766
 31.4309
 31.4299
 31.5827
 31.7368
 31.6215
 31.5748
 32.6977
 32.7006
 32.7094
 32.6849
 31.6549
 31.6007
 31.5642
 31.5437
 31.3794
 31.1396
 31.1385
 30.9374
 32.5102
 32.5319
 32.5398
 32.593
 32.4627
 32.4598
 32.4661
 32.4497
 27.6138
 27.9912
 27.7573
 32.6127
 32.6392
 32.6278
 32.6027
 32.653
 31.518
 31.4342
 31.432
 31.407
 31.4295
 31.3258
 31.2514
 31.298
 32.3267
 32.3486
 32.3026
 32.3419
 31.9373
 31.9101
 31.8645
 31.9103
 32.349
 32.3822
 32.4043
 31.469
 31.4565
 31.4954
 31.6012
 31.3725
 31.3112
 31.3677
 31.3962
 31.4877
 31.332
 31.3075
 32.1874
 32.0889
 31.647
 31.6942
 31.6941
 31.6351
 31.4219
 31.7279
 31.7531
 32.2957
 32.2304
 32.3958
 32.3779
 32.4703
 32.8534
 32.8322
 32.8295
 32.8761
 32.5915
 32.67
 32.6024
 32.6975
 31.3612
 31.316
 31.8272
 31.7102
 31.7829
 31.719
 31.868
 31.7257
 31.7782
 31.6956
 32.0357
 32.1214
 32.0122
 32.1362
 32.1688
 32.1253
 32.124
 32.0903
 28.3372
 28.744
 31.6208
 31.5823
 31.5199
 30.2187
 30.2007
 30.2867
 31.7716
 31.5611
 31.4958
 31.696
 32.2335
 32.2834
 32.228
 32.1352
 32.5832
 32.5415
 32.5685
 32.5653
 31.0437
 31.1506
 31.0301
 30.9617
 32.6872
 32.696
 32.6836
 32.6978
 31.932
 31.8598
 31.9239
 32.2726
 32.2745
 32.8718
 32.9259
 32.8818
 32.8299
 32.6533
 32.7821
 32.5677
 32.7017
 31.0036
 31.0118
 31.0591
 32.5555
 32.4593
 32.5183
 32.4388
 32.5112
 32.5115
 32.5552
 31.7769
 31.795
 31.683
 31.8143
 31.4911
 32.7141
 32.7121
 32.7213
 32.6787
 32.2804
 32.2329
 32.243
 32.2487
 32.6281
 32.6917
 32.6972
 22.6383
 22.5472
 22.7895
 22.751
 31.7311
 31.8973
 30.6987
 30.4008
 32.6079
 32.5792
 32.6813
 32.6352
 25.778
 25.0036
 31.1523
 31.1069
 31.0715
 30.9838
 32.3291
 32.1302
 30.7698
 30.748
 30.8956
 30.8995
 32.6169
 32.6156
 32.6426
 32.6443
 31.8714
 31.754
 31.808
 31.9225
 31.8422
 31.7683
 31.9212
 31.8641
 32.5605
 32.446
 32.497
 32.5036
 31.7198
 31.6271
 31.6449
 31.5569
 32.6915
 32.6929
 32.6181
 32.7132
 31.5117
 31.6153
 31.5881
 31.6318
 32.4223
 32.3829
 32.3709
 31.8001
 31.7639
 31.4179
 31.715
 32.6049
 32.6665
 32.6587
 32.6601
 32.6435
 32.6698
 32.3127
 32.4259
 32.487
 32.4804
 32.4894
 32.4004
 32.3915
 31.3884
 31.39
 31.2515
 31.2333
 31.633
 31.556
 31.5097
 31.6418
 31.795
 31.6821
 31.5106
 31.5597
 30.2282
 30.1416
 30.1338
 30.1765
 31.3993
 31.0437
 31.1961
 31.1588
 29.768
 29.7921
 29.6733
 32.6414
 32.6398
 32.6213
 32.6314
 32.1464
 32.0912
 32.369
 32.2535
 32.3491
 32.3234
 32.0791
 31.9989
 32.127
 32.0473
 31.9262
 31.9522
 31.8782
 32.6573
 32.6628
 32.6504
 32.6621
 31.0888
 31.0822
 31.056
 30.9687
 32.4672
 32.4801
 32.5427
 32.495
 32.4791
 32.5406
 32.4682
 32.4758
 31.6217
 31.5464
 31.6389
 31.6718
 30.7579
 30.1702
 30.5465
 30.6664
 32.2836
 32.3966
 30.5008
 30.2939
 31.8683
 31.9274
 31.826
 31.7555
 32.7188
 32.7537
 32.7997
 32.8027
 29.0875
 29.3986
 29.1322
 30.8513
 30.8128
 30.5683
 30.6709
 32.4556
 32.3886
 32.6922
 32.6951
 32.6808
 32.6784
 32.4934
 32.5113
 32.4649
 32.6874
 32.621
 32.7993
 32.7448
 32.3522
 32.4157
 32.3201
 32.3572
 32.241
 32.3812
 32.3577
 32.3187
 29.489
 29.4596
 29.7263
 31.2505
 31.2198
 31.3276
 31.3225
 32.6002
 32.6114
 32.5855
 31.249
 31.3496
 31.4354
 31.5743
 31.5572
 31.6573
 31.5002
 32.0298
 32.1538
 31.9499
 31.9344
 32.0077
 31.5419
 31.6799
 31.6635
 31.5886
 32.4593
 32.4216
 32.4348
 31.3578
 31.3553
 31.351
 31.3397
 31.6213
 31.7167
 31.6845
 31.5442
 31.5572
 28.9969
 29.2754
 32.6277
 32.6165
 32.6496
 32.6264
 28.7028
 28.4312
 28.4508
 28.5395
 32.2633
 32.6688
 32.6047
 32.7154
 32.3259
 32.2553
 32.1541
 32.3031
 32.2831
 32.2753
 32.2323
 32.1043
 32.123
 32.1131
 32.656
 32.645
 32.6145
 31.9567
 31.8344
 31.9706
 32.0853
 31.6873
 31.7225
 31.8136
 31.8595
 31.6475
 31.5387
 32.3497
 32.4215
 32.3574
 32.3169
 29.9002
 30.4754
 29.7565
 30.2267
 32.0264
 32.028
 32.2815
 32.0283
 29.9549
 29.7956
 30.0844
 32.0265
 32.114
 31.9008
 32.2958
 32.3553
 31.6406
 31.6233
 31.6986
 31.0916
 30.836
 30.9448
 30.6721
 31.4797
 31.6334
 31.6529
 22.4112
 22.4391
 22.4684
 22.3871
 32.0996
 32.2375
 32.1145
 32.0536
 32.1343
 32.301
 32.0988
 32.3364
 32.6351
 32.6907
 32.7047
 32.6517
 32.0054
 32.0339
 32.1553
 32.0508
 31.7651
 31.7272
 31.8349
 31.8861
 32.6079
 32.6145
 32.5946
 32.2268
 32.2469
 32.1719
 32.616
 32.6808
 32.576
 32.4752
 32.4358
 32.4271
 32.3997
 32.3989
 32.7044
 32.6653
 32.6442
 29.7726
 30.5436
 29.9751
 30.0793
 32.7025
 32.7066
 32.7031
 32.681
 31.4135
 31.1768
 31.1409
 31.3788
 31.1215
 30.6183
 31.2267
 31.1254
 30.9602
 30.8081
 31.0159
 31.0097
 30.8499
 31.0006
 30.8724
 31.9872
 31.9592
 32.0761
 32.0511
 30.3594
 32.2598
 32.1166
 32.0928
 32.0142
 32.0472
 29.7012
 29.4367
 29.1951
 29.4289
 32.4158
 32.6527
 31.2145
 31.2649
 31.2326
 31.243
 22.4608
 22.7085
 22.5845
 32.4272
 32.3387
 32.3659
 30.0794
 30.001
 30.7311
 30.6586
 30.7889
 30.723
 32.5091
 32.3764
 32.4593
 32.4939
 32.0345
 31.9459
 31.9351
 32.5558
 32.5996
 32.5453
 32.581
 32.4561
 32.5525
 31.4383
 31.5258
 31.523
 31.4432
 32.6084
 32.5388
 32.5567
 32.5778
 31.7159
 31.6341
 31.7279
 31.6471
 32.8837
 32.8059
 32.7785
 32.8124
 32.2939
 32.2349
 32.2014
 32.3236
 31.9502
 32.0444
 31.9725
 31.7586
 31.7433
 31.4495
 31.8239
 31.8909
 32.5321
 31.3652
 31.2427
 31.2844
 31.2708
 32.6482
 32.6684
 32.7743
 32.7068
 32.6304
 32.573
 30.7687
 30.7758
 30.5129
 30.8444
 32.2252
 32.1682
 32.2627
 32.67
 32.6802
 32.6881
 32.6484
 30.9107
 31.0146
 31.0444
 30.9806
 31.873
 31.8651
 31.7124
 31.6792
 32.388
 32.5047
 32.5199
 32.4806
 32.4797
 32.5111
 32.475
 30.6789
 30.8974
 30.7817
 30.9186
 26.8566
 26.7431
 26.1524
 26.9536
 32.3543
 32.1579
 32.0322
 32.0025
 31.994
 31.9094
 32.4963
 32.0017
 32.1327
 32.1203
 32.1014
 32.2725
 32.24
 32.2919
 32.2908
 31.9271
 31.7225
 31.8288
 31.8453
 32.8669
 32.8978
 32.4244
 32.4818
 32.444
 32.4063
 32.5371
 32.5735
 32.6809
 26.2974
 26.5124
 25.8537
 26.3097
 30.6647
 30.5021
 30.5647
 30.6457
 32.1764
 32.2463
 32.2311
 31.5729
 31.6428
 31.3698
 31.7192
 32.2137
 32.4101
 32.3648
 23.5018
 23.1918
 23.0601
 23.2222
 32.0525
 32.0101
 31.9583
 31.9843
 32.0295
 32.0179
 30.4579
 30.3468
 30.3986
 30.153
 30.9132
 30.9141
 31.0264
 30.8089
 28.1564
 28.6408
 28.7809
 28.1098
 32.5879
 27.5988
 27.788
 27.6617
 28.0055
 32.2672
 32.3226
 32.3741
 32.3778
 31.0995
 31.243
 32.1183
 32.0845
 32.073
 32.17
 31.99
 31.9401
 32.0146
 31.9345
 31.0984
 31.0448
 31.0489
 30.9008
 22.4416
 22.3791
 22.6803
 32.5635
 32.4929
 32.5248
 32.5224
 31.9153
 31.9082
 31.9541
 31.9542
 26.3008
 26.6724
 26.879
 26.2149
 32.3467
 32.2267
 32.2139
 32.1525
 32.2422
 31.6141
 31.5641
 31.6128
 32.5049
 32.4416
 32.4505
 32.4815
 31.1812
 31.053
 31.0098
 31.0609
 32.6705
 32.6277
 32.6631
 32.6641
 32.6004
 31.8334
 31.584
 31.8605
 32.6615
 32.6683
 32.6637
 32.643
 32.7566
 32.7504
 32.6676
 32.7792
 32.3326
 32.1621
 32.1987
 29.8784
 27.3777
 27.793
 26.8957
 32.5329
 32.5315
 32.5306
 32.1556
 32.1554
 32.2215
 31.8485
 32.0294
 31.8291
 32.1946
 32.4101
 32.4837
 31.5308
 31.6086
 31.6161
 31.5905
 31.4182
 31.4344
 31.4443
 31.8149
 31.7402
 32.6288
 32.5531
 32.6006
 31.9349
 32.1068
 32.0079
 31.3821
 23.297
 23.2649
 23.4243
 23.3523
 32.3778
 32.3602
 32.4083
 32.3755
 24.2273
 24.2859
 24.7668
 24.188
 32.2868
 32.2234
 32.2288
 32.9708
 32.9208
 33.0149
 33.0053
 31.9914
 32.225
 31.8686
 31.92
 32.7347
 32.7411
 32.6778
 32.4556
 32.3489
 32.8239
 32.787
 32.7224
 32.9181
 32.3445
 32.4277
 32.3948
 31.3419
 31.3025
 31.3354
 32.7822
 32.6577
 32.66
 32.7441
 32.0839
 31.959
 32.0602
 32.0202
 30.6471
 30.7312
 30.6186
 30.7208
 32.7163
 32.7697
 30.5987
 30.7003
 30.7238
 32.4473
 30.2823
 30.5598
 30.8685
 30.7846
 31.8429
 31.9789
 31.9244
 31.9338
 32.2625
 32.3024
 32.2658
 31.7723
 31.6987
 30.0553
 30.1414
 29.8649
 30.2137
 32.2092
 32.2613
 30.2836
 30.122
 32.739
 32.7218
 32.7477
 29.2217
 28.9994
 29.4383
 32.1881
 32.2378
 32.1522
 32.2567
 31.835
 31.8106
 31.7758
 31.8549
 32.2866
 32.2612
 32.3028
 32.6199
 32.6351
 32.6751
 32.5582
 31.3824
 31.553
 31.5347
 31.5379
 26.7515
 26.7495
 26.4574
 32.6847
 32.6835
 32.6956
 32.1476
 32.0934
 32.3867
 32.3938
 32.4817
 32.4628
 25.6798
 26.0821
 25.9665
 25.8644
 31.5789
 31.6075
 31.6964
 31.8004
 32.1781
 32.1539
 32.1045
 32.1055
 31.9903
 32.0674
 32.02
 32.0982
 32.5792
 32.4961
 32.561
 32.5384
 30.8779
 30.7216
 30.7504
 30.9157
 31.4991
 31.6968
 31.4616
 25.6211
 25.4242
 25.6123
 32.6414
 32.5387
 32.2164
 32.1818
 32.232
 32.2392
 31.749
 31.8011
 31.6667
 31.6491
 32.291
 32.8549
 32.6945
 32.738
 32.7091
 32.7402
 22.447
 22.7331
 22.6616
 22.3793
 32.1374
 32.1905
 31.6585
 31.7875
 31.9272
 32.2476
 32.1967
 32.322
 32.3582
 30.3894
 30.2563
 32.6898
 32.6444
 32.5972
 32.7265
 31.1448
 30.8968
 31.9402
 31.9334
 31.803
