 -85.5774
 -85.5812
 -85.5804
 -85.5824
 -85.6406
 -85.6411
 -85.6426
 -85.6434
 -85.6262
 -85.6241
 -85.6266
 -85.6246
 -85.6289
 -85.6267
 -85.6262
 -85.6251
 -85.6628
 -85.6641
 -85.6618
 -85.6612
 -85.6597
 -85.6583
 -85.6608
 -85.6588
 -85.5633
 -85.5611
 -85.5617
 -85.5632
 -85.5668
 -85.5674
 -85.5674
 -85.5662
 -85.6594
 -85.6587
 -85.6568
 -85.6585
 -85.6589
 -85.6592
 -85.6586
 -85.6611
 -85.5547
 -85.5533
 -85.5555
 -85.5559
 -85.6251
 -85.6255
 -85.6233
 -85.6247
 -85.5894
 -85.5892
 -85.5872
 -85.5913
 -85.6444
 -85.6415
 -85.6402
 -85.6424
 -85.6154
 -85.6144
 -85.616
 -85.6177
 -85.5711
 -85.5691
 -85.5725
 -85.5693
 -85.6544
 -85.6555
 -85.6541
 -85.6559
 -85.6313
 -85.6298
 -85.6318
 -85.6303
 -85.6169
 -85.6178
 -85.6181
 -85.6196
 -85.651
 -85.651
 -85.6521
 -85.6533
 -85.5657
 -85.5625
 -85.5657
 -85.5636
 -85.6663
 -85.6667
 -85.6681
 -85.6679
 -85.5183
 -85.5167
 -85.5159
 -85.5187
 -85.6389
 -85.6396
 -85.6372
 -85.637
 -85.6124
 -85.6106
 -85.6125
 -85.6136
 -85.621
 -85.6217
 -85.6205
 -85.6198
 -85.6022
 -85.605
 -85.6064
 -85.6023
 -85.5696
 -85.5676
 -85.57
 -85.5695
 -85.5886
 -85.5878
 -85.5856
 -85.5872
 -85.6422
 -85.642
 -85.6407
 -85.6393
 -85.6137
 -85.6172
 -85.6128
 -85.6143
 -85.5899
 -85.592
 -85.5919
 -85.5899
 -85.6349
 -85.6327
 -85.6356
 -85.6332
 -85.6407
 -85.6397
 -85.6395
 -85.64
 -85.5906
 -85.5886
 -85.5912
 -85.5871
 -85.5746
 -85.5741
 -85.5738
 -85.5741
 -85.6327
 -85.6294
 -85.6324
 -85.6315
 -85.5532
 -85.5546
 -85.5549
 -85.556
 -85.6359
 -85.6359
 -85.6396
 -85.6385
 -85.6693
 -85.6681
 -85.669
 -85.6677
 -85.6236
 -85.6231
 -85.6242
 -85.6209
 -85.6403
 -85.6421
 -85.6412
 -85.6408
 -85.5587
 -85.5583
 -85.5603
 -85.557
 -85.6313
 -85.6299
 -85.6305
 -85.6329
 -85.659
 -85.6586
 -85.6603
 -85.6595
 -85.5834
 -85.5854
 -85.5845
 -85.5836
 -85.6329
 -85.6359
 -85.6351
 -85.6351
 -85.5721
 -85.5744
 -85.5722
 -85.5696
 -85.5931
 -85.5914
 -85.5907
 -85.5896
 -85.6174
 -85.6155
 -85.6149
 -85.6136
 -85.5684
 -85.5675
 -85.5667
 -85.5683
 -85.6193
 -85.6172
 -85.6173
 -85.6189
 -85.5957
 -85.5925
 -85.5956
 -85.5914
 -85.624
 -85.6253
 -85.6237
 -85.6254
 -85.5867
 -85.5889
 -85.5876
 -85.5907
 -85.6243
 -85.6238
 -85.6259
 -85.6225
 -85.6367
 -85.637
 -85.6382
 -85.6394
 -85.6397
 -85.6388
 -85.6399
 -85.6367
 -85.5835
 -85.5837
 -85.5801
 -85.5849
 -85.6004
 -85.5991
 -85.5996
 -85.6027
 -85.5239
 -85.5217
 -85.5202
 -85.5223
 -85.5882
 -85.5881
 -85.5857
 -85.5876
 -85.614
 -85.6171
 -85.6159
 -85.6165
 -85.5974
 -85.5968
 -85.6003
 -85.595
 -85.596
 -85.599
 -85.5957
 -85.5986
 -85.5691
 -85.5677
 -85.5699
 -85.5698
 -85.6528
 -85.6549
 -85.6555
 -85.6525
 -85.663
 -85.6636
 -85.6642
 -85.6646
 -85.6194
 -85.6222
 -85.6173
 -85.6188
 -85.5891
 -85.5885
 -85.5906
 -85.5878
 -85.6356
 -85.6367
 -85.6379
 -85.6354
 -85.5654
 -85.561
 -85.5623
 -85.5621
 -85.5648
 -85.5625
 -85.5622
 -85.5651
 -85.5201
 -85.5184
 -85.5212
 -85.5207
 -85.6251
 -85.6274
 -85.6262
 -85.6285
 -85.5822
 -85.585
 -85.5857
 -85.5823
 -85.577
 -85.5748
 -85.5775
 -85.5791
 -85.665
 -85.6664
 -85.6658
 -85.6666
 -85.5737
 -85.573
 -85.5711
 -85.5736
 -85.5781
 -85.5768
 -85.5749
 -85.5778
 -85.582
 -85.584
 -85.5821
 -85.58
 -85.6055
 -85.6048
 -85.6072
 -85.6067
 -85.5791
 -85.5818
 -85.5799
 -85.5807
 -85.5927
 -85.5944
 -85.5951
 -85.5934
 -85.6002
 -85.5996
 -85.5986
 -85.5976
 -85.5726
 -85.5699
 -85.5736
 -85.5707
 -85.5126
 -85.5119
 -85.5161
 -85.5161
 -85.5675
 -85.5683
 -85.5699
 -85.5686
 -85.6262
 -85.625
 -85.6273
 -85.6234
 -85.6269
 -85.6261
 -85.6283
 -85.6263
 -85.6389
 -85.6382
 -85.6374
 -85.6403
 -85.5649
 -85.5646
 -85.5651
 -85.566
 -85.6671
 -85.6671
 -85.6661
 -85.6682
 -85.6381
 -85.64
 -85.638
 -85.6384
 -85.5549
 -85.5548
 -85.5523
 -85.5524
 -85.5938
 -85.5938
 -85.5927
 -85.5972
 -85.5768
 -85.5783
 -85.5747
 -85.576
 -85.5777
 -85.5763
 -85.5765
 -85.5661
 -85.5657
 -85.5656
 -85.5648
 -85.6313
 -85.6298
 -85.6286
 -85.6322
 -85.6021
 -85.6056
 -85.6041
 -85.6022
 -85.6285
 -85.6309
 -85.6292
 -85.5882
 -85.5848
 -85.5868
 -85.5856
 -85.6099
 -85.6112
 -85.6107
 -85.6082
 -85.6492
 -85.6471
 -85.6472
 -85.6506
 -85.5661
 -85.5666
 -85.5704
 -85.5688
 -85.5732
 -85.5712
 -85.5702
 -85.5716
 -85.626
 -85.6236
 -85.6229
 -85.6237
 -85.636
 -85.6347
 -85.6384
 -85.6379
 -85.5589
 -85.5589
 -85.5577
 -85.5557
 -85.5714
 -85.572
 -85.576
 -85.5749
 -85.5984
 -85.6015
 -85.6032
 -85.5989
 -85.66
 -85.6614
 -85.6605
 -85.661
 -85.6252
 -85.6277
 -85.6283
 -85.6273
 -85.6101
 -85.6062
 -85.6099
 -85.61
 -85.5287
 -85.5249
 -85.529
 -85.5285
 -85.6054
 -85.6029
 -85.6062
 -85.6078
 -85.6488
 -85.6467
 -85.6488
 -85.6457
 -85.5802
 -85.5763
 -85.5821
 -85.5806
 -85.575
 -85.5756
 -85.5729
 -85.5744
 -85.5736
 -85.571
 -85.5716
 -85.5724
 -85.5512
 -85.5509
 -85.5509
 -85.5519
 -85.5769
 -85.5731
 -85.5733
 -85.5733
 -85.6272
 -85.6267
 -85.6271
 -85.6254
 -85.5624
 -85.5634
 -85.5643
 -85.5651
 -85.6581
 -85.6565
 -85.6574
 -85.658
 -85.5639
 -85.5607
 -85.5611
 -85.5635
 -85.6484
 -85.6454
 -85.6484
 -85.6466
 -85.6045
 -85.6021
 -85.6022
 -85.6038
 -85.5935
 -85.5957
 -85.5968
 -85.5941
 -85.5853
 -85.5855
 -85.5886
 -85.586
 -85.5804
 -85.5803
 -85.5785
 -85.5776
 -85.6659
 -85.6671
 -85.6675
 -85.6675
 -85.5828
 -85.5815
 -85.5827
 -85.5818
 -85.6693
 -85.6683
 -85.6689
 -85.6675
 -85.637
 -85.6365
 -85.6393
 -85.6372
 -85.5385
 -85.5418
 -85.5412
 -85.5381
 -85.6614
 -85.6609
 -85.6624
 -85.6631
 -85.5712
 -85.5744
 -85.5719
 -85.5695
 -85.5358
 -85.5341
 -85.5335
 -85.5354
 -85.6448
 -85.6444
 -85.6434
 -85.6445
 -85.6635
 -85.665
 -85.6641
 -85.6637
 -85.6166
 -85.6175
 -85.6161
 -85.6156
 -85.6414
 -85.6391
 -85.6421
 -85.6398
 -85.5771
 -85.5742
 -85.5757
 -85.5753
 -85.6224
 -85.6214
 -85.6225
 -85.6248
 -85.5924
 -85.5909
 -85.5932
 -85.5933
 -85.5674
 -85.5685
 -85.5671
 -85.5669
 -85.5561
 -85.5558
 -85.5555
 -85.5577
 -85.603
 -85.602
 -85.6046
 -85.6011
 -85.6102
 -85.6104
 -85.6095
 -85.6078
 -85.5757
 -85.5751
 -85.577
 -85.5781
 -85.5754
 -85.5722
 -85.5754
 -85.5748
 -85.6297
 -85.6302
 -85.6282
 -85.6282
 -85.66
 -85.6595
 -85.6615
 -85.6617
 -85.6574
 -85.656
 -85.6576
 -85.658
 -85.6565
 -85.6541
 -85.6546
 -85.6556
 -85.6317
 -85.6305
 -85.6325
 -85.6301
 -85.5751
 -85.572
 -85.5743
 -85.5734
 -85.5763
 -85.5779
 -85.5786
 -85.5793
 -85.6092
 -85.6085
 -85.6045
 -85.6046
 -85.6372
 -85.6357
 -85.6395
 -85.6382
 -85.6365
 -85.6351
 -85.6358
 -85.6374
 -85.6182
 -85.6161
 -85.6174
 -85.6178
 -85.6249
 -85.6269
 -85.624
 -85.6246
 -85.5575
 -85.557
 -85.5581
 -85.5606
 -85.4986
 -85.4968
 -85.499
 -85.4952
 -85.5815
 -85.581
 -85.578
 -85.5797
 -85.5102
 -85.514
 -85.513
 -85.5817
 -85.5814
 -85.5829
 -85.5797
 -85.6511
 -85.6497
 -85.6506
 -85.6492
 -85.6157
 -85.6172
 -85.6176
 -85.6194
 -85.6599
 -85.659
 -85.6611
 -85.6589
 -85.5748
 -85.5752
 -85.5725
 -85.5749
 -85.6334
 -85.6326
 -85.6359
 -85.6351
 -85.6186
 -85.6187
 -85.6157
 -85.6168
 -85.6643
 -85.6651
 -85.6657
 -85.6634
 -85.6467
 -85.6463
 -85.6471
 -85.6493
 -85.5816
 -85.5843
 -85.5824
 -85.5815
 -85.6331
 -85.6328
 -85.6306
 -85.633
 -85.6495
 -85.6462
 -85.6482
 -85.6466
 -85.5353
 -85.5314
 -85.5333
 -85.5317
 -85.6143
 -85.6156
 -85.6167
 -85.6169
 -85.6491
 -85.6496
 -85.6508
 -85.6492
 -85.6276
 -85.6297
 -85.6257
 -85.6307
 -85.6465
 -85.6442
 -85.6469
 -85.6465
 -85.5762
 -85.5786
 -85.58
 -85.58
 -85.646
 -85.6502
 -85.646
 -85.6495
 -85.6002
 -85.6018
 -85.597
 -85.5997
 -85.6065
 -85.608
 -85.6096
 -85.6061
 -85.6458
 -85.6456
 -85.6438
 -85.6468
 -85.6693
 -85.6683
 -85.6684
 -85.6692
 -85.5577
 -85.5592
 -85.5604
 -85.5611
 -85.5911
 -85.593
 -85.5946
 -85.5917
 -85.6221
 -85.6207
 -85.6194
 -85.6201
 -85.6463
 -85.6477
 -85.6474
 -85.6477
 -85.5839
 -85.5819
 -85.5826
 -85.5828
 -85.5619
 -85.565
 -85.5664
 -85.5625
 -85.6352
 -85.6353
 -85.6326
 -85.6326
 -85.6275
 -85.6297
 -85.6275
 -85.6284
 -85.6619
 -85.663
 -85.6642
 -85.6619
 -85.5688
 -85.5719
 -85.5681
 -85.5708
 -85.6634
 -85.6647
 -85.6645
 -85.6636
 -85.5889
 -85.5922
 -85.5905
 -85.5894
 -85.5013
 -85.5005
 -85.5016
 -85.5028
 -85.6549
 -85.6563
 -85.657
 -85.6563
 -85.6315
 -85.633
 -85.6304
 -85.6277
 -85.6568
 -85.6568
 -85.6557
 -85.6554
 -85.6093
 -85.6062
 -85.6084
 -85.6098
 -85.6033
 -85.605
 -85.6056
 -85.6038
 -85.6427
 -85.6401
 -85.6408
 -85.641
 -85.5748
 -85.5758
 -85.5736
 -85.5753
 -85.5707
 -85.5723
 -85.5724
 -85.5714
 -85.5226
 -85.5211
 -85.5211
 -85.5203
 -85.6184
 -85.6203
 -85.6213
 -85.6225
 -85.6109
 -85.6094
 -85.6136
 -85.6108
 -85.6282
 -85.6245
 -85.6267
 -85.6288
 -85.5915
 -85.5949
 -85.5952
 -85.5906
 -85.6602
 -85.6599
 -85.6612
 -85.6585
 -85.6633
 -85.6657
 -85.6634
 -85.6629
 -85.6299
 -85.6309
 -85.6333
 -85.6333
 -85.4812
 -85.4808
 -85.4817
 -85.483
 -85.5997
 -85.5981
 -85.6003
 -85.5967
 -85.6018
 -85.601
 -85.5981
 -85.601
 -85.5999
 -85.6003
 -85.5972
 -85.5973
 -85.6437
 -85.6428
 -85.6455
 -85.6423
 -85.5312
 -85.5343
 -85.529
 -85.5308
 -85.5167
 -85.517
 -85.5139
 -85.5132
 -85.6441
 -85.6424
 -85.6442
 -85.6418
 -85.5862
 -85.5895
 -85.5849
 -85.5892
 -85.5972
 -85.5971
 -85.598
 -85.5982
 -85.6295
 -85.6279
 -85.6275
 -85.625
 -85.5729
 -85.5742
 -85.5753
 -85.574
 -85.6472
 -85.6447
 -85.6454
 -85.6469
 -85.5918
 -85.5869
 -85.5897
 -85.5861
 -85.5874
 -85.587
 -85.5846
 -85.5868
 -85.5626
 -85.5607
 -85.5637
 -85.5598
 -85.5991
 -85.6027
 -85.6002
 -85.603
 -85.6509
 -85.6521
 -85.6521
 -85.6505
 -85.6328
 -85.6357
 -85.6365
 -85.6339
 -85.5719
 -85.5714
 -85.574
 -85.5737
 -85.5828
 -85.5861
 -85.5862
 -85.5828
 -85.6577
 -85.6583
 -85.6594
 -85.659
 -85.6463
 -85.6447
 -85.6458
 -85.6449
 -85.602
 -85.601
 -85.5992
 -85.6009
 -85.5643
 -85.5647
 -85.5646
 -85.5655
 -85.5433
 -85.548
 -85.5472
 -85.5439
 -85.63
 -85.6277
 -85.6265
 -85.6291
 -85.5639
 -85.561
 -85.5637
 -85.5577
 -85.6528
 -85.6506
 -85.6504
 -85.6525
 -85.6226
 -85.626
 -85.624
 -85.6218
 -85.6509
 -85.6504
 -85.6496
 -85.6501
 -85.6355
 -85.633
 -85.6329
 -85.6343
 -85.6015
 -85.6002
 -85.6013
 -85.6033
 -85.5766
 -85.5725
 -85.5735
 -85.5752
 -85.548
 -85.5527
 -85.5486
 -85.5487
 -85.5585
 -85.5544
 -85.5588
 -85.5578
 -85.5752
 -85.5717
 -85.5712
 -85.5724
 -85.6066
 -85.6075
 -85.607
 -85.6029
 -85.6075
 -85.6079
 -85.6087
 -85.6057
 -85.6106
 -85.6081
 -85.6126
 -85.6099
 -85.6312
 -85.6296
 -85.6318
 -85.6315
 -85.5315
 -85.5283
 -85.5291
 -85.5289
 -85.618
 -85.6185
 -85.6173
 -85.6197
 -85.5712
 -85.5681
 -85.5694
 -85.5703
 -85.5965
 -85.5998
 -85.5977
 -85.5996
 -85.6621
 -85.6595
 -85.6619
 -85.6613
 -85.6051
 -85.6037
 -85.6038
 -85.6025
 -85.5652
 -85.564
 -85.5648
 -85.5616
 -85.595
 -85.5948
 -85.5967
 -85.5983
 -85.5777
 -85.5794
 -85.579
 -85.577
 -85.602
 -85.5988
 -85.6026
 -85.6003
 -85.5335
 -85.5309
 -85.532
 -85.534
 -85.598
 -85.5982
 -85.6007
 -85.6008
 -85.6322
 -85.6314
 -85.633
 -85.6318
 -85.6246
 -85.6249
 -85.626
 -85.625
 -85.6574
 -85.6542
 -85.657
 -85.6554
 -85.5834
 -85.5828
 -85.5852
 -85.5835
 -85.5758
 -85.5778
 -85.5758
 -85.5806
 -85.6558
 -85.6533
 -85.656
 -85.6555
 -85.5785
 -85.5783
 -85.5814
 -85.5785
 -85.6509
 -85.6501
 -85.652
 -85.6499
 -85.6147
 -85.6184
 -85.616
 -85.6175
 -85.6072
 -85.6033
 -85.6071
 -85.6077
 -85.5766
 -85.5791
 -85.5785
 -85.5764
 -85.6035
 -85.6032
 -85.6059
 -85.6029
 -85.6521
 -85.6511
 -85.6524
 -85.6524
 -85.5
 -85.5005
 -85.5012
 -85.4979
 -85.5635
 -85.5631
 -85.5631
 -85.5636
 -85.5629
 -85.5632
 -85.5628
 -85.561
 -85.5866
 -85.5876
 -85.5854
 -85.5891
 -85.5968
 -85.5947
 -85.5965
 -85.5952
 -85.5841
 -85.5827
 -85.5817
 -85.5846
 -85.6623
 -85.6614
 -85.6641
 -85.6608
 -85.575
 -85.5735
 -85.574
 -85.5769
 -85.6282
 -85.6286
 -85.6297
 -85.6273
 -85.6069
 -85.6454
 -85.6429
 -85.6438
 -85.6436
 -85.6237
 -85.6254
 -85.627
 -85.626
 -85.5567
 -85.5588
 -85.5595
 -85.5579
 -85.5895
 -85.5882
 -85.5901
 -85.592
 -85.5797
 -85.5769
 -85.579
 -85.5797
 -85.6494
 -85.6474
 -85.6475
 -85.6477
 -85.5995
 -85.5951
 -85.5982
 -85.597
 -85.6519
 -85.6525
 -85.65
 -85.6499
 -85.6345
 -85.636
 -85.6337
 -85.6367
 -85.5576
 -85.5591
 -85.5581
 -85.5609
 -85.574
 -85.571
 -85.5762
 -85.5742
 -85.6325
 -85.6341
 -85.6341
 -85.6325
 -85.6038
 -85.6002
 -85.6032
 -85.5643
 -85.5625
 -85.5634
 -85.5654
 -85.6291
 -85.6253
 -85.6276
 -85.6254
 -85.5801
 -85.5771
 -85.5772
 -85.5794
 -85.6047
 -85.6005
 -85.6026
 -85.6048
 -85.656
 -85.656
 -85.6535
 -85.6557
 -85.5858
 -85.5846
 -85.5833
 -85.5856
 -85.6459
 -85.6436
 -85.6457
 -85.6464
 -85.6099
 -85.6085
 -85.6102
 -85.6072
 -85.6398
 -85.6385
 -85.6367
 -85.638
 -85.6543
 -85.6543
 -85.6562
 -85.6553
 -85.5875
 -85.5872
 -85.5891
 -85.589
 -85.4994
 -85.5042
 -85.5031
 -85.5056
 -85.6634
 -85.6622
 -85.6625
 -85.6619
 -85.6273
 -85.6263
 -85.6247
 -85.626
 -85.568
 -85.568
 -85.5726
 -85.5689
 -85.5953
 -85.5969
 -85.5978
 -85.5949
 -85.5379
 -85.5388
 -85.539
 -85.5361
 -85.6525
 -85.6535
 -85.6559
 -85.6537
 -85.5662
 -85.565
 -85.5656
 -85.5659
 -85.6164
 -85.6187
 -85.6152
 -85.6171
 -85.5721
 -85.567
 -85.5707
 -85.5713
 -85.6663
 -85.6658
 -85.6661
 -85.664
 -85.6655
 -85.6653
 -85.6641
 -85.6633
 -85.6346
 -85.6322
 -85.6315
 -85.635
 -85.6189
 -85.6199
 -85.6189
 -85.6169
 -85.6198
 -85.5647
 -85.5652
 -85.5615
 -85.564
 -85.5709
 -85.5698
 -85.5689
 -85.572
 -85.6296
 -85.632
 -85.6321
 -85.632
 -85.5687
 -85.5705
 -85.5705
 -85.5686
 -85.5771
 -85.5765
 -85.576
 -85.5788
 -85.6331
 -85.634
 -85.6334
 -85.6312
 -85.5894
 -85.5926
 -85.5894
 -85.5926
 -85.6315
 -85.6318
 -85.6322
 -85.6339
 -85.5797
 -85.5792
 -85.5768
 -85.5795
 -85.5873
 -85.5897
 -85.5896
 -85.59
 -85.6007
 -85.6029
 -85.5994
 -85.6024
 -85.6183
 -85.6212
 -85.6193
 -85.6219
 -85.6423
 -85.6412
 -85.6443
 -85.6442
 -85.6144
 -85.6137
 -85.6122
 -85.6124
 -85.6146
 -85.6156
 -85.6166
 -85.6158
 -85.5576
 -85.5576
 -85.5589
 -85.5598
 -85.628
 -85.6286
 -85.6293
 -85.6289
 -85.6078
 -85.6085
 -85.6095
 -85.6076
 -85.6126
 -85.6127
 -85.6108
 -85.6124
 -85.5917
 -85.5925
 -85.5894
 -85.5912
 -85.564
 -85.5637
 -85.5651
 -85.5618
 -85.6389
 -85.6389
 -85.6405
 -85.6403
 -85.5652
 -85.5629
 -85.5639
 -85.5668
 -85.6634
 -85.6633
 -85.6651
 -85.6642
 -85.6468
 -85.6452
 -85.6481
 -85.6472
 -85.6483
 -85.6484
 -85.6484
 -85.6477
 -85.6469
 -85.6465
 -85.6461
 -85.6482
 -85.6346
 -85.6356
 -85.6332
 -85.6357
 -85.5427
 -85.5409
 -85.5374
 -85.614
 -85.6105
 -85.6136
 -85.6126
 -85.6442
 -85.6434
 -85.6427
 -85.6443
 -85.5906
 -85.5877
 -85.5894
 -85.5902
 -85.58
 -85.5804
 -85.579
 -85.581
 -85.6362
 -85.6365
 -85.6386
 -85.6342
 -85.5995
 -85.5986
 -85.6002
 -85.602
 -85.5825
 -85.5826
 -85.582
 -85.5812
 -85.6612
 -85.6631
 -85.625
 -85.6244
 -85.6222
 -85.6221
 -85.6016
 -85.6014
 -85.5995
 -85.6181
 -85.6186
 -85.6179
 -85.616
 -85.5477
 -85.547
 -85.5503
 -85.55
 -85.646
 -85.6478
 -85.6475
 -85.6456
 -85.6176
 -85.617
 -85.6156
 -85.6157
 -85.5902
 -85.5877
 -85.5888
 -85.5911
 -85.6116
 -85.6087
 -85.6097
 -85.6108
 -85.5676
 -85.5668
 -85.568
 -85.5674
 -85.5596
 -85.5637
 -85.5608
 -85.5616
 -85.5985
 -85.6008
 -85.6015
 -85.5999
 -85.5664
 -85.5659
 -85.5662
 -85.5687
 -85.602
 -85.6005
 -85.6011
 -85.6
 -85.6486
 -85.6483
 -85.646
 -85.6457
 -85.5702
 -85.5714
 -85.5724
 -85.5712
 -85.5225
 -85.5256
 -85.5226
 -85.5247
 -85.6215
 -85.617
 -85.6201
 -85.6204
 -85.5956
 -85.5975
 -85.5951
 -85.5976
 -85.5674
 -85.5668
 -85.5691
 -85.5684
 -85.6029
 -85.601
 -85.6037
 -85.6038
 -85.6579
 -85.6571
 -85.6583
 -85.6579
 -85.5775
 -85.5774
 -85.5762
 -85.5776
 -85.6233
 -85.6211
 -85.621
 -85.6206
 -85.5944
 -85.597
 -85.5949
 -85.5989
 -85.6338
 -85.6351
 -85.6347
 -85.6367
 -85.6491
 -85.6486
 -85.6499
 -85.6481
 -85.5687
 -85.5708
 -85.5694
 -85.5734
 -85.5852
 -85.5871
 -85.5866
 -85.5861
 -85.6178
 -85.6176
 -85.6144
 -85.6162
 -85.5664
 -85.567
 -85.5669
 -85.5677
 -85.502
 -85.4997
 -85.5
 -85.5015
 -85.6109
 -85.6084
 -85.6086
 -85.6079
 -85.4955
 -85.4949
 -85.4956
 -85.498
 -85.5013
 -85.505
 -85.5043
 -85.5024
 -85.5486
 -85.5508
 -85.5501
 -85.5477
 -85.6275
 -85.6258
 -85.6243
 -85.6232
 -85.6267
 -85.6282
 -85.6286
 -85.63
 -85.6302
 -85.6287
 -85.63
 -85.6274
 -85.6225
 -85.6199
 -85.6206
 -85.6231
 -85.5371
 -85.5347
 -85.5368
 -85.5361
 -85.5713
 -85.5702
 -85.5728
 -85.5717
 -85.5677
 -85.5649
 -85.5659
 -85.5653
 -85.5901
 -85.5931
 -85.5903
 -85.5934
 -85.6139
 -85.6123
 -85.6141
 -85.6127
 -85.6342
 -85.6335
 -85.6325
 -85.6343
 -85.5743
 -85.5775
 -85.5787
 -85.5757
 -85.6278
 -85.6046
 -85.6065
 -85.6067
 -85.6054
 -85.6649
 -85.6654
 -85.6671
 -85.666
 -85.5988
 -85.5995
 -85.601
 -85.5992
 -85.6533
 -85.6557
 -85.6538
 -85.5699
 -85.5711
 -85.5722
 -85.5695
 -85.5108
 -85.5136
 -85.5123
 -85.5138
 -85.6041
 -85.6041
 -85.6076
 -85.6026
 -85.5915
 -85.5877
 -85.5881
 -85.5881
 -85.5667
 -85.5683
 -85.5699
 -85.5709
 -85.5701
 -85.571
 -85.5689
 -85.5714
 -85.5452
 -85.5421
 -85.5442
 -85.5441
 -85.6181
 -85.6175
 -85.619
 -85.6226
 -85.6047
 -85.6077
 -85.604
 -85.6062
 -85.5847
 -85.5823
 -85.5849
 -85.5836
 -85.599
 -85.5972
 -85.6021
 -85.6364
 -85.6352
 -85.6348
 -85.5749
 -85.5755
 -85.5718
 -85.5712
 -85.5513
 -85.5504
 -85.5505
 -85.5511
 -85.5797
 -85.5817
 -85.5813
 -85.5792
 -85.5508
 -85.5479
 -85.5517
 -85.547
 -85.6412
 -85.6439
 -85.6419
 -85.6427
 -85.6342
 -85.6353
 -85.6359
 -85.6374
 -85.5668
 -85.566
 -85.5664
 -85.566
 -85.5406
 -85.5364
 -85.5394
 -85.5403
 -85.6112
 -85.6077
 -85.6107
 -85.6094
 -85.66
 -85.658
 -85.6604
 -85.6583
 -85.5492
 -85.549
 -85.5475
 -85.5491
 -85.6264
 -85.6242
 -85.6237
 -85.6269
 -85.5216
 -85.5197
 -85.5215
 -85.5201
 -85.6339
 -85.6349
 -85.6335
 -85.6368
 -85.5921
 -85.5898
 -85.5934
 -85.589
 -85.6415
 -85.6417
 -85.6434
 -85.6436
 -85.5692
 -85.5699
 -85.5703
 -85.5724
 -85.587
 -85.5848
 -85.585
 -85.5849
 -85.5743
 -85.5733
 -85.5764
 -85.5762
 -85.5799
 -85.5789
 -85.5821
 -85.5773
 -85.611
 -85.6128
 -85.6123
 -85.6099
 -85.5978
 -85.5957
 -85.5984
 -85.5983
 -85.6438
 -85.6419
 -85.6403
 -85.6406
 -85.663
 -85.6642
 -85.6614
 -85.6616
 -85.594
 -85.5937
 -85.5917
 -85.5934
 -85.648
 -85.647
 -85.6466
 -85.6492
 -85.6311
 -85.6341
 -85.6356
 -85.6334
 -85.5335
 -85.5321
 -85.5291
 -85.5333
 -85.5622
 -85.5671
 -85.5658
 -85.5644
 -85.5914
 -85.5896
 -85.5889
 -85.5897
 -85.5459
 -85.5439
 -85.5434
 -85.5416
 -85.6133
 -85.616
 -85.6157
 -85.6147
 -85.64
 -85.6441
 -85.6419
 -85.6421
 -85.5478
 -85.5521
 -85.5479
 -85.5477
 -85.5999
 -85.6021
 -85.6005
 -85.601
 -85.5813
 -85.5812
 -85.5812
 -85.5799
 -85.5025
 -85.505
 -85.5048
 -85.5025
 -85.5891
 -85.5888
 -85.5882
 -85.591
 -85.6061
 -85.6079
 -85.6077
 -85.6081
 -85.6329
 -85.6353
 -85.6337
 -85.636
 -85.5792
 -85.5799
 -85.5807
 -85.6058
 -85.6052
 -85.6043
 -85.6055
 -85.5849
 -85.5849
 -85.5882
 -85.5859
 -85.6272
 -85.6249
 -85.6266
 -85.6262
 -85.6263
 -85.629
 -85.6287
 -85.6278
 -85.6509
 -85.6491
 -85.6503
 -85.6482
 -85.5722
 -85.5729
 -85.5745
 -85.5723
 -85.6584
 -85.6591
 -85.66
 -85.6588
 -85.5768
 -85.579
 -85.5773
 -85.5761
 -85.6043
 -85.6073
 -85.607
 -85.6088
 -85.6093
 -85.6068
 -85.6071
 -85.606
 -85.4986
 -85.496
 -85.4983
 -85.4981
 -85.5829
 -85.5811
 -85.583
 -85.5834
 -85.602
 -85.6017
 -85.604
 -85.607
 -85.6004
 -85.6014
 -85.6014
 -85.5986
 -85.6638
 -85.6638
 -85.6621
 -85.6637
 -85.5765
 -85.5791
 -85.5805
 -85.5774
 -85.581
 -85.5794
 -85.5819
 -85.5788
 -85.633
 -85.635
 -85.6331
 -85.6347
 -85.5691
 -85.5685
 -85.5669
 -85.5665
 -85.5679
 -85.5672
 -85.5689
 -85.5671
 -85.6245
 -85.6212
 -85.6243
 -85.6226
 -85.6277
 -85.6274
 -85.6254
 -85.6275
 -85.6109
 -85.6109
 -85.6143
 -85.6134
 -85.5788
 -85.5776
 -85.6197
 -85.6178
 -85.6211
 -85.6184
 -85.5805
 -85.5819
 -85.5806
 -85.5811
 -85.5952
 -85.598
 -85.5988
 -85.5975
 -85.6537
 -85.6526
 -85.6517
 -85.6542
 -85.5957
 -85.5965
 -85.5979
 -85.5984
 -85.6371
 -85.6388
 -85.6399
 -85.6364
 -85.5731
 -85.578
 -85.5763
 -85.5777
 -85.591
 -85.5888
 -85.5881
 -85.5896
 -85.6017
 -85.606
 -85.6037
 -85.6047
 -85.5723
 -85.5703
 -85.5693
 -85.5709
 -85.5239
 -85.5244
 -85.5232
 -85.5213
 -85.6603
 -85.66
 -85.6596
 -85.6603
 -85.5498
 -85.5492
 -85.5505
 -85.5487
 -85.6149
 -85.616
 -85.6133
 -85.6135
 -85.5234
 -85.5235
 -85.5257
 -85.5226
 -85.6188
 -85.621
 -85.6191
 -85.6189
 -85.5777
 -85.5772
 -85.5765
 -85.5765
 -85.5776
 -85.5781
 -85.5758
 -85.5771
 -85.6091
 -85.6103
 -85.607
 -85.6092
 -85.6443
 -85.6417
 -85.6437
 -85.6413
 -85.5892
 -85.5927
 -85.5919
 -85.5925
 -85.5664
 -85.5656
 -85.5665
 -85.5674
 -85.643
 -85.646
 -85.6444
 -85.6466
 -85.5753
 -85.5727
 -85.5765
 -85.5767
 -85.5892
 -85.592
 -85.5912
 -85.5929
 -85.6318
 -85.6359
 -85.6351
 -85.6335
 -85.6077
 -85.6103
 -85.6107
 -85.6107
 -85.5984
 -85.5967
 -85.5986
 -85.5998
 -85.6533
 -85.6548
 -85.6556
 -85.6562
 -85.6466
 -85.6473
 -85.6473
 -85.6462
 -85.615
 -85.6152
 -85.612
 -85.6136
 -85.5983
 -85.5998
 -85.5974
 -85.6027
 -85.5832
 -85.5842
 -85.5845
 -85.5882
 -85.5635
 -85.5632
 -85.5615
 -85.6364
 -85.638
 -85.637
 -85.6393
 -85.5205
 -85.5185
 -85.5161
 -85.5163
 -85.6267
 -85.6235
 -85.6252
 -85.6248
 -85.5736
 -85.5706
 -85.5721
 -85.5724
 -85.5689
 -85.567
 -85.5677
 -85.5674
 -85.647
 -85.6447
 -85.646
 -85.649
 -85.6098
 -85.608
 -85.6106
 -85.6087
 -85.5991
 -85.5983
 -85.58
 -85.5944
 -85.5972
 -85.5939
 -85.5958
 -85.5242
 -85.5264
 -85.6237
 -85.6248
 -85.626
 -85.5568
 -85.5585
 -85.5547
 -85.5569
 -85.6244
 -85.6216
 -85.6224
 -85.6225
 -85.5888
 -85.5916
 -85.5909
 -85.5908
 -85.5792
 -85.5828
 -85.5806
 -85.5807
 -85.6534
 -85.6535
 -85.6561
 -85.6544
 -85.5577
 -85.5601
 -85.5573
 -85.5602
 -85.622
 -85.6223
 -85.6225
 -85.6242
 -85.6567
 -85.6573
 -85.6549
 -85.6551
 -85.607
 -85.6044
 -85.6071
 -85.6051
 -85.6217
 -85.6184
 -85.6199
 -85.6195
 -85.6021
 -85.6045
 -85.6027
 -85.5988
 -85.6659
 -85.6631
 -85.6651
 -85.6626
 -85.6638
 -85.6637
 -85.6628
 -85.6618
 -85.6621
 -85.6614
 -85.6612
 -85.6622
 -85.5955
 -85.593
 -85.5953
 -85.5951
 -85.615
 -85.6123
 -85.6132
 -85.6148
 -85.5971
 -85.5967
 -85.5948
 -85.5963
 -85.5927
 -85.5917
 -85.5954
 -85.5918
 -85.6276
 -85.6286
 -85.629
 -85.6266
 -85.6437
 -85.6466
 -85.6457
 -85.6467
 -85.6426
 -85.6435
 -85.641
 -85.6442
 -85.6061
 -85.6076
 -85.6056
 -85.6072
 -85.6006
 -85.6002
 -85.5998
 -85.5986
 -85.5767
 -85.5751
 -85.576
 -85.5787
 -85.6336
 -85.6357
 -85.6356
 -85.6329
 -85.5462
 -85.5462
 -85.5437
 -85.5479
 -85.6392
 -85.6407
 -85.6387
 -85.6381
 -85.6123
 -85.6161
 -85.6119
 -85.6151
 -85.61
 -85.6115
 -85.6104
 -85.609
 -85.5586
 -85.5584
 -85.5567
 -85.5544
 -85.4899
 -85.4917
 -85.4894
 -85.4898
 -85.5853
 -85.5878
 -85.5852
 -85.586
 -85.639
 -85.636
 -85.6371
 -85.6388
 -85.5691
 -85.5671
 -85.5685
 -85.5701
 -85.6142
 -85.6154
 -85.6126
 -85.6159
 -85.6181
 -85.6202
 -85.6226
 -85.6215
 -85.6326
 -85.6338
 -85.6305
 -85.6317
 -85.541
 -85.5389
 -85.5391
 -85.5409
 -85.5435
 -85.5436
 -85.5424
 -85.5421
 -85.6383
 -85.6418
 -85.6403
 -85.6404
 -85.6284
 -85.6248
 -85.6249
 -85.6273
 -85.5845
 -85.5848
 -85.5834
 -85.5836
 -85.6032
 -85.6021
 -85.6044
 -85.6058
 -85.6119
 -85.613
 -85.6122
 -85.6115
 -85.5823
 -85.5809
 -85.5846
 -85.5813
 -85.6223
 -85.6209
 -85.621
 -85.6192
 -85.6716
 -85.67
 -85.6711
 -85.6713
 -85.6163
 -85.619
 -85.6189
 -85.6208
 -85.6037
 -85.6048
 -85.6028
 -85.6064
 -85.6036
 -85.6032
 -85.601
 -85.6037
 -85.6124
 -85.6138
 -85.6124
 -85.6102
 -85.6594
 -85.6598
 -85.6582
 -85.6594
 -85.644
 -85.6422
 -85.6435
 -85.6208
 -85.6207
 -85.6225
 -85.6205
 -85.5665
 -85.5662
 -85.5682
 -85.5661
 -85.5921
 -85.5924
 -85.5902
 -85.593
 -85.6427
 -85.6395
 -85.6394
 -85.6396
 -85.5768
 -85.5776
 -85.5782
 -85.5793
 -85.5881
 -85.5859
 -85.5857
 -85.5886
 -85.5913
 -85.5902
 -85.5869
 -85.5896
 -85.6265
 -85.6248
 -85.6243
 -85.624
 -85.6126
 -85.6102
 -85.613
 -85.6081
 -85.6211
 -85.6164
 -85.6181
 -85.6187
 -85.5711
 -85.5719
 -85.5725
 -85.5714
 -85.5917
 -85.5936
 -85.5942
 -85.5918
 -85.6244
 -85.6225
 -85.6248
 -85.6264
 -85.5862
 -85.5874
 -85.5889
 -85.585
 -85.6164
 -85.6186
 -85.6188
 -85.6171
 -85.5697
 -85.569
 -85.5703
 -85.5687
 -85.6569
 -85.6574
 -85.6553
 -85.6569
 -85.5755
 -85.5734
 -85.576
 -85.5772
 -85.5712
 -85.5668
 -85.5695
 -85.5695
 -85.6306
 -85.6306
 -85.6323
 -85.633
 -85.5762
 -85.5768
 -85.5774
 -85.577
 -85.6193
 -85.6186
 -85.6196
 -85.617
 -85.5561
 -85.5567
 -85.5532
 -85.5539
 -85.6101
 -85.6091
 -85.6098
 -85.6119
 -85.651
 -85.654
 -85.6513
 -85.6531
 -85.6114
 -85.6078
 -85.6077
 -85.61
 -85.6327
 -85.6339
 -85.6327
 -85.6327
 -85.6181
 -85.6169
 -85.6176
 -85.6193
 -85.6164
 -85.6175
 -85.6179
 -85.6201
 -85.6594
 -85.6594
 -85.6602
 -85.6571
 -85.5706
 -85.5695
 -85.5683
 -85.568
 -85.5725
 -85.5714
 -85.5692
 -85.5713
 -85.6465
 -85.6463
 -85.6451
 -85.6481
 -85.6527
 -85.6538
 -85.6523
 -85.5818
 -85.5809
 -85.5808
 -85.5824
 -85.6221
 -85.6247
 -85.6218
 -85.6216
 -85.6137
 -85.6147
 -85.6118
 -85.615
 -85.5693
 -85.5716
 -85.5674
 -85.5694
 -85.6333
 -85.635
 -85.6344
 -85.6343
 -85.6014
 -85.5983
 -85.5989
 -85.6013
 -85.6098
 -85.607
 -85.6074
 -85.6067
 -85.6355
 -85.6374
 -85.6374
 -85.6369
 -85.5636
 -85.5628
 -85.5638
 -85.5649
 -85.5815
 -85.5783
 -85.5793
 -85.5789
 -85.6616
 -85.6596
 -85.6614
 -85.6606
 -85.5715
 -85.5712
 -85.5718
 -85.5749
 -85.5651
 -85.5642
 -85.5646
 -85.5648
 -85.6032
 -85.6039
 -85.6027
 -85.6061
 -85.5258
 -85.5269
 -85.5246
 -85.5289
 -85.6077
 -85.6083
 -85.6069
 -85.6081
 -85.638
 -85.6371
 -85.6364
 -85.6359
 -85.645
 -85.6434
 -85.6443
 -85.558
 -85.5581
 -85.5596
 -85.5584
 -85.5763
 -85.5789
 -85.5755
 -85.578
 -85.57
 -85.5692
 -85.5671
 -85.5671
 -85.5803
 -85.5782
 -85.5797
 -85.5792
 -85.663
 -85.6641
 -85.6648
 -85.6642
 -85.5616
 -85.5618
 -85.5608
 -85.559
 -85.5753
 -85.5734
 -85.5751
 -85.5782
 -85.6441
 -85.6459
 -85.6443
 -85.6436
 -85.5889
 -85.5885
 -85.5903
 -85.5781
 -85.5757
 -85.5782
 -85.6113
 -85.6102
 -85.6078
 -85.5303
 -85.5342
 -85.5347
 -85.5316
 -85.609
 -85.6109
 -85.6099
 -85.6117
 -85.6071
 -85.6089
 -85.6052
 -85.6055
 -85.6468
 -85.6483
 -85.6461
 -85.6459
 -85.6534
 -85.6531
 -85.6562
 -85.6531
 -85.5675
 -85.5648
 -85.5647
 -85.5696
 -85.6136
 -85.6162
 -85.6165
 -85.6151
 -85.6127
 -85.6149
 -85.6159
 -85.6152
 -85.5993
 -85.603
 -85.6013
 -85.6035
 -85.5854
 -85.5863
 -85.587
 -85.5832
 -85.6138
 -85.611
 -85.6133
 -85.6139
 -85.5713
 -85.572
 -85.571
 -85.5727
 -85.6515
 -85.6506
 -85.6516
 -85.652
 -85.5812
 -85.5804
 -85.5816
 -85.5835
 -85.6445
 -85.6424
 -85.6438
 -85.6434
 -85.656
 -85.655
 -85.6532
 -85.6553
 -85.6562
 -85.6557
 -85.6553
 -85.6548
 -85.5757
 -85.5741
 -85.6308
 -85.6301
 -85.6287
 -85.63
 -85.5702
 -85.5736
 -85.5722
 -85.5709
 -85.6362
 -85.6399
 -85.6389
 -85.6396
 -85.6437
 -85.6425
 -85.645
 -85.6426
 -85.582
 -85.5843
 -85.5844
 -85.5832
 -85.6136
 -85.6137
 -85.6156
 -85.6151
 -85.58
 -85.58
 -85.5822
 -85.5801
 -85.5939
 -85.5937
 -85.5944
 -85.5968
 -85.5061
 -85.5105
 -85.505
 -85.5088
 -85.6497
 -85.6484
 -85.6516
 -85.6494
 -85.5814
 -85.5795
 -85.5822
 -85.5842
 -85.558
 -85.556
 -85.5561
 -85.5586
 -85.5978
 -85.5963
 -85.5991
 -85.5994
 -85.5574
 -85.5533
 -85.5523
 -85.5574
 -85.5966
 -85.5941
 -85.5926
 -85.5956
 -85.6296
 -85.6289
 -85.6314
 -85.6277
 -85.6012
 -85.5994
 -85.5994
 -85.6005
 -85.6473
 -85.6504
 -85.6476
 -85.598
 -85.6006
 -85.5978
 -85.6004
 -85.5063
 -85.5046
 -85.5048
 -85.5039
 -85.6644
 -85.6648
 -85.6654
 -85.6644
 -85.6124
 -85.6116
 -85.6132
 -85.6111
 -85.6375
 -85.6361
 -85.6338
 -85.6366
 -85.5668
 -85.569
 -85.5633
 -85.5658
 -85.5848
 -85.5871
 -85.583
 -85.5858
 -85.5853
 -85.5894
 -85.5869
 -85.5892
 -85.6546
 -85.6533
 -85.6552
 -85.6564
 -85.5892
 -85.5872
 -85.5855
 -85.5865
 -85.6623
 -85.6616
 -85.6627
 -85.6607
 -85.6273
 -85.6245
 -85.6247
 -85.6276
 -85.5716
 -85.5723
 -85.5731
 -85.5715
 -85.5241
 -85.525
 -85.5277
 -85.5234
 -85.5943
 -85.5906
 -85.5928
 -85.5897
 -85.6028
 -85.603
 -85.6051
 -85.6025
 -85.6309
 -85.6312
 -85.6298
 -85.6279
 -85.5098
 -85.5061
 -85.5107
 -85.5091
 -85.5952
 -85.5934
 -85.5967
 -85.5956
 -85.6602
 -85.6588
 -85.6584
 -85.6587
 -85.6417
 -85.6435
 -85.6427
 -85.6419
 -85.6408
 -85.6412
 -85.6429
 -85.6403
 -85.6381
 -85.6363
 -85.6355
 -85.6366
 -85.6414
 -85.6446
 -85.643
 -85.6426
 -85.6195
 -85.6201
 -85.6196
 -85.6199
 -85.5745
 -85.5789
 -85.5816
 -85.5817
 -85.5805
 -85.6262
 -85.6236
 -85.6245
 -85.6239
 -85.6257
 -85.6263
 -85.6229
 -85.6235
 -85.5512
 -85.5521
 -85.5521
 -85.5512
 -85.6488
 -85.6487
 -85.6478
 -85.6489
 -85.6365
 -85.6383
 -85.6409
 -85.6394
 -85.5714
 -85.5745
 -85.5742
 -85.5746
 -85.5747
 -85.5739
 -85.5787
 -85.5804
 -85.5796
 -85.5817
 -85.5723
 -85.5693
 -85.5654
 -85.5676
 -85.6251
 -85.6276
 -85.6268
 -85.6251
 -85.6621
 -85.6622
 -85.6617
 -85.6625
 -85.6045
 -85.6029
 -85.6045
 -85.6018
 -85.6542
 -85.6509
 -85.6495
 -85.6496
 -85.5962
 -85.5959
 -85.5945
 -85.5971
 -85.6242
 -85.6224
 -85.6209
 -85.6211
 -85.5687
 -85.5681
 -85.5677
 -85.5649
 -85.6145
 -85.617
 -85.6133
 -85.6152
 -85.6183
 -85.6215
 -85.6228
 -85.619
 -85.575
 -85.574
 -85.5721
 -85.5731
 -85.5885
 -85.5869
 -85.5916
 -85.5894
 -85.5971
 -85.5968
 -85.5945
 -85.5929
 -85.6143
 -85.6159
 -85.6148
 -85.6156
 -85.549
 -85.5498
 -85.5508
 -85.5535
 -85.62
 -85.6174
 -85.6191
 -85.6206
 -85.5887
 -85.5857
 -85.5891
 -85.591
 -85.63
 -85.6292
 -85.6299
 -85.628
 -85.646
 -85.6441
 -85.6457
 -85.6446
 -85.6572
 -85.6562
 -85.6558
 -85.6565
 -85.6532
 -85.6544
 -85.6512
 -85.6639
 -85.6642
 -85.6652
 -85.6655
 -85.6404
 -85.6383
 -85.6359
 -85.6385
 -85.6019
 -85.6013
 -85.6033
 -85.6029
 -85.6547
 -85.6532
 -85.6519
 -85.6544
 -85.6091
 -85.6095
 -85.608
 -85.6075
 -85.6151
 -85.6165
 -85.6156
 -85.6547
 -85.6561
 -85.6553
 -85.6549
 -85.6504
 -85.6487
 -85.6494
 -85.6115
 -85.6102
 -85.6126
 -85.6135
 -85.5874
 -85.5892
 -85.5872
 -85.591
 -85.6278
 -85.6261
 -85.6255
 -85.625
 -85.6555
 -85.6568
 -85.656
 -85.6552
 -85.5766
 -85.5761
 -85.5777
 -85.575
 -85.6014
 -85.6008
 -85.5987
 -85.5985
 -85.6046
 -85.608
 -85.604
 -85.6048
 -85.63
 -85.6275
 -85.6294
 -85.6298
 -85.5776
 -85.5757
 -85.5795
 -85.5762
 -85.5678
 -85.5657
 -85.568
 -85.567
 -85.6051
 -85.6052
 -85.6048
 -85.6074
 -85.6608
 -85.6596
 -85.6594
 -85.6599
 -85.5826
 -85.5798
 -85.583
 -85.5815
 -85.5696
 -85.5718
 -85.569
 -85.5717
 -85.6199
 -85.6164
 -85.6198
 -85.6195
 -85.5797
 -85.5805
 -85.5789
 -85.5706
 -85.5724
 -85.5718
 -85.6159
 -85.6146
 -85.6181
 -85.6153
 -85.5715
 -85.5704
 -85.5688
 -85.5714
 -85.5727
 -85.5699
 -85.5719
 -85.5721
 -85.6202
 -85.6211
 -85.6195
 -85.5717
 -85.5712
 -85.6449
 -85.6451
 -85.6487
 -85.6489
 -85.6273
 -85.6309
 -85.631
 -85.6295
 -85.549
 -85.5517
 -85.5468
 -85.5523
 -85.5306
 -85.531
 -85.5283
 -85.5312
 -85.5789
 -85.5742
 -85.5771
 -85.5774
 -85.6521
 -85.6519
 -85.6529
 -85.6521
 -85.6242
 -85.6224
 -85.6212
 -85.6224
 -85.5635
 -85.5633
 -85.5631
 -85.5629
 -85.5805
 -85.581
 -85.5821
 -85.5844
 -85.582
 -85.5822
 -85.5816
 -85.5756
 -85.5775
 -85.5778
 -85.5778
 -85.5776
 -85.5757
 -85.5783
 -85.5789
 -85.5692
 -85.5669
 -85.5689
 -85.5666
 -85.6596
 -85.6607
 -85.6599
 -85.6598
 -85.6541
 -85.6559
 -85.6533
 -85.6046
 -85.6029
 -85.6048
 -85.6017
 -85.5779
 -85.5745
 -85.5784
 -85.5772
 -85.6648
 -85.6659
 -85.5702
 -85.5687
 -85.5691
 -85.5679
 -85.6102
 -85.6148
 -85.6119
 -85.6136
 -85.6214
 -85.6206
 -85.5717
 -85.5713
 -85.5741
 -85.5716
 -85.6562
 -85.6572
 -85.6555
 -85.6584
 -85.6624
 -85.6612
 -85.6616
 -85.6639
 -85.5978
 -85.5991
 -85.5978
 -85.5482
 -85.5504
 -85.549
 -85.5738
 -85.5771
 -85.5735
 -85.5744
 -85.6344
 -85.6323
 -85.6361
 -85.6324
 -85.585
 -85.5825
 -85.5826
 -85.5804
 -85.5833
 -85.5817
 -85.5843
 -85.581
 -85.6251
 -85.6245
 -85.626
 -85.6286
 -85.5115
 -85.5127
 -85.5105
 -85.508
 -85.632
 -85.6328
 -85.6347
 -85.6342
 -85.6341
 -85.6338
 -85.6356
 -85.6367
 -85.5672
 -85.5673
 -85.5641
 -85.5664
 -85.6503
 -85.6512
 -85.6515
 -85.6497
 -85.5059
 -85.5022
 -85.5032
 -85.5005
 -85.6569
 -85.6532
 -85.6534
 -85.6528
 -85.6425
 -85.6408
 -85.5805
 -85.5823
 -85.5816
 -85.5837
 -85.5647
 -85.5624
 -85.5636
 -85.5656
 -85.649
 -85.6507
 -85.6503
 -85.6497
 -85.5872
 -85.5882
 -85.5881
 -85.5863
 -85.6603
 -85.659
 -85.66
 -85.5789
 -85.5765
 -85.5755
 -85.5616
 -85.5641
 -85.5649
 -85.6572
 -85.658
 -85.6573
 -85.6567
 -85.5799
 -85.5785
 -85.5786
 -85.5785
 -85.6499
 -85.6502
 -85.5621
 -85.5637
 -85.5618
 -85.5626
 -85.6073
 -85.6098
 -85.61
 -85.6075
 -85.5833
 -85.5817
 -85.5925
 -85.5976
 -85.5969
 -85.5939
 -85.5807
 -85.5803
 -85.5806
 -85.5778
 -85.6616
 -85.6638
 -85.6611
 -85.662
 -85.5664
 -85.5654
 -85.5658
 -85.6427
 -85.5078
 -85.5075
 -85.5077
 -85.5063
 -85.6485
 -85.649
 -85.6501
 -85.6464
 -85.5832
 -85.5835
 -85.5874
 -85.5866
 -85.6309
 -85.6298
 -85.6301
 -85.6305
 -85.5804
 -85.5786
 -85.5775
 -85.5799
 -85.6247
 -85.5512
 -85.5506
 -85.5505
 -85.5514
 -85.6241
 -85.6242
 -85.6234
 -85.6213
 -85.6407
 -85.6419
 -85.6428
 -85.639
 -85.6408
 -85.6384
 -85.6415
 -85.6495
 -85.6514
 -85.6505
 -85.6504
 -85.5672
 -85.5681
 -85.5709
 -85.5695
 -85.6466
 -85.6466
 -85.6464
 -85.6484
 -85.5578
 -85.5573
 -85.5581
 -85.5551
 -85.6442
 -85.6455
 -85.6464
 -85.6464
 -85.6033
 -85.6018
 -85.6014
 -85.6005
 -85.63
 -85.6316
 -85.6324
 -85.6329
 -85.6114
 -85.6101
 -85.6092
 -85.6084
 -85.6568
 -85.6539
 -85.6108
 -85.6084
 -85.6085
 -85.6105
 -85.5503
 -85.5494
 -85.5526
 -85.5493
 -85.5565
 -85.5554
 -85.5599
 -85.5561
 -85.6112
 -85.6135
 -85.6138
 -85.6141
 -85.6338
 -85.6339
 -85.6331
 -85.6362
 -85.6373
 -85.6354
 -85.6365
 -85.6381
 -85.6544
 -85.652
 -85.6528
 -85.6514
 -85.638
 -85.6407
 -85.6393
 -85.6378
 -85.5566
 -85.5568
 -85.5585
 -85.5551
 -85.5701
 -85.5702
 -85.5695
 -85.5736
 -85.6654
 -85.6643
 -85.6639
 -85.664
 -85.6156
 -85.6167
 -85.6162
 -85.6199
 -85.5735
 -85.5768
 -85.5735
 -85.5762
 -85.5186
 -85.5178
 -85.5219
 -85.517
 -85.6487
 -85.6499
 -85.6477
 -85.6519
 -85.5768
 -85.5769
 -85.5777
 -85.5794
 -85.5938
 -85.5964
 -85.5922
 -85.5943
 -85.5571
 -85.5561
 -85.5568
 -85.5584
 -85.6231
 -85.6219
 -85.6231
 -85.6233
 -85.6544
 -85.6546
 -85.6539
 -85.6544
 -85.6181
 -85.6149
 -85.6158
 -85.6151
 -85.5978
 -85.5981
 -85.6011
 -85.5997
 -85.5525
 -85.5539
 -85.5551
 -85.5508
 -85.6538
 -85.6272
 -85.6289
 -85.6262
 -85.6286
 -85.5932
 -85.592
 -85.5896
 -85.5905
 -85.633
 -85.6346
 -85.6342
 -85.636
 -85.5736
 -85.5721
 -85.5725
 -85.5751
 -85.6228
 -85.6243
 -85.6213
 -85.5494
 -85.5529
 -85.5501
 -85.5495
 -85.6431
 -85.639
 -85.6417
 -85.6403
 -85.5669
 -85.5666
 -85.5681
 -85.567
 -85.6694
 -85.6688
 -85.6692
 -85.6702
 -85.5776
 -85.578
 -85.5784
 -85.578
 -85.5277
 -85.5344
 -85.5338
 -85.5316
 -85.547
 -85.5467
 -85.5495
 -85.5488
 -85.6653
 -85.6645
 -85.6637
 -85.6633
 -85.6582
 -85.6578
 -85.6591
 -85.6593
 -85.6046
 -85.607
 -85.6062
 -85.607
 -85.5796
 -85.5791
 -85.5808
 -85.6114
 -85.6115
 -85.6078
 -85.6093
 -85.6269
 -85.6256
 -85.6286
 -85.6286
 -85.6105
 -85.6153
 -85.6138
 -85.6133
 -85.607
 -85.608
 -85.6117
 -85.6097
 -85.6634
 -85.662
 -85.6622
 -85.6615
 -85.5713
 -85.5706
 -85.5736
 -85.5713
 -85.5474
 -85.5425
 -85.543
 -85.6331
 -85.6312
 -85.6323
 -85.6314
 -85.6483
 -85.6502
 -85.6487
 -85.6482
 -85.5753
 -85.5743
 -85.5759
 -85.572
 -85.5725
 -85.5735
 -85.5704
 -85.6514
 -85.6502
 -85.6522
 -85.649
 -85.6009
 -85.6005
 -85.6027
 -85.6007
 -85.5729
 -85.57
 -85.5723
 -85.5724
 -85.5932
 -85.5918
 -85.592
 -85.5938
 -85.6435
 -85.6433
 -85.6414
 -85.6433
 -85.5739
 -85.5775
 -85.5721
 -85.5768
 -85.5958
 -85.5918
 -85.5931
 -85.5943
 -85.5834
 -85.5857
 -85.5838
 -85.6582
 -85.6578
 -85.6564
 -85.6569
 -85.6014
 -85.6019
 -85.6
 -85.6028
 -85.6655
 -85.665
 -85.6674
 -85.6099
 -85.6111
 -85.6107
 -85.6098
 -85.5524
 -85.5546
 -85.5509
 -85.552
 -85.6183
 -85.619
 -85.6207
 -85.6227
 -85.6057
 -85.609
 -85.6047
 -85.5764
 -85.5773
 -85.5796
 -85.5777
 -85.5658
 -85.5664
 -85.5652
 -85.5669
 -85.5761
 -85.5773
 -85.579
 -85.5756
 -85.5257
 -85.5259
 -85.5296
 -85.5299
 -85.5886
 -85.5878
 -85.5866
 -85.5865
 -85.5836
 -85.5827
 -85.5863
 -85.5821
 -85.6523
 -85.6497
 -85.6501
 -85.6534
 -85.5623
 -85.5658
 -85.5647
 -85.5638
 -85.6252
 -85.624
 -85.6258
 -85.6265
 -85.6596
 -85.6599
 -85.6587
 -85.6578
 -85.6603
 -85.6579
 -85.6591
 -85.6599
 -85.6411
 -85.6427
 -85.641
 -85.6422
 -85.6615
 -85.6635
 -85.6633
 -85.66
 -85.6535
 -85.654
 -85.6537
 -85.6657
 -85.6628
 -85.6637
 -85.6637
 -85.5573
 -85.556
 -85.5571
 -85.5551
 -85.5926
 -85.5901
 -85.5889
 -85.5905
 -85.5841
 -85.5873
 -85.5851
 -85.5876
 -85.5887
 -85.5874
 -85.5871
 -85.5864
 -85.6561
 -85.6544
 -85.6556
 -85.6562
 -85.5926
 -85.5928
 -85.5905
 -85.5894
 -85.5765
 -85.5735
 -85.5734
 -85.5755
 -85.6285
 -85.6278
 -85.6304
 -85.6271
 -85.5786
 -85.5813
 -85.5785
 -85.5802
 -85.6343
 -85.6325
 -85.6322
 -85.6109
 -85.6137
 -85.6136
 -85.6502
 -85.6481
 -85.6488
 -85.6491
 -85.5934
 -85.5945
 -85.5925
 -85.5925
 -85.6232
 -85.6211
 -85.6217
 -85.6236
 -85.5874
 -85.5841
 -85.5858
 -85.588
 -85.6659
 -85.6651
 -85.66
 -85.6592
 -85.6584
 -85.6605
 -85.5538
 -85.5531
 -85.5532
 -85.5519
 -85.6242
 -85.6263
 -85.6266
 -85.6282
 -85.576
 -85.5794
 -85.5769
 -85.5749
 -85.496
 -85.4907
 -85.4955
 -85.4938
 -85.5786
 -85.5777
 -85.5761
 -85.5775
 -85.6331
 -85.6309
 -85.6328
 -85.5628
 -85.5624
 -85.5655
 -85.5653
 -85.6586
 -85.6568
 -85.6592
 -85.6575
 -85.5794
 -85.5804
 -85.5794
 -85.5805
 -85.6229
 -85.6251
 -85.6238
 -85.6231
 -85.5537
 -85.555
 -85.5519
 -85.5541
 -85.5168
 -85.5164
 -85.5182
 -85.5191
 -85.5739
 -85.5759
 -85.5737
 -85.5732
 -85.59
 -85.589
 -85.591
 -85.6135
 -85.6098
 -85.6141
 -85.6125
 -85.568
 -85.5679
 -85.5648
 -85.6346
 -85.6338
 -85.6352
 -85.6367
 -85.6415
 -85.6449
 -85.6417
 -85.6446
 -85.6309
 -85.6288
 -85.6307
 -85.6309
 -85.657
 -85.6529
 -85.6545
 -85.655
 -85.6393
 -85.6374
 -85.6384
 -85.5824
 -85.5842
 -85.5839
 -85.5851
 -85.6364
 -85.6343
 -85.6273
 -85.6247
 -85.6239
 -85.6263
 -85.6329
 -85.6319
 -85.6322
 -85.6337
 -85.575
 -85.5764
 -85.5758
 -85.5732
 -85.577
 -85.5789
 -85.5769
 -85.5788
 -85.4971
 -85.4991
 -85.4997
 -85.4982
 -85.5766
 -85.5784
 -85.5766
 -85.5831
 -85.5819
 -85.5814
 -85.5823
 -85.605
 -85.6049
 -85.6034
 -85.6029
 -85.5833
 -85.5861
 -85.5864
 -85.5845
 -85.554
 -85.5557
 -85.5538
 -85.5535
 -85.6418
 -85.6391
 -85.6416
 -85.6395
 -85.6035
 -85.6054
 -85.6032
 -85.6017
 -85.6564
 -85.6565
 -85.6557
 -85.6568
 -85.6163
 -85.614
 -85.6161
 -85.6148
 -85.6547
 -85.6555
 -85.6549
 -85.5221
 -85.5252
 -85.5239
 -85.5244
 -85.6314
 -85.6348
 -85.6319
 -85.6322
 -85.5969
 -85.5946
 -85.5973
 -85.5961
 -85.5705
 -85.5688
 -85.5864
 -85.5868
 -85.5882
 -85.5875
 -85.5955
 -85.5927
 -85.5936
 -85.6513
 -85.6519
 -85.6504
 -85.6516
 -85.6521
 -85.651
 -85.6493
 -85.6503
 -85.5709
 -85.5699
 -85.5714
 -85.5704
 -85.6015
 -85.6003
 -85.5788
 -85.5815
 -85.5798
 -85.5775
 -85.637
 -85.6357
 -85.639
 -85.639
 -85.5515
 -85.5513
 -85.5511
 -85.5522
 -85.5739
 -85.575
 -85.5729
 -85.5727
 -85.5785
 -85.5811
 -85.5823
 -85.581
 -85.6093
 -85.6087
 -85.6092
 -85.6125
 -85.6351
 -85.6346
 -85.6333
 -85.6334
 -85.6391
 -85.6369
 -85.6353
 -85.6377
 -85.5088
 -85.5083
 -85.5074
 -85.5062
 -85.5637
 -85.566
 -85.5669
 -85.614
 -85.6098
 -85.6122
 -85.6171
 -85.6196
 -85.617
 -85.6197
 -85.6549
 -85.6561
 -85.6552
 -85.6568
 -85.601
 -85.5773
 -85.5771
 -85.5742
 -85.5752
 -85.6245
 -85.623
 -85.6208
 -85.6221
 -85.6409
 -85.6385
 -85.639
 -85.6414
 -85.6486
 -85.6491
 -85.5711
 -85.5703
 -85.5691
 -85.5687
 -85.6061
 -85.6082
 -85.6072
 -85.6087
 -85.5645
 -85.5638
 -85.5643
 -85.5651
 -85.6179
 -85.5897
 -85.5878
 -85.5921
 -85.5933
 -85.5845
 -85.5863
 -85.5872
 -85.5858
 -85.6558
 -85.6533
 -85.6589
 -85.6602
 -85.6604
 -85.6595
 -85.5359
 -85.5342
 -85.535
 -85.5363
 -85.6383
 -85.6389
 -85.6361
 -85.6399
 -85.618
 -85.6147
 -85.6157
 -85.6183
 -85.5144
 -85.5154
 -85.5154
 -85.5134
 -85.605
 -85.6052
 -85.6064
 -85.6037
 -85.6031
 -85.6001
 -85.5986
 -85.5992
 -85.5687
 -85.5657
 -85.5691
 -85.5679
 -85.6646
 -85.6657
 -85.6659
 -85.6659
 -85.5999
 -85.5972
 -85.5976
 -85.581
 -85.5838
 -85.5836
 -85.5812
 -85.6609
 -85.6634
 -85.6618
 -85.6622
 -85.5811
 -85.5796
 -85.5772
 -85.5822
 -85.5961
 -85.5979
 -85.6442
 -85.6446
 -85.6463
 -85.6426
 -85.6136
 -85.6137
 -85.6167
 -85.6162
 -85.6581
 -85.6568
 -85.6584
 -85.6578
 -85.599
 -85.6029
 -85.5753
 -85.5763
 -85.577
 -85.5767
 -85.5814
 -85.5815
 -85.5831
 -85.584
 -85.6469
 -85.6467
 -85.6443
 -85.6451
 -85.6408
 -85.64
 -85.6414
 -85.6417
 -85.637
 -85.6339
 -85.6368
 -85.6356
 -85.5837
 -85.5869
 -85.5855
 -85.5837
 -85.5365
 -85.5346
 -85.5359
 -85.5365
 -85.6609
 -85.6626
 -85.661
 -85.6617
 -85.5675
 -85.5679
 -85.5684
 -85.57
 -85.6114
 -85.6131
 -85.6142
 -85.6116
 -85.5873
 -85.5917
 -85.5887
 -85.5902
 -85.6109
 -85.6079
 -85.6103
 -85.6227
 -85.6255
 -85.6226
 -85.6256
 -85.605
 -85.6072
 -85.6056
 -85.6039
 -85.6318
 -85.6326
 -85.6345
 -85.6312
 -85.6315
 -85.6309
 -85.6319
 -85.6283
 -85.5137
 -85.5186
 -85.5142
 -85.554
 -85.5572
 -85.5583
 -85.5571
 -85.6107
 -85.6088
 -85.6096
 -85.6094
 -85.6452
 -85.647
 -85.6457
 -85.6475
 -85.5757
 -85.5725
 -85.5756
 -85.5799
 -85.5812
 -85.5813
 -85.6195
 -85.6186
 -85.6203
 -85.6203
 -85.6099
 -85.6119
 -85.613
 -85.6132
 -85.6708
 -85.6706
 -85.67
 -85.671
 -85.5469
 -85.5479
 -85.546
 -85.5422
 -85.6355
 -85.6368
 -85.5911
 -85.5942
 -85.5941
 -85.5917
 -85.6299
 -85.6312
 -85.6311
 -85.6317
 -85.6158
 -85.6166
 -85.6184
 -85.6169
 -85.595
 -85.5947
 -85.5972
 -85.5929
 -85.6273
 -85.6294
 -85.6285
 -85.6291
 -85.5712
 -85.572
 -85.5721
 -85.5737
 -85.5618
 -85.56
 -85.5621
 -85.5611
 -85.6422
 -85.6431
 -85.6454
 -85.6479
 -85.6099
 -85.6115
 -85.6134
 -85.5298
 -85.5289
 -85.5308
 -85.6481
 -85.6496
 -85.6499
 -85.6504
 -85.6518
 -85.6511
 -85.65
 -85.6496
 -85.6051
 -85.6059
 -85.6068
 -85.6077
 -85.6552
 -85.6564
 -85.6563
 -85.6561
 -85.6576
 -85.6596
 -85.658
 -85.6601
 -85.5947
 -85.596
 -85.5981
 -85.5955
 -85.6392
 -85.6403
 -85.6413
 -85.6411
 -85.6698
 -85.67
 -85.6692
 -85.6705
 -85.6387
 -85.6385
 -85.6373
 -85.6402
 -85.6123
 -85.6092
 -85.6105
 -85.6079
 -85.6463
 -85.6468
 -85.6453
 -85.6447
 -85.6314
 -85.6307
 -85.6326
 -85.6202
 -85.6224
 -85.5391
 -85.5401
 -85.5384
 -85.5375
 -85.6188
 -85.6214
 -85.6205
 -85.6204
 -85.5408
 -85.5416
 -85.5421
 -85.5424
 -85.5409
 -85.54
 -85.5437
 -85.5438
 -85.6143
 -85.6158
 -85.6158
 -85.6136
 -85.5907
 -85.5908
 -85.5885
 -85.5915
 -85.6233
 -85.626
 -85.6252
 -85.625
 -85.608
 -85.6061
 -85.5581
 -85.5569
 -85.5575
 -85.5594
 -85.6609
 -85.6617
 -85.6624
 -85.6616
 -85.5917
 -85.5901
 -85.5943
 -85.5923
 -85.646
 -85.6451
 -85.6436
 -85.6452
 -85.5587
 -85.5563
 -85.5583
 -85.5572
 -85.6524
 -85.6548
 -85.6543
 -85.6545
 -85.6191
 -85.6162
 -85.6187
 -85.6186
 -85.5773
 -85.5743
 -85.5722
 -85.5738
 -85.6694
 -85.669
 -85.669
 -85.6683
 -85.585
 -85.5875
 -85.5854
 -85.5851
 -85.5945
 -85.5909
 -85.5936
 -85.5913
 -85.6624
 -85.6628
 -85.6614
 -85.6633
 -85.605
 -85.6012
 -85.6026
 -85.6026
 -85.6476
 -85.6491
 -85.6479
 -85.6474
 -85.6452
 -85.6436
 -85.6442
 -85.5968
 -85.5927
 -85.594
 -85.5942
 -85.6455
 -85.6472
 -85.6459
 -85.6466
 -85.5692
 -85.5716
 -85.5713
 -85.5692
 -85.6513
 -85.6525
 -85.6524
 -85.6517
 -85.6503
 -85.6495
 -85.6505
 -85.6498
 -85.5725
 -85.5718
 -85.5761
 -85.5738
 -85.5756
 -85.5751
 -85.5773
 -85.5739
 -85.4843
 -85.4849
 -85.4828
 -85.4835
 -85.6368
 -85.6342
 -85.6345
 -85.5415
 -85.5452
 -85.5459
 -85.5436
 -85.659
 -85.6573
 -85.6578
 -85.6579
 -85.5707
 -85.6471
 -85.6447
 -85.645
 -85.6466
 -85.6474
 -85.645
 -85.6456
 -85.507
 -85.5043
 -85.5056
 -85.5067
 -85.5012
 -85.5023
 -85.5012
 -85.5003
 -85.6571
 -85.6552
 -85.6566
 -85.658
 -85.5753
 -85.5743
 -85.5764
 -85.5738
 -85.6305
 -85.6297
 -85.632
 -85.5869
 -85.5847
 -85.5868
 -85.5836
 -85.5971
 -85.5972
 -85.5968
 -85.6462
 -85.6456
 -85.6484
 -85.6184
 -85.6207
 -85.6206
 -85.6186
 -85.5881
 -85.5852
 -85.5854
 -85.5875
 -85.5737
 -85.5748
 -85.5734
 -85.5745
 -85.6308
 -85.6324
 -85.6326
 -85.5553
 -85.5572
 -85.5527
 -85.5524
 -85.5737
 -85.5781
 -85.5746
 -85.594
 -85.5985
 -85.5973
 -85.596
 -85.5673
 -85.5699
 -85.5701
 -85.5691
 -85.5741
 -85.5769
 -85.5776
 -85.5767
 -85.6477
 -85.646
 -85.6465
 -85.6461
 -85.6003
 -85.5981
 -85.5993
 -85.6011
 -85.5813
 -85.5815
 -85.6118
 -85.6102
 -85.6111
 -85.6086
 -85.6538
 -85.6597
 -85.6603
 -85.66
 -85.6597
 -85.4803
 -85.4798
 -85.4796
 -85.4804
 -85.6422
 -85.6446
 -85.6428
 -85.6656
 -85.6653
 -85.6646
 -85.6654
 -85.6375
 -85.6345
 -85.6357
 -85.6348
 -85.5725
 -85.5733
 -85.5747
 -85.5726
 -85.5981
 -85.5961
 -85.5957
 -85.5948
 -85.6668
 -85.6668
 -85.6665
 -85.6661
 -85.6368
 -85.6349
 -85.6336
 -85.6354
 -85.5538
 -85.5516
 -85.5513
 -85.5555
 -85.5944
 -85.5944
 -85.5951
 -85.5907
 -85.5918
 -85.5931
 -85.5943
 -85.5919
 -85.4804
 -85.48
 -85.48
 -85.4806
 -85.569
 -85.5685
 -85.568
 -85.5699
 -85.6374
 -85.6403
 -85.6378
 -85.6389
 -85.62
 -85.6198
 -85.6224
 -85.6191
 -85.6012
 -85.6026
 -85.6051
 -85.6026
 -85.6332
 -85.6358
 -85.6347
 -85.635
 -85.6204
 -85.6208
 -85.6229
 -85.6203
 -85.6339
 -85.6335
 -85.6322
 -85.6362
 -85.6695
 -85.6675
 -85.668
 -85.6698
 -85.6413
 -85.6398
 -85.6394
 -85.6362
 -85.6314
 -85.6295
 -85.6284
 -85.6311
 -85.6289
 -85.6116
 -85.6114
 -85.6097
 -85.6141
 -85.6601
 -85.6596
 -85.6592
 -85.6591
 -85.6007
 -85.5987
 -85.6011
 -85.6002
 -85.6186
 -85.6197
 -85.6209
 -85.617
 -85.6075
 -85.6045
 -85.6067
 -85.609
 -85.5875
 -85.5835
 -85.5867
 -85.5842
 -85.5229
 -85.5242
 -85.5283
 -85.5232
 -85.6708
 -85.669
 -85.6272
 -85.6256
 -85.6255
 -85.4905
 -85.4906
 -85.4907
 -85.5785
 -85.5764
 -85.5776
 -85.5754
 -85.5397
 -85.5406
 -85.5359
 -85.5355
 -85.5639
 -85.5625
 -85.5646
 -85.5604
 -85.6596
 -85.6568
 -85.6583
 -85.6582
 -85.6128
 -85.6101
 -85.6108
 -85.6097
 -85.6295
 -85.6324
 -85.632
 -85.6342
 -85.6199
 -85.6201
 -85.6176
 -85.6166
 -85.6351
 -85.6357
 -85.634
 -85.6344
 -85.6035
 -85.6032
 -85.6466
 -85.6417
 -85.6466
 -85.6425
 -85.6351
 -85.6335
 -85.6323
 -85.6363
 -85.5773
 -85.5745
 -85.5778
 -85.575
 -85.5786
 -85.5795
 -85.5794
 -85.5797
 -85.6175
 -85.6176
 -85.6167
 -85.6186
 -85.6129
 -85.6141
 -85.6158
 -85.6175
 -85.5645
 -85.5609
 -85.5605
 -85.5646
 -85.6324
 -85.631
 -85.6302
 -85.6297
 -85.6677
 -85.6668
 -85.6674
 -85.6671
 -85.6494
 -85.6482
 -85.6486
 -85.6478
 -85.6696
 -85.6703
 -85.6692
 -85.6705
 -85.6525
 -85.6543
 -85.6537
 -85.6539
 -85.6103
 -85.6136
 -85.6105
 -85.6112
 -85.6316
 -85.6296
 -85.605
 -85.6081
 -85.6043
 -85.6063
 -85.5779
 -85.5799
 -85.58
 -85.5808
 -85.6408
 -85.643
 -85.6431
 -85.6411
 -85.6039
 -85.6028
 -85.604
 -85.6012
 -85.5951
 -85.593
 -85.5923
 -85.5935
 -85.5728
 -85.5732
 -85.5745
 -85.5759
 -85.5817
 -85.5808
 -85.5799
 -85.5839
 -85.573
 -85.5745
 -85.5754
 -85.5738
 -85.5279
 -85.5288
 -85.5269
 -85.5272
 -85.6383
 -85.6391
 -85.6365
 -85.6385
 -85.6282
 -85.629
 -85.5322
 -85.5344
 -85.534
 -85.5304
 -85.5862
 -85.5868
 -85.6256
 -85.6239
 -85.6258
 -85.6495
 -85.6495
 -85.5687
 -85.5686
 -85.5675
 -85.5699
 -85.5318
 -85.5339
 -85.5338
 -85.5344
 -85.5625
 -85.5635
 -85.5653
 -85.5661
 -85.5854
 -85.5869
 -85.5878
 -85.5885
 -85.6211
 -85.6181
 -85.618
 -85.6184
 -85.6286
 -85.6275
 -85.6272
 -85.6267
 -85.5845
 -85.5874
 -85.5873
 -85.5867
 -85.6189
 -85.6186
 -85.6196
 -85.616
 -85.6088
 -85.6069
 -85.6064
 -85.6078
 -85.6132
 -85.6151
 -85.6165
 -85.6152
 -85.6147
 -85.6116
 -85.6152
 -85.6045
 -85.6028
 -85.6068
 -85.6051
 -85.5899
 -85.591
 -85.5882
 -85.5891
 -85.5751
 -85.5772
 -85.5739
 -85.5769
 -85.6591
 -85.6587
 -85.6598
 -85.6607
 -85.5998
 -85.5997
 -85.6023
 -85.6023
 -85.5611
 -85.5607
 -85.5578
 -85.5602
 -85.554
 -85.5537
 -85.5533
 -85.5523
 -85.5656
 -85.5642
 -85.5643
 -85.565
 -85.5724
 -85.5723
 -85.5753
 -85.5758
 -85.575
 -85.5734
 -85.5727
 -85.5738
 -85.6571
 -85.6582
 -85.658
 -85.6582
 -85.5961
 -85.5961
 -85.5954
 -85.5981
 -85.6366
 -85.6375
 -85.636
 -85.6352
 -85.5751
 -85.578
 -85.574
 -85.5769
 -85.6609
 -85.6617
 -85.6615
 -85.6631
 -85.6634
 -85.6633
 -85.6645
 -85.6334
 -85.6286
 -85.6302
 -85.6305
 -85.5807
 -85.5817
 -85.579
 -85.5809
 -85.6672
 -85.6655
 -85.6659
 -85.5934
 -85.591
 -85.5925
 -85.5888
 -85.6522
 -85.6526
 -85.649
 -85.6497
 -85.6516
 -85.6492
 -85.5889
 -85.5869
 -85.5879
 -85.5549
 -85.5559
 -85.5526
 -85.5539
 -85.5739
 -85.5719
 -85.5747
 -85.575
 -85.6086
 -85.6115
 -85.6081
 -85.6612
 -85.6582
 -85.6586
 -85.6343
 -85.6322
 -85.631
 -85.6325
 -85.6619
 -85.662
 -85.6595
 -85.6637
 -85.5969
 -85.5997
 -85.601
 -85.5988
 -85.6517
 -85.6522
 -85.6533
 -85.6502
 -85.6099
 -85.6104
 -85.6085
 -85.6076
 -85.5824
 -85.58
 -85.5814
 -85.6659
 -85.6645
 -85.6652
 -85.6672
 -85.6288
 -85.6196
 -85.6225
 -85.6219
 -85.6204
 -85.6224
 -85.6224
 -85.6206
 -85.5804
 -85.5791
 -85.5788
 -85.5786
 -85.5785
 -85.5817
 -85.5989
 -85.596
 -85.5956
 -85.5949
 -85.5952
 -85.5984
 -85.5958
 -85.5976
 -85.6328
 -85.6676
 -85.6656
 -85.665
 -85.6666
 -85.5136
 -85.5102
 -85.5129
 -85.5128
 -85.5878
 -85.5858
 -85.5809
 -85.58
 -85.5811
 -85.5817
 -85.5785
 -85.5788
 -85.5756
 -85.5768
 -85.6362
 -85.6336
 -85.6342
 -85.6355
 -85.6387
 -85.6401
 -85.6372
 -85.6389
 -85.582
 -85.5797
 -85.6303
 -85.6301
 -85.6333
 -85.6312
 -85.6327
 -85.6349
 -85.6327
 -85.6161
 -85.6145
 -85.6131
 -85.6121
 -85.6002
 -85.5977
 -85.5997
 -85.5977
 -85.637
 -85.6399
 -85.6395
 -85.6377
 -85.6446
 -85.6455
 -85.6468
 -85.645
 -85.6401
 -85.6425
 -85.6405
 -85.6386
 -85.6395
 -85.639
 -85.6369
 -85.5987
 -85.5995
 -85.5995
 -85.5976
 -85.5462
 -85.5462
 -85.5478
 -85.5479
 -85.5912
 -85.5906
 -85.5894
 -85.5901
 -85.644
 -85.642
 -85.6407
 -85.6428
 -85.6293
 -85.6287
 -85.6283
 -85.6309
 -85.5905
 -85.5922
 -85.5928
 -85.5934
 -85.6297
 -85.6271
 -85.6286
 -85.6295
 -85.6147
 -85.6157
 -85.6114
 -85.6153
 -85.6161
 -85.6187
 -85.6178
 -85.6182
 -85.629
 -85.6301
 -85.6303
 -85.6594
 -85.6597
 -85.6589
 -85.6592
 -85.5901
 -85.5926
 -85.5913
 -85.592
 -85.6064
 -85.6092
 -85.6087
 -85.6078
 -85.5462
 -85.5441
 -85.5445
 -85.5474
 -85.5722
 -85.5741
 -85.5739
 -85.5723
 -85.5763
 -85.5717
 -85.5736
 -85.5713
 -85.5718
 -85.573
 -85.5727
 -85.5737
 -85.6136
 -85.612
 -85.6128
 -85.5631
 -85.5628
 -85.5639
 -85.5642
 -85.5673
 -85.5684
 -85.5706
 -85.5671
 -85.6656
 -85.6643
 -85.664
 -85.6649
 -85.6156
 -85.614
 -85.6135
 -85.6124
 -85.6462
 -85.6464
 -85.6455
 -85.644
 -85.6204
 -85.6215
 -85.6197
 -85.6181
 -85.6283
 -85.6303
 -85.6286
 -85.6292
 -85.5791
 -85.5767
 -85.5781
 -85.5747
 -85.6061
 -85.611
 -85.6075
 -85.6077
 -85.6454
 -85.6466
 -85.6446
 -85.6453
 -85.6227
 -85.6219
 -85.6249
 -85.6239
 -85.5684
 -85.5674
 -85.5708
 -85.5714
 -85.659
 -85.6597
 -85.6592
 -85.6598
 -85.5914
 -85.5889
 -85.5667
 -85.607
 -85.6083
 -85.6097
 -85.6062
 -85.5999
 -85.6019
 -85.599
 -85.5988
 -85.5363
 -85.5357
 -85.5392
 -85.5874
 -85.5852
 -85.5844
 -85.583
 -85.6207
 -85.6249
 -85.6233
 -85.6253
 -85.6091
 -85.6114
 -85.61
 -85.6092
 -85.6549
 -85.6557
 -85.6558
 -85.6553
 -85.5742
 -85.5779
 -85.5752
 -85.5775
 -85.5773
 -85.5767
 -85.5802
 -85.5393
 -85.5351
 -85.5371
 -85.5394
 -85.5728
 -85.5757
 -85.5739
 -85.6187
 -85.6239
 -85.6195
 -85.5722
 -85.572
 -85.57
 -85.571
 -85.5998
 -85.6025
 -85.6032
 -85.6027
 -85.4807
 -85.4806
 -85.4806
 -85.482
 -85.5976
 -85.5964
 -85.597
 -85.5607
 -85.5604
 -85.5608
 -85.561
 -85.5969
 -85.5957
 -85.593
 -85.5954
 -85.5704
 -85.5726
 -85.5725
 -85.5735
 -85.6308
 -85.6317
 -85.6302
 -85.6324
 -85.6373
 -85.6357
 -85.6374
 -85.6382
 -85.6634
 -85.6635
 -85.6641
 -85.6626
 -85.6168
 -85.6137
 -85.6165
 -85.6174
 -85.569
 -85.5669
 -85.5687
 -85.5675
 -85.5806
 -85.5793
 -85.5513
 -85.5511
 -85.5525
 -85.5522
 -85.6029
 -85.604
 -85.5873
 -85.5913
 -85.5905
 -85.5776
 -85.579
 -85.5802
 -85.5785
 -85.6584
 -85.6588
 -85.6562
 -85.6566
 -85.6566
 -85.656
 -85.6551
 -85.6561
 -85.579
 -85.5802
 -85.5787
 -85.5761
 -85.5632
 -85.5638
 -85.6211
 -85.6215
 -85.6209
 -85.6233
 -85.5768
 -85.5755
 -85.578
 -85.5776
 -85.5911
 -85.5878
 -85.5937
 -85.6699
 -85.6704
 -85.6693
 -85.6091
 -85.6123
 -85.6108
 -85.6111
 -85.6505
 -85.6527
 -85.6499
 -85.6491
 -85.613
 -85.6154
 -85.6158
 -85.6128
 -85.6364
 -85.6384
 -85.6387
 -85.6353
 -85.5684
 -85.5704
 -85.5688
 -85.5679
 -85.5742
 -85.5777
 -85.5732
 -85.5767
 -85.6143
 -85.6117
 -85.6162
 -85.6131
 -85.5886
 -85.5918
 -85.5926
 -85.5882
 -85.5667
 -85.5675
 -85.5688
 -85.5711
 -85.6002
 -85.6016
 -85.6033
 -85.6046
 -85.6266
 -85.6271
 -85.6255
 -85.6127
 -85.615
 -85.6135
 -85.615
 -85.4949
 -85.4984
 -85.4995
 -85.4975
 -85.5638
 -85.5636
 -85.5641
 -85.5639
 -85.5872
 -85.5866
 -85.5871
 -85.5897
 -85.5302
 -85.5326
 -85.5285
 -85.5312
 -85.6501
 -85.6497
 -85.6482
 -85.6648
 -85.6638
 -85.6628
 -85.6637
 -85.64
 -85.6438
 -85.642
 -85.6421
 -85.6118
 -85.6262
 -85.6289
 -85.63
 -85.6281
 -85.6063
 -85.6082
 -85.6049
 -85.6051
 -85.5611
 -85.5579
 -85.5597
 -85.5767
 -85.5778
 -85.5785
 -85.5745
 -85.4973
 -85.4941
 -85.497
 -85.4925
 -85.5369
 -85.5368
 -85.5383
 -85.5365
 -85.5852
 -85.5851
 -85.5869
 -85.5887
 -85.6667
 -85.6647
 -85.6653
 -85.6649
 -85.5051
 -85.5047
 -85.508
 -85.5065
 -85.6337
 -85.6355
 -85.6321
 -85.6341
 -85.6128
 -85.6131
 -85.6156
 -85.6133
 -85.5793
 -85.5747
 -85.5745
 -85.6027
 -85.5996
 -85.599
 -85.599
 -85.665
 -85.6653
 -85.6658
 -85.5633
 -85.568
 -85.5687
 -85.5989
 -85.6007
 -85.6034
 -85.6029
 -85.586
 -85.5854
 -85.5848
 -85.5839
 -85.5893
 -85.5889
 -85.5917
 -85.5924
 -85.5602
 -85.5584
 -85.5585
 -85.5616
 -85.6028
 -85.6046
 -85.6018
 -85.6051
 -85.6589
 -85.6558
 -85.6559
 -85.6545
 -85.6546
 -85.654
 -85.6533
 -85.6555
 -85.5555
 -85.5555
 -85.5564
 -85.555
 -85.6482
 -85.6488
 -85.6485
 -85.6464
 -85.6568
 -85.6591
 -85.6583
 -85.6561
 -85.6473
 -85.6473
 -85.6447
 -85.6452
 -85.6268
 -85.626
 -85.628
 -85.6269
 -85.6081
 -85.6062
 -85.6092
 -85.5853
 -85.5812
 -85.5827
 -85.5832
 -85.6381
 -85.6365
 -85.6346
 -85.6374
 -85.6413
 -85.6418
 -85.6432
 -85.6425
 -85.6711
 -85.6709
 -85.6695
 -85.6702
 -85.5373
 -85.5393
 -85.5386
 -85.539
 -85.5522
 -85.5512
 -85.5516
 -85.5529
 -85.5604
 -85.5602
 -85.5639
 -85.56
 -85.5871
 -85.5835
 -85.586
 -85.5859
 -85.5921
 -85.5924
 -85.5922
 -85.6581
 -85.6595
 -85.6613
 -85.6603
 -85.6438
 -85.6431
 -85.642
 -85.6415
 -85.6052
 -85.6033
 -85.6026
 -85.6043
 -85.6556
 -85.6571
 -85.6205
 -85.6209
 -85.6208
 -85.6183
 -85.6546
 -85.6555
 -85.6573
 -85.6556
 -85.6158
 -85.619
 -85.6151
 -85.6195
 -85.5845
 -85.5867
 -85.5825
 -85.5844
 -85.5498
 -85.5474
 -85.5495
 -85.5519
 -85.4937
 -85.4965
 -85.4921
 -85.4952
 -85.6513
 -85.6501
 -85.65
 -85.6517
 -85.655
 -85.6552
 -85.6555
 -85.6567
 -85.5967
 -85.5932
 -85.5957
 -85.594
 -85.6115
 -85.6101
 -85.6097
 -85.6118
 -85.5748
 -85.5724
 -85.5765
 -85.6222
 -85.6204
 -85.6207
 -85.6192
 -85.5755
 -85.5749
 -85.5764
 -85.5769
 -85.607
 -85.6043
 -85.6023
 -85.6039
 -85.6283
 -85.627
 -85.6279
 -85.6285
 -85.6133
 -85.6125
 -85.6115
 -85.6483
 -85.646
 -85.647
 -85.6469
 -85.6242
 -85.6273
 -85.5265
 -85.5305
 -85.5253
 -85.5276
 -85.6387
 -85.6374
 -85.6384
 -85.5793
 -85.5801
 -85.5803
 -85.5791
 -85.6243
 -85.6244
 -85.6233
 -85.6065
 -85.6038
 -85.607
 -85.605
 -85.6226
 -85.6193
 -85.6238
 -85.6215
 -85.6243
 -85.6272
 -85.511
 -85.511
 -85.5091
 -85.5105
 -85.4972
 -85.4943
 -85.4924
 -85.4955
 -85.6092
 -85.606
 -85.6071
 -85.6058
 -85.6218
 -85.6201
 -85.6216
 -85.6196
 -85.5116
 -85.5114
 -85.5117
 -85.5142
 -85.5785
 -85.5756
 -85.5574
 -85.5582
 -85.5588
 -85.561
 -85.6252
 -85.6246
 -85.6279
 -85.6261
 -85.62
 -85.6204
 -85.6227
 -85.6189
 -85.6229
 -85.6202
 -85.6198
 -85.62
 -85.5867
 -85.5873
 -85.589
 -85.5866
 -85.5685
 -85.5671
 -85.5649
 -85.5688
 -85.5407
 -85.544
 -85.5436
 -85.5406
 -85.5705
 -85.5706
 -85.5707
 -85.5747
 -85.6384
 -85.6368
 -85.6392
 -85.6382
 -85.6092
 -85.603
 -85.6062
 -85.5337
 -85.5358
 -85.5379
 -85.6303
 -85.6339
 -85.6321
 -85.6321
 -85.6323
 -85.6285
 -85.6303
 -85.6314
 -85.5971
 -85.5953
 -85.5942
 -85.6016
 -85.6026
 -85.6051
 -85.6026
 -85.5697
 -85.5683
 -85.5678
 -85.5679
 -85.6471
 -85.6464
 -85.6481
 -85.6474
 -85.5654
 -85.5649
 -85.5651
 -85.5658
 -85.5611
 -85.5597
 -85.5611
 -85.6636
 -85.666
 -85.6669
 -85.6653
 -85.6459
 -85.6474
 -85.5826
 -85.5813
 -85.5839
 -85.5835
 -85.6072
 -85.6102
 -85.6075
 -85.6017
 -85.6007
 -85.6011
 -85.5984
 -85.5666
 -85.5691
 -85.5677
 -85.6453
 -85.6468
 -85.6439
 -85.6445
 -85.5656
 -85.5696
 -85.5668
 -85.566
 -85.6345
 -85.6324
 -85.6311
 -85.6318
 -85.5663
 -85.5673
 -85.5693
 -85.5663
 -85.5683
 -85.5673
 -85.5798
 -85.5782
 -85.579
 -85.5798
 -85.5384
 -85.5369
 -85.534
 -85.5368
 -85.6392
 -85.6415
 -85.5896
 -85.5911
 -85.5917
 -85.5914
 -85.6637
 -85.6631
 -85.6634
 -85.6643
 -85.5856
 -85.5835
 -85.5866
 -85.589
 -85.6429
 -85.6451
 -85.6457
 -85.6455
 -85.6552
 -85.6574
 -85.6541
 -85.6566
 -85.634
 -85.6312
 -85.6594
 -85.6608
 -85.6603
 -85.6597
 -85.567
 -85.567
 -85.566
 -85.569
 -85.6597
 -85.6601
 -85.6602
 -85.6595
 -85.6656
 -85.6674
 -85.6667
 -85.6656
 -85.6187
 -85.6188
 -85.6213
 -85.6205
 -85.602
 -85.6007
 -85.6038
 -85.6053
 -85.6524
 -85.6499
 -85.6516
 -85.6525
 -85.53
 -85.5335
 -85.5309
 -85.5296
 -85.6511
 -85.6538
 -85.5885
 -85.5906
 -85.5907
 -85.5935
 -85.6513
 -85.6501
 -85.6484
 -85.6485
 -85.5703
 -85.5727
 -85.5723
 -85.572
 -85.5926
 -85.5883
 -85.5898
 -85.592
 -85.5719
 -85.5709
 -85.5748
 -85.5692
 -85.5679
 -85.5692
 -85.5672
 -85.5639
 -85.5658
 -85.565
 -85.566
 -85.6208
 -85.6188
 -85.6181
 -85.6491
 -85.6492
 -85.6509
 -85.651
 -85.6146
 -85.6131
 -85.6119
 -85.5697
 -85.5681
 -85.5694
 -85.6071
 -85.6108
 -85.6076
 -85.61
 -85.6245
 -85.6242
 -85.6244
 -85.6274
 -85.599
 -85.6019
 -85.6023
 -85.6014
 -85.5976
 -85.5965
 -85.5955
 -85.5917
 -85.59
 -85.5894
 -85.5929
 -85.5947
 -85.5962
 -85.5917
 -85.6499
 -85.6492
 -85.65
 -85.648
 -85.6303
 -85.6287
 -85.6302
 -85.6312
 -85.6028
 -85.6031
 -85.6017
 -85.6059
 -85.564
 -85.5618
 -85.5637
 -85.6156
 -85.6139
 -85.6153
 -85.616
 -85.5807
 -85.5771
 -85.579
 -85.5771
 -85.5182
 -85.5197
 -85.5178
 -85.5168
 -85.5935
 -85.592
 -85.5931
 -85.5929
 -85.6524
 -85.6517
 -85.6539
 -85.6532
 -85.5907
 -85.5935
 -85.5918
 -85.5902
 -85.5662
 -85.5662
 -85.5668
 -85.5677
 -85.5683
 -85.5668
 -85.5672
 -85.6008
 -85.6014
 -85.6003
 -85.6262
 -85.5898
 -85.5853
 -85.5882
 -85.588
 -85.6557
 -85.6554
 -85.6565
 -85.6526
 -85.653
 -85.6539
 -85.5889
 -85.5916
 -85.5896
 -85.5913
 -85.665
 -85.6659
 -85.6664
 -85.6664
 -85.5711
 -85.6197
 -85.6169
 -85.6186
 -85.6181
 -85.5704
 -85.5713
 -85.571
 -85.5717
 -85.6546
 -85.656
 -85.6535
 -85.6548
 -85.628
 -85.6315
 -85.6303
 -85.6286
 -85.6411
 -85.6426
 -85.6396
 -85.6403
 -85.5639
 -85.5648
 -85.5656
 -85.564
 -85.5834
 -85.5856
 -85.5832
 -85.5836
 -85.6156
 -85.6138
 -85.6157
 -85.613
 -85.5849
 -85.5817
 -85.586
 -85.5829
 -85.6262
 -85.6273
 -85.6297
 -85.6291
 -85.5722
 -85.5712
 -85.5739
 -85.5736
 -85.5811
 -85.5818
 -85.5843
 -85.5833
 -85.6196
 -85.6199
 -85.6199
 -85.6224
 -85.6549
 -85.657
 -85.6557
 -85.6572
 -85.5583
 -85.5596
 -85.5615
 -85.5611
 -85.5389
 -85.5348
 -85.539
 -85.5383
 -85.6567
 -85.6586
 -85.6577
 -85.6577
 -85.5434
 -85.5407
 -85.5429
 -85.5412
 -85.5403
 -85.5433
 -85.608
 -85.6089
 -85.6067
 -85.6056
 -85.5826
 -85.5843
 -85.5842
 -85.5818
 -85.6707
 -85.6708
 -85.6709
 -85.6701
 -85.6545
 -85.6542
 -85.6565
 -85.6271
 -85.6269
 -85.6291
 -85.6263
 -85.5687
 -85.5694
 -85.567
 -85.5701
 -85.5808
 -85.5803
 -85.5796
 -85.579
 -85.5807
 -85.5821
 -85.628
 -85.6321
 -85.6308
 -85.629
 -85.6233
 -85.6231
 -85.6208
 -85.6238
 -85.631
 -85.6305
 -85.6283
 -85.6308
 -85.6646
 -85.6647
 -85.6621
 -85.6655
 -85.6361
 -85.6359
 -85.6337
 -85.5931
 -85.612
 -85.6111
 -85.6118
 -85.6099
 -85.6138
 -85.6106
 -85.6116
 -85.6131
 -85.6474
 -85.6467
 -85.6465
 -85.6452
 -85.6365
 -85.635
 -85.6353
 -85.6372
 -85.6221
 -85.6199
 -85.6196
 -85.5872
 -85.5848
 -85.5875
 -85.5835
 -85.6113
 -85.6154
 -85.6131
 -85.6133
 -85.5923
 -85.5943
 -85.591
 -85.505
 -85.5047
 -85.5027
 -85.5062
 -85.6484
 -85.6519
 -85.6503
 -85.6479
 -85.6448
 -85.6486
 -85.6465
 -85.5087
 -85.615
 -85.6153
 -85.6146
 -85.6176
 -85.6215
 -85.6219
 -85.5503
 -85.5504
 -85.55
 -85.5513
 -85.5611
 -85.5622
 -85.5656
 -85.5616
 -85.5761
 -85.5778
 -85.5767
 -85.5771
 -85.5746
 -85.576
 -85.5767
 -85.5741
 -85.5738
 -85.5757
 -85.5927
 -85.5903
 -85.5894
 -85.5896
 -85.5957
 -85.5985
 -85.6711
 -85.6709
 -85.567
 -85.5712
 -85.5667
 -85.5693
 -85.6019
 -85.6011
 -85.6031
 -85.5998
 -85.5565
 -85.5576
 -85.5529
 -85.5541
 -85.6508
 -85.652
 -85.6491
 -85.6503
 -85.6438
 -85.6419
 -85.6437
 -85.6418
 -85.6264
 -85.6283
 -85.6287
 -85.6272
 -85.6159
 -85.6166
 -85.6202
 -85.6189
 -85.6087
 -85.6076
 -85.5669
 -85.6341
 -85.6364
 -85.6363
 -85.6365
 -85.6623
 -85.6618
 -85.6641
 -85.6614
 -85.646
 -85.6485
 -85.6454
 -85.6465
 -85.4809
 -85.4809
 -85.4814
 -85.4821
 -85.6629
 -85.6634
 -85.6628
 -85.6629
 -85.5768
 -85.5769
 -85.5744
 -85.578
 -85.5879
 -85.5849
 -85.586
 -85.5837
 -85.6318
 -85.632
 -85.6334
 -85.6339
 -85.6329
 -85.632
 -85.6309
 -85.6316
 -85.569
 -85.5723
 -85.5704
 -85.5716
 -85.6617
 -85.6623
 -85.6615
 -85.6618
 -85.6518
 -85.6527
 -85.6523
 -85.6534
 -85.6341
 -85.6344
 -85.6361
 -85.6363
 -85.6526
 -85.651
 -85.652
 -85.6524
 -85.581
 -85.5839
 -85.584
 -85.5848
 -85.5691
 -85.5695
 -85.5704
 -85.5709
 -85.649
 -85.6477
 -85.6469
 -85.6473
 -85.5989
 -85.5981
 -85.5975
 -85.595
 -85.6021
 -85.6009
 -85.6003
 -85.6019
 -85.4985
 -85.5008
 -85.5014
 -85.5011
 -85.6617
 -85.662
 -85.6544
 -85.6545
 -85.6532
 -85.6556
 -85.5561
 -85.554
 -85.5531
 -85.5563
 -85.5842
 -85.5806
 -85.5803
 -85.5793
 -85.6523
 -85.651
 -85.6536
 -85.6537
 -85.596
 -85.5968
 -85.5955
 -85.5984
 -85.5903
 -85.5912
 -85.5881
 -85.5884
 -85.6639
 -85.6644
 -85.6635
 -85.6634
 -85.6142
 -85.6133
 -85.6142
 -85.6152
 -85.6079
 -85.6087
 -85.6082
 -85.6062
 -85.642
 -85.6426
 -85.6434
 -85.6417
 -85.6278
 -85.6269
 -85.6261
 -85.6246
 -85.5966
 -85.5966
 -85.5935
 -85.5846
 -85.5869
 -85.5854
 -85.5896
 -85.5457
 -85.5439
 -85.544
 -85.5483
 -85.5877
 -85.5894
 -85.5899
 -85.5904
 -85.6116
 -85.6102
 -85.6112
 -85.6095
 -85.6628
 -85.6634
 -85.6633
 -85.6611
 -85.5895
 -85.594
 -85.5917
 -85.5911
 -85.5565
 -85.5563
 -85.554
 -85.5522
 -85.6321
 -85.6346
 -85.6334
 -85.6317
 -85.6228
 -85.6221
 -85.6209
 -85.6113
 -85.6145
 -85.6154
 -85.6162
 -85.5416
 -85.5412
 -85.5415
 -85.5438
 -85.6158
 -85.6137
 -85.6143
 -85.6131
 -85.6607
 -85.6607
 -85.6609
 -85.661
 -85.6131
 -85.6128
 -85.6138
 -85.6143
 -85.5625
 -85.561
 -85.5622
 -85.5628
 -85.5727
 -85.5745
 -85.5725
 -85.5704
 -85.6713
 -85.6709
 -85.6714
 -85.6713
 -85.5809
 -85.5816
 -85.5812
 -85.5772
 -85.6221
 -85.6187
 -85.6195
 -85.6208
 -85.6707
 -85.6711
 -85.6703
 -85.67
 -85.6555
 -85.658
 -85.6565
 -85.633
 -85.6326
 -85.6356
 -85.6364
 -85.6497
 -85.6502
 -85.6525
 -85.649
 -85.5184
 -85.5207
 -85.5226
 -85.5217
 -85.5721
 -85.5753
 -85.5706
 -85.6593
 -85.6611
 -85.6607
 -85.6611
 -85.6208
 -85.6198
 -85.6224
 -85.6189
 -85.6404
 -85.6396
 -85.6426
 -85.6382
 -85.5595
 -85.5592
 -85.5569
 -85.5559
 -85.5952
 -85.5987
 -85.5949
 -85.5972
 -85.6265
 -85.6226
 -85.624
 -85.5531
 -85.5537
 -85.5548
 -85.5548
 -85.5712
 -85.5653
 -85.5666
 -85.5657
 -85.5915
 -85.66
 -85.6611
 -85.6602
 -85.6615
 -85.5229
 -85.5226
 -85.5201
 -85.5203
 -85.6408
 -85.6446
 -85.6429
 -85.645
 -85.6237
 -85.622
 -85.6224
 -85.6198
 -85.5054
 -85.6461
 -85.6446
 -85.6472
 -85.6592
 -85.6614
 -85.6599
 -85.6601
 -85.6032
 -85.603
 -85.6073
 -85.6045
 -85.6299
 -85.6298
 -85.6315
 -85.6286
 -85.5763
 -85.574
 -85.6084
 -85.6072
 -85.6069
 -85.6095
 -85.576
 -85.5742
 -85.5726
 -85.5747
 -85.5849
 -85.5839
 -85.5878
 -85.588
 -85.6341
 -85.6324
 -85.6341
 -85.6345
 -85.5325
 -85.532
 -85.5319
 -85.5356
 -85.5694
 -85.5682
 -85.5692
 -85.5676
 -85.5386
 -85.5408
 -85.5612
 -85.5614
 -85.5617
 -85.5613
 -85.5569
 -85.5551
 -85.5577
 -85.5555
 -85.6635
 -85.6626
 -85.6612
 -85.6612
 -85.6189
 -85.6187
 -85.6176
 -85.6214
 -85.5942
 -85.5982
 -85.5961
 -85.596
 -85.6115
 -85.6104
 -85.6098
 -85.6123
 -85.6619
 -85.6615
 -85.5524
 -85.5512
 -85.5515
 -85.5524
 -85.6612
 -85.6619
 -85.6603
 -85.5269
 -85.5263
 -85.5267
 -85.5254
 -85.6571
 -85.6546
 -85.6563
 -85.6553
 -85.5864
 -85.5846
 -85.5871
 -85.5842
 -85.6018
 -85.6015
 -85.6007
 -85.6599
 -85.6588
 -85.6593
 -85.6602
 -85.6183
 -85.6158
 -85.6183
 -85.6167
 -85.6022
 -85.6038
 -85.6055
 -85.6033
 -85.5875
 -85.5861
 -85.5947
 -85.5895
 -85.5929
 -85.5915
 -85.6231
 -85.6203
 -85.6219
 -85.6635
 -85.6614
 -85.661
 -85.6632
 -85.6009
 -85.6025
 -85.6006
 -85.6016
 -85.5956
 -85.5938
 -85.5832
 -85.5804
 -85.5797
 -85.5823
 -85.5334
 -85.534
 -85.537
 -85.6184
 -85.6192
 -85.6158
 -85.6157
 -85.6624
 -85.6627
 -85.6626
 -85.5382
 -85.5372
 -85.5384
 -85.5993
 -85.5974
 -85.5986
 -85.5962
 -85.6292
 -85.6294
 -85.6268
 -85.6276
 -85.5194
 -85.5179
 -85.5188
 -85.5198
 -85.6507
 -85.6513
 -85.6502
 -85.6499
 -85.6314
 -85.6298
 -85.63
 -85.6289
 -85.6457
 -85.6463
 -85.6449
 -85.6588
 -85.6593
 -85.6616
 -85.6601
 -85.6105
 -85.6073
 -85.6102
 -85.6108
 -85.659
 -85.6582
 -85.6579
 -85.6574
 -85.5877
 -85.5872
 -85.589
 -85.5858
 -85.6629
 -85.6264
 -85.6072
 -85.6064
 -85.6087
 -85.6056
 -85.6231
 -85.6223
 -85.6206
 -85.62
 -85.6372
 -85.6376
 -85.6361
 -85.6346
 -85.6245
 -85.6238
 -85.6262
 -85.625
 -85.6398
 -85.6383
 -85.6401
 -85.6399
 -85.6071
 -85.6055
 -85.606
 -85.6084
 -85.6027
 -85.6032
 -85.6038
 -85.605
 -85.5951
 -85.5942
 -85.5934
 -85.5963
 -85.6038
 -85.6037
 -85.6013
 -85.5662
 -85.5667
 -85.5662
 -85.5679
 -85.6103
 -85.6282
 -85.631
 -85.6313
 -85.6303
 -85.6606
 -85.6607
 -85.6584
 -85.5831
 -85.579
 -85.5804
 -85.5793
 -85.6131
 -85.6162
 -85.6151
 -85.6238
 -85.6229
 -85.6218
 -85.621
 -85.6295
 -85.6307
 -85.6328
 -85.6336
 -85.654
 -85.655
 -85.6564
 -85.6546
 -85.5746
 -85.5743
 -85.5758
 -85.5721
 -85.6129
 -85.6113
 -85.6112
 -85.6097
 -85.6044
 -85.6034
 -85.6014
 -85.6046
 -85.6023
 -85.601
 -85.6004
 -85.5986
 -85.6083
 -85.6076
 -85.6091
 -85.6062
 -85.6366
 -85.6326
 -85.6373
 -85.6344
 -85.602
 -85.5982
 -85.5996
 -85.6005
 -85.5517
 -85.5518
 -85.5517
 -85.5526
 -85.5434
 -85.5449
 -85.5442
 -85.6079
 -85.6083
 -85.6103
 -85.611
 -85.609
 -85.6095
 -85.6109
 -85.612
 -85.6034
 -85.6009
 -85.605
 -85.6049
 -85.6579
 -85.6583
 -85.6558
 -85.656
 -85.6376
 -85.6356
 -85.635
 -85.6373
 -85.5811
 -85.5828
 -85.5823
 -85.583
 -85.5627
 -85.5663
 -85.5657
 -85.5612
 -85.6528
 -85.6519
 -85.6508
 -85.6527
 -85.5254
 -85.5227
 -85.5234
 -85.5268
 -85.5897
 -85.5923
 -85.5909
 -85.5906
 -85.5585
 -85.5597
 -85.5595
 -85.5725
 -85.5742
 -85.5745
 -85.5767
 -85.6338
 -85.6334
 -85.6352
 -85.6313
 -85.572
 -85.569
 -85.5697
 -85.5714
 -85.5444
 -85.5506
 -85.5466
 -85.5191
 -85.5221
 -85.5236
 -85.522
 -85.666
 -85.6665
 -85.6669
 -85.6681
 -85.5786
 -85.5768
 -85.578
 -85.5793
 -85.6195
 -85.6162
 -85.6169
 -85.6187
 -85.6559
 -85.6551
 -85.6534
 -85.6549
 -85.645
 -85.6471
 -85.6442
 -85.6451
 -85.5808
 -85.5815
 -85.5795
 -85.5806
 -85.5532
 -85.5501
 -85.5473
 -85.5508
 -85.6166
 -85.618
 -85.6153
 -85.6166
 -85.556
 -85.559
 -85.5961
 -85.5917
 -85.5927
 -85.595
 -85.5988
 -85.5986
 -85.597
 -85.5997
 -85.595
 -85.5952
 -85.5939
 -85.5643
 -85.5652
 -85.5643
 -85.6209
 -85.6209
 -85.622
 -85.6226
 -85.6177
 -85.6173
 -85.6159
 -85.6197
 -85.5803
 -85.583
 -85.5816
 -85.5806
 -85.6387
 -85.6407
 -85.6378
 -85.6386
 -85.6067
 -85.6034
 -85.6052
 -85.6075
 -85.5646
 -85.5646
 -85.5642
 -85.5645
 -85.5918
 -85.5942
 -85.5921
 -85.6203
 -85.6199
 -85.618
 -85.6195
 -85.6105
 -85.6123
 -85.6135
 -85.6652
 -85.6649
 -85.6643
 -85.6639
 -85.5396
 -85.5379
 -85.54
 -85.5355
 -85.5885
 -85.5909
 -85.5909
 -85.5889
 -85.5849
 -85.5843
 -85.5821
 -85.5851
 -85.6661
 -85.6658
 -85.6678
 -85.6689
 -85.6426
 -85.6438
 -85.6434
 -85.5738
 -85.5737
 -85.5721
 -85.5739
 -85.642
 -85.6395
 -85.6405
 -85.5785
 -85.5789
 -85.577
 -85.5775
 -85.4929
 -85.4947
 -85.4935
 -85.4951
 -85.6574
 -85.6578
 -85.6591
 -85.6566
 -85.5647
 -85.5639
 -85.5629
 -85.5609
 -85.664
 -85.6635
 -85.6632
 -85.6635
 -85.5712
 -85.574
 -85.5717
 -85.5732
 -85.4955
 -85.4918
 -85.4945
 -85.4948
 -85.5484
 -85.5459
 -85.5483
 -85.5492
 -85.566
 -85.5678
 -85.5694
 -85.5656
 -85.6055
 -85.6021
 -85.5621
 -85.5627
 -85.5578
 -85.5585
 -85.6224
 -85.6206
 -85.62
 -85.6186
 -85.6028
 -85.6028
 -85.6019
 -85.6054
 -85.6553
 -85.6532
 -85.6567
 -85.657
 -85.651
 -85.6502
 -85.652
 -85.6519
 -85.646
 -85.644
 -85.6455
 -85.644
 -85.654
 -85.6543
 -85.6548
 -85.6534
 -85.6293
 -85.629
 -85.631
 -85.6293
 -85.6471
 -85.649
 -85.6486
 -85.6479
 -85.5423
 -85.5382
 -85.5378
 -85.5424
 -85.6521
 -85.6534
 -85.6532
 -85.6528
 -85.595
 -85.5927
 -85.5913
 -85.5924
 -85.641
 -85.6377
 -85.6381
 -85.6513
 -85.6529
 -85.6532
 -85.6524
 -85.5655
 -85.5626
 -85.5624
 -85.5638
 -85.5493
 -85.5487
 -85.5473
 -85.5479
 -85.6336
 -85.6334
 -85.632
 -85.6357
 -85.5969
 -85.5967
 -85.5961
 -85.5943
 -85.6303
 -85.6291
 -85.6301
 -85.6296
 -85.6295
 -85.6293
 -85.6335
 -85.591
 -85.5903
 -85.5881
 -85.6276
 -85.629
 -85.614
 -85.6107
 -85.6632
 -85.6643
 -85.6642
 -85.6632
 -85.6106
 -85.6115
 -85.6099
 -85.613
 -85.6274
 -85.6266
 -85.6297
 -85.6266
 -85.6197
 -85.6208
 -85.6196
 -85.6217
 -85.6471
 -85.6425
 -85.6434
 -85.6419
 -85.6415
 -85.5994
 -85.6003
 -85.5976
 -85.5976
 -85.5602
 -85.5601
 -85.5601
 -85.5602
 -85.6281
 -85.6259
 -85.6284
 -85.627
 -85.6309
 -85.6298
 -85.6289
 -85.6318
 -85.5028
 -85.5049
 -85.5059
 -85.5075
 -85.6076
 -85.6099
 -85.6084
 -85.607
 -85.6045
 -85.6023
 -85.6013
 -85.6034
 -85.6268
 -85.625
 -85.5678
 -85.5683
 -85.5692
 -85.568
 -85.5867
 -85.5881
 -85.5876
 -85.5862
 -85.5712
 -85.5701
 -85.5695
 -85.5698
 -85.5824
 -85.5842
 -85.5839
 -85.5819
 -85.5701
 -85.5698
 -85.5689
 -85.5705
 -85.6438
 -85.6426
 -85.6432
 -85.6447
 -85.6519
 -85.6515
 -85.6496
 -85.6508
 -85.5792
 -85.5779
 -85.5765
 -85.5791
 -85.6076
 -85.6056
 -85.6075
 -85.6062
 -85.6461
 -85.6439
 -85.6458
 -85.6448
 -85.5985
 -85.5966
 -85.5969
 -85.6002
 -85.5787
 -85.5809
 -85.5542
 -85.5554
 -85.5559
 -85.5538
 -85.6033
 -85.6025
 -85.6005
 -85.5994
 -85.6467
 -85.6458
 -85.646
 -85.6484
 -85.6615
 -85.6602
 -85.6606
 -85.6618
 -85.5103
 -85.5099
 -85.5941
 -85.5968
 -85.5972
 -85.5985
 -85.5904
 -85.5865
 -85.589
 -85.5891
 -85.5881
 -85.5874
 -85.5726
 -85.5736
 -85.5737
 -85.5743
 -85.6031
 -85.6057
 -85.6068
 -85.5422
 -85.5442
 -85.5443
 -85.5459
 -85.6524
 -85.6538
 -85.6509
 -85.6527
 -85.6611
 -85.661
 -85.6608
 -85.6661
 -85.6653
 -85.6637
 -85.6648
 -85.6179
 -85.6217
 -85.6205
 -85.6208
 -85.6074
 -85.6107
 -85.6065
 -85.6093
 -85.6396
 -85.6427
 -85.6437
 -85.642
 -85.6259
 -85.6253
 -85.6277
 -85.6255
 -85.6223
 -85.6246
 -85.6233
 -85.6121
 -85.6125
 -85.6113
 -85.6146
 -85.6347
 -85.6392
 -85.6375
 -85.635
 -85.5987
 -85.5968
 -85.5983
 -85.5988
 -85.6091
 -85.6085
 -85.6115
 -85.6077
 -85.6295
 -85.6289
 -85.6276
 -85.6296
 -85.6078
 -85.6064
 -85.6057
 -85.6083
 -85.4967
 -85.4957
 -85.4993
 -85.4991
 -85.5754
 -85.5743
 -85.5741
 -85.5726
 -85.6345
 -85.6343
 -85.637
 -85.6373
 -85.571
 -85.5712
 -85.5675
 -85.5666
 -85.5639
 -85.5603
 -85.5639
 -85.5663
 -85.648
 -85.6475
 -85.6488
 -85.6461
 -85.645
 -85.6427
 -85.6448
 -85.6442
 -85.6535
 -85.6515
 -85.6531
 -85.654
 -85.6376
 -85.6376
 -85.6397
 -85.6387
 -85.5941
 -85.5934
 -85.5917
 -85.5934
 -85.5761
 -85.5751
 -85.5773
 -85.5746
 -85.6305
 -85.6269
 -85.6307
 -85.6277
 -85.5771
 -85.578
 -85.5783
 -85.5781
 -85.556
 -85.5567
 -85.5574
 -85.5584
 -85.6058
 -85.6079
 -85.6061
 -85.6079
 -85.589
 -85.5871
 -85.5854
 -85.5907
 -85.5918
 -85.5952
 -85.5927
 -85.5562
 -85.5545
 -85.5522
 -85.5544
 -85.5788
 -85.5783
 -85.5775
 -85.5777
 -85.6333
 -85.6347
 -85.6335
 -85.6342
 -85.6107
 -85.613
 -85.6135
 -85.6672
 -85.6657
 -85.6659
 -85.6667
 -85.6571
 -85.6588
 -85.66
 -85.6581
 -85.5875
 -85.5896
 -85.5863
 -85.5895
 -85.6151
 -85.6171
 -85.5596
 -85.5593
 -85.5561
 -85.5607
 -85.6107
 -85.6081
 -85.6072
 -85.6094
 -85.6528
 -85.6534
 -85.6515
 -85.6532
 -85.576
 -85.5767
 -85.5774
 -85.596
 -85.5968
 -85.5973
 -85.5937
 -85.5884
 -85.5918
 -85.5917
 -85.5911
 -85.606
 -85.6084
 -85.6089
 -85.6059
 -85.6012
 -85.6028
 -85.6047
 -85.6025
 -85.6095
 -85.6109
 -85.609
 -85.6117
 -85.5988
 -85.6008
 -85.6417
 -85.6401
 -85.6435
 -85.6412
 -85.6005
 -85.5981
 -85.599
 -85.6006
 -85.6219
 -85.6186
 -85.6203
 -85.5998
 -85.6023
 -85.6005
 -85.602
 -85.6232
 -85.6218
 -85.6205
 -85.6222
 -85.5718
 -85.5693
 -85.5712
 -85.5678
 -85.6
 -85.5995
 -85.6026
 -85.6163
 -85.6168
 -85.6196
 -85.6148
 -85.6045
 -85.6039
 -85.6057
 -85.5711
 -85.5717
 -85.5697
 -85.6246
 -85.6242
 -85.6238
 -85.6214
 -85.6057
 -85.6077
 -85.6081
 -85.5131
 -85.514
 -85.515
 -85.5104
 -85.6257
 -85.6238
 -85.6226
 -85.626
 -85.5908
 -85.5881
 -85.5886
 -85.5875
 -85.6457
 -85.6456
 -85.6465
 -85.6474
 -85.6505
 -85.6488
 -85.6515
 -85.651
 -85.5635
 -85.5673
 -85.5625
 -85.5632
 -85.6152
 -85.6134
 -85.6118
 -85.5821
 -85.5793
 -85.5814
 -85.5813
 -85.6497
 -85.6468
 -85.6485
 -85.6097
 -85.612
 -85.6104
 -85.6125
 -85.6321
 -85.6331
 -85.6329
 -85.6323
 -85.656
 -85.6564
 -85.6573
 -85.6558
 -85.4847
 -85.4828
 -85.4832
 -85.4846
 -85.5819
 -85.5826
 -85.5841
 -85.5816
 -85.6134
 -85.6179
 -85.6162
 -85.6172
 -85.5518
 -85.5496
 -85.5484
 -85.6056
 -85.6077
 -85.6073
 -85.605
 -85.6585
 -85.628
 -85.6261
 -85.6234
 -85.6261
 -85.6483
 -85.6483
 -85.6486
 -85.6494
 -85.6394
 -85.6387
 -85.6382
 -85.6401
 -85.6151
 -85.6142
 -85.6101
 -85.6072
 -85.6075
 -85.6072
 -85.5168
 -85.5199
 -85.5171
 -85.5187
 -85.5867
 -85.5857
 -85.5846
 -85.5826
 -85.5824
 -85.5844
 -85.5829
 -85.6596
 -85.6621
 -85.6599
 -85.6595
 -85.6061
 -85.606
 -85.6086
 -85.6088
 -85.6144
 -85.6133
 -85.6113
 -85.613
 -85.6505
 -85.6489
 -85.6516
 -85.6491
 -85.6084
 -85.6076
 -85.6108
 -85.6086
 -85.5396
 -85.5404
 -85.5375
 -85.5385
 -85.6035
 -85.6027
 -85.6045
 -85.6034
 -85.5809
 -85.5812
 -85.5816
 -85.5832
 -85.5753
 -85.5732
 -85.5734
 -85.5745
 -85.56
 -85.5609
 -85.5598
 -85.5597
 -85.5342
 -85.533
 -85.5323
 -85.5364
 -85.6651
 -85.6639
 -85.6644
 -85.664
 -85.524
 -85.5252
 -85.5221
 -85.5263
 -85.6066
 -85.6048
 -85.6065
 -85.6044
 -85.6635
 -85.6637
 -85.6623
 -85.6628
 -85.594
 -85.5931
 -85.5948
 -85.5953
 -85.5597
 -85.6547
 -85.6537
 -85.6541
 -85.6563
 -85.5704
 -85.5382
 -85.542
 -85.5421
 -85.5386
 -85.6184
 -85.6216
 -85.6407
 -85.638
 -85.6416
 -85.6388
 -85.6473
 -85.6473
 -85.6487
 -85.6483
 -85.6669
 -85.6655
 -85.6674
 -85.6417
 -85.6444
 -85.644
 -85.6436
 -85.5945
 -85.6612
 -85.6306
 -85.6301
 -85.6291
 -85.6609
 -85.6619
 -85.6623
 -85.6615
 -85.596
 -85.5955
 -85.5958
 -85.5938
 -85.5801
 -85.5811
 -85.5786
 -85.5778
 -85.628
 -85.6263
 -85.6271
 -85.6306
 -85.659
 -85.6601
 -85.6583
 -85.6579
 -85.6529
 -85.6524
 -85.6533
 -85.6522
 -85.6216
 -85.6255
 -85.6251
 -85.5312
 -85.529
 -85.5354
 -85.531
 -85.4879
 -85.4913
 -85.4893
 -85.4908
 -85.5525
 -85.5489
 -85.5481
 -85.5502
 -85.6118
 -85.6141
 -85.6115
 -85.5417
 -85.5442
 -85.5432
 -85.5414
 -85.6431
 -85.6425
 -85.6449
 -85.645
 -85.6454
 -85.6441
 -85.6451
 -85.5704
 -85.5693
 -85.6323
 -85.6335
 -85.6711
 -85.6702
 -85.671
 -85.6652
 -85.6659
 -85.6656
 -85.6663
 -85.5991
 -85.5971
 -85.6007
 -85.5991
 -85.5856
 -85.5852
 -85.5839
 -85.587
 -85.6044
 -85.6041
 -85.6068
 -85.6057
 -85.663
 -85.6629
 -85.6633
 -85.6629
 -85.6328
 -85.6342
 -85.6334
 -85.632
 -85.5588
 -85.5584
 -85.5586
 -85.5603
 -85.633
 -85.634
 -85.6323
 -85.6346
 -85.6163
 -85.6169
 -85.6144
 -85.6174
 -85.6291
 -85.6308
 -85.6306
 -85.4797
 -85.4802
 -85.4806
 -85.5843
 -85.5826
 -85.5961
 -85.5961
 -85.5941
 -85.5977
 -85.6397
 -85.6422
 -85.6402
 -85.6397
 -85.6333
 -85.634
 -85.6367
 -85.6351
 -85.6351
 -85.6339
 -85.6377
 -85.517
 -85.517
 -85.5579
 -85.5574
 -85.5589
 -85.5582
 -85.6163
 -85.5154
 -85.5123
 -85.5134
 -85.5139
 -85.5798
 -85.5828
 -85.5809
 -85.5803
 -85.5999
 -85.5985
 -85.5356
 -85.5409
 -85.5407
 -85.5377
 -85.6651
 -85.6667
 -85.6662
 -85.6654
 -85.6582
 -85.659
 -85.6582
 -85.6604
 -85.5673
 -85.5723
 -85.5684
 -85.5709
 -85.5835
 -85.582
 -85.5871
 -85.5861
 -85.5849
 -85.5836
 -85.585
 -85.637
 -85.6385
 -85.6352
 -85.637
 -85.5589
 -85.5612
 -85.5624
 -85.5627
 -85.6045
 -85.6052
 -85.6042
 -85.6254
 -85.6262
 -85.627
 -85.6291
 -85.5834
 -85.584
 -85.5855
 -85.5845
 -85.5735
 -85.5758
 -85.5777
 -85.5748
 -85.5758
 -85.5741
 -85.5747
 -85.5767
 -85.593
 -85.5939
 -85.5965
 -85.5941
 -85.625
 -85.6234
 -85.5804
 -85.5808
 -85.5814
 -85.5792
 -85.6662
 -85.6635
 -85.6641
 -85.6642
 -85.572
 -85.5735
 -85.5723
 -85.5738
 -85.5475
 -85.5464
 -85.5494
 -85.5482
 -85.6168
 -85.6168
 -85.5281
 -85.5283
 -85.526
 -85.5289
 -85.5883
 -85.5904
 -85.5872
 -85.6596
 -85.6593
 -85.6605
 -85.6605
 -85.532
 -85.5304
 -85.5313
 -85.5741
 -85.5737
 -85.5759
 -85.575
 -85.5356
 -85.5719
 -85.5708
 -85.5713
 -85.5688
 -85.6083
 -85.6065
 -85.6087
 -85.6083
 -85.5963
 -85.5969
 -85.5983
 -85.5961
 -85.6614
 -85.6632
 -85.6126
 -85.6142
 -85.6135
 -85.6126
 -85.5691
 -85.5656
 -85.5697
 -85.5653
 -85.5859
 -85.5909
 -85.5881
 -85.5863
 -85.6538
 -85.6527
 -85.6527
 -85.653
 -85.5974
 -85.5988
 -85.6012
 -85.6001
 -85.6174
 -85.6466
 -85.6475
 -85.6457
 -85.5863
 -85.587
 -85.5843
 -85.5878
 -85.6323
 -85.6315
 -85.6325
 -85.6302
 -85.5898
 -85.5874
 -85.5882
 -85.5906
 -85.6606
 -85.6592
 -85.6585
 -85.6599
 -85.67
 -85.6705
 -85.6695
 -85.5747
 -85.576
 -85.5784
 -85.577
 -85.6228
 -85.6237
 -85.6208
 -85.622
 -85.6301
 -85.6309
 -85.6323
 -85.6332
 -85.5819
 -85.5823
 -85.5724
 -85.5712
 -85.5704
 -85.5733
 -85.5925
 -85.5967
 -85.6187
 -85.6197
 -85.6184
 -85.6176
 -85.6241
 -85.625
 -85.6269
 -85.624
 -85.5938
 -85.5955
 -85.5975
 -85.5959
 -85.6161
 -85.6162
 -85.6164
 -85.6504
 -85.6482
 -85.6475
 -85.6487
 -85.64
 -85.6391
 -85.6404
 -85.5938
 -85.5971
 -85.593
 -85.5958
 -85.5753
 -85.5718
 -85.5703
 -85.5743
 -85.6313
 -85.6284
 -85.6287
 -85.6303
 -85.5976
 -85.5971
 -85.5941
 -85.5631
 -85.5628
 -85.5631
 -85.5628
 -85.5833
 -85.5831
 -85.5841
 -85.585
 -85.6431
 -85.642
 -85.6409
 -85.6664
 -85.6647
 -85.6651
 -85.6288
 -85.6301
 -85.6303
 -85.5832
 -85.5808
 -85.5841
 -85.5821
 -85.666
 -85.6663
 -85.666
 -85.6668
 -85.626
 -85.6245
 -85.6257
 -85.6274
 -85.6461
 -85.647
 -85.6495
 -85.6493
 -85.6437
 -85.6449
 -85.6438
 -85.6441
 -85.5456
 -85.5425
 -85.5431
 -85.5926
 -85.5933
 -85.5915
 -85.5935
 -85.6465
 -85.6474
 -85.6456
 -85.6457
 -85.6014
 -85.6025
 -85.6025
 -85.6052
 -85.6332
 -85.6334
 -85.633
 -85.6307
 -85.655
 -85.6563
 -85.5582
 -85.5599
 -85.5597
 -85.5609
 -85.6385
 -85.637
 -85.6404
 -85.6378
 -85.5941
 -85.5933
 -85.5923
 -85.595
 -85.6299
 -85.6267
 -85.6635
 -85.6635
 -85.6619
 -85.664
 -85.6456
 -85.6483
 -85.6447
 -85.6491
 -85.6667
 -85.667
 -85.6684
 -85.6687
 -85.6372
 -85.6372
 -85.6383
 -85.6298
 -85.633
 -85.6326
 -85.6315
 -85.6318
 -85.6303
 -85.6312
 -85.6286
 -85.5791
 -85.5797
 -85.5777
 -85.5768
 -85.54
 -85.5387
 -85.542
 -85.6066
 -85.6066
 -85.607
 -85.6501
 -85.648
 -85.6493
 -85.6475
 -85.5949
 -85.5966
 -85.5989
 -85.5968
 -85.5704
 -85.5669
 -85.568
 -85.5707
 -85.6085
 -85.6059
 -85.6047
 -85.6048
 -85.5886
 -85.5923
 -85.5888
 -85.6641
 -85.6647
 -85.6626
 -85.6625
 -85.5605
 -85.5612
 -85.5693
 -85.5706
 -85.5708
 -85.6344
 -85.6352
 -85.6329
 -85.6368
 -85.605
 -85.6082
 -85.6077
 -85.6072
 -85.5663
 -85.5667
 -85.5687
 -85.5667
 -85.6143
 -85.6097
 -85.6103
 -85.6127
 -85.5876
 -85.5857
 -85.5889
 -85.5891
 -85.6531
 -85.654
 -85.6567
 -85.5837
 -85.5835
 -85.5855
 -85.5853
 -85.614
 -85.6159
 -85.5644
 -85.5673
 -85.5663
 -85.5648
 -85.5684
 -85.5661
 -85.5673
 -85.5662
 -85.655
 -85.6541
 -85.573
 -85.5752
 -85.574
 -85.5716
 -85.6094
 -85.6071
 -85.6082
 -85.6096
 -85.5913
 -85.5462
 -85.5435
 -85.5444
 -85.6171
 -85.6166
 -85.617
 -85.6151
 -85.6568
 -85.657
 -85.6559
 -85.6578
 -85.5458
 -85.5469
 -85.5475
 -85.5446
 -85.5704
 -85.5721
 -85.5698
 -85.5704
 -85.6285
 -85.6295
 -85.6296
 -85.5495
 -85.5493
 -85.5514
 -85.5519
 -85.6665
 -85.665
 -85.6657
 -85.6668
 -85.5581
 -85.5595
 -85.56
 -85.557
 -85.6261
 -85.6238
 -85.6254
 -85.6275
 -85.5926
 -85.5947
 -85.5938
 -85.5922
 -85.5666
 -85.5675
 -85.5666
 -85.588
 -85.5909
 -85.5879
 -85.5903
 -85.5667
 -85.5647
 -85.566
 -85.566
 -85.5711
 -85.5694
 -85.5703
 -85.6398
 -85.6377
 -85.6404
 -85.6366
 -85.6346
 -85.6032
 -85.6085
 -85.605
 -85.6052
 -85.6597
 -85.659
 -85.6579
 -85.6589
 -85.618
 -85.6208
 -85.6166
 -85.62
 -85.6252
 -85.627
 -85.6251
 -85.6245
 -85.5697
 -85.5688
 -85.5711
 -85.573
 -85.5719
 -85.6251
 -85.6225
 -85.6241
 -85.6259
 -85.6582
 -85.6606
 -85.6114
 -85.6123
 -85.6096
 -85.6126
 -85.566
 -85.5655
 -85.5671
 -85.6527
 -85.6541
 -85.6521
 -85.653
 -85.6122
 -85.6086
 -85.61
 -85.6106
 -85.5691
 -85.568
 -85.5693
 -85.57
 -85.6046
 -85.6044
 -85.608
 -85.6054
 -85.6236
 -85.6277
 -85.5546
 -85.5535
 -85.5541
 -85.5529
 -85.5709
 -85.5756
 -85.5768
 -85.5757
 -85.5778
 -85.577
 -85.5761
 -85.5727
 -85.5735
 -85.5753
 -85.6106
 -85.61
 -85.6097
 -85.6206
 -85.6196
 -85.6186
 -85.6175
 -85.579
 -85.5786
 -85.5792
 -85.5788
 -85.5945
 -85.5937
 -85.6149
 -85.6133
 -85.6144
 -85.6129
 -85.6153
 -85.6153
 -85.6049
 -85.6072
 -85.608
 -85.6053
 -85.5262
 -85.5304
 -85.5296
 -85.531
 -85.6141
 -85.5667
 -85.5686
 -85.5672
 -85.5668
 -85.6638
 -85.6649
 -85.6635
 -85.6353
 -85.6348
 -85.6331
 -85.6356
 -85.6032
 -85.6042
 -85.6031
 -85.5995
 -85.612
 -85.6138
 -85.6107
 -85.574
 -85.5758
 -85.5751
 -85.5737
 -85.6537
 -85.6553
 -85.6521
 -85.6543
 -85.6268
 -85.6259
 -85.6279
 -85.627
 -85.6539
 -85.6547
 -85.6517
 -85.6534
 -85.5579
 -85.5578
 -85.556
 -85.5561
 -85.5778
 -85.5798
 -85.6393
 -85.6383
 -85.6373
 -85.6387
 -85.6582
 -85.6579
 -85.6583
 -85.6575
 -85.67
 -85.6706
 -85.6694
 -85.6709
 -85.656
 -85.6544
 -85.6558
 -85.6247
 -85.6271
 -85.6243
 -85.6261
 -85.6571
 -85.6579
 -85.6582
 -85.6579
 -85.5593
 -85.5614
 -85.5634
 -85.561
 -85.6469
 -85.6487
 -85.6489
 -85.6259
 -85.6251
 -85.6245
 -85.6244
 -85.5663
 -85.5654
 -85.5663
 -85.5649
 -85.6288
 -85.6313
 -85.6299
 -85.63
 -85.6185
 -85.6203
 -85.6213
 -85.6186
 -85.5797
 -85.5807
 -85.5826
 -85.5842
 -85.5568
 -85.5573
 -85.5546
 -85.5547
 -85.5971
 -85.598
 -85.6002
 -85.5977
 -85.5199
 -85.5201
 -85.5248
 -85.5219
 -85.5692
 -85.5709
 -85.5689
 -85.5748
 -85.5721
 -85.572
 -85.5713
 -85.5072
 -85.508
 -85.5049
 -85.509
 -85.6526
 -85.6513
 -85.6515
 -85.6439
 -85.6442
 -85.6461
 -85.6458
 -85.5765
 -85.5807
 -85.5794
 -85.5413
 -85.5424
 -85.5409
 -85.5555
 -85.5536
 -85.5558
 -85.556
 -85.5792
 -85.5789
 -85.5808
 -85.5772
 -85.6263
 -85.6299
 -85.6282
 -85.6277
 -85.5275
 -85.5271
 -85.5289
 -85.5258
 -85.621
 -85.617
 -85.6168
 -85.6203
 -85.6432
 -85.6443
 -85.6416
 -85.6432
 -85.6157
 -85.6156
 -85.6195
 -85.6177
 -85.5996
 -85.5976
 -85.6013
 -85.568
 -85.5679
 -85.568
 -85.5692
 -85.6549
 -85.6563
 -85.6569
 -85.656
 -85.6473
 -85.6486
 -85.647
 -85.6458
 -85.5786
 -85.5807
 -85.5794
 -85.5774
 -85.6588
 -85.6597
 -85.6606
 -85.6579
 -85.6605
 -85.6587
 -85.6588
 -85.6602
 -85.6603
 -85.6588
 -85.6595
 -85.5351
 -85.5345
 -85.5078
 -85.5085
 -85.507
 -85.5105
 -85.6224
 -85.6213
 -85.6196
 -85.6037
 -85.6021
 -85.6059
 -85.6025
 -85.6093
 -85.6121
 -85.6113
 -85.6096
 -85.4817
 -85.5958
 -85.6199
 -85.6223
 -85.647
 -85.6481
 -85.6476
 -85.6475
 -85.5414
 -85.5887
 -85.5909
 -85.5887
 -85.6715
 -85.6708
 -85.6709
 -85.6708
 -85.6098
 -85.608
 -85.61
 -85.6122
 -85.6602
 -85.6592
 -85.6605
 -85.6586
 -85.5988
 -85.6018
 -85.5965
 -85.5917
 -85.5948
 -85.5928
 -85.6535
 -85.6538
 -85.6518
 -85.6539
 -85.6212
 -85.6196
 -85.6179
 -85.617
 -85.5605
 -85.5587
 -85.562
 -85.5614
 -85.6446
 -85.6483
 -85.647
 -85.6608
 -85.6631
 -85.6632
 -85.6608
 -85.6456
 -85.6449
 -85.6436
 -85.645
 -85.577
 -85.5768
 -85.5815
 -85.5766
 -85.5832
 -85.5815
 -85.5818
 -85.5818
 -85.6538
 -85.655
 -85.655
 -85.655
 -85.5951
 -85.5955
 -85.5928
 -85.6407
 -85.6408
 -85.6401
 -85.6388
 -85.5644
 -85.5667
 -85.5631
 -85.5636
 -85.6237
 -85.6249
 -85.6217
 -85.623
 -85.5636
 -85.5654
 -85.5637
 -85.5635
 -85.6141
 -85.6156
 -85.6133
 -85.615
 -85.6429
 -85.6428
 -85.6448
 -85.6415
 -85.5583
 -85.5575
 -85.5594
 -85.6107
 -85.613
 -85.6501
 -85.6493
 -85.6489
 -85.6477
 -85.5946
 -85.5929
 -85.5926
 -85.5607
 -85.5589
 -85.5581
 -85.559
 -85.6306
 -85.6315
 -85.6305
 -85.6323
 -85.6239
 -85.6236
 -85.6274
 -85.6246
 -85.4925
 -85.4926
 -85.4957
 -85.4935
 -85.6083
 -85.6053
 -85.607
 -85.5178
 -85.5204
 -85.5212
 -85.6094
 -85.6084
 -85.6066
 -85.6086
 -85.6058
 -85.5574
 -85.5584
 -85.5539
 -85.5557
 -85.5997
 -85.6025
 -85.6029
 -85.6472
 -85.6472
 -85.6473
 -85.6462
 -85.6022
 -85.6035
 -85.605
 -85.605
 -85.606
 -85.6053
 -85.6051
 -85.6694
 -85.6689
 -85.6685
 -85.6675
 -85.5719
 -85.5771
 -85.5759
 -85.5744
 -85.554
 -85.554
 -85.5552
 -85.5551
 -85.5903
 -85.5897
 -85.5933
 -85.5906
 -85.6512
 -85.6516
 -85.6523
 -85.6497
 -85.4907
 -85.4932
 -85.4907
 -85.4945
 -85.6409
 -85.6384
 -85.6398
 -85.6399
 -85.5528
 -85.5511
 -85.5527
 -85.5522
 -85.647
 -85.6424
 -85.6438
 -85.6459
 -85.6388
 -85.6377
 -85.6364
 -85.6378
 -85.6411
 -85.642
 -85.5783
 -85.5765
 -85.5762
 -85.5779
 -85.6556
 -85.6559
 -85.6558
 -85.637
 -85.634
 -85.6351
 -85.6375
 -85.5742
 -85.5766
 -85.575
 -85.5728
 -85.5879
 -85.587
 -85.59
 -85.4798
 -85.4799
 -85.4789
 -85.4798
 -85.6048
 -85.6018
 -85.6056
 -85.656
 -85.6573
 -85.6555
 -85.655
 -85.6424
 -85.6408
 -85.6523
 -85.6545
 -85.6555
 -85.6533
 -85.633
 -85.6332
 -85.5484
 -85.5487
 -85.5458
 -85.5505
 -85.6404
 -85.6403
 -85.6404
 -85.6382
 -85.6091
 -85.6104
 -85.5876
 -85.5891
 -85.5883
 -85.5875
 -85.6456
 -85.6469
 -85.6472
 -85.6467
 -85.5795
 -85.5751
 -85.5757
 -85.5788
 -85.6542
 -85.6542
 -85.656
 -85.6581
 -85.6179
 -85.6184
 -85.6158
 -85.5479
 -85.5467
 -85.5462
 -85.5477
 -85.6259
 -85.6257
 -85.6248
 -85.6233
 -85.572
 -85.5694
 -85.569
 -85.5675
 -85.5752
 -85.5718
 -85.5741
 -85.488
 -85.4876
 -85.4881
 -85.4895
 -85.5568
 -85.56
 -85.5608
 -85.5577
 -85.642
 -85.641
 -85.6432
 -85.6409
 -85.606
 -85.6071
 -85.6041
 -85.5909
 -85.5674
 -85.5689
 -85.568
 -85.5692
 -85.5953
 -85.593
 -85.5949
 -85.5961
 -85.6344
 -85.6379
 -85.6382
 -85.635
 -85.5636
 -85.5637
 -85.5684
 -85.5422
 -85.6171
 -85.6181
 -85.6154
 -85.6193
 -85.5684
 -85.5714
 -85.5132
 -85.5104
 -85.5666
 -85.5686
 -85.5668
 -85.5641
 -85.6339
 -85.6356
 -85.65
 -85.6498
 -85.6505
 -85.6496
 -85.5876
 -85.59
 -85.59
 -85.59
 -85.662
 -85.6625
 -85.6636
 -85.6626
 -85.5851
 -85.5858
 -85.5806
 -85.5806
 -85.6398
 -85.6402
 -85.6386
 -85.6365
 -85.5753
 -85.5754
 -85.5767
 -85.5765
 -85.6395
 -85.6406
 -85.6378
 -85.6396
 -85.5953
 -85.5983
 -85.6576
 -85.6569
 -85.6316
 -85.6336
 -85.6311
 -85.6339
 -85.6301
 -85.6291
 -85.6295
 -85.6321
 -85.6136
 -85.6124
 -85.6146
 -85.6143
 -85.639
 -85.6367
 -85.6399
 -85.6411
 -85.5741
 -85.5717
 -85.573
 -85.5728
 -85.6564
 -85.656
 -85.6557
 -85.6583
 -85.6593
 -85.6577
 -85.6588
 -85.5637
 -85.5663
 -85.5663
 -85.5651
 -85.6321
 -85.6294
 -85.6298
 -85.6311
 -85.5603
 -85.5633
 -85.5633
 -85.566
 -85.6117
 -85.6023
 -85.6059
 -85.6059
 -85.6027
 -85.6461
 -85.6462
 -85.646
 -85.6439
 -85.5223
 -85.5198
 -85.5214
 -85.5244
 -85.6309
 -85.6322
 -85.6338
 -85.6317
 -85.608
 -85.6104
 -85.6053
 -85.6074
 -85.6369
 -85.6351
 -85.6348
 -85.6345
 -85.6263
 -85.6693
 -85.6689
 -85.6671
 -85.6679
 -85.6415
 -85.642
 -85.6392
 -85.6396
 -85.5112
 -85.5124
 -85.5146
 -85.5109
 -85.5957
 -85.5931
 -85.5919
 -85.594
 -85.5819
 -85.6099
 -85.6102
 -85.6108
 -85.6129
 -85.6538
 -85.6539
 -85.652
 -85.6511
 -85.6475
 -85.6471
 -85.6496
 -85.6532
 -85.6497
 -85.6513
 -85.6506
 -85.4916
 -85.4926
 -85.6391
 -85.6382
 -85.638
 -85.5793
 -85.5792
 -85.5785
 -85.5814
 -85.6347
 -85.6336
 -85.6347
 -85.6327
 -85.6135
 -85.6308
 -85.6283
 -85.6308
 -85.6302
 -85.6574
 -85.654
 -85.6551
 -85.6571
 -85.6298
 -85.6315
 -85.634
 -85.6302
 -85.5942
 -85.5953
 -85.5914
 -85.5973
 -85.5659
 -85.5663
 -85.5652
 -85.5667
 -85.6673
 -85.6656
 -85.6675
 -85.6669
 -85.635
 -85.6342
 -85.6357
 -85.6332
 -85.6657
 -85.6652
 -85.6654
 -85.6664
 -85.58
 -85.5761
 -85.5801
 -85.5806
 -85.6119
 -85.6107
 -85.6572
 -85.6596
 -85.6572
 -85.6583
 -85.6128
 -85.6132
 -85.6131
 -85.6157
 -85.6042
 -85.6066
 -85.6125
 -85.6131
 -85.6153
 -85.6124
 -85.6488
 -85.6488
 -85.6481
 -85.6504
 -85.587
 -85.5838
 -85.5825
 -85.5853
 -85.5443
 -85.5465
 -85.5445
 -85.5444
 -85.5602
 -85.559
 -85.5592
 -85.5588
 -85.5838
 -85.5856
 -85.586
 -85.5835
 -85.5968
 -85.5933
 -85.5956
 -85.6016
 -85.5979
 -85.6
 -85.6006
 -85.6104
 -85.6091
 -85.6079
 -85.6102
 -85.5436
 -85.5434
 -85.5445
 -85.5926
 -85.5904
 -85.5938
 -85.5931
 -85.6146
 -85.6169
 -85.6167
 -85.6136
 -85.5763
 -85.5731
 -85.5771
 -85.5734
 -85.5855
 -85.5875
 -85.5873
 -85.5869
 -85.6169
 -85.6167
 -85.6185
 -85.6203
 -85.609
 -85.6067
 -85.6086
 -85.6081
 -85.6322
 -85.6311
 -85.6318
 -85.6308
 -85.558
 -85.5587
 -85.5595
 -85.6449
 -85.6437
 -85.6462
 -85.6443
 -85.5769
 -85.5795
 -85.5773
 -85.5756
 -85.5976
 -85.5965
 -85.5951
 -85.5985
 -85.6019
 -85.6043
 -85.6048
 -85.6211
 -85.6211
 -85.622
 -85.6237
 -85.6289
 -85.629
 -85.6307
 -85.6277
 -85.6315
 -85.6325
 -85.634
 -85.6497
 -85.6502
 -85.6506
 -85.6289
 -85.6278
 -85.6262
 -85.6274
 -85.6497
 -85.6505
 -85.6482
 -85.6557
 -85.6557
 -85.6554
 -85.6539
 -85.603
 -85.5982
 -85.6013
 -85.5996
 -85.5805
 -85.5787
 -85.5817
 -85.5795
 -85.5719
 -85.6495
 -85.6488
 -85.6518
 -85.6485
 -85.6501
 -85.6464
 -85.4859
 -85.4847
 -85.4861
 -85.4875
 -85.6398
 -85.638
 -85.5966
 -85.5956
 -85.5986
 -85.6654
 -85.6667
 -85.6221
 -85.6187
 -85.6198
 -85.6206
 -85.595
 -85.5964
 -85.5965
 -85.6406
 -85.6445
 -85.6426
 -85.6436
 -85.5822
 -85.5831
 -85.5812
 -85.5844
 -85.5042
 -85.5068
 -85.506
 -85.5031
 -85.6193
 -85.6197
 -85.619
 -85.6217
 -85.6473
 -85.651
 -85.6478
 -85.6432
 -85.6426
 -85.6435
 -85.6418
 -85.5747
 -85.5713
 -85.5713
 -85.5698
 -85.5785
 -85.5804
 -85.5641
 -85.5665
 -85.5631
 -85.6647
 -85.6633
 -85.6458
 -85.6435
 -85.6459
 -85.6435
 -85.6114
 -85.6145
 -85.6136
 -85.6392
 -85.6368
 -85.6412
 -85.6407
 -85.5767
 -85.5722
 -85.5731
 -85.5752
 -85.6065
 -85.6062
 -85.6088
 -85.6093
 -85.6058
 -85.6075
 -85.6081
 -85.606
 -85.5713
 -85.5725
 -85.5707
 -85.5797
 -85.5779
 -85.5794
 -85.5789
 -85.67
 -85.6709
 -85.6703
 -85.6715
 -85.5521
 -85.5483
 -85.6545
 -85.6559
 -85.6555
 -85.6544
 -85.5994
 -85.602
 -85.6008
 -85.5993
 -85.6152
 -85.617
 -85.6169
 -85.6173
 -85.5598
 -85.5615
 -85.6089
 -85.607
 -85.607
 -85.6053
 -85.5972
 -85.596
 -85.5953
 -85.5981
 -85.6474
 -85.6472
 -85.6465
 -85.6478
 -85.6023
 -85.6046
 -85.6048
 -85.6016
 -85.581
 -85.5813
 -85.6244
 -85.6245
 -85.6231
 -85.6249
 -85.6346
 -85.6341
 -85.6359
 -85.6117
 -85.6144
 -85.6134
 -85.6149
 -85.5687
 -85.5704
 -85.568
 -85.5717
 -85.5025
 -85.5057
 -85.505
 -85.5019
 -85.6042
 -85.6029
 -85.6055
 -85.608
 -85.6171
 -85.6199
 -85.6174
 -85.6175
 -85.5941
 -85.5956
 -85.5927
 -85.5933
 -85.5825
 -85.581
 -85.583
 -85.5843
 -85.6483
 -85.6499
 -85.6242
 -85.623
 -85.6218
 -85.5284
 -85.5272
 -85.5253
 -85.529
 -85.5732
 -85.5712
 -85.574
 -85.5698
 -85.6126
 -85.6131
 -85.612
 -85.6107
 -85.6484
 -85.649
 -85.6489
 -85.5995
 -85.5981
 -85.5952
 -85.5952
 -85.5789
 -85.5824
 -85.581
 -85.5787
 -85.637
 -85.634
 -85.634
 -85.6355
 -85.6208
 -85.6201
 -85.619
 -85.6192
 -85.6425
 -85.6428
 -85.6425
 -85.6412
 -85.6414
 -85.6417
 -85.6413
 -85.5913
 -85.5921
 -85.5897
 -85.5888
 -85.6023
 -85.6009
 -85.6034
 -85.5086
 -85.5093
 -85.5089
 -85.5071
 -85.581
 -85.5812
 -85.5501
 -85.5482
 -85.5512
 -85.5531
 -85.5707
 -85.5616
 -85.6518
 -85.5821
 -85.5795
 -85.5813
 -85.5784
 -85.6673
 -85.624
 -85.6224
 -85.6238
 -85.6209
 -85.581
 -85.5828
 -85.5816
 -85.5922
 -85.5947
 -85.5947
 -85.6444
 -85.6449
 -85.6423
 -85.6447
 -85.6453
 -85.6442
 -85.6456
 -85.644
 -85.5658
 -85.5621
 -85.5622
 -85.5646
 -85.6596
 -85.6597
 -85.6609
 -85.6586
 -85.6067
 -85.6046
 -85.6021
 -85.6446
 -85.6458
 -85.6454
 -85.6156
 -85.6133
 -85.6141
 -85.6161
 -85.5823
 -85.5838
 -85.5808
 -85.5815
 -85.6174
 -85.6209
 -85.6172
 -85.5859
 -85.5872
 -85.5871
 -85.5844
 -85.5993
 -85.6028
 -85.6461
 -85.6477
 -85.6482
 -85.6499
 -85.6519
 -85.6543
 -85.6528
 -85.6524
 -85.5696
 -85.5723
 -85.5688
 -85.5716
 -85.6346
 -85.6316
 -85.6334
 -85.6354
 -85.6222
 -85.6185
 -85.6213
 -85.6235
 -85.595
 -85.5926
 -85.5964
 -85.5943
 -85.6494
 -85.6482
 -85.6477
 -85.6465
 -85.6002
 -85.5975
 -85.6019
 -85.6004
 -85.6073
 -85.6059
 -85.6057
 -85.6096
 -85.5992
 -85.5975
 -85.5998
 -85.6001
 -85.5737
 -85.5766
 -85.5663
 -85.5682
 -85.5701
 -85.5667
 -85.5446
 -85.5406
 -85.5441
 -85.5449
 -85.623
 -85.6228
 -85.6219
 -85.6249
 -85.6181
 -85.6161
 -85.6156
 -85.6617
 -85.662
 -85.6621
 -85.662
 -85.6642
 -85.6653
 -85.6635
 -85.6545
 -85.6555
 -85.653
 -85.6162
 -85.6191
 -85.6206
 -85.6171
 -85.6308
 -85.632
 -85.6332
 -85.6294
 -85.6461
 -85.6478
 -85.6468
 -85.6481
 -85.5838
 -85.5812
 -85.5818
 -85.5833
 -85.5526
 -85.5546
 -85.5562
 -85.5561
 -85.6661
 -85.6665
 -85.6646
 -85.6676
 -85.5775
 -85.5766
 -85.5751
 -85.5778
 -85.6121
 -85.6119
 -85.6133
 -85.6114
 -85.6671
 -85.667
 -85.6651
 -85.6684
 -85.6239
 -85.6214
 -85.6248
 -85.6239
 -85.5976
 -85.5965
 -85.5979
 -85.5967
 -85.5791
 -85.577
 -85.5775
 -85.5616
 -85.5646
 -85.5628
 -85.5612
 -85.5711
 -85.5704
 -85.5716
 -85.5701
 -85.5676
 -85.5673
 -85.5754
 -85.5771
 -85.5722
 -85.6413
 -85.6399
 -85.6397
 -85.6393
 -85.6601
 -85.6594
 -85.6596
 -85.6595
 -85.6287
 -85.6277
 -85.6288
 -85.6257
 -85.6009
 -85.6501
 -85.651
 -85.6508
 -85.6493
 -85.5639
 -85.5639
 -85.5636
 -85.5634
 -85.6617
 -85.6625
 -85.6614
 -85.6635
 -85.5889
 -85.5874
 -85.591
 -85.6344
 -85.562
 -85.5617
 -85.5595
 -85.5738
 -85.572
 -85.5703
 -85.5747
 -85.6106
 -85.6104
 -85.6067
 -85.6096
 -85.6386
 -85.6385
 -85.6368
 -85.6402
 -85.6009
 -85.634
 -85.6327
 -85.6326
 -85.6024
 -85.6022
 -85.6026
 -85.6053
 -85.5862
 -85.5869
 -85.585
 -85.5847
 -85.5924
 -85.5895
 -85.5916
 -85.5924
 -85.635
 -85.5769
 -85.5775
 -85.5785
 -85.6405
 -85.6391
 -85.6413
 -85.6398
 -85.6492
 -85.6486
 -85.651
 -85.6478
 -85.6584
 -85.6593
 -85.6582
 -85.5848
 -85.585
 -85.5832
 -85.5849
 -85.5557
 -85.5542
 -85.5558
 -85.644
 -85.6439
 -85.6481
 -85.6473
 -85.6464
 -85.6462
 -85.6018
 -85.6028
 -85.6042
 -85.6631
 -85.6628
 -85.6641
 -85.6627
 -85.6486
 -85.6481
 -85.6489
 -85.6494
 -85.6261
 -85.6265
 -85.6277
 -85.6285
 -85.6137
 -85.6145
 -85.6129
 -85.6108
 -85.5791
 -85.5789
 -85.578
 -85.58
 -85.6477
 -85.6477
 -85.6465
 -85.6491
 -85.5867
 -85.5875
 -85.5841
 -85.594
 -85.5961
 -85.5968
 -85.5971
 -85.659
 -85.6585
 -85.6608
 -85.6598
 -85.6328
 -85.6329
 -85.6325
 -85.6313
 -85.6642
 -85.6632
 -85.6617
 -85.6637
 -85.5909
 -85.5926
 -85.5938
 -85.5934
 -85.6125
 -85.6131
 -85.6106
 -85.615
 -85.6531
 -85.6527
 -85.6541
 -85.6533
 -85.6099
 -85.6119
 -85.6087
 -85.6094
 -85.6645
 -85.6657
 -85.6645
 -85.5828
 -85.5817
 -85.5816
 -85.582
 -85.618
 -85.6181
 -85.6168
 -85.6155
 -85.6234
 -85.6255
 -85.6236
 -85.6242
 -85.6063
 -85.605
 -85.609
 -85.6059
 -85.6492
 -85.6493
 -85.6515
 -85.6498
 -85.6048
 -85.6018
 -85.6036
 -85.6029
 -85.6233
 -85.6226
 -85.6225
 -85.6215
 -85.5628
 -85.5628
 -85.5625
 -85.5629
 -85.6436
 -85.6439
 -85.6422
 -85.6411
 -85.5594
 -85.5592
 -85.5593
 -85.5792
 -85.5779
 -85.5779
 -85.5795
 -85.567
 -85.5686
 -85.5736
 -85.5694
 -85.637
 -85.6365
 -85.6379
 -85.6392
 -85.6289
 -85.6318
 -85.6292
 -85.63
 -85.5882
 -85.5857
 -85.586
 -85.5843
 -85.6689
 -85.6681
 -85.6671
 -85.5099
 -85.5091
 -85.6224
 -85.624
 -85.621
 -85.6225
 -85.5355
 -85.532
 -85.5285
 -85.5314
 -85.6286
 -85.6293
 -85.6317
 -85.6303
 -85.5949
 -85.5878
 -85.5865
 -85.586
 -85.5844
 -85.6399
 -85.6401
 -85.6406
 -85.6416
 -85.6543
 -85.653
 -85.6553
 -85.6537
 -85.5627
 -85.5627
 -85.6336
 -85.6348
 -85.6381
 -85.6346
 -85.6169
 -85.6123
 -85.6176
 -85.615
 -85.5776
 -85.5775
 -85.576
 -85.5811
 -85.6048
 -85.6021
 -85.6018
 -85.6047
 -85.646
 -85.6438
 -85.6487
 -85.661
 -85.6604
 -85.6605
 -85.6603
 -85.6663
 -85.6663
 -85.667
 -85.5891
 -85.5877
 -85.5882
 -85.59
 -85.6547
 -85.6537
 -85.6528
 -85.6528
 -85.5686
 -85.5668
 -85.5675
 -85.5679
 -85.628
 -85.6267
 -85.6283
 -85.6251
 -85.6168
 -85.6198
 -85.6174
 -85.6174
 -85.6606
 -85.6607
 -85.6604
 -85.6616
 -85.6316
 -85.6325
 -85.6312
 -85.6297
 -85.5262
 -85.5246
 -85.5241
 -85.5265
 -85.6005
 -85.5962
 -85.6
 -85.5976
 -85.5882
 -85.5911
 -85.5915
 -85.5876
 -85.6379
 -85.6385
 -85.6365
 -85.6354
 -85.5712
 -85.5696
 -85.569
 -85.5691
 -85.6211
 -85.6193
 -85.619
 -85.6219
 -85.5839
 -85.5826
 -85.5815
 -85.5512
 -85.5497
 -85.5492
 -85.5488
 -85.6209
 -85.6233
 -85.6199
 -85.6263
 -85.6262
 -85.6251
 -85.5768
 -85.575
 -85.5731
 -85.5691
 -85.569
 -85.57
 -85.571
 -85.6536
 -85.4828
 -85.4841
 -85.4836
 -85.4816
 -85.6487
 -85.6477
 -85.6501
 -85.6485
 -85.5622
 -85.5929
 -85.5923
 -85.5921
 -85.5949
 -85.5884
 -85.5863
 -85.5918
 -85.5734
 -85.5772
 -85.5754
 -85.5743
 -85.5303
 -85.5299
 -85.5321
 -85.5276
 -85.5681
 -85.5698
 -85.5694
 -85.6144
 -85.6132
 -85.613
 -85.5891
 -85.588
 -85.6706
 -85.6691
 -85.669
 -85.5673
 -85.5699
 -85.5666
 -85.5905
 -85.5925
 -85.5936
 -85.6545
 -85.6563
 -85.6562
 -85.6398
 -85.6399
 -85.6416
 -85.6402
 -85.5774
 -85.5784
 -85.5796
 -85.559
 -85.5564
 -85.6601
 -85.6592
 -85.6612
 -85.6605
 -85.5395
 -85.5408
 -85.5368
 -85.5428
 -85.5669
 -85.566
 -85.5019
 -85.4996
 -85.5178
 -85.5173
 -85.5184
 -85.5921
 -85.5943
 -85.5913
 -85.6585
 -85.6568
 -85.6554
 -85.6326
 -85.6325
 -85.6344
 -85.5802
 -85.5802
 -85.5828
 -85.5843
 -85.5818
 -85.652
 -85.5584
 -85.5583
 -85.5593
 -85.5594
 -85.5893
 -85.5939
 -85.5904
 -85.5911
 -85.6378
 -85.6379
 -85.6394
 -85.6318
 -85.6322
 -85.6308
 -85.6314
 -85.5923
 -85.5912
 -85.5938
 -85.596
 -85.6352
 -85.6356
 -85.6379
 -85.6377
 -85.6408
 -85.6394
 -85.6405
 -85.6425
 -85.6069
 -85.6341
 -85.6353
 -85.6353
 -85.6363
 -85.6637
 -85.6644
 -85.6634
 -85.6627
 -85.5725
 -85.5679
 -85.5669
 -85.5699
 -85.6606
 -85.6622
 -85.6615
 -85.6611
 -85.4988
 -85.5009
 -85.4983
 -85.6581
 -85.657
 -85.6597
 -85.6592
 -85.5739
 -85.5735
 -85.5709
 -85.571
 -85.6449
 -85.6429
 -85.6444
 -85.6459
 -85.5675
 -85.5677
 -85.562
 -85.5633
 -85.6636
 -85.6446
 -85.642
 -85.6433
 -85.6413
 -85.6535
 -85.6549
 -85.6547
 -85.5586
 -85.5599
 -85.5581
 -85.5572
 -85.6364
 -85.6349
 -85.6347
 -85.6334
 -85.6204
 -85.6231
 -85.6232
 -85.622
 -85.6164
 -85.6177
 -85.615
 -85.6144
 -85.6686
 -85.6671
 -85.5964
 -85.5965
 -85.5961
 -85.5924
 -85.5947
 -85.5958
 -85.5968
 -85.635
 -85.6333
 -85.6368
 -85.6375
 -85.6329
 -85.6338
 -85.6336
 -85.6357
 -85.6221
 -85.623
 -85.6242
 -85.6214
 -85.5761
 -85.5757
 -85.5838
 -85.5823
 -85.5821
 -85.5908
 -85.5927
 -85.5927
 -85.593
 -85.5526
 -85.5502
 -85.5512
 -85.5509
 -85.5898
 -85.5872
 -85.5851
 -85.5297
 -85.5298
 -85.5326
 -85.5897
 -85.5897
 -85.5876
 -85.5916
 -85.5745
 -85.5774
 -85.573
 -85.6053
 -85.6365
 -85.6351
 -85.6381
 -85.5962
 -85.5958
 -85.5977
 -85.599
 -85.5656
 -85.5656
 -85.5718
 -85.5688
 -85.6089
 -85.6112
 -85.6116
 -85.6116
 -85.6432
 -85.6419
 -85.6687
 -85.6678
 -85.6671
 -85.6687
 -85.6357
 -85.6359
 -85.6371
 -85.6341
 -85.5996
 -85.5993
 -85.599
 -85.6007
 -85.6634
 -85.6636
 -85.6661
 -85.6624
 -85.6627
 -85.6632
 -85.6638
 -85.6113
 -85.6088
 -85.6072
 -85.61
 -85.5654
 -85.5647
 -85.5664
 -85.5965
 -85.5964
 -85.5994
 -85.5964
 -85.5557
 -85.5528
 -85.5565
 -85.5523
 -85.6284
 -85.6286
 -85.6293
 -85.6237
 -85.5633
 -85.5633
 -85.5632
 -85.5638
 -85.5781
 -85.5795
 -85.5802
 -85.5791
 -85.6589
 -85.657
 -85.6596
 -85.6575
 -85.6105
 -85.6106
 -85.6083
 -85.6108
 -85.589
 -85.5876
 -85.5899
 -85.5877
 -85.6393
 -85.6393
 -85.6413
 -85.6446
 -85.6434
 -85.6431
 -85.5938
 -85.5967
 -85.5956
 -85.5993
 -85.6004
 -85.6022
 -85.6012
 -85.6012
 -85.5658
 -85.5674
 -85.5653
 -85.5919
 -85.59
 -85.5885
 -85.4898
 -85.4874
 -85.4898
 -85.4882
 -85.5799
 -85.5807
 -85.5583
 -85.56
 -85.5586
 -85.5559
 -85.6177
 -85.6151
 -85.6174
 -85.6145
 -85.5313
 -85.5352
 -85.5363
 -85.5335
 -85.5723
 -85.5717
 -85.5696
 -85.6312
 -85.6316
 -85.6311
 -85.6301
 -85.5707
 -85.5732
 -85.5699
 -85.5641
 -85.5646
 -85.5614
 -85.5625
 -85.5894
 -85.5881
 -85.5883
 -85.5911
 -85.6399
 -85.6449
 -85.5168
 -85.5183
 -85.5776
 -85.5758
 -85.6013
 -85.5989
 -85.6
 -85.5993
 -85.6279
 -85.63
 -85.6282
 -85.6308
 -85.6053
 -85.6056
 -85.607
 -85.6074
 -85.5567
 -85.5521
 -85.5553
 -85.5545
 -85.619
 -85.6164
 -85.6173
 -85.566
 -85.5648
 -85.5658
 -85.5656
 -85.6548
 -85.6542
 -85.656
 -85.6535
 -85.6293
 -85.6294
 -85.6298
 -85.6272
 -85.5686
 -85.5701
 -85.5679
 -85.5995
 -85.5964
 -85.5992
 -85.6004
 -85.5574
 -85.5566
 -85.5577
 -85.571
 -85.5741
 -85.573
 -85.5714
 -85.5707
 -85.5702
 -85.5726
 -85.571
 -85.5987
 -85.5962
 -85.5959
 -85.5947
 -85.6634
 -85.6627
 -85.6618
 -85.6622
 -85.6227
 -85.6256
 -85.6243
 -85.6251
 -85.5968
 -85.5935
 -85.5957
 -85.6125
 -85.6114
 -85.6111
 -85.6531
 -85.6505
 -85.653
 -85.6513
 -85.6231
 -85.6231
 -85.6212
 -85.6244
 -85.5946
 -85.597
 -85.5971
 -85.5976
 -85.5526
 -85.553
 -85.5682
 -85.567
 -85.5693
 -85.5693
 -85.5091
 -85.5079
 -85.5047
 -85.5083
 -85.6381
 -85.6383
 -85.6383
 -85.6371
 -85.5733
 -85.5707
 -85.5714
 -85.5712
 -85.6059
 -85.6037
 -85.605
 -85.602
 -85.5472
 -85.5458
 -85.5463
 -85.5456
 -85.6139
 -85.613
 -85.6119
 -85.6117
 -85.5991
 -85.6341
 -85.6337
 -85.6313
 -85.632
 -85.595
 -85.5917
 -85.5911
 -85.5938
 -85.5924
 -85.5941
 -85.596
 -85.5949
 -85.5859
 -85.5833
 -85.5839
 -85.5829
 -85.5668
 -85.5642
 -85.5683
 -85.6459
 -85.6462
 -85.6468
 -85.6429
 -85.5929
 -85.5922
 -85.5921
 -85.5912
 -85.6437
 -85.6444
 -85.6462
 -85.6305
 -85.6285
 -85.63
 -85.6293
 -85.6405
 -85.6436
 -85.6422
 -85.6441
 -85.5607
 -85.5635
 -85.5603
 -85.4815
 -85.4825
 -85.4828
 -85.6317
 -85.6347
 -85.634
 -85.6142
 -85.6184
 -85.6165
 -85.6193
 -85.589
 -85.59
 -85.5911
 -85.5886
 -85.5968
 -85.5976
 -85.5941
 -85.5949
 -85.5237
 -85.5256
 -85.5206
 -85.5261
 -85.6061
 -85.6049
 -85.6045
 -85.6043
 -85.6207
 -85.6213
 -85.6228
 -85.6195
 -85.573
 -85.5735
 -85.5792
 -85.5747
 -85.5769
 -85.5772
 -85.6322
 -85.6304
 -85.6318
 -85.6313
 -85.5716
 -85.5738
 -85.6237
 -85.6225
 -85.5579
 -85.4867
 -85.4863
 -85.4866
 -85.4888
 -85.5461
 -85.5491
 -85.666
 -85.6677
 -85.6663
 -85.553
 -85.5554
 -85.5578
 -85.5555
 -85.6349
 -85.6344
 -85.5782
 -85.5776
 -85.578
 -85.5782
 -85.5856
 -85.5902
 -85.5887
 -85.6345
 -85.6361
 -85.635
 -85.6375
 -85.6251
 -85.6275
 -85.625
 -85.6262
 -85.6484
 -85.6488
 -85.6509
 -85.5972
 -85.5946
 -85.5975
 -85.594
 -85.6052
 -85.6487
 -85.6459
 -85.6481
 -85.6476
 -85.5592
 -85.5588
 -85.5598
 -85.5608
 -85.6111
 -85.6085
 -85.6107
 -85.6082
 -85.6383
 -85.6354
 -85.6375
 -85.6357
 -85.5002
 -85.5011
 -85.5023
 -85.503
 -85.5687
 -85.6634
 -85.5911
 -85.5945
 -85.5921
 -85.5896
 -85.61
 -85.6119
 -85.6089
 -85.6083
 -85.5739
 -85.5705
 -85.5724
 -85.5731
 -85.6145
 -85.6134
 -85.6146
 -85.6151
 -85.5669
 -85.5672
 -85.5692
 -85.5634
 -85.5653
 -85.567
 -85.5652
 -85.5958
 -85.5981
 -85.5941
 -85.596
 -85.6384
 -85.6399
 -85.6358
 -85.6687
 -85.67
 -85.6688
 -85.6683
 -85.5221
 -85.5197
 -85.5188
 -85.6033
 -85.6036
 -85.5979
 -85.599
 -85.5963
 -85.6001
 -85.657
 -85.6564
 -85.6568
 -85.6577
 -85.6319
 -85.6301
 -85.6313
 -85.6295
 -85.5663
 -85.5701
 -85.5676
 -85.5403
 -85.5946
 -85.5922
 -85.5929
 -85.5949
 -85.6005
 -85.6018
 -85.6013
 -85.6299
 -85.6288
 -85.6288
 -85.6306
 -85.6398
 -85.637
 -85.6389
 -85.6377
 -85.5919
 -85.5904
 -85.6331
 -85.6329
 -85.6342
 -85.6359
 -85.6163
 -85.6155
 -85.6158
 -85.6181
 -85.6618
 -85.6625
 -85.6213
 -85.6189
 -85.6214
 -85.6202
 -85.6333
 -85.6344
 -85.6351
 -85.6357
 -85.6297
 -85.6312
 -85.6296
 -85.6299
 -85.6038
 -85.6049
 -85.5963
 -85.5976
 -85.5954
 -85.594
 -85.5844
 -85.5821
 -85.5834
 -85.5836
 -85.6156
 -85.6174
 -85.6174
 -85.6157
 -85.5647
 -85.5666
 -85.5678
 -85.5689
 -85.5736
 -85.573
 -85.572
 -85.573
 -85.5151
 -85.5165
 -85.5159
 -85.513
 -85.584
 -85.5801
 -85.6126
 -85.609
 -85.612
 -85.6105
 -85.5913
 -85.5904
 -85.5925
 -85.5939
 -85.6081
 -85.6097
 -85.6107
 -85.6091
 -85.5981
 -85.598
 -85.6341
 -85.633
 -85.6658
 -85.6662
 -85.6662
 -85.6667
 -85.5553
 -85.5966
 -85.5965
 -85.5974
 -85.5991
 -85.6079
 -85.6051
 -85.6059
 -85.6059
 -85.5797
 -85.578
 -85.5772
 -85.575
 -85.6289
 -85.6261
 -85.6288
 -85.6262
 -85.6096
 -85.6079
 -85.607
 -85.6095
 -85.5666
 -85.5659
 -85.5676
 -85.5646
 -85.5637
 -85.5884
 -85.5918
 -85.5885
 -85.5912
 -85.5882
 -85.5922
 -85.5889
 -85.5874
 -85.5673
 -85.5673
 -85.5652
 -85.5671
 -85.574
 -85.5749
 -85.5783
 -85.577
 -85.5983
 -85.6005
 -85.5967
 -85.5965
 -85.5677
 -85.5666
 -85.5658
 -85.5665
 -85.6133
 -85.6143
 -85.6108
 -85.5806
 -85.5805
 -85.5801
 -85.5796
 -85.5348
 -85.537
 -85.6121
 -85.6136
 -85.6144
 -85.6103
 -85.6134
 -85.6121
 -85.6135
 -85.5592
 -85.561
 -85.5621
 -85.5522
 -85.5535
 -85.5535
 -85.5523
 -85.6227
 -85.6224
 -85.6237
 -85.6211
 -85.6101
 -85.6067
 -85.6104
 -85.6428
 -85.6395
 -85.6409
 -85.6018
 -85.5997
 -85.6003
 -85.6483
 -85.6485
 -85.6485
 -85.5074
 -85.5053
 -85.5059
 -85.5074
 -85.6623
 -85.6627
 -85.662
 -85.6628
 -85.584
 -85.582
 -85.6159
 -85.6132
 -85.5658
 -85.5662
 -85.5659
 -85.5682
 -85.6198
 -85.619
 -85.6219
 -85.6357
 -85.6375
 -85.6373
 -85.6377
 -85.6475
 -85.6446
 -85.5598
 -85.5601
 -85.5593
 -85.6132
 -85.6126
 -85.6105
 -85.577
 -85.5742
 -85.577
 -85.5601
 -85.56
 -85.5588
 -85.5581
 -85.5948
 -85.5955
 -85.5932
 -85.5964
 -85.5915
 -85.5886
 -85.5897
 -85.5909
 -85.6268
 -85.626
 -85.6258
 -85.6284
 -85.6349
 -85.6336
 -85.6345
 -85.6321
 -85.5879
 -85.5873
 -85.59
 -85.6229
 -85.6225
 -85.621
 -85.631
 -85.6329
 -85.6313
 -85.6317
 -85.6709
 -85.6703
 -85.6713
 -85.6049
 -85.6043
 -85.6041
 -85.6291
 -85.6304
 -85.6274
 -85.6014
 -85.6031
 -85.6001
 -85.5821
 -85.5791
 -85.5796
 -85.5606
 -85.562
 -85.5612
 -85.5616
 -85.602
 -85.6013
 -85.604
 -85.6018
 -85.577
 -85.5758
 -85.5737
 -85.5657
 -85.5682
 -85.6283
 -85.6267
 -85.6303
 -85.6282
 -85.6284
 -85.6301
 -85.6278
 -85.6259
 -85.5678
 -85.5703
 -85.5716
 -85.5725
 -85.5664
 -85.5642
 -85.5652
 -85.5639
 -85.544
 -85.5426
 -85.5442
 -85.5418
 -85.6557
 -85.6566
 -85.6452
 -85.6428
 -85.6439
 -85.6454
 -85.6615
 -85.5807
 -85.5835
 -85.5802
 -85.6069
 -85.6078
 -85.6057
 -85.6053
 -85.5683
 -85.5679
 -85.5992
 -85.5991
 -85.6008
 -85.557
 -85.558
 -85.642
 -85.6423
 -85.6443
 -85.6408
 -85.6495
 -85.6491
 -85.6521
 -85.6507
 -85.6376
 -85.6383
 -85.6359
 -85.5834
 -85.5854
 -85.5851
 -85.6478
 -85.6476
 -85.6484
 -85.649
 -85.5763
 -85.5729
 -85.5756
 -85.5768
 -85.6395
 -85.6381
 -85.6379
 -85.6395
 -85.577
 -85.5739
 -85.5732
 -85.5784
 -85.5618
 -85.563
 -85.5605
 -85.6619
 -85.6645
 -85.663
 -85.6627
 -85.5641
 -85.565
 -85.5647
 -85.5944
 -85.5957
 -85.5977
 -85.5957
 -85.6581
 -85.66
 -85.659
 -85.5761
 -85.5739
 -85.5762
 -85.5745
 -85.6223
 -85.6543
 -85.6553
 -85.6517
 -85.6539
 -85.5567
 -85.5574
 -85.5585
 -85.5574
 -85.63
 -85.6263
 -85.6289
 -85.6301
 -85.6056
 -85.6064
 -85.6027
 -85.5618
 -85.5602
 -85.5626
 -85.5566
 -85.6247
 -85.6244
 -85.626
 -85.5734
 -85.5726
 -85.5108
 -85.5081
 -85.5114
 -85.5126
 -85.5451
 -85.5397
 -85.539
 -85.6489
 -85.6479
 -85.6527
 -85.65
 -85.6497
 -85.6508
 -85.5502
 -85.5516
 -85.5482
 -85.5519
 -85.5913
 -85.5928
 -85.5927
 -85.5932
 -85.5991
 -85.5957
 -85.5961
 -85.5974
 -85.6112
 -85.6103
 -85.6132
 -85.6105
 -85.6129
 -85.6089
 -85.6117
 -85.6098
 -85.6578
 -85.5661
 -85.5653
 -85.5663
 -85.5656
 -85.6592
 -85.6583
 -85.6601
 -85.6152
 -85.6125
 -85.6116
 -85.6123
 -85.5599
 -85.5625
 -85.5631
 -85.6088
 -85.6065
 -85.6083
 -85.6063
 -85.6022
 -85.6263
 -85.6271
 -85.6294
 -85.6286
 -85.5779
 -85.5779
 -85.5778
 -85.6028
 -85.6072
 -85.6058
 -85.6596
 -85.6587
 -85.6572
 -85.6586
 -85.6003
 -85.5992
 -85.5987
 -85.5006
 -85.5021
 -85.4988
 -85.6003
 -85.5985
 -85.5999
 -85.5962
 -85.6277
 -85.6299
 -85.6294
 -85.6048
 -85.6049
 -85.6483
 -85.649
 -85.6472
 -85.6474
 -85.6377
 -85.6395
 -85.6383
 -85.6382
 -85.6639
 -85.6635
 -85.6624
 -85.6617
 -85.6119
 -85.6072
 -85.6105
 -85.6118
 -85.6329
 -85.6324
 -85.6314
 -85.6303
 -85.6483
 -85.6497
 -85.6508
 -85.5749
 -85.5763
 -85.5724
 -85.5738
 -85.5972
 -85.5998
 -85.5866
 -85.5849
 -85.5872
 -85.586
 -85.6278
 -85.6272
 -85.6276
 -85.6288
 -85.6002
 -85.6027
 -85.6017
 -85.5996
 -85.6266
 -85.6255
 -85.6287
 -85.626
 -85.604
 -85.6049
 -85.6065
 -85.607
 -85.6019
 -85.5996
 -85.6002
 -85.6459
 -85.6445
 -85.6458
 -85.6557
 -85.6552
 -85.6548
 -85.6578
 -85.6516
 -85.6513
 -85.6528
 -85.6336
 -85.6361
 -85.6339
 -85.5201
 -85.5193
 -85.5171
 -85.5969
 -85.6001
 -85.5976
 -85.6444
 -85.6455
 -85.6446
 -85.6442
 -85.5967
 -85.5979
 -85.5964
 -85.6125
 -85.614
 -85.6132
 -85.6114
 -85.6221
 -85.617
 -85.6189
 -85.6184
 -85.6021
 -85.604
 -85.6039
 -85.6058
 -85.5703
 -85.572
 -85.5705
 -85.5696
 -85.5977
 -85.6126
 -85.6126
 -85.614
 -85.6094
 -85.5638
 -85.5644
 -85.5648
 -85.5646
 -85.5606
 -85.5626
 -85.5612
 -85.5624
 -85.5668
 -85.5676
 -85.5675
 -85.5658
 -85.6233
 -85.6233
 -85.6258
 -85.6272
 -85.5751
 -85.5735
 -85.5745
 -85.5751
 -85.6635
 -85.6618
 -85.6632
 -85.662
 -85.5393
 -85.5408
 -85.5429
 -85.5425
 -85.5721
 -85.5723
 -85.5718
 -85.5556
 -85.5541
 -85.5534
 -85.5535
 -85.5638
 -85.5624
 -85.5655
 -85.5658
 -85.5662
 -85.6064
 -85.606
 -85.6074
 -85.6113
 -85.6562
 -85.6544
 -85.6537
 -85.6556
 -85.6553
 -85.6563
 -85.6547
 -85.5689
 -85.5674
 -85.661
 -85.6624
 -85.6606
 -85.6463
 -85.6459
 -85.6462
 -85.648
 -85.5639
 -85.5628
 -85.5638
 -85.663
 -85.6635
 -85.6622
 -85.664
 -85.585
 -85.5857
 -85.5875
 -85.5835
 -85.5675
 -85.5642
 -85.5654
 -85.5678
 -85.5549
 -85.5583
 -85.5568
 -85.5562
 -85.5294
 -85.53
 -85.5279
 -85.5278
 -85.6182
 -85.6223
 -85.6205
 -85.6216
 -85.5876
 -85.5879
 -85.5867
 -85.5837
 -85.662
 -85.6606
 -85.662
 -85.4964
 -85.4997
 -85.4977
 -85.5012
 -85.5447
 -85.5478
 -85.5458
 -85.5486
 -85.6619
 -85.6639
 -85.6629
 -85.6627
 -85.6039
 -85.6041
 -85.6065
 -85.6509
 -85.6534
 -85.6539
 -85.5681
 -85.5676
 -85.5643
 -85.6623
 -85.6614
 -85.6609
 -85.6618
 -85.646
 -85.6449
 -85.6444
 -85.6428
 -85.5779
 -85.5794
 -85.5814
 -85.5791
 -85.5877
 -85.585
 -85.5872
 -85.584
 -85.6388
 -85.6389
 -85.639
 -85.6414
 -85.6099
 -85.6086
 -85.6068
 -85.608
 -85.5353
 -85.5382
 -85.5386
 -85.5379
 -85.6484
 -85.6446
 -85.6471
 -85.6459
 -85.6644
 -85.6059
 -85.6065
 -85.6083
 -85.6082
 -85.6544
 -85.6556
 -85.655
 -85.6571
 -85.5643
 -85.5643
 -85.5646
 -85.5648
 -85.6606
 -85.6617
 -85.6598
 -85.6592
 -85.6008
 -85.6
 -85.5888
 -85.5875
 -85.5896
 -85.5902
 -85.6367
 -85.6342
 -85.6342
 -85.6342
 -85.6128
 -85.6155
 -85.6147
 -85.5871
 -85.5866
 -85.5877
 -85.638
 -85.6374
 -85.6352
 -85.6355
 -85.632
 -85.6307
 -85.633
 -85.6312
 -85.5692
 -85.5678
 -85.5671
 -85.6023
 -85.6075
 -85.6079
 -85.6044
 -85.54
 -85.5388
 -85.5419
 -85.5376
 -85.5351
 -85.6624
 -85.6589
 -85.6624
 -85.6601
 -85.6065
 -85.6052
 -85.6039
 -85.6065
 -85.6505
 -85.6518
 -85.5957
 -85.5917
 -85.5922
 -85.5763
 -85.574
 -85.5776
 -85.5769
 -85.661
 -85.6603
 -85.6618
 -85.6617
 -85.5669
 -85.5674
 -85.5673
 -85.578
 -85.5773
 -85.5793
 -85.5775
 -85.5862
 -85.5894
 -85.587
 -85.5837
 -85.627
 -85.631
 -85.6281
 -85.6294
 -85.5733
 -85.5766
 -85.5748
 -85.5744
 -85.635
 -85.6191
 -85.622
 -85.6228
 -85.6184
 -85.6552
 -85.6558
 -85.6536
 -85.6591
 -85.6584
 -85.6582
 -85.657
 -85.6211
 -85.6226
 -85.6198
 -85.6212
 -85.6664
 -85.6662
 -85.6661
 -85.6644
 -85.5868
 -85.6146
 -85.6111
 -85.6112
 -85.6137
 -85.6068
 -85.6028
 -85.6049
 -85.6054
 -85.5302
 -85.5334
 -85.5344
 -85.5313
 -85.5988
 -85.5996
 -85.6005
 -85.5974
 -85.5948
 -85.595
 -85.5958
 -85.5973
 -85.5968
 -85.5971
 -85.5994
 -85.6508
 -85.6492
 -85.6484
 -85.5946
 -85.5914
 -85.5923
 -85.5933
 -85.6482
 -85.6509
 -85.6496
 -85.6029
 -85.6009
 -85.6094
 -85.6111
 -85.6103
 -85.6086
 -85.6078
 -85.6085
 -85.6054
 -85.606
 -85.6093
 -85.6082
 -85.6531
 -85.6539
 -85.654
 -85.5872
 -85.6581
 -85.6126
 -85.6144
 -85.6122
 -85.6099
 -85.5638
 -85.5637
 -85.5609
 -85.57
 -85.5729
 -85.5742
 -85.6086
 -85.6096
 -85.6067
 -85.6011
 -85.6009
 -85.6021
 -85.6036
 -85.6069
 -85.6047
 -85.6085
 -85.605
 -85.4982
 -85.499
 -85.496
 -85.638
 -85.6357
 -85.6375
 -85.6009
 -85.6016
 -85.6434
 -85.6406
 -85.6415
 -85.6404
 -85.6161
 -85.6182
 -85.616
 -85.531
 -85.5323
 -85.5285
 -85.5296
 -85.5941
 -85.5911
 -85.5938
 -85.5911
 -85.5712
 -85.5702
 -85.5691
 -85.5685
 -85.6262
 -85.623
 -85.625
 -85.6262
 -85.5828
 -85.5803
 -85.5824
 -85.579
 -85.5396
 -85.539
 -85.5393
 -85.5865
 -85.5855
 -85.5842
 -85.5849
 -85.6265
 -85.6292
 -85.628
 -85.6284
 -85.6039
 -85.6067
 -85.607
 -85.6055
 -85.5752
 -85.5741
 -85.5755
 -85.5919
 -85.5898
 -85.5906
 -85.5904
 -85.5703
 -85.5675
 -85.5705
 -85.5683
 -85.5571
 -85.5605
 -85.5594
 -85.5561
 -85.6609
 -85.6617
 -85.661
 -85.6616
 -85.5679
 -85.5697
 -85.5692
 -85.5697
 -85.5738
 -85.5721
 -85.5744
 -85.5744
 -85.6224
 -85.6252
 -85.6245
 -85.6262
 -85.5847
 -85.5842
 -85.5868
 -85.5855
 -85.6698
 -85.6702
 -85.6701
 -85.6705
 -85.5968
 -85.5956
 -85.5979
 -85.5619
 -85.5602
 -85.5608
 -85.563
 -85.567
 -85.5661
 -85.5667
 -85.566
 -85.567
 -85.563
 -85.6313
 -85.6288
 -85.6311
 -85.6281
 -85.6691
 -85.6682
 -85.6688
 -85.6685
 -85.5907
 -85.5883
 -85.5895
 -85.5881
 -85.5698
 -85.5687
 -85.5684
 -85.6254
 -85.6229
 -85.623
 -85.6248
 -85.5967
 -85.5965
 -85.5973
 -85.5997
 -85.5765
 -85.5769
 -85.5763
 -85.5785
 -85.56
 -85.5634
 -85.5614
 -85.6396
 -85.642
 -85.643
 -85.6401
 -85.647
 -85.6465
 -85.6448
 -85.591
 -85.5905
 -85.5924
 -85.5941
 -85.5932
 -85.5922
 -85.5952
 -85.5751
 -85.578
 -85.5794
 -85.5782
 -85.6245
 -85.6234
 -85.6218
 -85.5669
 -85.5668
 -85.5643
 -85.6055
 -85.6082
 -85.6072
 -85.6469
 -85.6444
 -85.6462
 -85.6288
 -85.6284
 -85.5856
 -85.5873
 -85.5849
 -85.587
 -85.5881
 -85.5869
 -85.6002
 -85.5971
 -85.5763
 -85.5576
 -85.5579
 -85.556
 -85.6492
 -85.6489
 -85.6457
 -85.5911
 -85.5933
 -85.5925
 -85.5907
 -85.5783
 -85.6041
 -85.6055
 -85.6252
 -85.6262
 -85.6245
 -85.6269
 -85.6037
 -85.6015
 -85.6043
 -85.5917
 -85.593
 -85.5891
 -85.5919
 -85.5861
 -85.5904
 -85.5944
 -85.5923
 -85.5909
 -85.5955
 -85.6519
 -85.6499
 -85.6495
 -85.6512
 -85.6533
 -85.6545
 -85.6564
 -85.6561
 -85.5666
 -85.5685
 -85.6025
 -85.6025
 -85.6013
 -85.599
 -85.6144
 -85.615
 -85.6163
 -85.6172
 -85.6214
 -85.6236
 -85.6215
 -85.6209
 -85.6005
 -85.5986
 -85.5979
 -85.6006
 -85.5956
 -85.5976
 -85.5962
 -85.5952
 -85.6463
 -85.6435
 -85.6464
 -85.646
 -85.5686
 -85.5716
 -85.5726
 -85.5746
 -85.5697
 -85.5726
 -85.5712
 -85.6385
 -85.6404
 -85.643
 -85.6441
 -85.5753
 -85.5772
 -85.5763
 -85.5779
 -85.658
 -85.6568
 -85.658
 -85.6576
 -85.6482
 -85.6471
 -85.6479
 -85.6464
 -85.5887
 -85.59
 -85.5877
 -85.5889
 -85.6294
 -85.6303
 -85.6293
 -85.6269
 -85.577
 -85.5783
 -85.5804
 -85.5809
 -85.6379
 -85.6365
 -85.6369
 -85.5681
 -85.5695
 -85.5677
 -85.5687
 -85.6183
 -85.6171
 -85.6188
 -85.6197
 -85.5863
 -85.587
 -85.6346
 -85.6383
 -85.6366
 -85.636
 -85.6394
 -85.6389
 -85.6372
 -85.5974
 -85.6008
 -85.5979
 -85.6417
 -85.6419
 -85.6428
 -85.6442
 -85.5421
 -85.5429
 -85.5449
 -85.5444
 -85.5761
 -85.5773
 -85.579
 -85.58
 -85.6184
 -85.6152
 -85.6156
 -85.6185
 -85.653
 -85.6536
 -85.6522
 -85.6539
 -85.6479
 -85.6497
 -85.6499
 -85.6484
 -85.6531
 -85.6528
 -85.6534
 -85.6525
 -85.6533
 -85.5812
 -85.5828
 -85.581
 -85.5835
 -85.5695
 -85.5702
 -85.5667
 -85.5691
 -85.5805
 -85.5805
 -85.5862
 -85.5887
 -85.5868
 -85.5861
 -85.5935
 -85.5933
 -85.5962
 -85.5933
 -85.5716
 -85.5716
 -85.5697
 -85.6073
 -85.6056
 -85.6061
 -85.605
 -85.6707
 -85.6703
 -85.6692
 -85.5821
 -85.5816
 -85.5827
 -85.5853
 -85.6425
 -85.6395
 -85.6413
 -85.6421
 -85.6269
 -85.6295
 -85.6286
 -85.6035
 -85.602
 -85.6048
 -85.6291
 -85.6317
 -85.6292
 -85.6461
 -85.6448
 -85.627
 -85.6272
 -85.6271
 -85.5776
 -85.5785
 -85.579
 -85.5763
 -85.6556
 -85.6568
 -85.6557
 -85.6551
 -85.6189
 -85.6213
 -85.62
 -85.5236
 -85.5201
 -85.5188
 -85.5229
 -85.5611
 -85.5596
 -85.6122
 -85.5865
 -85.5902
 -85.5877
 -85.5865
 -85.6071
 -85.61
 -85.6099
 -85.6363
 -85.6365
 -85.6348
 -85.6366
 -85.6595
 -85.6601
 -85.6031
 -85.6022
 -85.6023
 -85.6005
 -85.5576
 -85.5549
 -85.5549
 -85.5576
 -85.649
 -85.6501
 -85.65
 -85.6491
 -85.6179
 -85.619
 -85.6174
 -85.5025
 -85.5008
 -85.4988
 -85.4989
 -85.5685
 -85.5679
 -85.5663
 -85.5814
 -85.5834
 -85.5797
 -85.5819
 -85.6176
 -85.618
 -85.6169
 -85.6199
 -85.6031
 -85.6051
 -85.563
 -85.5636
 -85.5634
 -85.5634
 -85.6198
 -85.6224
 -85.5817
 -85.578
 -85.5795
 -85.5806
 -85.5909
 -85.592
 -85.589
 -85.5911
 -85.6041
 -85.6068
 -85.6076
 -85.6055
 -85.5788
 -85.5774
 -85.5745
 -85.6262
 -85.6232
 -85.6264
 -85.6237
 -85.6395
 -85.6415
 -85.6434
 -85.6399
 -85.6366
 -85.6368
 -85.6371
 -85.6388
 -85.5552
 -85.5526
 -85.5541
 -85.5517
 -85.6059
 -85.604
 -85.5156
 -85.5128
 -85.5135
 -85.5108
 -85.5906
 -85.5881
 -85.5868
 -85.6605
 -85.4892
 -85.4902
 -85.4903
 -85.4862
 -85.5997
 -85.601
 -85.5995
 -85.5997
 -85.5852
 -85.5877
 -85.5859
 -85.6378
 -85.6398
 -85.6399
 -85.6376
 -85.6388
 -85.638
 -85.6406
 -85.6405
 -85.6362
 -85.6373
 -85.6353
 -85.6344
 -85.5785
 -85.5806
 -85.5774
 -85.5803
 -85.5674
 -85.5663
 -85.5648
 -85.565
 -85.621
 -85.6213
 -85.6237
 -85.621
 -85.5919
 -85.5884
 -85.5934
 -85.5912
 -85.6686
 -85.6536
 -85.654
 -85.6158
 -85.6158
 -85.5934
 -85.5913
 -85.5919
 -85.6553
 -85.6579
 -85.6564
 -85.6557
 -85.5979
 -85.5968
 -85.6157
 -85.6137
 -85.5307
 -85.534
 -85.5305
 -85.5338
 -85.5785
 -85.5774
 -85.5757
 -85.5767
 -85.6189
 -85.6221
 -85.6195
 -85.6212
 -85.5366
 -85.5338
 -85.5361
 -85.5374
 -85.6645
 -85.6637
 -85.6655
 -85.6643
 -85.6538
 -85.6517
 -85.6589
 -85.6576
 -85.656
 -85.6591
 -85.6405
 -85.6423
 -85.5872
 -85.5883
 -85.5863
 -85.4937
 -85.4965
 -85.4928
 -85.4933
 -85.5404
 -85.5424
 -85.543
 -85.5407
 -85.6549
 -85.6563
 -85.6549
 -85.6541
 -85.6302
 -85.6334
 -85.6315
 -85.6092
 -85.6065
 -85.6048
 -85.6076
 -85.5817
 -85.5854
 -85.5825
 -85.5816
 -85.6464
 -85.6483
 -85.6476
 -85.6557
 -85.6056
 -85.609
 -85.5778
 -85.5787
 -85.6265
 -85.6295
 -85.6259
 -85.6268
 -85.5669
 -85.564
 -85.568
 -85.5638
 -85.5655
 -85.5631
 -85.564
 -85.4986
 -85.5031
 -85.502
 -85.501
 -85.5811
 -85.5827
 -85.5825
 -85.5848
 -85.6477
 -85.648
 -85.6435
 -85.6452
 -85.6446
 -85.6452
 -85.5766
 -85.5763
 -85.5787
 -85.5752
 -85.6364
 -85.6351
 -85.6372
 -85.6275
 -85.6277
 -85.6282
 -85.6261
 -85.6444
 -85.6455
 -85.6432
 -85.646
 -85.5818
 -85.5844
 -85.5835
 -85.5821
 -85.6593
 -85.6568
 -85.5955
 -85.524
 -85.5256
 -85.5272
 -85.5286
 -85.6355
 -85.6353
 -85.6369
 -85.5408
 -85.5387
 -85.5395
 -85.5376
 -85.6261
 -85.6258
 -85.6256
 -85.6279
 -85.5628
 -85.5627
 -85.5602
 -85.5633
 -85.5726
 -85.572
 -85.574
 -85.5744
 -85.6229
 -85.6246
 -85.6245
 -85.587
 -85.5879
 -85.5865
 -85.5849
 -85.6204
 -85.6196
 -85.6212
 -85.6176
 -85.6131
 -85.6116
 -85.6411
 -85.6418
 -85.6417
 -85.6276
 -85.628
 -85.6257
 -85.5229
 -85.5233
 -85.5261
 -85.5236
 -85.5668
 -85.569
 -85.5657
 -85.5698
 -85.6469
 -85.644
 -85.6443
 -85.6441
 -85.6422
 -85.6416
 -85.5739
 -85.5788
 -85.5742
 -85.628
 -85.6255
 -85.6263
 -85.6249
 -85.6271
 -85.6267
 -85.6256
 -85.5798
 -85.5785
 -85.5801
 -85.5805
 -85.6558
 -85.6561
 -85.588
 -85.5871
 -85.588
 -85.5897
 -85.5771
 -85.5773
 -85.5783
 -85.6303
 -85.631
 -85.602
 -85.6006
 -85.6022
 -85.6042
 -85.5651
 -85.5645
 -85.622
 -85.6216
 -85.5891
 -85.5853
 -85.5858
 -85.5877
 -85.6076
 -85.6077
 -85.6058
 -85.6096
 -85.6075
 -85.6059
 -85.6076
 -85.5494
 -85.5495
 -85.5482
 -85.5535
 -85.5395
 -85.5397
 -85.5417
 -85.5412
 -85.6274
 -85.6253
 -85.6232
 -85.6251
 -85.6489
 -85.6492
 -85.6477
 -85.6476
 -85.6129
 -85.6144
 -85.6123
 -85.6058
 -85.6049
