 2.86644
 2.57011
 2.63539
 2.44523
 -3.30836
 -3.37905
 -3.56702
 -3.67255
 -1.56522
 -1.33518
 -1.61794
 -1.34671
 -1.83124
 -1.60567
 -1.53226
 -1.42265
 -6.04351
 -6.30508
 -5.87938
 -5.77794
 -5.7562
 -5.49671
 -5.94955
 -5.59318
 3.94965
 4.14695
 4.08387
 3.9562
 3.84703
 3.76986
 3.76845
 3.8991
 -5.84542
 -5.72654
 -5.43525
 -5.7242
 -5.62843
 -5.67466
 -5.57199
 -6.01369
 4.64061
 4.75807
 4.57599
 4.54066
 -1.572
 -1.60343
 -1.36775
 -1.51996
 1.80137
 1.82923
 2.00381
 1.63729
 -3.56757
 -3.17981
 -3.05032
 -3.30088
 -0.468975
 -0.40221
 -0.553744
 -0.736343
 3.29863
 3.45442
 3.18611
 3.4425
 -4.82697
 -5.01744
 -4.81895
 -5.12658
 -2.23479
 -2.07188
 -2.30419
 -2.12757
 -0.56624
 -0.638057
 -0.675981
 -0.830732
 -4.6618
 -4.65406
 -4.79604
 -4.99946
 3.78191
 4.02153
 3.76768
 3.9376
 -6.75288
 -6.79281
 -7.06686
 -7.07691
 6.43307
 6.54437
 6.55715
 6.39442
 -2.85745
 -2.96503
 -2.69212
 -2.66227
 -0.171284
 -0.0112791
 -0.207934
 -0.295405
 -0.90624
 -0.962122
 -0.827083
 -0.752769
 0.865156
 0.609945
 0.492219
 0.838131
 3.37278
 3.53405
 3.34825
 3.36745
 1.93243
 1.99214
 2.19152
 2.06439
 -3.27539
 -3.23922
 -3.10458
 -2.9306
 -0.291277
 -0.66949
 -0.216057
 -0.349809
 1.77743
 1.59357
 1.60276
 1.77139
 -2.29588
 -2.01426
 -2.33287
 -2.07406
 -3.36301
 -3.23365
 -3.22302
 -3.26854
 1.77565
 1.99809
 1.74632
 2.10776
 3.04922
 3.07333
 3.09695
 3.0841
 -2.14814
 -1.79112
 -2.09274
 -2.01123
 4.36131
 4.26906
 4.23638
 4.19382
 -2.6486
 -2.67309
 -3.12842
 -3.00865
 -7.48582
 -7.2038
 -7.38284
 -7.14347
 -1.21351
 -1.1509
 -1.27192
 -0.935209
 -3.05618
 -3.28511
 -3.18265
 -3.07922
 4.10544
 4.11449
 3.95269
 4.24322
 -2.18899
 -1.98545
 -2.0734
 -2.32988
 -5.75977
 -5.67058
 -5.94299
 -5.79044
 2.37347
 2.19655
 2.27431
 2.35425
 -2.21626
 -2.59284
 -2.49448
 -2.53482
 3.07059
 2.8872
 3.04726
 3.24927
 1.68113
 1.82741
 1.90359
 1.9746
 -0.582936
 -0.389504
 -0.350744
 -0.15753
 3.40355
 3.47506
 3.53847
 3.3993
 -0.921414
 -0.701642
 -0.723517
 -0.879634
 1.31171
 1.56687
 1.29898
 1.66653
 -1.2671
 -1.40959
 -1.24055
 -1.40303
 2.02797
 1.84216
 1.96881
 1.69604
 -1.44292
 -1.40278
 -1.62515
 -1.24747
 -2.81617
 -2.84402
 -2.99965
 -3.15265
 -3.09513
 -2.93433
 -3.07208
 -2.6944
 2.23329
 2.26412
 2.52505
 2.13326
 0.857882
 0.982872
 0.952902
 0.675685
 6.10174
 6.20758
 6.30367
 6.17658
 1.99927
 2.05356
 2.25417
 2.03535
 -0.249884
 -0.570746
 -0.416745
 -0.481047
 1.25676
 1.27139
 0.941355
 1.43299
 1.43437
 1.18943
 1.46753
 1.2375
 3.56786
 3.68762
 3.53195
 3.52215
 -4.86369
 -5.19289
 -5.30661
 -4.83706
 -5.96442
 -6.08888
 -6.20051
 -6.2789
 -0.796271
 -1.08925
 -0.578274
 -0.746713
 1.91132
 1.97474
 1.81365
 2.08284
 -2.67881
 -2.8134
 -2.94988
 -2.66397
 3.69679
 4.09625
 3.94214
 3.93751
 3.8011
 3.95738
 4.03231
 3.76319
 6.41952
 6.53718
 6.37768
 6.41248
 -1.37217
 -1.65749
 -1.48874
 -1.73661
 2.35464
 2.11363
 2.06435
 2.32731
 2.85212
 3.01003
 2.7812
 2.71396
 -6.48919
 -6.77405
 -6.66174
 -6.80907
 3.23481
 3.31399
 3.47627
 3.26486
 2.84967
 2.95706
 3.08666
 2.86667
 2.48086
 2.3151
 2.5019
 2.67531
 0.431088
 0.490166
 0.279614
 0.319688
 2.72917
 2.48928
 2.66027
 2.58567
 1.72466
 1.59648
 1.52943
 1.65687
 0.850769
 0.915597
 1.00678
 1.09473
 3.17353
 3.41561
 3.10818
 3.37105
 6.85635
 6.89405
 6.68523
 6.67942
 3.60985
 3.53019
 3.40495
 3.51523
 -1.54229
 -1.38145
 -1.6431
 -1.23643
 -1.5976
 -1.50934
 -1.72564
 -1.50735
 -2.96003
 -2.83372
 -2.75272
 -3.06145
 3.99929
 4.02146
 3.96559
 3.88314
 -7.00654
 -6.98558
 -6.78877
 -7.19482
 -2.7607
 -3.00089
 -2.73611
 -2.79666
 4.27673
 4.27423
 4.45663
 4.47314
 1.59331
 1.59994
 1.69452
 1.30164
 2.94367
 2.79261
 3.11836
 2.99389
 2.8796
 2.98623
 2.99636
 3.93864
 3.96103
 3.98168
 4.05428
 -2.12874
 -1.96194
 -1.78997
 -2.228
 0.80527
 0.476217
 0.601398
 0.770107
 -1.74323
 -2.00431
 -1.81088
 1.92529
 2.21987
 2.03063
 2.12108
 0.188498
 0.00801906
 0.076903
 0.339404
 -4.35238
 -3.97789
 -3.99947
 -4.51758
 3.64547
 3.60812
 3.34148
 3.44003
 3.04449
 3.19079
 3.29231
 3.16882
 -1.40691
 -1.12237
 -1.05806
 -1.16197
 -2.62722
 -2.45748
 -2.90451
 -2.86527
 4.04619
 4.02444
 4.10717
 4.24628
 3.16402
 3.10854
 2.7875
 2.88196
 1.0455
 0.777412
 0.624365
 1.00232
 -5.71492
 -5.91156
 -5.79175
 -5.84205
 -1.45134
 -1.74187
 -1.8429
 -1.70729
 -0.015011
 0.360077
 0.0333099
 -0.00757113
 6.08704
 6.28104
 6.07657
 6.08776
 0.54842
 0.747887
 0.462659
 0.304334
 -4.34761
 -4.05251
 -4.35476
 -3.94372
 2.54224
 2.85844
 2.40114
 2.50281
 3.12035
 3.0775
 3.29034
 3.16917
 3.24194
 3.44134
 3.38139
 3.32782
 4.89417
 4.91092
 4.90714
 4.82549
 2.70322
 3.01589
 2.99076
 2.99691
 -1.51728
 -1.48051
 -1.51939
 -1.32541
 4.06746
 4.00674
 3.9465
 3.87194
 -5.22512
 -4.97721
 -5.15879
 -5.24836
 3.77309
 4.02261
 3.9925
 3.79653
 -4.23379
 -3.80425
 -4.26256
 -3.99244
 0.771969
 0.975168
 0.966471
 0.808658
 1.4208
 1.21065
 1.13032
 1.35363
 2.24246
 2.23551
 1.94395
 2.16547
 2.66144
 2.66412
 2.83593
 2.89533
 -6.73352
 -6.969
 -7.05112
 -7.01259
 2.4819
 2.60753
 2.48385
 2.58117
 -7.41359
 -7.18341
 -7.34563
 -7.01584
 -2.67573
 -2.60588
 -2.93579
 -2.69195
 5.54397
 5.33878
 5.3819
 5.55141
 -6.13409
 -6.06478
 -6.30316
 -6.40583
 3.27715
 3.05145
 3.24539
 3.42014
 5.54559
 5.65923
 5.71666
 5.56143
 -3.6644
 -3.5759
 -3.43557
 -3.57748
 -6.19373
 -6.53445
 -6.27932
 -6.14682
 -0.638236
 -0.704409
 -0.574772
 -0.516784
 -3.28352
 -2.96167
 -3.3681
 -3.02804
 2.9586
 3.20741
 3.07344
 3.11707
 -1.15374
 -1.05385
 -1.1522
 -1.39411
 1.56595
 1.66251
 1.47961
 1.45834
 3.79226
 3.69631
 3.83432
 3.83662
 4.51681
 4.55755
 4.56647
 4.39599
 0.716392
 0.813195
 0.575371
 0.893547
 -0.0326892
 -0.0322583
 0.0540206
 0.21515
 3.01308
 3.04776
 2.89312
 2.8357
 3.06882
 3.34827
 3.08158
 3.12324
 -1.83285
 -1.8644
 -1.65291
 -1.67576
 -5.81938
 -5.67129
 -6.03411
 -6.10349
 -5.31886
 -5.12162
 -5.36699
 -5.42324
 -5.16544
 -4.82947
 -4.90037
 -5.08145
 -2.34384
 -2.18
 -2.41121
 -2.15151
 3.08155
 3.36652
 3.15038
 3.23301
 2.97859
 2.82513
 2.76846
 2.7298
 0.0838456
 0.191491
 0.496162
 0.525812
 -2.68399
 -2.5342
 -2.95168
 -2.77007
 -2.56264
 -2.40048
 -2.49832
 -2.70044
 -0.658302
 -0.424029
 -0.598433
 -0.646549
 -1.44813
 -1.67685
 -1.37863
 -1.43439
 4.29825
 4.32269
 4.21741
 4.03803
 7.49462
 7.59939
 7.47865
 7.67386
 2.47775
 2.50021
 2.74128
 2.60014
 6.98014
 6.78639
 6.83504
 2.58445
 2.63716
 2.50742
 2.76037
 -4.70895
 -4.51837
 -4.64005
 -4.45225
 -0.397206
 -0.528915
 -0.592822
 -0.786907
 -5.58934
 -5.47031
 -5.80229
 -5.43471
 3.13
 3.09532
 3.32466
 3.12757
 -2.38149
 -2.32371
 -2.73522
 -2.63232
 -0.734895
 -0.715301
 -0.421903
 -0.564825
 -6.53026
 -6.69407
 -6.78577
 -6.31353
 -3.79955
 -3.74625
 -3.86865
 -4.13368
 2.44594
 2.21971
 2.37231
 2.4552
 -2.41443
 -2.38057
 -2.12544
 -2.42632
 -4.25657
 -3.80862
 -4.06387
 -3.86924
 5.51622
 5.74176
 5.66324
 5.7285
 -0.312627
 -0.416127
 -0.565277
 -0.599499
 -4.18559
 -4.29113
 -4.38118
 -4.15091
 -1.71534
 -1.95471
 -1.53317
 -2.09519
 -4.07737
 -3.7706
 -4.11982
 -4.08953
 2.90086
 2.7042
 2.58909
 2.59793
 -3.85308
 -4.39906
 -3.8249
 -4.29367
 0.847465
 0.714087
 1.11355
 0.869011
 0.351729
 0.242395
 0.0795669
 0.40618
 -3.7423
 -3.6645
 -3.44214
 -3.88423
 -7.40015
 -7.18579
 -7.17445
 -7.33065
 4.32371
 4.20825
 4.10308
 4.03912
 1.83206
 1.62504
 1.50942
 1.7779
 -1.25008
 -1.08706
 -0.961978
 -1.03782
 -3.72921
 -3.91908
 -3.87057
 -3.92809
 2.37914
 2.54905
 2.47369
 2.45947
 3.94221
 3.70599
 3.59728
 3.89131
 -2.61945
 -2.63675
 -2.28093
 -2.31002
 -1.83857
 -2.07534
 -1.83146
 -1.93408
 -6.23126
 -6.46461
 -6.682
 -6.24174
 3.43954
 3.17237
 3.496
 3.30929
 -6.16426
 -6.40091
 -6.35357
 -6.20686
 1.87442
 1.61579
 1.77966
 1.86044
 7.36919
 7.39259
 7.31697
 7.27568
 -5.00707
 -5.19521
 -5.32366
 -5.20385
 -2.12727
 -2.28489
 -1.98366
 -1.72099
 -5.00143
 -5.02846
 -4.84052
 -4.80455
 0.165029
 0.438834
 0.232999
 0.127429
 0.682643
 0.54193
 0.488409
 0.644657
 -3.34604
 -2.99962
 -3.04757
 -3.14354
 3.11449
 3.00823
 3.21623
 3.06686
 3.48853
 3.36366
 3.34819
 3.43793
 6.31979
 6.41403
 6.42226
 6.45946
 -0.830859
 -1.01711
 -1.12142
 -1.24656
 -0.0777971
 0.0440873
 -0.367736
 -0.0929697
 -1.64619
 -1.23627
 -1.50287
 -1.72377
 1.72208
 1.38849
 1.35802
 1.77301
 -5.96417
 -5.93493
 -6.129
 -5.66742
 -6.18569
 -6.65857
 -6.20274
 -6.12293
 -1.86188
 -1.99605
 -2.22486
 -2.23946
 8.46295
 8.48683
 8.43438
 8.3455
 0.892681
 1.03812
 0.844968
 1.16117
 0.755791
 0.823842
 1.08601
 0.822472
 0.89927
 0.848253
 1.14156
 1.12907
 -3.63146
 -3.50392
 -3.87209
 -3.46252
 5.85782
 5.65791
 5.97258
 5.86335
 6.49844
 6.51011
 6.64977
 6.70944
 -3.77324
 -3.55281
 -3.7806
 -3.4639
 2.09819
 1.81106
 2.20371
 1.84856
 1.32285
 1.36708
 1.26921
 1.25867
 -2.03595
 -1.90217
 -1.81649
 -1.54103
 3.36333
 3.24384
 3.16178
 3.2792
 -3.89571
 -3.62567
 -3.6673
 -3.89359
 1.66094
 2.06266
 1.87109
 2.17773
 2.00793
 2.05118
 2.24077
 2.06534
 3.94351
 4.06234
 3.84027
 4.08932
 1.09068
 0.775623
 0.970975
 0.746628
 -4.47576
 -4.63594
 -4.61407
 -4.39766
 -2.357
 -2.67129
 -2.77512
 -2.48329
 3.31981
 3.35167
 3.15652
 3.15417
 2.41097
 2.12974
 2.12761
 2.40069
 -5.31876
 -5.43499
 -5.63206
 -5.51763
 -3.71404
 -3.49233
 -3.62189
 -3.53388
 0.683321
 0.780906
 0.936168
 0.775624
 4.07846
 4.03199
 4.04717
 3.96341
 5.12542
 4.81617
 4.87923
 5.07805
 -1.94509
 -1.67612
 -1.54685
 -1.81166
 3.72865
 3.92665
 3.74161
 4.14491
 -4.84177
 -4.48239
 -4.49057
 -4.81027
 -1.25657
 -1.62721
 -1.40966
 -1.17988
 -4.12371
 -4.04479
 -3.93549
 -4.04186
 -2.56074
 -2.22434
 -2.24514
 -2.45041
 0.798442
 0.940953
 0.789663
 0.622696
 2.91592
 3.2848
 3.19745
 3.04349
 4.78889
 4.48427
 4.75304
 4.72252
 4.07613
 4.34404
 4.05319
 4.14028
 2.9975
 3.23893
 3.2851
 3.16606
 0.36411
 0.275339
 0.300676
 0.699849
 0.380757
 0.283637
 0.272943
 0.523029
 0.0923395
 0.316705
 -0.111884
 0.12573
 -1.8519
 -1.68748
 -1.95216
 -1.90196
 5.71695
 5.91183
 5.83946
 5.85672
 -0.579553
 -0.644556
 -0.527073
 -0.792049
 3.36379
 3.5916
 3.49536
 3.43815
 1.3859
 1.06185
 1.29498
 1.11853
 -6.00713
 -5.52741
 -5.94172
 -5.82465
 0.423007
 0.552523
 0.55964
 0.669448
 3.75828
 3.87238
 3.80665
 4.03848
 1.33732
 1.38805
 1.19696
 1.06567
 2.85024
 2.72151
 2.73669
 2.92245
 0.665081
 0.968355
 0.645476
 0.883666
 5.64359
 5.79584
 5.72229
 5.57815
 1.34527
 1.32824
 1.12397
 1.09638
 -2.04025
 -1.96698
 -2.16917
 -1.97442
 -1.49989
 -1.52869
 -1.64397
 -1.5431
 -5.48999
 -4.92255
 -5.37898
 -5.15215
 2.39649
 2.43403
 2.21907
 2.37135
 2.90824
 2.75847
 2.9285
 2.53333
 -5.37839
 -4.99849
 -5.39259
 -5.32544
 2.80762
 2.80363
 2.56536
 2.80011
 -4.38147
 -4.26146
 -4.5679
 -4.24511
 -0.445843
 -0.826919
 -0.59379
 -0.759781
 0.382753
 0.745377
 0.408005
 0.319232
 3.02691
 2.7965
 2.8305
 3.03579
 0.631696
 0.639162
 0.34672
 0.630654
 -4.52866
 -4.41738
 -4.55515
 -4.58857
 7.47605
 7.4244
 7.38365
 7.58664
 4.15692
 4.19844
 4.1989
 4.13728
 4.00805
 3.97613
 4.01453
 4.15869
 2.08707
 1.98493
 2.20801
 1.87961
 1.38401
 1.57845
 1.4281
 1.54544
 2.30229
 2.42401
 2.48257
 2.27142
 -6.23633
 -6.09426
 -6.58254
 -6.04955
 3.12784
 3.27089
 3.25155
 2.9645
 -1.58093
 -1.61907
 -1.72258
 -1.43542
 0.27528
 -3.79295
 -3.46921
 -3.54241
 -3.49507
 -1.20605
 -1.4303
 -1.62438
 -1.46227
 4.46286
 4.33348
 4.2846
 4.38048
 1.87049
 1.97391
 1.79144
 1.63378
 2.54507
 2.76743
 2.60927
 2.57132
 -4.40368
 -4.09383
 -4.1357
 -4.16854
 1.0975
 1.47203
 1.20909
 1.32111
 -4.67749
 -4.73622
 -4.38515
 -4.42674
 -2.4477
 -2.62497
 -2.32601
 -2.70483
 4.37594
 4.24134
 4.32241
 4.07922
 3.04579
 3.28081
 2.89257
 3.04841
 -1.94582
 -2.12826
 -2.16001
 -1.94507
 0.563176
 0.884097
 0.567392
 3.85212
 3.95607
 3.88399
 3.76619
 -1.89729
 -1.43425
 -1.73198
 -1.49616
 2.59258
 2.8417
 2.81583
 2.66985
 0.599258
 0.970616
 0.783453
 0.570998
 -5.17637
 -5.17568
 -4.75549
 -5.10856
 2.14071
 2.23621
 2.37276
 2.17631
 -3.76552
 -3.43018
 -3.71215
 -3.81784
 0.143764
 0.319861
 0.14625
 0.435499
 -3.13405
 -2.94513
 -2.69246
 -2.86846
 -4.86408
 -4.87043
 -5.20237
 -5.05111
 1.99364
 2.02694
 1.84557
 1.86077
 7.4085
 7.16479
 7.19883
 7.06949
 -6.59394
 -6.38962
 -6.41378
 -6.34169
 -1.62694
 -1.50743
 -1.36693
 -1.52143
 3.43802
 3.46181
 3.065
 3.37535
 1.37175
 1.18509
 1.13779
 1.38891
 5.34569
 5.29297
 5.30335
 5.46576
 -4.77244
 -4.93223
 -5.3045
 -5.0009
 3.92807
 4.05334
 3.9891
 3.96725
 -0.66349
 -0.91206
 -0.54328
 -0.730849
 3.19813
 3.60668
 3.28791
 3.29684
 -6.96721
 -6.90994
 -6.93777
 -6.60385
 -6.6831
 -6.61209
 -6.41937
 -6.21673
 -2.60136
 -2.32001
 -2.24561
 -2.65778
 -0.845521
 -0.950633
 -0.870062
 -0.667982
 -0.933316
 3.64038
 3.59581
 3.84819
 3.68284
 3.31401
 3.39648
 3.46555
 3.24096
 -1.96572
 -2.23449
 -2.24744
 -2.2633
 3.67574
 3.5047
 3.5003
 3.6844
 2.83105
 2.89381
 2.93112
 2.71897
 -2.4628
 -2.56557
 -2.51401
 -2.24935
 1.83589
 1.55083
 1.83565
 1.5576
 -2.04362
 -2.06951
 -2.11532
 -2.31287
 2.72469
 2.78072
 2.95574
 2.74204
 2.12681
 1.96008
 1.92073
 1.89559
 0.931335
 0.683231
 1.02966
 0.764215
 -0.792685
 -1.09633
 -0.9202
 -1.20921
 -3.43428
 -3.28745
 -3.71308
 -3.6691
 -0.462038
 -0.383651
 -0.236143
 -0.267807
 -0.421772
 -0.555189
 -0.630892
 -0.567064
 4.44691
 4.45227
 4.34633
 4.27978
 -1.61543
 -1.66689
 -1.77961
 -1.70248
 0.223949
 0.163763
 0.0547114
 0.243224
 -0.0795981
 -0.0635156
 0.120627
 -0.0353755
 1.75048
 1.67833
 1.9372
 1.77694
 3.8839
 3.905
 3.798
 4.07142
 -2.91139
 -2.86802
 -3.03968
 -3.07985
 3.8071
 3.96673
 3.91011
 3.65401
 -6.3306
 -6.30283
 -6.68055
 -6.46965
 -3.68826
 -3.48358
 -3.85962
 -3.73049
 -3.87127
 -3.90709
 -3.90874
 -3.81004
 -4.05638
 -3.95294
 -3.91278
 -4.22961
 -2.41221
 -2.54813
 -2.27603
 -2.55552
 5.29512
 5.41009
 5.60473
 -0.333666
 0.0283603
 -0.28302
 -0.223183
 -3.47328
 -3.36502
 -3.26749
 -3.47252
 1.89133
 2.15541
 2.01212
 1.94907
 2.72099
 2.6654
 2.80515
 2.63095
 -2.5979
 -2.64299
 -2.87709
 -2.34504
 0.988066
 1.05432
 0.948901
 0.746359
 2.51884
 2.50294
 2.58074
 2.62151
 -6.13151
 -6.49643
 -1.43715
 -1.39208
 -1.11325
 -1.14244
 0.831947
 0.900963
 1.05337
 -0.614508
 -0.695382
 -0.640265
 -0.395915
 4.83756
 4.90092
 4.68602
 4.71055
 -3.77463
 -3.99783
 -3.98716
 -3.67594
 -0.531254
 -0.461702
 -0.310421
 -0.341575
 1.91766
 2.12317
 2.01277
 1.80532
 -0.163516
 0.108433
 0.019597
 -0.0947758
 3.74224
 3.84274
 3.67595
 3.76287
 4.24686
 3.90154
 4.15277
 4.09073
 1.02098
 0.81817
 0.747533
 0.891496
 3.6845
 3.73584
 3.69813
 3.5352
 0.688766
 0.82031
 0.768947
 0.86697
 -4.16133
 -4.09804
 -3.77023
 -3.73208
 3.54734
 3.42384
 3.34008
 3.46686
 6.26806
 6.0978
 6.22
 6.12126
 -1.20593
 -0.717551
 -1.01744
 -1.09975
 1.3152
 1.1404
 1.35576
 1.14029
 3.77325
 3.80696
 3.60898
 3.6513
 0.79285
 0.933787
 0.670163
 0.697174
 -5.16784
 -5.07061
 -5.25987
 -5.19589
 2.92898
 2.94055
 3.04586
 2.93397
 -1.17358
 -0.980264
 -0.984156
 -0.917464
 1.41793
 1.15711
 1.34478
 0.99865
 -2.31922
 -2.50873
 -2.47811
 -2.69801
 -4.12585
 -4.07526
 -4.24198
 -3.98478
 3.46549
 3.28737
 3.40306
 3.09262
 2.23524
 2.06443
 2.10882
 2.15737
 -0.794814
 -0.765522
 -0.437814
 -0.640699
 3.87892
 3.80199
 3.83048
 3.76735
 7.37113
 7.50894
 7.49763
 7.41183
 -0.100782
 0.127798
 0.120951
 0.163211
 7.71902
 7.7585
 7.69657
 7.5827
 7.41834
 7.23823
 7.25156
 7.34139
 4.72508
 4.59455
 4.62456
 4.78326
 -1.64597
 -1.45054
 -1.28448
 -1.17507
 -1.49611
 -1.70856
 -1.7275
 -1.90819
 -1.90378
 -1.69993
 -1.86042
 -1.56675
 -1.16387
 -0.8724
 -0.934129
 -1.25792
 5.57125
 5.71023
 5.60924
 5.63312
 3.42414
 3.5252
 3.29808
 3.38795
 3.49256
 3.72311
 3.67462
 3.66545
 1.76334
 1.50035
 1.74788
 1.47643
 -0.426623
 -0.269566
 -0.439492
 -0.313099
 -2.35714
 -2.29348
 -2.17113
 -2.38797
 3.10361
 2.85938
 2.79768
 3.04334
 -1.69951
 0.760791
 0.564145
 0.566808
 0.709689
 -6.71461
 -6.79909
 -7.13551
 -6.92452
 1.17993
 1.151
 0.983876
 1.15279
 -4.73904
 -5.11211
 -4.8375
 3.56015
 3.45095
 3.36868
 3.59558
 6.95984
 6.7983
 6.86829
 6.76856
 0.501879
 0.524604
 0.212355
 0.66701
 1.77412
 2.09186
 2.02299
 2.05694
 3.67499
 3.54316
 3.41293
 3.34793
 3.3117
 3.24005
 3.41653
 3.21396
 4.98437
 5.24224
 5.08619
 5.08056
 -0.768542
 -0.713941
 -0.892074
 -1.27155
 0.559368
 0.289547
 0.62795
 0.413668
 2.38554
 2.59598
 2.3969
 2.48315
 0.971528
 1.15071
 0.688401
 -2.81472
 -2.66493
 -2.61245
 2.9438
 2.91741
 3.19921
 3.24928
 4.92234
 4.99334
 4.98873
 4.92634
 2.58657
 2.43567
 2.45815
 2.63687
 4.75328
 4.9399
 4.71249
 5.01209
 -3.08791
 -3.49805
 -3.19486
 -3.28549
 -2.56305
 -2.68269
 -2.7673
 -2.94253
 3.87381
 3.94873
 3.91316
 3.94006
 5.212
 5.45657
 5.28864
 5.21982
 -0.196276
 0.146124
 -0.141979
 -0.00975137
 -5.84159
 -5.5475
 -5.94745
 -5.60904
 4.88363
 4.89013
 4.98695
 4.87698
 -1.64155
 -1.36726
 -1.34066
 -1.69908
 6.38699
 6.49817
 6.38235
 6.46175
 -2.3129
 -2.47108
 -2.25386
 -2.69278
 1.57824
 1.77528
 1.47175
 1.82798
 -3.05868
 -3.07602
 -3.34686
 -3.33047
 3.6317
 3.56107
 3.52744
 3.33702
 2.02307
 2.21591
 2.19006
 2.20332
 2.87047
 2.94792
 2.71711
 2.7248
 2.63297
 2.70944
 2.45257
 2.83409
 -0.1107
 -0.281343
 -0.242204
 -0.00696611
 1.14482
 1.34858
 1.10631
 1.12244
 -3.4854
 -3.24349
 -3.06231
 -3.13175
 -6.3183
 -6.55782
 -6.03047
 -6.02605
 1.40537
 1.43289
 1.61073
 1.45689
 -4.12317
 -4.01057
 -3.88805
 -4.31655
 -2.10291
 -2.46752
 -2.62874
 -2.41348
 5.61476
 5.70627
 5.88301
 5.6401
 3.90215
 3.53725
 3.61402
 3.72342
 1.65583
 1.81814
 1.88371
 1.79568
 4.90211
 5.03189
 5.07045
 5.17013
 -0.348073
 -0.626439
 -0.591578
 -0.480116
 -3.04697
 -3.55715
 -3.27656
 -3.32198
 4.78871
 4.51278
 4.77087
 4.79219
 0.89911
 0.691882
 0.840063
 0.798892
 2.5659
 2.58815
 2.58088
 2.69194
 7.29835
 7.16977
 7.1508
 7.2856
 2.02351
 2.05924
 2.07977
 1.86551
 0.564314
 0.397697
 0.436389
 0.36718
 -2.00522
 -2.28113
 -2.0991
 -2.36049
 2.78864
 2.73293
 2.6772
 0.549368
 0.598103
 0.668006
 0.595463
 2.20748
 2.26978
 1.93341
 2.14101
 -1.48494
 -1.23474
 -1.44803
 -1.35622
 -1.54234
 -1.83681
 -1.78906
 -1.72369
 -4.62567
 -4.38303
 -4.54194
 -4.21279
 3.28461
 3.25929
 3.11874
 3.31163
 -5.69552
 -5.80209
 -5.92796
 -5.76003
 2.94482
 2.74979
 2.91911
 3.03164
 0.590619
 0.309773
 0.343699
 0.183665
 0.237796
 0.518879
 0.417023
 0.565423
 7.56577
 7.70498
 7.57346
 7.60485
 2.33226
 2.47502
 2.31458
 2.27912
 0.732435
 0.778564
 0.552563
 0.273978
 0.92984
 0.856635
 0.820244
 1.13541
 -6.62861
 -6.61309
 -6.33133
 -6.57801
 2.95264
 2.72685
 2.59658
 2.88978
 2.643
 2.77543
 2.53352
 2.83323
 -2.17898
 -2.46521
 -2.22774
 -2.38206
 3.52272
 3.56239
 3.68269
 3.7034
 3.56216
 3.6069
 3.47291
 3.62018
 -1.36788
 -1.02692
 -1.33768
 -1.14883
 -1.56168
 -1.55585
 -1.32518
 -1.56118
 0.0672235
 0.0433361
 -0.329964
 -0.187582
 2.74958
 2.85973
 -0.816096
 -0.603399
 -0.947518
 -0.664069
 2.67807
 2.55788
 2.67539
 2.62378
 1.46549
 1.21212
 1.12907
 1.21809
 -4.86408
 -4.69021
 -4.55207
 -4.91794
 1.28371
 1.2094
 1.08563
 1.03941
 -2.69354
 -2.90884
 -3.03606
 -2.61724
 3.07233
 2.70864
 2.83598
 2.72593
 1.8454
 2.05664
 2.09301
 1.98652
 0.78151
 0.368832
 0.595157
 0.526134
 3.35271
 3.53888
 3.61265
 3.48407
 6.15986
 6.10472
 6.18984
 6.28546
 -5.5795
 -5.51224
 -5.39995
 -5.51263
 4.77652
 4.79657
 4.70289
 4.84581
 -0.510118
 -0.617063
 -0.349404
 -0.367449
 6.17064
 6.15577
 6.05348
 6.23207
 -0.654312
 -0.913646
 -0.731036
 -0.699313
 2.88461
 2.90926
 2.98187
 2.96151
 2.97095
 2.91199
 3.11955
 2.99539
 0.0293458
 -0.0705385
 0.231416
 0.0379543
 -3.64572
 -3.33207
 -3.57983
 -3.2778
 1.94455
 1.59611
 1.65679
 1.64876
 3.91891
 3.98201
 3.90958
 3.81754
 -3.50372
 -3.92345
 -3.70995
 -4.00943
 2.88019
 3.04853
 2.76937
 2.75059
 1.8042
 1.57628
 1.63516
 1.49728
 -2.19205
 -2.72718
 -2.60828
 -2.42256
 0.248143
 0.00249509
 -0.0615444
 -0.0652875
 1.07969
 1.1956
 1.05467
 0.931777
 -4.80029
 -5.01309
 -5.15463
 -5.25674
 -3.75537
 -3.86249
 -3.85003
 -3.70267
 -0.322029
 -0.3657
 -0.0314424
 -0.172402
 1.08814
 0.952884
 1.18449
 0.683848
 2.29745
 2.22134
 2.20529
 1.90911
 3.94489
 3.96345
 4.10969
 -2.61297
 -2.79028
 -2.72037
 -2.95648
 6.29768
 6.40927
 6.55972
 6.52791
 -1.72929
 -1.38609
 -1.57034
 -1.50908
 3.23172
 3.49733
 3.35548
 3.33696
 3.67069
 3.86713
 3.81146
 3.83395
 -4.10084
 -3.79727
 -3.94903
 -4.36355
 0.267844
 0.420009
 0.172657
 0.346995
 0.935439
 1.01849
 2.70067
 1.41406
 1.16765
 1.45422
 1.29474
 6.15558
 6.01884
 -1.30241
 -1.41577
 -1.52535
 4.34503
 4.22993
 4.49084
 4.33823
 -1.50048
 -1.20215
 -1.29166
 -1.30228
 1.81508
 1.58411
 1.65063
 1.66855
 2.79374
 2.46506
 2.66202
 2.62957
 -4.65932
 -4.66573
 -5.06977
 -4.77435
 4.28419
 4.09619
 4.3019
 4.07617
 -1.02294
 -1.03206
 -1.10328
 -1.26866
 -5.36957
 -5.43926
 -5.07088
 -5.07674
 0.348127
 0.617184
 0.382648
 0.56142
 -1.13886
 -0.7439
 -0.881293
 -0.867756
 0.837876
 0.623939
 0.80172
 1.16187
 -6.80467
 -6.22707
 -6.70212
 -6.2093
 -6.30478
 -6.31343
 -6.15059
 -5.92345
 -5.84048
 -5.70898
 -5.70218
 -5.87209
 1.4502
 1.65874
 1.42712
 1.45341
 -0.415737
 -0.0879417
 -0.212697
 -0.362524
 1.16632
 1.19951
 1.3728
 1.23672
 1.58291
 1.65961
 1.36091
 1.66751
 -1.67219
 -1.75931
 -1.80354
 -1.50439
 -3.50213
 -3.84541
 -3.71443
 -3.88339
 -3.53227
 -3.65066
 -3.34185
 -3.77391
 0.319711
 0.182383
 0.3715
 0.210133
 0.997209
 0.997071
 1.075
 1.18859
 2.97111
 3.09484
 3.01867
 2.78832
 -2.43058
 -2.68176
 -2.68593
 -2.34699
 4.82826
 4.81396
 4.98862
 4.74082
 -2.82549
 -3.00451
 -2.80571
 -2.74535
 -0.099399
 -0.514416
 -0.115182
 -0.417225
 0.0409435
 -0.0658163
 -0.00311703
 0.17155
 4.10587
 4.13055
 4.23278
 4.38589
 7.9779
 7.87029
 8.01499
 7.99899
 2.21102
 1.98802
 2.20767
 2.15846
 -2.89088
 -2.52476
 -2.64196
 -2.87231
 3.62631
 3.81303
 3.68058
 3.5356
 -0.4177
 -0.552562
 -0.254651
 -0.571169
 -0.758412
 -0.962118
 -1.22268
 -1.11861
 -2.20513
 -2.35161
 -1.94299
 -2.0727
 5.18962
 5.30473
 5.30183
 5.16811
 5.1292
 5.10925
 5.19349
 5.22945
 -2.90175
 -3.32156
 -3.15473
 -3.12245
 -1.71562
 -1.31893
 -1.31909
 -1.56335
 2.33987
 2.30873
 2.4327
 2.41927
 0.756874
 0.836649
 0.608746
 0.473607
 -0.00990098
 -0.0670076
 -0.0355042
 0.0810181
 2.39673
 2.55759
 2.19899
 2.49769
 -1.13345
 -0.971873
 -1.00755
 -0.818645
 -7.81124
 -7.48198
 -7.73715
 -7.78632
 -0.623268
 -0.935808
 -0.906282
 -1.08346
 0.697649
 0.5734
 0.755317
 0.445851
 0.631328
 0.649777
 0.863111
 0.626983
 -0.0416523
 -0.212797
 -0.0639862
 0.158144
 -5.72185
 -5.73483
 -5.46986
 -5.70593
 -3.45271
 -3.20014
 -3.37143
 -1.06195
 -1.05263
 -1.22286
 -1.02352
 3.87285
 3.89608
 3.72864
 3.91742
 1.57923
 1.5663
 1.7544
 1.50129
 -3.45266
 -3.07967
 -3.01275
 -3.09073
 2.96657
 2.8895
 2.8436
 2.75213
 1.93973
 2.10815
 2.12549
 1.88971
 1.65065
 1.75435
 2.02321
 1.79226
 -1.63788
 -1.45238
 -1.38667
 -1.39628
 -0.173618
 0.0444316
 -0.206382
 0.240375
 -1.076
 -0.602208
 -0.780182
 -0.851154
 3.52255
 3.425
 3.39823
 3.48749
 1.82266
 1.66438
 1.61224
 1.83263
 -1.36967
 -1.16614
 -1.41864
 -1.6405
 2.05436
 1.95351
 1.82541
 2.15194
 -0.612348
 -0.859674
 -0.864105
 -0.715649
 3.63069
 3.70166
 3.5795
 3.73364
 -5.14542
 -5.25427
 -4.92405
 -5.14485
 3.04568
 3.19672
 2.98564
 2.89937
 3.28417
 3.66574
 3.42835
 3.42701
 -2.15589
 -2.15296
 -2.35313
 -2.42659
 3.01968
 2.97025
 2.92763
 2.95572
 -0.743459
 -0.636816
 -0.746935
 -0.484469
 4.2249
 4.19455
 4.44112
 4.39614
 0.0483166
 0.174974
 0.119787
 -0.128701
 -4.55448
 -5.03612
 -4.63085
 -4.89754
 -0.107897
 0.234584
 0.239498
 0.0467806
 -2.12693
 -2.25799
 -2.13054
 -2.11787
 -0.709802
 -0.601616
 -0.676327
 -0.827718
 -0.606448
 -0.699087
 -0.770478
 -0.97632
 -5.61325
 -5.6292
 -5.74786
 -5.2801
 3.42228
 3.54756
 3.64443
 3.67167
 3.19156
 3.27987
 3.45594
 3.28687
 -3.95233
 -3.96438
 -3.78179
 -4.2067
 -4.58358
 -4.75039
 -4.56229
 2.52375
 2.60825
 2.62012
 2.46961
 -0.863199
 -1.16306
 -0.875753
 -0.836561
 -0.401986
 -0.493884
 -0.217601
 -0.52659
 3.3007
 3.12952
 3.43099
 3.28397
 -2.23914
 -2.43965
 -2.36598
 -2.40687
 0.91617
 1.18385
 1.15247
 0.887008
 -0.00608033
 0.267213
 0.234812
 0.309104
 -2.48433
 -2.70945
 -2.73664
 -2.66587
 4.05824
 4.13719
 4.0414
 3.94546
 2.44397
 2.69428
 2.62939
 2.63759
 -5.86008
 -5.44752
 -5.78754
 -5.66075
 3.41668
 3.44637
 3.38186
 3.09548
 4.0258
 4.11144
 4.07536
 4.05281
 0.835329
 0.740115
 0.8603
 0.52886
 6.16069
 6.0974
 6.22141
 5.98623
 0.274388
 0.226599
 0.359187
 0.244862
 -2.75519
 -2.63652
 -2.55354
 -2.49729
 -3.65304
 -3.45619
 -3.55208
 4.29542
 4.27217
 4.19579
 4.27016
 2.97677
 2.74006
 3.02446
 2.798
 3.31828
 3.38947
 3.49466
 3.54048
 2.61815
 2.77924
 2.6793
 2.722
 -6.15795
 -6.3401
 -6.46328
 -6.39074
 3.9897
 3.9799
 4.04791
 4.17796
 2.8297
 2.99107
 2.85667
 2.61612
 -3.47129
 -3.66229
 -3.46298
 -3.34914
 1.95335
 2.02945
 1.86863
 2.63484
 2.84334
 2.66034
 -0.169803
 0.026168
 0.235506
 5.80409
 5.595
 5.56179
 5.73171
 0.203814
 0.053011
 0.151132
 -0.0385823
 0.32712
 0.188942
 0.546307
 0.486163
 -4.02417
 -4.2118
 -3.90827
 -3.85759
 -4.86879
 -4.76798
 -5.3036
 -4.79867
 3.46755
 3.64849
 3.66927
 3.3228
 -0.333198
 -0.604606
 -0.627763
 -0.523042
 -0.297155
 -0.501869
 -0.611469
 -0.534246
 0.921428
 0.607205
 0.744745
 0.541027
 2.10967
 2.00537
 1.97492
 2.27018
 -0.265719
 -0.000425109
 -0.182241
 -0.280413
 3.48274
 3.43038
 3.52017
 3.37029
 -4.44788
 -4.32545
 -4.46261
 -4.53202
 2.61016
 2.65807
 2.55929
 2.43131
 -3.61641
 -3.35259
 -3.5308
 -3.51325
 -5.19388
 -5.01906
 -4.80527
 -5.11301
 -4.91444
 -4.82644
 -4.80146
 -4.72447
 3.04397
 3.19123
 -1.88468
 -1.81867
 -1.6445
 -1.7856
 3.33009
 3.05062
 3.18851
 3.27716
 -2.59909
 -3.08116
 -2.92144
 -3.02036
 -3.62222
 -3.3921
 -3.74724
 -3.41484
 2.32389
 2.16579
 2.13936
 2.25258
 -0.155831
 -0.132874
 -0.365065
 -0.264623
 2.68132
 2.66643
 2.50172
 2.65914
 1.40881
 1.41869
 1.37342
 1.17108
 7.10377
 6.85737
 7.15542
 6.93845
 -4.40783
 -4.24028
 -4.66124
 -4.35984
 2.5363
 2.7096
 2.4753
 2.35443
 4.29669
 4.44276
 4.43596
 4.23546
 1.12588
 1.2361
 0.999313
 0.933791
 4.15032
 4.40955
 4.47761
 4.14358
 1.27239
 1.52549
 1.60643
 1.38234
 -1.92412
 -1.83325
 -2.14086
 -1.72399
 0.766311
 0.933361
 0.932314
 0.832447
 -4.07578
 -4.52755
 -4.09235
 1.07787
 0.847986
 1.13258
 0.881719
 7.15753
 7.24262
 7.22976
 7.29876
 -6.42269
 -6.50667
 -6.62143
 -6.42256
 0.059022
 0.101519
 -0.0475711
 0.148851
 -2.69317
 -2.50334
 -2.26938
 -2.57867
 3.5765
 3.39223
 3.84362
 3.64836
 2.15442
 1.97161
 2.3228
 2.10578
 2.12433
 1.79638
 1.9813
 1.81372
 -4.8464
 -4.62756
 -4.90177
 -5.09474
 1.87766
 2.05647
 2.19077
 2.11884
 -6.23004
 -6.11919
 -6.31689
 -5.95316
 -1.6551
 -1.34793
 -1.34545
 -1.67961
 3.42185
 3.37514
 3.29531
 3.40972
 6.26208
 6.20586
 6.06106
 6.31005
 1.34578
 1.67633
 1.47676
 1.7421
 0.638404
 0.633391
 0.423549
 0.679563
 -2.13054
 -2.13996
 -1.97992
 -1.74343
 6.9677
 7.12587
 6.90119
 7.00312
 1.31986
 1.49638
 1.19145
 1.28202
 -5.70774
 -5.48922
 -5.4464
 -5.50884
 -3.17161
 -3.40571
 -3.30476
 -3.2032
 -3.17592
 -3.17187
 -3.42246
 -3.07856
 -3.02135
 -2.79537
 -2.71509
 -2.8397
 -3.29085
 -3.6789
 -3.4634
 -3.42763
 -0.70608
 -0.808492
 -0.706371
 -0.703918
 3.14087
 2.81396
 2.58774
 2.54791
 2.69162
 -1.43509
 -1.13596
 -1.2417
 -1.20481
 -1.38778
 -1.45852
 -1.10148
 -1.15829
 4.93889
 4.84944
 4.87028
 4.93965
 -4.04929
 -4.05199
 -3.92101
 -4.06666
 -2.59232
 -2.83085
 -3.1169
 -2.92034
 3.44013
 3.15224
 3.19709
 2.92559
 2.92433
 2.97288
 2.79636
 2.65522
 2.71239
 2.55723
 3.10466
 3.35031
 3.64928
 3.47199
 -1.35093
 -1.63912
 -1.55685
 -1.30856
 -5.9025
 -5.96612
 -5.84622
 -5.97942
 0.618543
 0.739275
 0.569431
 0.862869
 -4.97915
 -4.49899
 -4.33948
 -4.31779
 1.25638
 1.30638
 1.41428
 1.16848
 -1.37891
 -1.14143
 -0.981119
 -1.01821
 3.33342
 3.37247
 3.40938
 3.58642
 -0.236709
 -0.516833
 -0.125131
 -0.346754
 -0.708577
 -1.01707
 -1.1645
 -0.751045
 3.09131
 3.18283
 3.36412
 3.26752
 1.94812
 2.09064
 1.66211
 1.8202
 1.14718
 1.17859
 1.36698
 1.49558
 -0.373348
 -0.498526
 -0.393361
 -0.513689
 4.6459
 4.61275
 4.54308
 4.39059
 -1.00902
 -0.736075
 -0.899027
 -1.07199
 1.89325
 2.16263
 1.85198
 1.72118
 -1.83417
 -1.76272
 -1.82647
 -1.62342
 -4.03558
 -3.77317
 -3.99138
 -3.85357
 -5.13286
 -4.95599
 -4.93185
 -5.03136
 -4.90084
 -5.09259
 -4.58424
 -6.37028
 -6.52794
 -6.67312
 -6.77687
 -3.23019
 -2.93006
 -2.63058
 -3.00274
 0.711327
 0.766043
 0.585767
 0.623159
 -5.13396
 -4.92531
 -4.73278
 -5.07416
 0.282635
 0.256652
 0.406028
 0.443084
 -0.496901
 -0.638174
 -0.559833
 -4.64014
 -4.891
 -4.73621
 -4.70139
 -4.32897
 -4.05606
 -4.16662
 -0.188347
 -0.0815302
 -0.306395
 -0.386202
 2.02565
 1.91097
 2.05605
 1.74924
 -1.60736
 -1.40471
 -1.33199
 -1.28769
 -4.91559
 -5.12372
 -4.97565
 -4.85004
 2.77731
 2.83188
 2.72072
 2.92814
 0.825435
 0.902591
 1.07654
 1.13755
 0.448973
 0.105725
 0.47025
 0.432995
 -1.93843
 -1.67348
 -1.86829
 -1.89954
 2.83594
 2.97791
 2.67167
 2.93862
 3.58936
 3.74525
 3.57449
 3.61717
 0.542845
 0.538542
 0.578021
 0.339136
 -6.02919
 -5.84206
 -5.8122
 -5.88038
 2.52522
 2.77239
 2.49427
 2.63797
 3.42312
 3.24053
 3.4751
 3.25835
 -0.963727
 -0.611891
 -0.963859
 -0.926186
 2.62784
 2.54326
 2.67088
 3.5553
 3.38452
 3.456
 -0.46257
 -0.284068
 -0.677538
 -0.368634
 3.27545
 3.35652
 3.50905
 3.29076
 3.35024
 3.58094
 3.40032
 3.39755
 -1.04957
 -1.12906
 -0.980107
 3.11904
 3.15411
 -3.80478
 -3.85454
 -4.30064
 -4.34072
 -1.58653
 -1.98736
 -1.98094
 -1.83818
 4.67956
 4.5239
 4.81019
 4.47127
 5.83501
 5.78074
 5.97447
 5.78144
 2.54217
 2.92473
 2.69549
 2.67132
 -4.49146
 -4.48677
 -4.64169
 -4.51458
 -1.46294
 -1.27535
 -1.14885
 -1.26571
 4.12212
 4.1662
 4.17556
 4.20116
 2.62906
 2.60642
 2.49677
 2.33025
 2.52765
 2.48754
 2.5395
 3.06997
 2.91678
 2.88971
 2.89112
 2.93497
 3.08702
 2.8752
 2.82466
 3.52017
 3.7357
 3.55885
 3.70693
 -5.38336
 -5.62963
 -5.44639
 -5.43311
 -5.07173
 -5.34876
 -4.91123
 0.694561
 0.859324
 0.665089
 0.944232
 2.72138
 2.99393
 2.68284
 2.7641
 -6.4541
 -6.66691
 3.54197
 3.67567
 3.64211
 3.76211
 -0.0617988
 -0.497984
 -0.21271
 -0.405268
 -0.926946
 -0.83395
 3.27289
 3.3214
 3.11211
 3.26534
 -5.26638
 -5.46976
 -5.14642
 -5.66975
 -6.10068
 -5.87724
 -6.03334
 -6.48085
 1.18469
 1.07845
 1.16916
 4.93597
 4.78347
 4.85893
 2.95359
 2.68516
 2.97394
 2.91127
 -2.50209
 -2.234
 -2.69958
 -2.26995
 2.15977
 2.33088
 2.37216
 2.51742
 2.45587
 2.5764
 2.3689
 2.62167
 -1.4193
 -1.39306
 -1.52097
 -1.83122
 6.81281
 6.70491
 6.84008
 6.97696
 -2.12547
 -2.18818
 -2.43144
 -2.37827
 -2.3525
 -2.31451
 -2.54432
 -2.65991
 3.62651
 3.61813
 3.89317
 3.68823
 -4.28968
 -4.45004
 -4.49106
 -4.21311
 7.12417
 7.31392
 7.29542
 7.4294
 -5.20816
 -4.63084
 -4.65433
 -4.60417
 -3.44345
 -3.19883
 2.48383
 2.33831
 2.38382
 2.22225
 3.8395
 4.03342
 3.92007
 3.7672
 -4.09166
 -4.34264
 -4.28163
 -4.17786
 2.16088
 2.09715
 2.11241
 2.25584
 -6.07132
 -5.87442
 -6.01453
 2.76725
 2.9476
 3.03107
 4.08925
 3.86454
 3.81187
 -5.05474
 -5.19451
 -5.10618
 -4.9965
 2.72094
 2.84296
 2.847
 2.83969
 -4.23342
 -4.26429
 4.14519
 4.00546
 4.15762
 4.10761
 0.415655
 0.165386
 0.164325
 0.384545
 2.43114
 2.54133
 1.60976
 1.16681
 1.21942
 1.47398
 2.40003
 2.43432
 2.41319
 2.63297
 -6.05896
 -6.3718
 -5.92564
 -6.06548
 3.90263
 3.98971
 3.94653
 -3.2779
 7.0429
 7.08412
 7.07256
 7.1393
 -4.11866
 -4.1695
 -4.34431
 -3.84613
 2.43084
 2.40736
 2.04074
 2.13647
 -2.16453
 -2.02829
 -2.06658
 -2.12373
 2.45051
 2.60254
 2.69637
 2.50078
 -1.31158
 4.92073
 4.96766
 4.96895
 4.898
 -1.33149
 -1.33871
 -1.25877
 -1.0488
 -3.28295
 -3.42564
 -3.5727
 -3.06011
 -3.23461
 -2.93072
 -3.29119
 -4.20548
 -4.51371
 -4.32369
 -4.34153
 3.52164
 3.44614
 3.21185
 3.33118
 -4.09359
 -4.09289
 -4.05417
 -4.32897
 4.25353
 4.28683
 4.2447
 4.45251
 -3.79725
 -3.97121
 -4.07925
 -4.08652
 0.821864
 0.958433
 0.991514
 1.05796
 -2.04598
 -2.2215
 -2.31052
 -2.37725
 -0.166521
 -0.0407967
 0.0406049
 0.115833
 -5.31781
 -4.8927
 0.154892
 0.38022
 0.343392
 0.165244
 4.79219
 4.87304
 4.63976
 4.87126
 4.20695
 4.28745
 4.00163
 4.24646
 -0.147372
 -0.364606
 -0.398246
 -0.420284
 -2.32099
 -2.31086
 -2.25906
 -2.60879
 -2.85749
 -2.59439
 -2.76101
 -2.93396
 -4.71362
 -4.37703
 -4.48441
 -4.27129
 -2.86305
 -3.23719
 -3.03319
 -2.87078
 4.18288
 4.18582
 4.0591
 4.3117
 3.3432
 3.36194
 3.40528
 3.09642
 -6.63485
 -6.41241
 -6.3296
 -6.35194
 -0.541825
 -0.666449
 -0.603068
 -0.984303
 3.08606
 2.82711
 3.07103
 2.90573
 6.39785
 6.4271
 6.21959
 6.49803
 -4.2075
 -4.34783
 -4.06553
 -4.64988
 2.94231
 2.90114
 2.84454
 2.70269
 1.43465
 1.22453
 1.57145
 1.38316
 4.41771
 4.47844
 4.4368
 4.29428
 -1.118
 -0.974769
 -1.09642
 -1.11878
 -4.89024
 -4.90985
 -4.79885
 -4.88721
 -0.654586
 -0.286797
 -0.413095
 -0.344366
 1.1493
 1.09404
 0.861898
 0.987545
 4.62477
 4.5282
 4.43931
 4.71913
 -4.89754
 -1.71446
 -1.91832
 -1.59856
 -1.91001
 1.42421
 1.53786
 1.73649
 1.6442
 -2.41641
 -2.58542
 -2.53777
 -2.77542
 3.02595
 3.19295
 3.10792
 2.95235
 -1.03241
 -1.20865
 -0.904746
 4.7791
 4.5192
 4.71714
 4.73373
 -3.44225
 -2.90969
 -3.23637
 -3.07556
 3.85788
 3.89398
 3.7506
 3.85871
 -7.46731
 -7.35857
 -7.43746
 -7.62894
 2.93095
 2.89534
 2.86584
 2.89831
 5.95513
 5.55954
 5.59773
 5.74254
 4.84609
 4.86864
 4.70622
 4.71897
 -6.5498
 -6.3919
 -6.29287
 -6.21013
 -5.4129
 -5.39281
 -5.57187
 -5.6062
 0.691892
 0.468861
 0.559775
 0.443877
 2.68029
 2.74074
 2.60212
 -0.0290575
 -0.00097928
 0.335694
 0.212519
 -1.62408
 -1.48661
 -1.80079
 -1.80965
 -0.0992146
 -0.580435
 -0.418975
 -0.365068
 0.343981
 0.281817
 -0.131082
 0.0711956
 -6.46276
 -6.22631
 -6.24479
 -6.12932
 3.44198
 3.52671
 3.22806
 3.43763
 4.80351
 5.12021
 5.08468
 -2.30531
 -2.1233
 -2.19351
 -2.06056
 -3.92451
 -4.20138
 -4.01079
 -3.94885
 2.94276
 2.99068
 2.89975
 3.36539
 3.32636
 3.20761
 3.51008
 -4.5557
 -4.37606
 -4.65866
 -4.21318
 0.87588
 0.933055
 0.695226
 0.874971
 3.19111
 3.42311
 3.23301
 3.22925
 1.50121
 1.63318
 1.6095
 1.44637
 -3.4581
 -3.4483
 -3.19674
 -3.456
 2.96358
 2.67735
 3.09928
 2.75809
 1.24288
 1.60313
 1.51299
 1.37181
 2.36682
 2.11732
 2.30244
 -5.3236
 -5.26495
 -5.05828
 -5.08319
 0.688476
 0.664432
 0.831171
 0.558554
 -6.70946
 -6.58233
 -7.11956
 0.206207
 0.0617941
 0.125819
 0.204682
 4.54042
 4.38713
 4.63932
 4.55876
 -0.625922
 -0.686573
 -0.833171
 -1.06688
 0.415343
 0.0919454
 0.504077
 2.85875
 2.80038
 2.60904
 2.72406
 3.95345
 3.88817
 4.00943
 3.84381
 2.99521
 2.86282
 2.729
 3.01321
 6.06101
 6.0169
 5.83773
 5.81273
 1.8277
 1.88717
 1.98895
 2.00871
 2.39386
 2.49048
 2.18043
 2.53967
 -4.81732
 -4.40534
 -4.48678
 -4.97073
 3.93211
 3.66705
 3.75913
 3.81654
 -1.31361
 -1.19688
 -1.38049
 -1.48371
 -5.95637
 -6.01284
 -5.82821
 -5.68439
 -6.02645
 -5.62391
 -5.80899
 -5.92594
 -3.15178
 -3.34537
 -3.15146
 -3.25088
 -6.11293
 -6.51124
 -6.47267
 -5.91326
 -4.85074
 -4.89055
 -4.85049
 -6.77647
 -6.28948
 -6.43194
 -6.43296
 4.48228
 4.57815
 4.49361
 4.63777
 1.4584
 1.71677
 1.78156
 1.67448
 2.22874
 1.96638
 2.16799
 1.94874
 2.024
 2.1644
 2.15927
 2.22688
 -5.14639
 -4.91078
 -5.13256
 -5.20607
 1.64736
 1.63564
 1.84028
 1.91324
 2.91502
 3.16159
 3.18772
 2.9867
 -1.91589
 -1.83694
 -2.12533
 -1.74944
 2.64395
 2.43827
 2.64691
 2.48531
 -2.41923
 -2.20059
 -2.11684
 0.0223336
 -0.247329
 -0.295125
 -4.44163
 -4.11867
 -4.15921
 -4.25042
 1.48413
 1.39267
 1.56705
 1.56897
 -1.24948
 -1.01043
 -1.08991
 -1.30013
 2.10369
 2.38294
 2.25798
 2.03285
 -6.75142
 -6.59332
 -5.77995
 -5.65247
 -5.52873
 -5.88671
 4.62917
 4.69876
 4.69785
 4.81191
 -1.27272
 -1.48953
 -1.53637
 -1.73872
 2.84409
 2.59958
 2.80567
 2.94387
 7.66991
 7.92313
 7.68668
 7.76296
 2.88606
 2.98173
 3.1143
 2.9711
 -2.22463
 -1.96243
 -2.20479
 3.99351
 4.01901
 3.75811
 3.78897
 -5.78783
 -5.49863
 -5.86699
 -5.59738
 2.7995
 2.71236
 2.78527
 2.69342
 -1.03948
 -1.29476
 -1.18631
 -1.06394
 4.38836
 4.31736
 4.52032
 4.37515
 6.6067
 6.60187
 6.53594
 6.46342
 3.19954
 3.0326
 3.20566
 3.25973
 1.76143
 1.85427
 1.67894
 -0.283394
 0.106345
 -0.304103
 -0.137422
 3.55487
 3.52971
 3.73417
 -2.56952
 -2.45728
 -2.64004
 -2.82226
 -3.18849
 -3.60725
 -3.1746
 -3.5376
 -2.05347
 -1.74407
 -1.9851
 -2.03326
 -5.49522
 -4.84181
 -5.08009
 -5.16192
 -2.97969
 -2.78334
 -2.94256
 2.37126
 2.21504
 2.2496
 2.13618
 -2.62852
 -2.37338
 -1.59598
 -1.33521
 -1.24336
 -1.46992
 -2.14851
 -2.03666
 -2.08049
 -2.24922
 3.01776
 2.91177
 2.95917
 3.15444
 2.986
 2.82782
 2.98749
 2.82674
 7.67826
 7.56702
 7.53031
 7.60563
 3.02806
 2.85261
 3.02767
 2.23347
 2.32452
 2.37519
 2.30128
 0.409687
 0.412227
 0.549965
 0.602499
 2.24527
 2.02306
 2.00927
 2.16481
 4.54938
 4.43503
 4.57644
 4.57584
 -3.40952
 -3.04107
 -3.33239
 -3.12154
 0.754897
 0.576725
 0.759832
 0.927372
 -4.94934
 -4.95981
 -4.85153
 -5.02176
 -0.346935
 -0.11219
 -0.322973
 -0.169294
 -5.19263
 -5.3308
 -5.23377
 6.42333
 6.2576
 6.32143
 6.30166
 -2.0114
 -2.44081
 -2.1029
 -2.14113
 1.14858
 1.35386
 1.10423
 1.21837
 3.39206
 3.54689
 2.13426
 2.08679
 1.96824
 2.02046
 1.3369
 1.61427
 1.55472
 -4.60505
 -4.70367
 -4.44008
 -4.64092
 -4.82696
 -4.65771
 -4.42071
 -4.54512
 3.49017
 3.54195
 3.41827
 3.52251
 0.955734
 1.03163
 2.68023
 2.46042
 2.60437
 2.78467
 -2.79921
 -2.58165
 -3.03125
 -3.04307
 4.53673
 4.51554
 4.56509
 4.45616
 3.19265
 3.1178
 3.29154
 3.30505
 2.76127
 2.52906
 2.4238
 2.53863
 0.0630141
 0.0999732
 0.080956
 -0.255968
 -2.40293
 -2.35796
 -2.19212
 -2.18677
 -2.96779
 -2.74651
 -2.53888
 -2.81195
 7.09656
 7.12725
 7.1889
 7.24659
 3.93126
 3.73466
 3.66481
 -0.373419
 0.0679936
 -0.191923
 -0.635565
 -0.859767
 -0.61161
 -0.906297
 -4.94731
 -5.15445
 -4.99723
 -5.25336
 0.792864
 2.82755
 2.83111
 3.05014
 3.01095
 -1.4507
 -1.29185
 -1.06086
 -1.18156
 -3.2427
 -2.93145
 -2.96403
 -3.29802
 -3.81302
 -3.86758
 3.47301
 3.54956
 3.64856
 3.67955
 0.310356
 0.105463
 0.185672
 0.0723273
 4.0731
 4.12613
 4.07018
 4.00037
 -0.772607
 1.78721
 1.93632
 1.58245
 1.4963
 2.27673
 2.12385
 2.03252
 2.17287
 -5.00317
 -4.67032
 -5.52909
 -5.76151
 -5.87342
 -5.65285
 5.49379
 5.63871
 5.55676
 5.48942
 -2.91801
 -2.96957
 -2.63081
 -3.08815
 -0.6957
 -0.366253
 -0.48527
 -0.765534
 6.81821
 6.76682
 6.76621
 6.88409
 0.465912
 0.455065
 0.33423
 0.587009
 0.654838
 0.92841
 1.07764
 1.05662
 3.44947
 3.6535
 3.38819
 3.4744
 -6.43945
 -6.69467
 -6.71756
 -6.73808
 0.910938
 1.1593
 1.12899
 2.43676
 2.21443
 2.21398
 2.41341
 -5.8077
 -6.2187
 -5.92104
 -5.97918
 2.48629
 2.61004
 2.79191
 2.41638
 1.22213
 1.05322
 -3.61294
 -3.63552
 -3.86461
 -3.38321
 -0.306021
 -0.332726
 -0.640556
 -0.61887
 -5.54573
 -5.35937
 -5.65365
 -5.51877
 1.03451
 0.657918
 3.09622
 3.01212
 2.96257
 2.98129
 2.5493
 2.51292
 2.36338
 2.28701
 -3.93734
 -3.95766
 -3.60699
 -3.72616
 -3.05186
 -2.93451
 -3.14671
 -3.1588
 -2.7617
 -2.4286
 -2.7344
 -2.64931
 2.47652
 2.19978
 2.31473
 2.46138
 5.56079
 5.67629
 5.61521
 5.55724
 -6.12399
 -6.41474
 -6.13326
 -6.26778
 3.62493
 3.60514
 3.57697
 3.4584
 -0.112722
 -0.292091
 -0.363414
 -0.144502
 1.98467
 1.6282
 1.87594
 1.748
 -0.0858828
 0.210634
 -0.0416585
 -1.19207
 -1.51182
 -1.20133
 -1.56474
 0.583214
 0.398491
 0.53426
 0.724313
 -2.18143
 -2.29503
 -2.52394
 -2.12201
 -2.183
 -2.08528
 -2.20722
 -1.76315
 6.80167
 6.55022
 6.78533
 4.33215
 4.12846
 4.03435
 4.11464
 -0.118935
 0.0600135
 -0.0144852
 0.00301373
 -3.58943
 -3.88243
 -3.71351
 -3.91206
 2.83145
 3.09179
 2.83475
 2.68455
 2.56073
 2.5445
 -0.781417
 -0.650263
 -0.835403
 -0.838586
 0.0304872
 -0.196268
 -0.287225
 -0.31907
 -7.83826
 -7.78917
 -7.65227
 -7.91746
 4.82652
 4.75985
 4.88618
 5.11943
 -2.52354
 -2.63355
 1.71814
 1.47483
 1.45399
 1.68689
 -1.92606
 -2.1006
 -2.07084
 -2.14099
 -0.545976
 -0.607346
 -0.783764
 -0.673502
 1.45381
 1.44736
 1.23082
 1.61357
 -1.54144
 -1.78928
 -1.70314
 -1.75787
 3.47918
 3.39381
 3.41343
 3.25921
 4.06727
 4.22262
 4.04153
 4.13107
 -3.45185
 -3.56711
 -3.80516
 -4.19643
 -0.00955596
 -0.1519
 -0.345136
 5.85293
 5.93167
 5.78857
 -4.02347
 -4.22073
 -4.25667
 -4.34509
 -4.48656
 -4.40075
 -4.24439
 -4.20477
 0.462898
 0.400568
 0.326591
 0.21929
 -4.96429
 -5.14491
 -5.09612
 -5.10445
 -5.62576
 -5.95384
 -5.68242
 -6.01616
 1.38151
 1.26881
 1.08552
 1.32234
 -3.17109
 -3.30851
 -3.42839
 -3.39932
 -7.63878
 -7.69663
 -7.48486
 -7.76369
 -2.81885
 -2.82132
 -2.66468
 -3.06005
 -0.23745
 0.10085
 -0.0427
 0.206028
 -3.85783
 -3.98004
 -3.76931
 -3.69051
 -1.99756
 -1.92551
 -2.13524
 -1.00681
 -1.2367
 5.21237
 5.17354
 5.25541
 5.31621
 -0.89088
 -1.15671
 -1.07638
 -1.04772
 5.41959
 5.37224
 5.34098
 5.32796
 5.23758
 5.28385
 5.07353
 5.03361
 -0.457788
 -0.590829
 -0.605701
 -0.382867
 1.76967
 1.76893
 1.96675
 1.68147
 -1.36701
 -1.65713
 -1.57722
 -1.54899
 0.273731
 0.460103
 4.35468
 4.45744
 4.40878
 4.24733
 -5.93978
 -6.05786
 -6.19234
 -6.00757
 1.62857
 1.78265
 1.42077
 1.5822
 -4.01951
 -3.90634
 -3.68977
 -3.88816
 4.30687
 4.45574
 4.30723
 4.3916
 -4.62638
 -5.0587
 -4.93505
 -4.99068
 -0.954836
 -0.615014
 -0.889941
 -0.859712
 2.72529
 2.94949
 3.11165
 2.98552
 -7.29612
 -7.18865
 -7.20927
 -7.04455
 2.31234
 2.05999
 2.26024
 2.31266
 1.31156
 1.63052
 1.40036
 1.56327
 -6.10466
 -6.15883
 -5.90202
 -6.20449
 0.470094
 0.818404
 0.702428
 0.708453
 -3.91
 -4.11283
 -3.96668
 -3.88402
 -3.72204
 -3.50812
 -3.59398
 1.18644
 1.57487
 1.41711
 1.46046
 -3.65484
 -3.89221
 -3.71859
 -3.81796
 3.64181
 3.42067
 3.45087
 3.64312
 -4.41781
 -4.59616
 -4.57969
 -4.4646
 -4.27607
 -4.17055
 -4.32444
 -4.21977
 3.25176
 3.30154
 2.92711
 3.12608
 3.09536
 3.16843
 2.96489
 3.25851
 8.29479
 8.25324
 8.37947
 8.3441
 -2.87118
 -2.55271
 -2.58761
 5.13142
 4.88218
 4.86597
 4.99098
 -5.57008
 -5.30922
 -5.37648
 -5.40519
 3.31995
 -4.01882
 -3.71063
 -3.77321
 -3.99261
 -4.0407
 -3.76214
 -3.80508
 7.09283
 7.2662
 7.21103
 7.1296
 7.35416
 7.33629
 7.37683
 7.42544
 -5.41461
 -5.14279
 -5.36631
 -5.56336
 3.07015
 3.16281
 2.96614
 3.20225
 -1.8905
 -1.76638
 -2.06015
 2.08335
 2.27551
 2.0981
 2.39625
 1.19248
 1.17973
 1.26227
 -3.99976
 -3.89793
 -4.30215
 -0.683925
 -0.873567
 -0.897228
 -0.709186
 1.99549
 2.23129
 2.23521
 2.06332
 3.29254
 3.2173
 3.32714
 3.23919
 -1.89257
 -2.07686
 -2.10203
 4.3922
 4.29085
 4.57837
 4.58578
 3.12179
 2.74795
 3.01692
 1.3839
 1.00392
 1.09143
 1.22962
 3.38567
 3.1822
 3.18889
 3.263
 3.21466
 2.95212
 2.90134
 2.9696
 -4.20155
 -3.98629
 -4.02643
 -3.97209
 0.914228
 1.12345
 0.983519
 0.843457
 2.40069
 2.42651
 -0.220213
 -0.0490974
 -0.160393
 0.0887076
 -5.07808
 -5.41762
 -5.51369
 -5.45033
 -5.4086
 8.48368
 8.52566
 8.541
 8.48441
 -3.29799
 -3.60042
 -3.41444
 -6.50539
 -6.45447
 -6.28693
 -6.45681
 -2.66565
 -2.28561
 -2.38369
 -2.30628
 3.35613
 3.27743
 3.16518
 3.3651
 1.12595
 1.30195
 1.35056
 1.37229
 -6.73808
 -6.74398
 -6.67005
 -6.60731
 -2.8864
 -2.67073
 -2.50149
 -2.71221
 4.51406
 4.6797
 4.69229
 4.42533
 1.46717
 1.42829
 1.37156
 1.74102
 1.79905
 1.6862
 1.56585
 1.76077
 8.50416
 8.52723
 8.5271
 8.49351
 3.65853
 3.7037
 3.76314
 3.58084
 -2.87166
 -3.22634
 -2.87262
 -3.04257
 -0.892458
 -0.867604
 -1.12286
 -0.788028
 0.808029
 0.661223
 0.45391
 0.713046
 -2.20972
 -2.50047
 -2.40635
 -2.40106
 -0.992246
 -1.01226
 -1.2323
 -0.979195
 -2.3877
 -2.37271
 -2.1762
 -2.69076
 -7.3607
 -6.91834
 -7.0384
 -7.46733
 -3.32737
 -3.16533
 -3.10553
 -2.72962
 -2.22003
 -2.029
 -1.86876
 -2.16363
 -1.79597
 -0.148215
 -0.132624
 0.0301507
 -0.389261
 -5.52026
 -5.41854
 -5.35003
 -5.35488
 0.98342
 1.1328
 0.899637
 0.988208
 -0.685619
 -0.80366
 -0.94048
 -0.525335
 0.245056
 0.511974
 0.323023
 0.109682
 1.9283
 2.25306
 2.00475
 2.21024
 6.25145
 6.16606
 5.94768
 6.25472
 -7.68706
 -7.27585
 -1.52113
 -1.35911
 -1.34233
 7.91494
 7.90888
 7.91784
 2.77669
 2.93568
 2.83323
 3.01265
 5.22054
 5.18437
 5.45093
 5.46831
 3.73658
 3.84061
 3.68996
 3.9661
 -5.74385
 -5.3278
 -5.5266
 -5.54649
 -0.12058
 0.179472
 0.0688405
 0.217394
 -1.95329
 -2.26791
 -2.23469
 -2.49313
 -0.930297
 -0.889351
 -0.677858
 -0.542161
 -2.40714
 -2.50052
 -2.28439
 -2.34376
 0.698225
 0.697931
 -3.92244
 -3.29124
 -3.88698
 -3.35416
 -2.58471
 -2.40174
 -2.26799
 -2.77026
 2.8452
 3.09451
 2.81094
 3.05501
 2.85983
 2.79256
 2.79923
 2.77572
 -0.507196
 -0.531521
 -0.433407
 -0.619169
 -0.311694
 -0.448607
 -0.620819
 -0.800255
 3.79776
 4.06414
 4.13453
 3.74268
 -2.33374
 -2.1453
 -2.05095
 -2.00969
 -7.05913
 -6.89829
 -7.01329
 -6.93516
 -4.19135
 -4.03183
 -4.06692
 -3.93884
 -7.37592
 -7.51048
 -7.27129
 -7.56662
 -4.58303
 -4.86733
 -4.78587
 -4.80648
 -0.00100574
 -0.322799
 -0.032351
 -0.108154
 -1.99308
 -1.79843
 0.568623
 0.259467
 0.643497
 0.467969
 2.93891
 2.743
 2.76374
 2.68639
 -3.10963
 -3.46337
 -3.48138
 -3.19728
 0.666193
 0.735909
 0.656346
 0.931546
 1.34249
 1.52948
 1.59283
 1.48677
 3.28599
 3.27748
 3.17361
 3.00248
 2.46781
 2.51039
 2.60932
 2.27813
 3.08303
 2.95623
 2.90751
 3.01402
 6.07961
 6.0445
 6.16469
 6.12969
 -2.86436
 -2.96332
 -2.6534
 -2.89606
 -1.72299
 -1.80331
 5.68549
 5.61145
 5.63463
 5.82799
 2.14943
 2.073
 -1.45397
 -1.2475
 -1.4933
 -4.01614
 -4.06831
 3.67588
 3.70854
 3.80306
 3.56646
 5.86253
 5.74933
 5.76181
 5.71115
 4.00877
 3.89634
 3.77338
 3.72766
 2.1828
 2.04367
 1.98193
 1.93179
 -1.01649
 -0.6887
 -0.680798
 -0.708273
 -1.94038
 -1.82287
 -1.78773
 -1.73465
 2.29446
 2.07082
 2.05683
 2.12042
 -0.635251
 -0.601883
 -0.724364
 -0.34166
 0.0811563
 0.261188
 0.315772
 0.183943
 -0.224952
 -0.411776
 -0.540187
 -0.405175
 -0.437115
 -0.0757629
 -0.461942
 0.580806
 0.766176
 0.377951
 0.542177
 1.72884
 1.62882
 1.87613
 1.77666
 3.09957
 2.9247
 3.20764
 2.93744
 -5.48972
 -5.40008
 -5.57724
 -5.75314
 0.930017
 0.936224
 0.696016
 0.702911
 4.0918
 4.10038
 4.37518
 4.15714
 4.50559
 4.49761
 4.54365
 4.61304
 3.95522
 4.08332
 4.07475
 3.98965
 3.15367
 3.17482
 2.92796
 2.8839
 3.1374
 3.2718
 3.32864
 3.23895
 -4.97764
 -5.15093
 -5.13997
 -5.19487
 1.23284
 1.23857
 1.28924
 1.04988
 -2.59129
 -2.78038
 -2.56835
 -2.46841
 3.05072
 2.79046
 3.11103
 2.90868
 -5.75859
 -5.87514
 -5.85152
 -6.14893
 -6.23913
 -6.19442
 -6.46169
 -2.45054
 -1.9097
 -2.09397
 -2.11281
 2.71357
 2.61353
 2.84498
 2.66422
 -6.93407
 -6.57003
 -6.65117
 1.5257
 1.71425
 1.59158
 1.89049
 -4.53813
 -4.58435
 -3.9569
 -4.05636
 -4.31114
 -3.98159
 1.91539
 2.06375
 1.97324
 4.24657
 4.16948
 4.4013
 4.32054
 3.01824
 3.14968
 2.9419
 2.92233
 0.167631
 -0.114858
 0.23285
 -6.06573
 -5.54537
 -5.59207
 -2.44684
 -2.14047
 -2.02965
 -2.20401
 -6.09554
 -6.03957
 -5.66208
 -6.36335
 1.33292
 1.07469
 0.952423
 1.11905
 -4.71204
 -4.79029
 -4.94027
 -4.49413
 -0.00976052
 -0.0701296
 0.113311
 0.227095
 2.50347
 2.71237
 2.59926
 -6.71121
 -6.45422
 -6.59548
 -6.99229
 -1.67281
 -0.747524
 -1.06134
 -0.970538
 -0.815406
 -1.19661
 -1.21962
 -1.01583
 2.63735
 2.76067
 2.75493
 2.76419
 2.7713
 2.49975
 1.17106
 1.4191
 1.4397
 1.49502
 1.26674
 0.978747
 1.20382
 1.03637
 -2.24818
 -6.98894
 -6.57591
 -6.48853
 -6.75828
 6.70098
 6.88497
 6.77118
 6.78806
 2.1504
 2.29897
 2.66795
 2.74267
 2.64298
 2.5897
 2.79345
 2.7672
 3.05279
 2.94573
 -2.65079
 -2.31636
 -2.3623
 -2.53287
 -2.89851
 -3.05465
 -2.71536
 -2.94005
 2.29949
 2.48548
 -1.96837
 -1.98509
 -2.34127
 -2.10753
 -2.12402
 -2.42245
 -2.14205
 -0.586402
 -0.401914
 -0.260928
 -0.172081
 0.910017
 1.13973
 0.935973
 1.14927
 -2.705
 -3.08027
 -3.0381
 -2.75236
 -3.65555
 -3.76481
 -3.9325
 -3.67391
 -3.20824
 -3.51583
 -3.27874
 -2.87257
 -2.97682
 -2.89979
 -2.65794
 1.23601
 1.16532
 1.14125
 1.3307
 5.08118
 5.11453
 5.00076
 4.98217
 1.85005
 1.88365
 1.99984
 1.94159
 -3.6568
 -3.36918
 -3.1742
 -3.44494
 -1.91888
 -1.82527
 -1.79795
 -2.05965
 1.77253
 1.63798
 1.56137
 1.52755
 -1.87579
 -1.59004
 -1.76523
 -1.85822
 -0.389781
 -0.482064
 -0.0907542
 -0.478651
 -0.387425
 -0.645737
 -0.549959
 -0.630433
 -1.73228
 -1.89996
 -1.88933
 -5.30704
 -5.38638
 -5.23424
 -5.29494
 1.934
 1.70337
 1.8134
 1.77935
 0.537125
 0.279474
 0.318146
 0.383983
 4.8546
 4.97648
 4.95754
 4.78157
 3.25441
 3.08861
 3.11712
 3.22341
 2.96939
 3.31129
 3.15622
 3.35483
 3.38129
 3.26317
 3.29156
 3.21068
 -0.313407
 -0.162616
 -0.22336
 4.15322
 4.19245
 4.10047
 4.06486
 3.62398
 3.54255
 3.38675
 3.59564
 -6.72669
 -6.45313
 -6.42807
 -6.61292
 -0.448425
 -0.294223
 -0.181165
 -0.0773193
 -3.67585
 -3.70806
 -3.57048
 -3.41543
 -0.943922
 -1.06766
 -0.887985
 -0.721579
 -1.65448
 -1.87413
 -1.66511
 -1.73667
 2.65296
 2.84205
 2.74472
 3.00771
 0.321241
 -0.156907
 0.209356
 0.165684
 -3.76919
 -3.95797
 -3.72695
 -3.81528
 -1.10132
 -0.999461
 -1.35389
 -1.28003
 3.46027
 3.55787
 3.32541
 3.25495
 -5.30347
 -5.40486
 -5.35255
 -5.44631
 1.63297
 1.84512
 3.65516
 0.319133
 0.199168
 0.0324357
 0.380025
 0.977629
 0.757807
 1.02445
 1.07166
 5.68187
 5.71367
 5.52088
 2.0086
 2.22148
 2.27428
 2.40342
 -1.01789
 -1.45405
 -1.27583
 -1.50374
 0.0280922
 -0.178717
 -0.0547917
 0.0286103
 -4.95121
 -5.08039
 -5.10741
 -5.02452
 3.1738
 2.83158
 3.06886
 2.76345
 2.77441
 2.83934
 2.55165
 5.30076
 5.56357
 5.4303
 5.31003
 3.26821
 3.02163
 3.18907
 -0.866869
 -1.40008
 -0.950584
 3.40814
 3.4306
 3.60316
 3.51857
 0.91678
 0.687292
 0.628176
 0.655049
 8.48131
 8.48615
 8.48035
 8.38493
 1.24601
 1.3356
 1.31785
 4.12348
 4.15876
 4.12453
 4.12141
 1.23552
 1.35199
 1.5604
 1.36444
 3.53874
 3.35285
 3.36456
 3.27963
 -2.17687
 -2.29179
 -2.11801
 -2.3634
 -2.90962
 -2.68509
 -2.88802
 -3.0062
 -6.23946
 -6.23332
 -6.3737
 -6.04704
 -0.606503
 -0.274267
 -0.544082
 -0.635767
 3.6406
 3.8502
 3.65998
 3.77809
 2.47446
 2.56688
 4.86821
 4.86768
 4.80084
 4.80679
 0.713219
 0.615678
 1.98654
 1.63338
 1.70489
 2.9389
 2.81042
 2.70624
 2.83182
 -5.61326
 -5.72278
 -5.31625
 -5.37399
 -5.19867
 -5.11336
 -4.99363
 -5.14507
 2.67752
 2.58562
 2.7152
 2.91263
 4.15478
 4.10034
 -0.939823
 -1.02439
 -0.946917
 -1.20897
 2.88445
 2.97839
 2.79507
 2.82216
 1.62792
 1.91527
 1.41932
 -7.58266
 -7.68511
 -7.43466
 0.120134
 -0.210856
 -0.0774138
 -0.0950909
 -4.44868
 -4.80506
 -4.3894
 -4.23869
 -0.310186
 -0.555071
 -0.608204
 -0.290167
 -2.65481
 -2.88279
 -2.93166
 -2.50732
 3.71217
 3.52905
 3.68512
 3.76722
 2.91658
 2.64076
 3.0001
 2.72037
 -0.39307
 -0.13083
 -0.6179
 -0.291175
 1.87157
 1.61347
 1.54344
 1.89651
 3.70493
 3.62437
 3.55021
 3.35369
 0.879432
 0.76196
 0.611242
 0.485878
 -1.74034
 -1.7918
 -1.60892
 -0.178531
 -0.442707
 -0.261052
 -0.414893
 7.66815
 7.50452
 7.42028
 7.52767
 4.15016
 4.15164
 4.11597
 4.1364
 2.02464
 2.04472
 2.03985
 1.81521
 5.84921
 5.6904
 5.93772
 5.78211
 -4.53225
 -4.49945
 -4.27168
 -6.54576
 -6.3394
 -6.09007
 -6.31003
 -3.13798
 -3.63486
 -3.43726
 -3.43922
 -0.0852872
 -1.67721
 -2.00001
 -2.11381
 -1.87383
 0.317462
 0.127531
 0.438896
 0.430989
 3.86484
 4.07369
 3.9555
 2.76732
 2.70422
 2.64158
 2.9463
 7.60855
 7.77533
 7.62987
 7.84187
 5.49061
 5.50472
 5.42267
 5.48052
 2.14987
 2.15493
 2.0062
 1.86673
 -6.81443
 -6.41389
 -6.54029
 -6.50375
 7.18823
 7.17999
 7.02005
 7.07081
 -2.31817
 -2.56979
 -2.13202
 -2.41978
 -0.152885
 -0.169129
 -0.419612
 -0.195443
 2.62147
 2.99327
 2.98844
 0.630818
 0.897594
 0.947653
 0.935683
 -6.38163
 -6.4473
 -6.53323
 3.71477
 3.38813
 3.33853
 1.19728
 1.09394
 0.82565
 0.879868
 2.16895
 2.22957
 2.288
 2.3469
 1.9403
 1.98609
 1.72272
 1.66853
 4.11679
 4.24054
 4.238
 4.02129
 0.687094
 0.51659
 0.767347
 0.491089
 -5.78053
 -5.31112
 -5.33055
 -5.0961
 -4.85206
 -4.75065
 -4.71034
 -5.00296
 4.46608
 4.44643
 4.40956
 4.46939
 -4.22779
 -4.33426
 -4.30018
 -3.97873
 -5.41311
 -5.7966
 -5.67847
 -5.31186
 -4.18487
 -4.17686
 -3.83469
 -3.87562
 -1.4962
 -1.42675
 -1.65019
 -1.53186
 0.210984
 0.396976
 0.117166
 2.14043
 2.48399
 2.37401
 2.31174
 -2.90243
 -2.71255
 -2.52548
 -2.89392
 -3.13035
 -3.23355
 -3.38957
 -3.2976
 -7.72802
 -7.73256
 -7.32737
 -7.57282
 5.60907
 5.48173
 5.52037
 5.49157
 4.80901
 4.89406
 4.85185
 4.72357
 4.03248
 4.06274
 3.80004
 4.07399
 1.95142
 2.26124
 2.04704
 2.05965
 1.63856
 1.61241
 1.62488
 -5.57157
 -5.78597
 -6.07957
 -5.8998
 -3.42645
 -3.30972
 -3.15367
 -3.13436
 0.648338
 0.825694
 0.899142
 0.753117
 -5.01753
 -5.21122
 -0.827438
 -0.841352
 -0.834902
 -0.586098
 -4.76643
 -4.90453
 -5.23898
 -4.94674
 -0.411678
 -0.750353
 -0.339489
 -0.790631
 2.2017
 2.04886
 2.37866
 2.24746
 4.74513
 4.88777
 4.76663
 4.61276
 7.77067
 7.61612
 7.84064
 7.69714
 -4.39134
 -4.26496
 -4.22065
 -4.44404
 -5.25904
 -5.2852
 -5.32128
 -5.51598
 1.23462
 1.52619
 1.3366
 1.4789
 0.0557919
 0.194203
 0.232695
 0.040346
 3.06343
 3.2688
 2.91936
 -1.24148
 -1.03797
 -1.05971
 -0.941983
 3.11889
 3.16538
 3.01865
 3.01341
 0.441756
 0.685927
 0.882894
 0.729143
 -1.66417
 -1.51652
 -1.60267
 -1.69593
 -0.211779
 -0.12495
 -0.0434872
 -4.32516
 -4.03423
 -4.14132
 -4.13515
 -1.34129
 -1.67269
 5.99672
 5.72903
 6.0336
 5.90662
 -2.82561
 -2.64736
 -2.77279
 2.60083
 2.53333
 2.52749
 2.60387
 -1.20681
 -1.17617
 -1.08322
 0.304376
 0.54792
 0.272435
 0.445359
 -1.18889
 -0.877788
 -1.33937
 -1.08589
 -1.43714
 -1.74656
 6.96412
 6.95945
 7.08066
 6.96462
 7.49374
 7.67193
 7.75457
 7.58274
 0.0711212
 0.380797
 0.259463
 0.388836
 -1.01767
 -0.85399
 -0.999123
 -0.789891
 6.8435
 6.87469
 6.83582
 6.69941
 2.75666
 2.99923
 4.15955
 4.11456
 4.05108
 3.87437
 -1.4888
 -1.3956
 -1.76092
 -1.55013
 -0.818803
 -0.892261
 -1.13771
 -0.705507
 -1.28239
 -0.98315
 -0.917602
 -0.98254
 2.18747
 2.16903
 1.96367
 2.19004
 3.51857
 3.57842
 3.76159
 3.49802
 5.15257
 4.9406
 4.96312
 5.14435
 3.47204
 3.47511
 3.46793
 3.14068
 -2.87057
 -2.67679
 -2.95871
 -2.80187
 0.0759661
 0.659979
 0.366627
 5.77372
 5.6712
 5.52732
 -1.95844
 -2.38924
 -2.15975
 -2.15306
 -2.26965
 -1.77452
 -2.02088
 -2.12783
 1.17634
 1.33771
 1.42524
 0.844848
 0.75442
 0.52941
 0.746763
 3.61404
 3.73772
 3.78457
 3.78227
 -3.8243
 -3.7185
 -3.94234
 -3.83412
 4.02943
 4.07193
 4.06047
 3.98501
 4.15022
 4.26446
 4.1555
 -6.52248
 -6.91656
 -7.08254
 -6.79964
 -4.01652
 -4.21772
 2.53412
 2.63328
 2.41633
 2.47943
 0.302853
 0.0240135
 0.292822
 0.808203
 0.931136
 0.873438
 1.10172
 3.69304
 3.51649
 3.617
 -3.54355
 -3.73442
 -3.31575
 -3.44496
 3.67497
 3.38878
 3.59288
 3.6397
 -2.38434
 -2.13736
 -2.01132
 -2.11675
 3.95343
 3.85689
 3.44278
 3.67334
 3.5007
 3.59492
 2.67577
 2.79046
 2.73091
 2.66611
 5.45558
 5.52942
 5.70599
 5.56307
 -2.97013
 -3.26702
 2.00281
 1.85995
 1.82881
 1.85256
 -6.2802
 -6.15801
 -6.22909
 -6.36806
 2.1127
 2.2516
 1.96933
 1.78759
 -3.46528
 -3.76708
 -3.85289
 -3.85552
 -5.13746
 -5.47532
 -4.94524
 -5.38102
 -2.3493
 -2.04469
 -5.41789
 -5.68702
 -5.59805
 -5.48975
 3.66717
 3.69635
 3.71509
 3.50759
 -5.38332
 -5.47532
 -5.50384
 -5.36429
 -6.67454
 -7.01505
 -6.94259
 -6.71576
 -0.913985
 -0.926206
 -1.18096
 -1.0982
 0.631607
 0.737669
 0.455527
 0.326155
 -4.82865
 -4.45455
 -4.69223
 -4.83803
 5.78587
 5.58322
 5.71225
 5.83202
 -4.65507
 -5.0504
 1.97647
 1.81764
 1.78624
 1.56468
 -4.46799
 -4.31727
 -4.05796
 -4.09068
 3.56969
 3.36704
 3.40271
 3.41521
 1.4995
 1.84766
 1.72299
 1.54585
 3.15755
 3.22148
 2.95013
 3.59739
 3.70871
 3.58591
 3.77933
 4.03934
 3.87055
 3.92262
 3.83785
 -1.01986
 -0.835792
 -0.751475
 -4.16232
 -4.19109
 -4.44935
 -4.42597
 -0.282747
 -0.14012
 -0.0318036
 3.56672
 3.72013
 3.60378
 0.240699
 -0.129902
 0.192796
 -0.031745
 -1.2758
 -1.22575
 -1.29481
 -1.61648
 0.985594
 0.70733
 0.66727
 0.77034
 1.29572
 1.41228
 1.48522
 1.64909
 1.78888
 1.82644
 1.42257
 1.28864
 1.14047
 1.53974
 -4.27923
 -4.17282
 -4.27867
 -4.03435
 -2.14507
 -1.95605
 -2.12549
 -2.23836
 0.788424
 0.718469
 0.847471
 0.478371
 3.658
 3.80896
 3.68592
 -0.335258
 -0.16867
 -0.326197
 -0.376689
 2.41458
 2.70539
 2.58914
 2.72468
 6.46487
 6.40125
 6.49839
 6.55262
 1.65849
 1.78661
 1.71143
 1.73254
 -4.61412
 -4.54049
 -4.83978
 -4.72715
 1.77159
 1.49069
 1.64882
 1.78967
 3.89888
 3.90967
 3.82869
 3.75465
 3.62292
 3.74855
 3.74186
 0.778503
 0.732968
 0.803521
 -1.46706
 1.85627
 2.22266
 2.00783
 2.01559
 -5.12188
 -5.04895
 -5.23714
 -4.60142
 -4.66677
 -4.79428
 1.87445
 1.63888
 1.8174
 1.67535
 -6.7282
 -6.85678
 -6.94405
 -6.96807
 3.4732
 -0.755225
 -0.51135
 -0.701132
 -0.617261
 3.36144
 3.2728
 3.30413
 3.26201
 -4.99992
 -5.17992
 -4.76365
 -5.00443
 -1.83086
 -2.23757
 -2.0808
 -1.91783
 -3.15368
 -3.32768
 -2.97112
 -3.05017
 4.02752
 3.96534
 3.88206
 4.02964
 2.38725
 2.18982
 2.40311
 2.3907
 -0.333704
 -0.17004
 -0.390475
 -0.121953
 2.09189
 2.34066
 2.00112
 2.24241
 -1.63829
 -1.75655
 -2.01909
 -1.9536
 3.33955
 3.42173
 3.20691
 3.22142
 2.50802
 2.40382
 2.20765
 2.32667
 -0.866902
 -0.8964
 -0.857465
 -1.18216
 -5.21609
 -5.54734
 -5.3587
 -5.57563
 4.04943
 3.99304
 3.82865
 3.89163
 5.33864
 5.57133
 5.32749
 5.35289
 -5.20602
 -5.48077
 -5.35313
 -5.41349
 5.24982
 5.42279
 5.03354
 5.12398
 5.16469
 4.97455
 0.254343
 0.123926
 0.351177
 0.508382
 2.41451
 2.27409
 2.27931
 2.49811
 -7.57434
 -7.67245
 -7.6535
 -7.47873
 -4.94512
 -4.91422
 -5.28075
 -1.78482
 -1.7574
 -1.99964
 -1.67211
 3.66527
 3.60964
 3.81737
 3.54294
 2.57468
 2.61707
 2.69208
 2.77612
 2.63178
 2.47867
 -1.82424
 -2.27809
 -2.13138
 -1.93938
 -1.33957
 -1.33996
 -1.10137
 -1.40519
 -2.19512
 -2.15993
 -1.8901
 -2.18398
 -6.4859
 -6.53129
 -6.01526
 -6.65919
 -2.78891
 -2.79371
 -2.51353
 1.56689
 -0.218628
 -0.146561
 -0.221738
 -0.0235657
 -0.335127
 -0.0422101
 -0.133109
 -0.226415
 -3.87388
 -3.74027
 -3.71362
 -3.55622
 -2.78786
 -2.6061
 -2.62532
 -2.88651
 -0.982072
 -0.747599
 -0.733049
 1.98601
 2.1479
 1.93314
 2.27237
 -0.123669
 -0.5455
 -0.295935
 -0.342585
 1.7534
 1.60108
 1.87229
 7.11957
 7.12477
 7.2314
 7.04537
 -4.10666
 -4.59012
 -4.38961
 -4.1871
 -3.77468
 -4.27768
 -4.00615
 6.97189
 -0.426051
 -0.48606
 -0.389809
 -0.717817
 -0.911171
 -0.961952
 4.91424
 4.87346
 4.89696
 4.82986
 3.96523
 3.89582
 3.69201
 3.97944
 2.82591
 2.70512
 2.75676
 2.95463
 3.18321
 3.07584
 2.94777
 3.18656
 3.21071
 3.03062
 1.48224
 1.66838
 1.74059
 1.75177
 1.26445
 1.01659
 -7.86305
 -7.87503
 3.55721
 3.23055
 3.58354
 3.37311
 0.8242
 0.902616
 0.726489
 1.00848
 4.16082
 4.09842
 4.42222
 4.33002
 -4.40198
 -4.58571
 -4.12182
 -4.31216
 -3.71202
 -3.46961
 -3.69542
 -3.44668
 -1.58532
 -1.78659
 -1.82558
 -1.68538
 -0.258551
 -0.352479
 -0.721724
 -0.56379
 0.0785155
 0.21333
 3.61317
 -2.47847
 -2.7724
 -2.72011
 -2.7761
 -6.28864
 -6.2113
 -6.63885
 -6.13621
 -3.95921
 -4.28807
 -3.89067
 -4.02642
 8.47027
 8.47287
 8.44847
 8.4006
 -6.13429
 -6.19503
 -6.08193
 -6.09354
 2.92727
 2.92239
 3.13254
 2.80775
 1.97725
 2.23525
 2.13346
 2.31937
 -2.10041
 -2.13575
 -2.28387
 -2.34368
 -2.13354
 -2.05345
 -1.91672
 -1.98835
 3.63555
 3.30645
 3.47626
 3.39442
 -5.75086
 -5.86095
 -5.71523
 -5.76256
 -4.50176
 -4.66175
 -4.5851
 -4.76047
 -2.49979
 -2.54909
 -2.75338
 -2.76051
 -4.81714
 -4.5935
 -4.71448
 -4.81246
 2.44211
 2.21013
 2.20952
 2.12544
 3.61074
 3.56834
 3.5031
 3.44616
 -4.17891
 -3.96854
 -3.86175
 -3.93312
 1.02941
 1.0748
 1.15083
 1.36272
 0.681936
 0.801689
 0.854567
 0.70295
 7.51516
 7.42199
 7.35252
 7.41208
 -5.92163
 -5.98675
 -5.0217
 -5.07226
 -4.82252
 -5.23869
 4.45133
 4.63742
 4.69957
 4.40966
 2.3444
 2.63987
 2.64804
 2.75255
 -4.58956
 -4.39719
 -4.74355
 -4.78974
 1.44308
 1.36636
 1.5052
 1.24954
 1.75256
 1.67744
 1.9481
 1.92827
 -6.33342
 -6.41014
 -6.25196
 -6.19926
 -0.210996
 -0.134639
 -0.218006
 -0.325731
 0.39761
 0.313964
 0.376678
 0.555963
 -3.2007
 -3.33745
 -3.42352
 -3.2413
 -1.68806
 -1.59644
 -1.51511
 -1.35435
 1.32729
 1.29414
 1.59984
 2.33531
 2.14599
 2.26959
 1.93487
 4.90487
 4.98685
 5.01544
 4.72513
 1.98448
 1.84301
 1.79671
 1.75318
 0.0599991
 0.213619
 0.0929293
 0.279575
 -6.45755
 -6.56024
 -6.52406
 -6.16508
 1.9548
 1.54051
 1.76126
 1.77079
 4.30784
 4.31086
 4.46062
 4.57843
 -2.35228
 -2.62349
 -2.49158
 -2.28727
 -1.19274
 -1.14234
 -1.00953
 -0.0781189
 -0.421897
 -0.478204
 -0.565741
 5.08402
 5.08935
 5.07792
 4.9325
 -0.474341
 -0.234193
 -0.329298
 -0.141277
 -5.58075
 -5.61227
 -5.59911
 -5.64937
 -0.204568
 -0.197024
 -0.274815
 -0.360325
 4.10601
 4.22712
 4.15086
 4.08187
 3.30476
 3.15097
 3.32026
 3.49766
 -8.0093
 -7.9144
 -8.02382
 -8.03073
 2.47373
 2.42147
 2.45713
 2.75468
 -1.10744
 -0.7007
 -0.812253
 -0.925346
 -7.72125
 -7.75209
 -7.56098
 -7.54594
 -5.09998
 -5.49942
 -5.27689
 -2.38616
 -2.35829
 -2.68754
 -2.78107
 -4.41783
 -4.46188
 -4.81903
 -4.31662
 6.60402
 6.48342
 6.36886
 6.41178
 3.13405
 2.90461
 3.22961
 -5.87985
 -6.1841
 -6.12306
 -6.17874
 -0.984726
 -0.905726
 -1.17551
 -0.809026
 -3.25134
 -3.17053
 -3.52771
 -2.98877
 3.96043
 3.98171
 4.15656
 4.24596
 1.50667
 1.2288
 1.54423
 1.33775
 -1.69359
 -1.26285
 -1.40659
 4.75729
 4.68433
 4.58467
 4.60091
 3.42968
 3.75927
 3.63089
 3.70913
 1.77143
 -5.90306
 -6.07221
 -5.94672
 -6.16
 6.26776
 6.26839
 6.41726
 6.42391
 -3.1152
 -3.5889
 -3.35127
 -3.65139
 -1.27554
 -1.08395
 -1.16354
 -0.888196
 7.18799
 -3.87669
 -3.65886
 -4.01395
 -5.77118
 -6.15119
 -5.92747
 -5.95737
 0.745834
 0.708334
 0.332354
 0.59977
 -1.72506
 -1.71706
 -1.9349
 -1.56396
 2.98401
 3.20008
 0.284459
 0.406916
 0.405915
 0.135782
 2.97944
 3.11486
 3.24017
 3.06009
 2.18707
 2.28546
 1.95515
 1.95743
 -2.31582
 -2.12197
 -2.31481
 -2.3928
 5.66016
 5.67805
 5.67951
 5.45823
 3.6726
 3.78957
 3.70492
 3.84856
 5.31469
 5.16858
 4.25731
 4.26089
 4.23937
 4.25019
 4.48306
 4.62266
 4.40127
 4.58341
 -6.25244
 -6.13644
 -5.86834
 -5.87587
 -0.870819
 -0.863106
 -0.751757
 -1.14794
 1.54939
 1.21487
 1.43431
 1.40593
 -0.191463
 -0.0924821
 -0.0289426
 -0.2726
 -6.23334
 -6.18064
 4.8381
 4.93319
 4.91174
 4.83538
 -6.15699
 -6.25094
 -6.00817
 6.05618
 6.11427
 6.06474
 6.15499
 -5.45394
 -5.1252
 -5.3752
 -5.1699
 2.014
 2.17926
 1.944
 2.19127
 0.915963
 0.883979
 0.995215
 -6.01478
 -5.84457
 -5.90959
 -6.06724
 -0.676466
 -0.426583
 -0.708835
 -0.498846
 0.770968
 0.646225
 0.430391
 0.658634
 1.91348
 2.03745
 1.34306
 1.75417
 1.45547
 1.61481
 -1.23141
 -0.945109
 -1.08071
 -6.45001
 -6.03381
 -5.9905
 -6.33273
 1.03331
 0.872006
 1.0589
 0.990135
 1.45818
 1.59933
 2.36438
 2.58494
 2.64507
 2.43559
 5.8363
 5.80886
 5.63482
 -0.602643
 -0.661308
 -0.322014
 -0.31529
 -6.06229
 -6.08003
 -6.1029
 5.3023
 5.41276
 5.30047
 0.959454
 1.13692
 1.01561
 1.24186
 -1.89931
 -1.90632
 -1.58843
 -1.69931
 6.48127
 6.5498
 6.49835
 6.46464
 -4.35771
 -4.44905
 -4.28518
 -4.23847
 -2.08149
 -1.89045
 -1.9228
 -1.81218
 -3.97258
 -4.05879
 -3.86685
 -5.79856
 -5.87009
 -6.26252
 -6.0103
 0.0325705
 0.338926
 0.0713469
 0.0290515
 -5.37117
 -5.28107
 -5.20218
 -5.13463
 2.01804
 2.09292
 1.93712
 2.20473
 -6.33176
 -1.45946
 0.415708
 0.523521
 0.29255
 0.594808
 -1.25739
 -1.18871
 -0.966631
 -0.922066
 -2.76878
 -2.84181
 -2.66937
 -2.43751
 -1.27456
 -1.16518
 -1.46205
 -1.32959
 -3.20884
 -3.0213
 -3.26797
 -3.22675
 0.402488
 0.558406
 0.462233
 0.248702
 0.747959
 0.667561
 0.620065
 0.507365
 1.52219
 1.58333
 1.66762
 1.38141
 0.564165
 0.575081
 0.796984
 3.89085
 3.8522
 3.8889
 3.73354
 0.18225
 -1.85011
 -2.17865
 -2.20851
 -2.05016
 -5.85233
 -5.87865
 -5.52019
 2.23199
 2.56083
 2.42933
 2.52607
 -0.169839
 -0.488768
 -0.395302
 -1.34654
 -1.29104
 -1.12043
 -1.07778
 -1.95128
 -2.05711
 -2.3228
 -2.40359
 -4.79382
 -4.94723
 -5.13309
 -4.8832
 3.1222
 3.16757
 3.02546
 3.35565
 -0.336584
 -0.168175
 -0.122642
 -0.0173839
 0.582792
 0.717262
 0.883718
 0.5923
 0.851776
 1.00153
 1.04016
 1.20209
 0.325755
 0.415718
 0.266654
 0.543496
 -2.79328
 -2.3157
 -2.86678
 -2.53603
 0.811605
 1.20027
 1.05378
 1.00127
 4.89258
 4.8858
 4.89543
 4.8251
 5.12992
 5.00345
 5.03391
 0.322936
 0.279849
 0.064496
 0.0257631
 0.180454
 0.096058
 -0.0148491
 -0.103502
 0.624509
 0.837884
 0.480475
 0.486597
 -5.54811
 -5.59484
 -5.21588
 -5.26791
 -2.83611
 -2.56963
 -2.54215
 -2.84548
 2.57746
 2.43402
 2.47006
 2.41013
 3.79338
 3.55482
 3.59467
 3.89341
 -4.56456
 -4.48216
 -4.30953
 -4.57444
 6.18548
 6.31005
 6.27286
 6.09137
 1.78652
 1.55243
 1.68602
 1.71437
 4.25977
 4.12799
 4.15108
 3.21636
 3.09456
 3.06444
 2.89378
 -2.34608
 -2.27779
 -2.49577
 -2.05967
 3.14183
 3.4368
 3.33248
 3.23956
 4.99008
 4.5954
 4.86124
 6.44963
 6.29169
 6.19462
 6.26792
 -6.68693
 -6.78662
 -6.90682
 -7.14678
 2.88888
 3.03676
 2.91636
 2.83044
 -0.939997
 -0.577145
 -0.645648
 -0.865493
 -5.24855
 -5.06336
 -4.82323
 -5.03028
 -3.63267
 -3.98479
 -3.5071
 -3.70451
 2.70242
 2.65595
 2.81089
 2.71373
 4.42231
 4.631
 4.80329
 4.57943
 -0.426998
 -0.586418
 -0.315179
 -0.457997
 4.33812
 4.08029
 1.28954
 1.6512
 1.57376
 1.38783
 1.01688
 1.03826
 1.18188
 0.939023
 1.32223
 1.30137
 1.42438
 3.86625
 3.79484
 3.8658
 -1.06914
 -1.07622
 -1.169
 -1.24639
 -0.656515
 -0.621782
 -0.435448
 -0.868796
 2.68705
 2.43066
 2.54811
 2.66052
 -2.9734
 -3.26478
 -2.85706
 -2.98551
 0.409394
 0.723525
 0.553721
 0.312701
 4.0684
 4.06982
 4.11
 4.07655
 1.76519
 1.58548
 1.75088
 -0.817946
 -0.805848
 -0.5772
 -0.76961
 0.107478
 -0.0500205
 -0.204323
 -6.62515
 -6.53171
 -6.45171
 -6.38673
 5.36146
 5.45738
 5.34076
 5.60186
 2.07449
 1.83851
 1.86516
 2.02077
 2.23856
 2.29051
 2.48399
 2.22841
 -6.86328
 -6.77394
 -7.11245
 -7.32779
 -3.24173
 -3.38877
 -3.36027
 3.02824
 3.06441
 3.16456
 3.04217
 -3.49493
 -3.1669
 -3.30471
 2.88647
 2.86654
 3.02864
 2.98243
 7.77203
 7.66934
 7.75116
 7.66208
 -5.26539
 -5.36889
 -5.58917
 -5.21095
 3.82865
 3.89226
 3.98528
 4.15237
 -6.28204
 -6.20652
 -6.16133
 -6.23205
 3.31736
 3.06694
 3.26263
 3.14893
 7.68352
 7.87506
 7.72044
 7.7151
 4.77755
 4.97029
 4.79755
 4.70946
 3.73802
 3.58593
 3.44469
 3.77435
 0.401879
 0.753519
 3.84311
 3.79813
 4.12817
 4.08131
 -1.07429
 -0.928161
 -0.847024
 -0.696515
 0.692138
 0.688797
 0.810346
 0.476674
 -5.08044
 -4.7245
 -5.31426
 -5.37318
 -4.42328
 -4.28208
 -4.51877
 -4.57004
 -3.77077
 -3.5371
 -3.7255
 -3.51148
 -4.70278
 -4.7652
 -4.83263
 -4.63953
 -1.98138
 -1.90804
 -2.16141
 -1.96241
 -3.89638
 -4.19693
 -4.11326
 -3.98763
 5.17336
 5.42284
 5.45251
 5.14994
 -4.76229
 -4.9428
 -4.87004
 -4.82806
 1.40134
 1.59159
 1.71635
 1.61839
 -3.17997
 -2.72975
 -2.84318
 -4.47703
 -4.74289
 -4.73238
 -4.64176
 3.72935
 3.96155
 3.98189
 3.89431
 4.83134
 4.8927
 4.98872
 4.9393
 -2.48315
 -2.43691
 -2.2848
 -2.7068
 1.10744
 1.13589
 1.18734
 1.33763
 -1.97826
 -1.79918
 -1.95652
 -1.90276
 -1.91163
 -1.90361
 -2.41659
 1.71298
 1.77972
 1.97425
 -1.7801
 -1.89711
 -0.324906
 0.00609814
 -6.43446
 -6.61722
 -6.59955
 -6.45305
 -0.0538073
 -0.161243
 -0.0144819
 -0.304003
 -1.77203
 -1.64972
 -1.99938
 -1.65203
 -0.786957
 -0.93163
 -0.799451
 -1.03032
 -3.86876
 -3.55067
 -3.68427
 -3.50843
 -3.46961
 1.11254
 1.0639
 1.30843
 1.31365
 4.17799
 4.17738
 4.17494
 4.16103
 -1.83083
 -1.56189
 -1.84605
 -1.68231
 -2.01354
 -1.8749
 -1.78234
 -2.09641
 7.34178
 7.22981
 7.17164
 7.05305
 0.314436
 0.0951096
 0.214401
 0.366781
 0.480618
 0.696034
 0.787777
 0.5769
 -1.59869
 -1.39785
 3.78073
 3.72753
 3.64168
 3.75681
 2.17244
 2.04393
 2.1125
 2.24532
 3.45753
 3.55103
 3.62622
 3.60635
 2.45332
 2.29495
 2.32579
 2.49172
 3.37707
 3.39626
 3.49113
 3.35515
 -3.33237
 -3.19406
 -3.28965
 -3.47777
 -4.79516
 -4.75574
 -4.47146
 -4.65372
 2.77109
 2.8736
 3.00117
 2.76672
 0.321546
 0.535425
 0.336707
 0.442856
 -3.7644
 -3.44537
 -3.68923
 -3.53629
 1.2883
 1.4229
 1.44653
 1.15286
 2.80378
 2.64215
 4.58813
 4.50155
 4.45256
 4.61021
 0.793532
 0.875553
 1.02473
 1.12368
 -3.93588
 -3.80625
 -3.82562
 -4.16087
 -5.90568
 -5.70569
 -5.77443
 -5.93374
 6.86236
 6.86014
 1.36482
 1.15517
 1.08633
 1.01405
 1.72007
 2.05539
 1.84172
 1.83094
 2.0046
 2.07215
 3.27171
 3.15733
 3.18765
 3.08553
 0.71715
 0.497649
 0.389849
 5.13283
 5.00537
 4.99556
 4.89779
 -4.63885
 -4.85626
 -4.43708
 -4.67716
 -5.67774
 -5.65673
 -5.65783
 -6.81041
 -6.5894
 -6.34116
 -6.5623
 -0.616158
 -1.00386
 -0.865063
 -0.911269
 0.37216
 0.0608125
 0.491244
 0.219367
 -3.11056
 -3.52775
 -3.6786
 -3.42846
 -1.61221
 -1.57047
 -1.82963
 -1.59502
 -1.12387
 -1.36374
 -1.23295
 -0.0663754
 -0.110717
 0.022839
 -0.293417
 -2.42183
 -2.95402
 -2.76233
 -2.47576
 1.21042
 1.33834
 1.20122
 1.16136
 0.146811
 0.216076
 -0.066983
 0.287387
 -1.74699
 -1.68309
 -1.54774
 -1.79563
 0.34233
 0.510906
 0.58365
 0.310692
 7.62412
 7.67357
 7.50496
 7.51102
 3.12811
 3.21653
 3.21851
 3.36347
 -2.38695
 -2.38369
 -2.69179
 -2.72766
 3.19055
 3.14975
 3.4143
 3.49438
 3.78424
 4.0597
 3.77663
 3.60031
 -4.21501
 -4.16111
 -4.35062
 -3.97483
 -3.87939
 -3.57947
 -3.85711
 -3.7824
 -4.89751
 -4.63597
 -4.90029
 -4.97582
 -2.97333
 -2.96088
 -3.21902
 -3.11271
 1.48413
 1.53385
 1.68354
 1.53365
 3.0647
 3.14288
 2.96795
 3.18394
 -1.97658
 -1.56728
 -2.00246
 -1.66845
 2.96199
 2.89171
 2.86691
 2.87653
 4.53788
 4.48809
 4.4291
 4.33699
 0.596192
 0.398836
 0.560564
 0.372475
 1.95456
 2.1029
 2.27183
 1.75435
 1.67638
 1.38412
 1.62121
 4.35883
 4.47984
 4.6525
 4.48627
 2.83934
 2.87316
 2.96602
 2.9115
 -2.19369
 -2.3634
 -2.2178
 -2.32936
 0.0146616
 -0.201471
 -0.248554
 -6.87052
 -6.59103
 -6.63772
 -6.79425
 -5.48581
 -5.74626
 -5.95354
 -5.66148
 2.00858
 1.83203
 2.10189
 1.84091
 -0.524034
 -0.723042
 3.99067
 4.0072
 4.22275
 3.91713
 -0.0347264
 0.205201
 0.316249
 0.110058
 -4.96153
 -5.04854
 -4.76942
 -5.00876
 3.02326
 2.97553
 2.89885
 1.32673
 1.27498
 1.2306
 1.52946
 1.88365
 1.57132
 1.61188
 1.68135
 0.499964
 0.245466
 0.211697
 0.547183
 0.76269
 0.620063
 0.447937
 0.650765
 -0.0445135
 -0.193112
 -0.00730241
 -0.256395
 1.01278
 0.835551
 -3.29324
 -3.13603
 -3.58586
 -3.23924
 0.819753
 1.05273
 0.969877
 0.820389
 -1.15696
 -0.771503
 -0.926472
 0.907701
 0.676001
 0.827917
 0.694666
 -1.08267
 -0.948934
 -0.812224
 -1.00425
 3.22547
 3.44008
 3.2767
 3.5472
 1.13046
 1.1734
 0.901861
 -0.550778
 -0.587595
 -0.897026
 -0.399795
 0.726429
 0.768873
 0.597422
 3.4697
 3.39662
 3.5897
 -1.39199
 -1.35577
 -1.34708
 -1.06296
 0.392305
 0.209349
 0.179859
 6.86422
 6.81205
 6.73891
 7.01596
 -1.57823
 -1.39084
 -1.25941
 -1.60893
 1.77449
 2.04669
 2.01121
 2.07815
 -3.65122
 -3.64984
 -3.75439
 -3.92131
 -4.21483
 -4.01672
 -4.36109
 -4.30653
 3.71392
 3.43656
 3.77793
 3.72463
 -0.358688
 -0.176303
 -0.0374741
 2.36539
 2.60279
 2.43891
 2.44517
 -4.49153
 -4.06671
 -4.30016
 0.214906
 -0.00193378
 0.150554
 -0.0813729
 -2.04191
 -2.15378
 -2.15068
 -2.08469
 -5.05033
 -5.15536
 -5.26006
 -5.02208
 8.23967
 8.3572
 8.3291
 8.23931
 2.60815
 2.56281
 2.43027
 2.62704
 -0.331972
 -0.776799
 -0.609539
 -0.711014
 4.61426
 4.76736
 4.8155
 0.383954
 0.1673
 0.236065
 0.436618
 -5.59675
 -1.66537
 -1.47762
 -1.16499
 -1.44236
 -4.01192
 -4.00286
 -4.05787
 -4.16973
 -3.02007
 -2.91904
 -2.8629
 -3.06475
 -0.402315
 -0.31004
 0.0248766
 0.321301
 0.320538
 0.303734
 6.49862
 6.33106
 6.4869
 6.38616
 2.22379
 2.31624
 2.40871
 2.55711
 2.54054
 2.37415
 2.51863
 -5.59335
 -6.09512
 -5.60671
 -5.57082
 0.507273
 0.525265
 0.237631
 0.252367
 -0.467062
 -0.358756
 -0.154068
 -0.32719
 -4.39775
 -4.19826
 -4.54444
 -4.20279
 0.183872
 0.24649
 -0.0309464
 0.199394
 5.26123
 5.19721
 5.37845
 5.31575
 0.769205
 0.853282
 0.707159
 0.806195
 2.6778
 2.6688
 2.63403
 2.48745
 3.09536
 3.26344
 3.23445
 3.14601
 4.30432
 4.23573
 4.31258
 4.3167
 5.63427
 5.71969
 5.76262
 5.51907
 -6.81555
 -6.58496
 -6.69495
 -6.61041
 6.14679
 6.08027
 6.25051
 5.98596
 0.511617
 0.668372
 0.498358
 0.722187
 -6.46022
 -6.43641
 -6.23684
 -6.28448
 1.55545
 1.60242
 1.45755
 1.37913
 4.20395
 -4.97857
 -4.8131
 -4.87016
 -5.17818
 3.29707
 5.35288
 5.12755
 5.09777
 5.30726
 -0.76738
 -1.08377
 -3.20033
 -2.86299
 -3.26458
 -2.92219
 -4.09619
 -4.06719
 -4.25792
 -4.22311
 -7.02946
 -6.74665
 -7.05384
 -3.25705
 -3.59786
 -3.57153
 -3.53808
 1.39765
 -5.99449
 -1.94173
 -1.85554
 -1.7619
 -5.67013
 -5.88062
 -5.92228
 -5.82322
 1.44433
 1.45883
 1.46628
 1.62279
 2.59044
 2.52266
 2.69874
 2.7832
 -1.82368
 -1.6412
 -1.72345
 -2.10805
 -5.65719
 -5.88486
 -5.57722
 -5.55348
 -4.64585
 -4.56785
 -4.72725
 -4.54451
 -1.15485
 -1.57014
 -1.52008
 5.67592
 5.79565
 5.43855
 5.67387
 8.08421
 7.91118
 8.00471
 7.92259
 4.3916
 4.63672
 4.66959
 4.5368
 -0.19273
 -0.414804
 -0.150733
 5.12782
 4.94759
 5.01938
 5.16528
 -3.628
 -3.54327
 -3.86918
 -3.58895
 -3.63838
 -3.46368
 -3.58607
 3.22598
 3.31344
 -2.24006
 -2.44589
 -7.71239
 -7.51986
 -7.76749
 -6.71073
 -6.82572
 -6.77558
 -6.91933
 1.01227
 1.22267
 0.874319
 1.04234
 2.29688
 2.344
 2.4536
 2.19671
 0.693204
 0.699243
 0.454197
 0.511297
 -6.18396
 -6.15784
 -6.23524
 -6.16216
 -2.16957
 -2.31078
 -2.22121
 -2.05149
 4.31085
 4.32571
 4.31187
 4.16055
 -2.31864
 -2.41304
 -2.20858
 -2.50461
 -0.489516
 -0.544791
 -0.313542
 -0.603106
 -1.80868
 -1.99696
 -1.96985
 8.54166
 8.50434
 8.48398
 2.28914
 2.41275
 1.41867
 1.41212
 1.62307
 1.29371
 -2.89797
 -3.18889
 -2.98775
 -2.8972
 -2.3199
 -2.43569
 -2.76425
 -2.50745
 -2.52324
 -2.37729
 -2.83175
 6.63558
 6.64685
 4.42326
 4.45064
 4.33658
 4.4063
 -0.497676
 6.7711
 6.93874
 6.87009
 6.8604
 2.74547
 2.48625
 2.68675
 2.72025
 1.14622
 1.26275
 5.57815
 5.24991
 5.27949
 5.44973
 -6.83204
 -7.147
 -7.02971
 -6.89946
 -5.72736
 -5.82605
 -5.6968
 -6.06264
 3.53653
 3.15319
 3.43917
 3.24013
 2.32235
 2.44797
 2.02471
 2.11459
 2.28232
 2.41026
 2.28274
 -2.69438
 -2.86375
 -2.47318
 -2.70216
 4.20886
 4.07402
 3.98183
 3.95539
 0.538228
 0.441974
 0.574919
 -1.34968
 -1.41314
 -1.52988
 -1.73851
 2.41151
 2.36578
 2.21889
 2.31867
 3.0725
 2.86256
 2.73004
 2.96236
 3.12221
 3.27274
 3.23165
 3.05914
 1.55729
 1.47107
 1.27327
 1.46337
 -1.53015
 -1.33538
 2.69007
 2.64702
 2.58598
 2.77541
 -6.96437
 -6.48847
 -6.55576
 -6.58316
 3.41599
 3.30113
 3.40975
 3.27407
 5.02287
 5.07824
 4.86269
 4.96782
 -0.589455
 -0.635483
 6.07215
 6.0292
 6.19525
 5.98194
 1.91484
 1.75949
 2.01668
 -5.50953
 -5.41969
 -5.61588
 -5.65337
 5.83753
 5.92045
 5.85865
 3.18476
 3.19738
 2.99989
 3.07269
 5.45515
 3.23623
 3.33114
 3.28933
 3.50639
 0.238888
 0.403761
 0.208473
 0.237259
 1.22562
 1.17192
 1.04206
 1.24126
 -5.88066
 -6.2196
 -0.128803
 -0.271282
 -0.217382
 -0.135449
 3.36995
 3.61835
 3.33352
 3.63518
 2.17942
 1.71617
 1.96005
 2.16351
 -4.90359
 -4.69242
 -4.71037
 -4.73121
 1.1925
 1.09178
 0.858269
 0.945592
 -0.587542
 -3.98639
 -4.15132
 -3.89492
 2.09821
 2.04108
 2.26628
 1.95688
 -2.15478
 -2.06954
 -2.20729
 -1.88489
 1.71728
 1.88809
 1.87627
 1.62656
 -5.84398
 -5.5457
 -5.47779
 -5.66803
 -7.60613
 -7.74385
 -7.53737
 3.16844
 3.02053
 2.81651
 2.96077
 -1.14215
 -1.25802
 -0.950339
 -1.06323
 -2.03964
 -2.12417
 -2.30055
 -2.42022
 2.39434
 2.37295
 3.09091
 3.18085
 3.25423
 3.01777
 1.60979
 1.25087
 -0.903291
 -0.997583
 -0.866074
 -0.77416
 -1.44976
 -1.55088
 -1.75632
 -1.44333
 1.39671
 1.28573
 1.09833
 1.21948
 -0.645369
 -0.669032
 -0.678594
 -4.55831
 -4.22012
 -4.12695
 -4.29412
 -3.12444
 -3.03273
 -3.20227
 1.44601
 1.10417
 1.46063
 1.26608
 2.89836
 3.16597
 3.29319
 2.99792
 -2.07699
 -1.76589
 -1.78775
 -1.98624
 1.19789
 1.22217
 1.47785
 4.18533
 4.21103
 4.17619
 4.20682
 2.39519
 2.41979
 2.32012
 2.24325
 -3.40171
 -3.31905
 -3.14442
 -6.82593
 -6.50271
 -6.55573
 -1.8255
 -1.95616
 -1.97585
 2.41052
 2.61631
 2.32963
 2.5392
 -6.58394
 -6.63966
 -6.57051
 -6.74329
 -1.41514
 -1.26595
 -1.40832
 -1.60237
 -3.83742
 -3.96874
 -4.36471
 -4.29554
 -3.4376
 -3.58834
 -3.44311
 -3.47172
 4.90205
 5.06463
 5.05674
 1.56452
 1.50726
 1.66854
 1.48411
 -3.771
 -3.89624
 -3.6459
 -3.65285
 0.882255
 0.770381
 0.737969
 0.479954
 -2.3388
 -2.3411
 -2.28033
 -1.98059
 -5.2401
 -5.4369
 4.35834
 4.20827
 4.23665
 4.1429
 -2.85346
 -2.68866
 -3.07675
 -2.77847
 1.57692
 1.67582
 1.75248
 1.51272
 -1.83174
 -1.49595
 -6.32328
 -6.31161
 -6.06292
 -6.42308
 -3.80776
 -4.16269
 -3.69283
 -4.3004
 -6.8322
 -6.86863
 -7.08971
 -7.22136
 -2.66881
 -2.63071
 -2.7813
 -1.87811
 -2.23098
 -2.17349
 -2.06889
 -2.24684
 -2.05235
 -2.1427
 -1.85054
 2.74915
 2.68686
 2.89039
 2.94892
 5.30639
 5.3909
 5.17845
 0.329592
 0.301185
 0.282607
 -4.47349
 -4.1903
 -4.35897
 -4.12041
 1.35273
 1.19732
 0.994591
 1.18373
 3.40767
 3.65733
 3.60855
 3.39411
 0.234312
 0.470289
 0.602478
 0.593445
 1.7755
 1.46732
 1.75975
 -6.33345
 -6.44004
 -6.08462
 -6.0851
 4.1377
 4.06772
 3.66063
 3.54406
 3.52796
 -2.3272
 -2.43544
 -2.15867
 -2.59803
 0.563997
 0.290946
 0.299827
 0.398211
 3.72116
 3.68174
 3.51699
 3.68653
 -0.504069
 -0.0665982
 -0.0916071
 -0.358274
 2.0623
 2.22705
 1.93689
 1.94793
 -4.82439
 -4.91685
 -5.32555
 2.38504
 2.41972
 2.23621
 2.25427
 -0.399432
 -0.586294
 3.83387
 3.58707
 3.66678
 3.7929
 3.5114
 3.70144
 3.60953
 3.68828
 -5.19458
 -5.02516
 3.20501
 3.01031
 3.12041
 3.28452
 0.210815
 0.450239
 0.320561
 0.201374
 1.71543
 5.07666
 5.24807
 5.19323
 -0.652562
 -0.597643
 -0.674572
 -0.462232
 -5.29273
 -5.3212
 -5.11669
 -5.44123
 4.86292
 4.82784
 4.75651
 4.93138
 3.54261
 3.38568
 3.5884
 3.55037
 -1.92482
 -2.05336
 -2.06219
 4.64068
 4.62867
 4.51007
 4.46363
 -6.87837
 -6.60116
 -6.7595
 -6.93655
 4.30368
 4.17169
 4.12208
 4.38794
 -1.52707
 -1.24873
 -1.45316
 -1.72993
 1.64478
 1.49585
 1.55096
 1.70634
 3.68194
 3.60611
 3.64909
 1.95157
 1.6936
 1.9685
 1.75766
 3.86619
 4.05163
 3.92761
 3.92856
 3.37568
 3.51456
 3.41759
 -2.97513
 -2.7155
 -3.03823
 -2.75158
 -2.4741
 0.629746
 0.133971
 0.45585
 0.44338
 -5.59705
 -5.49747
 -5.3141
 -5.50006
 -0.661383
 -0.947694
 -0.504094
 -0.845686
 -1.56148
 -1.76065
 -1.55407
 -1.48092
 3.58952
 3.67653
 3.45955
 3.1296
 3.19543
 -1.29723
 -0.971697
 -1.20859
 -1.34615
 -5.35339
 -5.75415
 -0.152308
 -0.222621
 0.0188379
 -0.279115
 3.87531
 3.92248
 3.74956
 -4.6862
 -4.86585
 -4.60179
 -4.70334
 -0.104492
 0.227084
 0.117635
 0.0573278
 3.68327
 3.79202
 3.68056
 3.60151
 0.513377
 0.550558
 0.198675
 0.448335
 -1.33843
 -1.78513
 4.65279
 4.74805
 4.69876
 4.8018
 3.22846
 2.88906
 2.74281
 2.85308
 2.68439
 2.73865
 2.78943
 3.04325
 2.96463
 2.82826
 0.0492035
 0.070768
 0.117606
 -1.08576
 -0.977517
 -0.879257
 -0.762618
 2.82485
 2.85295
 2.81055
 2.84509
 1.60991
 1.65009
 -0.473455
 -0.286252
 -0.393379
 -0.205232
 -0.457832
 -0.488634
 0.640889
 0.366394
 0.328023
 0.575696
 6.0218
 5.80856
 5.84728
 5.75024
 -0.376468
 3.86635
 3.68406
 3.81319
 3.85861
 -6.20065
 -6.45849
 -6.1715
 -2.61449
 -2.53863
 -2.36906
 -2.65585
 0.637473
 0.504306
 0.597092
 0.944502
 0.0576807
 -0.141261
 0.156523
 3.25261
 3.09299
 3.1766
 3.29161
 -4.99958
 -5.22662
 -4.70948
 -5.07593
 -1.4541
 -1.36201
 -1.58533
 -1.50159
 -4.98483
 -5.0885
 -4.653
 -4.88688
 4.14835
 4.12346
 4.29949
 4.28882
 2.81586
 2.65338
 -2.84311
 -2.73497
 -2.59893
 -2.77193
 -5.46565
 -5.49195
 -5.55135
 -5.37355
 -7.60424
 -7.72429
 -7.4958
 -7.8001
 -5.19247
 -4.97107
 -5.20492
 -1.36819
 -1.5861
 -1.31585
 -1.47891
 -4.95957
 -5.08124
 -5.18776
 -5.10193
 4.26646
 4.09868
 3.93666
 4.13151
 -3.91134
 -4.1125
 -4.16521
 -1.37664
 -1.29632
 -1.22276
 -1.21816
 3.90158
 3.98372
 3.89845
 4.0379
 -1.92964
 -2.21294
 -2.04309
 -2.06232
 -0.765551
 -0.965385
 -1.04694
 -0.802355
 2.4936
 2.39507
 2.28504
 2.14275
 4.4178
 4.38278
 4.60918
 4.59512
 1.11648
 1.04253
 0.844729
 1.07201
 6.3958
 6.35311
 6.11352
 6.23131
 3.44878
 3.31618
 3.46943
 3.0127
 3.2275
 3.23366
 3.2891
 7.08947
 7.02711
 7.20728
 7.0113
 -4.60845
 -4.41016
 -4.43722
 -3.50721
 -3.54816
 -3.78553
 -3.73212
 2.83365
 2.5075
 2.61158
 5.25241
 5.19787
 5.29578
 4.33624
 4.51398
 4.33102
 4.31279
 2.7278
 2.75687
 2.57785
 2.9026
 -1.51228
 -1.8737
 -1.68518
 -1.63761
 5.95964
 5.96656
 5.84107
 6.03064
 -0.993487
 -0.587369
 -0.540674
 -0.877746
 -3.50314
 -3.70444
 -3.29052
 -3.50806
 -0.447884
 -0.427454
 -0.815063
 -0.641823
 1.14118
 1.30273
 0.960517
 3.74863
 3.76856
 3.74606
 3.62949
 -5.07037
 -5.29971
 -5.38944
 -5.29184
 -3.9081
 -4.06843
 -3.87977
 -3.70596
 2.60969
 2.44061
 2.54778
 2.70386
 -5.7296
 -5.87908
 -6.02391
 -5.28454
 -5.7047
 -5.37142
 -5.43792
 -5.70905
 -5.74036
 -5.5096
 -5.5894
 5.6977
 5.74583
 7.10672
 7.0734
 7.17434
 6.96469
 -1.26027
 -1.14603
 -0.968814
 0.555975
 0.724754
 0.357201
 0.666951
 0.144191
 -0.122879
 -0.0390345
 0.111399
 8.42618
 1.31765
 -0.983127
 -1.22941
 -3.8262
 -3.98556
 -3.91303
 -3.90246
 5.25393
 1.88132
 1.67935
 1.88648
 -7.88054
 -7.73101
 -7.7404
 -7.74527
 0.0698935
 0.251146
 0.0677262
 -0.143176
 -5.98747
 -5.82662
 -5.99377
 -5.73144
 1.14157
 0.886553
 1.33126
 1.78058
 1.51255
 1.68036
 -4.58944
 -4.67244
 -4.34497
 -4.62477
 -0.960993
 -0.822704
 -0.641754
 -0.52189
 4.19971
 4.33732
 4.06738
 4.12278
 -3.77545
 -4.24195
 -4.06588
 -5.96815
 -6.39153
 -6.39501
 -5.98571
 -3.72357
 -3.65679
 -3.43835
 -3.69028
 2.83795
 2.86576
 2.49746
 2.88602
 2.38748
 2.54049
 2.51014
 2.52288
 -4.78278
 -4.98623
 -4.96858
 -5.00726
 1.38129
 1.35726
 1.57849
 -3.0566
 -3.09008
 -2.98565
 -2.83053
 3.78488
 3.59887
 3.88924
 3.86609
 -1.21726
 -1.35031
 -0.997121
 -1.1427
 3.97404
 3.83779
 3.96834
 3.9539
 -0.349063
 -0.529318
 -0.318139
 -0.435395
 -3.36952
 -3.40221
 -3.65459
 -3.17011
 4.37176
 4.43186
 4.28779
 -0.0941547
 -0.314794
 -4.16228
 -4.03182
 -4.0066
 -3.82852
 1.3726
 1.5137
 1.53745
 4.13425
 4.31567
 4.3643
 4.27467
 -1.90979
 -2.01197
 -1.88331
 -2.11005
 -1.37644
 -1.34274
 -1.75698
 -1.44926
 7.81906
 7.82335
 7.66335
 7.76964
 0.260471
 0.531337
 0.365928
 6.64839
 6.50915
 6.45989
 0.0926321
 0.139594
 0.274052
 0.151827
 0.421656
 4.10101
 4.05423
 4.34846
 4.25003
 1.04673
 0.827614
 0.737486
 -3.83223
 -3.83861
 -3.82633
 -3.70655
 0.72243
 0.606607
 0.473335
 0.477304
 0.468044
 0.561445
 0.61244
 -7.46772
 -7.3368
 -7.29611
 -7.09669
 3.08511
 2.67874
 2.77448
 2.90177
 4.6414
 4.63292
 4.55567
 4.56609
 1.87553
 1.95303
 1.60104
 1.84377
 -4.45686
 -4.58546
 -4.64178
 -4.24208
 7.91847
 7.7791
 7.89456
 7.69811
 -2.97689
 -2.68066
 -2.86516
 -2.88335
 4.65816
 4.79004
 4.7006
 4.72583
 -3.94464
 -3.32997
 -3.49586
 -3.77214
 -3.11983
 -2.96178
 -2.81746
 -3.00014
 -2.96777
 -3.10421
 2.77767
 2.91503
 2.92923
 2.81236
 -5.06526
 -5.094
 -5.07515
 -2.83116
 -2.43185
 -2.60346
 -2.90301
 3.17518
 2.95547
 3.10139
 3.30278
 1.92301
 2.01378
 1.73071
 8.55485
 8.55049
 8.60613
 8.55256
 0.450144
 0.767578
 0.424595
 -5.08542
 -5.27596
 -5.01629
 -4.94225
 -3.47409
 -3.27538
 -4.70462
 -4.99762
 -5.19456
 -4.81435
 -2.42384
 -2.44898
 4.77394
 4.7198
 4.94461
 4.59252
 -3.15478
 -3.1008
 -3.12895
 -2.82045
 0.0666471
 -0.0730499
 2.08605
 1.92025
 1.97684
 2.06713
 -3.45609
 -3.60064
 -3.67854
 -3.58723
 2.66484
 3.03929
 3.01848
 2.74202
 -4.86401
 -4.84252
 -5.12375
 -5.47702
 -0.803791
 -0.869295
 -0.584687
 5.03689
 5.12356
 5.14921
 5.03145
 -1.43235
 -1.38391
 -1.26715
 -1.11603
 3.07571
 3.27819
 3.3254
 3.41401
 2.86436
 3.11506
 2.94551
 8.06874
 8.08136
 8.07313
 7.98215
 4.3815
 4.08906
 4.01697
 4.27977
 -3.50641
 -3.36695
 -3.64246
 -3.34888
 0.505249
 0.429029
 0.674587
 1.68098
 3.73063
 3.6241
 3.69462
 3.55566
 1.53892
 1.72764
 1.55624
 1.47025
 -2.32187
 -2.71247
 -2.75578
 -2.39821
 3.82846
 3.82285
 3.45767
 5.30388
 -0.730167
 -0.838889
 -0.551358
 -0.965006
 3.64641
 3.36687
 6.84184
 6.97084
 3.71143
 3.55143
 3.71209
 3.94022
 -2.39262
 -2.61875
 -4.22185
 -4.20318
 -4.30889
 -4.15934
 2.08734
 1.8888
 1.8689
 1.89818
 -5.99758
 -6.06057
 -6.26919
 -6.07582
 2.06719
 2.032
 2.4697
 2.45008
 -2.95136
 -2.98981
 -2.83426
 -2.51084
 3.15882
 3.14703
 3.04184
 3.03457
 -3.14532
 -3.30319
 -2.9638
 -3.17837
 1.27441
 1.06422
 -5.43905
 -5.28761
 -1.89691
 -2.0974
 -1.80867
 -2.16324
 -1.88684
 -1.76161
 -1.7807
 -2.07257
 -0.292397
 -0.137419
 -0.371376
 -0.375723
 -3.10672
 -2.78557
 -3.15229
 -3.35973
 3.23995
 3.44555
 3.32382
 3.33662
 -5.22997
 -5.10024
 -5.07794
 -5.5799
 -5.70404
 -5.4298
 -5.61212
 3.90497
 3.67983
 3.68586
 3.7891
 -2.32643
 -2.0153
 -2.05752
 -2.1982
 3.94525
 3.76331
 3.7475
 3.56928
 0.0479721
 0.729042
 0.400997
 0.395821
 0.706097
 -3.89806
 -3.93851
 -3.93485
 -3.61529
 6.35168
 6.48611
 6.39665
 6.23431
 -2.17035
 -2.32809
 -2.51939
 -2.28031
 0.211893
 -0.0101894
 0.458284
 0.275065
 -2.46471
 -2.26387
 -2.22433
 -2.2061
 -1.65606
 -7.41771
 -7.26878
 -6.90714
 -7.0832
 -3.33532
 -3.36013
 -2.95559
 -3.04812
 6.81706
 6.73577
 6.61025
 6.84282
 1.30762
 1.56326
 1.67041
 1.45153
 2.41758
 0.0289618
 0.0428505
 -0.0307057
 -0.225117
 -4.84072
 -4.84097
 -4.56317
 -4.43164
 -3.93981
 -3.89222
 -4.2077
 -4.80378
 -4.20849
 -4.48962
 -4.36778
 7.86723
 7.79156
 -2.97761
 -2.92175
 -2.92355
 2.61343
 2.62288
 2.68632
 2.43585
 -2.5944
 -2.46298
 -2.62442
 -2.3884
 -0.295167
 -1.98381
 -1.71443
 -1.99068
 -1.92146
 -5.52111
 -5.03545
 -5.18452
 -5.48945
 -1.9123
 -2.1066
 -2.448
 -1.97604
 1.4033
 1.31274
 1.64026
 1.14
 3.94884
 3.91112
 4.00944
 3.87008
 -7.03258
 -6.71355
 -7.09757
 -6.98583
 -2.47991
 -2.36654
 -2.58411
 -2.26282
 -6.66181
 -6.54308
 -6.5902
 -6.78503
 2.55909
 2.86699
 2.55947
 2.51865
 -0.223759
 -0.0962994
 -5.45157
 -5.85397
 -5.42816
 -5.63056
 -0.253059
 -0.316565
 -0.31155
 -0.559943
 0.624085
 0.353601
 -0.141155
 -0.231007
 -0.411084
 -0.134414
 -4.11374
 -4.09142
 -3.99119
 -4.30466
 2.05595
 2.33115
 2.45244
 2.20925
 4.90808
 4.75593
 4.88409
 4.8851
 4.2192
 4.28456
 4.28901
 4.29817
 2.26619
 2.13374
 2.11684
 2.31844
 1.16808
 1.48294
 1.2694
 0.943817
 1.2965
 1.12125
 1.02894
 0.138128
 0.295239
 0.389965
 0.180856
 4.98644
 5.02216
 4.94569
 1.58617
 1.7416
 1.45932
 1.51346
 -0.279049
 -0.522798
 -0.491918
 -0.182864
 2.82129
 3.04081
 2.72538
 3.05591
 2.33346
 2.14201
 2.18641
 2.20784
 -0.632122
 -0.637465
 -0.828299
 -1.00887
 0.404435
 0.618514
 0.423591
 0.478067
 -2.15154
 -2.02506
 -2.12491
 -2.01914
 4.3288
 4.27211
 4.20299
 -3.65627
 -3.49992
 -3.84608
 -3.54486
 2.8091
 2.60596
 2.76324
 2.91098
 1.16565
 1.28289
 1.39884
 1.08687
 0.725008
 0.508881
 0.450109
 -1.12815
 -1.1176
 -1.21117
 -1.40411
 -1.78804
 -1.81159
 -1.99113
 -1.67039
 -2.20753
 -2.28795
 -2.49212
 -4.2618
 -4.32453
 -4.35121
 -1.7095
 -1.59063
 -1.41149
 -1.57436
 -4.46306
 -4.59141
 -4.25466
 -5.13034
 -5.14636
 -5.07446
 -4.83515
 0.569848
 1.0131
 0.754366
 0.875055
 2.46012
 2.61568
 2.40483
 2.59229
 3.35987
 -4.264
 -4.14563
 -4.5912
 -4.23509
 -4.44998
 -3.9475
 8.17561
 8.25139
 8.16516
 8.10191
 -3.03373
 -2.80701
 1.15693
 1.36209
 1.08196
 -6.65154
 -6.90792
 -1.19594
 -0.816568
 -0.928853
 -0.999683
 1.33914
 1.2164
 1.21081
 -3.10953
 -3.60733
 -3.33612
 -3.47853
 2.46395
 2.40534
 2.56215
 2.31463
 7.15428
 7.01001
 7.04657
 7.20095
 -0.812641
 -0.86133
 -0.752388
 -1.07799
 -4.05107
 -4.56388
 -4.08789
 -3.40519
 -3.3738
 -3.45386
 -3.22169
 2.93768
 3.24877
 3.19043
 3.37456
 2.8713
 2.7123
 3.71428
 3.54451
 3.77452
 -6.70014
 -6.4955
 -3.95579
 -3.65907
 -3.97791
 -3.62315
 -0.134187
 -0.465188
 -0.407629
 -2.83624
 -2.52292
 -3.07733
 -3.06238
 2.80707
 3.13651
 3.07589
 2.91784
 0.330396
 0.358965
 0.126093
 0.0744358
 0.449083
 0.263152
 0.242166
 0.454341
 3.2022
 3.10119
 3.20429
 2.69664
 2.81862
 2.71929
 2.74634
 -7.648
 -7.8778
 -7.73954
 -8.00275
 4.54388
 4.79441
 -4.92694
 -5.09825
 -5.04215
 -4.87724
 1.10169
 0.866091
 0.970868
 1.09014
 -0.260726
 -0.439227
 -0.431101
 -0.461897
 4.25865
 4.10896
 0.0620566
 0.235979
 0.244945
 0.400901
 1.1555
 1.24879
 1.31667
 1.07599
 -3.9074
 -3.87022
 -3.77293
 -3.94385
 0.703469
 0.517169
 0.478881
 0.812471
 2.60705
 2.58895
 -1.22392
 -1.23075
 -1.08225
 -1.2897
 -2.44598
 -2.3466
 -2.56918
 -0.154782
 -0.414172
 -0.321948
 -0.467305
 3.53244
 3.41474
 3.58761
 3.30248
 7.36627
 7.20725
 7.23038
 7.38555
 0.587153
 0.727044
 0.525182
 0.251451
 -0.53967
 -0.875104
 -0.609471
 -0.560434
 1.43584
 1.30153
 1.56381
 1.51061
 2.23278
 2.36404
 2.19814
 2.09287
 -4.00662
 -4.26986
 -1.29462
 -1.15973
 -1.05499
 6.01379
 6.0891
 6.18755
 5.98021
 3.14102
 3.3174
 3.02546
 3.39824
 -0.107769
 -0.183491
 -0.0381532
 0.0613495
 -3.99307
 -4.11196
 -4.09362
 0.998183
 1.10103
 1.37647
 1.38349
 2.74967
 2.45716
 2.56207
 2.76405
 -2.79539
 -2.46065
 -2.44544
 -2.63644
 -1.09879
 -1.02096
 -0.918954
 -0.938303
 -3.57113
 -3.62
 -3.59002
 -3.15249
 -3.19283
 -3.20006
 -3.19598
 1.71393
 1.65033
 1.844
 1.93315
 0.781183
 0.859469
 0.645756
 7.11521
 7.08651
 7.11101
 7.2146
 2.66351
 2.64654
 4.77376
 4.9079
 4.71119
 4.58352
 3.32146
 4.10533
 -4.70832
 2.51692
 2.7533
 2.5737
 2.85507
 -6.97281
 -1.30922
 -1.08256
 -1.30342
 -0.971872
 2.56845
 2.35868
 2.47307
 1.66405
 1.46312
 1.45759
 -3.7334
 -3.77387
 -3.40972
 -3.73072
 -3.61291
 -3.45461
 -3.65712
 -3.45047
 3.775
 4.04264
 4.05103
 3.85853
 -5.67978
 -5.72637
 -5.87298
 -5.52387
 0.295873
 0.519386
 0.722237
 -3.54626
 -3.74759
 -3.6279
 -0.560245
 -0.331398
 -0.418278
 -0.607348
 2.50476
 2.38409
 2.6567
 2.57213
 -0.584168
 -0.957166
 -0.601619
 2.24815
 2.16884
 2.16175
 2.40909
 1.07941
 0.744275
 -3.87175
 -4.06345
 -4.12881
 -4.37512
 -4.75161
 -5.10536
 -4.90297
 -4.82073
 3.26224
 3.05164
 3.3341
 3.14032
 -2.5342
 -2.16047
 -2.35029
 -2.62157
 -1.12768
 -0.735514
 -1.04926
 -1.24569
 1.46789
 1.68033
 1.36163
 1.50683
 -4.38755
 -4.24449
 -4.15687
 -3.99791
 0.950482
 1.18086
 0.806419
 0.923414
 0.296772
 0.476046
 0.482839
 0.0917999
 0.966827
 1.1234
 0.915131
 0.885553
 3.06385
 2.83552
 3.48905
 3.33667
 3.18717
 3.44464
 5.07033
 5.33037
 5.13662
 5.0708
 -1.27594
 -1.25623
 -1.19474
 -1.49693
 -0.869002
 -0.632595
 -0.621258
 -5.86081
 -5.91149
 -5.95852
 -5.92406
 -6.68127
 -6.84444
 -6.5659
 -5.1391
 -5.27887
 -4.87145
 -0.554121
 -0.852206
 -1.03828
 -0.66319
 -2.0797
 -2.24521
 -2.40817
 -1.94276
 -3.74969
 -3.99498
 -3.81233
 -4.03814
 2.32224
 2.55
 2.49578
 2.35381
 4.65326
 4.49735
 4.39325
 4.40016
 -6.78262
 -6.83676
 -6.55518
 -7.05889
 2.80879
 2.88224
 2.99094
 2.76885
 -0.245799
 -0.235568
 -0.369994
 -0.174122
 -7.02339
 -6.96084
 -6.59981
 -7.24802
 -1.44673
 -1.17886
 -1.53402
 -1.44224
 1.29518
 1.40446
 1.29781
 1.39225
 2.72322
 2.9057
 2.87537
 4.0883
 3.86036
 3.99865
 4.12346
 3.51283
 3.59752
 3.48954
 3.61759
 3.48214
 3.57654
 2.92916
 2.79469
 3.17232
 -3.42514
 -3.24999
 -3.21003
 -3.1728
 -5.49283
 -5.32313
 -5.37554
 -5.35089
 -1.75895
 -1.65774
 -1.72475
 -1.35693
 0.797611
 -4.57136
 -4.69346
 -4.66081
 -4.46495
 4.11051
 4.12207
 4.13341
 4.17102
 -6.14797
 -6.304
 -6.09399
 -6.46222
 1.74937
 1.92068
 1.59674
 -2.35264
 3.99916
 4.0244
 4.17017
 3.17957
 3.30167
 3.43311
 3.09587
 -0.0423388
 -0.00595285
 0.337025
 0.0913311
 -2.85636
 -2.8596
 -2.65647
 -3.06235
 0.808174
 -2.27319
 -2.13741
 -2.09505
 0.691901
 0.736064
 0.679878
 0.430164
 2.26187
 2.19658
 2.37464
 2.38021
 1.62208
 1.9075
 1.69887
 1.65604
 -2.39438
 2.97854
 2.93934
 2.84352
 -3.28891
 -3.1046
 -3.37023
 -3.18577
 -4.27292
 -4.17007
 -4.51326
 -4.083
 -5.38385
 -5.55664
 -5.35075
 2.2944
 2.279
 2.43583
 2.27378
 4.38493
 4.51529
 4.39767
 -3.75442
 -3.72442
 -4.29814
 -4.18565
 -4.0513
 -4.03594
 0.752733
 0.701884
 0.543053
 -6.27368
 -6.1937
 -6.42739
 -6.17568
 -4.06275
 -3.97456
 -4.09649
 -4.19286
 -1.45819
 -1.52273
 -1.64312
 -1.71017
 -0.289009
 -0.366734
 -0.206552
 -0.00411925
 2.7786
 2.80682
 2.87135
 2.70411
 -4.19143
 -4.19801
 -4.04976
 -4.4127
 2.13456
 2.06651
 2.3563
 1.62358
 1.42523
 1.38347
 1.3335
 -5.42657
 -5.35203
 -5.73623
 -5.55281
 -2.20544
 -2.24225
 -2.15522
 -2.04878
 -6.46838
 -6.26692
 -6.03428
 -6.33495
 1.69733
 1.54356
 1.44613
 1.47801
 -0.199737
 -0.281346
 -0.00127748
 -0.474217
 -4.4961
 -4.4491
 -4.63961
 -4.53449
 -0.0124471
 -0.19743
 0.0805798
 0.0293786
 -6.43642
 -6.73928
 -6.48077
 2.40159
 2.48264
 2.51637
 2.48203
 -0.773666
 -0.768363
 -0.673303
 -0.517029
 -1.30859
 -1.57227
 -1.35566
 -1.40604
 0.306321
 0.443791
 0.0674531
 0.34576
 -4.19509
 -4.19074
 -4.52632
 -4.30427
 0.606527
 0.875103
 0.70187
 0.784039
 -1.14605
 -1.07717
 -1.10109
 -0.931155
 4.2245
 4.21334
 4.24979
 4.22377
 -3.3818
 -3.43369
 -3.21
 -3.07653
 4.29157
 4.29593
 4.30013
 2.80715
 2.91504
 2.91452
 2.78606
 3.59457
 3.483
 3.10535
 3.41315
 -2.87958
 -2.78469
 -2.9639
 -3.13705
 -1.93001
 -2.27752
 -1.99019
 -2.05713
 1.78453
 1.99836
 1.97055
 2.10732
 -7.27865
 -7.09038
 -6.88498
 7.01867
 7.05316
 -1.13318
 -1.35112
 -0.9908
 -1.11742
 5.48729
 5.66451
 5.86119
 5.69159
 -1.88968
 -1.94559
 -2.24088
 -2.09633
 1.48008
 2.14866
 2.24247
 2.29807
 2.42877
 -2.93837
 -2.99221
 -3.04961
 -3.16046
 -4.67526
 -4.52399
 -4.83371
 -4.59868
 4.21564
 4.21586
 -2.38024
 -2.51674
 -2.92364
 -2.47926
 -0.754553
 -0.297519
 -0.811174
 -0.561927
 2.66179
 2.66211
 2.80007
 2.37464
 0.607044
 0.840438
 0.885329
 0.595403
 -3.85226
 -3.53557
 -4.17421
 -5.57773
 -5.49641
 -5.52742
 -5.50631
 -6.9417
 -6.93616
 -7.03713
 2.00789
 2.13874
 2.10041
 1.9583
 -5.16489
 -4.97487
 -4.86982
 -4.83991
 3.7036
 3.86327
 3.79848
 3.7538
 -1.73168
 -1.65756
 -1.77509
 -1.44757
 -0.557356
 -0.865199
 -0.621659
 -0.631638
 -5.59572
 -5.6083
 -5.58464
 -5.76319
 -2.08436
 -2.23058
 -2.0192
 -1.85433
 5.95435
 6.05075
 6.09545
 5.96123
 0.795103
 1.15228
 0.830104
 1.06561
 1.91628
 1.62612
 1.62751
 1.92281
 -2.79963
 -2.92723
 -2.66196
 -2.46571
 3.4441
 3.58807
 3.64832
 3.63608
 -1.08316
 -0.897749
 -0.910239
 -1.20962
 2.18475
 2.34517
 2.39449
 4.52397
 4.63404
 4.62252
 4.69316
 -1.17289
 -1.41578
 -1.01341
 -1.67446
 -1.64925
 -1.50613
 2.96147
 3.15983
 3.30664
 3.37467
 3.39037
 3.29859
 3.21885
 -4.99555
 8.34206
 8.26408
 8.28867
 8.41046
 -4.11616
 -3.93534
 -4.33164
 -4.08984
 3.90905
 1.57983
 1.62795
 1.67527
 1.37526
 1.94291
 2.09282
 1.64582
 2.93707
 2.64639
 2.78239
 2.87232
 5.88002
 5.9144
 5.79499
 6.05057
 3.71651
 3.56048
 3.57531
 -0.22181
 -0.0911905
 -0.096164
 2.03925
 2.12366
 -7.63413
 -7.3233
 -7.31281
 3.5924
 3.4053
 3.6749
 1.69943
 1.52026
 1.42526
 -5.16275
 -5.42747
 -5.41161
 -3.01426
 -3.02655
 -3.28102
 -3.0485
 2.79002
 2.68082
 2.60067
 4.30583
 4.50578
 -5.85256
 -5.66071
 -5.98674
 -5.87564
 5.29225
 5.23069
 5.44897
 5.0968
 3.55074
 3.62331
 7.35983
 7.48789
 6.60089
 6.62675
 6.54782
 1.64963
 1.50595
 1.75962
 -5.63983
 -5.35724
 -5.18027
 -2.25012
 -2.26565
 -2.5169
 2.6491
 2.52995
 2.31952
 2.19192
 2.39309
 -4.58235
 4.39323
 4.39545
 4.31484
 4.30779
 1.85703
 1.45384
 1.74531
 1.71408
 -2.72835
 -2.69568
 -2.87892
 -2.31338
 -2.35514
 -2.19187
 -2.26632
 1.67134
 1.75377
 1.53553
 1.35893
 -2.41524
 -2.48501
 -2.72135
 -2.70496
 -3.21356
 -2.99673
 -3.13682
 -3.43292
 0.326127
 -2.37662
 -2.49321
 -2.51624
 -2.61159
 -6.28325
 -6.42578
 -6.27285
 -6.11319
 3.11669
 3.48225
 3.54054
 3.27627
 -5.71477
 -5.93219
 -5.79102
 -5.75924
 7.50812
 7.42889
 7.55181
 -5.71251
 -5.53395
 -5.97385
 -5.8726
 3.04913
 3.09333
 3.29521
 3.27252
 -3.44316
 -3.17916
 -3.37499
 -3.5686
 3.52086
 3.50503
 3.94391
 3.84699
 -6.52827
 -3.74929
 -3.37602
 -3.53399
 -3.26777
 -4.70831
 -4.95611
 -4.86111
 4.21565
 4.11934
 4.28018
 4.35216
 -2.82482
 -2.63033
 -2.62697
 -2.47961
 -0.893409
 -1.15568
 -1.17093
 -1.06101
 -0.523683
 -0.672444
 -0.33471
 -0.308563
 -7.12925
 -6.83636
 1.23645
 1.21388
 1.24538
 1.61969
 1.42509
 1.33667
 1.2285
 -2.56391
 -2.37404
 -2.80292
 -2.86159
 -2.44619
 -2.56832
 -2.55751
 -2.79123
 -1.24389
 -1.29718
 -1.46952
 -1.16759
 2.97115
 2.98316
 2.43831
 2.58005
 2.59338
 1.6897
 1.52647
 1.52517
 1.49783
 4.64591
 4.80467
 4.76802
 4.77324
 1.83153
 2.00818
 2.19263
 5.8146
 5.81415
 5.64106
 1.84933
 1.8728
 2.0698
 1.70709
 2.98256
 2.71718
 3.05958
 0.626484
 -2.628
 -2.49997
 -2.83415
 1.29411
 1.35206
 1.18959
 1.0659
 3.67497
 3.66496
 3.17245
 3.42168
 0.256956
 0.0853142
 0.00348346
 -0.000511836
 -3.61485
 -3.43356
 -7.32796
 -7.11168
 -6.96362
 -7.35273
 -2.65573
 -2.605
 -2.80655
 -2.4274
 1.15228
 1.1898
 1.21905
 1.07661
 -6.44904
 -6.48139
 -6.96157
 -6.27644
 -5.94476
 -6.06216
 -6.13881
 -0.0154092
 0.292007
 0.399366
 0.114168
 4.00628
 4.05811
 3.90651
 1.09608
 1.11951
 0.842318
 1.1027
 4.23138
 4.46343
 4.2078
 4.48086
 -1.88808
 -1.88805
 -1.96475
 -1.37307
 4.18452
 4.18107
 4.19892
 4.14123
 2.8768
 2.75138
 2.69478
 2.78898
 -5.75889
 -5.45485
 -5.8445
 -5.54055
 -0.0960222
 -0.108607
 0.111192
 -0.122121
 1.90479
 2.03766
 1.83015
 2.01012
 -2.75875
 -2.79118
 -3.39244
 -3.82443
 -3.67698
 -3.63524
 1.44018
 1.18322
 1.25803
 0.949349
 0.876156
 0.718627
 0.817811
 0.84053
 3.87174
 3.73693
 3.9121
 1.56667
 1.72899
 1.85608
 7.97531
 8.12174
 7.99707
 8.07716
 2.73792
 2.65265
 4.22452
 4.13071
 4.21784
 4.40039
 -0.796227
 -0.54222
 -0.768427
 -0.474197
 5.79866
 5.58879
 5.50057
 5.68396
 3.34105
 3.39586
 3.60232
 -1.94906
 -2.01304
 -1.96822
 -1.84289
 3.28495
 3.10406
 3.35502
 3.63319
 3.6124
 3.81756
 3.76677
 1.75215
 1.8721
 1.84238
 1.60663
 -3.17183
 -3.84412
 6.69244
 6.61518
 2.86681
 3.03555
 1.00693
 1.21618
 1.1281
 1.17237
 -1.68021
 -1.88884
 -1.69313
 -2.02572
 0.429445
 0.403154
 0.272076
 0.229671
 4.20021
 4.51595
 4.27094
 4.37106
 -0.76923
 -0.474824
 -0.623054
 3.94155
 4.00119
 3.92018
 3.92976
 -4.9597
 -4.9437
 -5.17268
 -4.80309
 -1.70317
 -1.69974
 -1.71746
 -1.45407
 3.69004
 3.56054
 3.75433
 0.971463
 1.24397
 0.999352
 0.884773
 4.31549
 4.34698
 4.27232
 3.36798
 3.14765
 3.21829
 3.3406
 3.49564
 3.53665
 3.33664
 3.47068
 1.20035
 1.40172
 1.44791
 1.53503
 -6.07489
 -5.94581
 -5.79202
 -5.83796
 -1.14174
 -1.43563
 -1.29469
 -1.39295
 1.24238
 1.53913
 1.32669
 -0.114187
 0.00419114
 0.00234981
 -4.71031
 -4.33734
 -4.68128
 -4.44733
 -1.27786
 -1.32168
 -1.0624
 -1.43547
 1.45455
 1.2677
 1.21508
 1.20725
 4.58154
 4.54391
 3.73983
 3.85874
 3.63242
 3.62737
 7.01998
 7.07454
 7.22835
 7.02614
 -2.7513
 -2.78799
 -2.80313
 -2.66002
 3.13704
 3.35559
 3.29582
 3.31177
 0.383312
 0.614626
 0.468791
 0.744628
 4.90888
 5.00181
 4.96306
 5.03384
 -0.321476
 -0.196688
 -0.0653393
 -0.0802399
 0.994658
 -2.45436
 -2.33084
 -2.13644
 -2.21944
 1.37842
 1.64782
 1.69525
 1.45484
 1.49856
 1.37013
 1.20927
 1.28988
 2.11599
 2.32889
 2.25532
 2.37892
 3.63754
 3.84538
 3.51557
 -3.88758
 -3.94674
 -4.02139
 -3.51802
 1.5496
 1.62363
 1.62433
 1.70731
 -3.62402
 -3.72634
 -3.94144
 -1.87572
 -1.67349
 -1.84248
 -1.73139
 -3.12569
 -3.54182
 -3.32234
 -3.5743
 3.83538
 3.65716
 3.8721
 8.42626
 8.35847
 8.33992
 -2.24283
 -2.57869
 -2.4904
 -0.386099
 -0.811362
 -0.603676
 -0.86912
 1.88083
 1.79133
 1.6896
 1.88586
 1.19662
 1.11708
 1.42855
 1.35672
 6.188
 6.06223
 6.35593
 6.04811
 0.3229
 0.442454
 0.471341
 0.498652
 -0.917461
 -0.94772
 -1.12836
 -0.808133
 3.22067
 3.20214
 2.68941
 3.08974
 2.89106
 2.86407
 -2.07612
 -1.86724
 -2.01957
 -1.99063
 3.41876
 3.19817
 -1.14404
 -1.01752
 4.10401
 8.12659
 8.15733
 8.12968
 8.01517
 4.93079
 4.7362
 -6.71115
 -7.05017
 -6.77893
 4.44976
 4.27601
 4.1117
 4.28092
 -2.39755
 -2.3958
 2.88551
 2.93654
 2.90726
 2.88988
 2.21433
 1.82943
 1.97247
 -2.53324
 -2.67921
 -2.58594
 -2.87263
 -1.38972
 -1.65388
 -1.42026
 -1.51495
 -4.11142
 -4.13555
 -4.43716
 1.28504
 1.50126
 1.26207
 1.59254
 0.58662
 -4.24943
 -3.7893
 -4.1417
 -4.03602
 4.2834
 4.32979
 4.22356
 4.14007
 0.0258885
 0.249104
 -0.0115438
 0.223186
 -2.83844
 -2.44231
 -2.72601
 -2.50549
 7.38902
 7.34604
 7.29528
 7.27401
 3.66956
 -6.43568
 1.71448
 1.38466
 1.60062
 1.82195
 0.0108034
 -0.19839
 0.0922462
 0.168077
 2.97966
 3.24882
 3.10758
 3.03508
 -0.243496
 -0.122688
 -0.232504
 -0.284249
 3.87254
 3.82838
 3.64852
 3.93339
 3.7699
 3.64062
 3.78486
 1.21815
 1.00874
 1.34977
 1.2056
 -2.95683
 -3.17324
 -2.66217
 -7.38209
 -7.68145
 -7.4273
 -7.28949
 6.34185
 6.50527
 6.53417
 0.798132
 0.798198
 1.08544
 0.992316
 1.23284
 0.903089
 -5.22706
 -5.16587
 -5.14646
 -5.40404
 -2.21352
 -2.01249
 -2.10876
 -1.90167
 3.65256
 3.34463
 3.56208
 5.31457
 1.46087
 1.72512
 1.63564
 1.46885
 0.88237
 0.735127
 0.778998
 -1.8387
 -1.70454
 -1.72493
 -1.92423
 -2.811
 -2.50209
 -2.72704
 -2.5682
 1.61665
 1.76959
 -2.29782
 -2.26481
 -2.38467
 -2.57564
 -0.409257
 -0.331706
 -0.38189
 -0.609953
 -5.87561
 -6.02883
 -1.05842
 -0.820974
 -1.05666
 -0.939527
 -2.20323
 -2.33408
 -2.39729
 -2.50532
 -1.75022
 -1.91701
 -1.74522
 -1.76308
 0.69931
 0.568291
 1.33369
 1.18449
 1.36981
 1.50431
 2.21661
 2.41612
 2.3187
 2.2752
 -0.420995
 -0.585513
 -0.598665
 -0.432113
 3.83517
 3.68015
 3.57977
 3.48605
 3.01973
 3.05692
 3.13887
 3.06161
 6.72455
 6.63211
 6.64997
 6.81429
 2.22291
 2.56256
 -0.251283
 0.122126
 -0.162448
 -0.0355669
 1.66459
 1.71829
 1.5921
 1.44871
 0.171934
 0.0122798
 -0.0870487
 0.0845764
 1.22699
 1.19851
 -2.54122
 -2.42425
 -6.63395
 -6.6922
 -6.70581
 -6.78303
 4.30615
 1.3832
 1.40425
 1.32695
 1.16501
 0.368757
 0.605803
 0.539527
 0.512657
 2.62286
 2.7542
 2.81259
 2.98397
 -1.95725
 -1.62859
 -1.93138
 -1.64157
 -0.00279531
 0.160968
 0.242748
 0.0128347
 3.88851
 3.95543
 3.80259
 3.96558
 4.05952
 1.86419
 1.61058
 1.90136
 1.75259
 1.99475
 1.67185
 1.94584
 1.99267
 3.6278
 3.62222
 3.79817
 3.6347
 3.08533
 3.01939
 2.74724
 2.87005
 1.02581
 0.818391
 1.14493
 1.16365
 3.78128
 3.89797
 3.96329
 3.89309
 -0.243561
 -0.333153
 -0.000135003
 2.70968
 2.71403
 2.74473
 2.78766
 5.75731
 5.63566
 -0.181352
 -0.352028
 -0.412881
 0.107983
 -0.181379
 -0.0597144
 -0.1964
 4.21995
 4.07473
 3.9955
 4.79311
 4.7025
 4.69576
 4.77337
 -1.13096
 -1.09427
 -1.26606
 -1.01443
 -0.00744962
 0.312707
 -0.0341173
 -3.29294
 -2.82043
 -3.02618
 0.749504
 0.934176
 0.887084
 -4.07878
 -4.06072
 -4.11658
 6.97546
 7.09181
 7.08411
 6.98496
 -5.94384
 -6.04319
 -5.89381
 -6.06813
 2.312
 2.49899
 -0.477617
 -0.242406
 3.60287
 3.57935
 3.62611
 3.44052
 -0.886752
 -0.798174
 -1.08993
 -2.67275
 -2.88614
 -2.84454
 -2.8864
 -4.15717
 -3.75203
 4.233
 4.20998
 4.29268
 -0.199096
 -0.161026
 0.0649828
 2.99908
 3.20943
 2.98062
 4.12406
 4.12275
 4.18199
 4.26545
 1.44872
 1.35528
 1.58159
 1.27436
 1.74005
 1.98997
 1.92605
 1.77115
 -1.74002
 -1.65807
 -1.63414
 -1.91869
 -2.53105
 -2.33723
 -2.45508
 -2.15067
 1.92769
 1.92495
 1.74204
 -1.09937
 -1.02636
 -0.877451
 -1.97796
 -2.19252
 -2.03372
 -2.08911
 -7.94592
 -7.79157
 -8.02402
 0.617679
 0.667752
 0.676281
 -1.92683
 -2.08296
 -1.74835
 0.872677
 0.733245
 1.03154
 2.41032
 2.66309
 2.606
 4.22265
 4.13992
 4.18519
 4.14723
 0.735085
 1.09364
 0.851441
 1.02734
 2.78343
 2.86061
 3.01345
 3.73585
 3.52192
 -1.64909
 -1.48164
 -1.87312
 -1.61875
 -1.66795
 -1.88767
 -1.56338
 -1.39012
 3.56843
 3.36219
 3.25668
 3.18664
 3.7954
 3.99743
 3.88164
 4.0071
 5.176
 5.27279
 5.16829
 5.33895
 -5.33205
 -5.46398
 -3.73636
 -3.38282
 -3.57274
 -3.77069
 -6.00817
 2.5302
 2.29354
 2.54588
 0.43111
 0.355679
 0.547312
 0.616941
 3.66888
 3.69598
 1.01364
 1.06385
 0.859619
 4.3921
 4.31592
 -3.36096
 -3.38832
 -3.66956
 -3.16801
 -4.37321
 -4.30012
 -4.76184
 -4.51243
 -2.74016
 -2.79124
 -2.5041
 2.35282
 2.19087
 2.20296
 -4.22388
 -4.19025
 -4.29367
 -4.36642
 2.89976
 3.16639
 2.96335
 2.86674
 -2.95735
 -2.78322
 -2.73936
 -2.94815
 2.78186
 3.01737
 3.06854
 2.68951
 3.87385
 3.79287
 3.95053
 -6.02755
 -6.49215
 -6.26466
 -6.15882
 4.12241
 4.04966
 4.08556
 1.50661
 1.41772
 1.19709
 1.32784
 -5.69841
 -5.98849
 -5.83085
 2.80676
 2.97394
 2.76329
 2.89674
 -1.24684
 -5.07426
 -5.23809
 -4.65346
 -4.99389
 4.5026
 4.45233
 4.35708
 4.46175
 -1.78796
 -1.38711
 -1.68561
 -1.79996
 0.695691
 0.610765
 0.940754
 3.85486
 3.98486
 3.82496
 4.22127
 -1.32963
 -1.26723
 -1.4596
 3.11545
 3.19687
 6.82245
 6.97605
 6.81279
 6.72005
 5.01862
 5.43531
 5.45675
 -4.4132
 -4.28231
 -4.88494
 -4.48736
 -4.43088
 -4.59945
 4.82885
 4.76792
 4.96768
 4.71594
 1.80712
 1.70028
 1.71714
 1.61429
 1.09972
 1.41086
 1.38866
 1.29742
 -0.153779
 -0.0622373
 -0.342376
 -0.0864787
 -0.223275
 0.165312
 -0.0844116
 0.123237
 -5.41185
 3.92559
 4.00605
 3.91348
 3.97423
 -5.62007
 -5.43186
 -5.74325
 -0.401645
 -0.138874
 -0.0260228
 -0.127485
 4.17044
 3.97643
 3.91619
 0.133758
 0.338607
 0.179894
 0.352306
 0.790227
 -1.66259
 -1.74658
 -2.02706
 -1.9266
 2.88494
 2.88609
 2.88864
 0.795975
 0.394208
 0.542387
 -5.82261
 -5.69656
 -5.40941
 -5.66533
 0.869417
 0.938221
 1.01539
 7.44098
 7.38113
 7.54281
 0.884366
 1.04591
 0.906921
 1.25964
 -1.81044
 -2.05514
 -1.99084
 0.569943
 0.52564
 -4.01932
 -4.14149
 -3.86393
 -3.89924
 -2.70063
 -2.9318
 -2.79822
 -2.76401
 -6.21232
 -6.12643
 -5.94987
 -5.78449
 -0.0724135
 0.381885
 0.0549736
 -0.0313419
 -2.25567
 -2.19959
 -2.09362
 -1.98089
 -4.02129
 -4.22014
 -4.41039
 3.16995
 3.04151
 3.36628
 3.24998
 1.12572
 0.894732
 2.20613
 2.36619
 2.17828
 2.26544
 -1.60209
 -1.55876
 -1.55859
 -1.72584
 0.913076
 0.690659
 0.762955
 0.984423
 -1.38585
 -1.24811
 -1.57885
 -1.28711
 0.637531
 0.575031
 0.363644
 0.345969
 0.93288
 1.12913
 1.11044
 -3.79311
 -3.59244
 -3.74667
 -5.05404
 -5.03163
 -4.95002
 -5.40381
 -4.1902
 -4.16236
 -4.36458
 -2.25869
 -2.61697
 -2.31541
 6.36524
 6.38823
 6.51715
 1.17944
 0.890978
 1.1182
 -3.53969
 -3.67263
 -3.53822
 -3.50321
 1.18836
 1.07968
 1.20802
 -0.203176
 -0.298665
 -0.266282
 -0.0613034
 -1.30086
 -0.769764
 -0.955191
 -0.928645
 0.772108
 0.588675
 0.635083
 0.465857
 3.45918
 3.32573
 3.43617
 3.53191
 1.09674
 -0.199638
 -0.184834
 -0.325249
 0.127526
 4.14666
 4.08577
 4.0619
 4.07171
 4.14864
 3.99175
 4.0979
 3.99766
 3.77439
 3.66054
 3.7246
 3.82605
 -1.30765
 -1.27172
 -1.5805
 -1.72031
 3.06043
 3.19436
 3.10539
 3.07296
 -6.57897
 -6.29569
 -6.52988
 -6.31198
 5.32241
 5.23007
 5.09981
 5.1149
 3.10982
 3.08858
 3.13381
 4.5045
 4.63773
 4.72956
 4.69789
 3.77023
 3.89894
 3.64053
 3.9948
 3.96751
 0.413768
 0.455683
 0.296572
 -0.061312
 -5.00488
 -4.74052
 -4.6479
 -5.04563
 -4.99236
 -5.17624
 -4.90771
 3.66891
 3.80375
 -6.09355
 -6.30062
 -6.01133
 -3.89998
 -3.83958
 -3.89959
 -4.11284
 3.79831
 3.89607
 3.77538
 -6.06384
 -6.17242
 -5.97079
 -6.24681
 2.16861
 2.11678
 1.95728
 2.30437
 3.63787
 3.89873
 3.79297
 3.60268
 4.63572
 4.34839
 4.46585
 4.52542
 5.9365
 5.87797
 6.03629
 6.03046
 -0.770195
 -1.21624
 -0.990682
 -1.16062
 1.98379
 1.96948
 2.06342
 2.34975
 -6.08261
 -5.75655
 -6.05999
 7.58388
 7.40814
 7.52577
 7.32633
 5.0525
 4.85908
 4.97839
 4.81358
 -5.91381
 -6.29301
 -6.09734
 -6.06783
 0.722312
 0.685648
 0.486113
 -4.25594
 -4.64717
 -4.70477
 3.43186
 3.44936
 3.70686
 -6.16441
 -5.9088
 -5.87048
 -6.04413
 -3.98699
 -3.86319
 -3.79407
 -3.57112
 2.84552
 2.7245
 2.54462
 2.7285
 1.99941
 2.22442
 2.01778
 2.28655
 -2.87711
 -2.88346
 -2.94952
 -3.23745
 0.183843
 0.322221
 0.48915
 0.374466
 5.46774
 5.28661
 5.2822
 5.29801
 -4.19262
 -3.63397
 -3.99513
 -3.84637
 -6.47651
 0.3554
 0.290502
 0.127828
 0.135735
 -4.97547
 -5.15699
 -5.08482
 -5.39314
 4.10417
 4.10196
 4.07668
 4.0716
 -5.97084
 -6.18694
 -5.86714
 -5.75184
 0.923072
 0.988394
 1.9127
 2.03387
 1.86809
 1.79555
 -2.7566
 -2.4764
 -2.45728
 -2.46663
 -0.238049
 -0.51828
 -0.462224
 2.03994
 2.07636
 1.99047
 -2.77923
 -2.74088
 -2.44456
 -2.45415
 -2.31052
 -2.16712
 -2.44181
 -2.22927
 3.52811
 3.70383
 3.72543
 0.784925
 0.274414
 0.268674
 0.569188
 5.45851
 5.34787
 5.16144
 5.41975
 5.576
 -6.2069
 -5.67858
 -6.22339
 -5.81796
 0.381525
 0.520555
 0.626323
 0.391406
 -4.59279
 -4.78972
 1.32189
 1.65939
 1.63681
 3.00144
 3.20056
 2.87391
 2.93074
 -5.84892
 -5.72701
 -5.97492
 -5.9541
 3.88683
 3.82305
 3.84989
 2.93108
 3.0134
 2.84645
 2.99481
 2.10391
 1.86075
 2.04484
 2.31575
 -1.69079
 -2.16797
 -1.86998
 -1.98886
 3.24981
 2.97086
 3.12469
 3.15428
 -2.61401
 -0.733603
 -1.03364
 -1.11516
 -0.672839
 -4.94719
 -5.04251
 -4.73742
 -5.64703
 -5.52591
 -5.50733
 -5.29666
 -0.878811
 -1.02078
 -0.694698
 -0.848957
 -6.94102
 -6.91718
 -6.9034
 -6.6069
 2.19446
 -0.455709
 -0.109715
 -0.103643
 -0.361006
 0.327205
 0.696004
 0.523726
 0.451534
 5.90737
 5.72
 5.67146
 5.86084
 0.996269
 0.933141
 0.848697
 1.13142
 1.55285
 1.51526
 1.4399
 1.3287
 1.30748
 1.27398
 1.0864
 -4.40925
 -4.14724
 -4.03827
 1.48604
 1.73897
 1.69555
 1.55223
 -4.23843
 -4.63836
 -4.42278
 0.668477
 0.838951
 0.263062
 0.102075
 0.177349
 0.0963688
 0.17334
 0.0994947
 0.493277
 0.436847
 0.128897
 0.235737
 -4.67921
 -4.82283
 -4.81449
 2.12172
 -5.34786
 -0.233937
 -0.404608
 -0.203404
 0.0210602
 3.67188
 3.6465
 3.86609
 3.24553
 3.04023
 2.94875
 0.270017
 0.174588
 0.429044
 0.806373
 0.818023
 0.704359
 0.575743
 0.496321
 0.688418
 0.333224
 0.639824
 7.61065
 7.57673
 7.73061
 -2.83029
 -2.52601
 -2.80344
 0.940221
 0.872322
 -3.66757
 -3.278
 -3.39248
 -3.2688
 -0.588401
 -0.803883
 -0.592227
 5.77352
 5.74611
 5.94401
 5.86853
 1.44775
 1.71548
 1.49728
 1.65772
 3.44217
 3.5414
 3.64076
 3.70226
 -1.59653
 -1.23581
 -1.43351
 -1.57655
 2.45886
 2.63445
 2.49042
 2.74651
 5.38239
 5.41014
 5.4171
 2.08877
 2.17162
 2.29114
 2.23409
 -1.64359
 -1.94571
 -1.83886
 -1.85454
 0.648329
 0.3897
 0.357767
 0.505791
 3.17166
 3.27307
 3.15309
 1.79273
 1.97121
 1.88937
 1.92638
 3.28267
 3.5038
 3.24819
 3.44198
 4.17791
 3.93598
 3.97226
 4.23405
 -5.73934
 -5.89525
 -5.79121
 -5.87751
 3.78575
 3.62869
 3.68453
 3.62392
 3.26639
 3.41026
 3.19993
 3.21706
 -1.0303
 -1.36231
 -1.25114
 -1.44384
 2.11622
 2.17979
 1.96274
 2.05544
 -7.66676
 -7.76287
 -7.73603
 -7.80244
 1.387
 1.49032
 1.27712
 4.11101
 4.24872
 4.1942
 4.01563
 3.86809
 3.95692
 3.89649
 3.96094
 3.59796
 3.90986
 -1.9491
 -1.67812
 -1.90854
 -1.55182
 -7.1884
 -7.02507
 -7.13676
 -7.09215
 1.74197
 1.96379
 1.84263
 1.97336
 3.57518
 3.70002
 3.71742
 -1.4294
 -1.15144
 -1.13095
 -1.36906
 1.20946
 1.24038
 1.1297
 0.946906
 3.01775
 3.00524
 3.03179
 2.84932
 4.20945
 3.91794
 4.09366
 -3.14619
 -3.43082
 -3.55551
 -3.2069
 -3.73597
 -3.71648
 -3.45562
 1.67557
 1.68813
 1.53337
 1.41172
 1.50093
 1.60584
 1.34584
 3.03604
 2.82617
 2.73006
 2.79252
 -1.33404
 -1.24658
 -1.06834
 3.6365
 3.63814
 3.8513
 0.399007
 0.139624
 0.242585
 -3.79286
 -3.45016
 -3.65665
 -1.80397
 -1.74242
 2.18835
 2.03655
 2.21907
 2.03379
 1.95162
 2.04894
 0.983764
 1.2679
 2.83622
 4.42484
 4.39304
 4.55183
 -4.38946
 -4.34863
 -3.92417
 1.71298
 1.53122
 1.60043
 1.74676
 2.8705
 0.609131
 0.438159
 -1.48658
 -1.58056
 -1.4283
 -1.67633
 0.66885
 0.854306
 0.608758
 1.56692
 1.4441
 1.78272
 1.53336
 2.09669
 1.70312
 1.46622
 1.64519
 1.74828
 1.3632
 -4.46382
 -4.19011
 -4.12212
 -4.32619
 -4.63742
 -4.84231
 -5.1953
 -5.08728
 3.68885
 3.51899
 0.639557
 0.678925
 0.764214
 0.952286
 -0.21399
 -0.280851
 -0.378924
 -0.483147
 -1.14993
 -1.38247
 -1.13707
 -1.0898
 1.05566
 1.20353
 1.28676
 1.02777
 1.44578
 1.28625
 1.4029
 1.51073
 -3.77041
 -3.37446
 -3.73712
 -3.65592
 3.37644
 3.13432
 3.09044
 2.93268
 3.40385
 3.16566
 3.2925
 -2.98354
 -3.23426
 -3.54256
 -3.65516
 3.12078
 2.96185
 3.02033
 2.86798
 -5.12546
 -4.97794
 -5.18044
 -5.06237
 -3.86895
 -3.71036
 -3.8115
 -3.6461
 1.91378
 1.79567
 1.99907
 1.89542
 -1.9255
 -2.01997
 -1.86069
 -1.59877
 2.93908
 2.82134
 2.65509
 2.59947
 -2.72125
 -2.56011
 -2.6144
 3.73437
 3.6065
 3.76466
 3.6737
 -0.60822
 -0.512353
 -0.670107
 -0.768817
 2.09344
 2.02792
 -2.41898
 -2.84251
 -2.64618
 -2.54696
 -2.81544
 -2.75623
 -2.57227
 1.30658
 0.988956
 1.27228
 -3.21964
 -3.21346
 -3.32519
 -3.54369
 5.33769
 5.2738
 5.14611
 5.20245
 2.9504
 2.87247
 2.69231
 2.64006
 -0.770577
 -0.436209
 -0.479349
 -0.793917
 -4.72551
 -4.79544
 -4.59251
 -4.81247
 -3.96405
 -4.22448
 -4.26647
 -4.03044
 -4.9701
 -4.93991
 -5.01694
 -4.59129
 -4.7049
 2.44888
 2.31159
 2.46964
 2.26118
 3.44304
 3.37641
 3.67997
 3.48655
 2.65791
 2.65172
 2.15686
 1.92154
 2.09825
 2.10872
 1.55051
 1.52874
 1.27104
 1.52923
 3.44274
 3.43807
 3.59756
 0.216685
 0.375213
 0.332483
 0.430599
 -7.73213
 -7.64459
 -7.42193
 2.35572
 2.39723
 2.32304
 2.11582
 -3.5837
 -3.21798
 -3.44507
 -3.5379
 -1.68883
 -2.00294
 -1.89494
 0.565622
 0.705907
 0.451351
 -1.81537
 -2.11255
 -1.82773
 -3.76099
 -3.54404
 -1.5589
 -1.5931
 -1.59164
 2.8805
 2.7951
 2.73981
 2.98253
 -5.04314
 -5.2246
 -5.04041
 -4.94822
 -0.67246
 -0.971165
 -0.802705
 6.16364
 6.35847
 6.4193
 6.18581
 3.90733
 4.00967
 -0.168219
 2.10198
 1.80137
 2.00519
 2.09943
 0.354576
 0.0875822
 0.0997446
 -2.47027
 -2.51506
 -2.30345
 -2.48893
 -5.3359
 -5.47297
 0.811136
 0.905347
 0.894738
 1.05412
 4.14019
 4.29882
 4.31219
 4.09695
 -4.08482
 -4.24812
 -4.21683
 -4.09118
 -0.806318
 -0.917867
 -0.758603
 7.28365
 7.36096
 7.48821
 7.48681
 3.6793
 3.71584
 3.8848
 2.51652
 2.34239
 2.64015
 2.45648
 -0.593072
 -0.625845
 -0.476723
 -0.804395
 0.660106
 0.468086
 4.20785
 4.14956
 4.16884
 4.16034
 -0.99709
 -1.27393
 2.5731
 2.83888
 2.71423
 2.63706
 1.72469
 1.62663
 1.89734
 1.71164
 0.614136
 0.362716
 0.266408
 0.46383
 2.63003
 2.73851
 2.97397
 -1.65567
 -1.30013
 -1.66745
 -1.37734
 -3.14443
 -3.38845
 -3.61976
 -3.19389
 -2.78345
 -2.77113
 -2.80501
 -3.05523
 4.25189
 4.44418
 4.31328
 4.46737
 0.62691
 0.785274
 6.57525
 6.7462
 6.68095
 6.84908
 1.77833
 1.98785
 2.09211
 -6.01479
 8.00028
 7.95454
 7.95291
 8.17518
 0.888607
 0.759695
 0.895308
 0.872804
 2.30901
 2.09161
 2.21853
 -2.97697
 -3.21579
 -3.2439
 -2.95275
 -3.04242
 -2.93972
 -3.24903
 -3.24271
 -2.80282
 -2.93373
 -2.69623
 -2.59358
 2.81162
 2.62983
 2.92825
 2.63559
 3.60377
 3.67344
 3.79091
 3.76853
 -1.03464
 -1.03204
 -1.33968
 -1.01175
 1.60021
 1.9141
 1.50059
 1.71077
 -7.2602
 -4.92226
 -5.01466
 -0.500924
 -0.48344
 1.45028
 1.64024
 1.5889
 -5.14871
 -5.59148
 -5.31474
 -5.22303
 1.03999
 1.14378
 -0.320317
 -0.110981
 5.7785
 5.60271
 5.80524
 5.61607
 2.84437
 2.92657
 3.08016
 2.97214
 -0.920343
 -1.24363
 -0.974016
 -1.15743
 5.40758
 5.59807
 5.45092
 5.36856
 -6.67857
 -6.57113
 -6.8489
 -6.60977
 -4.81366
 -4.48749
 -5.48661
 -5.28008
 -5.03363
 -5.50887
 -3.15038
 -3.38188
 1.99849
 1.89232
 2.04943
 7.70193
 7.55196
 7.74953
 7.73188
 5.19324
 5.06655
 5.02817
 5.19055
 -4.95572
 -5.17688
 -4.95564
 -4.81057
 -2.06451
 -2.44921
 -2.23136
 0.142268
 0.379729
 0.54283
 0.27705
 2.56772
 2.29814
 2.52287
 2.60144
 -3.96748
 -4.23858
 -4.07169
 -5.01855
 0.390511
 0.086608
 2.68306
 2.60688
 -1.51282
 -1.82051
 -1.43946
 -1.54679
 3.50942
 3.75572
 3.43224
 3.77639
 3.83919
 4.03741
 3.9703
 7.4767
 7.22319
 7.26423
 7.34123
 2.48857
 2.36176
 2.38029
 2.18747
 -3.96547
 -4.0056
 -3.42212
 -3.66072
 -3.54681
 -3.6603
 2.9533
 2.96707
 2.75949
 3.09765
 -2.6035
 -2.44337
 -2.69891
 -1.64279
 -1.65746
 -1.72315
 -1.49664
 -3.57926
 -3.7874
 -3.49007
 -3.83177
 2.62613
 2.41559
 2.48828
 2.58825
 -5.67505
 -5.21628
 1.44466
 6.23408
 6.15575
 6.05042
 5.97939
 -2.59096
 -2.52516
 -2.75073
 5.21773
 5.3429
 5.26118
 5.40473
 -1.66492
 -1.63396
 -1.63056
 -1.87971
 4.02377
 4.032
 4.23926
 3.96892
 3.3677
 3.40149
 3.21775
 3.17791
 -1.22767
 -1.42426
 -1.44353
 2.13938
 2.03814
 2.19402
 2.32489
 -0.754124
 -0.698571
 -0.869999
 -0.480531
 -0.272236
 -0.0879441
 -3.3909
 -3.48582
 -3.45756
 -1.71064
 -1.74612
 -1.53534
 6.37931
 6.35255
 6.19019
 6.32569
 3.67131
 3.48232
 3.76612
 3.41596
 -4.12421
 -3.73659
 -3.74208
 -3.72177
 -3.15769
 -3.07879
 3.10563
 2.70336
 3.07243
 -1.65778
 -1.34999
 -1.41693
 -1.27338
 -1.52827
 -1.46042
 -1.34691
 2.79368
 2.90083
 2.76684
 2.72274
 -5.35399
 -5.36822
 1.96095
 2.04397
 1.95812
 1.82667
 2.94946
 2.93253
 2.85585
 -1.86578
 -1.94843
 0.783773
 0.898243
 0.822081
 0.608126
 4.0106
 4.08496
 -1.03723
 -0.944014
 1.9594
 2.27018
 2.2194
 2.0455
 0.18867
 0.195968
 0.366003
 0.0299191
 0.220943
 0.371908
 0.227603
 4.63297
 4.60947
 4.69785
 4.35289
 5.2574
 5.25012
 5.11787
 5.1729
 -1.80835
 -1.59105
 -1.37371
 -1.55362
 -4.3542
 -4.39586
 -4.19184
 -4.18289
 -0.287071
 -0.43226
 -0.213123
 0.559106
 0.685035
 0.803179
 0.753667
 0.645341
 -2.81282
 -2.87784
 2.46987
 2.26027
 2.45649
 2.51007
 3.35659
 -4.39372
 -4.35019
 -4.13044
 -4.22723
 0.466563
 0.864218
 0.748105
 0.534243
 7.24636
 7.1347
 1.29342
 1.58015
 1.31311
 6.42457
 6.37278
 6.45744
 6.28046
 -0.849972
 -0.64923
 -0.814568
 -0.724321
 4.00917
 3.8012
 3.75111
 2.90332
 2.72491
 -5.95933
 -5.90338
 -5.89431
 -5.37253
 -5.3603
 -5.19763
 3.69417
 3.40295
 2.87694
 2.87616
 6.82932
 6.94229
 6.95317
 6.97347
 -4.33719
 -3.97209
 -4.42813
 3.39973
 3.36171
 3.25794
 3.51657
 3.09759
 3.18182
 2.95491
 3.18753
 -1.84999
 -1.93272
 -2.06841
 -1.91804
 -0.713353
 -1.23202
 -0.997773
 -1.55317
 -1.60815
 -1.29845
 -1.58458
 -2.70596
 -2.43728
 -2.94659
 -2.28754
 4.1804
 4.16789
 3.56822
 3.55378
 3.47279
 -0.57921
 -0.472973
 -0.220556
 -0.334564
 3.24255
 3.25527
 3.024
 3.10672
 -2.16885
 -2.02523
 -2.08205
 -2.24287
 4.10874
 3.89036
 -4.33192
 -4.13911
 -4.20088
 -4.00131
 -2.05942
 -1.64845
 -1.82278
 -2.13256
 2.54897
 2.52764
 2.59274
 2.40635
 -3.82005
 -4.14237
 1.36383
 1.30296
 1.22703
 1.16814
 5.27343
 5.24644
 5.26551
 5.22464
 4.03459
 3.92668
 4.04341
 3.89032
 -6.18975
 -6.2761
 -6.34148
 -6.32039
 -4.84636
 -4.7282
 -4.63632
 2.63908
 2.67047
 2.70627
 -5.99457
 -6.12757
 1.26087
 1.1793
 1.34179
 1.04276
 -4.01631
 -3.81968
 -4.07391
 -3.8316
 3.10254
 3.21576
 3.0739
 3.24878
 4.66817
 4.47084
 4.5464
 -3.33987
 -3.6838
 -3.65634
 -3.65501
 1.8598
 1.56657
 1.61821
 1.69123
 3.56662
 3.48365
 3.34538
 3.71376
 4.3021
 4.56928
 4.21647
 -0.361921
 -0.117457
 -0.509374
 0.350371
 0.284361
 0.492557
 0.223278
 -0.441547
 -0.397306
 -0.64253
 -0.348338
 2.06024
 1.84716
 2.0521
 1.8553
 2.94201
 2.89693
 2.78202
 3.04099
 3.67743
 3.84165
 -1.4002
 -1.73423
 -1.36871
 -1.36254
 0.16422
 0.482637
 0.227512
 0.361416
 -0.0220907
 0.320526
 0.357503
 0.466853
 0.0504072
 0.250223
 6.30926
 6.2607
 6.10578
 6.22422
 -4.95659
 -5.21645
 -4.90656
 1.64891
 1.65625
 1.73579
 1.86625
 1.03795
 1.22845
 1.04267
 3.8844
 3.75924
 3.96185
 3.90272
 3.36949
 3.54853
 3.42247
 3.47063
 1.80747
 1.75304
 1.56785
 3.11603
 3.23223
 -2.02168
 -1.87509
 -2.19208
 -6.50186
 -6.51418
 -6.30539
 -6.4651
 3.42122
 3.6666
 3.6401
 3.41594
 1.0202
 0.815721
 0.73428
 0.958721
 -2.8182
 -2.89636
 -2.6143
 -2.62942
 3.26249
 3.16289
 3.32666
 3.02415
 2.68824
 2.55593
 2.48747
 2.31559
 -3.31987
 -3.09401
 -2.76956
 -2.86035
 2.75728
 2.52526
 -4.49374
 -4.39129
 -4.62564
 -0.476668
 -0.247625
 4.80756
 4.88393
 4.9528
 4.97768
 1.7034
 1.60458
 1.52817
 1.58096
 4.82733
 4.90336
 4.81774
 1.01126
 1.04889
 -0.831612
 -1.01999
 -1.27579
 -0.849145
 1.8201
 1.80099
 -1.32571
 -1.58405
 1.91511
 2.0506
 1.92674
 1.84799
 -1.44521
 -1.2525
 -1.56652
 -1.60282
 -2.51095
 -2.78302
 -3.05566
 -2.87451
 -5.87267
 -5.89762
 -5.79636
 -5.80579
 0.81888
 0.70616
 3.37321
 3.37691
 3.72037
 3.82084
 -2.56244
 -2.26412
 3.94569
 3.73205
 3.88891
 5.88194
 5.84884
 5.57214
 5.69418
 6.2065
 6.04108
 6.13218
 0.251586
 -0.0504768
 0.00605657
 0.038264
 1.85961
 1.6617
 1.81948
 3.46005
 2.59338
 2.42391
 2.69225
 2.4719
 3.54224
 3.38169
 3.69034
 3.5017
 2.13419
 2.30315
 2.09649
 2.28484
 -1.88055
 -1.39352
 -1.42397
 -1.81962
 -5.88274
 -5.78444
 -5.79435
 -5.99418
 1.39165
 1.4703
 1.15293
 1.25136
 -3.29929
 -3.15581
 -3.62355
 -3.54627
 2.61405
 -1.88177
 -1.49513
 -1.68226
 -1.62427
 4.59592
 4.70358
 4.61195
 4.58495
 -1.89541
 -2.155
 -2.16451
 2.35824
 -4.45623
 -4.46278
 -4.31536
 -4.85366
 -5.16275
 -5.1414
 -5.16683
 -5.58483
 -5.30794
 -5.51572
 -5.54859
 0.536575
 0.583008
 0.49693
 0.797804
 -5.41438
 -5.42901
 -5.52784
 -5.52427
 3.51442
 3.6623
 3.70616
 3.74793
 -1.18263
 -1.08234
 -1.12781
 -0.85931
 1.49107
 1.2154
 1.26614
 1.46246
 5.5517
 5.42625
 5.50837
 -0.865462
 0.936799
 1.00813
 1.12229
 0.824879
 -5.21978
 -5.46149
 -5.43668
 -5.53941
 -4.92208
 -5.07468
 -5.32438
 -5.24509
 -0.922839
 -0.84689
 -1.00677
 -0.797221
 2.6266
 2.75965
 2.83399
 2.74395
 1.74516
 1.50181
 1.65918
 -4.54381
 -4.72042
 -4.49608
 -4.26683
 -5.26652
 -5.41612
 -5.4234
 -5.17418
