 19.6245
 19.5201
 19.5515
 19.479
 17.6533
 17.6393
 17.5735
 17.5407
 18.1986
 18.2683
 18.1801
 18.2745
 18.1222
 18.1781
 18.2264
 18.2462
 16.9635
 16.8612
 17.0084
 17.0325
 17.003
 17.0834
 16.9399
 17.0535
 20.011
 20.0903
 20.0649
 20.0105
 19.9844
 19.9514
 19.9512
 20.0065
 16.9451
 16.9855
 17.0726
 16.9762
 17.0329
 17.0198
 17.054
 16.9122
 20.267
 20.3168
 20.2403
 20.226
 18.1545
 18.149
 18.2209
 18.1723
 19.2316
 19.2459
 19.3039
 19.178
 17.6541
 17.7653
 17.7994
 17.7323
 18.5264
 18.5401
 18.4947
 18.436
 19.7655
 19.822
 19.7255
 19.8202
 17.3048
 17.24
 17.3007
 17.1991
 17.9617
 18.0104
 17.9403
 17.9947
 18.5284
 18.5145
 18.5017
 18.4556
 17.2666
 17.2753
 17.2317
 17.1592
 19.9304
 20.0171
 19.9248
 19.9863
 16.7303
 16.7338
 16.6309
 16.6116
 20.8658
 20.9135
 20.9111
 20.8446
 17.8606
 17.8102
 17.884
 17.9008
 18.6383
 18.6831
 18.6034
 18.5891
 18.4199
 18.4106
 18.4535
 18.4784
 18.9674
 18.889
 18.8512
 18.9553
 19.7798
 19.8368
 19.7676
 19.7711
 19.2803
 19.301
 19.3723
 19.3278
 17.7441
 17.7602
 17.7863
 17.8465
 18.5902
 18.4622
 18.6099
 18.5697
 19.2239
 19.1588
 19.1658
 19.2201
 18.0391
 18.1257
 18.0382
 18.1105
 17.6239
 17.6646
 17.6642
 17.6539
 19.2376
 19.321
 19.2305
 19.3526
 19.6937
 19.6999
 19.7143
 19.7112
 18.0866
 18.1866
 18.1139
 18.1196
 20.0947
 20.0651
 20.0472
 20.0388
 17.878
 17.8655
 17.7267
 17.7606
 16.4413
 16.5487
 16.4707
 16.5688
 18.3324
 18.3591
 18.3199
 18.4177
 17.7904
 17.7207
 17.7499
 17.7964
 20.0241
 20.0268
 19.9584
 20.0762
 18.0117
 18.0832
 18.0525
 17.9769
 16.9464
 16.9792
 16.8963
 16.9475
 19.4337
 19.3699
 19.3986
 19.4288
 18.0246
 17.9036
 17.9364
 17.914
 19.6665
 19.5942
 19.6454
 19.7204
 19.2324
 19.281
 19.3084
 19.3287
 18.5167
 18.5748
 18.5859
 18.6548
 19.7976
 19.8296
 19.8529
 19.7869
 18.3635
 18.4337
 18.4235
 18.3773
 19.0923
 19.1716
 19.0782
 19.202
 18.3317
 18.2842
 18.323
 18.2883
 19.3164
 19.2513
 19.3027
 19.2065
 18.209
 18.2184
 18.1519
 18.2742
 17.8051
 17.8041
 17.7535
 17.7022
 17.7611
 17.8259
 17.7883
 17.8956
 19.3821
 19.4032
 19.4866
 19.3524
 18.915
 18.9555
 18.9535
 18.8594
 20.7452
 20.7794
 20.8241
 20.7714
 19.3166
 19.3407
 19.4078
 19.327
 18.6273
 18.5179
 18.5741
 18.5608
 19.0793
 19.0804
 18.9747
 19.1332
 19.1716
 19.0941
 19.1758
 19.1054
 19.8677
 19.9118
 19.849
 19.8512
 17.2277
 17.1273
 17.0804
 17.2325
 17.0032
 16.971
 16.9264
 16.8938
 18.4682
 18.3694
 18.5307
 18.4742
 19.2879
 19.3094
 19.2601
 19.3516
 17.8503
 17.8194
 17.7722
 17.8563
 19.896
 20.0488
 19.9877
 19.9844
 19.9316
 19.9926
 20.0226
 19.9248
 20.8969
 20.9489
 20.8861
 20.8981
 18.27
 18.1701
 18.2353
 18.1579
 19.4266
 19.3453
 19.3308
 19.416
 19.5953
 19.6499
 19.5579
 19.5558
 16.8241
 16.7193
 16.7578
 16.7049
 19.7581
 19.7967
 19.8567
 19.7777
 19.6129
 19.6513
 19.6943
 19.6171
 19.4749
 19.4196
 19.4861
 19.5453
 18.7901
 18.8063
 18.7412
 18.7504
 19.5574
 19.4716
 19.5353
 19.5066
 19.2455
 19.2078
 19.184
 19.2214
 18.91
 18.9324
 18.965
 18.9903
 19.7077
 19.8008
 19.6893
 19.7958
 21.0683
 21.0773
 21
 21.0001
 19.8765
 19.8501
 19.8008
 19.8407
 18.1974
 18.2622
 18.1776
 18.2987
 18.188
 18.2273
 18.1624
 18.2439
 17.7744
 17.8431
 17.8462
 17.7831
 20.058
 20.0694
 20.046
 20.0126
 16.6142
 16.6295
 16.7043
 16.5616
 17.8965
 17.8211
 17.9136
 17.8837
 20.07
 20.0654
 20.1343
 20.1518
 19.2023
 19.2107
 19.2343
 19.1131
 19.6343
 19.5792
 19.6983
 19.6516
 19.6171
 19.652
 19.6583
 20.0251
 20.0346
 20.0434
 20.0757
 18.0232
 18.0759
 18.133
 17.9963
 18.9386
 18.8318
 18.866
 18.9184
 18.165
 18.0809
 18.1583
 19.2983
 19.4016
 19.3309
 19.3599
 18.7571
 18.6864
 18.7111
 18.8008
 17.3524
 17.4936
 17.4826
 17.3109
 19.8978
 19.8893
 19.7969
 19.8304
 19.665
 19.7171
 19.7623
 19.7088
 18.2731
 18.3666
 18.3804
 18.3457
 17.908
 17.9626
 17.8331
 17.8397
 20.0108
 19.991
 20.0221
 20.0741
 19.7021
 19.6783
 19.5592
 19.5951
 18.9949
 18.9071
 18.8582
 18.9821
 17.0791
 17.0225
 17.0535
 17.033
 18.2326
 18.1437
 18.1057
 18.1503
 18.6664
 18.7862
 18.6944
 18.6662
 20.7811
 20.8605
 20.781
 20.7832
 18.8572
 18.9124
 18.8179
 18.7724
 17.3581
 17.4582
 17.359
 17.4819
 19.496
 19.6082
 19.4515
 19.4785
 19.7395
 19.7253
 19.7982
 19.7545
 19.739
 19.8125
 19.7972
 19.7768
 20.3794
 20.3875
 20.3852
 20.3485
 19.5295
 19.6433
 19.6328
 19.6355
 18.2557
 18.2594
 18.2459
 18.3124
 20.0559
 20.0261
 20.0031
 19.9786
 17.2306
 17.313
 17.2372
 17.2141
 19.9218
 20.0124
 20.0063
 19.9278
 17.4048
 17.537
 17.3876
 17.4733
 18.9449
 19.0078
 19.0048
 18.9574
 19.0932
 19.0158
 18.9953
 19.0655
 19.3964
 19.3962
 19.2926
 19.368
 19.5504
 19.5504
 19.6196
 19.632
 16.7212
 16.6233
 16.5953
 16.6118
 19.4888
 19.5431
 19.487
 19.5308
 16.4519
 16.5438
 16.4832
 16.6133
 17.8779
 17.9123
 17.8077
 17.8855
 20.5879
 20.5125
 20.5269
 20.5889
 16.8597
 16.8733
 16.8089
 16.7768
 19.7624
 19.6899
 19.7603
 19.8223
 20.5428
 20.5955
 20.6213
 20.5472
 17.5989
 17.6309
 17.6779
 17.6384
 16.9072
 16.7859
 16.8793
 16.9316
 18.4458
 18.436
 18.4653
 18.4942
 17.6998
 17.8007
 17.6811
 17.7936
 19.6639
 19.7521
 19.6997
 19.7261
 18.3035
 18.3391
 18.3104
 18.2392
 19.1632
 19.1784
 19.1178
 19.1115
 19.9634
 19.9237
 19.9815
 19.9825
 20.2263
 20.2405
 20.2502
 20.1777
 18.8973
 18.9248
 18.8507
 18.9522
 18.6718
 18.6886
 18.7059
 18.7622
 19.6959
 19.7056
 19.6425
 19.6368
 19.6889
 19.7983
 19.7022
 19.7098
 18.1445
 18.1221
 18.182
 18.192
 16.9711
 17.0439
 16.9091
 16.8812
 17.1558
 17.205
 17.1342
 17.1056
 17.2057
 17.3023
 17.2787
 17.2238
 17.9183
 17.9699
 17.8911
 17.97
 19.6883
 19.7965
 19.7168
 19.746
 19.6499
 19.592
 19.5727
 19.5603
 18.6666
 18.7203
 18.7956
 18.8186
 17.9253
 17.968
 17.8562
 17.9185
 17.9537
 17.9993
 17.9616
 17.8987
 18.4842
 18.5604
 18.5001
 18.4837
 18.2149
 18.1417
 18.23
 18.2175
 20.1185
 20.1267
 20.0849
 20.0178
 21.3036
 21.353
 21.2947
 21.3737
 19.4805
 19.488
 19.5687
 19.5201
 21.1175
 21.0427
 21.0592
 19.5374
 19.5564
 19.5058
 19.5876
 17.2326
 17.2921
 17.2506
 17.3087
 18.5625
 18.5278
 18.5014
 18.4377
 17.0843
 17.128
 17.035
 17.1466
 19.7184
 19.7074
 19.7943
 19.7278
 17.9585
 17.9571
 17.8146
 17.8518
 18.4647
 18.4883
 18.5763
 18.5125
 16.7542
 16.6937
 16.6736
 16.8471
 17.5941
 17.6145
 17.5754
 17.5007
 19.4552
 19.3801
 19.4312
 19.4576
 17.9222
 17.9309
 18.0115
 17.9087
 17.4408
 17.573
 17.5065
 17.55
 20.5226
 20.6074
 20.5871
 20.6018
 18.5806
 18.5522
 18.4979
 18.4873
 17.4231
 17.3889
 17.3842
 17.4664
 18.1685
 18.0943
 18.2217
 18.0441
 17.4194
 17.5162
 17.4105
 17.4146
 19.6177
 19.5444
 19.5042
 19.5219
 17.5502
 17.3986
 17.5688
 17.4286
 18.9376
 18.8961
 19.0186
 18.9381
 18.7875
 18.7577
 18.7071
 18.8062
 17.593
 17.6328
 17.6914
 17.5495
 16.4954
 16.5732
 16.5761
 16.5208
 20.1455
 20.1036
 20.0608
 20.0346
 19.2746
 19.1991
 19.1642
 19.2561
 18.2564
 18.3132
 18.3453
 18.3222
 17.6445
 17.5797
 17.605
 17.5684
 19.4574
 19.5284
 19.4941
 19.4852
 19.9859
 19.9064
 19.8665
 19.9694
 17.883
 17.8773
 17.9909
 17.9774
 18.0733
 18.0026
 18.079
 18.0449
 16.8397
 16.7527
 16.6777
 16.8305
 19.8082
 19.7081
 19.8275
 19.766
 16.9526
 16.8597
 16.8739
 16.9358
 19.2816
 19.2048
 19.2711
 19.2956
 21.2531
 21.2611
 21.2235
 21.2096
 17.2276
 17.1928
 17.1208
 17.1744
 18.0528
 18.0062
 18.1014
 18.1707
 17.3151
 17.3009
 17.3622
 17.3646
 18.7305
 18.8246
 18.7691
 18.726
 18.9142
 18.8773
 18.8605
 18.904
 17.6978
 17.8053
 17.799
 17.7587
 19.7011
 19.6628
 19.7401
 19.684
 19.8602
 19.8194
 19.8082
 19.85
 20.8609
 20.8944
 20.9093
 20.9229
 18.4008
 18.3525
 18.3118
 18.2819
 18.6481
 18.6783
 18.5439
 18.6367
 18.2167
 18.3499
 18.2452
 18.1896
 19.2255
 19.1134
 19.1009
 19.2402
 16.9029
 16.9034
 16.8489
 17.0063
 16.8829
 16.7377
 16.8831
 16.9027
 18.1371
 18.0994
 18.034
 18.0259
 21.7367
 21.7491
 21.7228
 21.6738
 18.9264
 18.9737
 18.9137
 19.0178
 18.8937
 18.9129
 19.0041
 18.913
 18.9342
 18.9129
 19.0163
 19.0092
 17.5965
 17.6358
 17.5201
 17.6428
 20.6881
 20.6069
 20.7298
 20.6895
 20.8893
 20.9041
 20.9474
 20.9847
 17.5076
 17.5732
 17.511
 17.6085
 19.3455
 19.2471
 19.3826
 19.266
 19.1151
 19.134
 19.1005
 19.0967
 18.0088
 18.042
 18.0796
 18.1562
 19.8035
 19.7587
 19.7314
 19.7735
 17.5555
 17.6231
 17.6133
 17.5417
 19.2076
 19.3436
 19.2835
 19.3916
 19.3159
 19.3215
 19.3896
 19.3401
 19.9981
 20.0413
 19.9622
 20.0467
 19.0153
 18.9184
 18.9671
 18.9006
 17.3959
 17.351
 17.3627
 17.422
 17.9599
 17.8698
 17.836
 17.9177
 19.7745
 19.7833
 19.7163
 19.7189
 19.478
 19.382
 19.3825
 19.4742
 17.1573
 17.1168
 17.0508
 17.0982
 17.6291
 17.7065
 17.664
 17.682
 18.8567
 18.889
 18.9382
 18.8854
 20.0954
 20.0768
 20.0805
 20.0502
 20.3979
 20.2886
 20.3157
 20.3891
 18.1021
 18.1992
 18.2362
 18.16
 19.9047
 19.976
 19.9072
 20.0488
 17.2436
 17.3565
 17.3488
 17.2525
 18.2777
 18.1612
 18.2271
 18.2959
 17.5817
 17.6126
 17.6484
 17.5919
 17.91
 18.0207
 18.0077
 17.9407
 18.9199
 18.9694
 18.9128
 18.8603
 19.6236
 19.759
 19.7289
 19.6684
 20.277
 20.1656
 20.2605
 20.2529
 20.0195
 20.1161
 20.0118
 20.04
 19.645
 19.7264
 19.7404
 19.6876
 18.806
 18.7756
 18.7716
 18.9157
 18.8239
 18.7616
 18.788
 18.8516
 18.74
 18.8081
 18.6804
 18.7504
 18.1845
 18.2313
 18.1454
 18.1611
 20.6188
 20.6987
 20.6534
 20.6602
 18.5297
 18.5036
 18.5423
 18.4541
 19.789
 19.867
 19.8313
 19.8142
 19.1276
 19.0219
 19.0993
 19.0426
 16.9735
 17.1324
 17.0006
 17.0497
 18.7827
 18.8233
 18.8271
 18.8639
 19.9265
 19.9699
 19.9449
 20.0287
 19.0841
 19.1078
 19.0406
 18.9994
 19.6031
 19.5593
 19.5626
 19.6327
 18.8578
 18.9615
 18.8618
 18.9473
 20.5694
 20.63
 20.6012
 20.5395
 19.1338
 19.1251
 19.0674
 19.0551
 18.0921
 18.1162
 18.047
 18.1219
 18.1842
 18.1752
 18.1423
 18.1691
 17.0698
 17.25
 17.1108
 17.1761
 19.4458
 19.4552
 19.3774
 19.4321
 19.6268
 19.5738
 19.6415
 19.4951
 17.0302
 17.1633
 17.0398
 17.0661
 19.6116
 19.6102
 19.5301
 19.6073
 17.4431
 17.4732
 17.3715
 17.4854
 18.5229
 18.4038
 18.4736
 18.4162
 18.8255
 18.9438
 18.8342
 18.8084
 19.679
 19.5936
 19.6026
 19.6797
 18.8694
 18.8631
 18.7577
 18.8548
 17.4221
 17.444
 17.4082
 17.398
 21.3156
 21.2873
 21.2651
 21.3618
 20.1295
 20.1479
 20.1484
 20.122
 20.039
 20.0199
 20.0411
 20.0965
 19.3394
 19.3012
 19.3822
 19.2704
 19.139
 19.206
 19.1573
 19.1962
 19.4369
 19.4867
 19.5048
 19.4339
 16.8176
 16.8605
 16.7078
 16.8685
 19.7093
 19.7635
 19.7598
 19.6505
 18.2401
 18.2414
 18.2088
 18.3039
 18.7463
 17.5463
 17.6414
 17.6364
 17.6612
 18.3291
 18.2512
 18.1883
 18.252
 20.2016
 20.1625
 20.1465
 20.1771
 19.2677
 19.3015
 19.2359
 19.1856
 19.4863
 19.5699
 19.5172
 19.5168
 17.359
 17.4591
 17.4394
 17.4283
 19.0543
 19.1749
 19.0897
 19.1215
 17.2519
 17.2402
 17.3397
 17.325
 17.9531
 17.9
 17.9935
 17.8779
 20.1675
 20.114
 20.1439
 20.0477
 19.667
 19.7491
 19.6131
 19.6726
 18.1954
 18.1365
 18.1228
 18.185
 18.8455
 18.9465
 18.8287
 19.9896
 20.025
 19.9901
 19.9588
 18.1011
 18.2591
 18.1495
 18.2202
 19.5253
 19.6241
 19.6027
 19.5679
 18.8797
 18.9981
 18.934
 18.8688
 17.1799
 17.1808
 17.3249
 17.207
 19.3516
 19.3845
 19.4335
 19.3669
 17.5845
 17.7081
 17.6152
 17.5758
 18.7288
 18.7937
 18.7348
 18.8312
 17.7298
 17.7901
 17.8696
 17.815
 17.2955
 17.2946
 17.1825
 17.2337
 19.2962
 19.3091
 19.2434
 19.2498
 21.2581
 21.1607
 21.1654
 21.1178
 16.6592
 16.7211
 16.7295
 16.7379
 18.1719
 18.2191
 18.2451
 18.1901
 19.7997
 19.8099
 19.663
 19.7761
 19.1102
 19.0387
 19.0324
 19.1128
 20.4841
 20.4636
 20.4776
 20.536
 17.2619
 17.1982
 17.0839
 17.1718
 20.0388
 20.0926
 20.0639
 20.0531
 18.4356
 18.3552
 18.4719
 18.4119
 19.7234
 19.8699
 19.7518
 19.7646
 16.584
 16.5993
 16.5936
 16.6971
 16.7237
 16.7487
 16.8147
 16.8782
 17.8626
 17.9451
 17.9736
 17.838
 18.3868
 18.3574
 18.3797
 18.4481
 18.3694
 19.8639
 19.8507
 19.9354
 19.8814
 19.7654
 19.7953
 19.8228
 19.744
 18.0723
 17.9941
 17.9887
 17.9774
 19.9176
 19.8498
 19.8506
 19.9218
 19.6005
 19.6317
 19.6387
 19.567
 17.891
 17.8558
 17.867
 17.9576
 19.25
 19.1511
 19.2485
 19.1555
 18.0792
 18.0719
 18.0676
 17.9994
 19.5613
 19.5783
 19.6405
 19.5801
 19.3674
 19.3186
 19.2952
 19.2882
 18.9687
 18.8826
 18.9967
 18.9146
 18.4215
 18.324
 18.3736
 18.2826
 17.6555
 17.7018
 17.5614
 17.5897
 18.4988
 18.5239
 18.5702
 18.5589
 18.5292
 18.4787
 18.4622
 18.4781
 20.221
 20.2225
 20.1766
 20.1505
 18.219
 18.2155
 18.1657
 18.2035
 18.7696
 18.7534
 18.7076
 18.7669
 18.6676
 18.6816
 18.7368
 18.6903
 19.2642
 19.2466
 19.3283
 19.2722
 19.9812
 19.9913
 19.9469
 20.0572
 17.8168
 17.8507
 17.8068
 17.7657
 19.9531
 20.0095
 19.9894
 19.898
 16.8398
 16.847
 16.7121
 16.7937
 17.6588
 17.7245
 17.6122
 17.6548
 17.6286
 17.6123
 17.6011
 17.6397
 17.4474
 17.4913
 17.4994
 17.3952
 17.9614
 17.9205
 18.0021
 17.9226
 20.4965
 20.5397
 20.6122
 18.5638
 18.6831
 18.5829
 18.5936
 17.6991
 17.7456
 17.7703
 17.7146
 19.2998
 19.3902
 19.3431
 19.3223
 19.5838
 19.5529
 19.616
 19.5458
 17.9246
 17.9067
 17.8467
 18.0018
 18.9751
 18.999
 18.9742
 18.8902
 19.5098
 19.5027
 19.5424
 19.5466
 16.8582
 16.7286
 18.2362
 18.2471
 18.3394
 18.3253
 18.9344
 18.9666
 19.011
 18.5099
 18.4789
 18.4887
 18.581
 20.2886
 20.3229
 20.2394
 20.2502
 17.5851
 17.5225
 17.5201
 17.6284
 18.5436
 18.5654
 18.6165
 18.6032
 19.3075
 19.3745
 19.3304
 19.2592
 18.5988
 18.6824
 18.6568
 18.6178
 19.9632
 20.0039
 19.9303
 19.9652
 20.1248
 19.9946
 20.0902
 20.0641
 18.9731
 18.9091
 18.88
 18.9289
 19.8937
 19.9093
 19.9073
 19.8461
 18.8584
 18.902
 18.8843
 18.9157
 17.4563
 17.4819
 17.583
 17.5937
 19.863
 19.8174
 19.782
 19.8351
 20.8353
 20.7683
 20.7968
 20.7624
 18.2691
 18.4285
 18.3389
 18.2931
 19.0721
 19.0135
 19.0879
 19.0158
 19.9526
 19.9657
 19.8866
 19.9029
 18.9361
 18.9766
 18.8886
 18.9044
 17.2844
 17.3156
 17.2603
 17.2769
 19.6553
 19.6625
 19.7023
 19.6678
 18.3683
 18.4116
 18.4095
 18.444
 19.1298
 19.0304
 19.0933
 18.9816
 17.9936
 17.927
 17.9312
 17.8699
 17.5254
 17.5269
 17.4799
 17.5658
 19.8101
 19.7464
 19.7885
 19.6766
 19.3851
 19.3247
 19.3403
 19.3598
 18.4026
 18.4113
 18.5193
 18.4481
 19.9923
 19.9608
 19.9735
 19.9485
 21.2693
 21.3356
 21.33
 21.2928
 18.6118
 18.6818
 18.6908
 18.691
 21.4197
 21.4382
 21.399
 21.3533
 21.2982
 21.2243
 21.2202
 21.2537
 20.2693
 20.2226
 20.227
 20.291
 18.1988
 18.2595
 18.3132
 18.3409
 18.2563
 18.176
 18.1764
 18.1154
 18.1178
 18.1963
 18.1381
 18.2327
 18.3173
 18.4093
 18.3908
 18.283
 20.571
 20.6274
 20.588
 20.6062
 19.8262
 19.868
 19.781
 19.8115
 19.8143
 19.9182
 19.9067
 19.8762
 19.2183
 19.1292
 19.2132
 19.1197
 18.5072
 18.5589
 18.5056
 18.5421
 18.0033
 18.0081
 18.0489
 17.972
 19.7134
 19.6273
 19.6151
 19.6999
 18.1742
 18.9611
 18.9042
 18.8998
 18.9516
 16.6989
 16.6785
 16.5614
 16.6336
 19.0612
 19.0628
 18.9976
 19.0568
 17.3228
 17.2124
 17.2931
 19.8928
 19.8439
 19.8197
 19.908
 21.1185
 21.0543
 21.0741
 21.0344
 18.8274
 18.841
 18.7472
 18.8878
 19.2737
 19.3742
 19.3532
 19.3654
 19.9038
 19.8463
 19.803
 19.7865
 19.7621
 19.7325
 19.8038
 19.7258
 20.3452
 20.46
 20.3912
 20.396
 18.4298
 18.4411
 18.3792
 18.2647
 18.8749
 18.7927
 18.8933
 18.8292
 19.4828
 19.5452
 19.4831
 19.5066
 18.965
 19.0314
 18.8702
 17.795
 17.8487
 17.8667
 19.6342
 19.6294
 19.7251
 19.7411
 20.3933
 20.427
 20.4251
 20.3968
 19.4893
 19.4396
 19.4407
 19.5075
 20.2926
 20.361
 20.2781
 20.3905
 17.8122
 17.6706
 17.7746
 17.7495
 17.8637
 17.8309
 17.8027
 17.7511
 19.9977
 20.0293
 20.0151
 20.0259
 20.4189
 20.5133
 20.4542
 20.427
 18.5902
 18.7007
 18.6109
 18.6568
 16.9649
 17.0448
 16.9134
 17.0225
 20.3567
 20.3574
 20.3986
 20.3507
 18.1606
 18.251
 18.2531
 18.143
 20.8891
 20.9298
 20.8783
 20.9102
 17.997
 17.9376
 18.0218
 17.8688
 19.1683
 19.2313
 19.1343
 19.2565
 17.8212
 17.8188
 17.7224
 17.7362
 19.9064
 19.8804
 19.8622
 19.7897
 19.3098
 19.3759
 19.364
 19.3724
 19.5725
 19.6005
 19.5225
 19.5221
 19.5404
 19.5756
 19.4844
 19.6038
 18.6238
 18.5705
 18.5816
 18.6555
 19.0268
 19.0981
 19.0184
 19.0229
 17.6814
 17.7662
 17.8025
 17.7579
 16.8141
 16.73
 16.916
 16.9306
 19.0935
 19.1023
 19.1628
 19.1098
 17.4643
 17.4946
 17.5407
 17.403
 18.042
 17.9181
 17.8782
 17.9315
 20.5805
 20.6226
 20.69
 20.598
 19.9652
 19.835
 19.8583
 19.9003
 19.1884
 19.2459
 19.2684
 19.2323
 20.3261
 20.3807
 20.3956
 20.4298
 18.5402
 18.4489
 18.4619
 18.503
 17.808
 17.6528
 17.7387
 17.7153
 20.2803
 20.1808
 20.2725
 20.2816
 18.9328
 18.8657
 18.9152
 18.9012
 19.51
 19.5226
 19.5199
 19.5596
 21.2329
 21.1838
 21.1607
 21.2203
 19.3431
 19.3571
 19.359
 19.2911
 18.8809
 18.829
 18.8457
 18.8148
 18.1351
 18.0584
 18.1105
 18.033
 19.6074
 19.5894
 19.5767
 18.8635
 18.878
 18.8988
 18.8834
 19.3746
 19.421
 19.278
 19.3587
 18.255
 18.3361
 18.2593
 18.3046
 18.2077
 18.1061
 18.1461
 18.1432
 17.2914
 17.3576
 17.3125
 17.4223
 19.7649
 19.7754
 19.7156
 19.7874
 16.9735
 16.9499
 16.9139
 16.9527
 19.6373
 19.5682
 19.6311
 19.6722
 18.8826
 18.7927
 18.8045
 18.7586
 18.7871
 18.8789
 18.8422
 18.8953
 21.3538
 21.414
 21.3547
 21.3754
 19.401
 19.4487
 19.3935
 19.3798
 18.8964
 18.9206
 18.84
 18.7494
 18.9675
 18.9461
 18.9275
 19.04
 16.6627
 16.6699
 16.7676
 16.7061
 19.6423
 19.5588
 19.511
 19.6187
 19.5424
 19.5895
 19.4988
 19.6099
 18.051
 17.9489
 18.0244
 17.9875
 19.8413
 19.8572
 19.9012
 19.9101
 19.8745
 19.8898
 19.8426
 19.899
 18.2511
 18.3578
 18.2617
 18.3287
 18.2469
 18.2376
 18.3154
 18.237
 18.7122
 18.7007
 18.5762
 18.6292
 19.5644
 19.603
 18.4523
 18.5183
 18.4162
 18.5002
 19.5596
 19.5149
 19.5645
 19.5386
 19.15
 19.0654
 19.0343
 19.0582
 17.2772
 17.3369
 17.375
 17.2726
 19.0581
 19.0334
 18.993
 18.9763
 17.9074
 17.8479
 17.8145
 17.9317
 19.6772
 19.553
 19.5965
 19.5611
 19.2816
 19.3576
 19.3659
 19.3351
 18.9293
 18.7795
 18.855
 18.8516
 19.8177
 19.8848
 19.9107
 19.8583
 20.7854
 20.7452
 20.788
 20.821
 17.1168
 17.1379
 17.1875
 17.149
 20.298
 20.2982
 20.2668
 20.3245
 18.4858
 18.4536
 18.5387
 18.5346
 20.7818
 20.7688
 20.7467
 20.8202
 18.5037
 18.4175
 18.4706
 18.4818
 19.6397
 19.6491
 19.6778
 19.6598
 19.6651
 19.6408
 19.7169
 19.671
 18.6511
 18.6212
 18.7141
 18.661
 17.6173
 17.7062
 17.6238
 17.7247
 19.3018
 19.179
 19.1985
 19.201
 20.0184
 20.0449
 20.014
 19.9758
 17.6323
 17.5035
 17.5634
 17.4727
 19.6062
 19.6431
 19.5543
 19.5431
 19.2346
 19.1568
 19.1804
 19.1311
 18.0027
 17.831
 17.8737
 17.926
 18.7476
 18.6702
 18.6441
 18.6429
 18.9955
 19.0213
 18.9831
 18.9364
 17.2668
 17.213
 17.1554
 17.1197
 17.6417
 17.5998
 17.6132
 17.6549
 18.5938
 18.5735
 18.6834
 18.6434
 19.0163
 18.9713
 19.0519
 18.8841
 19.4116
 19.3851
 19.384
 19.2811
 20.0077
 20.0114
 20.0733
 17.8779
 17.836
 17.8356
 17.7783
 20.8106
 20.853
 20.9248
 20.8994
 18.1139
 18.2187
 18.1626
 18.1885
 19.7533
 19.8527
 19.7972
 19.7896
 19.9275
 20.0096
 19.9835
 19.9947
 17.4319
 17.5221
 17.4794
 17.3589
 18.7906
 18.837
 18.7632
 18.818
 18.9364
 18.9646
 19.5696
 19.1095
 19.0276
 19.1288
 19.0721
 20.7983
 20.7374
 18.2614
 18.2316
 18.205
 20.1183
 20.0858
 20.1758
 20.1209
 18.1801
 18.2731
 18.2446
 18.2382
 19.2179
 19.1419
 19.1642
 19.1752
 19.5932
 19.4757
 19.5445
 19.5285
 17.3767
 17.3759
 17.2612
 17.3431
 20.1137
 20.0422
 20.1204
 20.0352
 18.3822
 18.3871
 18.3528
 18.3042
 17.0982
 17.084
 17.1973
 17.1991
 18.7912
 18.8822
 18.8151
 18.8705
 18.3163
 18.4491
 18.4089
 18.4085
 18.9513
 18.8873
 18.9494
 19.0708
 16.6899
 16.8794
 16.7162
 16.8751
 16.8715
 16.8577
 16.9111
 17.0006
 17.0573
 17.1112
 17.1198
 17.0491
 19.1457
 19.213
 19.1325
 19.1441
 18.5415
 18.6545
 18.6088
 18.5636
 19.0225
 19.0327
 19.0902
 19.0457
 19.1964
 19.211
 19.1208
 19.2255
 18.1787
 18.1567
 18.1454
 18.2468
 17.6551
 17.5606
 17.6093
 17.5417
 17.6025
 17.5665
 17.6552
 17.5176
 18.7441
 18.7023
 18.7637
 18.7081
 19.0004
 18.9939
 19.0264
 19.0645
 19.659
 19.6994
 19.676
 19.5899
 17.9354
 17.861
 17.853
 17.9636
 20.2735
 20.2643
 20.3387
 20.2588
 17.8893
 17.8429
 17.8873
 17.8954
 18.6653
 18.5278
 18.6493
 18.5574
 18.6913
 18.6792
 18.6728
 18.7589
 20.0401
 20.0441
 20.0752
 20.1374
 21.5109
 21.4604
 21.5367
 21.5268
 19.3738
 19.2961
 19.3728
 19.3568
 17.8483
 17.9448
 17.8989
 17.8463
 19.9037
 19.9782
 19.9229
 19.8728
 18.5205
 18.4723
 18.576
 18.4776
 18.4419
 18.3806
 18.2995
 18.3269
 18.0265
 17.9803
 18.1094
 18.0741
 20.4338
 20.4667
 20.4746
 20.4135
 20.4183
 20.4034
 20.44
 20.4569
 17.797
 17.6704
 17.7065
 17.7393
 18.1737
 18.2958
 18.3201
 18.2398
 19.4404
 19.4281
 19.4729
 19.473
 18.9226
 18.9435
 18.8671
 18.8268
 18.7124
 18.6923
 18.6953
 18.7482
 19.4319
 19.4963
 19.3628
 19.4706
 18.3389
 18.4022
 18.369
 18.4353
 16.3205
 16.4576
 16.3581
 16.3375
 18.4715
 18.3573
 18.3743
 18.3205
 18.9099
 18.8736
 18.9291
 18.8329
 18.8722
 18.8751
 18.9444
 18.8783
 18.6873
 18.6256
 18.6757
 18.7474
 16.9912
 16.9927
 17.0762
 17.0043
 17.7038
 17.7887
 17.7406
 18.3601
 18.3515
 18.312
 18.3702
 20.012
 20.0236
 19.9481
 20.0261
 19.1579
 19.1596
 19.2208
 19.1318
 17.6273
 17.7461
 17.7912
 17.7392
 19.6573
 19.6243
 19.612
 19.5783
 19.306
 19.3578
 19.3644
 19.2812
 19.1878
 19.2292
 19.3159
 19.2342
 18.1779
 18.2434
 18.2653
 18.2479
 18.6411
 18.7054
 18.6347
 18.7729
 18.3544
 18.4978
 18.4439
 18.4178
 19.8674
 19.824
 19.8192
 19.8517
 19.2817
 19.2312
 19.2138
 19.291
 18.259
 18.3196
 18.2416
 18.1642
 19.3096
 19.2772
 19.2321
 19.3435
 18.4709
 18.3823
 18.3873
 18.4277
 19.902
 19.9313
 19.8824
 19.9446
 17.216
 17.1899
 17.2893
 17.2176
 19.6856
 19.7322
 19.657
 19.6296
 19.7474
 19.8911
 19.8021
 19.8013
 17.9962
 17.9911
 17.9281
 17.9098
 19.7025
 19.6873
 19.6712
 19.6763
 18.4591
 18.5049
 18.4631
 18.5487
 20.071
 20.069
 20.1562
 20.1409
 18.6821
 18.7256
 18.7104
 18.6265
 17.3274
 17.1758
 17.2976
 17.2176
 18.6254
 18.7413
 18.7394
 18.687
 18.0835
 18.048
 18.0751
 18.0896
 18.4584
 18.4879
 18.4588
 18.4221
 18.467
 18.4442
 18.4136
 18.3539
 17.0646
 17.0379
 17.0043
 17.153
 19.8182
 19.8654
 19.9084
 19.9129
 19.7186
 19.7531
 19.8234
 19.7584
 17.5034
 17.4885
 17.5514
 17.4191
 17.3814
 17.3297
 17.3859
 19.4901
 19.5259
 19.5286
 19.4696
 18.4792
 18.3834
 18.4611
 18.4757
 18.5144
 18.4884
 18.5737
 18.4768
 19.7461
 19.6805
 19.7871
 19.7315
 18.0322
 17.9725
 17.9923
 17.9692
 18.9767
 19.0603
 19.0541
 18.9601
 18.6546
 18.7464
 18.731
 18.7638
 17.958
 17.8931
 17.8734
 17.8931
 20.0755
 20.1076
 20.0693
 20.03
 19.4664
 19.5569
 19.5427
 19.5313
 16.9996
 17.149
 17.0345
 17.0722
 19.8172
 19.8301
 19.8041
 19.6955
 20.0771
 20.1147
 20.0971
 20.0897
 18.9606
 18.9236
 18.9652
 18.8562
 20.8006
 20.7783
 20.8218
 20.7334
 18.7833
 18.7668
 18.808
 18.7757
 17.8922
 17.941
 17.965
 17.9792
 17.6144
 17.6711
 17.6473
 20.1289
 20.1187
 20.1018
 20.1271
 19.6514
 19.5646
 19.6663
 19.5828
 19.7389
 19.7658
 19.7905
 19.8242
 19.5388
 19.599
 19.5598
 19.5843
 16.9262
 16.8564
 16.82
 16.846
 20.0107
 20.0035
 20.0298
 20.076
 19.5775
 19.64
 19.589
 19.5084
 17.7001
 17.657
 17.7085
 17.748
 19.3017
 19.3351
 19.2812
 19.5004
 19.5895
 19.529
 18.5731
 18.6628
 18.7222
 20.6546
 20.5793
 20.5664
 20.6277
 18.7712
 18.7302
 18.7705
 18.6982
 18.7823
 18.7446
 18.86
 18.8293
 17.4666
 17.4142
 17.5111
 17.5301
 17.2532
 17.2939
 17.1233
 17.2784
 19.8047
 19.8619
 19.8704
 19.7522
 18.5871
 18.4903
 18.4964
 18.5041
 18.5519
 18.4887
 18.4513
 18.4801
 18.9448
 18.8464
 18.8901
 18.819
 19.343
 19.3021
 19.2988
 19.3947
 18.6051
 18.6794
 18.6422
 18.5896
 19.8449
 19.8271
 19.8629
 19.8055
 17.435
 17.4693
 17.428
 17.4013
 19.5643
 19.5756
 19.5346
 19.5024
 17.6042
 17.6924
 17.6461
 17.6047
 17.1739
 17.2354
 17.2822
 17.1887
 17.3403
 17.3744
 17.3692
 17.3937
 19.6712
 19.7256
 18.156
 18.1678
 18.2324
 18.1925
 19.7691
 19.6712
 19.7224
 19.7521
 17.9083
 17.7583
 17.8129
 17.7803
 17.5755
 17.6683
 17.5468
 17.6559
 19.3905
 19.3451
 19.3299
 19.3719
 18.661
 18.6653
 18.5911
 18.6327
 19.5461
 19.5383
 19.4849
 19.5373
 19.1074
 19.1036
 19.0934
 19.0229
 21.1482
 21.0452
 21.1647
 21.0728
 17.3444
 17.3946
 17.2714
 17.3686
 19.4978
 19.5778
 19.484
 19.4618
 20.1174
 20.1761
 20.1726
 20.0942
 19.0214
 19.0526
 18.9787
 18.9435
 20.0435
 20.1449
 20.1605
 20.0489
 19.1005
 19.1914
 19.2048
 19.1428
 18.1137
 18.145
 18.0421
 18.1726
 18.8844
 18.9389
 18.94
 18.9056
 17.4635
 17.3161
 17.464
 19.0118
 18.9314
 19.0544
 18.9563
 21.1898
 21.2195
 21.2186
 21.2495
 16.8221
 16.7839
 16.7509
 16.8296
 18.7412
 18.7472
 18.6991
 18.7589
 17.9335
 17.9952
 18.0621
 17.9744
 19.8486
 19.7802
 19.9453
 19.8725
 19.3397
 19.2813
 19.4091
 19.3412
 19.3539
 19.2418
 19.296
 19.2444
 17.3126
 17.3772
 17.2983
 17.2423
 19.2623
 19.3258
 19.3681
 19.3467
 16.8521
 16.8847
 16.8253
 16.9372
 18.1667
 18.2592
 18.2621
 18.1579
 19.816
 19.7981
 19.7684
 19.8092
 20.8334
 20.8183
 20.7609
 20.857
 19.0871
 19.1977
 19.1326
 19.2163
 18.8497
 18.8535
 18.7818
 18.8698
 18.0188
 18.0294
 18.0724
 18.1518
 21.0908
 21.1464
 21.0584
 21.1084
 19.0768
 19.1386
 19.034
 19.0615
 17.0499
 17.106
 17.1284
 17.1038
 17.7919
 17.7089
 17.7407
 17.77
 17.7204
 17.7433
 17.6558
 17.7664
 17.7282
 17.8034
 17.823
 17.7871
 17.7161
 17.6027
 17.6749
 17.6808
 18.4953
 18.4609
 18.5003
 18.5015
 19.7328
 19.5994
 19.5196
 19.5018
 19.5585
 18.277
 18.3867
 18.3487
 18.3432
 18.2989
 18.2727
 18.3804
 18.3715
 20.4016
 20.3618
 20.366
 20.4007
 17.5396
 17.5431
 17.5879
 17.5466
 17.9293
 17.858
 17.7763
 17.8349
 19.8355
 19.7213
 19.744
 19.613
 19.6152
 19.6315
 19.5903
 19.54
 19.556
 19.5085
 19.6755
 19.7615
 19.8681
 19.8075
 18.2881
 18.1968
 18.2196
 18.3135
 17.0464
 17.0204
 17.0707
 17.0209
 18.8745
 18.9097
 18.852
 18.9519
 17.2184
 17.3686
 17.4034
 17.419
 19.0624
 19.0842
 19.1142
 19.0294
 18.2473
 18.327
 18.3756
 18.3624
 19.7293
 19.7418
 19.7599
 19.8153
 18.6335
 18.5318
 18.6649
 18.5822
 18.4749
 18.3829
 18.3329
 18.4707
 19.6893
 19.7247
 19.7932
 19.759
 19.2956
 19.3453
 19.1964
 19.2432
 19.019
 19.03
 19.0907
 19.1368
 18.553
 18.5201
 18.5541
 18.5098
 20.2053
 20.204
 20.1768
 20.1204
 18.3336
 18.4233
 18.3783
 18.3152
 19.2895
 19.3863
 19.2737
 19.2362
 18.1641
 18.1787
 18.1646
 18.2216
 17.4231
 17.5071
 17.4404
 17.4768
 17.2439
 17.3088
 17.2977
 17.2724
 17.227
 17.1685
 17.325
 16.8358
 16.7707
 16.7296
 16.6818
 17.6979
 17.7965
 17.8847
 17.7633
 18.8701
 18.8876
 18.8297
 18.8426
 17.1399
 17.1943
 17.2487
 17.1534
 18.7879
 18.7859
 18.833
 18.8431
 18.4963
 18.4518
 18.4747
 17.4477
 17.3554
 17.4082
 17.4148
 17.4396
 17.5405
 17.4985
 18.596
 18.6121
 18.5494
 18.5304
 19.3352
 19.2982
 19.3471
 19.2447
 18.2185
 18.2873
 18.3107
 18.3229
 17.2839
 17.2195
 17.2694
 17.3072
 19.5564
 19.5841
 19.5546
 19.6242
 18.9309
 18.9595
 19.0129
 19.0371
 18.7953
 18.6749
 18.7899
 18.7928
 18.0865
 18.1714
 18.1167
 18.1142
 19.6156
 19.67
 19.565
 19.6542
 19.8813
 19.9443
 19.8747
 19.8765
 18.8813
 18.8824
 18.8939
 18.8198
 16.8698
 16.9255
 16.9353
 16.9225
 19.5041
 19.591
 19.4929
 19.5475
 19.7976
 19.7397
 19.8269
 19.7393
 18.3707
 18.4772
 18.3664
 18.3874
 19.5254
 19.4824
 19.5292
 19.8744
 19.8077
 19.8376
 18.537
 18.606
 18.4747
 18.5743
 19.7606
 19.7965
 19.8466
 19.765
 19.8192
 19.9037
 19.8307
 19.8382
 18.3211
 18.2995
 18.3406
 19.6564
 19.6666
 17.5298
 17.5049
 17.389
 17.3719
 18.2151
 18.0956
 18.1007
 18.1342
 20.2413
 20.1895
 20.286
 20.1668
 20.6685
 20.6307
 20.7202
 20.6427
 19.4704
 19.6085
 19.5284
 19.5161
 17.4211
 17.423
 17.3686
 17.4073
 18.1907
 18.2514
 18.289
 18.2561
 20.111
 20.1284
 20.1346
 20.1456
 19.5332
 19.5306
 19.4858
 19.4483
 19.5159
 19.4904
 19.5077
 19.7167
 19.6637
 19.656
 19.6593
 19.6653
 19.723
 19.6571
 19.6299
 19.8488
 19.9388
 19.8713
 19.9225
 17.2086
 17.1097
 17.1882
 17.174
 17.1663
 17.0832
 17.224
 18.9202
 18.9756
 18.9083
 18.9958
 19.55
 19.648
 19.5358
 19.5605
 16.8341
 16.754
 19.8685
 19.9249
 19.9086
 19.9555
 18.6511
 18.5183
 18.6028
 18.5362
 18.4164
 18.4497
 19.7708
 19.7845
 19.7128
 19.7652
 17.1521
 17.079
 17.1878
 17.0193
 16.9215
 16.9956
 16.9338
 16.7896
 19.0516
 19.0176
 19.0429
 20.3739
 20.3117
 20.3378
 19.6189
 19.5223
 19.6267
 19.6053
 17.9123
 17.9969
 17.8546
 17.9794
 19.343
 19.3924
 19.4209
 19.4618
 19.4686
 19.5105
 19.441
 19.5214
 18.2571
 18.25
 18.2241
 18.1216
 21.0343
 20.9733
 21.0384
 21.0929
 18.048
 18.0359
 17.9534
 17.9638
 18.0055
 18.015
 17.9424
 17.9173
 19.8885
 19.8806
 19.9881
 19.9105
 17.4721
 17.4072
 17.3966
 17.4911
 21.1624
 21.2349
 21.2428
 21.2928
 17.2138
 17.3784
 17.3783
 17.3723
 17.631
 17.7218
 19.4613
 19.4063
 19.4166
 19.3642
 19.9684
 20.046
 19.9993
 19.9419
 17.5345
 17.4481
 17.4566
 17.4984
 19.3836
 19.3686
 19.3739
 19.4208
 16.8321
 16.8899
 16.8541
 19.5866
 19.6553
 19.6748
 20.0674
 19.9785
 19.9567
 17.2846
 17.2265
 17.2589
 17.2969
 19.5762
 19.6254
 19.6296
 19.6168
 17.4917
 17.4822
 20.1048
 20.0454
 20.1036
 20.0836
 18.8325
 18.7442
 18.7529
 18.8086
 19.4959
 19.5247
 19.1912
 19.0449
 19.0552
 19.1372
 19.4175
 19.4269
 19.42
 19.5018
 16.9145
 16.8346
 16.9734
 16.9386
 20.0251
 20.0634
 20.0465
 17.7553
 21.1202
 21.1503
 21.1415
 21.1672
 17.4965
 17.4645
 17.4222
 17.5704
 19.4623
 19.4536
 19.3234
 19.3606
 17.9973
 18.0466
 18.0314
 18.0084
 19.434
 19.4919
 19.5252
 19.4555
 18.2952
 20.392
 20.4152
 20.416
 20.3824
 18.2595
 18.2667
 18.2843
 18.3502
 17.6767
 17.6407
 17.5857
 17.7495
 17.727
 17.8279
 17.7214
 17.4683
 17.3554
 17.4426
 17.4185
 19.8468
 19.8231
 19.7347
 19.7822
 17.415
 17.4134
 17.4295
 17.3439
 20.0972
 20.1117
 20.0976
 20.1742
 17.5005
 17.4464
 17.4185
 17.4157
 18.9629
 19.007
 19.017
 19.035
 18.046
 17.9967
 17.9669
 17.9468
 18.591
 18.6324
 18.657
 18.6793
 17.146
 17.272
 18.7763
 18.85
 18.8311
 18.7776
 20.3069
 20.339
 20.2481
 20.3358
 20.0756
 20.1059
 20.0058
 20.092
 18.6034
 18.5375
 18.5209
 18.5172
 17.9975
 18.0036
 18.01
 17.9053
 17.8124
 17.8965
 17.8422
 17.7925
 17.3691
 17.4668
 17.4419
 17.5073
 17.8256
 17.7133
 17.7765
 17.823
 20.0479
 20.0631
 20.0121
 20.1096
 19.7743
 19.7833
 19.7977
 19.6932
 16.7557
 16.8373
 16.8714
 16.8597
 18.5053
 18.4555
 18.4855
 18.3616
 19.6645
 19.5674
 19.6515
 19.6084
 20.8512
 20.8592
 20.7829
 20.9017
 17.4612
 17.4199
 17.4982
 17.3366
 19.646
 19.6202
 19.6019
 19.5545
 19.1295
 19.0652
 19.1733
 19.1141
 20.1805
 20.1977
 20.186
 20.1267
 18.3655
 18.4156
 18.3784
 18.3752
 17.2827
 17.2745
 17.3143
 17.2845
 18.4835
 18.6099
 18.5624
 18.5824
 19.061
 19.0268
 18.9639
 19.0065
 20.2573
 20.2168
 20.1806
 20.2843
 17.247
 18.1433
 18.0833
 18.1835
 18.0794
 19.0975
 19.1372
 19.2048
 19.162
 17.9188
 17.8712
 17.8885
 17.8067
 19.6331
 19.7145
 19.6656
 19.6216
 18.4243
 18.362
 18.4557
 20.2932
 20.1813
 20.264
 20.2595
 17.6628
 17.8201
 17.7268
 17.7727
 19.9908
 20.0064
 19.9478
 19.9922
 16.4533
 16.4985
 16.4653
 16.3983
 19.6731
 19.6635
 19.6477
 19.6653
 20.7068
 20.5528
 20.5722
 20.6309
 20.3178
 20.3267
 20.27
 20.2599
 16.7919
 16.8593
 16.887
 16.9273
 17.1471
 17.1551
 17.1086
 17.0955
 18.9212
 18.852
 18.8809
 18.8369
 19.5664
 19.599
 19.5504
 18.6902
 18.7016
 18.8051
 18.7689
 18.1877
 18.2362
 18.1274
 18.1401
 18.6156
 18.4625
 18.5144
 18.5346
 18.7849
 18.7692
 18.6302
 18.6954
 16.7398
 16.8111
 16.8121
 16.8499
 19.8259
 19.8593
 19.7434
 19.8247
 20.2827
 20.3949
 20.3858
 17.9765
 18.0258
 18.0227
 18.076
 17.598
 17.5155
 17.5626
 17.5791
 19.6401
 19.6458
 19.6247
 19.7932
 19.7781
 19.7319
 19.8472
 17.3591
 17.4141
 17.3174
 17.4553
 18.9467
 18.9685
 18.8853
 18.9418
 19.7368
 19.8193
 19.7532
 19.7608
 19.1301
 19.1739
 19.1675
 19.1107
 17.6875
 17.6777
 17.7597
 17.6809
 19.6274
 19.5269
 19.6728
 19.5619
 19.042
 19.1688
 19.1461
 19.083
 19.4342
 19.3374
 19.405
 17.1862
 17.2048
 17.2576
 17.2766
 18.8517
 18.8542
 18.9028
 18.809
 16.7191
 16.7683
 16.5852
 18.7575
 18.7037
 18.7353
 18.757
 20.2009
 20.1455
 20.2371
 20.2043
 18.523
 18.5053
 18.463
 18.3897
 18.8045
 18.6945
 18.8327
 19.6122
 19.5981
 19.5223
 19.5464
 20.0324
 20.0082
 20.0595
 19.9858
 19.653
 19.6043
 19.5578
 19.6559
 20.7502
 20.7259
 20.6641
 20.6535
 19.223
 19.239
 19.273
 19.2852
 19.4601
 19.4937
 19.3898
 19.5114
 17.2334
 17.3716
 17.3435
 17.1909
 19.9822
 19.8868
 19.9156
 19.9401
 18.3117
 18.3403
 18.2905
 18.2485
 16.8658
 16.8424
 16.8974
 16.9479
 16.8484
 16.9853
 16.9228
 16.8962
 17.7686
 17.7169
 17.7582
 17.7525
 16.8521
 16.7272
 16.74
 16.9112
 17.2877
 17.2851
 17.2972
 16.6879
 16.8413
 16.8022
 16.8029
 20.222
 20.2596
 20.2232
 20.2871
 19.1106
 19.2137
 19.226
 19.1978
 19.3808
 19.2931
 19.3612
 19.2912
 19.3353
 19.3847
 19.3806
 19.4029
 17.1871
 17.2471
 17.1663
 17.1479
 19.2066
 19.203
 19.2787
 19.291
 19.6241
 19.7102
 19.7222
 19.6482
 18.0608
 18.0841
 17.9995
 18.1167
 19.5194
 19.454
 19.5232
 19.452
 17.9546
 18.0225
 18.0626
 18.6944
 18.6095
 18.5862
 17.3524
 17.4545
 17.4614
 17.4203
 19.1233
 19.091
 19.152
 19.1513
 18.2904
 18.3661
 18.3385
 18.2684
 19.3587
 19.455
 19.4141
 19.3321
 16.7062
 16.7685
 17.038
 17.0726
 17.1072
 16.9846
 20.2666
 20.297
 20.2944
 20.3445
 18.2926
 18.2293
 18.2088
 18.1472
 19.6043
 19.5308
 19.6109
 19.6446
 21.3917
 21.4919
 21.396
 21.4274
 19.6328
 19.6698
 19.7175
 19.6611
 18.0372
 18.122
 18.0402
 20.0216
 20.0329
 19.9324
 19.9392
 16.9164
 17.0175
 16.9019
 16.9937
 19.6277
 19.5917
 19.6169
 19.5776
 18.3864
 18.3014
 18.3267
 18.3781
 20.1315
 20.1168
 20.1883
 20.1333
 20.9731
 20.9524
 20.9439
 20.908
 19.7402
 19.677
 19.7397
 19.7628
 19.2138
 19.2465
 19.1854
 18.5846
 18.7229
 18.5926
 18.6495
 19.8651
 19.8534
 19.9208
 17.8882
 17.9277
 17.8653
 17.8107
 17.7703
 17.6509
 17.78
 17.6781
 18.062
 18.1642
 18.0878
 18.0687
 17.0381
 17.2435
 17.1789
 17.1428
 17.7882
 17.8272
 17.7544
 19.418
 19.3612
 19.3781
 19.3358
 17.8954
 17.9761
 18.2144
 18.2889
 18.3172
 18.2612
 18.0746
 18.1058
 18.0832
 18.0367
 19.6898
 19.6577
 19.6745
 19.7385
 19.6873
 19.6259
 19.6799
 19.6162
 21.4122
 21.3659
 21.3471
 21.38
 19.682
 19.6143
 19.6819
 19.3594
 19.3891
 19.41
 19.3813
 18.7679
 18.7678
 18.8126
 18.8295
 19.3758
 19.3018
 19.2943
 19.3486
 20.216
 20.174
 20.2299
 20.2268
 17.6399
 17.7705
 17.678
 17.7286
 18.9542
 18.8944
 18.9474
 19.006
 17.342
 17.3461
 17.3726
 17.3049
 18.6103
 18.6771
 18.6128
 18.6637
 17.106
 17.0495
 17.0941
 20.9015
 20.8383
 20.8559
 20.8548
 18.0896
 17.956
 18.0581
 18.0441
 19.0083
 19.0758
 18.993
 19.0303
 19.801
 19.8522
 19.3544
 19.3343
 19.2936
 19.3111
 19.0954
 19.1878
 19.1728
 17.3138
 17.2821
 17.3708
 17.3088
 17.2065
 17.2593
 17.3301
 17.3025
 19.8464
 19.8652
 19.8191
 19.8569
 18.9955
 19.0148
 19.5332
 19.4583
 19.5081
 19.5731
 17.8292
 17.9079
 17.7642
 17.7555
 20.1799
 20.1558
 20.1889
 20.1325
 19.7441
 19.7256
 19.7879
 19.7961
 19.5682
 19.4843
 19.4467
 19.4892
 18.6887
 18.6969
 18.7091
 18.5836
 18.0002
 18.0066
 18.0601
 18.0727
 17.8176
 17.857
 17.9275
 17.8543
 21.1802
 21.1916
 21.2214
 21.2444
 20.0083
 19.9358
 19.9027
 18.5398
 18.6864
 18.5994
 18.4745
 18.4124
 18.4908
 18.3822
 17.2664
 17.1936
 17.2483
 17.1642
 18.8941
 19.6052
 19.6037
 19.6783
 19.6695
 18.2178
 18.2633
 18.3344
 18.3025
 17.7013
 17.8027
 17.799
 17.6887
 17.6754
 17.6691
 19.8559
 19.8925
 19.9242
 19.9334
 18.7385
 18.6689
 18.6917
 18.6626
 20.0862
 20.1137
 20.0913
 20.0568
 18.4256
 19.2485
 19.2932
 19.1708
 19.1426
 19.3984
 19.3467
 19.3135
 19.3654
 17.269
 17.3641
 17.0933
 17.0236
 16.9703
 17.0496
 20.5125
 20.5771
 20.5372
 20.5135
 17.8053
 17.7964
 17.9055
 17.767
 18.4892
 18.582
 18.531
 18.4406
 21.0709
 21.0487
 21.0514
 21.1003
 18.7972
 18.7961
 18.7551
 18.8359
 18.8691
 18.958
 19.0097
 19.0094
 19.8266
 19.8972
 19.7896
 19.8252
 16.8236
 16.723
 16.7149
 16.6927
 18.9408
 19.0262
 19.0197
 19.4358
 19.3601
 19.3547
 19.4281
 17.04
 16.9184
 17.0111
 16.9949
 19.473
 19.5218
 19.5813
 19.4646
 19.0326
 18.9766
 17.6247
 17.6339
 17.5601
 17.706
 18.5736
 18.5576
 18.4608
 18.4592
 17.0512
 17.1025
 16.9856
 17.0516
 18.9941
 18.8683
 19.7287
 19.7032
 19.6844
 19.6863
 19.4979
 19.4827
 19.4293
 19.4053
 17.536
 17.5156
 17.6252
 17.5854
 17.8136
 17.8623
 17.7757
 17.7858
 17.8505
 17.9461
 17.861
 17.8641
 19.4976
 19.4019
 19.4402
 19.488
 20.5777
 20.6278
 20.608
 20.5838
 16.8445
 16.7403
 16.8325
 16.7843
 19.862
 19.859
 19.8494
 19.8106
 18.6361
 18.5631
 18.5584
 18.6129
 19.3184
 19.2015
 19.2829
 19.2402
 18.638
 18.7365
 18.6426
 18.305
 18.2065
 18.2992
 18.1766
 18.8679
 18.8115
 18.8492
 18.918
 18.0233
 17.9859
 17.9259
 18.0432
 18.0121
 18.047
 18.0091
 18.1464
 21.0474
 20.9524
 21.0427
 20.098
 20.0272
 19.9818
 20.0116
 18.6025
 18.6585
 18.6351
 18.642
 17.6569
 17.5552
 17.6094
 17.5545
 19.5762
 19.675
 19.5782
 19.5543
 19.5042
 19.4969
 18.4515
 18.5019
 18.4469
 18.4415
 18.6765
 18.5946
 18.5754
 18.5623
 16.2902
 16.3194
 16.3765
 16.2563
 20.2933
 20.2609
 20.3129
 20.3965
 17.9342
 17.9239
 19.2133
 19.1389
 19.1273
 19.2086
 18.1015
 18.0563
 18.064
 18.0415
 18.4854
 18.4719
 18.4173
 18.4414
 19.1434
 19.1364
 19.0643
 19.1918
 18.2461
 18.167
 18.185
 18.176
 19.8419
 19.8081
 19.8196
 19.7609
 20.0534
 20.1262
 20.0431
 20.0828
 17.6179
 17.5793
 17.523
 17.394
 18.6556
 18.6177
 18.5526
 20.6499
 20.6867
 20.6253
 17.4886
 17.4428
 17.4268
 17.3916
 17.4061
 17.4387
 17.4758
 17.4802
 18.8354
 18.819
 18.8064
 18.7532
 17.2598
 17.2003
 17.2247
 17.2143
 16.9847
 16.8625
 16.9708
 16.8545
 19.0971
 19.0607
 18.998
 19.0807
 17.6792
 17.6353
 17.6033
 17.6116
 16.3573
 16.3192
 16.4246
 16.3011
 17.8767
 17.8622
 17.9169
 17.7866
 18.5791
 18.6988
 18.6463
 18.7261
 17.5583
 17.5015
 17.5719
 17.5949
 18.1054
 18.1237
 18.0678
 18.3543
 18.2815
 20.3948
 20.3892
 20.4109
 20.4376
 18.3745
 18.2944
 18.3115
 18.3311
 20.546
 20.5299
 20.5167
 20.5146
 20.4515
 20.4626
 20.3916
 20.3609
 18.4992
 18.4624
 18.4535
 18.5274
 19.237
 19.2375
 19.3039
 19.2019
 18.2206
 18.1328
 18.1547
 18.1662
 18.7801
 18.8371
 20.1488
 20.1892
 20.1706
 20.1078
 16.9328
 16.8992
 16.8523
 16.9325
 19.1924
 19.2567
 19.1329
 19.1829
 17.4442
 17.4752
 17.5459
 17.4904
 20.1311
 20.1914
 20.1312
 20.1573
 17.3455
 17.2003
 17.2465
 17.2222
 18.3478
 18.4581
 18.3723
 18.386
 19.5497
 19.624
 19.6792
 19.6367
 16.5443
 16.5959
 16.5831
 16.6588
 19.429
 19.3374
 19.4073
 19.4304
 19.0565
 19.1762
 19.0981
 19.1368
 16.9282
 16.9111
 16.9981
 16.908
 18.8325
 18.9501
 18.9205
 18.9244
 17.5888
 17.5179
 17.5572
 17.5975
 17.5829
 17.6449
 17.6174
 19.0435
 19.1865
 19.1186
 19.1521
 17.6514
 17.5651
 17.62
 17.5937
 19.9131
 19.8298
 19.8371
 19.9194
 17.4398
 17.3802
 17.3875
 17.4315
 17.4781
 17.5097
 17.4546
 17.4957
 19.7425
 19.759
 19.6172
 19.6915
 19.6976
 19.7294
 19.6535
 19.7624
 21.6612
 21.6416
 21.7027
 21.688
 17.7764
 17.8777
 17.8631
 20.3996
 20.2993
 20.3037
 20.3421
 17.1139
 17.1862
 17.1692
 17.1485
 19.7639
 17.4984
 17.5867
 17.5513
 17.4833
 17.4984
 17.5615
 17.5749
 21.1527
 21.2346
 21.2143
 21.1775
 21.2438
 21.2548
 21.2624
 21.2844
 17.0896
 17.1654
 17.0933
 17.0376
 19.6834
 19.7185
 19.6444
 19.7317
 18.1289
 18.175
 18.0744
 19.3397
 19.4057
 19.3449
 19.4517
 19.0428
 19.0372
 19.0741
 17.4688
 17.5096
 17.3752
 18.5034
 18.4473
 18.4299
 18.4858
 19.3221
 19.4017
 19.4095
 19.35
 19.7769
 19.7525
 19.7914
 19.7595
 18.157
 18.105
 18.0953
 20.1554
 20.1198
 20.2212
 20.2246
 19.7092
 19.5604
 19.651
 19.1064
 18.9814
 18.9999
 19.0645
 19.7523
 19.6779
 19.6859
 19.7131
 19.743
 19.6434
 19.6261
 19.65
 17.4092
 17.4655
 17.463
 17.4761
 18.9784
 19.0495
 18.9888
 18.9537
 19.4209
 19.4464
 18.5726
 18.6324
 18.5906
 18.6722
 17.124
 17.2318
 17.1911
 17.2202
 17.2355
 21.7403
 21.7634
 21.7754
 21.742
 17.7216
 17.6295
 17.6771
 16.8403
 16.8771
 16.9108
 16.8626
 17.9141
 18.0339
 18.0171
 18.0283
 19.7932
 19.7629
 19.7221
 19.7989
 19.0353
 19.0901
 19.122
 19.0929
 16.7649
 16.7774
 16.8103
 16.8227
 17.7658
 17.8292
 17.8857
 17.8212
 20.1941
 20.2495
 20.2549
 20.1624
 19.1462
 19.1202
 19.1043
 19.2255
 19.2728
 19.2351
 19.1879
 19.2508
 21.7606
 21.7735
 21.7722
 21.7554
 19.9213
 19.9355
 19.9612
 19.8865
 17.7919
 17.6887
 17.8032
 17.7443
 18.4199
 18.427
 18.3513
 18.4527
 18.9133
 18.8548
 18.7913
 18.9002
 18.0451
 17.961
 17.9887
 17.9916
 18.3452
 18.3535
 18.2762
 18.3595
 17.9556
 17.9516
 18.0184
 17.8585
 16.5114
 16.6704
 16.6185
 16.4656
 17.6765
 17.715
 17.7373
 17.8546
 17.9926
 18.0406
 18.1087
 18.0232
 18.151
 18.621
 18.6205
 18.6753
 18.5458
 17.1504
 17.1896
 17.2058
 17.2008
 18.9944
 19.0379
 18.9603
 18.9896
 18.4924
 18.4568
 18.4136
 18.5399
 18.744
 18.8291
 18.7739
 18.7069
 19.2797
 19.3912
 19.3084
 19.3816
 20.8135
 20.7801
 20.7026
 20.8289
 16.3828
 16.5295
 18.2591
 18.3051
 18.3148
 21.4745
 21.476
 21.4841
 19.5758
 19.6296
 19.5946
 19.6588
 20.4191
 20.4156
 20.5146
 20.5149
 19.9104
 19.9477
 19.8924
 19.9866
 17.0047
 17.1258
 17.0774
 17.0582
 18.6572
 18.759
 18.7137
 18.7739
 18.0784
 17.9871
 17.987
 17.9083
 18.3593
 18.3975
 18.4429
 18.5124
 18.0035
 17.9599
 18.0365
 18.0083
 18.9008
 18.8958
 17.5352
 17.7182
 17.5559
 17.7096
 17.8868
 17.9413
 17.9829
 17.8177
 19.5965
 19.6888
 19.584
 19.6763
 19.6539
 19.6338
 19.6358
 19.6241
 18.5658
 18.5504
 18.5858
 18.5318
 18.5633
 18.5086
 18.4569
 18.397
 19.9391
 20.0378
 20.0659
 19.9139
 17.9457
 18.0138
 18.0445
 18.0523
 16.5824
 16.6344
 16.5842
 16.6295
 17.478
 17.5267
 17.5258
 17.5667
 16.5011
 16.4504
 16.5489
 16.4233
 17.3911
 17.2936
 17.3179
 17.3137
 18.6813
 18.5732
 18.6628
 18.6367
 18.1003
 18.1528
 18.8593
 18.7599
 18.8859
 18.8328
 19.6523
 19.5784
 19.5907
 19.5622
 17.7772
 17.6489
 17.6467
 17.7293
 18.8882
 18.9065
 18.8851
 18.9763
 19.078
 19.1405
 19.1623
 19.1259
 19.7616
 19.7609
 19.7241
 19.6571
 19.4771
 19.4717
 19.5208
 19.4024
 19.702
 19.647
 19.6432
 19.6761
 20.7764
 20.7676
 20.8195
 20.7979
 17.8435
 17.8121
 17.9011
 17.828
 18.1672
 18.1464
 20.5855
 20.5783
 20.5836
 20.6527
 19.364
 19.3333
 18.2361
 18.305
 18.2241
 17.5814
 17.5529
 19.9192
 19.9312
 19.9704
 19.8747
 20.6744
 20.6368
 20.6376
 20.618
 20.0179
 19.975
 19.9321
 19.9179
 19.3805
 19.3113
 19.2947
 19.2856
 18.3795
 18.479
 18.4836
 18.4763
 18.0447
 18.0809
 18.0939
 18.1072
 19.4098
 19.3416
 19.33
 19.3489
 18.5389
 18.5417
 18.5044
 18.6265
 18.6707
 18.7272
 18.7466
 18.7036
 18.6258
 18.5667
 18.5289
 18.5637
 18.5225
 18.6505
 18.5239
 18.8617
 18.9249
 18.7996
 18.8526
 19.2124
 19.1765
 19.2794
 19.2167
 19.6986
 19.6355
 19.7408
 19.6371
 17.1073
 17.1359
 17.0805
 17.0245
 18.9919
 18.9913
 18.9023
 18.9137
 20.0508
 20.0484
 20.1697
 20.0768
 20.2029
 20.1841
 20.215
 20.2342
 20.0312
 20.0891
 20.0846
 20.0488
 19.7032
 19.7095
 19.6242
 19.6074
 19.7443
 19.7911
 19.8119
 19.777
 17.3592
 17.3062
 17.2976
 17.2712
 19.0376
 19.0393
 19.0554
 18.976
 17.9299
 17.8415
 17.9137
 17.958
 19.6893
 19.5974
 19.7065
 19.6404
 17.0217
 16.989
 16.9957
 16.9352
 16.898
 16.9198
 16.8109
 17.9173
 18.0813
 18.029
 18.0209
 19.576
 19.5353
 19.6183
 19.552
 16.6527
 16.7873
 16.76
 19.1564
 19.2206
 19.1671
 19.2714
 17.4085
 17.3925
 17.5861
 17.5576
 17.4841
 17.5876
 19.2811
 19.329
 19.2969
 20.047
 20.0185
 20.1025
 20.0763
 19.6766
 19.7091
 19.6314
 19.6326
 18.7331
 18.6415
 18.7615
 16.9045
 17.0672
 17.0522
 17.9469
 18.0541
 18.0796
 18.0219
 16.9027
 16.9398
 17.0464
 16.8292
 19.1132
 19.0268
 18.9864
 19.0362
 17.261
 17.2456
 17.2026
 17.328
 18.6494
 18.6295
 18.6866
 18.7306
 19.4934
 19.5748
 19.5345
 16.7394
 16.8236
 16.777
 16.649
 18.2093
 18.482
 18.3816
 18.4227
 18.4661
 18.2899
 18.2778
 18.3436
 19.5302
 19.581
 19.5669
 19.5698
 19.5728
 19.4729
 19.0859
 19.1666
 19.165
 19.1752
 19.041
 18.9443
 19.0164
 18.9586
 18.0032
 16.6357
 16.7809
 16.7982
 16.7034
 20.976
 21.0528
 21.0199
 21.0281
 19.4071
 19.4493
 19.573
 19.5989
 19.5571
 19.5376
 19.5845
 19.5777
 19.6817
 19.6437
 17.8843
 17.9938
 17.9859
 17.9286
 17.8203
 17.7871
 17.8911
 17.803
 19.3808
 19.4505
 18.0832
 18.0632
 17.9557
 18.0254
 18.0633
 17.9678
 18.0544
 18.4785
 18.5433
 18.5888
 18.6149
 18.9525
 19.0258
 18.9549
 19.0332
 17.8865
 17.7615
 17.7786
 17.8774
 17.6011
 17.5892
 17.521
 17.6185
 17.6968
 17.6064
 17.6716
 17.8537
 17.8313
 17.8361
 17.9084
 19.0967
 19.0755
 19.0613
 19.1281
 20.4012
 20.4283
 20.3776
 20.3684
 19.2845
 19.2927
 19.3335
 19.3132
 17.5825
 17.6726
 17.7334
 17.6539
 18.1116
 18.16
 18.162
 18.0923
 19.2633
 19.2212
 19.1871
 19.1836
 18.1486
 18.2347
 18.1744
 18.1521
 18.5688
 18.5395
 18.6525
 18.5295
 18.5894
 18.5076
 18.5401
 18.5053
 18.1842
 18.1175
 18.1303
 17.273
 17.2417
 17.299
 17.2803
 19.3127
 19.2324
 19.2685
 19.2638
 18.8781
 18.7989
 18.8063
 18.8227
 20.2945
 20.3355
 20.3234
 20.2604
 19.76
 19.7069
 19.7106
 19.7537
 19.6758
 19.7911
 19.7321
 19.8042
 19.799
 19.7563
 19.7677
 19.7343
 18.5883
 18.6316
 18.6168
 20.1095
 20.1268
 20.0855
 20.0697
 19.8863
 19.8575
 19.8073
 19.8794
 16.6992
 16.8052
 16.8084
 16.7322
 18.5396
 18.5838
 18.6342
 18.6678
 17.6278
 17.6244
 17.6786
 17.702
 18.4018
 18.3618
 18.4176
 18.47
 18.2032
 18.1394
 18.2094
 18.1915
 19.5243
 19.5891
 19.5584
 19.649
 18.7683
 18.6122
 18.7361
 18.7139
 17.5383
 17.4723
 17.533
 17.5027
 18.3593
 18.3929
 18.2743
 18.2915
 19.8204
 19.8656
 19.7867
 19.7504
 17.2339
 17.2012
 17.227
 17.1843
 19.1792
 19.249
 19.912
 18.7708
 18.734
 18.6728
 18.7881
 18.9823
 18.9032
 18.9916
 19.0108
 20.6396
 20.6511
 20.5804
 19.3062
 19.3828
 19.3998
 19.4465
 18.3654
 18.2334
 18.2912
 18.2126
 18.6498
 18.5912
 18.6249
 18.6553
 17.26
 17.2152
 17.2053
 17.2346
 19.7232
 19.5976
 19.6857
 19.5636
 19.5684
 19.5876
 19.4912
 20.471
 20.5738
 20.5138
 20.4829
 19.7627
 19.6705
 19.737
 18.3883
 18.2291
 18.363
 19.8181
 19.8297
 19.8939
 19.8607
 18.9511
 18.8751
 18.8597
 18.8607
 21.7486
 21.7529
 21.7459
 21.6929
 19.0773
 19.1027
 19.1046
 20.0794
 20.0967
 20.0806
 20.0803
 19.092
 19.1294
 19.196
 19.1356
 19.8863
 19.8218
 19.8275
 19.7891
 17.9794
 17.9417
 17.9942
 17.9214
 17.773
 17.8484
 17.79
 17.7465
 16.9077
 16.9058
 16.8548
 16.979
 18.5022
 18.6095
 18.5282
 18.5001
 19.9
 19.9869
 19.9075
 19.9566
 19.4654
 19.4956
 20.3707
 20.3674
 20.3429
 20.3445
 18.9245
 18.8912
 19.2952
 19.1727
 19.2001
 19.6466
 19.5985
 19.5641
 19.6031
 17.0183
 16.9702
 17.1078
 17.0909
 17.1899
 17.2107
 17.2473
 17.2052
 19.5458
 19.5208
 19.5729
 19.6317
 20.125
 20.1003
 18.404
 18.3696
 18.3921
 18.3141
 19.6473
 19.6746
 19.6138
 19.6157
 19.18
 19.2825
 19.1171
 16.3874
 16.3499
 16.4535
 18.7031
 18.5946
 18.6319
 18.632
 17.3608
 17.2572
 17.3828
 17.4309
 18.5514
 18.4796
 18.4603
 18.5629
 17.9086
 17.8436
 17.832
 17.9544
 19.9312
 19.8592
 19.92
 19.9551
 19.6048
 19.5031
 19.6358
 19.5342
 18.5407
 18.624
 18.4615
 18.5691
 19.2616
 19.1766
 19.1539
 19.2678
 19.9104
 19.8841
 19.855
 19.7911
 18.9388
 18.9024
 18.8539
 18.8111
 18.1023
 18.0907
 18.1485
 18.6171
 18.5302
 18.5889
 18.5428
 21.3736
 21.3098
 21.2633
 21.308
 20.1208
 20.1243
 20.1052
 20.1159
 19.3206
 19.3201
 19.3308
 19.2498
 20.6811
 20.6138
 20.7052
 20.6562
 17.303
 17.304
 17.3806
 16.7916
 16.8698
 16.9579
 16.8818
 17.7409
 17.5891
 17.6471
 17.6444
 18.6523
 18.1409
 18.0282
 18.0006
 18.0773
 18.771
 18.7072
 18.8108
 18.8174
 19.9354
 20.0012
 19.9665
 19.556
 19.5365
 19.5115
 19.6207
 21.3694
 21.4384
 21.3773
 21.4621
 20.551
 20.552
 20.5281
 20.5276
 19.3557
 19.3561
 19.3082
 19.2627
 16.6997
 16.8431
 16.7927
 16.8112
 21.1861
 21.1679
 21.1075
 21.1186
 17.9943
 17.9076
 18.0476
 17.951
 18.6682
 18.6587
 18.5837
 18.6543
 19.5206
 19.6583
 19.6469
 18.841
 18.9318
 18.9419
 18.9357
 16.8797
 16.8362
 16.8138
 19.885
 19.768
 19.7527
 19.1045
 19.0827
 18.9909
 19.0094
 19.3658
 19.3877
 19.4115
 19.4273
 19.3017
 19.3176
 19.2274
 19.2112
 20.0404
 20.0885
 20.0784
 20.0014
 18.8808
 18.8235
 18.906
 18.8242
 16.9453
 17.0831
 17.0812
 17.1498
 17.3177
 17.3369
 17.3375
 17.266
 20.1958
 20.1766
 20.177
 20.1885
 17.4096
 17.3674
 17.3733
 17.4815
 17.0929
 16.9652
 16.9987
 17.1156
 17.3864
 17.398
 17.5006
 17.4907
 18.2556
 18.2648
 18.1965
 18.2314
 18.7387
 18.7987
 18.7143
 19.3476
 19.4654
 19.4342
 19.4048
 17.7669
 17.8246
 17.8707
 17.7498
 17.7927
 17.743
 17.7026
 17.7283
 16.3636
 16.3661
 16.5275
 16.4315
 20.6246
 20.5745
 20.588
 20.5751
 20.3428
 20.3813
 20.363
 20.3088
 20.0117
 20.0357
 19.9424
 20.0394
 19.2624
 19.3754
 19.2991
 19.3077
 19.2239
 19.2149
 19.217
 17.0498
 16.9894
 16.8976
 16.9529
 17.7061
 17.7498
 17.7985
 17.7888
 18.902
 18.9626
 18.9891
 18.943
 17.2614
 17.207
 18.4516
 18.4532
 18.458
 18.5324
 17.3559
 17.3148
 17.1932
 17.2842
 18.5738
 18.466
 18.5949
 18.4574
 19.3699
 19.3249
 19.4401
 19.4076
 20.2802
 20.3271
 20.2875
 20.2254
 21.4364
 21.3634
 21.46
 21.406
 17.4376
 17.4684
 17.4815
 17.4212
 17.065
 17.0509
 17.0449
 16.9814
 19.0775
 19.1726
 19.1175
 19.1689
 18.7203
 18.7646
 18.7782
 18.7203
 19.6755
 19.7525
 19.6225
 18.2526
 18.3203
 18.3091
 18.344
 19.7132
 19.7281
 19.6723
 19.6779
 18.8449
 18.9192
 18.9851
 18.9335
 18.2041
 18.2479
 18.2294
 18.1894
 18.6192
 18.6456
 18.6833
 17.3373
 17.4238
 17.3977
 17.4
 18.2605
 18.1591
 20.7083
 20.5915
 20.7095
 20.6631
 17.8732
 17.9391
 17.9032
 19.5345
 19.5056
 19.512
 19.5258
 18.3669
 18.386
 18.4102
 18.7394
 18.8229
 18.7358
 18.7849
 18.307
 18.3985
 18.2527
 18.34
 18.2272
 18.1335
 21.1164
 21.1166
 21.1707
 21.1107
 21.2829
 21.3657
 21.393
 21.3203
 18.6892
 18.7832
 18.7449
 18.788
 18.4029
 18.4545
 18.4024
 18.4607
 21.0561
 21.0703
 21.0437
 20.9961
 19.5652
 19.6526
 20.05
 20.0371
 20.0005
 19.9344
 18.1986
 18.2369
 18.1198
 18.1836
 18.4444
 18.4099
 18.3361
 18.4765
 18.2644
 18.363
 18.3867
 18.3596
 19.389
 19.3873
 19.3092
 19.3894
 19.8536
 19.8543
 19.9355
 19.8416
 20.3826
 20.3044
 20.3093
 20.3741
 19.8462
 19.8554
 19.8527
 19.7312
 17.8098
 17.8866
 17.8032
 17.8623
 18.6863
 18.878
 18.7846
 20.6677
 20.623
 20.5744
 18.089
 17.9529
 18.0288
 18.0351
 17.9803
 18.1467
 18.0572
 18.0326
 19.0249
 19.0791
 19.108
 18.9621
 18.9366
 18.86
 18.9254
 19.8904
 19.9403
 19.96
 19.9604
 17.6151
 17.6462
 17.5748
 17.6182
 20.0809
 20.1011
 20.0944
 20.0597
 20.0929
 20.1407
 20.0995
 16.7345
 16.612
 16.5489
 16.6478
 17.4349
 17.3747
 19.511
 19.5431
 19.4691
 19.4985
 18.7686
 18.6792
 18.7728
 18.9173
 18.9637
 18.9405
 19.0137
 19.9038
 19.8436
 19.871
 17.6939
 17.6378
 17.7558
 17.7177
 19.8981
 19.795
 19.8659
 19.8805
 17.97
 18.0534
 18.0792
 18.0296
 20.0467
 20.0034
 19.8133
 19.9009
 19.8344
 19.8737
 19.5715
 19.6111
 19.5922
 19.5628
 20.5493
 20.5691
 20.6391
 20.5977
 17.8246
 17.723
 19.3393
 19.2899
 19.2825
 19.2891
 16.8647
 16.9075
 16.8765
 16.845
 19.3541
 19.3911
 19.2853
 19.2307
 17.6546
 17.563
 17.5342
 17.5262
 17.1673
 17.0658
 17.2338
 17.0853
 17.9796
 18.0714
 17.2046
 17.1231
 17.1529
 17.1753
 19.8847
 19.8994
 19.8962
 19.8257
 17.2474
 17.2068
 17.1931
 17.2541
 16.7577
 16.6303
 16.6385
 16.7313
 18.3579
 18.3514
 18.2755
 18.2981
 18.8475
 18.8791
 18.7852
 18.747
 17.236
 17.3552
 17.2843
 17.2299
 20.6304
 20.5432
 20.5868
 20.6524
 17.2837
 17.1538
 19.3208
 19.2674
 19.2589
 19.186
 17.3987
 17.4271
 17.5259
 17.514
 19.8785
 19.8036
 19.8169
 19.8196
 19.1286
 19.2468
 19.2072
 19.1434
 19.695
 19.7207
 19.6254
 19.8836
 19.9296
 19.8853
 19.9623
 20.0572
 19.9858
 20.0063
 19.9712
 18.3768
 18.4293
 18.4554
 17.4941
 17.4816
 17.3999
 17.4213
 18.6138
 18.6583
 18.6799
 19.8823
 19.9409
 19.903
 18.7267
 18.6003
 18.7075
 18.6373
 18.3045
 18.326
 18.2918
 18.1945
 18.9613
 18.8667
 18.854
 18.8909
 19.1055
 19.1495
 19.1681
 19.2103
 19.2528
 19.258
 19.1042
 19.0689
 19.014
 19.1481
 17.4219
 17.4871
 17.4363
 17.5033
 17.9853
 18.0457
 17.9974
 17.9581
 18.9578
 18.9132
 18.9521
 18.8334
 19.8577
 19.9119
 19.8759
 18.6034
 18.6554
 18.5998
 18.5923
 19.4338
 19.5361
 19.5025
 19.5468
 20.9066
 20.8912
 20.9265
 20.9495
 19.2277
 19.2699
 19.2505
 19.2567
 17.3489
 17.3612
 17.2778
 17.3085
 19.2374
 19.1356
 19.1897
 19.2386
 20.0064
 20.0116
 19.9763
 19.9457
 19.8915
 19.9335
 19.9255
 18.8848
 18.869
 18.8837
 18.2594
 19.2908
 19.4101
 19.3356
 19.3396
 17.2054
 17.2262
 17.1668
 17.3811
 17.361
 17.3148
 19.2606
 19.1778
 19.237
 19.188
 16.6675
 16.6325
 16.6039
 16.5923
 19.8563
 18.492
 18.5653
 18.5072
 18.5315
 19.7991
 19.7674
 19.7785
 19.758
 17.2109
 17.1709
 17.3084
 17.2164
 18.0991
 17.9678
 18.0243
 18.069
 17.7586
 17.7085
 17.8091
 17.7919
 20.0579
 20.0294
 19.9918
 20.0554
 19.4474
 19.3787
 19.4533
 19.4537
 18.6289
 18.677
 18.5953
 18.678
 19.3162
 19.4026
 19.2789
 19.3672
 18.1618
 18.133
 18.0516
 18.0713
 19.8003
 19.8407
 19.762
 19.7594
 19.4791
 19.4296
 19.3661
 19.4126
 18.4076
 18.3989
 18.4161
 18.3065
 17.0976
 16.9807
 17.0492
 16.9873
 19.9949
 19.9904
 19.9108
 19.9537
 20.4844
 20.5695
 20.4785
 20.485
 17.1717
 17.1032
 17.133
 17.0895
 20.4766
 20.5428
 20.3513
 20.3824
 20.3876
 20.3163
 18.7557
 18.7042
 18.7796
 18.8393
 19.4439
 19.3968
 19.3977
 19.4785
 16.4275
 16.3779
 16.39
 16.4659
 17.2495
 17.2577
 17.1389
 18.0982
 18.1054
 18.0353
 18.1374
 19.9341
 19.9101
 19.9892
 19.8867
 19.5019
 19.5158
 19.5447
 19.5809
 19.5325
 19.4741
 18.1106
 17.977
 18.0184
 18.0691
 18.2281
 18.2232
 18.3005
 18.208
 17.9769
 17.9815
 18.0731
 17.9785
 16.7972
 16.7761
 16.9514
 16.7437
 17.7916
 17.7833
 17.873
 19.1698
 18.5904
 18.6047
 18.5761
 18.6444
 18.5542
 18.6448
 18.6211
 18.611
 17.5678
 17.6244
 17.6268
 17.6758
 17.8238
 17.8738
 17.8744
 17.7872
 18.4176
 18.4944
 18.4881
 19.3205
 19.3575
 19.2875
 19.4187
 18.6216
 18.4824
 18.5705
 18.5431
 19.2534
 19.2062
 19.2943
 21.1338
 21.1331
 21.1758
 21.0985
 17.502
 17.3677
 17.4168
 17.4193
 17.5389
 17.3901
 17.472
 21.1026
 18.5399
 18.5169
 18.55
 18.4436
 18.4466
 18.4233
 20.3789
 20.3591
 20.3668
 20.3402
 19.9921
 19.9686
 19.903
 20.0048
 19.601
 19.5562
 19.5529
 19.6463
 19.7299
 19.6934
 19.6399
 19.7267
 19.7369
 19.6681
 19.1242
 19.1767
 19.1993
 19.217
 19.0755
 18.9977
 16.2779
 16.2758
 19.8626
 19.7365
 19.8599
 19.7841
 18.9271
 18.9506
 18.9058
 18.9931
 20.0256
 20.009
 20.134
 20.0873
 17.4132
 17.358
 17.5154
 17.4534
 17.5276
 17.6014
 17.5299
 17.6084
 18.1735
 18.1174
 18.1026
 18.1414
 18.6633
 18.6385
 18.5193
 18.5776
 18.6941
 18.7468
 19.8725
 17.9217
 17.8278
 17.8533
 17.83
 16.8309
 16.8435
 16.7049
 16.8732
 17.4739
 17.3791
 17.4921
 17.4536
 21.7425
 21.7409
 21.7295
 21.7054
 16.9475
 16.9315
 16.9796
 16.9732
 19.6339
 19.6305
 19.7067
 19.5902
 19.3264
 19.4148
 19.3793
 19.4433
 18.0833
 18.0717
 18.0209
 18.0106
 18.0836
 18.099
 18.1468
 18.1266
 19.8966
 19.768
 19.8333
 19.8037
 17.0825
 17.0341
 17.0916
 17.0783
 17.4021
 17.3404
 17.3706
 17.3122
 17.8914
 17.8735
 17.8122
 17.8119
 17.2186
 17.2835
 17.2594
 17.217
 19.4515
 19.3726
 19.374
 19.3398
 19.9101
 19.8864
 19.8712
 19.8377
 17.4629
 17.5418
 17.5642
 17.5428
 19.0129
 19.0093
 19.0483
 19.1178
 18.8573
 18.8965
 18.9119
 18.8623
 21.3239
 21.2952
 21.2473
 21.2912
 16.9719
 16.9509
 17.2001
 17.1792
 17.2644
 17.1338
 20.1826
 20.2617
 20.2878
 20.1677
 19.4436
 19.5453
 19.5431
 19.5841
 17.3631
 17.4269
 17.3331
 17.301
 19.1771
 19.1491
 19.196
 19.1112
 19.2142
 19.189
 19.282
 19.2744
 16.8432
 16.8233
 16.8776
 16.9166
 18.6423
 18.6605
 18.6347
 18.6012
 18.8283
 18.7995
 18.8237
 18.8783
 17.7773
 17.7265
 17.6987
 17.735
 18.1593
 18.1796
 18.2102
 18.2585
 19.1015
 19.0865
 19.1924
 19.4375
 19.3739
 19.4173
 19.3085
 20.3191
 20.3355
 20.3603
 20.2422
 19.2967
 19.2449
 19.2303
 19.2146
 18.7283
 18.7799
 18.7325
 18.8012
 16.7322
 16.7051
 16.7224
 16.8391
 19.3097
 19.1684
 19.2437
 19.2429
 20.1233
 20.1204
 20.1784
 20.2136
 17.9285
 17.856
 17.8941
 17.9603
 18.2999
 18.3071
 18.3507
 18.6637
 18.541
 18.5387
 18.5049
 20.3542
 20.3505
 20.3458
 20.2923
 18.5316
 18.6104
 18.5747
 18.6471
 17.1632
 17.1536
 17.1498
 17.1363
 18.625
 18.6037
 18.6016
 18.5461
 20.076
 20.127
 20.096
 20.0657
 19.7932
 19.7433
 19.8063
 19.8667
 16.2051
 16.2367
 16.1885
 16.1832
 19.4762
 19.4602
 19.4718
 19.5706
 18.34
 18.4752
 18.4322
 18.4054
 16.3544
 16.3418
 16.4192
 16.4162
 17.2227
 17.1056
 17.1616
 17.9321
 17.9409
 17.8428
 17.8151
 17.3526
 17.3601
 17.2367
 17.3857
 20.986
 20.9397
 20.8887
 20.9077
 19.6903
 19.6095
 19.7161
 16.9238
 16.8131
 16.8325
 16.8286
 18.3891
 18.4084
 18.319
 18.4321
 17.6859
 17.7034
 17.6006
 17.7576
 19.959
 19.9675
 20.0289
 20.0679
 19.2002
 19.1152
 19.2185
 19.149
 18.1359
 18.2658
 18.2294
 20.3233
 20.2939
 20.2503
 20.2564
 19.8279
 19.9155
 19.8687
 19.8979
 19.249
 16.8991
 16.8523
 16.8765
 16.8082
 20.8361
 20.8336
 20.8913
 20.8983
 17.779
 17.644
 17.7134
 17.6261
 18.273
 18.3328
 18.2931
 18.3855
 21.1993
 17.5173
 17.5908
 17.478
 16.9577
 16.8429
 16.9146
 16.8991
 18.9396
 18.9072
 18.7884
 18.8834
 18.2091
 18.2147
 18.1461
 18.2604
 19.6541
 19.7331
 18.7767
 18.8166
 18.8105
 18.722
 19.6682
 19.7148
 19.7516
 19.6834
 19.3645
 19.4015
 19.2864
 19.2902
 18.0008
 18.0546
 17.9959
 17.9678
 20.5748
 20.5751
 20.574
 20.4905
 19.9244
 19.9733
 19.9386
 19.9984
 20.4686
 20.4015
 20.1522
 20.1556
 20.1436
 20.1459
 20.2232
 20.2756
 20.1878
 20.2619
 16.8787
 16.9235
 16.9998
 17.0032
 18.4043
 18.3992
 18.4352
 18.3089
 19.1904
 19.0836
 19.1518
 19.1432
 18.5833
 18.6137
 18.6328
 18.5556
 16.8245
 16.831
 20.3603
 20.4028
 20.3934
 20.3568
 16.8336
 16.8066
 16.8771
 20.7382
 20.7702
 20.7396
 20.7797
 17.0257
 17.1156
 17.0484
 17.1191
 19.2873
 19.3482
 19.2618
 19.3464
 18.9838
 18.9618
 19.0039
 16.84
 16.891
 16.8779
 16.8238
 18.4816
 18.5585
 18.4643
 18.5389
 18.9144
 18.8772
 18.7983
 18.8773
 19.2506
 19.2975
 19.0754
 19.2161
 19.1075
 19.1672
 18.3033
 18.391
 18.3506
 16.7571
 16.9018
 16.9167
 16.8129
 19.0277
 18.9719
 19.0342
 19.018
 19.154
 19.197
 19.4383
 19.5276
 19.5457
 19.4815
 20.6981
 20.6862
 20.623
 18.539
 18.5202
 18.6259
 18.6308
 16.9512
 16.9454
 16.9334
 20.449
 20.5098
 20.4472
 18.9526
 19.0176
 18.9741
 19.0499
 18.0934
 18.0981
 18.1982
 18.1633
 20.9073
 20.9323
 20.9117
 20.9031
 17.4343
 17.4109
 17.4692
 17.4801
 18.0396
 18.1121
 18.0995
 18.1217
 17.4504
 17.4228
 17.4825
 16.9325
 16.9164
 16.773
 16.8527
 18.6855
 18.7794
 18.6943
 18.6899
 17.186
 17.2072
 17.2473
 17.2559
 19.3223
 19.3511
 19.2978
 19.3857
 16.8034
 18.2686
 18.8196
 18.8602
 18.7845
 18.8856
 18.2876
 18.3039
 18.3828
 18.3933
 17.8462
 17.8214
 17.8727
 17.9533
 18.2978
 18.3393
 18.2398
 18.28
 17.6809
 17.7381
 17.6587
 17.6735
 18.8128
 18.8629
 18.8239
 18.7571
 18.9122
 18.8803
 18.8663
 18.832
 19.1788
 19.1935
 19.2249
 19.1254
 18.8332
 18.8368
 18.9098
 20.016
 19.9986
 20.0179
 19.9586
 18.7637
 18.115
 17.9919
 17.9858
 18.063
 16.9844
 16.9785
 17.0853
 19.3714
 19.4872
 19.4351
 19.4724
 18.6381
 18.5357
 18.5591
 18.2422
 18.2424
 18.3168
 18.3148
 18.0781
 18.0535
 17.9661
 17.9498
 17.3016
 17.2544
 17.1981
 17.2685
 19.7025
 19.7191
 19.6673
 19.7881
 18.5387
 18.6018
 18.6242
 18.6452
 18.8601
 18.9165
 18.9641
 18.8817
 18.9592
 19.0188
 19.0235
 19.0796
 18.7964
 18.8314
 18.7837
 18.8691
 17.8145
 17.9545
 17.7937
 17.8907
 18.9327
 19.0641
 19.014
 19.0016
 20.3816
 20.3799
 20.382
 20.3491
 20.4044
 20.3518
 20.3577
 18.7878
 18.7765
 18.7039
 18.6973
 18.7541
 18.7032
 18.6815
 18.6618
 18.8576
 18.929
 18.8126
 18.81
 17.044
 17.0386
 17.1505
 17.1397
 17.8128
 17.903
 17.9014
 17.8043
 19.5094
 19.4618
 19.4701
 19.4504
 19.9259
 19.8437
 19.8521
 19.9574
 17.3999
 17.4182
 17.4705
 17.3946
 20.8128
 20.8469
 20.8311
 20.7652
 19.2215
 19.142
 19.1873
 19.1977
 20.1094
 20.0568
 20.0643
 19.749
 19.6927
 19.6887
 19.6375
 17.974
 18.0083
 17.9396
 18.0654
 19.6799
 19.7964
 19.749
 19.7233
 20.3536
 20.2102
 20.3071
 20.9026
 20.8337
 20.7928
 20.8132
 16.7305
 16.6996
 16.6406
 16.569
 19.6354
 19.6868
 19.6429
 19.616
 18.3696
 18.4854
 18.4666
 18.3882
 17.1388
 17.2048
 17.2734
 17.2153
 17.629
 17.5068
 17.6709
 17.5936
 19.5555
 19.5477
 19.5984
 19.5643
 20.1495
 20.2253
 20.2861
 20.2071
 18.5828
 18.5287
 18.6101
 18.5627
 20.1209
 20.0212
 19.0944
 19.2138
 19.194
 19.1259
 18.9729
 18.9798
 19.0271
 18.9471
 19.0656
 19.0578
 19.0986
 19.9721
 19.9434
 19.9712
 18.3209
 18.3185
 18.2936
 18.2666
 18.4746
 18.4841
 18.5497
 18.4071
 19.5523
 19.4595
 19.4995
 19.546
 17.7894
 17.6894
 17.8227
 17.7744
 18.8104
 18.9116
 18.8572
 18.7775
 20.0963
 20.0972
 20.1154
 20.0995
 19.2764
 19.2289
 19.278
 18.4504
 18.4495
 18.5278
 18.4519
 18.7258
 18.682
 18.623
 16.7252
 16.7775
 16.7911
 16.8189
 20.4993
 20.5306
 20.4935
 20.5913
 19.362
 19.2757
 19.2904
 19.3403
 19.3888
 19.4092
 19.4768
 19.3889
 16.6325
 16.6706
 16.5568
 16.4776
 17.7751
 17.7235
 17.7335
 19.6668
 19.6931
 19.7173
 19.6861
 17.5947
 17.6995
 17.6539
 19.6296
 19.6273
 19.6842
 19.6672
 21.4151
 21.366
 21.4146
 21.3725
 17.1665
 17.1323
 17.0755
 17.1865
 19.9591
 19.9811
 20.0161
 20.0863
 16.8991
 16.9406
 16.9552
 16.9287
 19.7715
 19.6733
 19.7443
 19.71
 21.402
 21.4811
 21.4093
 21.4147
 20.2757
 20.3622
 20.2964
 20.248
 19.9391
 19.8752
 19.8295
 19.9517
 18.785
 18.9064
 19.9274
 19.918
 20.0353
 20.0167
 18.3751
 18.4161
 18.4452
 18.4909
 18.8977
 18.8961
 18.9519
 18.8397
 17.2099
 17.3236
 17.1303
 17.1119
 17.391
 17.4512
 17.392
 17.3425
 17.5953
 17.6394
 17.6014
 17.6817
 17.3482
 17.3325
 17.3086
 17.3715
 18.0532
 18.0845
 18.0007
 18.0669
 17.5542
 17.4582
 17.4889
 17.5364
 20.424
 20.5181
 20.532
 20.4126
 17.2217
 17.1725
 17.194
 17.209
 19.1362
 19.2013
 19.2313
 19.1952
 17.7556
 17.8966
 17.8524
 17.3813
 17.2958
 17.3045
 17.346
 19.9173
 20.0013
 20.0102
 19.9787
 20.3225
 20.3515
 20.3939
 20.3702
 17.8805
 17.8982
 17.9533
 17.8163
 18.9869
 19.0006
 19.0249
 19.0668
 18.0845
 18.1497
 18.089
 18.0933
 18.0908
 18.0889
 17.9341
 19.2147
 19.2383
 19.3091
 18.1283
 18.102
 18.576
 18.6901
 16.7526
 16.7026
 16.7001
 16.7453
 18.648
 18.6078
 18.6528
 18.5603
 18.1165
 18.1641
 18.0503
 18.1589
 18.4721
 18.4228
 18.454
 18.3816
 17.5806
 17.5886
 17.5419
 17.597
 17.6033
 19.0374
 19.0324
 19.1137
 19.1175
 20.1056
 20.1058
 20.1037
 20.0952
 18.0913
 18.1821
 18.0929
 18.1454
 18.0927
 18.1595
 18.1731
 18.0854
 21.2482
 21.2071
 21.1787
 21.124
 18.79
 18.7231
 18.7565
 18.8041
 18.8059
 18.8776
 18.9058
 18.834
 18.1895
 18.2527
 19.9601
 19.9376
 19.9023
 19.949
 19.3817
 19.3342
 19.3659
 19.4139
 19.8331
 19.8686
 19.9015
 19.8928
 19.4611
 19.4045
 19.4163
 19.4749
 19.8024
 19.8081
 19.844
 19.7892
 17.7708
 17.8037
 17.7679
 17.7133
 17.218
 17.2192
 17.3109
 17.2535
 19.5966
 19.6294
 19.6746
 19.5855
 18.8012
 18.8858
 18.8147
 18.8354
 17.5913
 17.7033
 17.6294
 17.6823
 19.1362
 19.1688
 19.1761
 19.0838
 19.5994
 19.5456
 20.2416
 20.2071
 20.1861
 20.2481
 18.9843
 19.0115
 19.0415
 19.0836
 17.5016
 17.5456
 17.5485
 17.4391
 17.0229
 17.0848
 17.0686
 17.0046
 21.0426
 21.0338
 19.0886
 19.0243
 18.9903
 18.9801
 19.2014
 19.3174
 19.2424
 19.2412
 19.3147
 19.3463
 19.7536
 19.7075
 19.7234
 19.6784
 18.9189
 18.839
 18.8118
 20.4025
 20.3565
 20.3525
 20.3143
 17.3153
 17.2461
 17.3717
 17.3072
 17.1066
 17.1063
 17.0999
 16.6747
 16.7547
 16.8283
 16.7662
 18.5267
 18.3965
 18.4535
 18.4298
 18.7955
 18.6967
 18.8398
 18.7513
 17.7383
 17.6122
 17.5639
 17.6427
 18.1637
 18.1684
 18.0897
 18.1638
 18.3322
 18.2507
 18.2887
 18.6786
 18.6626
 18.7091
 18.6116
 17.9743
 17.8217
 17.8741
 17.9586
 19.0811
 19.1101
 19.0639
 19.054
 18.7285
 18.7508
 18.6664
 18.7847
 18.194
 18.2128
 18.2517
 18.165
 18.7946
 18.8591
 18.8842
 18.7892
 21.3718
 21.3935
 21.3281
 21.3278
 19.7135
 19.746
 19.7417
 19.7992
 17.9785
 17.9715
 17.8853
 17.8754
 19.7015
 19.6815
 19.7736
 19.8035
 19.9182
 20.0201
 19.9144
 19.8527
 17.403
 17.4113
 17.35
 17.4705
 17.4774
 17.5674
 17.4852
 17.5023
 17.1935
 17.2766
 17.1834
 17.1743
 17.7384
 17.7445
 17.6658
 17.6934
 19.1603
 19.1599
 19.2226
 19.159
 19.7245
 19.7515
 19.6876
 19.7608
 18.1002
 18.2272
 18.098
 18.1951
 19.6857
 19.6626
 19.6505
 19.6566
 20.243
 20.2215
 20.2019
 20.16
 18.892
 18.8286
 18.8771
 18.8136
 19.3045
 19.3548
 19.414
 19.237
 19.2169
 19.1208
 19.2052
 20.1408
 20.1834
 20.2537
 20.1883
 19.6113
 19.6226
 19.6595
 19.6339
 18.0624
 18.0076
 18.0525
 18.0055
 18.7111
 18.6379
 18.6292
 16.692
 16.7859
 16.7859
 16.7207
 17.0299
 16.9525
 16.8932
 16.9786
 19.3347
 19.2784
 19.3663
 19.2767
 18.4848
 18.424
 19.9887
 19.9919
 20.0714
 19.9637
 18.6839
 18.7493
 18.802
 18.7403
 17.1501
 17.1271
 17.2149
 17.1426
 19.6829
 19.6684
 19.6324
 19.1153
 19.1103
 19.0819
 19.1829
 19.2759
 19.1596
 19.1827
 19.2123
 18.8425
 18.7572
 18.7496
 18.8647
 18.8838
 18.8383
 18.7834
 18.8496
 18.6248
 18.5704
 18.6283
 18.5567
 18.9715
 18.9136
 17.6688
 17.6996
 17.5562
 17.6758
 18.8997
 18.9809
 18.9518
 18.9024
 18.3095
 18.4355
 18.3947
 18.9381
 18.8618
 18.9083
 18.8659
 18.3855
 18.4254
 18.4676
 18.4035
 19.7229
 19.8005
 19.7416
 19.8376
 19.0663
 19.0797
 18.9926
 18.5174
 18.5137
 18.4
 18.5663
 18.9375
 18.9466
 18.8894
 19.8359
 19.8086
 19.8833
 18.2741
 18.2811
 18.2791
 18.3696
 18.7748
 18.7153
 18.709
 21.0771
 21.0611
 21.0269
 21.1454
 18.1754
 18.2334
 18.2726
 18.1735
 19.2378
 19.3366
 19.3256
 19.3431
 17.6483
 17.6556
 17.6251
 17.5546
 17.4983
 17.5572
 17.4562
 17.4698
 19.8889
 19.7866
 19.9062
 19.8893
 18.592
 18.6595
 18.6944
 19.4127
 19.4996
 19.4437
 19.4427
 17.3189
 17.453
 17.3833
 18.7639
 18.6998
 18.7472
 18.6645
 18.1027
 18.072
 18.0719
 18.0799
 17.2579
 17.2063
 17.2008
 17.2703
 21.6175
 21.6798
 21.6625
 21.617
 19.5368
 19.5246
 19.4763
 19.5413
 18.5572
 18.4195
 18.4701
 18.4402
 20.2313
 20.2972
 20.3035
 18.7582
 18.6853
 18.7119
 18.772
 17.0466
 18.1915
 18.2413
 18.3543
 18.2694
 17.5626
 17.5651
 17.5381
 17.5063
 17.7818
 17.8374
 17.8517
 17.8002
 18.563
 18.5957
 18.676
 18.7727
 18.7778
 18.7652
 20.8971
 20.8345
 20.8901
 20.8492
 19.409
 19.4442
 19.4751
 19.5215
 19.5075
 19.4515
 19.5053
 17.0961
 16.9115
 17.1043
 17.1042
 18.8477
 18.8568
 18.7565
 18.7676
 18.4973
 18.5317
 18.5957
 18.5403
 17.4221
 17.4696
 17.3817
 17.4778
 18.7331
 18.7525
 18.6695
 18.7593
 20.4602
 20.4234
 20.4942
 20.4704
 18.9344
 18.9654
 18.9223
 18.9529
 19.5557
 19.5541
 19.5422
 19.4903
 19.718
 19.7762
 19.7564
 19.7292
 20.1622
 20.1348
 20.1664
 20.163
 20.5865
 20.6206
 20.6309
 20.5402
 16.6207
 16.7206
 16.6769
 16.6993
 20.7848
 20.7566
 20.8185
 20.7053
 18.859
 18.907
 18.8498
 18.9276
 16.729
 16.7544
 16.8034
 16.7969
 19.1794
 19.1864
 19.1424
 19.1108
 20.1103
 17.2478
 17.3023
 17.2826
 17.2016
 19.7716
 20.4918
 20.41
 20.3911
 20.4633
 18.4501
 18.3551
 17.7382
 17.8476
 17.7391
 17.8391
 17.4244
 17.4405
 17.3804
 17.3901
 16.5755
 16.6752
 16.5775
 17.7192
 17.6205
 17.6205
 17.6208
 19.1067
 16.9151
 18.1104
 18.1484
 18.1727
 17.1195
 17.0543
 17.0356
 17.0801
 19.1543
 19.151
 19.1618
 19.2099
 19.5262
 19.5115
 19.5532
 19.6009
 18.1083
 18.1658
 18.1453
 18.0249
 16.9868
 16.9028
 17.0047
 16.9963
 17.3709
 17.397
 17.3401
 17.4028
 18.317
 18.194
 18.2085
 20.5802
 20.623
 20.491
 20.5723
 21.5582
 21.4861
 21.5264
 21.4827
 20.0987
 20.1937
 20.1986
 20.1511
 18.5924
 18.5246
 18.6124
 20.3725
 20.3016
 20.3302
 20.3922
 17.561
 17.5867
 17.4863
 17.6849
 17.6537
 17.7171
 17.6822
 19.7168
 19.7496
 18.0146
 17.9116
 16.3602
 16.4476
 16.3455
 16.6822
 16.6564
 16.6678
 16.6185
 18.9878
 19.0606
 18.945
 19.0014
 19.4307
 19.4464
 19.4849
 19.3988
 18.9271
 18.935
 18.8576
 18.8612
 16.9378
 16.9413
 16.9222
 16.9471
 18.0477
 18.0154
 18.0418
 18.0949
 20.1383
 20.1407
 20.1401
 20.0745
 17.9997
 17.9795
 18.0389
 17.9405
 18.5577
 18.5344
 18.6078
 18.5215
 18.1342
 18.0662
 18.0816
 21.779
 21.7566
 21.7463
 19.4062
 19.4476
 19.1396
 19.1382
 19.2095
 19.1033
 17.8707
 17.7839
 17.8408
 17.8668
 17.9919
 17.9507
 17.8477
 17.9509
 17.9407
 17.9863
 17.8509
 20.9882
 20.9948
 20.2076
 20.2144
 20.1672
 20.2011
 18.5255
 21.0491
 21.1162
 21.0864
 21.0809
 19.5788
 19.4862
 19.5635
 19.5738
 19.067
 19.0971
 20.566
 20.4463
 20.4554
 20.5161
 16.6024
 16.4876
 16.5482
 16.5808
 16.9398
 16.9213
 16.9674
 16.8334
 19.8336
 19.7019
 19.7957
 19.7248
 19.4323
 19.4812
 19.3291
 19.3676
 19.4107
 19.463
 19.4131
 17.8823
 17.8432
 17.95
 17.8785
 20.1037
 20.0596
 20.0248
 20.01
 18.8504
 18.8053
 18.8628
 18.3219
 18.3139
 18.2679
 18.2084
 19.4557
 19.4424
 19.3855
 19.4237
 19.68
 19.5997
 19.5564
 19.6357
 19.7163
 19.7727
 19.7593
 19.6965
 19.1758
 19.1329
 19.0831
 19.1531
 18.1877
 18.2497
 19.5628
 19.5435
 19.5165
 19.5841
 16.6214
 16.7727
 16.7561
 16.7456
 19.8178
 19.7775
 19.8181
 19.7676
 20.4057
 20.426
 20.3368
 20.3849
 18.5081
 18.47
 20.7765
 20.7496
 20.8258
 20.7342
 19.2855
 19.2512
 19.321
 17.1382
 17.1796
 17.1081
 17.0974
 20.6828
 20.7055
 20.6858
 19.7263
 19.7279
 19.6554
 19.6803
 20.5078
 19.7567
 19.787
 19.7787
 19.858
 18.7465
 18.7967
 18.7387
 18.7553
 19.0375
 19.0195
 18.9766
 19.0433
 17.0116
 16.8985
 18.6686
 18.6332
 18.6529
 18.673
 19.7799
 19.8693
 19.7672
 19.8745
 19.3723
 19.2132
 19.2947
 19.3706
 17.2464
 17.3185
 17.3082
 17.3137
 19.0658
 19.0419
 18.9594
 18.9812
 18.5272
 17.4867
 17.4248
 17.5054
 19.3416
 19.3233
 19.3978
 19.2891
 18.0449
 18.0681
 18.0198
 18.133
 19.2062
 19.2554
 19.2621
 19.1674
 16.9879
 17.0915
 17.1011
 17.0551
 16.3763
 16.321
 16.4149
 19.7277
 19.6689
 19.5959
 19.6502
 18.3601
 18.3061
 18.411
 18.3793
 18.0428
 18.0215
 17.9613
 17.9224
 19.4222
 19.4232
 19.6823
 19.7249
 19.7488
 19.6628
 19.2037
 19.0839
 18.3594
 18.3346
 18.3742
 18.4037
 18.1996
 18.1655
 18.106
 18.2061
 19.0961
 19.074
 19.0033
 19.0365
 18.4393
 18.4307
 18.4259
 17.314
 17.4263
 17.4496
 17.4024
 17.7362
 17.762
 17.7083
 19.1183
 18.9891
 19.1057
 19.0507
 19.6048
 19.6974
 19.7456
 19.6463
 18.05
 18.1404
 18.1413
 18.0724
 19.0493
 19.0571
 19.1388
 20.1386
 20.1507
 20.1345
 20.1498
 19.4457
 19.4583
 19.4191
 19.3912
 17.694
 17.6889
 17.7728
 16.6629
 16.7763
 16.773
 18.1292
 18.0869
 18.0853
 19.451
 19.525
 19.4244
 19.5011
 16.8182
 16.8203
 16.8308
 16.7662
 18.2752
 18.3167
 18.267
 18.207
 17.558
 17.5165
 17.3866
 17.4175
 17.701
 17.6612
 17.7083
 17.6993
 20.3299
 20.3734
 20.3851
 19.1538
 19.135
 19.1901
 19.1261
 17.6325
 17.5793
 17.6669
 17.6652
 18.9578
 18.9184
 18.9049
 18.8202
 17.9716
 17.9696
 17.9935
 18.088
 17.0786
 17.0241
 20.1537
 20.0995
 20.1082
 20.0712
 17.8274
 17.8728
 17.7654
 17.8522
 19.1906
 19.2327
 19.2545
 19.1715
 18.1435
 18.2309
 16.8592
 16.8627
 16.9316
 16.8125
 17.5604
 17.4566
 17.5917
 17.4001
 16.7139
 16.718
 16.6378
 16.5699
 17.9119
 17.9354
 17.8863
 18.1174
 18.0038
 18.0337
 18.0564
 17.9812
 18.0488
 18.0259
 18.1118
 19.5714
 19.5499
 19.6252
 19.6456
 20.4798
 20.5197
 20.4308
 18.786
 18.7666
 18.7708
 17.3519
 17.4303
 17.3772
 17.4578
 19.0826
 19.0299
 18.9639
 19.0253
 19.8178
 19.9033
 19.8849
 19.8138
 18.7699
 18.8519
 18.8863
 18.8932
 19.2145
 19.1079
 19.2056
 16.8865
 16.8449
 16.9582
 16.9498
 20.0742
 20.0449
 19.9146
 19.8707
 19.8633
 18.0074
 17.9766
 18.0581
 17.928
 18.8738
 18.7985
 18.7791
 18.8372
 19.9335
 19.921
 19.8554
 19.9201
 18.4969
 18.6317
 18.6322
 18.5346
 19.3388
 19.3925
 19.2959
 19.3006
 17.2668
 17.2501
 17.1279
 19.448
 19.4677
 19.3955
 19.4021
 18.5309
 18.4755
 19.9591
 19.8631
 19.8858
 19.9449
 19.8467
 19.9122
 19.8797
 19.9098
 17.1274
 17.1909
 19.7211
 19.6547
 19.6907
 19.748
 18.7555
 18.8383
 18.79
 18.7584
 19.2353
 20.4189
 20.4808
 20.4615
 18.4867
 18.493
 18.4628
 18.5414
 17.1474
 17.1369
 17.2031
 17.0995
 20.2813
 20.2815
 20.24
 20.3032
 19.8648
 19.8025
 19.8817
 19.8679
 18.0583
 18.0124
 18.0085
 20.2026
 20.1888
 20.152
 20.1297
 16.6614
 16.7675
 16.6915
 16.6455
 20.1309
 20.0764
 20.0572
 20.1633
 18.2178
 18.3056
 18.2379
 18.1471
 19.2138
 19.171
 19.1844
 19.2387
 19.902
 19.8747
 19.8876
 19.2873
 19.1979
 19.2974
 19.2227
 20.002
 20.0818
 20.0322
 20.0308
 19.7841
 19.8339
 19.7926
 17.8281
 17.8966
 17.8046
 17.8431
 17.9306
 18.8684
 18.702
 18.8056
 18.8034
 17.1014
 17.1439
 17.1876
 17.1449
 18.4933
 18.4094
 18.5439
 18.4434
 18.1677
 18.105
 18.1674
 18.196
 19.8851
 19.9198
 19.8336
 19.7082
 19.7273
 18.3314
 18.4297
 18.3565
 18.3207
 17.1646
 17.0426
 18.6022
 18.5796
 18.6521
 18.5585
 19.9888
 20.0086
 19.9366
 17.3219
 17.2903
 17.3629
 17.3308
 18.6431
 18.743
 18.7171
 18.6954
 19.9232
 19.9687
 19.9245
 19.8925
 18.8364
 18.8507
 18.7384
 18.8137
 18.26
 18.1246
 20.2715
 20.3091
 20.2869
 20.3348
 19.7253
 19.6089
 19.5473
 19.5913
 19.5294
 19.5464
 19.5523
 19.6419
 19.6047
 19.5593
 18.7187
 18.7089
 18.7324
 18.3095
 18.345
 18.3731
 18.412
 19.6426
 19.6499
 19.6336
 19.6505
 19.2179
 19.2242
 18.5004
 18.5683
 18.5489
 18.6123
 18.5334
 18.5196
 18.893
 18.7957
 18.7867
 18.8649
 20.7327
 20.6555
 20.6699
 20.6283
 18.5373
 20.0056
 19.9285
 19.9829
 19.9986
 16.9039
 16.833
 16.9203
 17.8909
 17.9308
 17.9685
 17.8791
 18.8527
 18.7999
 18.8296
 18.9463
 18.7325
 18.6638
 18.7557
 19.7606
 19.702
 19.7367
 19.7789
 17.1857
 17.1184
 17.2869
 17.1639
 18.2811
 18.3071
 18.2315
 18.2521
 17.2137
 17.1915
 17.3155
 17.2512
 20.0336
 20.0192
 20.0946
 20.0903
 19.5874
 19.5294
 17.8755
 17.9113
 17.9565
 17.9072
 17.0995
 17.0937
 17.0809
 17.1334
 16.4137
 16.374
 16.4411
 16.3296
 17.1936
 17.2546
 17.1755
 18.2747
 18.2259
 18.3019
 18.2563
 17.3742
 17.3411
 17.2868
 17.3285
 20.1217
 20.0522
 20.0024
 20.0681
 17.5309
 17.4845
 17.4607
 18.2941
 18.3178
 18.3381
 18.3335
 20.013
 20.0514
 20.0124
 20.0718
 18.0621
 17.9697
 18.0313
 18.0224
 18.4298
 18.3686
 18.3462
 18.4129
 19.4554
 19.409
 19.3917
 19.3315
 20.1688
 20.1555
 20.2466
 20.2399
 18.9998
 18.973
 18.9079
 18.9838
 20.8805
 20.8505
 20.7716
 20.8012
 19.8244
 19.7789
 19.8345
 19.6638
 19.7428
 19.7403
 19.7566
 21.1582
 21.1183
 21.2033
 21.1296
 17.374
 17.4421
 17.4381
 17.6473
 17.6393
 17.5682
 17.5872
 19.6084
 19.4927
 19.5287
 20.4598
 20.4502
 20.482
 20.1149
 20.193
 20.1141
 20.1132
 19.559
 19.5705
 19.5051
 19.6242
 18.2358
 18.1381
 18.1996
 18.2104
 20.7126
 20.7029
 20.6435
 20.7213
 18.3886
 18.5119
 18.5306
 18.4335
 17.6405
 17.5678
 17.701
 17.6364
 18.5667
 18.5651
 18.4504
 18.4857
 19.0614
 19.1077
 18.9941
 19.9591
 19.9651
 19.9623
 19.9112
 17.1895
 17.1116
 17.0932
 17.1091
 17.5601
 17.5077
 17.5627
 17.6089
 19.4905
 19.4295
 19.4676
 19.5274
 16.9647
 16.917
 16.88
 17.1783
 17.0529
 17.1618
 17.132
 17.0799
 17.0512
 17.1359
 17.1041
 20.643
 20.6615
 21.1521
 21.1423
 21.1874
 21.0936
 18.2593
 18.2946
 18.3481
 18.8278
 18.886
 18.7642
 18.8639
 18.7406
 18.657
 18.6856
 18.7299
 21.7154
 19.0878
 18.3553
 18.2788
 17.6173
 17.559
 17.5947
 17.582
 20.4703
 19.2551
 19.1841
 19.2569
 16.3064
 16.3692
 16.3668
 16.364
 18.6976
 18.7581
 18.7018
 18.6369
 16.8474
 16.9117
 16.8653
 16.9332
 19.0494
 18.9635
 19.1019
 19.2665
 19.1818
 19.2325
 17.4228
 17.38
 17.489
 17.4139
 18.4114
 18.4426
 18.4993
 18.5505
 20.1044
 20.1614
 20.0512
 20.0762
 17.5432
 17.3992
 17.4539
 16.936
 16.8041
 16.8032
 16.9317
 17.5963
 17.6105
 17.6899
 17.5939
 19.6174
 19.632
 19.5075
 19.6384
 19.4433
 19.4979
 19.4868
 19.4967
 17.3238
 17.2539
 17.2611
 17.2474
 19.0997
 19.1162
 19.1788
 17.7995
 17.7819
 17.8257
 17.8671
 19.9316
 19.8646
 19.9721
 19.968
 18.3303
 18.296
 18.3975
 18.356
 20.0248
 19.9728
 20.0183
 20.013
 18.5596
 18.4814
 18.5436
 18.5226
 17.7011
 17.677
 17.6004
 17.7743
 20.1794
 20.2017
 20.1426
 18.6204
 18.5522
 17.5215
 17.5714
 17.5708
 17.6268
 19.0959
 19.1411
 19.1502
 20.0641
 20.1329
 20.1541
 20.1184
 18.1351
 18.1013
 18.1517
 18.0733
 18.2492
 18.2648
 18.1357
 18.2305
 21.4476
 21.4555
 21.3846
 21.4213
 18.7979
 18.8778
 18.8239
 21.0051
 20.9485
 20.932
 18.6923
 18.6949
 18.7415
 18.7205
 18.8074
 20.0082
 20.0027
 20.1084
 20.082
 19.0095
 18.9477
 18.9084
 17.6025
 17.6087
 17.6124
 17.6454
 18.9014
 18.8612
 18.8221
 18.8237
 18.8324
 18.8628
 18.8808
 16.4327
 16.4877
 16.5074
 16.5827
 19.6661
 19.5192
 19.5576
 19.6098
 20.2678
 20.2632
 20.2307
 20.241
 19.2844
 19.3138
 19.1902
 19.27
 17.386
 17.332
 17.3278
 17.4462
 21.4945
 21.4311
 21.4738
 21.3884
 17.8768
 17.9653
 17.9005
 17.8923
 20.2415
 20.2987
 20.2716
 20.2789
 17.5349
 17.7129
 17.6773
 17.6
 17.6973
 17.7536
 17.7951
 17.7315
 17.8623
 17.8141
 19.6146
 19.6585
 19.6637
 19.6232
 17.2062
 17.2154
 17.2134
 17.8105
 17.9384
 17.8777
 17.7877
 19.7271
 19.6453
 19.6987
 19.7754
 19.2692
 19.3019
 19.2026
 21.7861
 21.7851
 21.8122
 21.7854
 18.798
 18.92
 18.8078
 17.2446
 17.1804
 17.2431
 17.2708
 17.6283
 17.6858
 17.2759
 17.1948
 17.1237
 17.2553
 17.9086
 17.8992
 20.2786
 20.2365
 20.3375
 20.1919
 17.7405
 17.7643
 17.7506
 17.8523
 18.6754
 18.6256
 19.3527
 19.2904
 19.3057
 19.3412
 17.7737
 17.7373
 17.6915
 17.7359
 19.5587
 19.6867
 19.682
 19.5853
 17.276
 17.2913
 17.2107
 17.0752
 18.3973
 18.3729
 18.4694
 20.424
 20.462
 20.4696
 20.4181
 18.258
 18.2819
 18.3212
 18.3617
 19.6522
 19.7225
 19.7523
 19.7808
 19.6036
 19.6887
 19.6286
 21.5566
 21.5586
 21.5657
 21.5211
 20.1569
 20.0388
 20.0114
 20.1192
 17.5873
 17.6393
 17.5543
 17.6412
 18.8787
 18.8598
 18.9319
 19.1894
 19.9299
 19.8898
 19.917
 19.8614
 19.1802
 19.2395
 19.19
 19.1643
 18.0246
 17.913
 17.8969
 17.997
 19.9411
 19.9411
 19.8091
 20.4948
 18.4207
 18.3842
 18.477
 18.3482
 19.9018
 19.7924
 21.0585
 21.1129
 19.9074
 19.8507
 19.9105
 20.0008
 17.9559
 17.8864
 17.5074
 17.5104
 17.4697
 17.5252
 19.3837
 19.3187
 19.2999
 19.3247
 16.9851
 16.9667
 16.8874
 16.9712
 19.3142
 19.3079
 19.4617
 19.4469
 17.8255
 17.8146
 17.8502
 17.965
 19.7291
 19.725
 19.688
 19.6818
 17.7122
 17.6588
 17.7624
 17.6952
 19.0481
 18.989
 17.109
 17.1562
 18.1659
 18.1099
 18.1919
 18.0911
 18.1379
 18.1732
 18.1696
 18.0832
 18.5825
 18.6339
 18.5597
 18.5543
 17.7072
 17.8194
 17.7129
 17.6302
 19.7525
 19.8291
 19.7827
 19.7869
 17.1657
 17.1998
 17.2189
 17.0217
 17.0015
 17.0925
 17.0307
 19.9896
 19.9018
 19.9019
 19.9383
 17.9352
 18.0394
 18.0241
 17.9853
 19.9784
 19.9171
 19.9095
 19.8456
 18.7228
 18.8931
 18.7843
 18.7824
 18.8929
 17.5171
 17.5036
 17.4989
 17.6008
 20.8761
 20.9283
 20.8869
 20.8281
 17.9892
 17.9375
 17.8753
 17.9502
 18.7357
 18.6588
 18.8095
 18.7487
 18.0043
 18.0657
 18.0761
 18.0769
 18.1314
 16.4738
 16.5392
 16.6633
 16.5932
 17.6741
 17.6736
 17.8048
 17.7664
 21.0202
 20.9785
 20.9273
 21.0311
 19.0793
 19.1667
 19.2024
 19.1247
 19.4564
 18.6507
 18.6728
 18.6438
 18.5792
 17.2691
 17.2719
 17.3526
 17.401
 17.5366
 17.5348
 17.4554
 17.2727
 17.4664
 17.371
 17.4132
 21.457
 21.4191
 17.7951
 17.7931
 17.7749
 19.4984
 19.5043
 19.523
 19.4343
 17.8862
 17.9266
 17.8634
 17.9379
 18.5727
 18.1001
 18.1778
 18.0928
 18.1246
 17.019
 17.1614
 17.1245
 17.0273
 18.1024
 18.0438
 17.9296
 18.0824
 19.1113
 19.0851
 19.1917
 19.0276
 20.0293
 20.0136
 20.0556
 19.9957
 16.6081
 16.725
 16.5722
 16.6198
 17.9363
 17.9752
 17.8979
 18.0011
 16.746
 16.7928
 16.7693
 16.6869
 19.4913
 19.6004
 19.4908
 19.4769
 18.5715
 18.6136
 17.0786
 16.9578
 17.0921
 17.0236
 18.5793
 18.5523
 18.553
 18.4769
 18.8746
 18.782
 18.6617
 18.6012
 18.5655
 18.6571
 17.4846
 17.5072
 17.5335
 17.4451
 19.3211
 19.4171
 19.4614
 19.3755
 20.2919
 20.2291
 20.277
 20.2752
 20.1105
 20.1365
 20.142
 20.1383
 19.4096
 19.3717
 19.3685
 19.4434
 19.0193
 19.129
 19.0509
 18.9907
 19.1124
 19.0573
 19.0187
 18.7345
 18.7956
 18.8174
 18.7589
 20.3365
 20.3657
 20.3289
 19.1959
 19.2271
 19.1349
 19.1491
 18.6181
 18.5529
 18.5551
 18.6515
 19.5834
 19.6524
 19.5408
 19.6634
 19.4463
 19.3788
 19.3975
 19.4031
 18.4714
 18.4664
 18.4044
 18.3486
 18.8632
 18.9302
 18.8711
 18.8951
 18.0616
 18.0963
 18.0473
 18.0749
 20.1358
 20.1162
 20.0884
 17.6065
 17.6453
 17.5432
 17.6407
 19.5812
 19.5079
 19.553
 19.6112
 19.0629
 19.1141
 19.1465
 19.0394
 18.8965
 18.83
 18.805
 18.2984
 18.3084
 18.2763
 18.2121
 18.1481
 18.1332
 18.083
 18.1771
 18
 17.99
 17.9131
 17.4569
 17.4149
 17.4332
 18.213
 18.2509
 18.3064
 18.2351
 17.3266
 17.2802
 17.3893
 17.1914
 17.1869
 17.2136
 17.2918
 18.8386
 18.9882
 18.9089
 18.9383
 19.4409
 19.4998
 19.4329
 19.4953
 19.8038
 17.4238
 17.4692
 17.3325
 17.4097
 17.342
 17.499
 21.6033
 21.6416
 21.5983
 21.576
 17.7888
 17.86
 19.0124
 19.1108
 19.0148
 16.7313
 16.6288
 18.2913
 18.4138
 18.3799
 18.3616
 19.0754
 19.035
 19.0326
 17.7803
 17.6256
 17.7266
 17.6675
 19.4801
 19.4601
 19.5164
 19.4356
 21.1485
 21.0871
 21.1017
 21.1651
 18.4306
 18.4153
 18.457
 18.3471
 17.4773
 17.3292
 17.4805
 17.6913
 17.691
 17.6724
 17.7483
 19.6254
 19.7432
 19.7104
 19.7893
 19.6537
 19.5866
 19.8944
 19.8349
 19.9177
 16.6733
 16.7328
 17.4786
 17.5659
 17.4669
 17.5882
 18.6297
 18.5079
 18.5271
 17.8657
 17.9632
 17.8036
 17.7935
 19.5867
 19.6982
 19.6775
 19.6222
 18.7578
 18.7647
 18.6932
 18.6756
 18.8153
 18.7533
 18.7506
 18.8186
 19.7258
 19.6845
 19.7059
 19.5875
 19.626
 19.5984
 19.6052
 16.3552
 16.2515
 16.3245
 16.2061
 20.1968
 20.2917
 17.2346
 17.2112
 17.2206
 17.2815
 19.0457
 18.9696
 19.0032
 19.0387
 18.6294
 18.574
 18.5714
 18.5709
 20.1391
 20.0721
 18.6624
 18.719
 18.7226
 18.7697
 19.0313
 19.0569
 19.0825
 19.0034
 17.5762
 17.5989
 17.6291
 17.5807
 18.8794
 18.8273
 18.8087
 18.9257
 19.5282
 19.5271
 18.342
 18.3406
 18.3844
 18.3155
 17.9523
 17.992
 17.9193
 18.6249
 18.542
 18.5666
 18.5285
 19.8457
 19.8092
 19.8636
 19.7623
 21.2746
 21.2101
 21.2188
 21.2802
 18.8622
 18.9132
 18.8587
 18.7619
 18.5246
 18.4122
 18.4943
 18.5224
 19.1097
 19.0668
 19.1562
 19.1374
 19.3502
 19.399
 19.3429
 19.3039
 17.5407
 17.4443
 18.3076
 18.3466
 18.3764
 20.735
 20.7657
 20.8063
 20.7288
 19.712
 19.7753
 19.6639
 19.7996
 18.6563
 18.6249
 18.6802
 18.7063
 17.5627
 17.5274
 17.5225
 18.9961
 19.0238
 19.1198
 19.1248
 19.5674
 19.4606
 19.4995
 19.5734
 17.8368
 17.934
 17.9432
 17.8781
 18.3028
 18.3293
 18.3597
 18.3522
 17.5632
 17.5476
 17.5519
 17.7712
 17.7561
 17.7632
 17.7486
 19.2326
 19.2201
 19.2748
 19.3201
 18.932
 18.9416
 18.8681
 21.1756
 21.1646
 21.1805
 21.2227
 19.5737
 19.5723
 20.2843
 20.3334
 20.2589
 20.2197
 19.7737
 20.0748
 17.2751
 19.4904
 19.573
 19.5086
 19.6107
 16.6474
 18.2777
 18.3576
 18.277
 18.3845
 19.5269
 19.4415
 19.486
 19.2033
 19.1397
 19.1387
 17.5448
 17.5351
 17.6542
 17.5539
 17.6588
 17.7161
 17.6409
 17.7059
 19.9328
 20.0322
 20.0352
 19.9647
 17.0088
 16.9872
 16.9621
 17.0699
 18.7642
 18.8404
 18.8992
 17.6644
 17.5938
 17.6444
 18.4691
 18.5481
 18.519
 18.4558
 19.4868
 19.4432
 19.5427
 19.5085
 18.5264
 18.4051
 18.5109
 19.4089
 19.3874
 19.3811
 19.47
 19.0221
 18.9128
 17.5482
 17.4983
 17.4751
 17.4008
 17.2617
 17.15
 17.2094
 17.2429
 19.7141
 19.6349
 19.7479
 19.6837
 17.8927
 18.0113
 17.9658
 17.8703
 18.3528
 18.4806
 18.3704
 18.3221
 19.1728
 19.2356
 19.1324
 19.1754
 17.3673
 17.4017
 17.4351
 17.4749
 19.004
 19.0733
 18.9564
 18.9799
 18.7633
 18.8279
 18.8296
 18.702
 18.9538
 19.0053
 18.9372
 18.9275
 19.672
 19.5955
 19.7867
 19.7339
 19.6791
 19.77
 20.3958
 20.5032
 20.434
 20.4057
 18.308
 18.3114
 18.3084
 18.223
 18.371
 18.4619
 18.4485
 17.0576
 17.0341
 17.0138
 17.0203
 16.6311
 16.5867
 16.6675
 17.1368
 17.0965
 17.2247
 18.4998
 18.4064
 18.3399
 18.4607
 18.0359
 17.9785
 17.9262
 18.0751
 17.6064
 17.5252
 17.5972
 17.5127
 19.4124
 19.495
 19.4742
 19.422
 20.2555
 20.1915
 20.1579
 20.1579
 16.6849
 16.683
 16.7489
 16.5807
 19.5813
 19.6122
 19.643
 19.563
 18.5674
 18.567
 18.5241
 18.5881
 16.6003
 16.6499
 16.7594
 16.5436
 18.1919
 18.2764
 18.168
 18.1956
 19.0976
 19.138
 19.1066
 19.1332
 19.5564
 19.6218
 19.6136
 20.0508
 19.9687
 20.0193
 20.0654
 19.861
 19.8965
 19.8544
 19.9027
 19.7972
 19.8629
 19.629
 19.5856
 19.7169
 17.6066
 17.6564
 17.6734
 17.6864
 17.1869
 17.2587
 17.2295
 17.2482
 18.1665
 18.1871
 18.1848
 18.2908
 18.8925
 17.2634
 17.2265
 17.2421
 17.2941
 20.1073
 20.1113
 20.1178
 20.1336
 16.8439
 16.7749
 16.8672
 16.7318
 19.2009
 19.2785
 19.1584
 17.9923
 19.9961
 19.9975
 20.0501
 19.7564
 19.795
 19.8419
 19.7186
 18.6493
 18.6653
 18.7752
 18.7055
 17.8276
 17.8202
 17.8892
 17.7677
 18.9019
 18.033
 18.0706
 18.0957
 18.8753
 18.8983
 18.8749
 18.7942
 19.4238
 19.4014
 19.4641
 19.4634
 19.1877
 19.2872
 19.214
 19.204
 17.9854
 19.6689
 19.6622
 19.6185
 17.6679
 17.725
 17.6537
 17.7031
 17.443
 17.4715
 17.3697
 17.4966
 17.143
 17.0977
 17.1573
 19.4176
 19.413
 19.472
 19.4065
 20.1513
 20.1996
 20.1545
 17.5139
 17.5362
 17.3554
 17.3902
 17.4359
 17.4367
 18.9057
 18.9029
 18.8455
 16.828
 16.8647
 16.7882
 16.8804
 17.5313
 17.57
 17.5348
 17.4907
 18.2287
 18.2379
 18.1845
 18.17
 18.6068
 18.5818
 18.6273
 18.6952
 19.5958
 19.6141
 19.6331
 19.5668
 17.3992
 17.3927
 17.4364
 17.3204
 19.3715
 19.3494
 19.4473
 19.216
 19.1478
 19.1394
 19.1166
 17.1849
 17.1937
 17.0765
 17.146
 18.0299
 18.0238
 18.059
 18.0842
 16.8059
 16.8718
 16.943
 16.8586
 19.2027
 19.1455
 19.1148
 19.1251
 18.6095
 18.5774
 18.6728
 18.5172
 17.4521
 17.4618
 17.4077
 17.4462
 18.6415
 18.5756
 18.6596
 18.644
 16.8145
 16.689
 16.7923
 19.4406
 19.4668
 19.4847
 19.472
 18.4559
 18.4592
 18.475
 18.5399
 18.2616
 18.1721
 18.2414
 18.2314
 18.7429
 18.7954
 18.6705
 18.7582
 17.4676
 17.4726
 17.3633
 17.4243
 18.8936
 18.9765
 18.9279
 18.956
 18.3459
 18.3684
 18.3521
 18.4225
 20.1546
 20.1505
 20.1671
 20.1534
 17.7257
 17.7067
 17.7784
 17.8167
 20.1567
 20.1583
 20.158
 19.6345
 19.6706
 19.6683
 19.6241
 19.8724
 19.8405
 19.7054
 19.8106
 17.7789
 17.82
 17.7604
 17.7043
 18.0705
 17.955
 18.0444
 18.0318
 19.1976
 19.2709
 19.2675
 19.3118
 16.5355
 16.5998
 16.6788
 21.1407
 21.1564
 18.3351
 18.2583
 18.3762
 18.3462
 20.5183
 20.5792
 20.6503
 20.5808
 18.0856
 18.0781
 17.9802
 18.0173
 19.1652
 19.3867
 19.4144
 19.4353
 19.4797
 17.8504
 17.821
 17.8055
 17.7753
 17.408
 17.4365
 17.3513
 17.4319
 20.1523
 20.1524
 17.9735
 17.9363
 17.8082
 17.9489
 18.4165
 18.5637
 18.4072
 18.4832
 19.5192
 19.5161
 19.5709
 19.4132
 18.9026
 18.97
 18.9868
 18.8932
 17.5481
 17.6469
 17.4659
 17.159
 17.1905
 17.1771
 17.1923
 16.6143
 16.6098
 16.5849
 19.3379
 19.3874
 19.3717
 19.3272
 17.1258
 17.2001
 17.2229
 17.24
 19.9268
 19.9928
 19.9659
 19.9461
 18.1536
 18.1439
 18.1299
 18.2251
 18.5377
 18.4399
 18.5121
 18.5071
 17.1219
 17.1294
 17.1376
 17.0615
 18.0556
 18.0022
 18.0845
 18.132
 20.6702
 20.7075
 20.7302
 20.6801
 18.8909
 19.0065
 18.8983
 18.9875
 19.2921
 19.1725
 19.1878
 19.2799
 17.8492
 17.7989
 17.8836
 17.9592
 19.8302
 19.8873
 19.9175
 19.9057
 18.3469
 18.4095
 18.3815
 18.2861
 19.3465
 19.412
 19.4191
 20.1661
 20.2167
 20.1919
 20.2419
 18.2627
 18.1877
 18.3198
 18.1372
 18.1516
 18.2009
 19.6446
 19.7232
 19.775
 19.7961
 19.8058
 19.7696
 19.7423
 17.1835
 21.6771
 21.6382
 21.6433
 21.7057
 17.4933
 17.5647
 17.4246
 17.5028
 19.9804
 19.1759
 19.1903
 19.2123
 19.103
 19.3147
 19.3607
 19.2115
 19.5946
 19.4953
 19.5424
 19.5779
 20.6735
 20.6961
 20.6509
 20.7444
 19.9291
 19.8679
 19.8718
 18.6378
 18.6819
 18.6733
 19.3531
 19.3805
 16.4108
 16.5216
 16.5304
 19.8652
 19.8038
 19.8985
 19.1911
 19.1295
 19.0992
 17.1137
 17.0282
 17.0416
 17.7926
 17.7876
 17.7019
 17.7901
 19.5756
 19.528
 19.5049
 20.1313
 20.2107
 16.971
 17.0531
 16.9396
 16.9745
 20.4556
 20.4289
 20.508
 20.3786
 19.8446
 19.8711
 21.2625
 21.3216
 20.9676
 20.9804
 20.9405
 19.2007
 19.159
 19.2429
 17.0055
 17.1088
 17.1408
 18.0031
 17.988
 17.9101
 19.5315
 19.4693
 19.3911
 19.3472
 19.4201
 17.3487
 20.1989
 20.2008
 20.1661
 20.1615
 19.2887
 19.1487
 19.2402
 19.2454
 17.8888
 17.9217
 17.8623
 17.9299
 17.9222
 17.9717
 17.9461
 19.2191
 19.2467
 19.1763
 19.121
 18.0156
 17.9798
 17.9254
 17.9288
 17.7255
 17.7999
 17.7572
 17.6624
 18.7871
 17.9598
 17.9562
 17.9303
 17.9015
 16.8738
 16.8254
 16.8702
 16.9379
 19.6869
 19.8178
 19.8347
 19.7371
 17.0432
 16.9937
 17.0429
 17.0523
 21.3141
 21.2963
 21.3474
 16.959
 17.0135
 16.8634
 16.9165
 19.6576
 19.676
 19.7475
 19.7361
 17.7191
 17.7978
 17.7408
 17.6838
 19.8516
 19.849
 19.9994
 19.9663
 16.7211
 17.5429
 17.6628
 17.6181
 17.7013
 17.3455
 17.2566
 17.2972
 20.0924
 20.0504
 20.1168
 20.1458
 17.7905
 17.8571
 17.8493
 17.8966
 18.4152
 18.3448
 18.3353
 18.3646
 18.5191
 18.4714
 18.5877
 18.5911
 16.6107
 16.7142
 19.051
 19.0416
 19.0493
 19.2179
 19.1546
 19.1277
 19.0816
 17.9257
 17.9774
 17.8346
 17.8305
 17.9084
 17.8645
 17.8641
 17.7987
 18.2666
 18.2608
 18.1908
 18.2864
 19.6731
 19.6633
 19.4768
 19.5292
 19.5321
 19.1917
 19.1379
 19.1345
 19.123
 20.2293
 20.2895
 20.2836
 20.2851
 19.2849
 19.3257
 19.3946
 20.6394
 20.6439
 20.5679
 19.2651
 19.2748
 19.3421
 19.2203
 19.6447
 19.5424
 19.6618
 18.8972
 17.9191
 17.9399
 17.8434
 19.1036
 19.1325
 19.0807
 19.0301
 19.889
 19.881
 19.7052
 19.7985
 18.8006
 18.7516
 18.7238
 18.72
 17.5767
 17.6308
 16.4993
 16.579
 16.6345
 16.4898
 17.8576
 17.9046
 17.8238
 17.9568
 19.059
 19.076
 19.0833
 19.0398
 16.7806
 16.7719
 16.6121
 16.8368
 17.0096
 16.9635
 16.9448
 18.6894
 18.7942
 18.8226
 18.725
 20.0543
 20.079
 20.0118
 18.9937
 19.003
 18.9087
 18.9908
 20.0608
 20.1638
 20.0699
 20.1628
 18.0808
 18.0888
 18.0661
 18.2435
 20.1403
 20.1378
 20.1452
 20.12
 19.6425
 19.5891
 19.5699
 19.6118
 16.9472
 17.0443
 16.932
 17.0159
 18.6098
 18.6084
 18.6782
 18.6041
 19.2756
 19.3264
 19.2512
 19.3132
 17.9542
 17.933
 17.6394
 17.5049
 17.5429
 17.555
 19.133
 19.0467
 19.0696
 18.9721
 18.94
 18.8891
 18.9247
 18.9351
 19.9953
 19.9511
 20.013
 19.1449
 19.2003
 19.243
 21.5157
 21.5899
 21.5334
 21.571
 19.5879
 19.5498
 20.099
 20.0591
 20.088
 20.1513
 18.3968
 18.4734
 18.4042
 18.4971
 20.6545
 20.5808
 20.5415
 20.6138
 19.7855
 19.807
 19.8893
 18.1368
 18.1086
 18.117
 18.1584
 19.7373
 19.6759
 19.7653
 19.8366
 19.8319
 19.8986
 19.8913
 19.1986
 19.2458
 19.2338
 19.1512
 17.6995
 17.4908
 21.0189
 20.9895
 19.6095
 19.6741
 19.0211
 19.087
 19.0602
 19.0706
 18.1788
 18.1211
 18.1797
 18.0706
 18.7829
 18.7782
 18.7342
 18.7183
 20.0482
 20.1689
 20.067
 20.1224
 18.449
 18.5459
 18.4919
 20.0369
 20.0579
 20.0211
 20.0239
 17.2288
 17.2108
 17.1495
 17.2597
 18.2016
 18.2055
 18.2127
 18.2878
 19.9433
 19.8875
 19.9673
 18.9805
 19.0697
 18.9903
 18.9461
 20.1357
 20.1395
 20.1093
 19.7666
 19.6958
 19.7182
 19.764
 19.8753
 19.8899
 19.816
 19.8632
 19.1043
 19.1665
 19.1905
 19.2126
 16.9514
 17.0025
 17.0749
 17.0434
 18.3528
 18.2503
 18.2877
 18.2843
 19.0668
 19.1649
 19.09
 18.6485
 18.6876
 18.6813
 17.3209
 17.4227
 17.329
 17.391
 18.2791
 18.2557
 18.3465
 18.2252
 19.1679
 19.109
 19.0709
 19.0901
 20.2271
 20.2015
 19.9628
 20.0121
 19.9227
 19.9215
 21.1356
 21.1571
 21.216
 21.1267
 17.8964
 17.8786
 17.877
 17.914
 19.7165
 19.8022
 19.7723
 19.7795
 18.78
 18.8623
 18.8078
 18.8999
 20.3433
 20.3747
 20.3637
 20.3941
 18.5754
 18.6199
 18.6646
 18.6554
 18.9681
 17.8937
 17.9699
 17.9942
 17.9697
 19.123
 19.2114
 19.2318
 19.1371
 19.1235
 19.0842
 19.0322
 19.0543
 19.3289
 19.4005
 19.3719
 19.4259
 19.8891
 19.9694
 19.8472
 17.5089
 17.4865
 17.4569
 17.6144
 19.15
 19.1762
 19.1771
 19.2046
 17.5999
 17.5573
 17.5017
 18.1538
 18.2097
 18.1542
 18.2035
 17.7498
 17.6262
 17.6961
 17.6199
 19.8998
 19.8355
 19.9122
 21.7178
 21.6843
 21.6748
 17.9742
 17.8756
 17.8996
 18.5564
 18.4188
 18.4932
 18.418
 19.2794
 19.2409
 19.2036
 19.2608
 19.0576
 19.0222
 19.1294
 19.1048
 20.802
 20.7503
 20.8669
 20.7479
 18.7426
 18.7829
 18.7899
 18.8003
 18.4289
 18.432
 18.3461
 18.4369
 19.7263
 19.7272
 19.5384
 19.6847
 19.6116
 19.6017
 18.0903
 18.1591
 18.1158
 18.109
 19.8141
 19.7316
 18.3635
 18.3993
 20.0277
 21.5754
 21.5913
 21.5811
 21.5313
 20.3199
 20.2473
 16.722
 16.6173
 16.7064
 20.1615
 20.0957
 20.0376
 20.1038
 17.9858
 17.9653
 19.662
 19.6791
 19.6675
 19.6645
 19.3867
 19.2543
 19.3125
 17.8823
 17.8578
 17.8739
 17.7794
 18.2673
 18.1891
 18.2581
 18.234
 17.4953
 17.4933
 17.4068
 19.0919
 19.1614
 19.0865
 19.1994
 18.8661
 17.4166
 17.5678
 17.4539
 17.4922
 20.1413
 20.1649
 20.1132
 20.0807
 18.6987
 18.7608
 18.6568
 18.733
 17.8486
 17.9826
 17.8853
 17.9518
 21.2448
 21.2322
 21.2096
 21.2071
 19.91
 16.7608
 19.2151
 19.099
 19.1739
 19.2483
 18.6701
 18.5954
 18.6886
 18.7189
 19.6458
 19.7503
 19.6921
 19.6709
 18.6283
 18.6705
 18.639
 18.6218
 19.9973
 19.9807
 19.9046
 20.0032
 19.9389
 19.89
 19.9455
 19.0463
 18.9672
 19.0818
 19.0386
 17.8086
 17.7238
 17.8922
 16.434
 16.3258
 16.4243
 16.4843
 20.8547
 20.9319
 20.9368
 18.9468
 18.9531
 19.0035
 18.9691
 19.0526
 18.944
 17.1956
 17.1974
 17.2344
 17.1179
 17.9974
 18.0581
 18.0368
 18.1008
 19.8892
 19.7764
 19.8607
 20.4836
 19.139
 19.236
 19.2
 19.1475
 18.9422
 18.8894
 18.902
 18.1554
 18.2032
 18.1821
 18.1285
 17.9035
 17.9939
 17.9282
 17.9733
 19.1763
 19.2317
 18.0166
 18.0228
 18.0122
 17.9484
 18.584
 18.6078
 18.5847
 18.5145
 17.0354
 16.9766
 18.3255
 18.4019
 18.3387
 18.3711
 18.0522
 18.0111
 17.9997
 17.9481
 18.1961
 18.1462
 18.1929
 18.2001
 18.9038
 18.8568
 19.1132
 19.0564
 19.1164
 19.1648
 19.3686
 19.4397
 19.4082
 19.3872
 18.5521
 18.4935
 18.497
 18.535
 19.9639
 19.9099
 19.8611
 19.8286
 19.6658
 19.6832
 19.7124
 19.6867
 21.0146
 20.9627
 20.9692
 21.0406
 19.3652
 19.4871
 18.5791
 18.7055
 18.6108
 18.6489
 19.1988
 19.2148
 19.185
 19.1284
 18.7126
 18.6595
 18.6232
 18.6871
 19.0779
 19.0632
 17.8801
 17.9114
 16.8008
 16.7839
 16.7674
 16.7565
 20.1152
 19.1302
 19.1395
 19.115
 19.0599
 18.8456
 18.9169
 18.8891
 18.8693
 19.5109
 19.5597
 19.576
 19.644
 18.055
 18.1582
 18.0698
 18.1606
 18.6446
 18.6966
 18.7218
 18.6484
 20.0037
 20.0317
 19.9682
 20.0364
 20.0725
 19.2489
 19.17
 19.2717
 19.2438
 19.3321
 19.2277
 19.3063
 19.3239
 19.8869
 19.8829
 19.9519
 19.886
 19.6921
 19.6715
 19.5728
 19.6193
 18.9739
 18.9009
 19.0054
 19.0109
 19.9761
 20.0214
 20.0522
 20.0251
 18.6188
 18.5973
 18.699
 19.5988
 19.599
 19.6159
 19.625
 20.6684
 20.6232
 18.6176
 18.5632
 18.5459
 18.7504
 18.6614
 18.6963
 18.6541
 20.0917
 20.0369
 20.011
 20.3316
 20.2937
 20.2948
 20.3192
 18.3348
 18.358
 18.2845
 18.3503
 18.6616
 18.7675
 18.6591
 17.7475
 17.9048
 17.8305
 18.9037
 18.9643
 18.95
 17.4894
 17.5113
 17.4708
 21.0719
 21.1222
 21.1246
 21.0767
 17.0369
 16.9995
 17.0541
 16.9904
 19.4279
 19.4979
 18.5384
 18.5904
 19.8495
 19.8483
 19.8673
 19.7979
 18.4001
 18.4398
 18.3457
 17.84
 17.7764
 17.7927
 17.7799
 17.4241
 17.547
 20.131
 20.1222
 20.1588
 18.6158
 18.6213
 18.6956
 19.6874
 19.7514
 19.6689
 20.0599
 20.059
 20.0789
 20.1068
 19.1376
 19.1043
 19.18
 19.0742
 19.2312
 19.3132
 19.2989
 19.2386
 18.1111
 18.1325
 18.1439
 18.0563
 17.911
 17.9831
 17.9421
 18.0411
 19.2912
 19.2737
 19.2257
 18.3742
 18.4063
 18.4498
 18.133
 18.055
 18.0945
 18.061
 16.212
 16.2769
 16.1873
 18.8854
 18.9128
 18.9132
 18.0792
 18.0303
 18.1316
 18.9576
 18.9162
 19.0103
 19.4428
 19.5287
 19.5089
 20.1253
 20.0983
 20.1089
 20.0883
 18.8851
 19.0718
 18.99
 19.0439
 19.5982
 19.6199
 19.6728
 19.926
 19.8456
 18.2119
 18.264
 18.1472
 18.2222
 18.1943
 18.123
 18.2345
 18.2808
 19.8629
 19.782
 19.7432
 19.7251
 19.9542
 20.0398
 19.9866
 20.0456
 20.4565
 20.4968
 20.4545
 20.5256
 17.073
 17.0338
 17.5739
 17.6899
 17.6227
 17.5602
 16.9367
 19.4902
 19.402
 19.4845
 18.825
 18.8046
 18.862
 18.8948
 19.931
 19.9319
 19.0012
 19.0243
 18.9352
 20.1765
 20.1487
 17.6767
 17.6722
 17.5831
 17.7457
 17.3553
 17.3866
 17.2305
 17.3297
 17.8954
 17.8819
 17.9616
 19.4285
 19.3717
 19.3758
 17.3765
 17.3927
 17.359
 17.3409
 19.6373
 19.7261
 19.6594
 19.6242
 17.8259
 17.8782
 17.9049
 17.8318
 19.578
 19.657
 19.6724
 19.5461
 19.9606
 19.9306
 19.984
 16.9436
 16.7972
 16.8659
 16.9119
 20.1175
 20.081
 20.0986
 19.1697
 19.1479
 19.0475
 19.1171
 16.9699
 16.8797
 16.9255
 19.5707
 19.6277
 19.5375
 19.5862
 18.2598
 17.1752
 17.1205
 17.3037
 17.2032
 20.2355
 20.215
 20.1764
 20.221
 18.1968
 18.318
 18.2231
 18.195
 18.9355
 18.9106
 19.0065
 19.9397
 19.9863
 19.9307
 20.0724
 18.2828
 18.3189
 18.2422
 19.6878
 19.7213
 21.0177
 21.0862
 21.026
 20.9796
 20.36
 20.5178
 20.5239
 17.317
 17.3568
 17.2043
 17.3225
 17.3508
 17.2943
 20.325
 20.3083
 20.3778
 20.2828
 19.2652
 19.2332
 19.2426
 19.1949
 19.0314
 19.134
 19.1306
 19.1057
 18.6006
 18.6328
 18.5416
 18.6194
 18.6034
 18.7286
 18.6497
 18.7208
 17.0921
 20.0217
 20.0569
 20.0163
 20.042
 17.0696
 17.1397
 17.0359
 18.577
 18.6553
 18.6993
 18.666
 20.0835
 20.0125
 19.9878
 18.6928
 18.7598
 18.7108
 18.7614
 18.9292
 18.1393
 18.1165
 18.0219
 18.057
 19.6467
 19.656
 19.6483
 18.93
 18.8068
 18.8648
 16.9826
 17.0187
 17.1151
 17.0315
 18.9288
 18.9388
 18.9762
 21.3018
 21.2824
 21.346
 18.9364
 18.9897
 18.9392
 19.0625
 18.1029
 18.0221
 18.0516
 18.8589
 18.8344
 17.5416
 17.4861
 17.5889
 17.5662
 17.9183
 17.8392
 17.8761
 17.8972
 16.8877
 16.921
 16.9811
 17.0482
 18.6723
 18.8182
 18.713
 18.6898
 17.9849
 18.0113
 18.0363
 18.0619
 17.5481
 17.4814
 17.4145
 19.7527
 19.7085
 19.8247
 19.7768
 19.0073
 18.9329
 19.3994
 19.457
 19.3941
 19.421
 18.2111
 18.2151
 18.2283
 18.1679
 18.9503
 18.8818
 18.8971
 18.9794
 18.305
 18.352
 18.256
 18.3489
 18.8787
 18.8615
 18.7839
 18.7848
 18.9964
 19.0565
 19.058
 17.5719
 17.6342
 17.5966
 17.2449
 17.2394
 17.2659
 17.1371
 17.5863
 17.5867
 17.5245
 18.0293
 17.9021
 18.0031
 20.8695
 20.8584
 20.9229
 19.0248
 18.9284
 19.0028
 17.6676
 17.6303
 17.6835
 17.6794
 19.0272
 18.9911
 19.0337
 18.609
 18.5925
 18.5709
 18.6624
 18.2404
 18.4055
 18.3526
 18.3531
 18.9401
 18.8744
 18.9009
 18.845
 19.8279
 19.7807
 19.8187
 19.8603
 18.9977
 18.6245
 18.6381
 18.5907
 18.7386
 20.1203
 20.092
 20.081
 20.0858
 20.0584
 19.9965
 20.0366
 19.9979
 19.946
 19.8901
 19.928
 19.958
 18.2615
 18.2874
 18.1766
 18.1328
 19.7114
 19.7541
 19.7262
 19.7176
 16.6629
 16.7591
 16.6918
 16.7576
 20.4615
 20.422
 20.3738
 20.3766
 19.6949
 19.6865
 19.7072
 20.2083
 20.2676
 20.3065
 20.2927
 19.9158
 19.9693
 19.8693
 20.0682
 20.0535
 18.819
 18.8299
 18.7724
 18.6658
 17.2974
 17.3697
 17.3919
 17.2318
 17.2512
 17.1903
 17.2807
 19.915
 19.971
 16.8506
 16.7967
 16.876
 17.547
 17.5632
 17.5334
 17.4893
 19.9289
 19.9672
 19.9175
 16.9802
 16.9362
 17.0205
 16.9112
 19.3495
 19.3333
 19.2787
 19.3986
 19.9033
 19.994
 19.9467
 19.8834
 20.2618
 20.1465
 20.1943
 20.2154
 20.7144
 20.6831
 20.7492
 20.7511
 18.4224
 18.2835
 18.3643
 18.294
 19.2984
 19.2984
 19.3273
 19.4291
 16.9227
 17.0466
 16.9309
 21.3322
 21.2608
 21.3096
 21.224
 20.3882
 20.3204
 20.356
 20.2978
 17.0389
 16.8957
 16.975
 16.9788
 18.9437
 18.932
 18.8696
 17.4911
 17.3802
 17.3602
 19.7919
 19.7963
 19.8912
 16.8839
 16.9967
 16.994
 16.9256
 17.4528
 17.4841
 17.5042
 17.5784
 19.6011
 19.5616
 19.4949
 19.5574
 19.3201
 19.4024
 19.3214
 19.4137
 17.84
 17.8355
 17.8055
 17.7207
 18.7535
 18.7992
 18.8497
 18.8165
 20.5109
 20.4398
 20.4454
 20.4374
 17.434
 17.6115
 17.4972
 17.5383
 16.7872
 18.7584
 18.7375
 18.6865
 18.6878
 17.2313
 17.1832
 17.194
 17.1057
 20.113
 20.1129
 20.0989
 20.0984
 16.9306
 16.8557
 16.9566
 16.993
 18.9851
 19.0011
 19.2833
 19.3249
 19.2734
 19.2439
 17.846
 17.93
 17.9406
 17.9391
 18.5969
 18.504
 18.5142
 19.3146
 19.3293
 19.2968
 17.8688
 17.869
 17.9689
 17.9774
 17.938
 17.9827
 17.8967
 17.9604
 19.8458
 19.9193
 19.9245
 18.9367
 18.7733
 18.7767
 18.8656
 20.5536
 20.483
 20.4142
 20.5107
 20.5684
 16.8528
 17.0045
 16.843
 16.989
 18.8139
 18.8596
 18.8945
 18.8197
 17.2778
 17.218
 19.1
 19.2172
 19.216
 19.6597
 19.7317
 19.6107
 19.632
 16.9907
 17.0165
 16.9591
 16.9516
 20.0154
 19.9877
 19.9998
 19.6512
 19.6837
 19.6265
 19.6775
 19.3618
 19.2828
 19.3398
 19.4356
 18.1535
 17.9919
 18.0755
 18.0385
 19.7569
 19.6539
 19.7138
 19.7205
 17.8774
 18.4788
 18.3856
 18.3589
 18.4908
 17.2637
 17.231
 17.32
 17.0296
 17.066
 17.0757
 17.142
 18.4271
 18.392
 18.4957
 18.448
 16.6072
 16.6089
 16.6043
 16.7096
 19.3952
 18.5111
 18.6209
 18.6297
 18.5443
 18.7939
 18.9132
 18.867
 18.8262
 20.7057
 20.6344
 20.6158
 20.6886
 18.9636
 18.9435
 18.9157
 19.0083
 19.1937
 19.174
 19.148
 19.1191
 19.1278
 19.1118
 19.0582
 17.405
 17.4973
 17.5348
 19.1773
 19.2565
 19.2466
 19.1878
 17.3841
 17.2537
 17.3244
 18.8628
 18.9106
 18.7847
 18.7356
 18.76
 18.6819
 18.7038
 18.6791
 18.8565
 18.8368
 18.7333
 18.7691
 17.3572
 17.3028
 17.3085
 19.364
 17.179
 18.5836
 18.5253
 18.5853
 18.6685
 19.8619
 19.8409
 19.9293
 19.7264
 19.6519
 19.6242
 18.7663
 18.7422
 18.8158
 18.9086
 18.9127
 18.8704
 18.8316
 18.8588
 18.919
 18.8081
 18.9077
 21.3801
 21.3683
 21.4327
 17.838
 17.9412
 17.8386
 19.0052
 18.9733
 17.5481
 17.6758
 17.6439
 17.6726
 18.4693
 18.4026
 18.4651
 20.6322
 20.6431
 20.7142
 20.6849
 19.141
 19.2432
 19.1757
 19.182
 19.8234
 19.8606
 19.9018
 19.9257
 18.1992
 18.3135
 18.2585
 18.2117
 19.4872
 19.5397
 19.5001
 19.5857
 20.5102
 20.5243
 20.5335
 19.3298
 19.3599
 19.4021
 19.384
 18.1607
 18.0685
 18.0978
 18.1003
 18.9041
 18.8237
 18.808
 18.8564
 19.7314
 19.7715
 19.729
 19.2684
 19.3279
 19.2982
 19.3145
 19.7479
 19.8269
 19.7329
 19.8073
 20.0571
 19.9608
 19.9595
 20.0697
 17.0961
 17.0363
 17.0649
 17.0339
 19.9626
 19.901
 19.9237
 19.9
 19.7631
 19.8157
 19.7346
 19.7457
 18.3941
 18.2797
 18.3287
 18.2666
 19.3254
 19.355
 19.2787
 19.3031
 16.3601
 16.3077
 16.3177
 16.3079
 19.1595
 19.1977
 19.1252
 20.0742
 20.1302
 20.1054
 20.0426
 19.9961
 20.0335
 20.0078
 20.0353
 19.8691
 19.9798
 18.1465
 18.2154
 18.1503
 18.262
 16.5976
 16.676
 16.6332
 16.6443
 19.2242
 19.2994
 19.2567
 19.302
 19.8856
 19.9352
 19.9443
 18.2527
 18.3365
 18.3538
 18.2693
 19.0497
 19.0749
 19.0121
 18.9717
 19.6734
 19.6739
 19.6823
 19.6151
 20.1126
 19.9981
 20.0679
 17.7319
 17.65
 17.6148
 17.7073
 17.6578
 17.6468
 17.7356
 19.2006
 19.1888
 19.1383
 19.1148
 19.157
 19.2057
 19.1099
 19.6805
 19.612
 19.5833
 19.5873
 18.2731
 18.2874
 18.353
 19.8894
 19.885
 19.9685
 18.7873
 18.6953
 18.7353
 17.6111
 17.7178
 17.6686
 18.1274
 18.1509
 19.3757
 19.3218
 19.3769
 19.314
 19.2838
 19.3181
 19.0182
 19.1136
 19.598
 20.1924
 20.1766
 20.2413
 17.349
 17.3603
 17.4857
 19.1974
 19.1395
 19.1628
 19.2162
 19.6508
 18.8672
 18.8057
 18.2389
 18.225
 18.2541
 18.1819
 18.8914
 18.9661
 18.8812
 19.1529
 19.1127
 19.2321
 19.1352
 19.3348
 19.1967
 19.1528
 19.2114
 19.2398
 19.1087
 17.4166
 17.4965
 17.5184
 17.4615
 17.3706
 17.3029
 17.1795
 17.2252
 19.9211
 19.8542
 18.8443
 18.8794
 18.8985
 18.9558
 18.6416
 18.6191
 18.5952
 18.5594
 18.2964
 18.2248
 18.3063
 18.3188
 19.0384
 19.0783
 19.1102
 19.0225
 19.1471
 19.0973
 19.1329
 19.1764
 17.5981
 17.7255
 17.6222
 17.6558
 19.7585
 19.6693
 19.662
 19.6054
 19.7933
 19.7044
 19.7529
 17.7759
 17.6972
 17.6046
 17.5793
 19.7085
 19.6521
 19.6711
 19.6152
 17.2999
 17.3387
 17.2723
 17.3166
 17.6277
 17.6788
 17.654
 17.6898
 19.2747
 19.2356
 19.3066
 19.2679
 18.0911
 18.0643
 18.12
 18.198
 19.6426
 19.5988
 19.5405
 19.519
 17.9177
 17.9618
 17.938
 19.948
 19.9019
 19.9597
 19.9193
 18.5241
 18.5458
 18.5026
 18.4687
 19.3296
 19.3065
 17.9638
 17.8471
 17.8996
 17.9422
 17.8862
 17.9009
 17.9525
 19.1063
 19.0022
 19.099
 17.7598
 17.7718
 17.7387
 17.658
 20.5015
 20.4666
 20.4187
 20.4481
 19.6352
 19.6107
 19.5392
 19.5307
 18.4342
 18.5415
 18.5274
 18.4239
 17.2998
 17.2893
 17.3489
 17.2938
 17.554
 17.4744
 17.4545
 17.5423
 17.1618
 17.1566
 17.1413
 17.3699
 17.3446
 19.4384
 19.3855
 19.4422
 19.3688
 19.8191
 19.7882
 19.9027
 19.8375
 19.5497
 19.5466
 19.3897
 19.3083
 19.3701
 19.3636
 19.1673
 19.1571
 19.0697
 19.1553
 19.8574
 19.8549
 19.913
 18.7141
 18.7649
 18.7502
 18.7838
 16.3611
 16.3926
 16.4793
 19.4266
 19.4393
 19.4142
 19.3466
 17.5592
 17.6677
 17.5989
 17.57
 18.1521
 18.0495
 18.0797
 18.8274
 18.8734
 18.7888
 18.149
 18.0548
 18.1598
 17.5957
 17.6827
 18.2177
 18.2037
 18.2026
 19.616
 19.5869
 19.5662
 19.6541
 17.2379
 17.1774
 17.2432
 17.2719
 18.4998
 18.3974
 18.4638
 20.7774
 20.8491
 20.8718
 20.7827
 19.9594
 19.9995
 18.6149
 19.37
 19.2731
 19.3359
 19.3689
 18.8171
 18.7362
 18.7413
 18.0113
 17.9832
 18.0523
 18.0102
 17.2656
 17.2089
 18.9468
 18.9833
 18.9786
 19.0283
 20.0359
 20.0864
 20.0945
 20.0021
 17.5442
 17.4849
 17.505
 17.5417
 18.3941
 18.3597
 18.4082
 21.2203
 21.2464
 21.3094
 21.3118
 19.9144
 19.9291
 19.9997
 19.4984
 19.4418
 19.5408
 19.479
 18.5094
 18.5028
 18.5565
 18.4489
 18.8761
 18.8105
 20.1496
 20.125
 20.1323
 20.13
 18.3407
 18.252
 19.5453
 19.6312
 19.5717
 19.5519
 19.2084
 19.1752
 19.2688
 19.205
 18.8789
 18.8017
 18.7603
 18.8267
 19.5012
 19.5392
 19.6236
 18.1468
 18.2666
 18.1484
 18.2353
 17.7168
 17.6468
 17.5761
 17.7099
 17.8131
 17.8241
 17.8201
 17.7285
 20.0577
 20.1365
 20.0744
 20.1303
 18.9025
 18.9529
 20.9309
 21.0124
 20.9698
 21.0442
 19.2617
 19.34
 19.3715
 16.879
 21.5262
 21.5087
 21.5126
 21.6127
 18.9246
 18.8775
 18.9236
 18.9132
 19.4275
 19.3531
 19.3888
 17.7522
 17.6837
 17.6648
 17.7621
 17.7542
 17.7857
 17.6964
 17.7052
 17.7889
 17.7527
 17.8244
 17.8569
 19.596
 19.5307
 19.6382
 19.5312
 19.8639
 19.8942
 19.9245
 19.9224
 18.355
 18.3613
 18.2617
 18.3667
 19.1799
 19.2912
 19.1563
 19.2283
 16.5127
 17.2258
 17.1812
 18.5194
 18.5271
 19.1077
 19.1709
 19.155
 17.174
 17.0383
 17.1281
 17.1487
 18.9718
 19.008
 18.6077
 18.6735
 20.6268
 20.5628
 20.6424
 20.575
 19.6072
 19.635
 19.6916
 19.6506
 18.3612
 18.2612
 18.3496
 18.2833
 20.4733
 20.5519
 20.4934
 20.4621
 16.6431
 16.6913
 16.5922
 16.6842
 17.2984
 17.4129
 17.1326
 17.192
 17.2621
 17.1304
 17.7435
 17.6741
 19.3087
 19.2638
 19.3141
 21.3714
 21.3071
 21.3913
 21.3884
 20.3926
 20.3453
 20.3349
 20.3964
 17.2646
 17.1892
 17.2638
 17.3133
 18.0328
 17.9099
 17.973
 18.7301
 18.8036
 18.8597
 18.765
 19.5187
 19.4292
 19.4969
 19.5276
 17.4515
 17.3714
 17.4415
 17.2433
 18.7837
 18.6878
 19.5244
 19.4967
 18.2323
 18.1489
 18.2655
 18.234
 19.819
 19.9105
 19.7923
 19.9224
 19.9712
 20.0531
 20.02
 21.2957
 21.1823
 21.1934
 21.237
 19.47
 19.4273
 19.4355
 19.3687
 17.5452
 17.5282
 17.6958
 17.6121
 17.6664
 17.6123
 19.6417
 19.6443
 19.5719
 19.6971
 17.917
 17.9672
 17.888
 18.2107
 18.2175
 18.1828
 18.2526
 17.6351
 17.5444
 17.6384
 17.541
 19.5446
 19.4737
 19.4977
 19.529
 17.0342
 17.1816
 19.1447
 20.8113
 20.7894
 20.7376
 20.7168
 17.9006
 17.9284
 17.8565
 20.4402
 20.4852
 20.4386
 20.512
 18.1383
 18.1462
 18.1411
 18.0649
 20.0465
 20.0498
 20.1324
 20.0212
 19.8026
 19.8113
 19.7418
 19.7258
 18.2955
 18.2311
 18.2196
 19.3681
 19.3295
 19.3893
 19.4313
 18.4866
 18.4971
 18.4449
 18.5662
 18.5601
 18.6402
 17.6133
 17.5841
 17.5974
 18.171
 18.1559
 18.2065
 20.8988
 20.8907
 20.8264
 20.8781
 19.9178
 19.8419
 19.9503
 19.8181
 17.4172
 17.5348
 17.5403
 17.5479
 17.8017
 17.8357
 19.7072
 19.5691
 19.7004
 18.1881
 18.2934
 18.2818
 18.3336
 18.2506
 18.2789
 18.3113
 19.6017
 19.6405
 19.5939
 19.5754
 17.0774
 17.081
 19.3181
 19.3488
 19.3148
 19.2777
 19.68
 19.6751
 19.6498
 18.1595
 18.1345
 18.9092
 18.9388
 18.941
 18.8545
 20.0603
 20.0919
 18.3756
 18.4222
 19.309
 19.4086
 19.3887
 19.3348
 18.7076
 18.7094
 18.7671
 18.6592
 18.7176
 18.7679
 18.7246
 20.2085
 20.1922
 20.2296
 20.1011
 20.4206
 20.4222
 20.3693
 20.3986
 18.1057
 18.1566
 18.2234
 18.1748
 17.3562
 17.3497
 17.4082
 17.4064
 18.569
 18.5258
 18.5982
 18.8684
 18.9183
 18.9519
 18.8966
 18.8457
 17.8358
 17.8144
 19.4717
 19.3966
 19.4658
 19.4878
 19.7681
 17.3632
 17.386
 17.4496
 17.4135
 18.8465
 18.9709
 18.9376
 18.8698
 21.1866
 21.1443
 19.0903
 19.1857
 19.0886
 20.8944
 20.8759
 20.9144
 20.8463
 18.4477
 18.5072
 18.4569
 18.4923
 20.0698
 19.9832
 19.9669
 19.6078
 19.5416
 16.9851
 16.9955
 16.9955
 17.177
 17.1693
 17.2177
 19.8968
 19.7925
 19.6391
 19.6449
 21.0355
 21.0788
 21.0892
 21.1058
 17.3584
 17.4812
 17.3384
 19.8153
 19.8043
 19.7582
 19.8615
 19.6738
 19.7048
 19.6191
 19.7043
 18.1564
 18.1188
 18.088
 18.1332
 18.4645
 18.2925
 18.3802
 18.1609
 18.1504
 18.2391
 18.1538
 17.8513
 17.9463
 17.7764
 17.9821
 20.1074
 20.1004
 19.8985
 19.8956
 19.8544
 18.5309
 18.5723
 18.6465
 18.6148
 19.7464
 19.7539
 19.6686
 19.697
 18.0577
 18.1113
 18.0949
 18.0496
 20.0734
 19.9792
 17.4307
 17.4881
 17.4526
 17.5313
 18.0403
 18.1738
 18.1145
 18.0185
 19.4972
 19.4888
 19.5148
 19.4471
 17.612
 17.5142
 19.1343
 19.1158
 19.0871
 19.0718
 20.5019
 20.484
 20.4964
 20.4838
 20.0766
 20.0335
 20.0787
 20.0152
 16.9499
 16.9117
 16.872
 16.8881
 17.2967
 17.3351
 17.3696
 19.5363
 19.551
 19.5606
 16.9964
 16.9366
 19.0791
 19.039
 19.0902
 18.9823
 17.5395
 17.597
 17.5254
 17.5998
 19.7212
 19.7599
 19.7082
 19.7663
 20.2206
 20.1492
 20.1929
 17.7037
 17.6063
 17.6128
 17.6461
 19.2523
 19.1499
 19.1669
 19.196
 19.8439
 19.8177
 19.7673
 19.8939
 20.0768
 20.1968
 20.0559
 18.5199
 18.6084
 18.4797
 18.796
 18.7797
 18.8423
 18.7486
 18.5767
 18.585
 18.5008
 18.6002
 19.3306
 19.2524
 19.3264
 19.2612
 19.6393
 19.6211
 19.579
 19.6742
 19.9242
 19.9951
 18.2622
 18.1487
 18.2656
 18.2634
 18.7175
 18.825
 18.7404
 18.7894
 18.6865
 18.7982
 18.8155
 18.8601
 18.7204
 18.7655
 20.8448
 20.8124
 20.7634
 20.8
 17.2852
 17.1863
 17.2735
 19.2319
 19.241
 19.2485
 19.313
 18.9699
 19.033
 18.9719
 20.0036
 19.9503
 20.0364
 20.0107
 19.8023
 19.8733
 19.8225
 19.8424
 19.2619
 19.239
 19.1788
 19.7052
 19.7457
 18.0202
 18.0701
 17.9555
 16.8453
 16.8204
 16.9045
 16.8587
 19.8033
 19.876
 19.8758
 19.7769
 18.9763
 18.9093
 18.8877
 18.9694
 17.8328
 17.8115
 17.8874
 17.8891
 19.7358
 19.708
 19.7651
 19.657
 19.5481
 19.5049
 19.4798
 19.416
 17.6832
 17.7586
 17.8529
 17.8369
 19.5709
 19.4859
 17.4152
 17.446
 17.3672
 18.5842
 18.6519
 20.2897
 20.3287
 20.3387
 20.362
 19.2438
 19.2095
 19.1873
 19.2046
 20.3496
 20.386
 20.3478
 19.0169
 19.0319
 18.4161
 18.3664
 18.2787
 18.4093
 19.234
 19.2286
 18.2568
 18.179
 19.3061
 19.3535
 19.3133
 19.2875
 18.2599
 18.3262
 18.2348
 18.2128
 17.9156
 17.8247
 17.7456
 17.8064
 17.0436
 17.029
 17.0737
 17.0671
 18.9319
 18.8889
 19.7711
 19.7724
 19.8938
 19.9272
 17.8608
 17.9513
 19.9632
 19.8899
 19.9371
 20.6983
 20.6852
 20.5787
 20.6242
 20.8176
 20.7635
 20.7962
 18.7889
 18.6955
 18.7031
 18.7173
 19.2945
 19.2266
 19.282
 19.835
 19.517
 19.4572
 19.5503
 19.4698
 19.8516
 19.7987
 19.9045
 19.8319
 19.3517
 19.4118
 19.3385
 19.4083
 18.167
 18.3157
 18.3123
 18.1904
 17.0388
 17.0757
 17.0784
 16.9922
 19.1136
 19.1372
 19.0288
 19.0603
 17.6893
 17.7325
 17.5879
 17.6156
 19.5241
 18.1297
 18.2452
 18.191
 18.2099
 20.2652
 20.3099
 20.2689
 20.268
 18.1051
 18.0229
 18.016
 19.4124
 17.3433
 17.3345
 17.3837
 17.2458
 17.1521
 17.1446
 17.1393
 17.1459
 17.2545
 17.1755
 17.1477
 18.8421
 18.8554
 18.8367
 18.9345
 17.2289
 17.2196
 17.1808
 17.1834
 19.8445
 19.895
 19.909
 19.9252
 18.3204
 18.3548
 18.3467
 18.4313
 19.1315
 19.0399
 19.0556
 19.1235
 20.5517
 20.4971
 20.5451
 18.4299
 18.9964
 19.0172
 19.0523
 18.958
 17.2047
 17.1336
 17.1334
 17.1094
 17.1937
 17.1339
 17.0596
 17.0898
 18.3571
 18.3823
 18.3302
 18.3945
 19.5046
 19.5554
 19.582
 19.5535
 19.2117
 19.1282
 19.1831
 17.3034
 17.2567
 17.3139
 17.3986
 17.1526
 17.1017
 17.1166
 17.1769
 19.8663
 19.9051
 19.9049
 17.7521
 17.6778
 17.1969
 17.2225
 17.2071
 19.8206
 19.8708
 19.7826
 19.7768
 18.0104
 17.8873
 18.0337
 18.0516
 19.2411
 18.5697
 18.5502
 18.5014
 18.5664
 18.3633
 18.4314
 18.3478
 18.4791
 17.1836
 17.1368
 17.5636
 17.4587
 17.5302
 17.4475
 17.5897
 17.4673
 17.5201
 17.4284
 17.6679
 17.7586
 17.6371
 17.744
 18.0138
 17.9482
 18.0022
 17.9609
 20.4343
 20.3483
 17.2548
 17.2184
 17.16
 20.1291
 20.1451
 20.1259
 19.6452
 19.7456
 19.7662
 19.6747
 17.9483
 18.0004
 17.9366
 17.8585
 19.0856
 19.1631
 19.1285
 19.1192
 16.7815
 16.8601
 16.7777
 16.7104
 18.6118
 18.6322
 18.5758
 18.5983
 17.6479
 17.5835
 17.6602
 18.2395
 18.2413
 18.635
 18.7586
 18.6638
 18.6647
 18.759
 18.8757
 18.7763
 18.8429
 19.9336
 19.8966
 19.8863
 18.3249
 18.2531
 18.2888
 18.22
 19.3236
 19.29
 19.2319
 17.4118
 17.4318
 17.3196
 17.4549
 17.135
 18.5009
 18.6165
 18.6287
 18.5524
 18.2648
 18.2066
 18.1977
 18.2267
 18.3717
 18.4191
 18.4502
 21.378
 21.4276
 21.3608
 21.3619
 19.6704
 19.6079
 20.0381
 20.1029
 19.0084
 19.1317
 19.1005
 19.0451
 21.733
 21.7068
 16.8443
 16.8154
 16.7867
 16.7155
 17.9905
 17.8307
 19.9469
 19.9589
 19.9125
 19.915
 19.0014
 18.9913
 18.9313
 18.959
 17.5861
 17.5007
 17.5372
 17.6317
 19.5853
 19.6136
 19.5507
 19.5773
 19.0807
 19.1386
 19.0506
 19.089
 17.5139
 17.468
 17.4648
 17.382
 19.0912
 19.0641
 19.0592
 19.1651
 17.0712
 17.1524
 17.1283
 17.1604
 18.3354
 18.2688
 18.2902
 19.6749
 19.6745
 19.7798
 19.6887
 18.4637
 18.5403
 18.4891
 18.5447
 18.7065
 18.768
 19.3806
 19.2639
 19.2459
 18.2905
 18.3097
 18.2138
 18.1971
 16.9924
 16.9999
 16.917
 16.9175
 17.355
 17.2886
 17.2321
 17.3706
 19.7539
 19.7665
 19.8325
 19.808
 20.1128
 20.1199
 20.1378
 20.1282
 19.9196
 20.0149
 19.9433
 19.9833
 20.1884
 20.1783
 20.2084
 18.8228
 18.8391
 18.8202
 18.936
 17.7582
 17.7158
 18.031
 17.9228
 17.9904
 17.9943
 17.8286
 17.7717
 17.8713
 19.6895
 19.7508
 19.7275
 19.7736
 18.851
 18.8367
 18.7835
 18.7981
 16.7778
 16.768
 16.7427
 16.6913
 18.654
 18.6987
 18.7348
 18.6482
 18.5336
 18.6278
 18.5237
 18.6054
 17.3211
 17.2701
 17.3474
 17.3441
 19.9854
 20.0926
 20.0534
 20.0141
 18.0271
 18.0388
 20.0301
 20.0843
 17.656
 17.7422
 17.6646
 17.593
 18.6993
 18.7125
 18.6762
 18.7801
 20.3145
 20.2426
 20.2914
 20.0534
 20.08
 20.1119
 20.1124
 19.4648
 19.5542
 18.6949
 18.7322
 18.6727
 18.7255
 18.2349
 18.2466
 18.1822
 19.2315
 19.2982
 19.2949
 19.2203
 19.2981
 19.1823
 19.3013
 19.2251
 17.8702
 17.9537
 17.9236
 17.9176
 20.2125
 20.2162
 20.1844
 16.9131
 16.8913
 17.0127
 16.9921
 18.4113
 18.436
 18.4219
 19.8001
 19.7724
 19.7455
 17.1519
 17.1515
 17.2342
 17.1093
 17.6798
 19.4851
 19.5725
 19.5596
 19.5297
 17.232
 17.384
 17.3247
 17.2555
 18.3998
 18.2988
 18.3326
 16.9636
 16.9477
 16.947
 16.9551
 17.2539
 17.3208
 17.3155
 17.2281
 17.1954
 20.3023
 20.2536
 18.9995
 19.0265
 18.9237
 18.9855
 20.4127
 20.4596
 20.456
 20.4317
 19.4097
 18.3889
 18.3555
 18.4827
 18.0316
 17.9632
 17.8937
 18.0289
 19.4004
 19.3891
 19.448
 19.4706
 19.6439
 19.6622
 18.4837
 18.4406
 18.4411
 19.5613
 19.6065
 19.5525
 19.5076
 19.6551
 19.6511
 19.6131
 19.5937
 17.1904
 17.1501
 19.3709
 19.3114
 19.3667
 19.3772
 20.1979
 20.0818
 20.198
 20.1078
 19.6718
 19.659
 19.506
 19.6341
 20.1759
 20.2263
 20.175
 17.7534
 17.8342
 17.7315
 18.0688
 18.0613
 17.2535
 17.2316
 17.302
 19.9189
 20.0023
 19.9762
 19.9917
 19.8262
 19.7857
 19.7538
 21.4784
 21.3948
 21.4731
 21.5165
 17.804
 17.9259
 17.8023
 17.7471
 19.5509
 19.5158
 19.5595
 19.443
 18.419
 18.4848
 18.4587
 18.4095
 17.8747
 17.899
 17.9899
 17.9393
 19.8073
 19.8015
 19.7726
 19.7384
 19.0201
 18.9499
 19.0259
 18.1206
 18.1065
 18.0501
 18.3874
 18.3928
 18.4206
 18.3253
 19.0688
 19.155
 19.159
 19.1495
 18.3658
 18.3241
 18.292
 20.2069
 20.0726
 20.1847
 20.169
 18.9113
 18.9039
 18.8889
 18.9712
 19.8606
 19.9305
 19.9282
 19.9012
 19.9735
 20.0805
 19.9571
 19.9812
 16.6611
 16.5442
 16.7047
 19.8672
 19.927
 19.8709
 16.6844
 17.7216
 17.7078
 17.8258
 17.7823
 20.0547
 18.0573
 19.5066
 19.5163
 19.5684
 19.5533
 20.2072
 20.2544
 20.2907
 20.2496
 18.2278
 19.053
 16.922
 16.9497
 16.941
 16.9578
 21.3987
 21.3454
 21.3688
 19.5337
 19.5963
 19.6142
 20.1259
 20.1926
 16.5153
 16.4605
 16.5866
 16.5397
 19.2143
 19.3355
 19.2572
 19.237
 17.6272
 17.5332
 17.5255
 18.3558
 18.428
 18.1814
 18.2179
 18.0843
 18.1709
 17.1737
 17.2374
 17.2597
 17.1973
 19.0517
 19.0555
 18.9403
 18.9801
 17.3508
 17.299
 17.3887
 17.3416
 18.8811
 18.8302
 18.7472
 18.8567
 17.8637
 17.8492
 17.81
 17.9095
 17.732
 17.8246
 17.7398
 17.5688
 19.7167
 19.8275
 19.6902
 19.6477
 18.7969
 17.0578
 16.9219
 16.9807
 16.9611
 18.5727
 18.5547
 18.6597
 18.5252
 18.4388
 18.4286
 19.9186
 19.9664
 19.9883
 19.8999
 19.4088
 19.4816
 19.4068
 18.8429
 18.8626
 18.8945
 18.9459
 16.7507
 16.8476
 16.8614
 16.8311
 19.6075
 19.6091
 19.6663
 19.6837
 18.0701
 18.1936
 18.188
 18.1381
 18.9015
 18.8842
 18.9502
 19.9835
 19.9136
 19.9446
 19.9282
 20.6523
 20.6405
 20.7236
 20.6117
 19.4231
 19.4886
 19.512
 17.5519
 17.5493
 17.493
 18.5854
 17.8852
 17.9908
 17.9431
 17.9439
 19.5872
 19.6098
 19.5991
 19.6011
 17.4038
 17.2585
 17.3338
 17.3613
 18.6721
 18.7907
 18.2504
 18.3055
 18.2799
 18.2347
 18.1723
 18.202
 18.3387
 20.7615
 20.7258
 20.826
 20.7562
 16.4331
 16.275
 16.3257
 16.4194
 19.3823
 19.3106
 19.344
 19.7645
 19.714
 19.8219
 19.6911
 18.1586
 18.2631
 18.2184
 21.185
 21.249
 21.2868
 21.2242
 17.9054
 17.9029
 17.7764
 17.7522
 17.8323
 17.8139
 20.088
 20.1373
 20.1105
 20.1577
 19.9088
 19.9078
 19.8785
 19.9386
 20.4907
 20.4262
 20.3896
 20.4863
 19.0686
 20.5509
 20.4955
 20.5069
 20.4785
 17.8508
 17.9442
 17.959
 17.9975
 19.8867
 19.8079
 18.0396
 17.9862
 17.9885
 18.0902
 17.5391
 17.4874
 17.5418
 17.4956
 16.797
 16.7395
 16.7501
 16.635
 21.3829
 21.4088
 21.3242
 18.409
 18.3208
 18.3506
 18.365
 17.7024
 17.6805
 17.764
 17.7179
 20.7774
 20.723
 20.7016
 20.7831
 18.4312
 17.8655
 17.8298
 17.8019
 17.8918
 17.2257
 17.1798
 17.2264
 19.0632
 19.0327
 19.0423
 18.9868
 16.8943
 16.771
 16.718
 16.7762
 18.5679
 18.5272
 18.5722
 18.5841
 18.4678
 19.6465
 19.7443
 19.6267
 18.646
 18.7402
 18.7027
 18.6109
 18.7321
 18.7069
 18.6729
 18.7803
 19.3802
 19.4791
 19.4509
 20.1617
 20.6159
 20.549
 20.6833
 18.2705
 18.2041
 18.2356
 17.9071
 17.8837
 17.9327
 19.7216
 19.6412
 19.6867
 19.5729
 18.0613
 18.1155
 17.334
 17.3769
 17.4105
 17.3723
 17.087
 17.111
 17.1155
 17.4397
 17.3758
 18.3468
 18.2794
 18.3371
 17.5593
 17.6741
 17.6016
 19.8826
 21.2315
 21.2658
 21.2058
 21.2182
 18.4581
 18.4353
 18.5076
 18.4866
 21.0375
 21.0179
 20.9493
 21.0472
 17.992
 17.9884
 17.9365
 18.8195
 18.8554
 18.9184
 18.9348
 19.5931
 19.5408
 19.6687
 19.6242
 18.5249
 18.5006
 18.4269
 17.9505
 17.8918
 18.9846
 18.8941
 18.9612
 18.9421
 19.3626
 19.3073
 19.3437
 19.893
 19.8882
 19.8842
 18.3958
 18.3749
 18.313
 18.4216
 17.8161
 17.7273
 17.7943
 17.744
 16.4289
 16.4948
 16.3985
 16.4848
 18.714
 18.7248
 16.3826
 16.456
 16.4931
 18.211
 20.0867
 20.0244
 19.9667
 19.9977
 19.5904
 19.5363
 19.5883
 19.553
 18.2496
 18.3085
 18.2719
 17.3557
 17.2851
 20.1589
 20.1327
 20.2028
 20.1143
 17.9126
 17.9514
 20.0939
 20.1287
 18.5687
 18.5761
 18.6159
 20.2757
 20.3327
 20.2443
 19.5683
 19.5819
 19.6146
 19.6069
 17.351
 17.345
 17.3016
 17.3591
 19.2098
 19.2002
 19.1934
 19.0252
 19.1313
 19.0719
 19.0626
 17.143
 17.2484
 17.2468
 17.2595
 20.6652
 20.6366
 20.6917
 18.8331
 18.9198
 18.8788
 17.7798
 17.7285
 18.1102
 18.1305
 18.219
 18.2031
 20.8077
 20.7528
 20.7714
 20.7956
 19.6731
 19.6708
 19.6612
 19.6046
 17.6607
 17.6295
 17.5944
 17.5824
 17.5845
 17.6205
 17.6183
 17.6685
 19.1147
 19.2045
 19.1246
 19.1448
 16.687
 16.5527
 16.5809
 16.6789
 19.8671
 19.8041
 19.8927
 20.836
 20.9001
 20.8824
 18.5478
 18.5076
 18.1039
 18.0827
 18.148
 18.1086
 17.3872
 17.4323
 17.3026
 17.2979
 19.3055
 18.7257
 19.1387
 19.0719
 19.0357
 18.9901
 21.4851
 21.5721
 21.5616
 21.4719
 17.8289
 17.8644
 19.6875
 19.6512
 19.6016
 19.425
 19.4591
 19.3742
 19.35
 20.0878
 20.1443
 19.3126
 19.3244
 19.3742
 19.2794
 19.9373
 19.9939
 19.5848
