 -81.8402
 -82.3321
 -82.267
 -82.4846
 -85.0906
 -85.1045
 -85.1109
 -85.1186
 -84.9117
 -84.8695
 -84.9171
 -84.8899
 -84.9414
 -84.8829
 -84.9129
 -84.8727
 -85.286
 -85.2897
 -85.2821
 -85.2802
 -85.2657
 -85.2608
 -85.2705
 -85.2624
 -79.6122
 -79.2042
 -79.3366
 -79.5566
 -80.5238
 -80.5988
 -80.6125
 -80.4515
 -85.2589
 -85.2557
 -85.2466
 -85.2534
 -85.2622
 -85.263
 -85.2611
 -85.2709
 -77.6189
 -77.2781
 -77.7807
 -77.8616
 -84.8026
 -84.8192
 -84.7656
 -84.7939
 -83.0557
 -83.0706
 -82.8929
 -83.2213
 -85.173
 -85.146
 -85.1353
 -85.1562
 -84.6179
 -84.5737
 -84.6237
 -84.6744
 -80.8469
 -80.5575
 -81.0703
 -80.6008
 -85.2478
 -85.252
 -85.2444
 -85.2518
 -84.939
 -84.9104
 -84.9491
 -84.9257
 -84.7073
 -84.7455
 -84.7513
 -84.7953
 -85.1995
 -85.2035
 -85.2092
 -85.2131
 -79.8741
 -79.2841
 -79.922
 -79.4937
 -85.2949
 -85.2973
 -85.3017
 -85.3001
 -60.2702
 -59.5747
 -59.0596
 -60.3146
 -85.1276
 -85.1294
 -85.1038
 -85.1028
 -84.5415
 -84.4638
 -84.4893
 -84.5563
 -84.8136
 -84.8374
 -84.8097
 -84.7934
 -84.093
 -84.2437
 -84.3052
 -84.0997
 -80.4991
 -80.1227
 -80.5205
 -80.3661
 -83.0251
 -82.9593
 -82.7785
 -82.9216
 -85.1567
 -85.1572
 -85.1424
 -85.1306
 -84.5797
 -84.6601
 -84.5421
 -84.5962
 -83.0686
 -83.22
 -83.2357
 -83.0664
 -85.0739
 -85.0502
 -85.087
 -85.0534
 -85.082
 -85.0731
 -85.0668
 -85.0771
 -83.2452
 -83.1119
 -83.3074
 -82.9607
 -81.4832
 -81.4023
 -81.4019
 -81.447
 -85.0585
 -85.0101
 -85.0569
 -85.0407
 -75.4713
 -76.0265
 -75.9935
 -76.4666
 -85.0649
 -85.0626
 -85.1035
 -85.0896
 -85.3026
 -85.2996
 -85.3012
 -85.2977
 -84.8903
 -84.8768
 -84.9001
 -84.8303
 -85.1357
 -85.1525
 -85.1426
 -85.1442
 -77.9956
 -77.8463
 -78.2087
 -77.5565
 -85.0085
 -84.9873
 -84.9973
 -85.0319
 -85.2515
 -85.251
 -85.2593
 -85.2576
 -82.559
 -82.7463
 -82.6714
 -82.5862
 -85.0379
 -85.0734
 -85.0653
 -85.0587
 -80.7158
 -81.0263
 -80.6014
 -80.1541
 -83.5266
 -83.3986
 -83.3426
 -83.2515
 -84.7207
 -84.6675
 -84.6451
 -84.6221
 -80.1028
 -79.9815
 -79.8045
 -79.9939
 -84.6712
 -84.6168
 -84.6056
 -84.6617
 -83.6676
 -83.4077
 -83.6016
 -83.3094
 -84.8978
 -84.9221
 -84.882
 -84.9245
 -82.8689
 -83.0573
 -82.9787
 -83.2245
 -84.81
 -84.7985
 -84.849
 -84.7828
 -85.0505
 -85.0661
 -85.0743
 -85.0827
 -85.1153
 -85.1096
 -85.1224
 -85.0863
 -82.4685
 -82.557
 -82.1134
 -82.6598
 -83.8517
 -83.7781
 -83.8481
 -84.0139
 -63.1317
 -61.9969
 -61.3856
 -62.308
 -83.0653
 -83.0637
 -82.8437
 -83.0047
 -84.6274
 -84.7008
 -84.6853
 -84.7094
 -83.7688
 -83.7276
 -83.9634
 -83.6004
 -83.7986
 -83.9926
 -83.7587
 -83.9578
 -80.6708
 -80.4126
 -80.7902
 -80.7574
 -85.2192
 -85.231
 -85.2308
 -85.2167
 -85.2906
 -85.2926
 -85.2936
 -85.2945
 -84.7904
 -84.8495
 -84.731
 -84.7684
 -83.1144
 -83.0684
 -83.2592
 -83.0212
 -85.032
 -85.0433
 -85.0616
 -85.0279
 -79.7856
 -78.9236
 -79.1938
 -79.1533
 -79.5998
 -79.1683
 -79.1084
 -79.7635
 -61.7306
 -60.9904
 -62.345
 -62.0688
 -84.8925
 -84.9177
 -84.9138
 -84.9502
 -82.163
 -82.5758
 -82.6395
 -82.242
 -81.6496
 -81.3223
 -81.6067
 -81.9892
 -85.2928
 -85.2967
 -85.2942
 -85.2978
 -81.5689
 -81.5059
 -81.2594
 -81.5717
 -81.9377
 -81.7447
 -81.5093
 -81.8945
 -82.4379
 -82.6453
 -82.4571
 -82.2348
 -84.1435
 -84.096
 -84.2173
 -84.179
 -82.079
 -82.3609
 -82.1809
 -82.2498
 -83.4789
 -83.6165
 -83.662
 -83.5322
 -83.7934
 -83.7601
 -83.7118
 -83.6278
 -81.092
 -80.6945
 -81.2698
 -80.8855
 -58.1482
 -57.6863
 -59.7612
 -59.8353
 -80.2875
 -80.4554
 -80.6818
 -80.4727
 -84.8765
 -84.8724
 -84.9133
 -84.8281
 -84.903
 -84.9045
 -84.9446
 -84.9255
 -85.1096
 -85.1123
 -85.0974
 -85.1361
 -80.3213
 -80.2935
 -80.3626
 -80.4941
 -85.2942
 -85.2952
 -85.2925
 -85.299
 -85.1154
 -85.1346
 -85.1174
 -85.1186
 -76.3366
 -76.2296
 -75.5145
 -75.7108
 -83.5434
 -83.5595
 -83.4541
 -83.7983
 -81.833
 -82.0059
 -81.592
 -81.7464
 -81.9643
 -81.7876
 -81.8231
 -80.4561
 -80.4086
 -80.3947
 -80.2829
 -84.9941
 -84.976
 -84.9638
 -85.0126
 -84.1191
 -84.2898
 -84.204
 -84.1
 -84.9574
 -84.9897
 -84.9814
 -83.0572
 -82.7473
 -82.9211
 -82.791
 -84.4634
 -84.4977
 -84.4803
 -84.3893
 -85.1931
 -85.1906
 -85.189
 -85.2053
 -79.9224
 -80.0521
 -80.7253
 -80.4518
 -81.0588
 -80.7593
 -80.6437
 -80.8245
 -84.9285
 -84.8814
 -84.8632
 -84.8779
 -85.0742
 -85.059
 -85.1059
 -85.1017
 -77.7053
 -77.5637
 -77.2542
 -76.7117
 -80.7824
 -80.8656
 -81.411
 -81.2513
 -83.7488
 -83.9404
 -84.0397
 -83.8041
 -85.2728
 -85.279
 -85.2745
 -85.2762
 -84.8841
 -84.9297
 -84.9311
 -84.9191
 -84.431
 -84.2526
 -84.4349
 -84.4187
 -66.6005
 -64.8341
 -66.7826
 -66.5603
 -84.2426
 -84.0936
 -84.2527
 -84.3431
 -85.1817
 -85.1724
 -85.183
 -85.1587
 -82.1152
 -81.6025
 -82.3765
 -82.1448
 -81.7412
 -81.8152
 -81.4607
 -81.6534
 -81.2789
 -80.8755
 -80.9999
 -81.1339
 -76.7231
 -76.6373
 -76.6137
 -76.8651
 -81.556
 -81.0489
 -81.0538
 -81.0455
 -84.9555
 -84.9433
 -84.9507
 -84.9212
 -79.4127
 -79.5254
 -79.738
 -79.906
 -85.2725
 -85.2672
 -85.2683
 -85.2713
 -79.3457
 -78.6992
 -78.806
 -79.2735
 -85.1909
 -85.1712
 -85.1851
 -85.1745
 -84.1987
 -84.0838
 -84.0776
 -84.1597
 -83.323
 -83.4486
 -83.5607
 -83.342
 -82.7802
 -82.8169
 -83.0736
 -82.8447
 -82.2918
 -82.2778
 -82.1068
 -81.9658
 -85.2948
 -85.2972
 -85.2983
 -85.2984
 -82.5608
 -82.4699
 -82.5422
 -82.4841
 -85.3026
 -85.3002
 -85.3017
 -85.2984
 -85.0669
 -85.0727
 -85.0987
 -85.0806
 -71.3624
 -72.7835
 -72.4838
 -71.1712
 -85.2618
 -85.2596
 -85.2672
 -85.271
 -80.8422
 -81.3776
 -80.9684
 -80.5933
 -69.0553
 -68.4775
 -68.2485
 -68.8225
 -85.1706
 -85.1694
 -85.1622
 -85.1725
 -85.2871
 -85.2905
 -85.2894
 -85.2894
 -84.5749
 -84.6312
 -84.5577
 -84.5746
 -85.1347
 -85.1136
 -85.142
 -85.1261
 -81.9679
 -81.6024
 -81.7763
 -81.77
 -84.7722
 -84.7577
 -84.7857
 -84.8448
 -83.3253
 -83.1282
 -83.3203
 -83.3346
 -80.6644
 -80.8113
 -80.6232
 -80.5998
 -78.0861
 -77.9885
 -77.9976
 -78.4283
 -84.0945
 -84.0265
 -84.1744
 -83.9851
 -84.4504
 -84.4799
 -84.4287
 -84.366
 -81.7257
 -81.6275
 -81.8538
 -82.0601
 -81.6945
 -81.3269
 -81.7264
 -81.6248
 -84.9781
 -84.9726
 -84.9341
 -84.9503
 -85.2669
 -85.2689
 -85.2735
 -85.2737
 -85.2535
 -85.2449
 -85.2549
 -85.2566
 -85.2535
 -85.241
 -85.243
 -85.2482
 -84.9699
 -84.9592
 -84.985
 -84.9415
 -81.6308
 -81.2511
 -81.5543
 -81.4362
 -81.7583
 -81.9301
 -82.0106
 -82.0968
 -84.3492
 -84.3571
 -84.1199
 -84.1603
 -85.1106
 -85.0941
 -85.1366
 -85.123
 -85.0996
 -85.0822
 -85.0869
 -85.1059
 -84.7405
 -84.681
 -84.7114
 -84.7199
 -84.8369
 -84.8746
 -84.8055
 -84.8297
 -77.96
 -77.8484
 -78.1113
 -78.6792
 -51.783
 -51.1321
 -51.8918
 -50.3334
 -82.3077
 -82.2612
 -81.8365
 -82.0733
 -57.0274
 -58.8706
 -58.327
 -82.4239
 -82.3779
 -82.5337
 -82.1153
 -85.1876
 -85.179
 -85.1841
 -85.1719
 -84.6512
 -84.7035
 -84.7055
 -84.7538
 -85.2719
 -85.2681
 -85.2776
 -85.2685
 -81.6428
 -81.7059
 -81.3824
 -81.7059
 -85.0494
 -85.027
 -85.0615
 -85.0557
 -84.7497
 -84.772
 -84.6853
 -84.6958
 -85.2846
 -85.2869
 -85.2899
 -85.2848
 -85.1891
 -85.1893
 -85.1952
 -85.2096
 -82.2494
 -82.5645
 -82.3509
 -82.2343
 -85.0005
 -84.993
 -84.9644
 -84.9866
 -85.2101
 -85.1865
 -85.203
 -85.188
 -68.6818
 -66.7987
 -67.929
 -66.9813
 -84.6005
 -84.6483
 -84.6721
 -84.6775
 -85.2009
 -85.202
 -85.2172
 -85.2104
 -84.948
 -84.9867
 -84.9169
 -85.0007
 -85.1534
 -85.1355
 -85.1583
 -85.1509
 -81.6112
 -81.9131
 -82.0633
 -82.1559
 -85.1794
 -85.2111
 -85.1811
 -85.2063
 -83.9085
 -84.0098
 -83.6829
 -83.8614
 -84.2593
 -84.3179
 -84.3899
 -84.2186
 -85.1797
 -85.1854
 -85.1693
 -85.1849
 -85.3044
 -85.3017
 -85.3026
 -85.3049
 -78.3684
 -78.7132
 -78.9226
 -79.0834
 -83.3345
 -83.4638
 -83.5925
 -83.3844
 -84.7315
 -84.7119
 -84.6564
 -84.676
 -85.1992
 -85.2072
 -85.2073
 -85.2067
 -82.6688
 -82.5065
 -82.5448
 -82.5526
 -78.944
 -79.6542
 -79.9257
 -79.1042
 -85.0466
 -85.0472
 -85.0178
 -85.0112
 -84.8577
 -84.9035
 -84.8663
 -84.8781
 -85.271
 -85.2733
 -85.2775
 -85.2702
 -80.3827
 -80.8875
 -80.2541
 -80.7461
 -85.2899
 -85.2934
 -85.2923
 -85.2897
 -83.0768
 -83.409
 -83.3095
 -83.2029
 -52.8449
 -52.5223
 -52.9016
 -53.3733
 -85.2387
 -85.2486
 -85.2506
 -85.2483
 -85.0155
 -85.0378
 -85.0015
 -84.9533
 -85.2661
 -85.2654
 -85.2613
 -85.2588
 -84.3792
 -84.2622
 -84.3883
 -84.4112
 -84.1661
 -84.274
 -84.2918
 -84.2073
 -85.1606
 -85.1398
 -85.1497
 -85.1461
 -81.6269
 -81.7516
 -81.472
 -81.6769
 -81.1774
 -81.4043
 -81.3983
 -81.3064
 -63.1348
 -62.3318
 -62.5862
 -62.1158
 -84.6689
 -84.7177
 -84.7423
 -84.7775
 -84.4772
 -84.3988
 -84.5373
 -84.4595
 -84.984
 -84.9244
 -84.9465
 -84.9918
 -83.3329
 -83.5705
 -83.5878
 -83.2549
 -85.2615
 -85.2587
 -85.2656
 -85.257
 -85.2866
 -85.2938
 -85.2873
 -85.2845
 -84.9625
 -84.9943
 -85.021
 -85.0186
 -45.614
 -45.5295
 -45.7774
 -46.1172
 -83.7563
 -83.6562
 -83.8075
 -83.5924
 -83.9446
 -83.8865
 -83.74
 -83.8899
 -83.8192
 -83.8228
 -83.6738
 -83.6538
 -85.156
 -85.1488
 -85.1691
 -85.1424
 -67.692
 -68.9839
 -66.536
 -67.4939
 -59.2907
 -59.5606
 -57.948
 -57.8921
 -85.1256
 -85.1083
 -85.1324
 -85.1096
 -82.8291
 -83.1172
 -82.7
 -83.1292
 -83.8014
 -83.8022
 -83.8606
 -83.8678
 -84.9447
 -84.8981
 -84.9081
 -84.8503
 -81.4121
 -81.5813
 -81.7293
 -81.554
 -85.2007
 -85.1783
 -85.1856
 -85.1937
 -83.3784
 -82.9353
 -83.2006
 -82.8862
 -82.8895
 -82.7979
 -82.5631
 -82.8512
 -79.0534
 -78.6427
 -79.3666
 -78.4387
 -83.8761
 -84.1052
 -83.9092
 -84.0853
 -85.2176
 -85.2252
 -85.2249
 -85.2145
 -85.0097
 -85.0523
 -85.0602
 -85.0242
 -80.9821
 -80.8761
 -81.301
 -81.2939
 -82.5816
 -82.9107
 -82.9227
 -82.5711
 -85.2644
 -85.2661
 -85.2693
 -85.2707
 -85.1966
 -85.1882
 -85.1956
 -85.186
 -83.9051
 -83.8478
 -83.7372
 -83.8377
 -80.2746
 -80.3396
 -80.3163
 -80.453
 -72.547
 -74.5184
 -74.3084
 -73.0068
 -84.996
 -84.9626
 -84.938
 -84.9845
 -79.2168
 -78.5312
 -79.1849
 -77.5998
 -85.2232
 -85.2123
 -85.2093
 -85.2217
 -84.8247
 -84.8809
 -84.8391
 -84.7815
 -85.2419
 -85.2397
 -85.2363
 -85.2358
 -85.0654
 -85.0384
 -85.0329
 -85.0472
 -83.9782
 -83.9203
 -83.9542
 -84.0676
 -81.7974
 -81.3002
 -81.424
 -81.622
 -74.296
 -75.8716
 -74.3815
 -74.6452
 -77.6725
 -76.4714
 -77.738
 -77.3382
 -81.3702
 -80.7848
 -80.661
 -80.7805
 -84.3318
 -84.369
 -84.3246
 -84.1617
 -84.4111
 -84.3721
 -84.4621
 -84.3007
 -84.5076
 -84.4121
 -84.5923
 -84.4932
 -85.0528
 -85.0298
 -85.0586
 -85.0551
 -66.9417
 -65.4881
 -65.5488
 -65.4211
 -84.7389
 -84.7477
 -84.7168
 -84.7766
 -80.9247
 -80.4019
 -80.6093
 -80.743
 -83.737
 -83.9539
 -83.8133
 -83.9443
 -85.2829
 -85.2747
 -85.2833
 -85.2821
 -84.1179
 -84.039
 -84.0343
 -83.9906
 -79.7154
 -79.496
 -79.632
 -79.004
 -83.5362
 -83.5578
 -83.6647
 -83.7632
 -81.9411
 -82.1231
 -82.0868
 -81.8682
 -83.9649
 -83.8016
 -84.038
 -83.9362
 -67.7657
 -66.64
 -67.1291
 -67.9001
 -83.8822
 -83.8798
 -84.0532
 -84.0604
 -85.0366
 -85.0281
 -85.0466
 -85.0372
 -84.805
 -84.81
 -84.8404
 -84.8082
 -85.2518
 -85.238
 -85.2512
 -85.243
 -82.5534
 -82.4824
 -82.7004
 -82.5455
 -81.5492
 -81.8331
 -81.5993
 -82.1783
 -85.2238
 -85.2134
 -85.2286
 -85.227
 -82.0222
 -82.0105
 -82.3977
 -82.0234
 -85.2254
 -85.2193
 -85.2293
 -85.2199
 -84.5862
 -84.6938
 -84.6148
 -84.6448
 -84.3664
 -84.1962
 -84.3563
 -84.4065
 -81.8716
 -82.1475
 -82.0675
 -81.8342
 -84.132
 -84.0949
 -84.1801
 -84.0443
 -85.2337
 -85.2267
 -85.2343
 -85.2343
 -52.6819
 -52.7787
 -52.9865
 -51.8388
 -80.1768
 -80.1203
 -80.1233
 -80.2035
 -79.5569
 -79.5745
 -79.5435
 -79.199
 -82.8867
 -82.961
 -82.7805
 -83.1107
 -83.7885
 -83.6539
 -83.7721
 -83.6854
 -82.6803
 -82.5643
 -82.4367
 -82.7634
 -85.2737
 -85.2692
 -85.2798
 -85.2661
 -81.6406
 -81.4522
 -81.5278
 -81.865
 -84.9919
 -85.0043
 -85.0223
 -84.9907
 -84.2562
 -85.1717
 -85.1506
 -85.1624
 -85.1646
 -84.8769
 -84.9057
 -84.9335
 -84.9248
 -77.9736
 -78.6357
 -78.8458
 -78.3624
 -83.1436
 -83.0278
 -83.1717
 -83.3398
 -81.8663
 -81.501
 -81.8077
 -81.9995
 -85.1939
 -85.1851
 -85.1816
 -85.1825
 -83.9711
 -83.6891
 -83.8893
 -83.7949
 -85.2097
 -85.2156
 -85.1988
 -85.194
 -85.0489
 -85.0716
 -85.0306
 -85.0782
 -78.4164
 -78.7312
 -78.4861
 -79.0638
 -81.2044
 -80.6849
 -81.5495
 -81.2758
 -85.0828
 -85.1009
 -85.0987
 -85.0794
 -84.1362
 -83.9304
 -84.0426
 -79.671
 -79.274
 -79.4184
 -79.9134
 -84.9742
 -84.9064
 -84.947
 -84.9039
 -82.161
 -81.823
 -81.7648
 -82.1413
 -84.2188
 -84.0046
 -84.1002
 -84.2213
 -85.2494
 -85.249
 -85.2397
 -85.2493
 -82.7927
 -82.6831
 -82.5668
 -82.7856
 -85.1823
 -85.1697
 -85.1841
 -85.188
 -84.4411
 -84.3976
 -84.4603
 -84.3451
 -85.1108
 -85.0986
 -85.0803
 -85.0938
 -85.2438
 -85.2442
 -85.2517
 -85.2475
 -82.889
 -82.8662
 -83.0152
 -83.0098
 -52.0284
 -53.9793
 -53.4151
 -54.5331
 -85.2669
 -85.2604
 -85.2642
 -85.2591
 -84.9291
 -84.9216
 -84.8722
 -84.8902
 -80.2272
 -80.2601
 -80.9802
 -80.4058
 -83.6033
 -83.6789
 -83.7726
 -83.5701
 -70.0357
 -70.4128
 -70.6352
 -69.324
 -85.2226
 -85.2256
 -85.239
 -85.2245
 -80.6197
 -80.464
 -80.5494
 -80.5655
 -84.5859
 -84.6454
 -84.5442
 -84.6005
 -80.9375
 -80.0504
 -80.7037
 -80.8131
 -85.286
 -85.2848
 -85.2865
 -85.2769
 -85.2895
 -85.2896
 -85.2854
 -85.2829
 -85.0181
 -84.9782
 -84.9782
 -85.011
 -84.6561
 -84.6874
 -84.6564
 -84.6182
 -84.7018
 -79.1364
 -79.3325
 -78.3568
 -79.0783
 -80.7223
 -80.5064
 -80.3995
 -80.9455
 -84.9636
 -85.0033
 -85.0078
 -84.9974
 -80.8335
 -81.0797
 -81.0836
 -80.8232
 -81.7687
 -81.7179
 -81.6367
 -82.0032
 -85.0076
 -85.0211
 -85.0016
 -84.9838
 -83.0985
 -83.3279
 -83.0881
 -83.3362
 -85.0064
 -85.0105
 -85.027
 -85.0411
 -82.0378
 -81.9563
 -81.6439
 -82.1013
 -82.9996
 -83.2221
 -83.1905
 -83.2254
 -83.9635
 -84.069
 -83.8806
 -84.0608
 -84.6975
 -84.7655
 -84.704
 -84.7676
 -85.1394
 -85.1293
 -85.1523
 -85.1579
 -84.4897
 -84.4629
 -84.4099
 -84.4146
 -84.5645
 -84.5661
 -84.6258
 -84.5857
 -78.5884
 -78.5745
 -78.8218
 -78.9926
 -84.968
 -84.9843
 -84.9894
 -84.9888
 -84.3757
 -84.4115
 -84.4329
 -84.3478
 -84.5527
 -84.5687
 -84.4966
 -84.5602
 -83.4591
 -83.5375
 -83.264
 -83.4052
 -79.6889
 -79.6564
 -79.8899
 -79.3266
 -85.1227
 -85.1269
 -85.1432
 -85.1355
 -79.8872
 -79.4429
 -79.6311
 -80.2023
 -85.2843
 -85.2839
 -85.2881
 -85.287
 -85.2028
 -85.1949
 -85.2125
 -85.2093
 -85.2233
 -85.2222
 -85.2211
 -85.2179
 -85.1702
 -85.1751
 -85.1685
 -85.1797
 -85.031
 -85.0524
 -85.017
 -85.0553
 -73.156
 -72.4293
 -70.9076
 -84.5596
 -84.4428
 -84.551
 -84.4984
 -85.1802
 -85.1763
 -85.1696
 -85.1839
 -83.3204
 -83.0701
 -83.2214
 -83.2893
 -82.302
 -82.3113
 -82.2081
 -82.3859
 -85.0914
 -85.0936
 -85.1202
 -85.0687
 -83.9001
 -83.8412
 -83.9648
 -84.0244
 -82.5756
 -82.587
 -82.5605
 -82.451
 -85.2662
 -85.2717
 -84.8786
 -84.8588
 -84.8227
 -84.8104
 -84.0141
 -84.0281
 -83.9101
 -84.738
 -84.7489
 -84.7219
 -84.6809
 -74.2503
 -74.1726
 -75.2946
 -75.2116
 -85.1848
 -85.1989
 -85.1959
 -85.1849
 -84.7286
 -84.7103
 -84.6724
 -84.6743
 -83.2799
 -83.0512
 -83.1402
 -83.3144
 -84.4098
 -84.2823
 -84.331
 -84.3629
 -80.7436
 -80.6463
 -80.7035
 -80.6637
 -78.8493
 -79.6732
 -79.0999
 -79.254
 -83.7228
 -83.8695
 -83.8744
 -83.7974
 -79.8376
 -79.6823
 -79.8467
 -80.2956
 -83.8895
 -83.8107
 -83.837
 -83.7735
 -85.2007
 -85.201
 -85.1863
 -85.1832
 -81.0161
 -81.2013
 -81.3053
 -81.1711
 -62.8299
 -64.3219
 -62.5128
 -63.6305
 -84.7697
 -84.6628
 -84.7552
 -84.7321
 -83.5473
 -83.674
 -83.5293
 -83.6836
 -80.5911
 -80.5057
 -80.8238
 -80.7253
 -84.1171
 -84.0029
 -84.1364
 -84.1632
 -85.2733
 -85.27
 -85.275
 -85.2729
 -82.0211
 -82.023
 -81.8833
 -82.0691
 -84.896
 -84.8392
 -84.8359
 -84.8373
 -83.5586
 -83.6889
 -83.5494
 -83.8332
 -85.0496
 -85.0599
 -85.0521
 -85.0808
 -85.2145
 -85.2096
 -85.2177
 -85.2077
 -80.4381
 -80.7876
 -80.5544
 -81.1646
 -82.7104
 -82.8723
 -82.8334
 -82.8024
 -84.6258
 -84.618
 -84.5342
 -84.5699
 -80.4055
 -80.4975
 -80.4816
 -80.6009
 -53.4601
 -52.634
 -52.7515
 -53.3253
 -84.3548
 -84.2423
 -84.2912
 -84.2094
 -50.9042
 -50.7192
 -50.7949
 -51.7554
 -53.1829
 -54.733
 -54.3041
 -53.473
 -74.5544
 -75.3273
 -75.0153
 -74.218
 -84.9461
 -84.9129
 -84.8881
 -84.8589
 -84.9477
 -84.9636
 -84.9753
 -84.9938
 -84.9948
 -84.9786
 -84.9946
 -84.954
 -84.8236
 -84.7601
 -84.7785
 -84.8262
 -70.2559
 -69.2627
 -70.1734
 -70.0175
 -81.2141
 -81.0842
 -81.4208
 -81.2675
 -79.9741
 -79.6
 -79.8675
 -79.4773
 -83.11
 -83.3391
 -83.1305
 -83.3488
 -84.4563
 -84.4038
 -84.4692
 -84.4079
 -85.0703
 -85.056
 -85.0463
 -85.0665
 -81.3842
 -81.8423
 -82.0559
 -81.5666
 -84.9577
 -84.2888
 -84.3934
 -84.3887
 -84.3354
 -85.2847
 -85.2879
 -85.2924
 -85.289
 -83.8807
 -83.9462
 -84.0088
 -83.9143
 -85.235
 -85.2477
 -85.2382
 -81.0875
 -81.2149
 -81.3689
 -81.0352
 -57.5471
 -58.8655
 -58.1391
 -58.8174
 -84.1315
 -84.1413
 -84.3187
 -84.0523
 -83.4084
 -83.0568
 -83.123
 -83.102
 -80.1774
 -80.4014
 -80.6952
 -80.8847
 -80.6534
 -80.7957
 -80.5014
 -80.8615
 -73.3131
 -72.4002
 -73.0592
 -73.1181
 -84.7107
 -84.683
 -84.7025
 -84.7988
 -84.2385
 -84.3801
 -84.1854
 -84.3159
 -82.7971
 -82.4686
 -82.7875
 -82.6342
 -83.7755
 -83.7198
 -83.9561
 -85.0383
 -85.0316
 -85.0294
 -81.3838
 -81.4718
 -80.8775
 -80.764
 -76.8917
 -76.7129
 -76.7112
 -76.8603
 -81.9446
 -82.1982
 -82.1134
 -81.8886
 -76.0198
 -75.0655
 -76.3147
 -74.7876
 -85.1564
 -85.1747
 -85.1603
 -85.1692
 -84.99
 -85.0136
 -85.0171
 -85.0395
 -80.5806
 -80.4648
 -80.5244
 -80.4651
 -70.965
 -69.2601
 -70.6518
 -71.0011
 -84.4185
 -84.2664
 -84.409
 -84.3648
 -85.2641
 -85.2531
 -85.2632
 -85.2545
 -75.6834
 -75.5688
 -75.1374
 -75.6134
 -84.8911
 -84.8536
 -84.8354
 -84.9029
 -62.6114
 -61.6127
 -62.3856
 -61.6985
 -85.0419
 -85.047
 -85.0431
 -85.0689
 -83.2864
 -83.0792
 -83.3896
 -83.0376
 -85.1661
 -85.1685
 -85.1769
 -85.1817
 -80.9484
 -81.0539
 -81.0805
 -81.3531
 -82.8383
 -82.6279
 -82.6409
 -82.6561
 -80.9067
 -80.7765
 -81.2857
 -81.1822
 -82.1812
 -82.0973
 -82.4725
 -81.8193
 -84.4011
 -84.4756
 -84.4818
 -84.3868
 -83.7655
 -83.6392
 -83.8169
 -83.8132
 -85.1713
 -85.1582
 -85.14
 -85.1378
 -85.2786
 -85.2821
 -85.2743
 -85.277
 -83.3768
 -83.3521
 -83.2048
 -83.3337
 -85.1956
 -85.1877
 -85.1882
 -85.2023
 -85.0079
 -85.0418
 -85.067
 -85.0318
 -67.89
 -67.3644
 -65.968
 -67.932
 -78.9827
 -79.9374
 -79.7034
 -79.4427
 -83.2548
 -83.1337
 -83.0757
 -83.1073
 -73.507
 -72.8187
 -72.6484
 -71.8524
 -84.4645
 -84.5484
 -84.5423
 -84.5302
 -85.1311
 -85.1688
 -85.1472
 -85.1497
 -74.1175
 -75.6401
 -74.1776
 -74.081
 -83.8031
 -83.9318
 -83.8618
 -83.8715
 -82.3407
 -82.346
 -82.3535
 -82.2089
 -53.4719
 -54.5147
 -54.2618
 -53.3271
 -83.1903
 -83.1622
 -83.1024
 -83.3429
 -84.3089
 -84.3887
 -84.3821
 -84.3919
 -85.0587
 -85.0944
 -85.0749
 -85.0961
 -82.2392
 -82.327
 -82.4393
 -84.2631
 -84.2356
 -84.1886
 -84.2607
 -82.6517
 -82.7539
 -82.9726
 -82.7734
 -84.9497
 -84.9145
 -84.9373
 -84.9424
 -84.9133
 -84.9504
 -84.9665
 -84.9352
 -85.2034
 -85.1893
 -85.1989
 -85.1891
 -81.1323
 -81.3237
 -81.5003
 -81.214
 -85.2466
 -85.2506
 -85.2547
 -85.2491
 -81.8383
 -82.1027
 -81.9063
 -81.774
 -84.2278
 -84.3656
 -84.3551
 -84.4323
 -84.4832
 -84.3842
 -84.3948
 -84.3588
 -52.0768
 -51.075
 -51.8836
 -51.9499
 -82.2949
 -82.0782
 -82.3008
 -82.3348
 -84.0297
 -84.0493
 -84.1467
 -84.2827
 -83.9392
 -84.0019
 -83.9821
 -83.8468
 -85.2726
 -85.2736
 -85.2668
 -85.2758
 -81.8234
 -82.1032
 -82.2585
 -81.9188
 -82.3659
 -82.1914
 -82.4383
 -82.1213
 -85.0459
 -85.0662
 -85.0422
 -85.0673
 -80.4593
 -80.358
 -80.063
 -80.0009
 -80.4438
 -80.3175
 -80.6198
 -80.3241
 -84.8467
 -84.7757
 -84.8393
 -84.8221
 -84.9643
 -84.9539
 -84.9211
 -84.9564
 -84.4868
 -84.4805
 -84.5884
 -84.5731
 -82.0562
 -81.9237
 -84.7928
 -84.7353
 -84.8244
 -84.7482
 -82.3179
 -82.4536
 -82.3568
 -82.3737
 -83.6487
 -83.8254
 -83.8724
 -83.7783
 -85.2345
 -85.2284
 -85.2222
 -85.2382
 -83.5292
 -83.5814
 -83.6701
 -83.6988
 -85.0985
 -85.1218
 -85.1334
 -85.0918
 -80.9504
 -81.7123
 -81.4457
 -81.6907
 -83.3476
 -83.1769
 -83.1059
 -83.2446
 -84.039
 -84.2189
 -84.1076
 -84.2148
 -81.4128
 -81.1232
 -80.9937
 -81.1783
 -63.2278
 -63.1483
 -62.7861
 -61.8231
 -85.2806
 -85.28
 -85.2796
 -85.2816
 -75.5396
 -75.2223
 -75.7473
 -75.1793
 -84.5079
 -84.5534
 -84.466
 -84.4785
 -62.7791
 -62.6969
 -64.09
 -62.6818
 -84.7599
 -84.8107
 -84.7597
 -84.7548
 -81.9458
 -81.8867
 -81.808
 -81.7644
 -82.017
 -82.0737
 -81.7954
 -81.9518
 -84.2947
 -84.3551
 -84.1873
 -84.3275
 -85.1669
 -85.1426
 -85.1573
 -85.1382
 -83.1468
 -83.4081
 -83.3412
 -83.4054
 -80.5332
 -80.4189
 -80.5428
 -80.6713
 -85.1464
 -85.1705
 -85.1563
 -85.1741
 -81.2064
 -80.5653
 -81.2825
 -81.2644
 -82.9953
 -83.2227
 -83.1952
 -83.3004
 -84.9968
 -85.0432
 -85.0414
 -85.0136
 -84.3087
 -84.4168
 -84.416
 -84.4145
 -83.7297
 -83.5686
 -83.7239
 -83.7803
 -85.2274
 -85.238
 -85.2418
 -85.2449
 -85.2
 -85.2035
 -85.2054
 -85.1973
 -84.6369
 -84.6328
 -84.5335
 -84.595
 -83.8171
 -83.9264
 -83.8003
 -84.0798
 -82.4635
 -82.5665
 -82.6384
 -82.9828
 -79.6346
 -79.5494
 -79.2652
 -85.0627
 -85.0894
 -85.0673
 -85.1008
 -61.1766
 -60.2515
 -59.3651
 -59.2307
 -84.8581
 -84.788
 -84.8244
 -84.8336
 -81.5372
 -81.1464
 -81.3421
 -81.3634
 -80.9211
 -80.6958
 -80.7648
 -80.7539
 -85.1701
 -85.1534
 -85.1583
 -85.1841
 -84.4453
 -84.3698
 -84.4884
 -84.4117
 -83.7291
 -83.6755
 -82.2885
 -83.4893
 -83.6828
 -83.4886
 -83.5915
 -63.5835
 -64.5114
 -84.8081
 -84.8402
 -84.8761
 -77.452
 -77.9619
 -76.8873
 -77.5448
 -84.7936
 -84.7303
 -84.7428
 -84.7423
 -82.8868
 -83.1367
 -83.082
 -83.0941
 -82.1541
 -82.5271
 -82.2976
 -82.2882
 -85.2404
 -85.2416
 -85.2549
 -85.2466
 -77.986
 -78.5511
 -77.9003
 -78.5824
 -84.8354
 -84.8509
 -84.8462
 -84.883
 -85.2482
 -85.2522
 -85.2412
 -85.2431
 -84.353
 -84.2425
 -84.386
 -84.2959
 -84.7931
 -84.7272
 -84.7702
 -84.7545
 -84.1083
 -84.2541
 -84.1752
 -83.9672
 -85.2927
 -85.2854
 -85.2887
 -85.2816
 -85.289
 -85.2873
 -85.285
 -85.2831
 -85.2878
 -85.2861
 -85.2855
 -85.2877
 -83.6563
 -83.4729
 -83.6251
 -83.6192
 -84.6026
 -84.5275
 -84.5481
 -84.6067
 -83.6592
 -83.625
 -83.4987
 -83.5978
 -83.4995
 -83.3834
 -83.6849
 -83.4279
 -84.9478
 -84.9702
 -84.9779
 -84.9421
 -85.1668
 -85.1911
 -85.186
 -85.1901
 -85.1316
 -85.1398
 -85.1141
 -85.1377
 -84.1245
 -84.2107
 -84.1219
 -84.1736
 -83.9895
 -83.9517
 -83.9419
 -83.8685
 -81.8957
 -81.6877
 -81.8082
 -82.1107
 -85.0231
 -85.0529
 -85.0455
 -85.0177
 -73.1253
 -73.0739
 -72.2693
 -74.1008
 -85.1323
 -85.1483
 -85.1267
 -85.119
 -84.5602
 -84.6846
 -84.5459
 -84.6531
 -84.4432
 -84.5418
 -84.456
 -84.4555
 -77.9439
 -77.8483
 -77.282
 -76.7283
 -48.4711
 -49.0881
 -48.4519
 -48.5269
 -82.6996
 -82.9202
 -82.6985
 -82.7699
 -85.1141
 -85.074
 -85.081
 -85.112
 -80.9163
 -80.6469
 -80.8314
 -81.0729
 -84.5411
 -84.5703
 -84.4977
 -84.6136
 -84.7026
 -84.7658
 -84.8157
 -84.788
 -85.0343
 -85.0507
 -85.0057
 -85.0258
 -71.4856
 -70.4146
 -70.6407
 -71.2649
 -72.9786
 -72.9002
 -72.4942
 -72.4469
 -85.1047
 -85.1406
 -85.1181
 -85.1276
 -84.9747
 -84.9084
 -84.9287
 -84.968
 -82.7407
 -82.7613
 -82.6374
 -82.6713
 -84.1253
 -84.0522
 -84.1664
 -84.2406
 -84.584
 -84.6159
 -84.5767
 -84.5824
 -82.3393
 -82.2578
 -82.5724
 -82.2665
 -84.8471
 -84.8202
 -84.8081
 -84.7713
 -85.3105
 -85.3073
 -85.3096
 -85.31
 -84.6617
 -84.7124
 -84.7264
 -84.78
 -84.1455
 -84.2346
 -84.1241
 -84.2896
 -84.1389
 -84.1139
 -83.9862
 -84.1707
 -84.5538
 -84.5915
 -84.5482
 -84.4706
 -85.2622
 -85.2646
 -85.2569
 -85.2629
 -85.1802
 -85.166
 -85.1778
 -84.8096
 -84.7979
 -84.8508
 -84.8016
 -80.5915
 -80.5667
 -80.7875
 -80.5128
 -83.2847
 -83.3288
 -83.1557
 -83.3527
 -85.149
 -85.1225
 -85.1283
 -85.1209
 -81.9202
 -81.9829
 -82.0743
 -82.1936
 -83.0392
 -82.8096
 -82.7878
 -83.0685
 -83.252
 -83.1963
 -82.8728
 -83.0791
 -84.9282
 -84.9004
 -84.8933
 -84.8765
 -84.5554
 -84.4651
 -84.5773
 -84.395
 -84.7937
 -84.6605
 -84.7136
 -84.727
 -81.1885
 -81.2345
 -81.3542
 -81.1872
 -83.4164
 -83.5651
 -83.6101
 -83.4411
 -84.8746
 -84.8311
 -84.8775
 -84.8978
 -82.677
 -82.812
 -82.9219
 -82.5767
 -84.6115
 -84.6463
 -84.669
 -84.6055
 -80.9953
 -80.9061
 -81.0754
 -80.8627
 -85.2579
 -85.2601
 -85.2497
 -85.2577
 -81.6198
 -81.3168
 -81.6771
 -81.8225
 -80.8552
 -80.1462
 -80.5961
 -80.5919
 -84.9538
 -84.9409
 -84.9685
 -84.9836
 -81.8931
 -81.9812
 -82.0388
 -81.9752
 -84.7599
 -84.7513
 -84.7715
 -84.7052
 -76.9975
 -77.2537
 -76.2105
 -76.4958
 -84.4237
 -84.3882
 -84.4198
 -84.4993
 -85.2133
 -85.228
 -85.2118
 -85.2229
 -84.4273
 -84.3101
 -84.294
 -84.418
 -85.0493
 -85.0667
 -85.0457
 -85.0499
 -84.6984
 -84.6569
 -84.6574
 -84.7306
 -84.6005
 -84.6492
 -84.6369
 -84.7091
 -85.2651
 -85.2634
 -85.2677
 -85.2522
 -80.9783
 -80.822
 -80.6666
 -80.5717
 -81.0561
 -80.9187
 -80.5982
 -80.8967
 -85.1808
 -85.1744
 -85.1689
 -85.1882
 -85.2392
 -85.2451
 -85.236
 -82.351
 -82.2944
 -82.2619
 -82.4117
 -84.895
 -84.9424
 -84.8774
 -84.8777
 -84.4488
 -84.4941
 -84.3819
 -84.5061
 -80.1537
 -80.4583
 -79.7156
 -80.0341
 -85.0504
 -85.073
 -85.0641
 -85.0579
 -84.0504
 -83.8615
 -83.9054
 -84.0248
 -84.3804
 -84.2855
 -84.2746
 -84.2904
 -85.079
 -85.1024
 -85.0968
 -85.0917
 -79.967
 -79.8606
 -80.0238
 -80.183
 -82.216
 -81.8261
 -82.0275
 -81.872
 -85.2826
 -85.2769
 -85.2831
 -85.2799
 -81.2495
 -81.2122
 -81.2885
 -81.671
 -80.4312
 -80.319
 -80.3647
 -80.3948
 -84.1544
 -84.1801
 -84.1202
 -84.2841
 -64.6925
 -65.2672
 -64.0573
 -66.1921
 -84.3835
 -84.3951
 -84.3286
 -84.3969
 -85.112
 -85.1062
 -85.0976
 -85.091
 -85.1775
 -85.1636
 -85.1717
 -78.2547
 -78.2587
 -78.7631
 -78.444
 -81.7661
 -82.0539
 -81.6462
 -81.938
 -80.3211
 -80.1877
 -79.6235
 -79.8238
 -82.2301
 -81.985
 -82.1537
 -82.1392
 -85.2845
 -85.2883
 -85.2908
 -85.2883
 -78.9265
 -78.9645
 -78.7336
 -78.3363
 -81.281
 -81.0267
 -81.3005
 -81.7676
 -85.1768
 -85.1912
 -85.1788
 -85.173
 -83.1103
 -83.0906
 -83.2416
 -81.4702
 -81.2579
 -81.6463
 -84.4123
 -84.4337
 -84.3097
 -66.5846
 -68.4425
 -68.6855
 -67.1859
 -84.4635
 -84.5451
 -84.5194
 -84.5677
 -84.3365
 -84.4232
 -84.2546
 -84.2583
 -85.1765
 -85.1887
 -85.1766
 -85.1767
 -85.231
 -85.2311
 -85.2451
 -85.23
 -79.7576
 -79.0207
 -78.9898
 -80.0841
 -84.588
 -84.6587
 -84.6868
 -84.6071
 -84.4269
 -84.5075
 -84.5331
 -84.5236
 -83.75
 -83.9679
 -83.8593
 -83.9854
 -82.6825
 -82.7496
 -82.8598
 -82.4237
 -84.6113
 -84.4969
 -84.6087
 -84.5968
 -81.1915
 -81.2936
 -81.1741
 -81.3908
 -85.2303
 -85.2251
 -85.2308
 -85.2321
 -82.4756
 -82.3531
 -82.4742
 -82.7314
 -85.1684
 -85.1529
 -85.1656
 -85.1492
 -85.248
 -85.2445
 -85.2321
 -85.2433
 -85.2663
 -85.2651
 -85.2622
 -85.26
 -81.7034
 -81.5105
 -85.0312
 -85.0163
 -84.9993
 -85.0201
 -80.5976
 -81.1757
 -80.9386
 -80.7383
 -85.0812
 -85.1184
 -85.1124
 -85.1175
 -85.1481
 -85.1478
 -85.1637
 -85.1467
 -82.0016
 -82.3509
 -82.3077
 -82.2099
 -84.5995
 -84.5976
 -84.663
 -84.6472
 -82.2286
 -82.2153
 -82.4618
 -82.2385
 -83.4277
 -83.3614
 -83.4425
 -83.5881
 -55.0475
 -56.9419
 -54.5494
 -56.0549
 -85.1927
 -85.1841
 -85.2065
 -85.1945
 -82.305
 -82.1764
 -82.4392
 -82.7618
 -78.0606
 -77.6022
 -77.6211
 -78.1972
 -83.7677
 -83.6472
 -83.8448
 -83.8093
 -77.3072
 -76.2444
 -75.7419
 -77.4552
 -83.7777
 -83.6229
 -83.4808
 -83.7291
 -84.9814
 -84.966
 -85.008
 -84.9469
 -83.8596
 -83.7515
 -83.7586
 -83.8116
 -85.1859
 -85.2016
 -85.19
 -83.7419
 -83.8866
 -83.8151
 -83.9217
 -55.3228
 -54.53
 -54.6541
 -54.3514
 -85.2884
 -85.2891
 -85.2918
 -85.2892
 -84.6096
 -84.5722
 -84.6271
 -84.551
 -85.1161
 -85.1001
 -85.074
 -85.1061
 -79.9798
 -80.3616
 -79.2534
 -79.7779
 -82.5139
 -82.7727
 -82.3922
 -82.7152
 -82.6334
 -83.022
 -82.7279
 -82.9996
 -85.2448
 -85.2372
 -85.2473
 -85.2539
 -83.0657
 -82.9146
 -82.7467
 -82.843
 -85.2756
 -85.2725
 -85.2775
 -85.2696
 -84.9271
 -84.8681
 -84.876
 -84.9328
 -81.1497
 -81.2276
 -81.3223
 -81.1062
 -63.6601
 -64.2694
 -65.5363
 -63.3588
 -83.4324
 -83.1418
 -83.3344
 -83.0274
 -83.978
 -84.0076
 -84.1081
 -83.9954
 -84.9763
 -84.9924
 -84.9638
 -84.9418
 -56.5177
 -54.7944
 -56.847
 -56.2539
 -83.5506
 -83.4421
 -83.6479
 -83.5568
 -85.271
 -85.263
 -85.2618
 -85.2626
 -85.1579
 -85.1701
 -85.164
 -85.1566
 -85.1124
 -85.1263
 -85.1381
 -85.1156
 -85.0527
 -85.0407
 -85.0222
 -85.0397
 -85.1371
 -85.1661
 -85.1538
 -85.1494
 -84.7829
 -84.8009
 -84.7837
 -84.7889
 -81.3897
 -82.1381
 -82.4198
 -82.419
 -82.3194
 -84.9584
 -84.9226
 -84.9354
 -84.9109
 -84.9358
 -84.9413
 -84.8747
 -84.9024
 -76.886
 -77.0977
 -77.0538
 -76.8907
 -85.2167
 -85.2163
 -85.2118
 -85.219
 -85.0879
 -85.1104
 -85.1357
 -85.1203
 -81.2741
 -81.6471
 -81.6203
 -81.2099
 -81.2411
 -81.1226
 -82.0923
 -82.2696
 -82.1669
 -82.4149
 -80.8859
 -80.36
 -79.6374
 -80.0806
 -84.9053
 -84.9508
 -84.9347
 -84.9133
 -85.2868
 -85.286
 -85.2863
 -85.2882
 -84.1882
 -84.0995
 -84.1709
 -84.0427
 -85.2352
 -85.2175
 -85.2061
 -85.2088
 -83.6425
 -83.6506
 -83.5306
 -83.6863
 -84.8591
 -84.8325
 -84.7924
 -84.7944
 -79.7128
 -79.5573
 -79.56
 -78.8417
 -84.6336
 -84.6952
 -84.5916
 -84.6366
 -84.763
 -84.8406
 -84.8638
 -84.7883
 -81.6236
 -81.5063
 -81.2587
 -81.4033
 -83.0445
 -82.9094
 -83.2911
 -83.0806
 -83.6477
 -83.638
 -83.468
 -83.3795
 -84.5728
 -84.6346
 -84.6005
 -84.617
 -74.245
 -74.7631
 -75.0841
 -75.841
 -84.677
 -84.6124
 -84.6768
 -84.6974
 -83.1085
 -82.8458
 -83.1366
 -83.3258
 -85.0087
 -84.9923
 -85.0069
 -84.9725
 -85.1409
 -85.1266
 -85.1414
 -85.1266
 -85.2631
 -85.2611
 -85.2558
 -85.2604
 -85.2259
 -85.2321
 -85.2163
 -85.2872
 -85.2853
 -85.2895
 -85.2889
 -85.1145
 -85.0997
 -85.0703
 -85.0929
 -83.9096
 -83.8737
 -83.9834
 -83.9637
 -85.2246
 -85.216
 -85.2095
 -85.2249
 -84.4348
 -84.4598
 -84.3953
 -84.3746
 -84.5459
 -84.5858
 -84.5546
 -85.2623
 -85.2668
 -85.2636
 -85.2619
 -85.2191
 -85.2116
 -85.2146
 -84.3872
 -84.3221
 -84.431
 -84.4632
 -83.0026
 -83.1443
 -82.9915
 -83.3188
 -84.9614
 -84.9333
 -84.9206
 -84.9115
 -85.2533
 -85.2583
 -85.2574
 -85.2531
 -81.3442
 -81.3415
 -81.6671
 -81.2323
 -83.9938
 -83.9653
 -83.8287
 -83.8346
 -84.1292
 -84.2675
 -84.0549
 -84.1463
 -84.9578
 -84.9224
 -84.9586
 -84.9742
 -81.921
 -81.6744
 -82.1776
 -81.738
 -80.3038
 -79.9466
 -80.3571
 -80.0331
 -84.2809
 -84.2967
 -84.2666
 -84.3883
 -85.2603
 -85.2536
 -85.2533
 -85.2572
 -82.5587
 -82.253
 -82.586
 -82.4534
 -80.5626
 -80.9667
 -80.5431
 -80.8943
 -84.7153
 -84.6089
 -84.7098
 -84.7086
 -82.0405
 -82.0873
 -81.9047
 -81.1058
 -81.3403
 -81.2702
 -84.6445
 -84.6245
 -84.7146
 -84.6393
 -80.9606
 -80.8463
 -80.5318
 -80.9324
 -81.4935
 -81.1305
 -81.379
 -81.4273
 -84.7022
 -84.7396
 -84.6825
 -80.3421
 -80.2086
 -85.1467
 -85.1517
 -85.1806
 -85.1816
 -84.9533
 -85.0138
 -85.0165
 -84.9846
 -74.6517
 -75.6158
 -73.8167
 -75.8051
 -66.7985
 -66.6532
 -65.716
 -66.9225
 -81.7716
 -81.1576
 -81.5944
 -81.5702
 -85.2382
 -85.2364
 -85.241
 -85.2368
 -84.7861
 -84.7523
 -84.712
 -84.7521
 -80.1233
 -80.0767
 -80.0539
 -80.0323
 -82.2684
 -82.3345
 -82.4274
 -82.7732
 -82.5159
 -82.4765
 -82.3921
 -81.8333
 -82.0631
 -82.101
 -82.118
 -82.0779
 -81.8708
 -82.2178
 -82.246
 -80.7044
 -80.3779
 -80.6853
 -80.2595
 -85.2798
 -85.282
 -85.2813
 -85.2792
 -85.2272
 -85.2376
 -85.2271
 -84.2244
 -84.1412
 -84.2329
 -84.0691
 -81.7254
 -81.2341
 -81.7731
 -81.5933
 -85.2918
 -85.295
 -81.0604
 -80.8846
 -80.9225
 -80.7451
 -84.4248
 -84.6006
 -84.4885
 -84.5376
 -84.822
 -84.8082
 -80.9808
 -80.8919
 -81.3638
 -80.9737
 -85.249
 -85.2515
 -85.2455
 -85.2569
 -85.2828
 -85.2793
 -85.2782
 -85.2849
 -83.7864
 -83.8709
 -83.7726
 -75.2708
 -75.9797
 -75.4969
 -81.0773
 -81.5422
 -81.0399
 -81.1879
 -85.0498
 -85.021
 -85.0674
 -85.0166
 -82.5398
 -82.1646
 -82.3035
 -81.9573
 -82.4609
 -82.2575
 -82.5738
 -82.1598
 -84.9117
 -84.8901
 -84.9272
 -84.9688
 -57.4328
 -57.6963
 -56.8761
 -55.7773
 -85.0078
 -85.026
 -85.0437
 -85.0326
 -85.0551
 -85.0516
 -85.0775
 -85.0902
 -80.2867
 -80.2765
 -79.7306
 -80.1512
 -85.2214
 -85.2238
 -85.2261
 -85.2169
 -55.003
 -53.3289
 -53.9767
 -52.7606
 -85.2587
 -85.2404
 -85.2415
 -85.2355
 -85.1373
 -85.1303
 -82.0988
 -82.263
 -82.1547
 -82.4099
 -79.8391
 -79.4281
 -79.6437
 -79.9906
 -85.2167
 -85.2253
 -85.2218
 -85.2208
 -82.9998
 -83.1056
 -83.091
 -82.9275
 -85.2528
 -85.2453
 -85.2516
 -82.0244
 -81.7141
 -81.5126
 -79.2851
 -79.7568
 -79.8747
 -85.2679
 -85.2701
 -85.2672
 -85.265
 -82.2556
 -82.1247
 -82.1376
 -82.0888
 -85.2215
 -85.2243
 -79.6408
 -79.8637
 -79.5088
 -79.6669
 -84.3901
 -84.4705
 -84.4965
 -84.3666
 -82.6866
 -82.4636
 -83.423
 -83.7875
 -83.7068
 -83.4908
 -81.98
 -81.9009
 -81.9405
 -81.6413
 -85.2745
 -85.2846
 -85.2735
 -85.2782
 -80.6022
 -80.4837
 -80.5478
 -85.1687
 -55.5702
 -55.6827
 -55.7309
 -55.055
 -85.2035
 -85.2027
 -85.213
 -85.1868
 -82.5725
 -82.5895
 -82.9547
 -82.8964
 -84.9588
 -84.9556
 -84.9513
 -84.9474
 -81.9018
 -81.6983
 -81.5531
 -81.8626
 -84.8932
 -76.821
 -76.6917
 -76.6702
 -76.8731
 -84.8178
 -84.8384
 -84.8105
 -84.764
 -85.1111
 -85.128
 -85.1267
 -85.0969
 -85.1297
 -85.1063
 -85.1398
 -85.2077
 -85.215
 -85.2162
 -85.2105
 -80.1185
 -80.2999
 -80.752
 -80.5633
 -85.1504
 -85.1484
 -85.1496
 -85.165
 -77.9517
 -77.8214
 -78.0556
 -77.2933
 -85.1268
 -85.1368
 -85.1486
 -85.1493
 -84.1763
 -84.0951
 -84.0725
 -84.016
 -84.9592
 -84.9861
 -84.9967
 -85.0075
 -84.3666
 -84.3223
 -84.2782
 -84.2407
 -85.2515
 -85.2364
 -84.5641
 -84.4763
 -84.4807
 -84.5558
 -75.9401
 -75.6041
 -76.6141
 -75.561
 -77.1765
 -76.8297
 -78.0937
 -77.044
 -84.3872
 -84.481
 -84.4685
 -84.4933
 -85.0528
 -85.0564
 -85.0415
 -85.0813
 -85.0788
 -85.0604
 -85.0679
 -85.0916
 -85.2505
 -85.2368
 -85.2422
 -85.2368
 -85.0928
 -85.127
 -85.1107
 -85.0962
 -76.9407
 -77.2147
 -77.5888
 -76.7024
 -80.5968
 -80.6102
 -80.5002
 -81.1954
 -85.2933
 -85.2907
 -85.2901
 -85.2899
 -84.645
 -84.649
 -84.6592
 -84.7487
 -81.0086
 -81.4523
 -80.9329
 -81.4904
 -60.2003
 -59.8408
 -61.7909
 -59.7343
 -85.1995
 -85.2077
 -85.1921
 -85.2217
 -81.8026
 -81.7495
 -81.8752
 -82.0792
 -83.4016
 -83.607
 -83.2596
 -83.4803
 -78.1581
 -77.8432
 -78.0553
 -78.3914
 -84.869
 -84.8458
 -84.8724
 -84.8786
 -85.2437
 -85.2445
 -85.2417
 -85.2445
 -84.7203
 -84.6405
 -84.6588
 -84.6379
 -83.8446
 -83.8054
 -84.022
 -83.9487
 -76.4827
 -76.8751
 -77.211
 -75.8513
 -85.233
 -84.9184
 -84.9512
 -84.9056
 -84.9365
 -83.2671
 -83.1692
 -82.9543
 -82.952
 -84.9958
 -85.0197
 -85.0209
 -85.0333
 -80.8842
 -80.8404
 -80.7024
 -81.2593
 -84.9064
 -84.9238
 -84.8669
 -75.2055
 -76.1961
 -75.3519
 -75.0066
 -85.1538
 -85.115
 -85.1427
 -85.1286
 -80.5919
 -80.5497
 -80.7624
 -80.6179
 -85.3033
 -85.3014
 -85.3022
 -85.3053
 -82.0846
 -82.1459
 -82.1638
 -82.146
 -65.3454
 -68.4178
 -68.2103
 -67.2884
 -74.133
 -74.0599
 -75.0564
 -74.6256
 -85.2927
 -85.291
 -85.2875
 -85.2873
 -85.2594
 -85.2588
 -85.2662
 -85.2667
 -84.2439
 -84.3597
 -84.3226
 -84.3505
 -82.1818
 -82.167
 -82.3747
 -84.5637
 -84.5602
 -84.4198
 -84.4831
 -84.9116
 -84.8975
 -84.9294
 -84.9541
 -84.3775
 -84.5654
 -84.5093
 -84.4998
 -84.308
 -84.3607
 -84.4881
 -84.4124
 -85.2734
 -85.2663
 -85.2686
 -85.2657
 -81.1926
 -81.0971
 -81.4825
 -81.1955
 -74.1173
 -72.0922
 -72.4325
 -85.0289
 -84.9974
 -85.0272
 -85.0205
 -85.215
 -85.2252
 -85.2132
 -85.2107
 -81.4496
 -81.2679
 -81.5386
 -81.2195
 -81.2681
 -81.3979
 -80.9861
 -85.2197
 -85.2135
 -85.2239
 -85.204
 -83.9567
 -83.9479
 -84.0429
 -83.9272
 -81.2105
 -80.7753
 -81.1304
 -81.2017
 -83.3521
 -83.2414
 -83.2663
 -83.3917
 -85.1567
 -85.1542
 -85.1352
 -85.1578
 -81.0452
 -81.6015
 -80.7455
 -81.5147
 -83.5404
 -83.2636
 -83.409
 -83.4158
 -82.5447
 -82.7045
 -82.5505
 -85.2682
 -85.2663
 -85.2598
 -85.2652
 -83.8536
 -83.94
 -83.7864
 -83.9419
 -85.2919
 -85.2911
 -85.2969
 -84.4549
 -84.4892
 -84.4917
 -84.4484
 -76.2113
 -76.8725
 -75.6995
 -76.017
 -84.7834
 -84.7969
 -84.836
 -84.8835
 -84.2513
 -84.3807
 -84.2067
 -81.5836
 -81.7657
 -81.9953
 -81.6255
 -80.4345
 -80.5258
 -80.354
 -80.5775
 -81.6071
 -81.7479
 -81.9665
 -81.4772
 -64.2376
 -64.2845
 -66.1182
 -66.2733
 -82.863
 -82.7664
 -82.6419
 -82.6678
 -82.6058
 -82.4946
 -82.8934
 -82.414
 -85.2126
 -85.2029
 -85.204
 -85.2211
 -79.0247
 -79.7424
 -79.4936
 -79.3532
 -84.9124
 -84.8838
 -84.9244
 -84.9311
 -85.2485
 -85.2484
 -85.2412
 -85.2381
 -85.2548
 -85.2459
 -85.2512
 -85.2571
 -85.1502
 -85.1659
 -85.1468
 -85.164
 -85.27
 -85.277
 -85.2768
 -85.2632
 -85.2337
 -85.2373
 -85.2357
 -85.2901
 -85.2793
 -85.2839
 -85.2831
 -78.4165
 -78.0616
 -78.3029
 -77.9006
 -83.2817
 -83.1647
 -83.0008
 -83.186
 -82.4357
 -82.7639
 -82.5655
 -82.8161
 -83.1065
 -82.9859
 -82.9482
 -82.9001
 -85.2489
 -85.2389
 -85.2425
 -85.2466
 -83.4514
 -83.4697
 -83.3148
 -83.1608
 -81.6999
 -81.2568
 -81.2931
 -81.6041
 -84.891
 -84.8764
 -84.9312
 -84.8763
 -81.7076
 -82.1277
 -81.7215
 -81.8297
 -85.0524
 -85.0277
 -85.0317
 -84.4941
 -84.5912
 -84.5698
 -85.2042
 -85.1928
 -85.2066
 -85.2026
 -83.3589
 -83.4276
 -83.2947
 -83.2907
 -84.8414
 -84.7947
 -84.8035
 -84.8329
 -83.0208
 -82.7122
 -82.8796
 -83.0619
 -85.2941
 -85.2922
 -85.27
 -85.2658
 -85.2617
 -85.2701
 -77.3069
 -77.172
 -77.1803
 -76.8735
 -84.874
 -84.9165
 -84.9206
 -84.9513
 -81.4135
 -81.9661
 -81.6583
 -81.2597
 -50.92
 -48.8525
 -50.6999
 -50.0478
 -82.1425
 -82.0438
 -81.8589
 -82.0121
 -85.048
 -85.0182
 -85.0439
 -79.4633
 -79.3733
 -79.9375
 -79.8936
 -85.244
 -85.237
 -85.2493
 -85.2435
 -82.3067
 -82.3956
 -82.2936
 -82.3813
 -84.8636
 -84.9027
 -84.8708
 -84.866
 -76.0825
 -76.641
 -75.6087
 -76.2905
 -60.1731
 -59.6464
 -60.8626
 -61.1657
 -81.5304
 -81.7543
 -81.4997
 -81.445
 -83.07
 -82.9921
 -83.1475
 -84.5792
 -84.4701
 -84.6197
 -84.5727
 -80.2666
 -80.2429
 -79.6201
 -85.0366
 -85.0318
 -85.0405
 -85.0611
 -85.1515
 -85.1797
 -85.1536
 -85.1779
 -84.998
 -84.9712
 -84.9996
 -84.9989
 -85.244
 -85.2234
 -85.2342
 -85.2344
 -85.1193
 -85.0909
 -85.0927
 -82.3116
 -82.4519
 -82.4837
 -82.5613
 -85.0815
 -85.0573
 -84.9551
 -84.9061
 -84.8887
 -84.9474
 -85.0501
 -85.0344
 -85.0348
 -85.0577
 -81.5346
 -81.7745
 -81.6653
 -81.2455
 -81.9983
 -82.1922
 -81.9538
 -82.1452
 -51.629
 -52.4764
 -52.6792
 -52.0826
 -81.8783
 -82.0644
 -81.8774
 -82.2376
 -82.0875
 -82.0459
 -82.1239
 -84.0644
 -84.0533
 -83.9817
 -83.9546
 -82.356
 -82.6673
 -82.6571
 -82.4824
 -77.03
 -77.5433
 -77.0323
 -76.8819
 -85.1294
 -85.1122
 -85.1364
 -85.1075
 -84.2421
 -84.3273
 -84.2123
 -84.145
 -85.266
 -85.2673
 -85.2633
 -85.2663
 -84.6838
 -84.6087
 -84.6794
 -84.6388
 -85.2232
 -85.2231
 -85.2244
 -63.1771
 -64.7775
 -63.9211
 -64.3431
 -85.0322
 -85.0677
 -85.0325
 -85.0379
 -83.5658
 -83.3975
 -83.5884
 -83.5044
 -80.7903
 -80.4562
 -82.8402
 -82.8631
 -82.9804
 -82.9194
 -83.622
 -83.4231
 -83.5061
 -85.2153
 -85.2185
 -85.2126
 -85.2201
 -85.2041
 -85.197
 -85.1855
 -85.1974
 -81.0948
 -80.9212
 -81.1449
 -80.9973
 -84.0542
 -83.9799
 -81.9832
 -82.3181
 -82.1292
 -81.8358
 -85.0787
 -85.0707
 -85.1023
 -85.0994
 -75.4381
 -75.0842
 -75.3027
 -75.3979
 -81.5011
 -81.6696
 -81.3984
 -81.3859
 -82.0252
 -82.2868
 -82.4068
 -82.2891
 -84.4128
 -84.3782
 -84.4235
 -84.5302
 -85.0833
 -85.0743
 -85.0578
 -85.0634
 -85.1176
 -85.0879
 -85.0716
 -85.0997
 -56.7619
 -56.5046
 -56.1682
 -55.626
 -79.682
 -80.1048
 -80.2104
 -84.5516
 -84.417
 -84.4933
 -84.6568
 -84.7377
 -84.671
 -84.7116
 -85.2468
 -85.2511
 -85.2479
 -85.2545
 -83.8451
 -81.8228
 -81.775
 -81.3528
 -81.523
 -84.8764
 -84.8383
 -84.7875
 -84.8259
 -85.1239
 -85.1032
 -85.1119
 -85.1312
 -85.2296
 -85.2333
 -81.2084
 -81.1261
 -80.9433
 -80.8795
 -84.1463
 -84.2031
 -84.1537
 -84.2633
 -80.2769
 -80.2065
 -80.2902
 -80.3763
 -84.6502
 -83.1215
 -82.9095
 -83.296
 -83.4003
 -82.6492
 -82.8201
 -82.8901
 -82.7777
 -85.2511
 -85.2384
 -85.2692
 -85.274
 -85.2715
 -85.2703
 -68.8968
 -68.3009
 -68.5072
 -69.1098
 -85.1038
 -85.1116
 -85.0838
 -85.1246
 -84.7505
 -84.6445
 -84.6579
 -84.7311
 -59.4354
 -59.8835
 -59.9591
 -59.0168
 -84.0975
 -84.1187
 -84.1667
 -84.0336
 -84.0645
 -83.9082
 -83.8281
 -83.8787
 -80.3566
 -79.7523
 -80.3127
 -80.1192
 -85.2906
 -85.2931
 -85.2938
 -85.2924
 -83.8324
 -83.6734
 -83.7314
 -82.0171
 -82.3475
 -82.2982
 -82.0502
 -85.2743
 -85.2852
 -85.278
 -85.2799
 -82.1916
 -82.0174
 -81.6993
 -82.4062
 -83.5347
 -83.6588
 -85.1637
 -85.1699
 -85.1823
 -85.1514
 -84.5696
 -84.5586
 -84.65
 -84.6116
 -85.2568
 -85.2499
 -85.2512
 -85.2538
 -83.8264
 -84.0283
 -81.7694
 -81.9205
 -81.991
 -81.9392
 -82.3395
 -82.3328
 -82.481
 -82.5956
 -85.1905
 -85.1869
 -85.1697
 -85.1742
 -85.1467
 -85.1424
 -85.1502
 -85.1559
 -85.0948
 -85.0536
 -85.0936
 -85.0698
 -82.6953
 -82.9972
 -82.8669
 -82.6785
 -69.8623
 -69.1458
 -69.7917
 -69.9904
 -85.2624
 -85.2671
 -85.2606
 -85.2625
 -80.0217
 -80.1443
 -80.2321
 -80.5492
 -84.4712
 -84.4819
 -84.5646
 -84.4324
 -82.9059
 -83.3164
 -83.0484
 -83.1961
 -84.4375
 -84.3317
 -84.3874
 -84.8296
 -84.8916
 -84.8212
 -84.8695
 -84.2213
 -84.3258
 -84.2455
 -84.1759
 -85.0046
 -85.0138
 -85.0453
 -84.9962
 -84.9985
 -84.9965
 -85.0109
 -84.9537
 -58.6818
 -61.0849
 -58.8894
 -76.0164
 -77.0253
 -77.1562
 -76.8129
 -84.3198
 -84.2343
 -84.2723
 -84.27
 -85.191
 -85.1996
 -85.1911
 -85.206
 -81.3838
 -80.9422
 -81.3605
 -82.1586
 -82.2824
 -82.2703
 -84.7717
 -84.7532
 -84.8015
 -84.7981
 -84.3955
 -84.4352
 -84.5064
 -84.5072
 -85.3045
 -85.3046
 -85.3029
 -85.3044
 -73.8859
 -74.0683
 -73.5152
 -71.9544
 -85.0822
 -85.1029
 -83.2086
 -83.4767
 -83.4695
 -83.2724
 -84.9643
 -85.0056
 -84.9967
 -85.0039
 -84.6209
 -84.6532
 -84.707
 -84.6497
 -83.6172
 -83.5798
 -83.7514
 -83.4522
 -84.956
 -84.9917
 -84.9702
 -84.9853
 -81.1768
 -81.2768
 -81.3012
 -81.5153
 -79.2708
 -79.029
 -79.3372
 -79.1929
 -85.14
 -85.1457
 -85.1704
 -85.1804
 -84.345
 -84.4154
 -84.4811
 -66.0365
 -65.7372
 -66.5234
 -85.1844
 -85.1993
 -85.1996
 -85.2028
 -85.2289
 -85.2255
 -85.2183
 -85.2143
 -84.2322
 -84.277
 -84.3377
 -84.345
 -85.2516
 -85.2568
 -85.2581
 -85.256
 -85.242
 -85.2479
 -85.2447
 -85.2527
 -83.5241
 -83.6224
 -83.7348
 -83.5912
 -85.0659
 -85.0763
 -85.0922
 -85.089
 -85.3012
 -85.3004
 -85.3006
 -85.3033
 -85.123
 -85.1155
 -85.1053
 -85.1322
 -84.4426
 -84.3653
 -84.3938
 -84.2845
 -85.1849
 -85.1846
 -85.1754
 -85.1705
 -85.0233
 -85.0104
 -85.0418
 -84.7192
 -84.7765
 -69.7702
 -70.3583
 -69.4678
 -69.1456
 -84.6571
 -84.7356
 -84.6927
 -84.7156
 -72.4596
 -72.8248
 -72.991
 -73.1551
 -71.5742
 -71.0981
 -72.8036
 -72.566
 -84.4767
 -84.5483
 -84.534
 -84.474
 -83.2721
 -83.2901
 -83.0968
 -83.3158
 -84.7634
 -84.8314
 -84.8076
 -84.8099
 -84.3856
 -84.2882
 -78.4473
 -78.1749
 -78.3061
 -78.7321
 -85.27
 -85.274
 -85.2764
 -85.2756
 -83.341
 -83.2603
 -83.5848
 -83.4234
 -85.1528
 -85.1409
 -85.1331
 -85.1498
 -78.3523
 -77.7901
 -78.2742
 -77.9151
 -85.2304
 -85.2402
 -85.2393
 -85.2387
 -84.6648
 -84.6102
 -84.6697
 -84.69
 -81.5131
 -81.0212
 -80.5906
 -80.9667
 -85.3057
 -85.3053
 -85.3046
 -85.3034
 -82.7803
 -82.9937
 -82.7999
 -82.8014
 -83.3822
 -83.1776
 -83.3829
 -83.1024
 -85.2803
 -85.2815
 -85.2763
 -85.2841
 -84.2125
 -84.0186
 -84.1156
 -84.1196
 -85.2062
 -85.214
 -85.2059
 -85.2049
 -85.175
 -85.161
 -85.1653
 -83.7083
 -83.4584
 -83.5052
 -83.5849
 -85.1875
 -85.1973
 -85.1886
 -85.1947
 -80.9842
 -81.3065
 -81.2473
 -81.0023
 -85.2313
 -85.2377
 -85.2367
 -85.2342
 -85.2223
 -85.2175
 -85.2225
 -85.2198
 -81.2109
 -81.0855
 -81.6071
 -81.3253
 -81.7297
 -81.6864
 -81.9489
 -81.5483
 -46.6894
 -46.9065
 -46.2571
 -46.5121
 -85.041
 -85.0147
 -85.012
 -71.6327
 -73.0108
 -73.4244
 -72.3709
 -85.2675
 -85.2586
 -85.2618
 -85.2613
 -80.7249
 -85.1884
 -85.1689
 -85.1661
 -85.1769
 -85.1935
 -85.1709
 -85.1813
 -55.5701
 -54.5721
 -55.1348
 -55.5438
 -52.8162
 -53.5304
 -52.9327
 -52.5748
 -85.2511
 -85.24
 -85.2469
 -85.2544
 -81.6848
 -81.5604
 -81.7988
 -81.4829
 -85.0082
 -85.0007
 -85.0283
 -82.9342
 -82.7248
 -82.9201
 -82.6444
 -83.7216
 -83.7232
 -83.7252
 -85.1646
 -85.1661
 -85.1806
 -84.7733
 -84.826
 -84.8206
 -84.7717
 -83.0514
 -82.7594
 -82.8042
 -82.9998
 -81.5571
 -81.7005
 -81.5202
 -81.6614
 -85.0249
 -85.0499
 -85.0522
 -77.1978
 -77.756
 -76.3908
 -76.2753
 -81.2558
 -81.7945
 -81.2433
 -83.4826
 -83.8117
 -83.6788
 -83.6518
 -79.4721
 -79.9602
 -80.0898
 -79.8813
 -81.567
 -81.8874
 -81.9698
 -81.8554
 -85.1687
 -85.1537
 -85.1558
 -85.1538
 -84.0017
 -83.8666
 -83.9115
 -84.0415
 -81.9691
 -82.1235
 -84.3755
 -84.3366
 -84.3448
 -84.2491
 -85.2122
 -85.2823
 -85.2836
 -85.2834
 -85.2825
 -45.3576
 -45.2099
 -45.1876
 -45.3871
 -85.1391
 -85.162
 -85.1498
 -85.2977
 -85.2978
 -85.2949
 -85.297
 -85.1097
 -85.0835
 -85.1037
 -85.0899
 -81.3266
 -81.4227
 -81.6064
 -81.3576
 -83.8426
 -83.6999
 -83.7167
 -83.5374
 -85.3001
 -85.3007
 -85.3005
 -85.299
 -85.0327
 -85.0041
 -84.9919
 -85.0166
 -76.5846
 -75.7206
 -75.5928
 -76.9771
 -83.5903
 -83.5505
 -83.6028
 -83.2544
 -83.4238
 -83.5214
 -83.5906
 -83.4142
 -45.436
 -45.3437
 -45.317
 -45.4955
 -80.9556
 -80.8862
 -80.8211
 -81.0569
 -85.0739
 -85.1053
 -85.0892
 -85.0954
 -84.7726
 -84.7685
 -84.8292
 -84.744
 -83.9315
 -83.9775
 -84.1241
 -84.0668
 -85.0257
 -85.0624
 -85.057
 -85.0531
 -84.7023
 -84.745
 -84.7738
 -84.7255
 -85.041
 -85.0321
 -85.0181
 -85.0686
 -85.3063
 -85.3018
 -85.3026
 -85.3067
 -85.1198
 -85.1045
 -85.0974
 -85.0636
 -84.9959
 -84.9592
 -84.9594
 -85.0038
 -84.9664
 -84.4453
 -84.433
 -84.3731
 -84.5398
 -85.2787
 -85.2776
 -85.2757
 -85.2746
 -83.9866
 -83.859
 -83.9954
 -83.9459
 -84.7475
 -84.7802
 -84.8084
 -84.7
 -84.2536
 -84.1089
 -84.2226
 -84.3321
 -82.8148
 -82.3892
 -82.7545
 -82.5008
 -62.817
 -63.4546
 -65.5915
 -63.2164
 -85.3088
 -85.3045
 -84.9576
 -84.9273
 -84.9276
 -48.5702
 -48.6739
 -48.7695
 -81.8488
 -81.5806
 -81.7481
 -81.4315
 -70.5828
 -71.1669
 -69.1064
 -68.7965
 -79.2643
 -78.939
 -79.4319
 -78.3866
 -85.2651
 -85.2512
 -85.2597
 -85.2576
 -84.5756
 -84.4803
 -84.4996
 -84.4695
 -84.9659
 -85.0162
 -85.0006
 -85.0333
 -84.7557
 -84.7944
 -84.6986
 -84.7092
 -85.0805
 -85.0837
 -85.0656
 -85.0671
 -84.1361
 -84.1066
 -85.1874
 -85.1467
 -85.1899
 -85.1562
 -85.0473
 -85.0257
 -85.0099
 -85.0502
 -81.8211
 -81.4899
 -81.874
 -81.5798
 -82.248
 -82.357
 -82.345
 -82.3625
 -84.7422
 -84.7396
 -84.7188
 -84.7733
 -84.5169
 -84.5358
 -84.5987
 -84.6497
 -79.6566
 -78.9455
 -78.8461
 -79.6508
 -84.9832
 -84.9792
 -84.9696
 -84.9521
 -85.2982
 -85.2952
 -85.2963
 -85.2967
 -85.2139
 -85.206
 -85.2098
 -85.2062
 -85.3058
 -85.3076
 -85.3054
 -85.308
 -85.2363
 -85.244
 -85.2408
 -85.2424
 -84.4699
 -84.5787
 -84.4597
 -84.4801
 -85.0235
 -84.9926
 -84.2125
 -84.3492
 -84.1781
 -84.2849
 -82.0553
 -82.2592
 -82.2921
 -82.3706
 -85.1401
 -85.1531
 -85.1553
 -85.1352
 -84.1541
 -84.0891
 -84.1601
 -84.0124
 -83.4955
 -83.3495
 -83.3006
 -83.3894
 -81.2908
 -81.3478
 -81.5389
 -81.6906
 -82.316
 -82.118
 -82.077
 -82.5219
 -80.9999
 -81.1842
 -81.4118
 -81.1368
 -65.9206
 -66.4239
 -65.6084
 -65.5912
 -85.1032
 -85.1123
 -85.082
 -85.1051
 -84.9617
 -84.9816
 -67.1032
 -68.5137
 -68.2938
 -66.4747
 -82.8676
 -82.8953
 -84.8959
 -84.866
 -84.8974
 -85.2296
 -85.2272
 -80.8391
 -80.8139
 -80.6712
 -80.9939
 -67.654
 -68.7544
 -68.6669
 -68.8841
 -79.2464
 -79.443
 -79.796
 -79.9656
 -82.7286
 -82.7744
 -82.8767
 -82.978
 -84.8055
 -84.7236
 -84.7252
 -84.7369
 -84.8831
 -84.86
 -84.8606
 -84.8422
 -82.5988
 -82.9097
 -82.8946
 -82.8282
 -84.8097
 -84.7958
 -84.8239
 -84.7321
 -84.2613
 -84.1694
 -84.1541
 -84.2098
 -84.5715
 -84.6276
 -84.6772
 -84.6043
 -84.5848
 -84.504
 -84.6206
 -84.1954
 -84.1203
 -84.309
 -84.2316
 -83.0195
 -83.1207
 -82.9539
 -82.877
 -81.6987
 -81.9459
 -81.562
 -81.8973
 -85.2692
 -85.269
 -85.2722
 -85.2753
 -83.9525
 -83.9376
 -84.0694
 -84.0911
 -78.9392
 -78.8102
 -78.3717
 -78.798
 -77.054
 -76.7202
 -76.7974
 -76.3767
 -80.3794
 -80.2076
 -80.21
 -80.3124
 -80.9511
 -80.944
 -81.3837
 -81.4193
 -81.7936
 -81.5917
 -81.4956
 -81.636
 -85.2725
 -85.2764
 -85.2747
 -85.275
 -83.5342
 -83.5282
 -83.485
 -83.6606
 -85.1003
 -85.1038
 -85.0892
 -85.0819
 -81.5426
 -81.9447
 -81.3718
 -81.7943
 -85.2779
 -85.2821
 -85.2812
 -85.2874
 -85.2882
 -85.2883
 -85.2902
 -85.0153
 -84.9406
 -84.9756
 -84.9792
 -82.3902
 -82.4786
 -82.1938
 -82.3853
 -85.2976
 -85.2933
 -85.295
 -83.4017
 -83.2236
 -83.2753
 -82.9977
 -85.2375
 -85.24
 -85.2207
 -85.2231
 -85.2361
 -85.2236
 -83.0087
 -82.8335
 -82.9234
 -76.0922
 -76.3809
 -75.3577
 -75.8132
 -81.1872
 -80.7603
 -81.175
 -81.2921
 -84.3904
 -84.4955
 -84.3886
 -85.2721
 -85.2605
 -85.2623
 -85.0521
 -85.031
 -85.0093
 -85.0275
 -85.2756
 -85.2775
 -85.2663
 -85.2838
 -83.7733
 -83.9382
 -84.0144
 -83.8765
 -85.2056
 -85.2087
 -85.2165
 -85.1939
 -84.3581
 -84.3817
 -84.2953
 -84.2911
 -82.5196
 -82.3092
 -82.4454
 -85.2942
 -85.2884
 -85.2906
 -85.2982
 -84.9899
 -84.7918
 -84.8579
 -84.8539
 -84.8151
 -84.775
 -84.7682
 -84.7269
 -82.187
 -82.0727
 -82.0591
 -82.039
 -82.0299
 -82.344
 -84.0003
 -83.8198
 -83.7665
 -83.6878
 -83.4513
 -83.6612
 -83.4709
 -83.5822
 -85.0274
 -85.3013
 -85.2959
 -85.2939
 -85.2981
 -58.1101
 -56.6107
 -58.0171
 -58.0264
 -83.1217
 -82.9003
 -82.4422
 -82.3413
 -82.435
 -82.4949
 -82.0725
 -82.1097
 -81.7417
 -81.8955
 -85.0808
 -85.0501
 -85.0628
 -85.0741
 -85.1086
 -85.129
 -85.0993
 -85.11
 -82.1179
 -81.8874
 -84.9756
 -84.9553
 -85.0069
 -84.9728
 -85.0545
 -85.0779
 -85.0516
 -84.6166
 -84.5835
 -84.5378
 -84.4958
 -83.9276
 -83.7695
 -83.8724
 -83.7876
 -85.0948
 -85.1208
 -85.1172
 -85.1047
 -85.1719
 -85.1834
 -85.1889
 -85.1817
 -85.1069
 -85.1328
 -85.1066
 -85.1168
 -85.1286
 -85.115
 -85.092
 -83.9105
 -83.9637
 -83.9534
 -83.8446
 -74.183
 -74.3767
 -74.8916
 -74.8781
 -83.3505
 -83.2951
 -83.1951
 -83.258
 -85.1552
 -85.1395
 -85.1291
 -85.1495
 -84.9903
 -84.9891
 -84.9783
 -85.0234
 -83.3056
 -83.4391
 -83.4926
 -83.5422
 -85
 -84.9581
 -84.9759
 -84.9966
 -84.6265
 -84.6603
 -84.5031
 -84.6349
 -84.6909
 -84.7612
 -84.7395
 -84.7436
 -84.9836
 -84.994
 -85.0028
 -85.2819
 -85.2823
 -85.2803
 -85.2815
 -83.2607
 -83.4553
 -83.3483
 -83.421
 -84.3356
 -84.4573
 -84.431
 -84.3924
 -73.5083
 -72.5926
 -72.5708
 -73.6908
 -81.1368
 -81.4422
 -81.3912
 -81.1797
 -81.8271
 -81.1397
 -81.4095
 -81.0757
 -81.2486
 -81.4057
 -81.3686
 -81.488
 -84.5599
 -84.5003
 -84.5267
 -79.9248
 -79.8659
 -80.0394
 -80.0746
 -80.0902
 -80.3114
 -80.742
 -80.1343
 -85.2909
 -85.2884
 -85.2869
 -85.288
 -84.6369
 -84.5775
 -84.5854
 -84.5462
 -85.1945
 -85.1988
 -85.1953
 -85.1779
 -84.7853
 -84.8185
 -84.779
 -84.7271
 -84.9733
 -85.0059
 -84.9825
 -84.9915
 -81.9265
 -81.6287
 -81.8315
 -81.3677
 -84.2328
 -84.4364
 -84.305
 -84.2975
 -85.1653
 -85.1717
 -85.1511
 -85.1551
 -84.8485
 -84.8326
 -84.8885
 -84.8643
 -80.2316
 -80.1274
 -80.7976
 -80.8275
 -85.2773
 -85.2799
 -85.2788
 -85.2801
 -83.2411
 -83.0343
 -80.2702
 -84.2846
 -84.3391
 -84.377
 -84.241
 -83.9122
 -83.9968
 -83.8362
 -83.8455
 -70.3495
 -70.0956
 -71.6683
 -82.9151
 -82.7318
 -82.6545
 -82.5231
 -84.7856
 -84.8792
 -84.8505
 -84.8795
 -84.2906
 -84.4147
 -84.3357
 -84.3169
 -85.2465
 -85.2504
 -85.2507
 -85.2489
 -81.5379
 -81.9776
 -81.6693
 -81.7365
 -81.7122
 -81.6072
 -82.0647
 -70.7074
 -68.9687
 -69.7016
 -70.8929
 -81.319
 -81.6848
 -81.4833
 -84.6803
 -84.8107
 -84.6929
 -81.3195
 -81.3082
 -81.0316
 -81.1628
 -83.8595
 -84.0064
 -84.0598
 -84.0005
 -45.5328
 -45.5458
 -45.4901
 -45.8588
 -83.7967
 -83.7113
 -83.7702
 -79.064
 -79.0331
 -79.089
 -79.1404
 -83.8081
 -83.6996
 -83.5262
 -83.708
 -81.1798
 -81.4908
 -81.4783
 -81.5753
 -84.9321
 -84.945
 -84.9158
 -84.9574
 -85.0602
 -85.0481
 -85.0734
 -85.0741
 -85.2893
 -85.289
 -85.2906
 -85.2875
 -84.7012
 -84.5936
 -84.6838
 -84.7143
 -80.8508
 -80.5725
 -80.8125
 -80.6477
 -81.9516
 -81.8139
 -76.7831
 -76.6927
 -77.0983
 -77.0203
 -84.1613
 -84.2187
 -82.8824
 -83.1936
 -83.1442
 -81.9815
 -82.1314
 -82.2788
 -82.065
 -85.2562
 -85.2556
 -85.2451
 -85.2474
 -85.2481
 -85.2441
 -85.2387
 -85.246
 -82.0314
 -82.2173
 -82.0537
 -81.6675
 -80.0666
 -80.1457
 -84.807
 -84.807
 -84.7914
 -84.8502
 -81.8487
 -81.6216
 -81.9918
 -81.8958
 -83.1732
 -82.8943
 -83.4166
 -85.3037
 -85.3049
 -85.3026
 -84.3711
 -84.4908
 -84.415
 -84.445
 -85.2109
 -85.225
 -85.2079
 -85.2042
 -84.4883
 -84.5666
 -84.5748
 -84.5043
 -85.0824
 -85.1066
 -85.1131
 -85.0706
 -80.8013
 -81.0709
 -80.8572
 -80.7386
 -81.1544
 -81.5992
 -81.0062
 -81.4958
 -84.5654
 -84.4762
 -84.6045
 -84.5115
 -82.9658
 -83.2388
 -83.3198
 -82.9293
 -80.1189
 -80.2863
 -80.4704
 -80.9063
 -83.854
 -83.9817
 -84.0336
 -84.0985
 -84.8378
 -84.8568
 -84.8243
 -84.5291
 -84.6027
 -84.5576
 -84.6102
 -50.3288
 -51.7214
 -52.0112
 -51.2358
 -80.1831
 -80.176
 -80.2231
 -80.2009
 -82.9171
 -82.8155
 -82.918
 -83.1357
 -66.6745
 -67.6643
 -65.6755
 -67.1214
 -85.1917
 -85.1838
 -85.1793
 -85.2918
 -85.2902
 -85.2879
 -85.29
 -85.1185
 -85.1563
 -85.1396
 -85.1401
 -84.5038
 -84.9038
 -84.9332
 -84.965
 -84.9366
 -84.2796
 -84.3581
 -84.2073
 -84.2336
 -78.1824
 -77.2259
 -77.8317
 -81.5185
 -81.6681
 -81.7309
 -81.2043
 -51.4845
 -50.2311
 -51.3607
 -49.5777
 -69.9653
 -69.8566
 -70.6686
 -69.4434
 -82.6142
 -82.6177
 -82.7867
 -82.9509
 -85.2973
 -85.2912
 -85.2931
 -85.2908
 -54.5223
 -54.1536
 -55.6548
 -54.8627
 -85.0453
 -85.0616
 -85.0213
 -85.0437
 -84.5996
 -84.604
 -84.6824
 -84.6128
 -81.9929
 -81.3797
 -81.2985
 -83.9374
 -83.7892
 -83.6986
 -83.6907
 -85.2963
 -85.2958
 -85.2977
 -78.7858
 -79.716
 -79.8847
 -84.005
 -84.1144
 -84.2561
 -84.231
 -82.8068
 -82.7542
 -82.7148
 -82.6087
 -83.1277
 -83.0806
 -83.3224
 -83.393
 -78.3888
 -78.0107
 -77.9356
 -78.6984
 -84.0144
 -84.1094
 -83.9645
 -84.1583
 -85.2554
 -85.2384
 -85.2408
 -85.2334
 -85.2453
 -85.2397
 -85.2332
 -85.248
 -77.6337
 -77.5054
 -77.9089
 -77.3884
 -85.189
 -85.1874
 -85.184
 -85.1745
 -85.2489
 -85.2566
 -85.2525
 -85.2438
 -85.1577
 -85.1628
 -85.14
 -85.1454
 -84.949
 -84.926
 -84.9634
 -84.9435
 -84.3739
 -84.2943
 -84.4385
 -82.6411
 -82.2119
 -82.4221
 -82.4015
 -85.0908
 -85.0725
 -85.0427
 -85.0662
 -85.1501
 -85.149
 -85.1634
 -85.1574
 -85.3093
 -85.3088
 -85.3061
 -85.3072
 -70.802
 -71.6224
 -71.311
 -71.4736
 -77.0101
 -76.7721
 -76.8473
 -77.1611
 -78.5212
 -78.5521
 -79.4135
 -78.5169
 -82.6907
 -82.3703
 -82.6155
 -82.6333
 -83.4491
 -83.4853
 -83.4764
 -85.2566
 -85.2637
 -85.2712
 -85.2673
 -85.1681
 -85.1656
 -85.1589
 -85.1467
 -84.2721
 -84.1763
 -84.1448
 -84.2348
 -85.2511
 -85.2583
 -84.8043
 -84.8177
 -84.8164
 -84.7523
 -85.2559
 -85.2602
 -85.2651
 -85.2574
 -84.6667
 -84.7541
 -84.6406
 -84.7689
 -82.4994
 -82.7954
 -82.3394
 -82.636
 -75.4116
 -74.4579
 -75.2685
 -75.9809
 -50.0974
 -51.0582
 -49.4426
 -50.6729
 -85.2233
 -85.2163
 -85.214
 -85.2251
 -85.218
 -85.2172
 -85.2209
 -85.2276
 -83.7258
 -83.4723
 -83.6779
 -83.5833
 -84.5241
 -84.4745
 -84.4605
 -84.5403
 -81.5085
 -81.207
 -81.7014
 -84.7444
 -84.7102
 -84.7089
 -84.657
 -81.7678
 -81.6898
 -81.8645
 -81.9433
 -84.3969
 -84.2709
 -84.1804
 -84.2521
 -84.9716
 -84.9468
 -84.9673
 -84.9722
 -84.5517
 -84.5146
 -84.509
 -85.1657
 -85.1442
 -85.1566
 -85.1575
 -84.8349
 -84.8968
 -64.2259
 -65.9144
 -63.5122
 -64.5849
 -85.1218
 -85.1115
 -85.1236
 -81.9685
 -82.0399
 -82.1168
 -81.8857
 -84.9326
 -84.9409
 -84.9187
 -84.152
 -84.0441
 -84.2065
 -84.0721
 -84.8392
 -84.7566
 -84.8586
 -84.8187
 -84.8184
 -84.8831
 -57.5214
 -57.5558
 -56.7971
 -57.2221
 -51.0261
 -49.9922
 -49.2279
 -50.3847
 -84.3675
 -84.2236
 -84.2713
 -84.2087
 -84.8466
 -84.81
 -84.833
 -84.777
 -57.6394
 -57.6195
 -57.5525
 -58.7626
 -81.952
 -81.6087
 -77.5892
 -77.8568
 -77.8907
 -78.3655
 -84.8729
 -84.8721
 -84.9346
 -84.8991
 -84.7836
 -84.7825
 -84.8395
 -84.7519
 -84.8034
 -84.7519
 -84.7466
 -84.7405
 -82.934
 -83.0043
 -83.1258
 -82.9276
 -80.4107
 -79.9611
 -79.6354
 -80.4336
 -70.6854
 -72.0666
 -71.8248
 -70.525
 -81.0246
 -81.0763
 -81.0773
 -81.6144
 -85.1102
 -85.1005
 -85.1259
 -85.1206
 -84.3764
 -84.1056
 -84.2656
 -69.0929
 -69.9267
 -70.9606
 -84.99
 -85.0325
 -85.0191
 -85.0204
 -85.0117
 -84.9678
 -84.9832
 -85.009
 -83.6443
 -83.5262
 -83.4564
 -84.0555
 -84.1266
 -84.2325
 -84.0927
 -80.9529
 -80.761
 -80.7087
 -80.729
 -85.2076
 -85.2032
 -85.2134
 -85.2122
 -80.5235
 -80.4651
 -80.4749
 -80.5672
 -79.2156
 -78.9595
 -79.248
 -85.2748
 -85.2853
 -85.2888
 -85.2827
 -85.1408
 -85.1554
 -82.5177
 -82.3486
 -82.6286
 -82.6158
 -84.3003
 -84.4229
 -84.338
 -83.9936
 -83.9379
 -83.9683
 -83.7854
 -79.8716
 -80.3845
 -80.0701
 -85.1854
 -85.1957
 -85.1745
 -85.1771
 -79.7664
 -80.5073
 -79.9679
 -79.7847
 -85.0693
 -85.0471
 -85.0212
 -85.0235
 -80.6143
 -80.7395
 -80.5766
 -80.0994
 -80.42
 -80.2804
 -82.2206
 -82.0186
 -82.1278
 -82.1919
 -70.9008
 -70.1432
 -68.8611
 -70.2901
 -85.1217
 -85.1419
 -83.2344
 -83.3606
 -83.4071
 -83.3828
 -85.286
 -85.2843
 -85.2857
 -85.288
 -82.7586
 -82.4774
 -82.755
 -83.0404
 -85.1504
 -85.1692
 -85.172
 -85.1674
 -85.2411
 -85.2515
 -85.237
 -85.2458
 -85.0498
 -85.0087
 -85.2785
 -85.2833
 -85.2814
 -85.2789
 -80.0268
 -80.0815
 -79.7515
 -80.3681
 -85.2828
 -85.2833
 -85.2834
 -85.2824
 -85.2922
 -85.2978
 -85.294
 -85.2914
 -84.6326
 -84.6281
 -84.7034
 -84.6791
 -83.97
 -83.8723
 -84.0552
 -84.137
 -85.2159
 -85.2035
 -85.2144
 -85.2153
 -66.1171
 -67.5466
 -66.2332
 -65.9844
 -85.2065
 -85.2191
 -83.1048
 -83.2759
 -83.3242
 -83.5403
 -85.2249
 -85.215
 -85.2077
 -85.2082
 -81.0351
 -81.3642
 -81.3136
 -81.2673
 -83.219
 -82.8419
 -82.9979
 -83.1748
 -80.5248
 -80.4676
 -81.0545
 -80.878
 -80.707
 -80.9036
 -80.623
 -79.9585
 -80.251
 -80.1147
 -80.2685
 -84.7869
 -84.7335
 -84.7077
 -85.2017
 -85.201
 -85.2161
 -85.2149
 -84.6528
 -84.6078
 -84.5414
 -81.0174
 -80.7811
 -80.9937
 -84.2119
 -84.3447
 -84.2168
 -84.3308
 -84.9037
 -84.9038
 -84.8933
 -84.9491
 -83.7478
 -83.9026
 -83.9287
 -83.8856
 -83.8289
 -83.7728
 -83.6899
 -83.3464
 -83.1882
 -83.1041
 -83.3212
 -83.5233
 -83.5995
 -83.2648
 -85.2074
 -85.2092
 -85.2106
 -85.1968
 -84.9242
 -84.8979
 -84.9324
 -84.9395
 -84.1989
 -84.1658
 -84.0866
 -84.2949
 -78.805
 -78.2824
 -78.9148
 -84.6707
 -84.6171
 -84.6547
 -84.6845
 -82.0732
 -81.6281
 -81.9241
 -81.6488
 -60.5517
 -61.3809
 -60.4704
 -60.041
 -83.5543
 -83.4401
 -83.5332
 -83.5127
 -85.2194
 -85.2154
 -85.2311
 -85.2264
 -83.259
 -83.4409
 -83.3105
 -83.1917
 -80.4531
 -80.4631
 -80.5394
 -80.663
 -80.5258
 -80.2466
 -80.2986
 -83.8473
 -83.8745
 -83.7647
 -84.926
 -83.2369
 -82.7817
 -83.0629
 -83.0371
 -85.2491
 -85.2484
 -85.2527
 -85.2366
 -85.2384
 -85.2425
 -83.0341
 -83.2327
 -83.0733
 -83.1954
 -85.2807
 -85.2848
 -85.2874
 -85.2863
 -81.266
 -84.8011
 -84.7347
 -84.783
 -84.7612
 -80.8431
 -81.0008
 -80.9482
 -80.9995
 -85.2382
 -85.2472
 -85.2366
 -85.2405
 -84.9027
 -84.9542
 -84.9487
 -84.9103
 -85.132
 -85.1466
 -85.1132
 -85.1261
 -79.9874
 -80.1312
 -80.2077
 -79.9987
 -82.6114
 -82.82
 -82.5928
 -82.6556
 -84.7287
 -84.6715
 -84.7147
 -84.6345
 -82.4836
 -82.1362
 -82.5515
 -82.2655
 -84.8796
 -84.9059
 -84.9464
 -84.9378
 -81.2984
 -81.2235
 -81.5628
 -81.5
 -82.2355
 -82.2424
 -82.5288
 -82.4664
 -84.7458
 -84.7554
 -84.764
 -84.8093
 -85.2238
 -85.2317
 -85.2273
 -85.2368
 -77.2864
 -77.8582
 -78.0792
 -78.2447
 -70.6246
 -68.7688
 -70.669
 -70.3098
 -85.2543
 -85.2644
 -85.2588
 -85.2554
 -73.3268
 -72.269
 -71.9431
 -71.1527
 -70.6074
 -71.8516
 -84.3513
 -84.3655
 -84.2755
 -84.2463
 -82.452
 -82.6277
 -82.6154
 -82.4021
 -85.3088
 -85.308
 -85.3088
 -85.3069
 -85.2416
 -85.2399
 -85.2496
 -84.8704
 -84.8642
 -84.915
 -84.8669
 -80.9206
 -80.9946
 -80.6666
 -81.105
 -82.2801
 -82.2182
 -82.1515
 -82.1049
 -82.3105
 -82.4364
 -84.9024
 -84.9792
 -84.954
 -84.9233
 -84.8218
 -84.8113
 -84.7558
 -84.8319
 -84.95
 -84.9305
 -84.9085
 -84.9449
 -85.2903
 -85.2895
 -85.2827
 -85.2932
 -85.0545
 -85.0422
 -85.0207
 -83.4552
 -84.472
 -84.415
 -84.4283
 -84.3624
 -84.5544
 -84.432
 -84.4788
 -84.5737
 -85.2011
 -85.2006
 -85.1955
 -85.189
 -85.0644
 -85.04
 -85.0506
 -85.0671
 -84.8551
 -84.807
 -84.7924
 -82.8766
 -82.5161
 -82.8262
 -82.4889
 -84.4271
 -84.5529
 -84.5023
 -84.4674
 -83.4458
 -83.5987
 -83.3477
 -54.028
 -53.8787
 -53.0444
 -54.4649
 -85.1991
 -85.224
 -85.213
 -85.1769
 -85.1504
 -85.1805
 -85.1641
 -56.2237
 -84.6126
 -84.6097
 -84.5976
 -84.6795
 -84.8474
 -84.8522
 -76.2895
 -76.3012
 -76.1612
 -76.5224
 -78.6297
 -78.8375
 -79.612
 -78.6712
 -81.4457
 -81.656
 -81.3613
 -81.9025
 -81.5951
 -81.7815
 -81.8582
 -81.5389
 -81.5146
 -81.7282
 -83.2579
 -82.9872
 -82.8929
 -82.9952
 -83.5661
 -83.7937
 -85.3058
 -85.3043
 -80.0372
 -80.7342
 -79.8933
 -80.3792
 -83.9535
 -83.8982
 -84.0627
 -83.8583
 -76.5581
 -76.9919
 -75.6732
 -75.8145
 -85.2211
 -85.228
 -85.2134
 -85.22
 -85.1249
 -85.1061
 -85.121
 -85.1042
 -84.8659
 -84.9133
 -84.9143
 -84.8825
 -84.7371
 -84.7622
 -84.8481
 -84.8245
 -84.3577
 -84.3198
 -80.1031
 -85.0367
 -85.0614
 -85.0673
 -85.0658
 -85.2742
 -85.2699
 -85.2791
 -85.2693
 -85.164
 -85.1782
 -85.1552
 -85.1649
 -45.5817
 -45.514
 -45.664
 -45.8936
 -85.286
 -85.2881
 -85.2873
 -85.2874
 -81.833
 -81.801
 -81.5031
 -81.9629
 -83.0735
 -82.7536
 -82.8881
 -82.6569
 -85.0313
 -85.0357
 -85.0488
 -85.0608
 -85.0548
 -85.0393
 -85.0259
 -85.036
 -80.8033
 -81.2482
 -80.9903
 -81.162
 -85.287
 -85.288
 -85.2862
 -85.2873
 -85.23
 -85.2331
 -85.2319
 -85.2371
 -85.0032
 -85.0047
 -85.0297
 -85.0351
 -85.2117
 -85.1988
 -85.2111
 -85.2088
 -82.144
 -82.5
 -82.5158
 -82.5633
 -80.9339
 -80.9701
 -81.125
 -81.1392
 -85.2059
 -85.2012
 -85.1929
 -85.1963
 -83.9132
 -83.7887
 -83.8119
 -83.6382
 -83.8989
 -83.8244
 -83.7818
 -83.876
 -51.8917
 -52.926
 -52.9111
 -53.0446
 -85.2798
 -85.282
 -85.2359
 -85.2346
 -85.2305
 -85.2417
 -77.7019
 -77.2406
 -77.0187
 -77.7888
 -82.6612
 -82.2327
 -82.2048
 -82.0831
 -85.2312
 -85.2241
 -85.2397
 -85.2384
 -83.8286
 -83.876
 -83.7755
 -83.9679
 -83.1144
 -83.1824
 -82.932
 -82.9543
 -85.2861
 -85.2886
 -85.2855
 -85.2871
 -84.6276
 -84.5932
 -84.6216
 -84.6554
 -84.3846
 -84.4152
 -84.3969
 -84.3092
 -85.1538
 -85.1599
 -85.165
 -85.1465
 -84.9154
 -84.8843
 -84.8793
 -84.8478
 -83.7167
 -83.7068
 -83.4932
 -82.6856
 -82.9299
 -82.7896
 -83.186
 -73.3164
 -72.3795
 -72.6834
 -74.1659
 -82.9311
 -83.0522
 -83.0994
 -83.134
 -84.5611
 -84.5028
 -84.5341
 -84.4794
 -85.2684
 -85.2718
 -85.272
 -85.2635
 -83.1858
 -83.5277
 -83.361
 -83.29
 -77.5307
 -77.4286
 -76.7668
 -76.1407
 -84.9776
 -85.0258
 -85.0072
 -84.9877
 -84.796
 -84.7655
 -84.7397
 -84.4976
 -84.5944
 -84.6419
 -84.6601
 -71.1364
 -70.7986
 -70.953
 -71.928
 -84.6409
 -84.5794
 -84.5902
 -84.5674
 -85.2851
 -85.2846
 -85.2854
 -85.2854
 -84.5606
 -84.5069
 -84.5834
 -84.5531
 -79.5942
 -79.3161
 -79.5518
 -79.6309
 -81.4051
 -81.6693
 -81.4233
 -81.1049
 -85.3046
 -85.3026
 -85.3043
 -85.3035
 -82.1349
 -82.2435
 -82.1825
 -81.6255
 -84.8183
 -84.7446
 -84.7555
 -84.7966
 -85.3064
 -85.3079
 -85.3059
 -85.3039
 -85.2455
 -85.2591
 -85.2503
 -84.996
 -85.0067
 -85.0358
 -85.0477
 -85.1956
 -85.2055
 -85.2151
 -85.1916
 -61.5876
 -62.7323
 -63.5496
 -63.146
 -80.686
 -81.1285
 -80.2796
 -85.2546
 -85.2601
 -85.2582
 -85.2624
 -84.8142
 -84.7859
 -84.8472
 -84.7609
 -85.0985
 -85.097
 -85.1234
 -85.0752
 -77.84
 -77.7128
 -77.093
 -76.9553
 -83.7772
 -84.0079
 -83.7662
 -83.9193
 -84.8763
 -84.786
 -84.8353
 -77.3652
 -77.5247
 -77.7544
 -77.7466
 -81.2041
 -79.816
 -80.0701
 -79.9162
 -83.3557
 -85.258
 -85.2649
 -85.2575
 -85.2634
 -63.2107
 -62.9886
 -61.7744
 -61.9838
 -85.1371
 -85.1712
 -85.1559
 -85.1759
 -84.8521
 -84.8137
 -84.8006
 -84.7444
 -54.9762
 -85.176
 -85.1665
 -85.1855
 -85.2595
 -85.2689
 -85.261
 -85.2626
 -84.197
 -84.1574
 -84.3743
 -84.2419
 -85.005
 -85.0051
 -85.0335
 -84.985
 -81.7706
 -81.4776
 -84.3839
 -84.3328
 -84.3062
 -84.4118
 -81.6892
 -81.434
 -81.1884
 -81.4472
 -82.6721
 -82.588
 -82.9361
 -82.9643
 -85.0591
 -85.0335
 -85.0569
 -85.0578
 -67.0475
 -66.7743
 -66.616
 -68.3131
 -81.0091
 -80.8525
 -80.9901
 -80.7843
 -70.3041
 -71.0226
 -79.5268
 -79.6048
 -79.6183
 -79.5312
 -78.3294
 -77.8201
 -78.4746
 -77.9637
 -85.2849
 -85.2815
 -85.2764
 -85.276
 -84.7412
 -84.7197
 -84.6921
 -84.7797
 -83.5697
 -83.8545
 -83.6779
 -83.7067
 -84.3745
 -84.3243
 -84.293
 -84.392
 -85.2651
 -85.2631
 -77.2385
 -76.9818
 -77.0461
 -77.2335
 -85.2659
 -85.2659
 -85.2602
 -64.7967
 -64.7165
 -64.6971
 -64.1293
 -85.243
 -85.2256
 -85.2383
 -85.2342
 -82.7129
 -82.5254
 -82.7969
 -82.4733
 -84.0846
 -84.0461
 -84.0108
 -85.2479
 -85.2414
 -85.2459
 -85.2496
 -84.7401
 -84.6636
 -84.7324
 -84.6968
 -84.0447
 -84.1376
 -84.1941
 -84.1038
 -82.7471
 -82.6461
 -83.5023
 -83.0947
 -83.3341
 -83.2574
 -84.8554
 -84.787
 -84.8289
 -85.2763
 -85.2704
 -85.2685
 -85.2781
 -84.0332
 -84.1149
 -84.012
 -84.0791
 -83.6788
 -83.5475
 -82.4662
 -82.2243
 -82.1155
 -82.4752
 -69.0292
 -69.293
 -70.7
 -84.7924
 -84.806
 -84.7169
 -84.7191
 -85.2816
 -85.2833
 -85.2822
 -69.8784
 -69.7499
 -69.9397
 -83.7755
 -83.6917
 -83.7576
 -83.5993
 -84.9556
 -84.9672
 -84.9221
 -84.9379
 -61.2375
 -60.4786
 -60.8694
 -61.4032
 -85.2216
 -85.226
 -85.2211
 -85.2184
 -84.9774
 -84.9664
 -84.9672
 -84.9348
 -85.142
 -85.1454
 -85.1345
 -85.2491
 -85.2528
 -85.2592
 -85.2517
 -84.4535
 -84.3112
 -84.4315
 -84.4684
 -85.2727
 -85.2689
 -85.2695
 -85.266
 -82.992
 -82.9662
 -83.1131
 -82.8248
 -85.2753
 -84.9382
 -84.3281
 -84.3033
 -84.3979
 -84.27
 -84.8309
 -84.8031
 -84.7824
 -84.7624
 -85.087
 -85.0878
 -85.0694
 -85.0582
 -84.8865
 -84.8764
 -84.9207
 -84.8956
 -85.0846
 -85.0674
 -85.0817
 -85.0831
 -84.3318
 -84.2579
 -84.2653
 -84.375
 -84.0791
 -84.0841
 -84.1197
 -84.1844
 -83.6497
 -83.5731
 -83.5247
 -83.7193
 -84.0817
 -84.0669
 -83.9558
 -80.5516
 -80.6042
 -80.5636
 -80.8119
 -84.4829
 -84.9629
 -84.9955
 -85.0032
 -85.0042
 -85.2708
 -85.2713
 -85.2611
 -82.3535
 -81.8622
 -81.9824
 -81.8614
 -84.5807
 -84.6747
 -84.6357
 -84.8535
 -84.8125
 -84.8128
 -84.7715
 -84.9716
 -84.9982
 -85.0217
 -85.0373
 -85.2354
 -85.2402
 -85.249
 -85.2393
 -81.6006
 -81.5541
 -81.7448
 -81.2833
 -84.5164
 -84.471
 -84.4914
 -84.4013
 -84.205
 -84.181
 -84.0621
 -84.2495
 -84.1045
 -84.0551
 -84.0028
 -83.9103
 -84.3932
 -84.3711
 -84.4351
 -84.3052
 -85.0499
 -85.0076
 -85.0643
 -85.0251
 -84.0494
 -83.8388
 -83.9205
 -83.9815
 -77.0688
 -77.0889
 -77.0519
 -77.2356
 -72.7131
 -73.2549
 -72.847
 -84.3696
 -84.3961
 -84.4654
 -84.5071
 -84.433
 -84.4015
 -84.4803
 -84.5381
 -84.0605
 -83.9468
 -84.1552
 -84.1211
 -85.2537
 -85.2564
 -85.2439
 -85.2443
 -85.0966
 -85.0773
 -85.0651
 -85.0842
 -82.3128
 -82.5083
 -82.4357
 -82.5134
 -78.8205
 -79.6788
 -79.438
 -78.4012
 -85.2367
 -85.2311
 -85.2247
 -85.2363
 -64.4886
 -62.8923
 -63.2407
 -64.9908
 -83.0674
 -83.269
 -83.1569
 -83.1348
 -78.4089
 -78.6542
 -78.5971
 -81.2009
 -81.3673
 -81.4561
 -81.7951
 -85.0402
 -85.0391
 -85.0636
 -85.006
 -80.646
 -80.2808
 -80.2733
 -80.6449
 -72.9011
 -75.2161
 -73.7213
 -61.1622
 -62.4859
 -63.1333
 -62.2158
 -85.2942
 -85.2963
 -85.2953
 -85.3001
 -82.1111
 -81.8919
 -82.0446
 -82.1972
 -84.7211
 -84.6292
 -84.6586
 -84.6879
 -85.2466
 -85.246
 -85.2369
 -85.2451
 -85.1786
 -85.1895
 -85.173
 -85.1748
 -82.2646
 -82.3908
 -82.1493
 -82.2658
 -76.2438
 -75.1941
 -74.1503
 -75.4273
 -84.7028
 -84.7402
 -84.6582
 -84.6959
 -77.4242
 -78.1254
 -83.7037
 -83.3775
 -83.474
 -83.6229
 -83.7479
 -83.7356
 -83.6337
 -83.8001
 -83.4406
 -83.4558
 -83.3551
 -79.7294
 -79.9123
 -79.7447
 -84.7168
 -84.7221
 -84.7541
 -84.7633
 -84.696
 -84.6817
 -84.651
 -84.7501
 -82.275
 -82.5512
 -82.3912
 -82.3229
 -85.1042
 -85.1173
 -85.0932
 -85.0959
 -84.3033
 -84.1434
 -84.2247
 -84.3288
 -80.3949
 -80.3884
 -80.3407
 -80.3783
 -83.503
 -83.7182
 -83.5428
 -84.7926
 -84.78
 -84.7343
 -84.7601
 -84.4759
 -84.5501
 -84.575
 -85.2889
 -85.2897
 -85.2867
 -85.2856
 -71.2449
 -70.4353
 -71.4656
 -69.4927
 -83.1469
 -83.3219
 -83.3398
 -83.1723
 -82.7159
 -82.6675
 -82.4601
 -82.7529
 -85.2897
 -85.2894
 -85.2967
 -85.3001
 -85.1713
 -85.1801
 -85.1763
 -81.1181
 -81.2193
 -80.8625
 -81.2555
 -85.1086
 -85.0897
 -85.0963
 -82.1278
 -82.194
 -81.9662
 -82.0306
 -49.4987
 -50.0837
 -49.8602
 -50.3867
 -85.2563
 -85.2582
 -85.2654
 -85.2532
 -79.8295
 -79.674
 -79.458
 -79.1254
 -85.2896
 -85.2895
 -85.2883
 -85.2886
 -80.8892
 -81.2653
 -80.9354
 -81.1939
 -50.7681
 -49.3645
 -50.2902
 -50.5239
 -74.5555
 -73.8864
 -74.6497
 -74.7538
 -80.1279
 -80.3834
 -80.6831
 -80.0492
 -84.1582
 -84.026
 -78.4941
 -78.7803
 -77.5355
 -77.6564
 -84.8635
 -84.8272
 -84.8153
 -84.7747
 -84.1035
 -84.0966
 -84.0889
 -84.2554
 -85.2474
 -85.2371
 -85.2514
 -85.2535
 -85.2129
 -85.2114
 -85.2253
 -85.2187
 -85.1864
 -85.1643
 -85.1821
 -85.1732
 -85.2439
 -85.2449
 -85.2488
 -85.2403
 -84.9408
 -84.9468
 -84.971
 -84.9508
 -85.196
 -85.2083
 -85.206
 -85.204
 -72.4849
 -70.7715
 -70.6675
 -72.4875
 -85.2072
 -85.2152
 -85.2164
 -85.2143
 -83.6189
 -83.4549
 -83.2961
 -83.3756
 -85.1423
 -85.1104
 -85.1126
 -85.2238
 -85.2309
 -85.2349
 -85.232
 -79.8052
 -79.2195
 -79.204
 -79.4742
 -75.5004
 -75.3214
 -74.9587
 -75.0918
 -85.0168
 -85.0157
 -85.0023
 -85.0504
 -83.5131
 -83.5294
 -83.5303
 -83.3331
 -84.9918
 -84.9803
 -84.9894
 -84.9708
 -84.9666
 -84.9627
 -85.0295
 -83.2498
 -83.1931
 -83.0271
 -84.9417
 -84.9734
 -84.599
 -84.4961
 -85.2718
 -85.2764
 -85.2771
 -85.2719
 -84.4268
 -84.4381
 -84.3731
 -84.4815
 -84.9101
 -84.9181
 -84.9646
 -84.9107
 -84.8171
 -84.8404
 -84.8088
 -84.8546
 -85.2003
 -85.1275
 -85.1283
 -85.1136
 -85.1087
 -83.925
 -83.9957
 -83.8352
 -83.842
 -79.0012
 -79.0026
 -78.9857
 -78.9707
 -84.8968
 -84.8667
 -84.9127
 -84.8925
 -85.0109
 -85.0096
 -84.9861
 -85.0344
 -53.6853
 -54.6521
 -55.0443
 -55.6581
 -84.3209
 -84.4185
 -84.3716
 -84.2828
 -84.1213
 -84.0163
 -83.9566
 -84.0493
 -84.9266
 -84.8983
 -80.701
 -80.7579
 -80.8826
 -80.7183
 -82.9593
 -83.0819
 -83.059
 -82.9399
 -81.217
 -81.0637
 -80.9966
 -81.0253
 -82.4345
 -82.603
 -82.5826
 -82.3849
 -80.8133
 -80.7725
 -80.5954
 -80.8313
 -85.1862
 -85.1742
 -85.1736
 -85.1852
 -85.2037
 -85.1954
 -85.1842
 -85.1932
 -82.1894
 -82.0283
 -81.8526
 -82.1381
 -84.3833
 -84.3179
 -84.3881
 -84.3066
 -85.1888
 -85.1763
 -85.1907
 -85.184
 -83.9682
 -83.8348
 -83.831
 -84.0504
 -82.0124
 -82.2775
 -77.2184
 -77.5322
 -77.6555
 -77.0876
 -84.2682
 -84.2288
 -84.0952
 -84.0547
 -85.1773
 -85.1687
 -85.1688
 -85.1919
 -85.2797
 -85.2745
 -85.2762
 -85.2801
 -56.5209
 -56.2691
 -83.4465
 -83.6657
 -83.636
 -83.795
 -83.1109
 -82.7892
 -82.997
 -83.0179
 -83.0023
 -82.9937
 -81.256
 -81.3493
 -81.3954
 -81.4134
 -84.1243
 -84.2174
 -84.2961
 -72.194
 -72.9905
 -73.0238
 -73.6499
 -85.222
 -85.2308
 -85.2105
 -85.2234
 -85.2826
 -85.2821
 -85.2801
 -85.2923
 -85.2905
 -85.2837
 -85.2885
 -84.758
 -84.8286
 -84.8275
 -84.8174
 -84.3247
 -84.4663
 -84.2949
 -84.4152
 -85.1078
 -85.1379
 -85.1436
 -85.1328
 -84.8599
 -84.8313
 -84.8827
 -84.8425
 -84.8064
 -84.8432
 -84.8079
 -84.5646
 -84.5754
 -84.5276
 -84.6405
 -85.0664
 -85.119
 -85.1005
 -85.0713
 -83.9028
 -83.7578
 -83.8502
 -83.8826
 -84.4178
 -84.3797
 -84.5191
 -84.3841
 -84.9958
 -84.9857
 -84.9633
 -84.9912
 -84.3707
 -84.3203
 -84.2917
 -84.3978
 -51.1949
 -50.8144
 -52.3079
 -52.1798
 -81.7248
 -81.5984
 -81.5419
 -81.3717
 -85.0653
 -85.0568
 -85.0945
 -85.0986
 -80.6538
 -80.6374
 -79.9271
 -79.7823
 -79.3068
 -78.5353
 -79.3419
 -79.8145
 -85.1822
 -85.1754
 -85.1815
 -85.1648
 -85.1341
 -85.1104
 -85.1351
 -85.1255
 -85.2221
 -85.2108
 -85.2169
 -85.2261
 -85.0471
 -85.0512
 -85.0776
 -85.0597
 -83.5298
 -83.4199
 -83.3322
 -83.4054
 -81.9521
 -81.8295
 -82.0832
 -81.7504
 -84.9965
 -84.938
 -85.0057
 -84.9552
 -82.0401
 -82.1502
 -82.1695
 -82.1636
 -78.1197
 -78.2674
 -78.4539
 -78.6315
 -84.2914
 -84.3855
 -84.3009
 -84.3758
 -83.1158
 -82.9579
 -82.7996
 -83.297
 -83.4205
 -83.6767
 -83.5093
 -77.6288
 -77.1727
 -76.5776
 -77.1925
 -82.1261
 -82.0732
 -81.9909
 -81.9942
 -85.0577
 -85.0751
 -85.0596
 -85.0633
 -84.5155
 -84.5901
 -84.6132
 -85.3008
 -85.2968
 -85.298
 -85.2994
 -85.2448
 -85.2506
 -85.2572
 -85.247
 -83.0036
 -83.2044
 -82.8879
 -83.1798
 -84.5321
 -84.5987
 -77.9409
 -77.8541
 -76.9959
 -78.2545
 -84.4932
 -84.3732
 -84.3581
 -84.4594
 -85.2014
 -85.206
 -85.1946
 -85.207
 -81.7724
 -81.8548
 -81.9104
 -83.7363
 -83.8145
 -83.8191
 -83.5782
 -83.0396
 -83.2871
 -83.3216
 -83.2997
 -84.2691
 -84.3684
 -84.396
 -84.2776
 -83.8491
 -83.9419
 -84.0436
 -83.9305
 -84.3419
 -84.3603
 -84.2753
 -84.4257
 -83.7565
 -83.8674
 -85.1348
 -85.1131
 -85.1401
 -85.1272
 -83.8135
 -83.6858
 -83.7301
 -83.8307
 -84.8012
 -84.7294
 -84.7799
 -83.8018
 -83.9417
 -83.8239
 -83.9166
 -84.8726
 -84.8422
 -84.8094
 -84.8475
 -80.9317
 -80.5282
 -80.8253
 -80.2734
 -83.9964
 -83.9619
 -84.145
 -84.6831
 -84.7074
 -84.7634
 -84.642
 -84.2398
 -84.2023
 -84.2874
 -81.1463
 -81.2273
 -80.9638
 -84.8802
 -84.8683
 -84.8635
 -84.8023
 -84.1628
 -84.2353
 -84.2747
 -58.7529
 -59.2485
 -59.6133
 -57.5672
 -84.8571
 -84.8198
 -84.7866
 -84.8639
 -83.2645
 -83.0704
 -83.1114
 -82.9987
 -85.1901
 -85.1899
 -85.1968
 -85.1992
 -85.2219
 -85.2114
 -85.2276
 -85.2249
 -78.9554
 -79.773
 -78.657
 -78.907
 -84.684
 -84.6404
 -84.5776
 -82.2333
 -81.945
 -82.194
 -82.1508
 -85.19
 -85.173
 -85.1848
 -84.4469
 -84.5394
 -84.4786
 -84.5449
 -85.0425
 -85.0562
 -85.0523
 -85.0396
 -85.253
 -85.2519
 -85.26
 -85.2521
 -46.5517
 -46.0374
 -46.1158
 -46.5137
 -82.4938
 -82.5756
 -82.715
 -82.4573
 -84.5275
 -84.6627
 -84.6106
 -84.6586
 -75.995
 -75.3551
 -74.7946
 -84.1668
 -84.2677
 -84.2517
 -84.133
 -85.2599
 -84.9481
 -84.9052
 -84.8741
 -84.9244
 -85.2103
 -85.2102
 -85.2101
 -85.2162
 -85.1252
 -85.124
 -85.1184
 -85.1399
 -84.6402
 -84.6204
 -84.4124
 -84.2974
 -84.3234
 -84.2916
 -59.6868
 -61.2344
 -59.8287
 -60.5445
 -82.9704
 -82.891
 -82.7812
 -82.5905
 -82.5373
 -82.745
 -82.6131
 -85.2741
 -85.2792
 -85.277
 -85.2736
 -84.2813
 -84.2806
 -84.3784
 -84.3976
 -84.4857
 -84.445
 -84.3656
 -84.4297
 -85.2147
 -85.2028
 -85.2218
 -85.2048
 -84.3553
 -84.3263
 -84.4593
 -84.4102
 -70.8834
 -71.0034
 -69.7764
 -70.2211
 -84.1559
 -84.1209
 -84.2151
 -84.1578
 -82.3456
 -82.3775
 -82.4229
 -82.5926
 -81.6972
 -81.4103
 -81.3951
 -81.5521
 -79.1575
 -79.34
 -79.1375
 -79.0517
 -68.4945
 -68.0459
 -67.5192
 -69.3513
 -85.2798
 -85.2787
 -85.2792
 -85.2773
 -63.3837
 -63.8607
 -62.2868
 -64.1837
 -84.3181
 -84.2327
 -84.3103
 -84.2161
 -85.2763
 -85.2792
 -85.2715
 -85.2748
 -83.5707
 -83.4867
 -83.6228
 -83.6343
 -78.8345
 -85.2412
 -85.2355
 -85.238
 -85.2502
 -80.6295
 -70.2105
 -71.8548
 -71.8341
 -70.2101
 -84.7437
 -84.826
 -85.1287
 -85.1038
 -85.1417
 -85.1122
 -85.1668
 -85.1695
 -85.1801
 -85.1763
 -85.2926
 -85.2878
 -85.2952
 -85.1407
 -85.1642
 -85.1546
 -85.1492
 -83.5177
 -85.2715
 -85.0033
 -85.0015
 -84.9847
 -85.2839
 -85.2862
 -85.2875
 -85.2855
 -83.7173
 -83.666
 -83.7045
 -83.5548
 -82.1898
 -82.3377
 -81.952
 -81.9373
 -84.9243
 -84.906
 -84.927
 -84.981
 -85.2572
 -85.2604
 -85.2523
 -85.2475
 -85.2381
 -85.2353
 -85.239
 -85.2344
 -84.7641
 -84.8536
 -84.8463
 -66.5602
 -65.4786
 -68.5526
 -66.3421
 -47.7776
 -49.0428
 -48.3253
 -48.7519
 -75.217
 -74.0335
 -73.5967
 -74.3948
 -84.4291
 -84.5183
 -84.4393
 -71.3608
 -72.3158
 -71.9276
 -71.3124
 -85.1247
 -85.1172
 -85.1396
 -85.1861
 -85.1856
 -85.1775
 -85.1856
 -80.5562
 -80.3893
 -85.0362
 -85.0318
 -85.3087
 -85.307
 -85.3087
 -85.2845
 -85.2886
 -85.2871
 -85.2891
 -83.8426
 -83.7313
 -83.9507
 -83.8585
 -82.851
 -82.805
 -82.676
 -82.982
 -84.2241
 -84.2358
 -84.3607
 -84.3002
 -85.2857
 -85.2847
 -85.2872
 -85.2854
 -85.0421
 -85.064
 -85.0552
 -85.0347
 -78.6051
 -78.5242
 -78.5963
 -78.9134
 -85.0339
 -85.0499
 -85.0241
 -85.0562
 -84.7059
 -84.7269
 -84.6465
 -84.7355
 -84.9521
 -84.9675
 -84.9711
 -45.2298
 -45.352
 -45.4535
 -82.5387
 -82.3609
 -83.7009
 -83.6911
 -83.5589
 -83.805
 -85.1358
 -85.1576
 -85.1416
 -85.1345
 -85.0362
 -85.0481
 -85.083
 -85.0722
 -85.0698
 -85.0554
 -85.1022
 -60.5572
 -60.6041
 -78.6181
 -78.4829
 -78.7792
 -78.6694
 -84.6596
 -60.0186
 -58.5368
 -59.0405
 -59.2266
 -82.2594
 -82.5718
 -82.3899
 -82.3361
 -84.0032
 -83.8952
 -69.1566
 -71.5286
 -71.3236
 -69.9978
 -85.2791
 -85.2845
 -85.2843
 -85.2794
 -85.2429
 -85.2496
 -85.2477
 -85.2535
 -80.0287
 -80.934
 -80.2393
 -80.6752
 -82.571
 -82.4369
 -82.9425
 -82.8683
 -82.7319
 -82.6388
 -82.7422
 -85.0915
 -85.1143
 -85.071
 -85.0913
 -78.3149
 -78.9059
 -79.1823
 -79.2182
 -84.2079
 -84.1973
 -84.1878
 -84.9448
 -84.9622
 -84.9723
 -85.0075
 -82.5978
 -82.6708
 -82.7887
 -82.713
 -81.2303
 -81.5428
 -81.7973
 -81.3978
 -81.8167
 -81.6201
 -81.69
 -81.9316
 -83.4326
 -83.4457
 -83.6844
 -83.5494
 -84.8438
 -84.8172
 -82.3209
 -82.3497
 -82.3888
 -82.1544
 -85.2896
 -85.2806
 -85.2837
 -85.2836
 -81.2942
 -81.4931
 -81.3382
 -81.5342
 -75.1679
 -74.8057
 -75.7118
 -75.4404
 -84.7025
 -84.6676
 -66.0445
 -65.9866
 -65.0719
 -66.2869
 -83.0002
 -83.2554
 -82.8838
 -85.2734
 -85.2749
 -85.2781
 -85.2767
 -67.8501
 -66.9288
 -67.4231
 -81.5141
 -81.4506
 -81.7215
 -81.6076
 -68.7579
 -81.0839
 -80.8891
 -81.0032
 -80.6104
 -84.2863
 -84.202
 -84.3124
 -84.3283
 -83.5619
 -83.5985
 -83.6897
 -83.5518
 -85.2772
 -85.2837
 -84.5953
 -84.6533
 -84.6339
 -84.5985
 -80.1851
 -79.4485
 -80.2792
 -79.4112
 -82.842
 -83.2628
 -83.0248
 -82.8981
 -85.2356
 -85.2312
 -85.2305
 -85.2343
 -83.8071
 -83.9223
 -84.0462
 -83.9644
 -84.7313
 -85.1789
 -85.1792
 -85.1683
 -82.824
 -82.9086
 -82.6336
 -82.9363
 -85.0304
 -85.0158
 -85.0265
 -85.0008
 -83.1127
 -82.8375
 -82.9792
 -83.1526
 -85.2736
 -85.2698
 -85.2656
 -85.2735
 -85.3032
 -85.3043
 -85.3023
 -81.666
 -81.805
 -82.0763
 -81.9279
 -84.8643
 -84.8595
 -84.8078
 -84.8403
 -84.9616
 -84.9824
 -84.9955
 -85.0058
 -82.1971
 -82.2949
 -80.9113
 -80.7892
 -80.6262
 -81.0947
 -83.455
 -83.7574
 -84.6254
 -84.6668
 -84.6267
 -84.5979
 -84.7913
 -84.8077
 -84.8561
 -84.8023
 -83.3318
 -83.5386
 -83.6398
 -83.4911
 -84.5449
 -84.5436
 -84.5473
 -85.2024
 -85.1929
 -85.1849
 -85.1951
 -85.1147
 -85.1045
 -85.1152
 -83.4899
 -83.6769
 -83.3528
 -83.6051
 -81.3364
 -80.7856
 -80.5599
 -81.2136
 -85.0027
 -84.9524
 -84.9612
 -84.9855
 -83.7369
 -83.7035
 -83.4807
 -80.0801
 -80.0402
 -80.0832
 -80.0533
 -82.5437
 -82.5415
 -82.6289
 -82.6965
 -85.1656
 -85.1498
 -85.1464
 -85.2938
 -85.2881
 -85.2906
 -84.9612
 -84.9804
 -84.9885
 -82.5521
 -82.3126
 -82.6506
 -82.4669
 -85.299
 -85.3003
 -85.2989
 -85.301
 -84.9269
 -84.8942
 -84.913
 -84.9466
 -85.1877
 -85.1935
 -85.2048
 -85.2079
 -85.1702
 -85.1814
 -85.1738
 -85.1755
 -73.3836
 -71.9044
 -72.3444
 -83.316
 -83.3693
 -83.2428
 -83.3807
 -85.1986
 -85.2018
 -85.191
 -85.1919
 -84.0301
 -84.0795
 -84.0723
 -84.2012
 -85.0286
 -85.0312
 -85.0312
 -85.0006
 -85.2205
 -85.2302
 -78.4539
 -78.8362
 -78.7767
 -79.0261
 -85.082
 -85.0602
 -85.1048
 -85.0781
 -83.5531
 -83.517
 -83.4219
 -83.6209
 -84.9712
 -84.9039
 -85.2842
 -85.284
 -85.2771
 -85.284
 -85.1741
 -85.1946
 -85.1665
 -85.1968
 -85.2968
 -85.2989
 -85.3031
 -85.303
 -85.1046
 -85.1083
 -85.1189
 -84.9686
 -85.0076
 -85.0151
 -84.9899
 -84.9899
 -84.9751
 -84.9914
 -84.9474
 -82.1527
 -82.2187
 -82.01
 -81.9097
 -71.284
 -70.8102
 -72.1374
 -84.3117
 -84.2985
 -84.3273
 -85.1981
 -85.1831
 -85.1906
 -85.1799
 -83.4749
 -83.5907
 -83.7339
 -83.597
 -80.6669
 -79.9881
 -80.1674
 -80.7508
 -84.4111
 -84.3228
 -84.2324
 -84.2682
 -82.9197
 -83.2719
 -82.9502
 -85.2877
 -85.2895
 -85.2814
 -85.2804
 -79.0018
 -79.1237
 -80.9294
 -81.119
 -81.1371
 -85.0646
 -85.0765
 -85.0445
 -85.0929
 -84.2741
 -84.433
 -84.3729
 -84.402
 -80.1637
 -80.2549
 -80.5483
 -80.234
 -84.5563
 -84.3743
 -84.4161
 -84.4842
 -82.9458
 -82.7332
 -83.0807
 -83.0825
 -85.2297
 -85.2362
 -85.2508
 -82.6376
 -82.6487
 -82.7902
 -82.783
 -84.5187
 -84.5859
 -79.6831
 -80.128
 -79.8727
 -79.7588
 -80.4389
 -80.0109
 -80.2587
 -80.0743
 -85.2325
 -85.2308
 -81.0568
 -81.4179
 -81.1786
 -80.8233
 -84.4279
 -84.3411
 -84.3785
 -84.4464
 -83.3084
 -74.6309
 -73.5301
 -73.9092
 -84.7209
 -84.6983
 -84.6973
 -84.6489
 -85.2544
 -85.2555
 -85.2518
 -85.2595
 -73.058
 -73.7551
 -73.699
 -72.5352
 -81.0603
 -81.2622
 -80.9667
 -81.0503
 -84.9057
 -84.909
 -84.9097
 -74.5272
 -74.2749
 -75.196
 -75.2269
 -85.2931
 -85.2889
 -85.2891
 -85.2945
 -78.3587
 -78.6226
 -78.7355
 -78.1061
 -84.9137
 -84.8699
 -84.8977
 -84.93
 -83.4703
 -83.6213
 -83.5518
 -83.4248
 -79.9945
 -80.1443
 -79.9845
 -82.9817
 -83.1983
 -82.9911
 -83.1695
 -80.6089
 -80.3481
 -80.5335
 -80.5307
 -80.7813
 -80.4983
 -80.5549
 -85.1309
 -85.1044
 -85.1341
 -85.0701
 -85.0498
 -84.1142
 -84.3275
 -84.1732
 -84.1879
 -85.2711
 -85.2688
 -85.2631
 -85.2684
 -84.7306
 -84.8063
 -84.6814
 -84.7794
 -84.8248
 -84.8625
 -84.8194
 -84.82
 -81.0216
 -80.897
 -81.2057
 -81.1227
 -80.9332
 -84.9236
 -84.8546
 -84.9016
 -84.9321
 -85.2673
 -85.2764
 -84.4488
 -84.4825
 -84.3663
 -84.4908
 -80.2993
 -80.2443
 -80.4577
 -85.2232
 -85.2333
 -85.2196
 -85.2246
 -84.5194
 -84.3667
 -84.4393
 -84.4535
 -80.9184
 -80.7771
 -80.9484
 -81.0524
 -84.1776
 -84.1747
 -84.3411
 -84.2147
 -84.8467
 -84.9258
 -77.6311
 -77.38
 -77.4992
 -77.2389
 -80.5017
 -81.2882
 -81.5416
 -81.4205
 -81.7034
 -81.5672
 -81.1648
 -80.6199
 -80.6329
 -80.9676
 -84.5062
 -84.4546
 -84.4663
 -84.7016
 -84.6822
 -84.6427
 -84.6229
 -82.2928
 -82.2405
 -82.294
 -82.2655
 -83.6384
 -83.569
 -84.5802
 -84.5362
 -84.5739
 -84.5337
 -84.6184
 -84.6086
 -84.2323
 -84.3174
 -84.3604
 -84.2313
 -64.4824
 -66.5233
 -66.163
 -66.7653
 -84.5571
 -80.6558
 -80.9001
 -80.7172
 -80.6557
 -85.2912
 -85.2945
 -85.2903
 -85.0688
 -85.0682
 -85.0395
 -85.0687
 -84.0672
 -84.0761
 -84.0074
 -83.8277
 -84.5835
 -84.6405
 -84.5304
 -81.5882
 -81.8111
 -81.7358
 -81.5683
 -85.2259
 -85.2347
 -85.2222
 -85.2297
 -84.961
 -84.9418
 -84.9743
 -84.9573
 -85.2273
 -85.2333
 -85.2138
 -85.2248
 -77.6476
 -77.5318
 -77.1993
 -77.2543
 -81.9382
 -82.1551
 -85.1381
 -85.1286
 -85.1197
 -85.1349
 -85.2592
 -85.2576
 -85.2601
 -85.2565
 -85.3051
 -85.3077
 -85.3026
 -85.3075
 -85.2481
 -85.2392
 -85.2458
 -84.906
 -84.9523
 -84.9007
 -84.9355
 -85.2729
 -85.2765
 -85.2757
 -85.276
 -78.7371
 -79.1177
 -79.5851
 -79.0629
 -85.1903
 -85.2049
 -85.2057
 -84.9318
 -84.9165
 -84.9012
 -84.8956
 -80.5245
 -80.4131
 -80.5231
 -80.3396
 -84.9103
 -84.9455
 -84.9371
 -84.9341
 -84.7163
 -84.7661
 -84.7925
 -84.7145
 -81.8012
 -81.8192
 -82.2245
 -82.3242
 -77.9258
 -78.0243
 -77.4032
 -77.4109
 -83.6
 -83.6314
 -83.7677
 -83.6202
 -61.4962
 -61.3913
 -63.918
 -62.2715
 -80.6109
 -80.8843
 -80.5728
 -81.4461
 -81.0774
 -81.0158
 -80.8963
 -55.608
 -55.746
 -54.5585
 -56.4511
 -85.236
 -85.2293
 -85.2316
 -85.1511
 -85.16
 -85.1729
 -85.1722
 -81.6099
 -82.1667
 -81.9906
 -72.031
 -72.6664
 -71.9667
 -77.1672
 -76.7934
 -77.3096
 -77.4295
 -82.1386
 -82.1114
 -82.3089
 -81.9273
 -84.9401
 -85.0053
 -84.9732
 -84.9707
 -65.0319
 -64.5735
 -65.2597
 -63.8737
 -84.8229
 -84.7189
 -84.7139
 -84.8044
 -85.1546
 -85.1567
 -85.1383
 -85.1533
 -84.6828
 -84.6683
 -84.7824
 -84.7136
 -83.9609
 -83.8275
 -84.0421
 -80.8571
 -80.8315
 -80.8703
 -81.0185
 -85.2387
 -85.2447
 -85.2495
 -85.2426
 -85.1958
 -85.2016
 -85.1916
 -85.1787
 -81.7573
 -81.993
 -81.8223
 -81.6247
 -85.2478
 -85.2546
 -85.2579
 -85.2677
 -85.2783
 -85.2727
 -85.2713
 -85.2736
 -85.2726
 -85.2671
 -85.2695
 -69.7835
 -69.5278
 -55.8743
 -56.2663
 -55.6149
 -57.0885
 -84.7634
 -84.7335
 -84.6857
 -84.0664
 -84.0027
 -84.1693
 -84.0004
 -84.4399
 -84.545
 -84.5202
 -84.4592
 -45.7151
 -83.6361
 -84.7179
 -84.7755
 -85.2016
 -85.2076
 -85.2067
 -85.2032
 -72.2569
 -82.9846
 -83.1588
 -82.9828
 -85.3102
 -85.3087
 -85.309
 -85.3085
 -84.4509
 -84.3885
 -84.473
 -84.5564
 -85.256
 -85.2529
 -85.2612
 -85.2488
 -83.9155
 -84.075
 -83.7348
 -83.3777
 -83.6311
 -83.4655
 -85.2484
 -85.2465
 -85.2388
 -85.2501
 -84.844
 -84.7945
 -84.7446
 -84.7443
 -79.0524
 -78.6891
 -79.3267
 -79.2534
 -85.1602
 -85.1862
 -85.175
 -85.2698
 -85.2783
 -85.2784
 -85.2694
 -85.1823
 -85.1753
 -85.1687
 -85.174
 -81.8304
 -81.8315
 -82.4209
 -81.8033
 -82.5339
 -82.3639
 -82.3914
 -82.4117
 -85.2415
 -85.2465
 -85.2467
 -85.2464
 -83.5105
 -83.6389
 -83.3973
 -85.1423
 -85.1396
 -85.1374
 -85.123
 -79.6864
 -80.1183
 -79.4524
 -79.5822
 -84.8702
 -84.9038
 -84.8242
 -84.8614
 -79.7011
 -80.0439
 -79.7242
 -79.6655
 -84.5701
 -84.5676
 -84.4734
 -84.5766
 -85.1575
 -85.153
 -85.1692
 -85.1487
 -78.6312
 -78.4545
 -78.824
 -84.3755
 -84.467
 -85.2263
 -85.2241
 -85.2188
 -85.2147
 -83.4824
 -83.3551
 -83.3154
 -78.8646
 -78.4876
 -78.3136
 -78.5256
 -85.0122
 -85.0244
 -85.0137
 -85.0376
 -84.8395
 -84.84
 -84.9141
 -84.8604
 -49.5456
 -49.6447
 -50.7791
 -49.8159
 -84.4417
 -84.3016
 -84.3707
 -61.2981
 -62.5632
 -63.0416
 -84.3901
 -84.3522
 -84.2765
 -84.4076
 -84.281
 -76.9322
 -77.3989
 -76.0522
 -76.7338
 -83.9319
 -84.1053
 -84.107
 -85.2051
 -85.2056
 -85.2077
 -85.1989
 -83.982
 -84.0503
 -84.1366
 -84.1298
 -84.2825
 -84.2525
 -84.2491
 -85.3024
 -85.3016
 -85.3004
 -85.2982
 -80.6909
 -81.4768
 -81.3259
 -81.1772
 -77.2023
 -77.2472
 -77.5066
 -77.5527
 -83.2675
 -83.2245
 -83.4911
 -83.2798
 -85.2271
 -85.2233
 -85.2309
 -85.2176
 -48.9667
 -49.8297
 -48.8198
 -50.1816
 -85.1646
 -85.1423
 -85.1509
 -85.1526
 -76.4552
 -76.0122
 -76.6174
 -76.3972
 -85.1935
 -85.1554
 -85.1714
 -85.1884
 -85.0614
 -85.0562
 -85.037
 -85.0477
 -85.1669
 -85.1721
 -82.082
 -81.8154
 -81.7689
 -82.0008
 -85.2427
 -85.2449
 -85.2446
 -85.0714
 -85.0411
 -85.0462
 -85.0774
 -81.5938
 -81.8764
 -81.6877
 -81.4357
 -82.8808
 -82.8175
 -83.0468
 -45.2559
 -45.2897
 -45.0047
 -45.2491
 -84.135
 -84.0474
 -84.2314
 -85.2518
 -85.2571
 -85.2464
 -85.2439
 -85.1371
 -85.1194
 -85.2209
 -85.2355
 -85.2366
 -85.2299
 -84.9809
 -84.9817
 -74.5007
 -74.3021
 -73.5115
 -74.9463
 -85.1239
 -85.1259
 -85.1258
 -85.1066
 -84.3424
 -84.3625
 -83.0188
 -83.1297
 -83.043
 -82.9964
 -85.2105
 -85.2191
 -85.2183
 -85.2177
 -82.1829
 -81.5658
 -81.6375
 -82.071
 -85.2403
 -85.2416
 -85.2509
 -85.2566
 -84.6319
 -84.6353
 -84.5833
 -75.4917
 -75.1496
 -74.9231
 -75.3941
 -84.9186
 -84.9216
 -84.9054
 -84.8693
 -80.6869
 -80.2207
 -80.2857
 -79.9528
 -81.342
 -80.7777
 -81.1841
 -47.9078
 -47.7396
 -48.0299
 -48.493
 -77.9264
 -78.5924
 -78.7842
 -78.1531
 -85.1056
 -85.1033
 -85.1247
 -85.1002
 -84.3627
 -84.416
 -84.2771
 -83.1508
 -80.5346
 -80.7623
 -80.6272
 -80.7955
 -83.6175
 -83.4399
 -83.6029
 -83.6818
 -85.0715
 -85.1081
 -85.11
 -85.0714
 -79.3466
 -79.4033
 -80.3152
 -72.8648
 -84.6125
 -84.6257
 -84.558
 -84.6724
 -80.7256
 -81.1284
 -58.2949
 -57.0934
 -80.1988
 -80.5485
 -80.2592
 -79.8035
 -85.0448
 -85.0643
 -85.223
 -85.2216
 -85.2243
 -85.22
 -83.1431
 -83.3517
 -83.3208
 -83.3654
 -85.2821
 -85.2844
 -85.2872
 -85.2852
 -82.5835
 -82.6908
 -82.1245
 -82.0724
 -85.1364
 -85.1426
 -85.1213
 -85.1095
 -81.7016
 -81.72
 -81.8814
 -81.8504
 -85.0958
 -85.103
 -85.074
 -85.0899
 -83.5229
 -83.7755
 -85.2571
 -85.2545
 -85.0348
 -85.065
 -85.0275
 -85.0684
 -85.0069
 -84.9866
 -84.9931
 -85.0314
 -84.5537
 -84.5178
 -84.5946
 -84.5743
 -85.1006
 -85.0853
 -85.1216
 -85.1202
 -81.5154
 -81.2068
 -81.3723
 -81.3482
 -85.2501
 -85.2466
 -85.2474
 -85.2541
 -85.2623
 -85.2553
 -85.2596
 -79.6432
 -80.0761
 -80.0591
 -79.8138
 -84.9597
 -84.9298
 -84.9286
 -84.959
 -78.1612
 -78.8722
 -78.9071
 -79.5082
 -84.5381
 -84.0125
 -84.1775
 -84.1883
 -84.0654
 -85.1751
 -85.1742
 -85.1697
 -85.1565
 -62.9931
 -61.7282
 -62.3948
 -63.9671
 -84.9524
 -84.9694
 -84.9848
 -84.9543
 -84.3232
 -84.3904
 -84.1862
 -84.2612
 -85.1112
 -85.0949
 -85.0903
 -85.0832
 -84.8906
 -85.3033
 -85.3037
 -85.2982
 -85.2996
 -85.1316
 -85.1412
 -85.1182
 -85.1174
 -57.0193
 -57.3775
 -58.3545
 -56.9031
 -83.6415
 -83.464
 -83.3756
 -83.5138
 -82.3438
 -84.335
 -84.3893
 -84.4039
 -84.4774
 -85.2368
 -85.239
 -85.2276
 -85.2237
 -85.1863
 -85.1781
 -85.2001
 -85.2339
 -85.2167
 -85.2236
 -85.2216
 -49.0094
 -49.3101
 -85.1215
 -85.1066
 -85.0956
 -81.8941
 -81.8945
 -81.7763
 -82.1338
 -85.0459
 -85.0333
 -85.0373
 -85.0105
 -84.5554
 -85.0008
 -84.9611
 -85.0003
 -84.9972
 -85.2409
 -85.2198
 -85.2298
 -85.2391
 -84.9832
 -85.0111
 -85.0368
 -84.988
 -83.485
 -83.588
 -83.2787
 -83.7114
 -80.4265
 -80.4911
 -80.334
 -80.5391
 -85.2969
 -85.2927
 -85.2961
 -85.2958
 -85.0607
 -85.053
 -85.0648
 -85.0355
 -85.2939
 -85.2922
 -85.2926
 -85.2947
 -82.101
 -81.6055
 -82.1327
 -82.1885
 -84.3864
 -84.3423
 -85.2505
 -85.2615
 -85.2517
 -85.2556
 -84.4851
 -84.483
 -84.4732
 -84.5684
 -84.165
 -84.2616
 -84.5709
 -84.5361
 -84.6435
 -84.5565
 -85.1965
 -85.2009
 -85.1944
 -85.2117
 -82.8921
 -82.6056
 -82.4788
 -82.7414
 -72.2333
 -72.9478
 -72.1837
 -72.1031
 -78.8988
 -78.673
 -78.752
 -78.5757
 -82.5344
 -82.7647
 -82.8141
 -82.5744
 -83.6138
 -83.3922
 -83.5175
 -84.0658
 -83.8497
 -83.9834
 -84.0037
 -84.4859
 -84.4503
 -84.3899
 -84.5011
 -72.189
 -72.3861
 -72.6631
 -83.4521
 -83.1601
 -83.4639
 -83.3821
 -84.6325
 -84.7211
 -84.702
 -84.6053
 -81.554
 -81.0361
 -81.6125
 -81.1033
 -82.8425
 -83.0264
 -83.0139
 -82.9758
 -84.6632
 -84.6437
 -84.6928
 -84.7433
 -84.4926
 -84.3911
 -84.4851
 -84.4646
 -85.0397
 -85.0252
 -85.028
 -85.0098
 -78.223
 -78.4051
 -78.5571
 -85.171
 -85.1594
 -85.1801
 -85.1686
 -81.6132
 -81.9527
 -81.6287
 -81.3909
 -83.8106
 -83.7904
 -83.6739
 -83.8851
 -83.994
 -84.1454
 -84.1477
 -84.7143
 -84.7321
 -84.745
 -84.7785
 -84.9868
 -84.9847
 -85.0144
 -84.963
 -85.0053
 -85.0315
 -85.0415
 -85.2163
 -85.2157
 -85.2234
 -85.0035
 -84.9865
 -84.9614
 -84.9687
 -85.1922
 -85.1929
 -85.1802
 -85.2469
 -85.2475
 -85.2469
 -85.24
 -84.0713
 -83.7856
 -83.9888
 -83.8775
 -82.0235
 -81.8338
 -82.254
 -81.947
 -81.1763
 -85.2067
 -85.2041
 -85.2228
 -85.1893
 -85.1996
 -85.1748
 -47.1795
 -46.8381
 -47.2386
 -47.7772
 -85.126
 -85.1075
 -83.6609
 -83.6761
 -83.8734
 -85.2916
 -85.2945
 -84.7894
 -84.7169
 -84.7476
 -84.7779
 -83.4826
 -83.5733
 -83.5769
 -85.1408
 -85.1716
 -85.1618
 -85.1655
 -82.4255
 -82.5006
 -82.3011
 -82.6841
 -53.7856
 -54.7933
 -54.5171
 -53.3277
 -84.7523
 -84.7624
 -84.7543
 -84.8093
 -85.1851
 -85.2116
 -85.1918
 -85.1627
 -85.1549
 -85.1645
 -85.1509
 -81.3788
 -80.8854
 -80.8114
 -80.6465
 -82.2179
 -82.384
 -79.1974
 -79.6995
 -78.9757
 -85.2788
 -85.274
 -85.1607
 -85.139
 -85.1562
 -85.1464
 -84.5048
 -84.5916
 -84.5577
 -85.1243
 -85.0996
 -85.1433
 -85.1349
 -81.6183
 -80.9
 -81.0186
 -81.3711
 -84.1868
 -84.1512
 -84.2838
 -84.303
 -84.2436
 -84.3147
 -84.3574
 -84.2634
 -80.6297
 -80.7927
 -80.3323
 -82.2643
 -82.0093
 -82.2426
 -82.1635
 -85.3023
 -85.3035
 -85.303
 -85.3061
 -76.0367
 -74.8075
 -85.2375
 -85.2485
 -85.2454
 -85.2411
 -83.9344
 -84.0878
 -84.0249
 -83.9363
 -84.6674
 -84.7179
 -84.7106
 -84.7336
 -78.9872
 -79.2421
 -84.2593
 -84.1821
 -84.1835
 -84.0875
 -83.658
 -83.5821
 -83.5156
 -83.7278
 -85.2014
 -85.2021
 -85.197
 -85.2066
 -84.0063
 -84.1523
 -84.1401
 -84.0047
 -82.3532
 -82.411
 -84.9002
 -84.9028
 -84.8715
 -84.9064
 -85.0589
 -85.057
 -85.0781
 -84.4472
 -84.5409
 -84.5056
 -84.5653
 -80.4984
 -80.791
 -80.3815
 -80.9686
 -53.657
 -55.0191
 -54.7251
 -53.3872
 -84.2121
 -84.1515
 -84.2878
 -84.3914
 -84.6973
 -84.7628
 -84.6936
 -84.7122
 -83.4362
 -83.543
 -83.3383
 -83.3819
 -82.0185
 -81.8748
 -82.1476
 -82.2613
 -85.2098
 -85.2156
 -84.8809
 -84.8438
 -84.8274
 -65.7587
 -65.168
 -64.33
 -66.2083
 -81.1972
 -80.8558
 -81.2731
 -80.6116
 -84.5487
 -84.5498
 -84.5299
 -84.471
 -85.2127
 -85.2158
 -85.2137
 -83.9133
 -83.8057
 -83.6275
 -83.645
 -82.0809
 -82.4298
 -82.3069
 -82.0719
 -85.0758
 -85.0345
 -85.0358
 -85.0582
 -84.6914
 -84.6797
 -84.646
 -84.6448
 -85.1077
 -85.1108
 -85.1033
 -85.1446
 -85.1466
 -85.1519
 -85.1427
 -83.3323
 -83.4266
 -83.1806
 -83.1721
 -84.096
 -83.999
 -84.1276
 -56.5524
 -56.9051
 -56.8169
 -55.9528
 -82.4666
 -82.5111
 -75.4286
 -74.817
 -75.8216
 -76.4359
 -80.784
 -79.3163
 -85.2085
 -82.4563
 -82.1742
 -82.3542
 -82.0566
 -85.2989
 -84.8581
 -84.8338
 -84.8507
 -84.7899
 -82.3491
 -82.4988
 -82.3928
 -83.3854
 -83.5817
 -83.5741
 -85.1502
 -85.158
 -85.1418
 -85.1591
 -85.1865
 -85.1798
 -85.1879
 -85.1763
 -79.8654
 -79.1591
 -79.1847
 -79.6337
 -85.2638
 -85.2635
 -85.271
 -85.2607
 -84.2723
 -84.1584
 -84.0261
 -85.1834
 -85.1896
 -85.1913
 -84.5431
 -84.4909
 -84.5113
 -84.5599
 -82.4568
 -82.6082
 -82.314
 -82.3693
 -84.7519
 -84.8301
 -84.7372
 -82.8609
 -83.0062
 -82.9741
 -82.7467
 -83.8901
 -84.0839
 -85.1799
 -85.1931
 -85.1934
 -85.2071
 -85.2149
 -85.2262
 -85.2171
 -85.2175
 -79.9771
 -80.4349
 -79.9406
 -80.5177
 -85.0402
 -85.0039
 -85.0384
 -85.0501
 -84.8492
 -84.7574
 -84.8245
 -84.8785
 -83.6859
 -83.4813
 -83.7661
 -83.6169
 -85.1816
 -85.1721
 -85.1667
 -85.1556
 -84.0129
 -83.8251
 -84.1025
 -83.9714
 -84.2979
 -84.2527
 -84.2437
 -84.4011
 -83.7559
 -83.6487
 -83.7909
 -83.807
 -81.1254
 -81.5966
 -79.434
 -79.8292
 -80.1287
 -79.4835
 -73.3826
 -71.8737
 -73.302
 -73.6428
 -84.8706
 -84.8625
 -84.8247
 -84.8984
 -84.6606
 -84.6301
 -84.5826
 -85.2849
 -85.2856
 -85.2844
 -85.2841
 -85.273
 -85.2801
 -85.2704
 -85.2282
 -85.2352
 -85.2225
 -84.6527
 -84.7344
 -84.7527
 -84.6631
 -84.9798
 -84.9871
 -85.0026
 -84.9537
 -85.1938
 -85.2036
 -85.2001
 -85.2072
 -82.5204
 -82.2459
 -82.313
 -82.4493
 -76.5889
 -77.1402
 -77.5936
 -77.5828
 -85.2917
 -85.2945
 -85.2857
 -85.2964
 -81.7314
 -81.6412
 -81.4028
 -81.7466
 -84.4053
 -84.3854
 -84.4345
 -84.3663
 -85.2936
 -85.296
 -85.2887
 -85.2998
 -84.7735
 -84.7127
 -84.8027
 -84.7802
 -83.804
 -83.746
 -83.8448
 -83.7498
 -82.0959
 -81.8597
 -81.9129
 -79.1847
 -79.7758
 -79.4183
 -79.0746
 -81.2311
 -81.152
 -81.3079
 -81.0993
 -79.8489
 -80.0701
 -81.4305
 -81.6996
 -80.9461
 -85.0931
 -85.0734
 -85.0746
 -85.0732
 -85.2828
 -85.2815
 -85.2814
 -85.2816
 -84.9771
 -84.9519
 -84.9775
 -84.914
 -83.8866
 -85.1786
 -85.1857
 -85.1868
 -85.1717
 -80.2296
 -80.2206
 -80.1967
 -80.1528
 -85.2698
 -85.2701
 -85.2691
 -85.2755
 -82.9215
 -82.8951
 -83.168
 -85.061
 -78.7816
 -78.6532
 -78.1357
 -81.4606
 -81.1516
 -80.8482
 -81.576
 -84.4183
 -84.4219
 -84.2682
 -84.4117
 -85.0893
 -85.0851
 -85.0715
 -85.1102
 -83.8503
 -85.0665
 -85.0485
 -85.0508
 -84.0107
 -84.0284
 -84.0352
 -84.1652
 -82.945
 -83.0055
 -82.8338
 -82.8063
 -83.3936
 -83.1699
 -83.3269
 -83.4096
 -85.0796
 -81.9275
 -82.0238
 -82.1035
 -85.0913
 -85.0725
 -85.1003
 -85.0836
 -85.2027
 -85.1977
 -85.2132
 -85.192
 -85.265
 -85.2686
 -85.2637
 -82.7494
 -82.7689
 -82.621
 -82.7411
 -77.4881
 -77.0765
 -77.4854
 -85.1258
 -85.133
 -85.1652
 -85.1602
 -85.156
 -85.151
 -84.0534
 -84.1392
 -84.1949
 -85.2792
 -85.2792
 -85.2843
 -85.2802
 -85.2093
 -85.2081
 -85.2139
 -85.2145
 -84.8876
 -84.927
 -84.9364
 -84.9505
 -84.5993
 -84.6248
 -84.5455
 -84.4863
 -82.1296
 -82.1419
 -82.0247
 -82.2164
 -85.1731
 -85.1696
 -85.1601
 -85.1765
 -82.9224
 -83.0085
 -82.6668
 -83.5775
 -83.723
 -83.776
 -83.7865
 -85.2742
 -85.2707
 -85.2795
 -85.2775
 -85.0534
 -85.0553
 -85.0555
 -85.0346
 -85.2866
 -85.2829
 -85.2768
 -85.2858
 -83.2171
 -83.3116
 -83.4062
 -83.3803
 -84.5206
 -84.5176
 -84.45
 -84.5901
 -85.2479
 -85.2452
 -85.2526
 -85.2493
 -84.337
 -84.3888
 -84.2388
 -84.2711
 -85.2892
 -85.2912
 -85.2888
 -82.4438
 -82.3316
 -82.3393
 -82.3836
 -84.7361
 -84.7376
 -84.6878
 -84.6629
 -84.8214
 -84.8463
 -84.8106
 -84.8378
 -84.144
 -84.1188
 -84.2831
 -84.139
 -85.2107
 -85.2122
 -85.2233
 -85.212
 -84.2635
 -84.1084
 -84.2115
 -84.1806
 -84.8611
 -84.8465
 -84.838
 -84.8283
 -80.0084
 -80.0145
 -79.9698
 -80.0031
 -85.1661
 -85.1668
 -85.1573
 -85.1456
 -78.9428
 -78.9047
 -78.9029
 -82.3264
 -82.1675
 -82.1607
 -82.3423
 -80.1529
 -80.4757
 -81.2863
 -80.5674
 -85.049
 -85.0581
 -85.0702
 -85.0791
 -84.9287
 -84.9653
 -84.9238
 -84.9505
 -82.7348
 -82.4723
 -82.5681
 -82.3646
 -85.3043
 -85.3023
 -85.2997
 -57.1182
 -56.7849
 -84.8353
 -84.8603
 -84.8016
 -84.8452
 -68.7397
 -67.0342
 -65.3068
 -66.5746
 -84.926
 -84.95
 -84.9779
 -84.9461
 -83.6322
 -83.0773
 -82.948
 -82.9078
 -82.7526
 -85.1301
 -85.1259
 -85.1331
 -85.1411
 -85.2542
 -85.246
 -85.2581
 -85.2519
 -80.0113
 -79.998
 -85.0478
 -85.065
 -85.1016
 -85.0611
 -84.6273
 -84.4804
 -84.6648
 -84.5823
 -81.6676
 -81.6103
 -81.4791
 -82.058
 -84.2743
 -84.1308
 -84.111
 -84.2652
 -85.1804
 -85.1629
 -85.2021
 -85.2856
 -85.284
 -85.284
 -85.2838
 -85.2902
 -85.2903
 -85.2932
 -83.1504
 -83.0398
 -83.0543
 -83.2313
 -85.2278
 -85.2284
 -85.2202
 -85.2223
 -80.8215
 -80.5823
 -80.6785
 -80.7182
 -84.958
 -84.9111
 -84.9595
 -84.8907
 -84.7198
 -84.7957
 -84.7312
 -84.7242
 -85.2821
 -85.2828
 -85.2815
 -85.2848
 -85.0092
 -85.0163
 -85.0095
 -84.9847
 -63.7666
 -62.9389
 -62.8381
 -63.9365
 -83.8341
 -83.5389
 -83.7865
 -83.6998
 -83.0278
 -83.1749
 -83.2759
 -82.9096
 -85.1035
 -85.1027
 -85.0835
 -85.0783
 -81.1701
 -80.9645
 -80.9102
 -80.8978
 -84.807
 -84.764
 -84.726
 -84.8008
 -82.4399
 -82.3608
 -82.1597
 -75.0101
 -74.6749
 -74.1336
 -74.401
 -84.7268
 -84.7937
 -84.7276
 -84.8643
 -84.8708
 -84.8617
 -81.8555
 -81.651
 -81.415
 -80.4806
 -80.4781
 -80.6285
 -80.8194
 -85.223
 -46.17
 -46.544
 -46.3074
 -45.7467
 -85.2068
 -85.2029
 -85.2148
 -85.2054
 -78.9887
 -83.4243
 -83.3753
 -83.383
 -83.5533
 -83.0922
 -82.8794
 -83.3908
 -80.6567
 -81.2991
 -80.9977
 -80.8977
 -66.5566
 -66.5185
 -67.5575
 -65.2896
 -80.6819
 -80.9211
 -80.8532
 -84.6289
 -84.5902
 -84.5806
 -83.2067
 -83.1159
 -85.3084
 -85.3045
 -85.3043
 -80.1579
 -80.6587
 -80.0256
 -83.0732
 -83.222
 -83.3214
 -85.2222
 -85.2312
 -85.2333
 -85.1238
 -85.1249
 -85.1383
 -85.131
 -81.7507
 -81.8275
 -82.0001
 -78.53
 -77.9797
 -85.2654
 -85.2642
 -85.2715
 -85.2689
 -70.7095
 -71.1015
 -69.3567
 -71.9026
 -79.9204
 -79.7526
 -53.3773
 -52.5319
 -60.6661
 -60.4598
 -60.8118
 -83.3641
 -83.5504
 -83.3215
 -85.2562
 -85.2505
 -85.2395
 -85.0288
 -85.0197
 -85.0425
 -82.2455
 -81.9998
 -82.2521
 -82.4207
 -82.1821
 -85.2299
 -78.732
 -78.7177
 -78.9194
 -78.919
 -83.1989
 -83.5431
 -83.2447
 -83.379
 -85.1141
 -85.119
 -85.1332
 -84.9455
 -84.9585
 -84.9344
 -84.9392
 -83.3588
 -83.2999
 -83.5048
 -83.6663
 -85.0903
 -85.0921
 -85.1208
 -85.1179
 -85.129
 -85.1205
 -85.131
 -85.146
 -84.303
 -85.0424
 -85.0757
 -85.067
 -85.0774
 -85.2867
 -85.2893
 -85.2851
 -85.284
 -80.9706
 -80.198
 -79.9921
 -80.5065
 -85.2738
 -85.2826
 -85.2808
 -85.2791
 -51.9013
 -52.9363
 -51.894
 -85.245
 -85.2396
 -85.2503
 -85.2518
 -81.1695
 -81.0725
 -80.6667
 -80.6711
 -85.1856
 -85.1704
 -85.1843
 -85.1936
 -80.1483
 -80.1921
 -79.0028
 -79.2794
 -85.2768
 -85.1565
 -85.1401
 -85.1528
 -85.1355
 -85.2438
 -85.2483
 -85.2498
 -78.3643
 -78.64
 -78.2646
 -78.0825
 -85.0372
 -85.0287
 -85.0132
 -84.9972
 -84.7863
 -84.8565
 -84.8559
 -84.8244
 -84.6659
 -84.6992
 -84.6393
 -84.6127
 -85.3048
 -85.3012
 -83.6434
 -83.6326
 -83.5843
 -83.4844
 -83.6586
 -83.7436
 -83.762
 -85.0629
 -85.0379
 -85.0758
 -85.0909
 -85.003
 -85.0064
 -85.0022
 -85.0344
 -84.7938
 -84.8298
 -84.8343
 -84.7657
 -81.7339
 -81.6152
 -82.6902
 -82.5462
 -82.5196
 -83.1749
 -83.3225
 -83.3028
 -83.3141
 -76.2817
 -75.5178
 -75.988
 -75.8377
 -83.2503
 -82.9371
 -82.7737
 -65.9967
 -66.0874
 -67.2526
 -83.159
 -83.1622
 -82.9533
 -83.3135
 -81.3004
 -81.6788
 -81.0268
 -84.2724
 -85.0974
 -85.0748
 -85.1112
 -83.7569
 -83.7622
 -83.882
 -83.9396
 -79.7539
 -79.7205
 -80.877
 -80.3758
 -84.4879
 -84.574
 -84.5898
 -84.5828
 -85.135
 -85.1231
 -85.3013
 -85.2989
 -85.2972
 -85.301
 -85.0721
 -85.0879
 -85.0951
 -85.0645
 -83.9568
 -83.9374
 -83.9165
 -84.0255
 -85.2786
 -85.2797
 -85.2875
 -85.2747
 -85.2879
 -85.2887
 -85.2911
 -84.5216
 -84.4095
 -84.3481
 -84.4597
 -80.374
 -80.2909
 -80.5118
 -83.5924
 -83.6142
 -83.7895
 -83.5885
 -76.5853
 -75.9204
 -77.027
 -75.6794
 -84.9282
 -84.9389
 -84.9501
 -84.8403
 -80.1387
 -80.1399
 -80.1202
 -80.1952
 -82.0933
 -82.2115
 -82.2927
 -82.2126
 -85.2494
 -85.2407
 -85.2558
 -85.243
 -84.3124
 -84.3293
 -84.2291
 -84.3358
 -83.0679
 -82.9574
 -83.1281
 -82.9575
 -85.1535
 -85.1506
 -85.1107
 -85.1394
 -85.1242
 -85.1198
 -83.439
 -83.6769
 -83.588
 -83.85
 -83.9043
 -84.0023
 -83.9665
 -83.9794
 -80.283
 -80.5629
 -80.2492
 -83.1722
 -83.0289
 -82.8937
 -48.6385
 -47.9004
 -48.7141
 -48.1945
 -82.2815
 -82.3415
 -78.0659
 -78.3862
 -78.0704
 -77.3056
 -84.6021
 -84.5071
 -84.5886
 -84.4981
 -67.2239
 -69.1141
 -69.5485
 -68.3165
 -81.3293
 -81.2686
 -80.9853
 -85.0267
 -85.0294
 -85.0202
 -85.0052
 -80.6212
 -81.0106
 -80.4746
 -78.7006
 -78.8141
 -77.9752
 -78.383
 -82.866
 -82.7899
 -82.7879
 -83.0343
 -85.1179
 -85.1508
 -60.7724
 -61.542
 -81.9306
 -81.7286
 -84.059
 -83.9162
 -83.9803
 -83.9355
 -84.9498
 -84.9907
 -84.9598
 -84.9964
 -84.1027
 -84.1354
 -84.1921
 -84.2033
 -77.0662
 -75.6857
 -76.4948
 -76.5346
 -84.7484
 -84.6819
 -84.7
 -80.4406
 -80.1746
 -80.3091
 -80.2551
 -85.2365
 -85.2302
 -85.2416
 -85.2262
 -85.0144
 -85.0186
 -85.0294
 -84.9865
 -80.8959
 -81.0678
 -80.7906
 -83.9116
 -83.7094
 -83.8941
 -83.9439
 -78.0992
 -77.7715
 -78.0369
 -80.5832
 -81.139
 -80.9598
 -80.731
 -81.2273
 -81.1586
 -81.477
 -81.2535
 -84.0073
 -83.8488
 -83.8445
 -83.7582
 -85.2904
 -85.2883
 -85.2863
 -85.2873
 -84.8505
 -84.9002
 -84.8646
 -84.9103
 -83.7188
 -83.4807
 -83.6386
 -84.5375
 -84.5009
 -84.4786
 -85.2259
 -85.2045
 -85.225
 -85.2114
 -84.8242
 -84.8053
 -84.7805
 -84.845
 -83.6566
 -83.8233
 -83.7724
 -83.8577
 -76.5415
 -76.4811
 -80.8871
 -80.7378
 -81.039
 -81.0335
 -56.5513
 -56.0202
 -54.5885
 -56.0516
 -85.1099
 -85.1067
 -85.1138
 -85.0949
 -81.2482
 -80.906
 -80.9651
 -80.9354
 -84.1859
 -84.1073
 -84.1502
 -84.0027
 -74.5299
 -73.9528
 -74.1997
 -73.9732
 -84.5728
 -84.5544
 -84.5224
 -84.5069
 -83.7713
 -85.0336
 -85.0549
 -84.9964
 -85.004
 -83.6211
 -83.3679
 -83.3362
 -83.5058
 -83.226
 -83.3732
 -83.5321
 -83.4202
 -82.651
 -82.3516
 -82.3881
 -82.3665
 -80.2024
 -79.7552
 -80.4656
 -85.1673
 -85.1686
 -85.1699
 -85.139
 -83.3579
 -83.3096
 -83.313
 -83.2374
 -85.1458
 -85.1499
 -85.1673
 -85.0172
 -84.9832
 -85.0045
 -85.0013
 -85.1142
 -85.1515
 -85.133
 -85.1521
 -77.7742
 -78.4221
 -77.6222
 -45.735
 -46.0716
 -46.1578
 -84.9908
 -85.0212
 -85.0265
 -84.5873
 -84.7101
 -84.6624
 -84.749
 -83.0742
 -83.1309
 -83.2149
 -82.9544
 -83.7419
 -83.7454
 -83.5195
 -83.579
 -63.3324
 -64.2236
 -61.8454
 -64.503
 -84.1228
 -84.069
 -84.0426
 -84.0374
 -84.8286
 -84.8539
 -84.8607
 -84.7728
 -81.0346
 -81.1846
 -82.0638
 -81.559
 -81.8126
 -81.8566
 -85.0389
 -85.015
 -85.0364
 -85.0241
 -81.2219
 -81.5022
 -84.8859
 -84.859
 -77.5365
 -47.3861
 -47.2652
 -47.4159
 -48.1765
 -73.5852
 -74.7095
 -85.2944
 -85.2999
 -85.2952
 -75.978
 -76.767
 -77.4917
 -76.7956
 -85.0797
 -85.0678
 -82.1928
 -82.115
 -82.1527
 -82.1908
 -82.7309
 -83.1697
 -83.0527
 -85.0434
 -85.076
 -85.0558
 -85.0825
 -84.8693
 -84.9245
 -84.8907
 -84.905
 -85.2026
 -85.2066
 -85.2204
 -83.7808
 -83.6047
 -83.8074
 -83.5816
 -84.2468
 -85.1954
 -85.1811
 -85.1943
 -85.1933
 -78.7748
 -78.7205
 -78.8369
 -79.0569
 -84.5224
 -84.4056
 -84.4479
 -84.3484
 -85.1068
 -85.0804
 -85.1006
 -85.0787
 -52.1902
 -52.6488
 -53.1105
 -53.4546
 -80.7484
 -85.2755
 -83.2754
 -83.4968
 -83.3293
 -83.1392
 -84.3999
 -84.4426
 -84.3344
 -84.328
 -81.152
 -80.6656
 -80.9156
 -81.0713
 -84.6314
 -84.5992
 -84.6399
 -84.6539
 -80.5797
 -80.6299
 -80.8864
 -79.6233
 -79.9361
 -80.2182
 -79.9316
 -83.598
 -83.7074
 -83.4323
 -83.6022
 -85.1038
 -85.1117
 -85.0719
 -85.2971
 -85.3014
 -85.2973
 -85.2978
 -62.5662
 -61.619
 -61.1496
 -84.1549
 -84.1789
 -83.7287
 -83.7823
 -83.6352
 -83.8713
 -85.2603
 -85.2551
 -85.2621
 -85.2602
 -85.0001
 -84.972
 -84.9978
 -84.9694
 -80.0776
 -80.7162
 -80.3226
 -71.6177
 -83.5793
 -83.4255
 -83.4613
 -83.6145
 -83.9044
 -83.9555
 -83.9182
 -85.002
 -84.9869
 -84.9803
 -85.0128
 -85.138
 -85.1079
 -85.1282
 -85.1167
 -83.3106
 -83.2225
 -85.0544
 -85.0499
 -85.0742
 -85.0936
 -84.6939
 -84.6714
 -84.6745
 -84.7411
 -85.2859
 -85.2871
 -84.7306
 -84.6791
 -84.7648
 -84.7248
 -85.059
 -85.072
 -85.0836
 -85.0852
 -85.0207
 -85.0424
 -85.014
 -85.0236
 -84.1593
 -84.2015
 -83.7446
 -83.8308
 -83.6868
 -83.59
 -82.5029
 -82.2824
 -82.4291
 -82.4233
 -84.6204
 -84.6595
 -84.6786
 -84.5986
 -79.837
 -80.2083
 -80.3486
 -80.5347
 -81.1392
 -81.0756
 -80.9185
 -81.0905
 -59.2959
 -59.694
 -59.4303
 -58.1456
 -82.4668
 -82.082
 -84.4762
 -84.3632
 -84.4687
 -84.4009
 -83.3015
 -83.212
 -83.4126
 -83.5062
 -84.3038
 -84.3564
 -84.3776
 -84.3525
 -83.8475
 -83.8286
 -85.0094
 -84.9861
 -85.2948
 -85.2964
 -85.2956
 -85.2983
 -76.9178
 -83.7502
 -83.7515
 -83.8073
 -83.9104
 -84.4582
 -84.3375
 -84.3619
 -84.3428
 -81.9751
 -81.7759
 -81.6659
 -81.4166
 -84.9226
 -84.8753
 -84.935
 -84.8929
 -84.3012
 -84.2251
 -84.1809
 -84.2868
 -80.54
 -80.4518
 -80.6744
 -80.1064
 -79.9722
 -82.9625
 -83.2955
 -83.0229
 -83.2848
 -83.0491
 -83.4191
 -83.0738
 -82.9753
 -80.2776
 -80.2687
 -79.9348
 -80.2296
 -81.3001
 -81.4759
 -81.9313
 -81.7698
 -83.6948
 -83.8101
 -83.5399
 -83.5257
 -80.8067
 -80.6465
 -80.557
 -80.661
 -84.5874
 -84.6303
 -84.5114
 -82.4547
 -82.4422
 -82.4282
 -82.3448
 -69.6955
 -70.7029
 -84.5308
 -84.5815
 -84.6136
 -84.532
 -84.641
 -84.5898
 -84.63
 -78.4541
 -78.8255
 -79.0979
 -76.93
 -77.2529
 -77.2742
 -76.8766
 -84.864
 -84.865
 -84.8763
 -84.8046
 -84.4074
 -84.2622
 -84.4221
 -85.1633
 -85.146
 -85.1518
 -83.9591
 -83.8308
 -83.8623
 -85.1944
 -85.1996
 -85.1938
 -55.1432
 -54.2761
 -54.6135
 -55.1714
 -85.2877
 -85.2882
 -85.2867
 -85.2882
 -82.6349
 -82.4244
 -84.675
 -84.5498
 -79.7143
 -79.8333
 -79.813
 -80.2522
 -84.741
 -84.7429
 -84.8057
 -85.0288
 -85.0532
 -85.0536
 -85.0592
 -85.1787
 -85.1587
 -78.9855
 -79.0349
 -78.927
 -84.5602
 -84.5281
 -84.4539
 -81.9853
 -81.6164
 -81.948
 -78.2929
 -78.341
 -78.0439
 -77.7109
 -83.5829
 -83.6237
 -83.4604
 -83.6715
 -83.327
 -83.0848
 -83.1999
 -83.279
 -84.8621
 -84.835
 -84.8444
 -84.8944
 -85.0526
 -85.0451
 -85.0536
 -85.0266
 -82.9877
 -82.8502
 -83.1658
 -84.8653
 -84.8607
 -84.8261
 -85.0337
 -85.0538
 -85.0281
 -85.0257
 -85.3015
 -85.299
 -85.3036
 -84.2267
 -84.224
 -84.2157
 -84.9478
 -84.9649
 -84.9117
 -84.0394
 -84.1402
 -83.9615
 -82.2934
 -81.9482
 -81.9827
 -79.1275
 -79.4704
 -79.2334
 -79.2486
 -83.9452
 -84.1066
 -84.2469
 -84.1381
 -81.635
 -81.4361
 -81.1086
 -79.9883
 -80.389
 -84.9847
 -84.9612
 -85.0181
 -84.9818
 -84.9859
 -85.002
 -84.984
 -84.946
 -80.3465
 -80.7323
 -80.9238
 -81.0961
 -80.2917
 -79.9826
 -80.0813
 -79.913
 -73.5641
 -73.0904
 -73.668
 -72.7966
 -85.2321
 -85.2377
 -85.1718
 -85.1551
 -85.1603
 -85.1709
 -85.2741
 -82.2027
 -82.4695
 -82.0843
 -84.3289
 -84.3763
 -84.2728
 -84.2713
 -80.7549
 -80.6429
 -83.9264
 -83.9357
 -83.9897
 -78.1397
 -78.3872
 -85.1379
 -85.1438
 -85.1584
 -85.1325
 -85.1966
 -85.1961
 -85.2118
 -85.21
 -85.0967
 -85.0976
 -85.0671
 -82.5464
 -82.7327
 -82.7087
 -85.1631
 -85.1655
 -85.1715
 -85.178
 -81.7258
 -81.2137
 -81.6057
 -81.7603
 -85.1272
 -85.1126
 -85.1153
 -85.1284
 -81.6618
 -81.1398
 -81.0104
 -81.8182
 -78.5906
 -78.9003
 -78.2734
 -85.2802
 -85.2891
 -85.2831
 -85.2836
 -80.2982
 -80.39
 -80.3529
 -83.6328
 -83.74
 -83.7846
 -83.7189
 -85.2479
 -85.2571
 -85.2524
 -81.3027
 -80.9433
 -81.1459
 -80.8815
 -84.7997
 -85.2318
 -85.2351
 -85.2179
 -85.2308
 -78.322
 -78.4512
 -78.6973
 -78.4678
 -85.019
 -84.9621
 -85.0042
 -85.0217
 -84.3164
 -84.3689
 -84.161
 -78.5848
 -78.0339
 -78.6954
 -77.1605
 -84.9141
 -84.9207
 -84.9357
 -81.1737
 -81.0771
 -56.5786
 -55.5364
 -57.0659
 -57.5125
 -73.3084
 -71.308
 -70.9753
 -85.1695
 -85.161
 -85.2139
 -85.1964
 -85.1999
 -85.2033
 -75.8693
 -76.3703
 -75.1884
 -76.4171
 -83.3639
 -83.4811
 -83.488
 -83.491
 -83.9076
 -83.6976
 -83.7278
 -83.8193
 -84.3857
 -84.3642
 -84.4601
 -84.3434
 -84.5408
 -84.3934
 -84.5047
 -84.4404
 -85.2544
 -80.5032
 -80.3907
 -80.5281
 -80.4157
 -85.2657
 -85.2624
 -85.2701
 -84.6656
 -84.5689
 -84.5467
 -84.5786
 -78.8412
 -79.3699
 -79.4716
 -84.2784
 -84.1836
 -84.2732
 -84.1613
 -84.0785
 -84.854
 -84.8755
 -84.9063
 -84.8996
 -82.0568
 -82.0998
 -82.051
 -84.116
 -84.3401
 -84.3046
 -85.2635
 -85.2592
 -85.2544
 -85.2592
 -83.8719
 -83.7525
 -83.7635
 -52.8349
 -53.5318
 -52.1527
 -83.8857
 -83.7787
 -83.8381
 -83.6486
 -84.9082
 -84.9332
 -84.9451
 -84.2114
 -84.1906
 -85.2067
 -85.2082
 -85.1994
 -85.1986
 -85.1139
 -85.1292
 -85.1151
 -85.1184
 -85.2908
 -85.2901
 -85.2868
 -85.2854
 -84.5626
 -84.3853
 -84.5184
 -84.5588
 -84.9888
 -84.995
 -84.9734
 -84.941
 -85.2081
 -85.2157
 -85.2211
 -81.7535
 -81.946
 -81.4572
 -81.6049
 -83.634
 -83.7995
 -82.9394
 -82.7912
 -83.0071
 -82.8931
 -84.9615
 -84.9431
 -84.9592
 -84.9739
 -83.8983
 -84.0503
 -83.9632
 -83.8849
 -84.9745
 -84.9576
 -85.0144
 -84.9711
 -84.166
 -84.2182
 -84.2628
 -84.3074
 -84.098
 -83.9632
 -84.0017
 -85.1819
 -85.1716
 -85.1842
 -85.2483
 -85.2453
 -85.2429
 -85.2589
 -85.2478
 -85.2459
 -85.2525
 -85.0551
 -85.0786
 -85.0544
 -61.4577
 -60.6665
 -59.9656
 -83.6219
 -83.8145
 -83.6581
 -85.1761
 -85.1851
 -85.1802
 -85.1743
 -83.6039
 -83.682
 -83.593
 -84.5598
 -84.6309
 -84.5618
 -84.5351
 -84.767
 -84.621
 -84.6911
 -84.6619
 -84.1156
 -84.2026
 -84.2007
 -84.2923
 -80.9429
 -81.1928
 -80.9877
 -80.8647
 -83.6739
 -84.5643
 -84.5751
 -84.6187
 -84.4597
 -80.1954
 -80.2712
 -80.3183
 -80.2992
 -78.661
 -79.0889
 -78.7764
 -79.0055
 -80.2757
 -80.2447
 -80.3915
 -79.9887
 -84.8319
 -84.855
 -84.8846
 -84.9089
 -81.6602
 -81.4184
 -81.5768
 -81.6719
 -85.2672
 -85.2599
 -85.268
 -85.2615
 -70.7465
 -71.2874
 -72.1984
 -71.9341
 -80.9415
 -80.9679
 -80.9136
 -77.7617
 -77.4573
 -77.3131
 -77.3224
 -79.333
 -79.0532
 -79.6538
 -80.5716
 -80.6104
 -84.3191
 -84.2991
 -84.3522
 -84.5226
 -85.2596
 -85.2506
 -85.2463
 -85.2505
 -85.2488
 -85.253
 -85.2464
 -80.8671
 -80.6637
 -85.2621
 -85.2673
 -85.2599
 -85.1846
 -85.18
 -85.1803
 -85.1979
 -79.4071
 -79.213
 -79.3786
 -85.2884
 -85.289
 -85.286
 -85.2916
 -82.5698
 -82.6506
 -82.8198
 -82.4429
 -80.4305
 -79.8381
 -80.0088
 -80.434
 -77.6441
 -78.4121
 -78.0907
 -77.945
 -66.4245
 -66.552
 -65.7087
 -65.6504
 -84.7078
 -84.8186
 -84.7878
 -84.778
 -82.9363
 -82.9784
 -82.8601
 -82.5915
 -85.28
 -85.2781
 -85.2803
 -50.8826
 -52.1918
 -51.4587
 -52.774
 -73.4638
 -74.6743
 -73.833
 -74.8978
 -85.2846
 -85.2896
 -85.2876
 -85.2868
 -84.2292
 -84.2462
 -84.3533
 -85.2268
 -85.2401
 -85.2433
 -80.1459
 -80.0383
 -79.3671
 -85.2794
 -85.2795
 -85.2761
 -85.2773
 -85.1531
 -85.1394
 -85.1326
 -85.1238
 -81.9756
 -82.1589
 -82.3571
 -82.1067
 -83.0212
 -82.7794
 -82.9532
 -82.6347
 -85.1249
 -85.125
 -85.1207
 -85.143
 -84.4604
 -84.4114
 -84.3274
 -84.3846
 -68.486
 -69.8038
 -70.0536
 -69.4659
 -85.196
 -85.171
 -85.1872
 -85.1781
 -85.2874
 -84.1185
 -84.1551
 -84.2373
 -84.2286
 -85.2397
 -85.2463
 -85.2418
 -85.2525
 -80.3547
 -80.3681
 -80.388
 -80.4159
 -85.2672
 -85.2715
 -85.2631
 -85.2608
 -83.994
 -83.9311
 -83.0826
 -82.967
 -83.1715
 -83.1966
 -85.0757
 -85.0478
 -85.0425
 -85.0519
 -84.5164
 -84.592
 -84.5464
 -82.8641
 -82.8365
 -82.9129
 -85.1089
 -85.0984
 -85.0769
 -85.0852
 -84.9532
 -84.9336
 -84.9696
 -84.9357
 -80.7251
 -80.5575
 -80.4294
 -84.0724
 -84.3466
 -84.36
 -84.1901
 -71.9238
 -70.6777
 -72.0262
 -70.2536
 -69.0898
 -85.2758
 -85.2589
 -85.2755
 -85.2673
 -84.3276
 -84.2493
 -84.2035
 -84.3234
 -85.1896
 -85.1991
 -83.6564
 -83.3862
 -83.4511
 -81.778
 -81.4978
 -81.9187
 -81.8384
 -85.2735
 -85.2689
 -85.2775
 -85.2756
 -80.699
 -80.7648
 -80.7455
 -82.0818
 -82.0056
 -82.2461
 -82.0307
 -82.8762
 -83.1772
 -82.931
 -82.6171
 -84.9344
 -84.9868
 -84.9304
 -84.9567
 -81.4575
 -81.8497
 -81.6582
 -81.5844
 -85.04
 -84.7861
 -84.85
 -84.8654
 -84.755
 -85.2431
 -85.2465
 -85.2336
 -85.2639
 -85.2622
 -85.2613
 -85.2563
 -84.8094
 -84.8504
 -84.7872
 -84.825
 -85.2894
 -85.2878
 -85.2863
 -85.2806
 -82.9653
 -84.5432
 -84.4158
 -84.4437
 -84.5214
 -84.3207
 -84.1183
 -84.2438
 -84.2417
 -66.828
 -68.3548
 -68.8264
 -67.3203
 -83.7333
 -83.7742
 -83.8287
 -83.6395
 -83.6458
 -83.6387
 -83.6913
 -83.8114
 -83.826
 -83.8338
 -83.9893
 -85.2198
 -85.2122
 -85.2079
 -83.6571
 -83.4009
 -83.4739
 -83.5364
 -85.1814
 -85.1974
 -85.1912
 -84.0518
 -83.905
 -84.4387
 -84.5067
 -84.477
 -84.2907
 -84.2386
 -84.2687
 -84.2896
 -84.3107
 -84.4454
 -84.4051
 -85.2412
 -85.2438
 -85.2438
 -82.9577
 -85.2645
 -84.4736
 -84.526
 -84.4394
 -84.3858
 -78.7816
 -78.6289
 -78.0639
 -80.2929
 -80.7115
 -81.0313
 -84.3786
 -84.4314
 -84.2985
 -83.8927
 -83.8982
 -83.9343
 -84.0219
 -84.3198
 -84.2202
 -84.4047
 -84.2587
 -52.0253
 -52.3827
 -51.1722
 -85.101
 -85.0795
 -85.0916
 -84.0711
 -84.0958
 -85.1292
 -85.1131
 -85.1237
 -85.1044
 -84.5748
 -84.64
 -84.5629
 -66.6862
 -67.689
 -65.787
 -66.3273
 -83.5195
 -83.3471
 -83.5658
 -83.1868
 -81.1362
 -81.0078
 -80.8591
 -80.7872
 -84.9123
 -84.8459
 -84.8899
 -84.9134
 -82.591
 -82.2403
 -82.553
 -82.122
 -71.3455
 -71.1733
 -71.3639
 -82.8009
 -82.7296
 -82.6021
 -82.6778
 -84.8923
 -84.9405
 -84.912
 -84.9321
 -84.2181
 -84.3582
 -84.3494
 -84.2887
 -81.7324
 -81.613
 -81.7924
 -83.4259
 -83.2565
 -83.3228
 -83.3123
 -80.6558
 -80.173
 -80.6755
 -80.3111
 -77.1802
 -78.0077
 -77.5282
 -76.7813
 -85.2818
 -85.2828
 -85.2795
 -85.2822
 -80.7495
 -80.9959
 -80.929
 -81.0045
 -81.5232
 -81.2989
 -81.5747
 -81.6029
 -84.8632
 -84.9012
 -84.9092
 -84.9332
 -82.3465
 -82.3696
 -82.6293
 -82.4354
 -85.3015
 -85.3005
 -85.3006
 -85.303
 -83.8768
 -83.8055
 -83.9568
 -79.41
 -79.0676
 -79.1709
 -79.6553
 -80.621
 -80.4939
 -80.5669
 -80.4766
 -80.1684
 -79.3065
 -85.0296
 -84.983
 -85.019
 -84.9709
 -85.3059
 -85.3046
 -85.3058
 -85.3052
 -83.2451
 -83.0513
 -83.1311
 -83.0181
 -81.0797
 -80.9222
 -80.8924
 -84.903
 -84.8484
 -84.8606
 -84.8895
 -83.6677
 -83.7207
 -83.6503
 -83.9004
 -81.7629
 -81.8539
 -81.7454
 -81.9978
 -78.9689
 -79.6157
 -79.2504
 -85.0917
 -85.1185
 -85.1284
 -85.0958
 -85.2096
 -85.1994
 -85.1941
 -83.1933
 -83.0483
 -83.2229
 -83.426
 -83.4184
 -83.389
 -83.5786
 -81.526
 -81.9681
 -82.1684
 -81.9084
 -84.8608
 -84.8133
 -84.8001
 -80.1691
 -80.0942
 -79.7138
 -84.1834
 -84.2788
 -84.267
 -85.1941
 -85.1811
 -85.1989
 -84.9442
 -84.9432
 -82.7982
 -82.933
 -82.6852
 -82.8784
 -82.9558
 -82.8594
 -84.0174
 -83.8414
 -81.6481
 -78.4183
 -78.4666
 -78.0463
 -85.1859
 -85.1872
 -85.1642
 -83.1283
 -83.324
 -83.2616
 -83.1425
 -82.1651
 -84.1596
 -84.2069
 -84.9142
 -84.9415
 -84.8977
 -84.9482
 -84.1086
 -84.052
 -84.1746
 -83.2405
 -83.3481
 -83.0504
 -83.2081
 -82.7514
 -83.1154
 -83.6424
 -83.4654
 -83.3284
 -83.675
 -85.2307
 -85.2189
 -85.2168
 -85.2273
 -85.246
 -85.2505
 -85.2554
 -85.257
 -80.2183
 -80.5356
 -83.9534
 -84.0451
 -83.9479
 -83.7966
 -84.6316
 -84.6502
 -84.6943
 -84.7175
 -84.736
 -84.7888
 -84.7508
 -84.7284
 -84.0329
 -83.9092
 -83.8694
 -84.0295
 -83.6671
 -83.8017
 -83.7067
 -83.6595
 -85.193
 -85.1726
 -85.1949
 -85.1929
 -80.0982
 -80.5326
 -80.8512
 -81.0464
 -80.6313
 -81.0444
 -80.8559
 -85.0964
 -85.1142
 -85.1385
 -85.1524
 -81.7005
 -81.9434
 -81.825
 -82.0054
 -85.2741
 -85.2687
 -85.2729
 -85.2723
 -85.22
 -85.2139
 -85.22
 -85.2085
 -83.0239
 -83.1373
 -82.953
 -83.0465
 -84.9702
 -84.9856
 -84.9762
 -84.9335
 -81.9309
 -82.071
 -82.2956
 -82.3462
 -85.1162
 -85.0995
 -85.102
 -80.7607
 -80.9702
 -80.7064
 -80.8279
 -84.7518
 -84.7141
 -84.7628
 -84.7868
 -82.7593
 -82.8165
 -85.0638
 -85.113
 -85.0908
 -85.0909
 -85.1437
 -85.138
 -85.1203
 -83.8171
 -84.0235
 -83.8577
 -85.1517
 -85.1557
 -85.1644
 -85.1717
 -72.639
 -72.8196
 -73.6291
 -73.53
 -81.6642
 -81.8373
 -81.9888
 -82.1605
 -84.7086
 -84.6139
 -84.6273
 -84.7022
 -85.2269
 -85.2333
 -85.2242
 -85.2364
 -85.2049
 -85.2165
 -85.2163
 -85.2095
 -85.2094
 -85.2019
 -85.2105
 -85.2285
 -85.234
 -82.1084
 -82.2575
 -82.0575
 -82.335
 -80.6361
 -80.7196
 -80.1528
 -80.5785
 -82.2746
 -82.2755
 -82.8852
 -83.1327
 -82.9604
 -82.8624
 -83.487
 -83.4565
 -83.6519
 -83.4521
 -81.3683
 -81.3755
 -81.1142
 -84.1957
 -84.1204
 -84.1311
 -84.1
 -85.3071
 -85.3062
 -85.3031
 -82.2003
 -82.079
 -82.2175
 -82.5395
 -85.1063
 -85.0713
 -85.0901
 -85.099
 -84.9048
 -84.9418
 -84.9174
 -84.0271
 -83.954
 -84.0755
 -84.9901
 -85.0278
 -85
 -85.1885
 -85.1826
 -84.9394
 -84.9391
 -84.9333
 -81.9331
 -82.0506
 -82.1009
 -81.788
 -85.2526
 -85.2582
 -85.2548
 -85.252
 -84.7805
 -84.821
 -84.8083
 -63.1769
 -61.4306
 -60.7755
 -62.7565
 -78.3811
 -78.0723
 -84.5063
 -82.9235
 -83.2737
 -83.0365
 -82.9209
 -84.3668
 -84.4877
 -84.486
 -85.1165
 -85.1143
 -85.0975
 -85.1207
 -85.2826
 -85.2835
 -84.1314
 -84.0964
 -84.1008
 -83.9947
 -77.2972
 -76.3655
 -76.4184
 -77.0041
 -85.2179
 -85.2239
 -85.2248
 -85.2195
 -84.6102
 -84.6447
 -84.5883
 -53.3285
 -52.5668
 -51.9105
 -52.0032
 -80.7423
 -80.6636
 -80.4461
 -82.2697
 -82.5336
 -82.0517
 -82.3375
 -84.7194
 -84.7343
 -84.7086
 -84.7849
 -84.0804
 -84.1651
 -80.0943
 -80.1713
 -80.1458
 -80.1604
 -84.6842
 -84.7455
 -82.5271
 -82.0446
 -82.1394
 -82.3107
 -83.2107
 -83.2867
 -83.0581
 -83.2281
 -84.2027
 -84.3366
 -84.3407
 -84.2557
 -81.8291
 -81.6326
 -81.217
 -84.8683
 -84.8273
 -84.8852
 -84.8232
 -85.1008
 -85.1227
 -85.1382
 -85.1132
 -85.0604
 -85.0698
 -85.0789
 -85.0861
 -76.2361
 -75.5282
 -75.8051
 -75.0666
 -84.2674
 -84.1754
 -59.1047
 -58.0537
 -58.0917
 -57.0408
 -83.2882
 -83.1121
 -82.9729
 -85.2579
 -48.3867
 -48.794
 -48.8954
 -47.4829
 -83.7606
 -83.8018
 -83.7219
 -83.7211
 -82.7903
 -83.0229
 -82.8262
 -85.0586
 -85.0871
 -85.0791
 -85.0619
 -85.0752
 -85.0632
 -85.0953
 -85.0974
 -85.0184
 -85.0413
 -85.0143
 -84.9986
 -82.0987
 -82.317
 -81.9685
 -82.2829
 -80.0506
 -79.881
 -79.4718
 -79.5894
 -84.7798
 -84.7959
 -84.8434
 -84.7855
 -83.3397
 -83.0016
 -83.4627
 -83.2911
 -85.301
 -85.2307
 -85.2296
 -84.6333
 -84.6406
 -83.3053
 -83.1406
 -83.1959
 -85.2425
 -85.2542
 -85.2486
 -85.2441
 -83.6375
 -83.5716
 -84.6991
 -84.6366
 -66.502
 -68.0969
 -66.5086
 -68.1262
 -82.0469
 -81.9126
 -81.7047
 -81.8188
 -84.6626
 -84.7471
 -84.6927
 -84.7089
 -68.8722
 -67.7316
 -68.7549
 -69.2605
 -85.2772
 -85.2753
 -85.2821
 -85.279
 -85.2395
 -85.2307
 -85.2651
 -85.2587
 -85.2505
 -85.2664
 -85.1291
 -85.1456
 -82.8757
 -82.9352
 -82.7243
 -49.6228
 -50.6795
 -49.3194
 -49.5483
 -70.7159
 -71.5521
 -71.8309
 -70.9173
 -85.2473
 -85.2529
 -85.2469
 -85.2437
 -84.9576
 -84.9946
 -84.964
 -84.4169
 -84.3014
 -84.2317
 -84.3315
 -82.3661
 -82.7942
 -82.4161
 -82.3332
 -85.1667
 -85.1789
 -85.1834
 -85.2484
 -84.2001
 -84.354
 -81.6058
 -81.7293
 -84.9165
 -84.9779
 -84.9172
 -84.9382
 -79.9509
 -79.3743
 -80.1242
 -79.3659
 -80.1059
 -79.7115
 -79.8519
 -51.7375
 -53.3992
 -52.9096
 -52.6979
 -82.1395
 -82.3319
 -82.3434
 -82.5587
 -85.2006
 -85.2029
 -85.1665
 -85.1775
 -85.1769
 -85.177
 -81.8104
 -81.769
 -82.0599
 -81.6692
 -85.0881
 -85.0742
 -85.098
 -84.9611
 -84.9708
 -84.9692
 -84.9322
 -85.1738
 -85.1751
 -85.1592
 -85.1826
 -82.4687
 -82.7385
 -82.6448
 -82.4942
 -85.2671
 -85.2587
 -83.6562
 -63.5063
 -64.4051
 -65.01
 -65.811
 -85.0625
 -85.0643
 -85.0816
 -71.4154
 -70.4644
 -70.5324
 -70.0348
 -84.8536
 -84.847
 -84.8275
 -84.8738
 -79.5359
 -79.5162
 -79.0643
 -79.6141
 -81.353
 -81.2357
 -81.4941
 -81.5208
 -84.8278
 -84.8579
 -84.8492
 -82.9661
 -83.0258
 -82.9352
 -82.7658
 -84.8393
 -84.8109
 -84.8542
 -84.762
 -84.5268
 -84.5064
 -85.0863
 -85.095
 -85.0964
 -84.952
 -84.9576
 -84.9044
 -63.8279
 -64.0678
 -65.4203
 -64.1612
 -80.2732
 -80.6165
 -80.0718
 -80.744
 -85.1647
 -85.1399
 -85.1501
 -85.1476
 -85.1653
 -85.1652
 -81.3893
 -82.0824
 -81.4615
 -84.9674
 -84.9274
 -84.9488
 -84.9179
 -84.9571
 -84.9527
 -84.9318
 -82.2616
 -82.1175
 -82.3043
 -82.3315
 -85.2351
 -85.2399
 -83.0516
 -82.9687
 -83.0487
 -83.2222
 -82.0333
 -82.0685
 -82.1828
 -85.0127
 -85.0245
 -84.0358
 -83.927
 -84.1015
 -84.155
 -80.3679
 -80.2736
 -84.8377
 -84.8407
 -83.128
 -82.7105
 -82.7386
 -82.986
 -84.2346
 -84.2232
 -84.1692
 -84.3218
 -84.2257
 -84.1643
 -84.2468
 -74.5185
 -74.3671
 -74.0708
 -75.7805
 -70.4294
 -70.585
 -71.397
 -71.3921
 -84.8752
 -84.8334
 -84.781
 -84.8311
