 -85.7797
 -85.7817
 -85.7812
 -85.7823
 -85.8128
 -85.8131
 -85.8138
 -85.8143
 -85.8052
 -85.8041
 -85.8055
 -85.8044
 -85.8066
 -85.8055
 -85.8052
 -85.8046
 -85.8247
 -85.8254
 -85.8241
 -85.8238
 -85.823
 -85.8222
 -85.8236
 -85.8225
 -85.7724
 -85.7713
 -85.7716
 -85.7724
 -85.7742
 -85.7746
 -85.7746
 -85.7739
 -85.8229
 -85.8224
 -85.8215
 -85.8224
 -85.8226
 -85.8228
 -85.8224
 -85.8238
 -85.768
 -85.7672
 -85.7683
 -85.7686
 -85.8046
 -85.8048
 -85.8036
 -85.8043
 -85.786
 -85.7859
 -85.7849
 -85.787
 -85.8148
 -85.8133
 -85.8126
 -85.8138
 -85.7995
 -85.799
 -85.7998
 -85.8007
 -85.7764
 -85.7754
 -85.7772
 -85.7755
 -85.8202
 -85.8208
 -85.82
 -85.821
 -85.8078
 -85.807
 -85.8081
 -85.8073
 -85.8003
 -85.8008
 -85.8009
 -85.8017
 -85.8183
 -85.8184
 -85.8189
 -85.8196
 -85.7736
 -85.772
 -85.7737
 -85.7726
 -85.8265
 -85.8267
 -85.8275
 -85.8274
 -85.7493
 -85.7484
 -85.748
 -85.7495
 -85.8119
 -85.8123
 -85.8111
 -85.8109
 -85.798
 -85.797
 -85.798
 -85.7986
 -85.8025
 -85.8028
 -85.8022
 -85.8018
 -85.7926
 -85.794
 -85.7948
 -85.7927
 -85.7757
 -85.7747
 -85.7759
 -85.7756
 -85.7855
 -85.7851
 -85.784
 -85.7848
 -85.8136
 -85.8135
 -85.8129
 -85.8121
 -85.7986
 -85.8004
 -85.7982
 -85.799
 -85.7862
 -85.7873
 -85.7872
 -85.7862
 -85.8098
 -85.8086
 -85.8101
 -85.8088
 -85.8128
 -85.8123
 -85.8122
 -85.8125
 -85.7866
 -85.7855
 -85.7869
 -85.7848
 -85.7782
 -85.778
 -85.7778
 -85.7779
 -85.8086
 -85.8069
 -85.8084
 -85.808
 -85.7671
 -85.7679
 -85.768
 -85.7686
 -85.8103
 -85.8104
 -85.8123
 -85.8117
 -85.8282
 -85.8275
 -85.828
 -85.8273
 -85.8038
 -85.8036
 -85.8042
 -85.8024
 -85.8127
 -85.8137
 -85.8131
 -85.813
 -85.7702
 -85.7699
 -85.771
 -85.7693
 -85.808
 -85.8072
 -85.8075
 -85.8088
 -85.8226
 -85.8224
 -85.8233
 -85.8229
 -85.7829
 -85.7839
 -85.7835
 -85.783
 -85.8088
 -85.8104
 -85.8099
 -85.81
 -85.777
 -85.7782
 -85.777
 -85.7757
 -85.7878
 -85.787
 -85.7866
 -85.786
 -85.8006
 -85.7996
 -85.7993
 -85.7986
 -85.775
 -85.7745
 -85.7741
 -85.775
 -85.8015
 -85.8005
 -85.8005
 -85.8014
 -85.7893
 -85.7876
 -85.7892
 -85.7871
 -85.804
 -85.8047
 -85.8039
 -85.8047
 -85.7846
 -85.7858
 -85.7851
 -85.7867
 -85.8041
 -85.8039
 -85.805
 -85.8032
 -85.8107
 -85.8109
 -85.8115
 -85.8121
 -85.8124
 -85.8118
 -85.8124
 -85.8107
 -85.7829
 -85.783
 -85.7812
 -85.7837
 -85.7917
 -85.791
 -85.7913
 -85.7929
 -85.7521
 -85.7511
 -85.7503
 -85.7513
 -85.7854
 -85.7853
 -85.784
 -85.785
 -85.7988
 -85.8005
 -85.7998
 -85.8001
 -85.7901
 -85.7898
 -85.7916
 -85.7888
 -85.7893
 -85.7909
 -85.7892
 -85.7907
 -85.7754
 -85.7747
 -85.7758
 -85.7758
 -85.8193
 -85.8204
 -85.8208
 -85.8192
 -85.8248
 -85.8251
 -85.8254
 -85.8256
 -85.8016
 -85.8031
 -85.8005
 -85.8014
 -85.7858
 -85.7855
 -85.7866
 -85.7851
 -85.8101
 -85.8107
 -85.8114
 -85.81
 -85.7736
 -85.7713
 -85.772
 -85.7719
 -85.7732
 -85.772
 -85.7718
 -85.7734
 -85.7501
 -85.7492
 -85.7506
 -85.7504
 -85.8046
 -85.8058
 -85.8052
 -85.8064
 -85.7822
 -85.7837
 -85.784
 -85.7823
 -85.7796
 -85.7784
 -85.7798
 -85.7806
 -85.8258
 -85.8266
 -85.8263
 -85.8267
 -85.7779
 -85.7774
 -85.7764
 -85.7777
 -85.78
 -85.7794
 -85.7784
 -85.7799
 -85.7822
 -85.7832
 -85.7822
 -85.7811
 -85.7943
 -85.794
 -85.7952
 -85.7949
 -85.7806
 -85.7821
 -85.7811
 -85.7815
 -85.7876
 -85.7885
 -85.7888
 -85.788
 -85.7916
 -85.7912
 -85.7907
 -85.7902
 -85.7773
 -85.7759
 -85.7778
 -85.7762
 -85.7462
 -85.7458
 -85.748
 -85.748
 -85.7746
 -85.775
 -85.7759
 -85.7752
 -85.8052
 -85.8045
 -85.8058
 -85.8037
 -85.8056
 -85.8051
 -85.8063
 -85.8052
 -85.812
 -85.8116
 -85.8112
 -85.8127
 -85.7732
 -85.773
 -85.7733
 -85.7738
 -85.827
 -85.827
 -85.8264
 -85.8275
 -85.8115
 -85.8125
 -85.8114
 -85.8117
 -85.7681
 -85.7681
 -85.7668
 -85.7668
 -85.7882
 -85.7882
 -85.7876
 -85.79
 -85.7795
 -85.7802
 -85.7784
 -85.7791
 -85.7799
 -85.7792
 -85.7793
 -85.7738
 -85.7736
 -85.7736
 -85.7731
 -85.8079
 -85.8072
 -85.8065
 -85.8084
 -85.7926
 -85.7944
 -85.7937
 -85.7927
 -85.8064
 -85.8077
 -85.8067
 -85.7854
 -85.7836
 -85.7847
 -85.784
 -85.7966
 -85.7974
 -85.7971
 -85.7957
 -85.8175
 -85.8164
 -85.8164
 -85.8182
 -85.7738
 -85.7741
 -85.776
 -85.7752
 -85.7776
 -85.7766
 -85.776
 -85.7768
 -85.8051
 -85.8038
 -85.8034
 -85.8039
 -85.8104
 -85.8097
 -85.8116
 -85.8114
 -85.7701
 -85.7701
 -85.7695
 -85.7685
 -85.7767
 -85.777
 -85.7791
 -85.7785
 -85.7907
 -85.7923
 -85.7931
 -85.7909
 -85.823
 -85.8238
 -85.8233
 -85.8236
 -85.8047
 -85.806
 -85.8063
 -85.8058
 -85.7968
 -85.7947
 -85.7967
 -85.7967
 -85.7545
 -85.7526
 -85.7547
 -85.7545
 -85.7943
 -85.793
 -85.7947
 -85.7956
 -85.8172
 -85.816
 -85.8172
 -85.8155
 -85.7812
 -85.7792
 -85.7822
 -85.7814
 -85.7783
 -85.7786
 -85.7773
 -85.7781
 -85.7778
 -85.7764
 -85.7767
 -85.7771
 -85.766
 -85.7659
 -85.7659
 -85.7664
 -85.7796
 -85.7776
 -85.7777
 -85.7777
 -85.8057
 -85.8055
 -85.8057
 -85.8047
 -85.7719
 -85.7725
 -85.773
 -85.7734
 -85.8221
 -85.8213
 -85.8218
 -85.8221
 -85.7728
 -85.7711
 -85.7714
 -85.7726
 -85.817
 -85.8154
 -85.817
 -85.816
 -85.7937
 -85.7925
 -85.7925
 -85.7934
 -85.7881
 -85.7893
 -85.7898
 -85.7884
 -85.7838
 -85.784
 -85.7855
 -85.7842
 -85.7813
 -85.7812
 -85.7803
 -85.7798
 -85.8264
 -85.827
 -85.8272
 -85.8272
 -85.7825
 -85.7818
 -85.7825
 -85.782
 -85.8283
 -85.8277
 -85.828
 -85.8272
 -85.8109
 -85.8106
 -85.8121
 -85.811
 -85.7596
 -85.7613
 -85.761
 -85.7594
 -85.8238
 -85.8236
 -85.8244
 -85.8247
 -85.7765
 -85.7781
 -85.7768
 -85.7756
 -85.7582
 -85.7574
 -85.757
 -85.758
 -85.8151
 -85.8149
 -85.8143
 -85.8149
 -85.825
 -85.8258
 -85.8253
 -85.8251
 -85.8002
 -85.8006
 -85.7999
 -85.7997
 -85.8133
 -85.812
 -85.8136
 -85.8124
 -85.7796
 -85.778
 -85.7788
 -85.7786
 -85.8032
 -85.8027
 -85.8032
 -85.8045
 -85.7875
 -85.7867
 -85.7879
 -85.788
 -85.7746
 -85.7751
 -85.7744
 -85.7743
 -85.7687
 -85.7686
 -85.7684
 -85.7696
 -85.793
 -85.7925
 -85.7939
 -85.7921
 -85.7968
 -85.7969
 -85.7964
 -85.7955
 -85.7787
 -85.7785
 -85.7795
 -85.78
 -85.7787
 -85.7771
 -85.7787
 -85.7784
 -85.807
 -85.8073
 -85.8063
 -85.8063
 -85.8232
 -85.8229
 -85.824
 -85.8241
 -85.8217
 -85.8209
 -85.8218
 -85.8221
 -85.8212
 -85.8199
 -85.8202
 -85.8208
 -85.8082
 -85.8076
 -85.8086
 -85.8073
 -85.7785
 -85.7769
 -85.7782
 -85.7777
 -85.7792
 -85.78
 -85.7804
 -85.7807
 -85.7964
 -85.7959
 -85.7939
 -85.794
 -85.811
 -85.8102
 -85.8122
 -85.8115
 -85.8106
 -85.8099
 -85.8103
 -85.8112
 -85.801
 -85.7999
 -85.8006
 -85.8008
 -85.8045
 -85.8055
 -85.804
 -85.8044
 -85.7695
 -85.7692
 -85.7698
 -85.7711
 -85.7392
 -85.7382
 -85.7393
 -85.7374
 -85.7819
 -85.7816
 -85.78
 -85.7809
 -85.7449
 -85.7469
 -85.7464
 -85.7819
 -85.7817
 -85.7825
 -85.7808
 -85.8183
 -85.8176
 -85.8181
 -85.8173
 -85.7997
 -85.8004
 -85.8006
 -85.8017
 -85.8231
 -85.8226
 -85.8237
 -85.8225
 -85.7784
 -85.7786
 -85.7772
 -85.7784
 -85.8091
 -85.8087
 -85.8105
 -85.8101
 -85.8012
 -85.8012
 -85.7997
 -85.8003
 -85.8255
 -85.8259
 -85.8262
 -85.825
 -85.816
 -85.8158
 -85.8162
 -85.8174
 -85.7819
 -85.7833
 -85.7824
 -85.7819
 -85.8089
 -85.8087
 -85.8075
 -85.8088
 -85.8176
 -85.8158
 -85.8169
 -85.816
 -85.758
 -85.756
 -85.757
 -85.7562
 -85.799
 -85.7996
 -85.8002
 -85.8004
 -85.8174
 -85.8176
 -85.8183
 -85.8174
 -85.806
 -85.8071
 -85.805
 -85.8076
 -85.8159
 -85.8147
 -85.8161
 -85.8159
 -85.7792
 -85.7804
 -85.7811
 -85.7811
 -85.8157
 -85.818
 -85.8157
 -85.8176
 -85.7916
 -85.7924
 -85.79
 -85.7914
 -85.7949
 -85.7956
 -85.7965
 -85.7946
 -85.8156
 -85.8155
 -85.8145
 -85.8161
 -85.8281
 -85.8276
 -85.8277
 -85.8281
 -85.7696
 -85.7704
 -85.771
 -85.7714
 -85.7868
 -85.7878
 -85.7886
 -85.7871
 -85.803
 -85.8023
 -85.8016
 -85.802
 -85.8158
 -85.8166
 -85.8164
 -85.8166
 -85.7831
 -85.782
 -85.7824
 -85.7825
 -85.7718
 -85.7733
 -85.774
 -85.772
 -85.8099
 -85.8099
 -85.8085
 -85.8085
 -85.8059
 -85.807
 -85.8059
 -85.8063
 -85.8242
 -85.8248
 -85.8254
 -85.8242
 -85.7753
 -85.7769
 -85.7749
 -85.7763
 -85.8249
 -85.8257
 -85.8255
 -85.825
 -85.7857
 -85.7874
 -85.7865
 -85.7859
 -85.7405
 -85.7401
 -85.7407
 -85.7413
 -85.8204
 -85.8211
 -85.8216
 -85.8212
 -85.808
 -85.8088
 -85.8074
 -85.806
 -85.8214
 -85.8214
 -85.8208
 -85.8206
 -85.7963
 -85.7947
 -85.7958
 -85.7965
 -85.7931
 -85.794
 -85.7943
 -85.7934
 -85.814
 -85.8126
 -85.813
 -85.8131
 -85.7784
 -85.779
 -85.7778
 -85.7787
 -85.7762
 -85.777
 -85.7771
 -85.7766
 -85.7514
 -85.7506
 -85.7506
 -85.7502
 -85.8011
 -85.8021
 -85.8026
 -85.8032
 -85.7973
 -85.7965
 -85.7986
 -85.7972
 -85.8062
 -85.8043
 -85.8055
 -85.8066
 -85.787
 -85.7888
 -85.7889
 -85.7866
 -85.8233
 -85.8231
 -85.8238
 -85.8224
 -85.825
 -85.8262
 -85.825
 -85.8247
 -85.8071
 -85.8077
 -85.8089
 -85.8089
 -85.7301
 -85.7299
 -85.7304
 -85.7311
 -85.7913
 -85.7905
 -85.7916
 -85.7897
 -85.7924
 -85.792
 -85.7905
 -85.792
 -85.7914
 -85.7916
 -85.79
 -85.79
 -85.8145
 -85.814
 -85.8154
 -85.8137
 -85.7559
 -85.7575
 -85.7547
 -85.7557
 -85.7484
 -85.7485
 -85.7469
 -85.7466
 -85.8147
 -85.8137
 -85.8147
 -85.8134
 -85.7844
 -85.786
 -85.7837
 -85.7859
 -85.7899
 -85.7899
 -85.7904
 -85.7904
 -85.8071
 -85.8062
 -85.806
 -85.8047
 -85.7773
 -85.778
 -85.7786
 -85.7779
 -85.8164
 -85.815
 -85.8154
 -85.8162
 -85.7873
 -85.7847
 -85.7861
 -85.7842
 -85.7849
 -85.7847
 -85.7834
 -85.7846
 -85.7719
 -85.771
 -85.7725
 -85.7706
 -85.791
 -85.7929
 -85.7916
 -85.7931
 -85.8183
 -85.8189
 -85.8189
 -85.818
 -85.8087
 -85.8102
 -85.8107
 -85.8093
 -85.7768
 -85.7766
 -85.7779
 -85.7778
 -85.7825
 -85.7842
 -85.7843
 -85.7825
 -85.822
 -85.8223
 -85.8228
 -85.8227
 -85.8158
 -85.815
 -85.8156
 -85.8151
 -85.7925
 -85.792
 -85.7911
 -85.7919
 -85.7728
 -85.773
 -85.773
 -85.7734
 -85.7621
 -85.7645
 -85.7641
 -85.7624
 -85.8073
 -85.806
 -85.8053
 -85.8067
 -85.7728
 -85.7713
 -85.7726
 -85.7696
 -85.8193
 -85.8182
 -85.8181
 -85.8192
 -85.8034
 -85.8052
 -85.8041
 -85.8029
 -85.8183
 -85.818
 -85.8176
 -85.8178
 -85.8101
 -85.8088
 -85.8088
 -85.8095
 -85.7922
 -85.7915
 -85.7921
 -85.7931
 -85.7794
 -85.7773
 -85.7778
 -85.7787
 -85.7645
 -85.7669
 -85.7647
 -85.7649
 -85.7699
 -85.7678
 -85.77
 -85.7695
 -85.7786
 -85.7768
 -85.7765
 -85.7772
 -85.795
 -85.7954
 -85.7952
 -85.793
 -85.7954
 -85.7957
 -85.7961
 -85.7945
 -85.797
 -85.7957
 -85.798
 -85.7966
 -85.8078
 -85.807
 -85.8082
 -85.808
 -85.756
 -85.7543
 -85.7547
 -85.7546
 -85.8008
 -85.8011
 -85.8005
 -85.8018
 -85.7765
 -85.7749
 -85.7756
 -85.776
 -85.7896
 -85.7914
 -85.7902
 -85.7913
 -85.8243
 -85.8229
 -85.8241
 -85.8238
 -85.7942
 -85.7934
 -85.7934
 -85.7928
 -85.7734
 -85.7728
 -85.7731
 -85.7715
 -85.7889
 -85.7888
 -85.7898
 -85.7906
 -85.7799
 -85.7808
 -85.7806
 -85.7796
 -85.7926
 -85.7909
 -85.7929
 -85.7917
 -85.7571
 -85.7558
 -85.7563
 -85.7573
 -85.7904
 -85.7905
 -85.7918
 -85.7918
 -85.8084
 -85.8079
 -85.8088
 -85.8081
 -85.8043
 -85.8045
 -85.8051
 -85.8045
 -85.8218
 -85.8201
 -85.8215
 -85.8207
 -85.7828
 -85.7826
 -85.7838
 -85.7829
 -85.7789
 -85.7799
 -85.7789
 -85.7814
 -85.8209
 -85.8196
 -85.821
 -85.8207
 -85.7802
 -85.7801
 -85.7817
 -85.7803
 -85.8183
 -85.8178
 -85.8189
 -85.8177
 -85.7992
 -85.8011
 -85.7999
 -85.8006
 -85.7952
 -85.7932
 -85.7951
 -85.7955
 -85.7793
 -85.7806
 -85.7803
 -85.7792
 -85.7934
 -85.7932
 -85.7946
 -85.793
 -85.8188
 -85.8183
 -85.819
 -85.819
 -85.7398
 -85.7401
 -85.7405
 -85.7387
 -85.7724
 -85.7721
 -85.7721
 -85.7724
 -85.7722
 -85.7724
 -85.7722
 -85.7712
 -85.7845
 -85.7851
 -85.7839
 -85.7858
 -85.7897
 -85.7886
 -85.7896
 -85.7889
 -85.7832
 -85.7824
 -85.7819
 -85.7834
 -85.8245
 -85.8239
 -85.8254
 -85.8236
 -85.7785
 -85.7777
 -85.7779
 -85.7794
 -85.8063
 -85.8065
 -85.807
 -85.8058
 -85.7951
 -85.8154
 -85.8141
 -85.8145
 -85.8145
 -85.8039
 -85.8048
 -85.8057
 -85.8051
 -85.7689
 -85.7699
 -85.7703
 -85.7695
 -85.786
 -85.7854
 -85.7863
 -85.7873
 -85.7809
 -85.7794
 -85.7805
 -85.7809
 -85.8175
 -85.8165
 -85.8165
 -85.8166
 -85.7912
 -85.7889
 -85.7905
 -85.7899
 -85.8189
 -85.8192
 -85.8179
 -85.8178
 -85.8096
 -85.8104
 -85.8091
 -85.8108
 -85.7696
 -85.7704
 -85.7698
 -85.7713
 -85.778
 -85.7764
 -85.7791
 -85.7781
 -85.8085
 -85.8093
 -85.8093
 -85.8085
 -85.7935
 -85.7917
 -85.7932
 -85.7728
 -85.7719
 -85.7724
 -85.7734
 -85.8068
 -85.8048
 -85.806
 -85.8049
 -85.7811
 -85.7795
 -85.7796
 -85.7807
 -85.7939
 -85.7917
 -85.7928
 -85.7939
 -85.821
 -85.821
 -85.8197
 -85.8209
 -85.7842
 -85.7835
 -85.7829
 -85.784
 -85.8156
 -85.8144
 -85.8155
 -85.8159
 -85.7966
 -85.7959
 -85.7968
 -85.7952
 -85.8124
 -85.8118
 -85.8108
 -85.8115
 -85.82
 -85.8201
 -85.8211
 -85.8206
 -85.785
 -85.7848
 -85.7858
 -85.7858
 -85.7396
 -85.742
 -85.7415
 -85.7428
 -85.8251
 -85.8244
 -85.8245
 -85.8242
 -85.8058
 -85.8053
 -85.8045
 -85.8051
 -85.775
 -85.7749
 -85.7773
 -85.7754
 -85.789
 -85.7899
 -85.7903
 -85.7888
 -85.7593
 -85.7598
 -85.7598
 -85.7583
 -85.8192
 -85.8197
 -85.821
 -85.8198
 -85.7738
 -85.7731
 -85.7735
 -85.7737
 -85.8001
 -85.8013
 -85.7994
 -85.8004
 -85.777
 -85.7743
 -85.7763
 -85.7765
 -85.8265
 -85.8263
 -85.8265
 -85.8253
 -85.8261
 -85.826
 -85.8253
 -85.8249
 -85.8096
 -85.8083
 -85.808
 -85.8098
 -85.8014
 -85.8019
 -85.8014
 -85.8004
 -85.8018
 -85.7731
 -85.7734
 -85.7715
 -85.7728
 -85.7764
 -85.7757
 -85.7753
 -85.7769
 -85.807
 -85.8083
 -85.8084
 -85.8083
 -85.7752
 -85.7762
 -85.7762
 -85.7752
 -85.7796
 -85.7792
 -85.779
 -85.7805
 -85.8089
 -85.8095
 -85.8091
 -85.808
 -85.786
 -85.7876
 -85.786
 -85.7876
 -85.808
 -85.8081
 -85.8083
 -85.8092
 -85.7808
 -85.7806
 -85.7794
 -85.7807
 -85.7849
 -85.786
 -85.786
 -85.7862
 -85.7918
 -85.793
 -85.7912
 -85.7927
 -85.8011
 -85.8026
 -85.8015
 -85.803
 -85.8137
 -85.8131
 -85.8148
 -85.8148
 -85.799
 -85.7986
 -85.7978
 -85.7979
 -85.7991
 -85.7996
 -85.8002
 -85.7997
 -85.7694
 -85.7694
 -85.7701
 -85.7706
 -85.8061
 -85.8064
 -85.8069
 -85.8066
 -85.7956
 -85.7959
 -85.7965
 -85.7954
 -85.798
 -85.798
 -85.7971
 -85.7979
 -85.7871
 -85.7875
 -85.7859
 -85.7868
 -85.7728
 -85.7726
 -85.7734
 -85.7717
 -85.812
 -85.812
 -85.8128
 -85.8128
 -85.7734
 -85.7722
 -85.7727
 -85.7743
 -85.825
 -85.825
 -85.8259
 -85.8254
 -85.8161
 -85.8152
 -85.8168
 -85.8163
 -85.8169
 -85.8169
 -85.817
 -85.8165
 -85.8162
 -85.816
 -85.8157
 -85.8168
 -85.8096
 -85.8101
 -85.8089
 -85.8102
 -85.7618
 -85.7608
 -85.759
 -85.7988
 -85.7969
 -85.7986
 -85.798
 -85.8147
 -85.8143
 -85.8139
 -85.8147
 -85.7865
 -85.785
 -85.7859
 -85.7863
 -85.781
 -85.7813
 -85.7805
 -85.7815
 -85.8105
 -85.8107
 -85.8118
 -85.8095
 -85.7913
 -85.7908
 -85.7916
 -85.7926
 -85.7823
 -85.7824
 -85.782
 -85.7817
 -85.8238
 -85.8248
 -85.8046
 -85.8042
 -85.8031
 -85.803
 -85.7923
 -85.7922
 -85.7912
 -85.8009
 -85.8012
 -85.8008
 -85.7998
 -85.7644
 -85.764
 -85.7657
 -85.7656
 -85.8157
 -85.8166
 -85.8165
 -85.8155
 -85.8006
 -85.8003
 -85.7995
 -85.7996
 -85.7863
 -85.785
 -85.7856
 -85.7868
 -85.7975
 -85.796
 -85.7965
 -85.7971
 -85.7746
 -85.7741
 -85.7748
 -85.7745
 -85.7705
 -85.7726
 -85.7711
 -85.7715
 -85.7907
 -85.7919
 -85.7922
 -85.7914
 -85.7739
 -85.7737
 -85.7738
 -85.7751
 -85.7925
 -85.7917
 -85.792
 -85.7914
 -85.8171
 -85.817
 -85.8157
 -85.8155
 -85.776
 -85.7766
 -85.7772
 -85.7765
 -85.7514
 -85.753
 -85.7515
 -85.7525
 -85.8028
 -85.8005
 -85.8021
 -85.8023
 -85.7892
 -85.7901
 -85.7889
 -85.7902
 -85.7745
 -85.7742
 -85.7754
 -85.7751
 -85.7929
 -85.792
 -85.7934
 -85.7934
 -85.8219
 -85.8215
 -85.8222
 -85.8219
 -85.7798
 -85.7797
 -85.7791
 -85.7797
 -85.8037
 -85.8025
 -85.8025
 -85.8022
 -85.7886
 -85.79
 -85.7889
 -85.791
 -85.8093
 -85.8099
 -85.8097
 -85.8108
 -85.8173
 -85.8171
 -85.8177
 -85.8167
 -85.7753
 -85.7764
 -85.7756
 -85.7777
 -85.7838
 -85.7848
 -85.7845
 -85.7842
 -85.8008
 -85.8006
 -85.799
 -85.7999
 -85.774
 -85.7743
 -85.7742
 -85.7747
 -85.7409
 -85.7397
 -85.7398
 -85.7406
 -85.7972
 -85.7959
 -85.796
 -85.7956
 -85.7375
 -85.7372
 -85.7376
 -85.7388
 -85.7404
 -85.7423
 -85.742
 -85.741
 -85.7648
 -85.7659
 -85.7655
 -85.7643
 -85.8059
 -85.805
 -85.8042
 -85.8036
 -85.8055
 -85.8063
 -85.8065
 -85.8072
 -85.8073
 -85.8065
 -85.8072
 -85.8058
 -85.8033
 -85.8019
 -85.8023
 -85.8036
 -85.7589
 -85.7577
 -85.7587
 -85.7583
 -85.7766
 -85.776
 -85.7774
 -85.7768
 -85.7747
 -85.7732
 -85.7737
 -85.7735
 -85.7863
 -85.7879
 -85.7864
 -85.788
 -85.7987
 -85.7979
 -85.7988
 -85.7981
 -85.8094
 -85.8091
 -85.8086
 -85.8095
 -85.778
 -85.7797
 -85.7803
 -85.7787
 -85.8061
 -85.7938
 -85.7948
 -85.795
 -85.7942
 -85.8258
 -85.8261
 -85.827
 -85.8264
 -85.7908
 -85.7911
 -85.7919
 -85.791
 -85.8195
 -85.8208
 -85.8198
 -85.7758
 -85.7765
 -85.777
 -85.7756
 -85.7453
 -85.7467
 -85.7461
 -85.7469
 -85.7937
 -85.7936
 -85.7954
 -85.7928
 -85.787
 -85.785
 -85.7852
 -85.7852
 -85.7742
 -85.775
 -85.7759
 -85.7763
 -85.776
 -85.7765
 -85.7754
 -85.7767
 -85.7631
 -85.7615
 -85.7626
 -85.7625
 -85.801
 -85.8007
 -85.8015
 -85.8034
 -85.7939
 -85.7954
 -85.7935
 -85.7947
 -85.7834
 -85.7821
 -85.7835
 -85.7828
 -85.791
 -85.7901
 -85.7926
 -85.8106
 -85.81
 -85.8098
 -85.7785
 -85.7787
 -85.7768
 -85.7765
 -85.7661
 -85.7656
 -85.7657
 -85.766
 -85.781
 -85.782
 -85.7818
 -85.7807
 -85.7659
 -85.7645
 -85.7664
 -85.764
 -85.8132
 -85.8146
 -85.8135
 -85.814
 -85.8094
 -85.81
 -85.8103
 -85.8111
 -85.7742
 -85.7738
 -85.774
 -85.7738
 -85.7607
 -85.7585
 -85.76
 -85.7605
 -85.7974
 -85.7955
 -85.7971
 -85.7964
 -85.8232
 -85.8221
 -85.8234
 -85.8223
 -85.7651
 -85.765
 -85.7643
 -85.7651
 -85.8053
 -85.8042
 -85.8039
 -85.8056
 -85.7508
 -85.7498
 -85.7508
 -85.7501
 -85.8092
 -85.8098
 -85.809
 -85.8108
 -85.7874
 -85.7861
 -85.788
 -85.7857
 -85.8133
 -85.8134
 -85.8144
 -85.8144
 -85.7755
 -85.7759
 -85.7761
 -85.7772
 -85.7847
 -85.7836
 -85.7837
 -85.7836
 -85.7782
 -85.7777
 -85.7793
 -85.7792
 -85.781
 -85.7805
 -85.7822
 -85.7797
 -85.7972
 -85.7982
 -85.798
 -85.7967
 -85.7903
 -85.7893
 -85.7906
 -85.7906
 -85.8145
 -85.8135
 -85.8127
 -85.8129
 -85.8248
 -85.8255
 -85.824
 -85.824
 -85.7884
 -85.7882
 -85.7872
 -85.7881
 -85.8168
 -85.8163
 -85.816
 -85.8174
 -85.8079
 -85.8094
 -85.8103
 -85.8091
 -85.757
 -85.7563
 -85.7547
 -85.7569
 -85.7719
 -85.7744
 -85.7738
 -85.7731
 -85.787
 -85.7861
 -85.7857
 -85.7861
 -85.7634
 -85.7624
 -85.7621
 -85.7612
 -85.7984
 -85.7998
 -85.7996
 -85.7991
 -85.8124
 -85.8146
 -85.8135
 -85.8136
 -85.7644
 -85.7666
 -85.7644
 -85.7644
 -85.7914
 -85.7926
 -85.7918
 -85.792
 -85.7818
 -85.7817
 -85.7817
 -85.781
 -85.7411
 -85.7423
 -85.7424
 -85.7411
 -85.7857
 -85.7855
 -85.7853
 -85.7867
 -85.7946
 -85.7955
 -85.7954
 -85.7957
 -85.8087
 -85.81
 -85.8092
 -85.8103
 -85.7806
 -85.781
 -85.7814
 -85.7944
 -85.7942
 -85.7937
 -85.7943
 -85.7837
 -85.7836
 -85.7854
 -85.7842
 -85.8057
 -85.8045
 -85.8054
 -85.8052
 -85.8053
 -85.8067
 -85.8065
 -85.8061
 -85.8183
 -85.8173
 -85.818
 -85.8168
 -85.777
 -85.7773
 -85.7782
 -85.777
 -85.8223
 -85.8226
 -85.8231
 -85.8225
 -85.7794
 -85.7806
 -85.7797
 -85.7791
 -85.7937
 -85.7953
 -85.7951
 -85.796
 -85.7963
 -85.795
 -85.7952
 -85.7946
 -85.7391
 -85.7377
 -85.7389
 -85.7388
 -85.7826
 -85.7817
 -85.7827
 -85.7829
 -85.7926
 -85.7924
 -85.7936
 -85.7952
 -85.7917
 -85.7922
 -85.7922
 -85.7907
 -85.8252
 -85.8252
 -85.8243
 -85.8251
 -85.7793
 -85.7806
 -85.7814
 -85.7798
 -85.7816
 -85.7807
 -85.7821
 -85.7804
 -85.8088
 -85.8099
 -85.8089
 -85.8097
 -85.7754
 -85.7751
 -85.7742
 -85.774
 -85.7747
 -85.7744
 -85.7752
 -85.7743
 -85.8043
 -85.8026
 -85.8042
 -85.8033
 -85.8059
 -85.8058
 -85.8047
 -85.8058
 -85.7971
 -85.7971
 -85.7989
 -85.7985
 -85.7805
 -85.7799
 -85.8018
 -85.8008
 -85.8025
 -85.8011
 -85.7813
 -85.782
 -85.7813
 -85.7816
 -85.789
 -85.7904
 -85.7909
 -85.7902
 -85.8198
 -85.8192
 -85.8187
 -85.8201
 -85.7892
 -85.7896
 -85.7904
 -85.7906
 -85.8109
 -85.8118
 -85.8124
 -85.8105
 -85.7775
 -85.78
 -85.7791
 -85.7798
 -85.7867
 -85.7856
 -85.7852
 -85.786
 -85.7924
 -85.7947
 -85.7934
 -85.794
 -85.7771
 -85.776
 -85.7755
 -85.7763
 -85.752
 -85.7523
 -85.7517
 -85.7508
 -85.8233
 -85.8232
 -85.823
 -85.8233
 -85.7654
 -85.7651
 -85.7658
 -85.7648
 -85.7992
 -85.7998
 -85.7984
 -85.7985
 -85.7518
 -85.7518
 -85.7529
 -85.7513
 -85.8013
 -85.8024
 -85.8015
 -85.8013
 -85.7798
 -85.7796
 -85.7791
 -85.7792
 -85.7798
 -85.7801
 -85.7788
 -85.7795
 -85.7963
 -85.7969
 -85.7952
 -85.7963
 -85.8148
 -85.8134
 -85.8145
 -85.8131
 -85.7858
 -85.7877
 -85.7872
 -85.7875
 -85.774
 -85.7735
 -85.774
 -85.7745
 -85.8141
 -85.8157
 -85.8148
 -85.816
 -85.7786
 -85.7772
 -85.7792
 -85.7793
 -85.7858
 -85.7873
 -85.7869
 -85.7878
 -85.8082
 -85.8103
 -85.8099
 -85.8091
 -85.7955
 -85.7968
 -85.797
 -85.7971
 -85.7906
 -85.7898
 -85.7908
 -85.7914
 -85.8196
 -85.8204
 -85.8209
 -85.8212
 -85.8159
 -85.8163
 -85.8163
 -85.8157
 -85.7993
 -85.7994
 -85.7977
 -85.7986
 -85.7906
 -85.7915
 -85.7902
 -85.7929
 -85.7828
 -85.7833
 -85.7834
 -85.7854
 -85.7726
 -85.7724
 -85.7715
 -85.8106
 -85.8114
 -85.8109
 -85.8121
 -85.7504
 -85.7493
 -85.7481
 -85.7483
 -85.8054
 -85.8038
 -85.8046
 -85.8045
 -85.7778
 -85.7762
 -85.777
 -85.7772
 -85.7753
 -85.7743
 -85.7746
 -85.7745
 -85.8162
 -85.815
 -85.8157
 -85.8173
 -85.7965
 -85.7956
 -85.7969
 -85.7959
 -85.791
 -85.7906
 -85.7811
 -85.7886
 -85.79
 -85.7883
 -85.7893
 -85.7522
 -85.7533
 -85.8039
 -85.8045
 -85.8051
 -85.769
 -85.7699
 -85.7679
 -85.7691
 -85.8042
 -85.8028
 -85.8032
 -85.8032
 -85.7857
 -85.7871
 -85.7868
 -85.7867
 -85.7806
 -85.7825
 -85.7814
 -85.7814
 -85.8196
 -85.8196
 -85.821
 -85.8201
 -85.7695
 -85.7708
 -85.7694
 -85.7708
 -85.803
 -85.8032
 -85.8033
 -85.8041
 -85.8214
 -85.8217
 -85.8204
 -85.8206
 -85.7952
 -85.7939
 -85.7952
 -85.7942
 -85.8029
 -85.8011
 -85.8019
 -85.8017
 -85.7926
 -85.7939
 -85.7929
 -85.7909
 -85.8263
 -85.8249
 -85.8259
 -85.8246
 -85.8252
 -85.8252
 -85.8247
 -85.8242
 -85.8243
 -85.8239
 -85.8237
 -85.8243
 -85.7891
 -85.7878
 -85.789
 -85.7889
 -85.7993
 -85.7979
 -85.7984
 -85.7992
 -85.79
 -85.7898
 -85.7888
 -85.7895
 -85.7877
 -85.7872
 -85.7891
 -85.7872
 -85.8059
 -85.8065
 -85.8067
 -85.8054
 -85.8145
 -85.816
 -85.8156
 -85.8161
 -85.8139
 -85.8144
 -85.8131
 -85.8147
 -85.7946
 -85.7954
 -85.7944
 -85.7952
 -85.7918
 -85.7916
 -85.7913
 -85.7907
 -85.7794
 -85.7786
 -85.779
 -85.7804
 -85.8091
 -85.8102
 -85.8102
 -85.8087
 -85.7635
 -85.7636
 -85.7622
 -85.7644
 -85.812
 -85.8128
 -85.8118
 -85.8115
 -85.7979
 -85.7999
 -85.7978
 -85.7994
 -85.7967
 -85.7975
 -85.797
 -85.7962
 -85.77
 -85.7699
 -85.769
 -85.7678
 -85.7347
 -85.7356
 -85.7344
 -85.7346
 -85.7838
 -85.7851
 -85.7838
 -85.7842
 -85.8119
 -85.8103
 -85.811
 -85.8119
 -85.7754
 -85.7744
 -85.7751
 -85.7759
 -85.7989
 -85.7996
 -85.7981
 -85.7998
 -85.801
 -85.8021
 -85.8033
 -85.8028
 -85.8086
 -85.8093
 -85.8075
 -85.8081
 -85.7608
 -85.7598
 -85.7599
 -85.7608
 -85.7621
 -85.7622
 -85.7616
 -85.7615
 -85.8117
 -85.8136
 -85.8128
 -85.8128
 -85.8064
 -85.8045
 -85.8045
 -85.8058
 -85.7834
 -85.7835
 -85.7828
 -85.7829
 -85.7931
 -85.7925
 -85.7937
 -85.7945
 -85.7977
 -85.7983
 -85.7978
 -85.7975
 -85.7823
 -85.7816
 -85.7835
 -85.7818
 -85.8032
 -85.8024
 -85.8025
 -85.8016
 -85.8295
 -85.8286
 -85.8292
 -85.8294
 -85.8001
 -85.8015
 -85.8015
 -85.8025
 -85.7934
 -85.794
 -85.7929
 -85.7948
 -85.7934
 -85.7932
 -85.7921
 -85.7934
 -85.7979
 -85.7986
 -85.7979
 -85.7968
 -85.8229
 -85.8231
 -85.8222
 -85.8228
 -85.8147
 -85.8136
 -85.8144
 -85.8024
 -85.8024
 -85.8033
 -85.8023
 -85.774
 -85.7738
 -85.7749
 -85.7738
 -85.7874
 -85.7875
 -85.7864
 -85.7879
 -85.814
 -85.8124
 -85.8123
 -85.8124
 -85.7794
 -85.7799
 -85.7802
 -85.7807
 -85.7853
 -85.7842
 -85.784
 -85.7856
 -85.787
 -85.7865
 -85.7847
 -85.7861
 -85.8054
 -85.8045
 -85.8043
 -85.8041
 -85.798
 -85.7968
 -85.7982
 -85.7957
 -85.8026
 -85.8001
 -85.801
 -85.8013
 -85.7764
 -85.7768
 -85.7771
 -85.7765
 -85.787
 -85.788
 -85.7884
 -85.7871
 -85.8043
 -85.8033
 -85.8045
 -85.8053
 -85.7843
 -85.7849
 -85.7857
 -85.7837
 -85.8
 -85.8012
 -85.8013
 -85.8004
 -85.7757
 -85.7753
 -85.776
 -85.7752
 -85.8214
 -85.8217
 -85.8206
 -85.8214
 -85.7787
 -85.7777
 -85.779
 -85.7796
 -85.7766
 -85.7743
 -85.7757
 -85.7757
 -85.8075
 -85.8075
 -85.8084
 -85.8088
 -85.779
 -85.7793
 -85.7796
 -85.7794
 -85.8016
 -85.8011
 -85.8017
 -85.8003
 -85.7687
 -85.769
 -85.7672
 -85.7676
 -85.7967
 -85.7962
 -85.7966
 -85.7977
 -85.8184
 -85.82
 -85.8185
 -85.8195
 -85.7974
 -85.7956
 -85.7955
 -85.7967
 -85.8086
 -85.8092
 -85.8086
 -85.8086
 -85.8009
 -85.8003
 -85.8006
 -85.8016
 -85.8
 -85.8006
 -85.8008
 -85.802
 -85.8228
 -85.8229
 -85.8233
 -85.8216
 -85.7762
 -85.7756
 -85.775
 -85.7749
 -85.7772
 -85.7767
 -85.7755
 -85.7766
 -85.816
 -85.8159
 -85.8153
 -85.8168
 -85.8193
 -85.8199
 -85.8191
 -85.782
 -85.7815
 -85.7815
 -85.7823
 -85.803
 -85.8044
 -85.8029
 -85.8028
 -85.7986
 -85.7991
 -85.7976
 -85.7993
 -85.7755
 -85.7767
 -85.7745
 -85.7756
 -85.809
 -85.8099
 -85.8095
 -85.8095
 -85.7922
 -85.7906
 -85.7909
 -85.7921
 -85.7967
 -85.7952
 -85.7954
 -85.7951
 -85.8101
 -85.8111
 -85.8111
 -85.8109
 -85.7725
 -85.7721
 -85.7726
 -85.7732
 -85.7818
 -85.7801
 -85.7807
 -85.7805
 -85.8241
 -85.823
 -85.8239
 -85.8236
 -85.7767
 -85.7765
 -85.7769
 -85.7785
 -85.7732
 -85.7727
 -85.773
 -85.773
 -85.7931
 -85.7935
 -85.7928
 -85.7946
 -85.753
 -85.7535
 -85.7524
 -85.7546
 -85.7955
 -85.7958
 -85.7951
 -85.7957
 -85.8114
 -85.8109
 -85.8105
 -85.8103
 -85.8152
 -85.8144
 -85.8148
 -85.7697
 -85.7698
 -85.7705
 -85.7699
 -85.7792
 -85.7805
 -85.7787
 -85.7801
 -85.7759
 -85.7755
 -85.7744
 -85.7744
 -85.7812
 -85.7801
 -85.7809
 -85.7806
 -85.8247
 -85.8253
 -85.8257
 -85.8254
 -85.7715
 -85.7716
 -85.7711
 -85.7702
 -85.7787
 -85.7777
 -85.7786
 -85.7802
 -85.8146
 -85.8155
 -85.8147
 -85.8143
 -85.7857
 -85.7854
 -85.7864
 -85.7801
 -85.7788
 -85.7801
 -85.7975
 -85.7969
 -85.7956
 -85.7554
 -85.7574
 -85.7576
 -85.756
 -85.7962
 -85.7972
 -85.7966
 -85.7976
 -85.7952
 -85.7961
 -85.7942
 -85.7944
 -85.8161
 -85.8169
 -85.8158
 -85.8157
 -85.8197
 -85.8195
 -85.8211
 -85.8195
 -85.7746
 -85.7731
 -85.7731
 -85.7756
 -85.7986
 -85.8
 -85.8001
 -85.7994
 -85.7981
 -85.7992
 -85.7997
 -85.7994
 -85.7911
 -85.793
 -85.7921
 -85.7933
 -85.784
 -85.7844
 -85.7848
 -85.7828
 -85.7988
 -85.7973
 -85.7984
 -85.7988
 -85.7765
 -85.7769
 -85.7764
 -85.7772
 -85.8185
 -85.8181
 -85.8186
 -85.8188
 -85.7816
 -85.7812
 -85.7818
 -85.7828
 -85.815
 -85.8138
 -85.8145
 -85.8144
 -85.821
 -85.8205
 -85.8196
 -85.8207
 -85.8211
 -85.8208
 -85.8206
 -85.8204
 -85.7789
 -85.7781
 -85.8076
 -85.8073
 -85.8065
 -85.8071
 -85.776
 -85.7778
 -85.777
 -85.7763
 -85.8105
 -85.8125
 -85.8119
 -85.8123
 -85.8145
 -85.8139
 -85.8152
 -85.8139
 -85.7821
 -85.7833
 -85.7834
 -85.7827
 -85.7985
 -85.7986
 -85.7996
 -85.7993
 -85.7811
 -85.7811
 -85.7822
 -85.7812
 -85.7883
 -85.7882
 -85.7885
 -85.7898
 -85.743
 -85.7453
 -85.7425
 -85.7444
 -85.8177
 -85.817
 -85.8187
 -85.8175
 -85.7818
 -85.7808
 -85.7822
 -85.7832
 -85.7697
 -85.7687
 -85.7687
 -85.77
 -85.7903
 -85.7896
 -85.791
 -85.7912
 -85.7693
 -85.7673
 -85.7667
 -85.7694
 -85.7897
 -85.7884
 -85.7876
 -85.7892
 -85.807
 -85.8066
 -85.808
 -85.806
 -85.7921
 -85.7912
 -85.7912
 -85.7917
 -85.8164
 -85.818
 -85.8166
 -85.7904
 -85.7918
 -85.7903
 -85.7916
 -85.7429
 -85.7421
 -85.7422
 -85.7417
 -85.8255
 -85.8257
 -85.8261
 -85.8255
 -85.7979
 -85.7975
 -85.7983
 -85.7972
 -85.8111
 -85.8104
 -85.8092
 -85.8106
 -85.7743
 -85.7755
 -85.7725
 -85.7738
 -85.7836
 -85.7848
 -85.7827
 -85.7841
 -85.7838
 -85.7859
 -85.7846
 -85.7858
 -85.8202
 -85.8195
 -85.8206
 -85.8212
 -85.7858
 -85.7848
 -85.784
 -85.7845
 -85.8244
 -85.824
 -85.8246
 -85.8235
 -85.8058
 -85.8043
 -85.8044
 -85.806
 -85.7767
 -85.777
 -85.7775
 -85.7767
 -85.7521
 -85.7526
 -85.754
 -85.7517
 -85.7886
 -85.7866
 -85.7878
 -85.7861
 -85.7929
 -85.793
 -85.7941
 -85.7928
 -85.8077
 -85.8078
 -85.8071
 -85.8061
 -85.7448
 -85.743
 -85.7453
 -85.7445
 -85.789
 -85.7881
 -85.7898
 -85.7892
 -85.8232
 -85.8225
 -85.8222
 -85.8224
 -85.8134
 -85.8144
 -85.814
 -85.8135
 -85.8129
 -85.8131
 -85.814
 -85.8126
 -85.8114
 -85.8105
 -85.8101
 -85.8107
 -85.8133
 -85.8149
 -85.8141
 -85.8139
 -85.8016
 -85.802
 -85.8017
 -85.8018
 -85.7781
 -85.7805
 -85.7819
 -85.782
 -85.7813
 -85.8053
 -85.8038
 -85.8043
 -85.804
 -85.8049
 -85.8052
 -85.8034
 -85.8038
 -85.766
 -85.7666
 -85.7665
 -85.766
 -85.8172
 -85.8171
 -85.8166
 -85.8172
 -85.8106
 -85.8116
 -85.813
 -85.8121
 -85.7766
 -85.7783
 -85.7781
 -85.7783
 -85.7784
 -85.778
 -85.7804
 -85.7813
 -85.7809
 -85.7819
 -85.7772
 -85.7756
 -85.7736
 -85.7747
 -85.8046
 -85.8059
 -85.8055
 -85.8046
 -85.8242
 -85.8243
 -85.824
 -85.8244
 -85.7938
 -85.793
 -85.7938
 -85.7924
 -85.8201
 -85.8184
 -85.8176
 -85.8176
 -85.7895
 -85.7894
 -85.7887
 -85.79
 -85.8042
 -85.8032
 -85.8024
 -85.8025
 -85.7752
 -85.7749
 -85.7747
 -85.7732
 -85.799
 -85.8003
 -85.7984
 -85.7994
 -85.8011
 -85.8028
 -85.8035
 -85.8015
 -85.7785
 -85.778
 -85.777
 -85.7775
 -85.7855
 -85.7847
 -85.7871
 -85.786
 -85.79
 -85.7898
 -85.7886
 -85.7878
 -85.799
 -85.7998
 -85.7992
 -85.7996
 -85.765
 -85.7654
 -85.7659
 -85.7673
 -85.8019
 -85.8005
 -85.8014
 -85.8022
 -85.7856
 -85.784
 -85.7858
 -85.7868
 -85.8072
 -85.8068
 -85.8071
 -85.8061
 -85.8157
 -85.8146
 -85.8155
 -85.8149
 -85.8216
 -85.8211
 -85.8208
 -85.8213
 -85.8195
 -85.8202
 -85.8185
 -85.8253
 -85.8254
 -85.826
 -85.8261
 -85.8127
 -85.8117
 -85.8104
 -85.8118
 -85.7925
 -85.7921
 -85.7932
 -85.793
 -85.8203
 -85.8195
 -85.8189
 -85.8202
 -85.7962
 -85.7964
 -85.7956
 -85.7953
 -85.7994
 -85.8001
 -85.7996
 -85.8203
 -85.8211
 -85.8206
 -85.8204
 -85.818
 -85.8171
 -85.8175
 -85.7974
 -85.7968
 -85.7981
 -85.7985
 -85.7849
 -85.7858
 -85.7848
 -85.7868
 -85.806
 -85.8051
 -85.8048
 -85.8045
 -85.8207
 -85.8214
 -85.821
 -85.8206
 -85.7793
 -85.779
 -85.7799
 -85.7784
 -85.7922
 -85.7919
 -85.7907
 -85.7906
 -85.7939
 -85.7957
 -85.7936
 -85.7941
 -85.8072
 -85.8059
 -85.8069
 -85.8071
 -85.7798
 -85.7788
 -85.7808
 -85.7791
 -85.7747
 -85.7736
 -85.7748
 -85.7743
 -85.794
 -85.7941
 -85.7939
 -85.7952
 -85.8236
 -85.8229
 -85.8229
 -85.8231
 -85.7824
 -85.7809
 -85.7826
 -85.7818
 -85.7758
 -85.7769
 -85.7754
 -85.7768
 -85.8018
 -85.8
 -85.8018
 -85.8016
 -85.7809
 -85.7814
 -85.7805
 -85.7761
 -85.7771
 -85.7768
 -85.7998
 -85.7991
 -85.8009
 -85.7995
 -85.7766
 -85.7761
 -85.7753
 -85.7766
 -85.7772
 -85.7758
 -85.7769
 -85.7769
 -85.802
 -85.8025
 -85.8017
 -85.7767
 -85.7765
 -85.815
 -85.8152
 -85.817
 -85.8172
 -85.8058
 -85.8077
 -85.8078
 -85.807
 -85.765
 -85.7664
 -85.7639
 -85.7667
 -85.7555
 -85.7558
 -85.7544
 -85.7558
 -85.7806
 -85.7782
 -85.7797
 -85.7798
 -85.8189
 -85.8188
 -85.8194
 -85.8189
 -85.8041
 -85.8032
 -85.8025
 -85.8032
 -85.7724
 -85.7723
 -85.7721
 -85.772
 -85.7814
 -85.7816
 -85.7822
 -85.7834
 -85.7821
 -85.7822
 -85.7819
 -85.7787
 -85.7797
 -85.7798
 -85.7798
 -85.7798
 -85.7788
 -85.7801
 -85.7804
 -85.7755
 -85.7743
 -85.7753
 -85.7742
 -85.8229
 -85.8235
 -85.8231
 -85.8231
 -85.82
 -85.821
 -85.8196
 -85.7938
 -85.7929
 -85.7939
 -85.7923
 -85.78
 -85.7782
 -85.7802
 -85.7796
 -85.8257
 -85.8263
 -85.776
 -85.7752
 -85.7754
 -85.7748
 -85.7969
 -85.7993
 -85.7977
 -85.7986
 -85.8026
 -85.8022
 -85.7766
 -85.7765
 -85.7779
 -85.7766
 -85.8211
 -85.8217
 -85.8207
 -85.8223
 -85.8245
 -85.8238
 -85.824
 -85.8252
 -85.7903
 -85.791
 -85.7903
 -85.7646
 -85.7658
 -85.7651
 -85.7779
 -85.7796
 -85.7778
 -85.7782
 -85.8097
 -85.8085
 -85.8105
 -85.8086
 -85.7837
 -85.7824
 -85.7825
 -85.7813
 -85.7827
 -85.7818
 -85.7832
 -85.7816
 -85.8047
 -85.8044
 -85.8052
 -85.8066
 -85.7458
 -85.7464
 -85.7453
 -85.744
 -85.8082
 -85.8086
 -85.8097
 -85.8094
 -85.8094
 -85.8092
 -85.8102
 -85.8108
 -85.7744
 -85.7745
 -85.7728
 -85.7741
 -85.8179
 -85.8184
 -85.8186
 -85.8176
 -85.7429
 -85.741
 -85.7414
 -85.7401
 -85.8215
 -85.8195
 -85.8196
 -85.8193
 -85.8138
 -85.813
 -85.7814
 -85.7824
 -85.782
 -85.7831
 -85.7732
 -85.772
 -85.7726
 -85.7736
 -85.8173
 -85.8182
 -85.818
 -85.8177
 -85.7847
 -85.7852
 -85.7852
 -85.7843
 -85.8233
 -85.8226
 -85.8231
 -85.7805
 -85.7792
 -85.7787
 -85.7715
 -85.7729
 -85.7733
 -85.8217
 -85.8221
 -85.8217
 -85.8214
 -85.781
 -85.7803
 -85.7803
 -85.7803
 -85.8177
 -85.8179
 -85.7717
 -85.7725
 -85.7715
 -85.772
 -85.7953
 -85.7966
 -85.7967
 -85.7954
 -85.7827
 -85.7819
 -85.7876
 -85.7903
 -85.7899
 -85.7884
 -85.7815
 -85.7813
 -85.7815
 -85.78
 -85.824
 -85.8252
 -85.8237
 -85.8242
 -85.7739
 -85.7734
 -85.7736
 -85.8139
 -85.7438
 -85.7436
 -85.7438
 -85.743
 -85.8169
 -85.8173
 -85.8178
 -85.8159
 -85.7827
 -85.7829
 -85.7849
 -85.7845
 -85.8077
 -85.8071
 -85.8072
 -85.8074
 -85.7813
 -85.7804
 -85.7798
 -85.7811
 -85.8044
 -85.7661
 -85.7657
 -85.7657
 -85.7662
 -85.8041
 -85.8042
 -85.8037
 -85.8026
 -85.8129
 -85.8135
 -85.814
 -85.812
 -85.8129
 -85.8116
 -85.8133
 -85.8175
 -85.8185
 -85.8181
 -85.818
 -85.7744
 -85.7749
 -85.7763
 -85.7756
 -85.816
 -85.816
 -85.8158
 -85.8169
 -85.7696
 -85.7694
 -85.7697
 -85.7682
 -85.8147
 -85.8154
 -85.8159
 -85.8159
 -85.7931
 -85.7923
 -85.7921
 -85.7917
 -85.8072
 -85.8081
 -85.8085
 -85.8088
 -85.7974
 -85.7967
 -85.7962
 -85.7958
 -85.8214
 -85.8199
 -85.7971
 -85.7958
 -85.7959
 -85.7969
 -85.7657
 -85.7652
 -85.7669
 -85.7652
 -85.7689
 -85.7683
 -85.7706
 -85.7686
 -85.7973
 -85.7985
 -85.7986
 -85.7988
 -85.8092
 -85.8093
 -85.8089
 -85.8105
 -85.8111
 -85.8101
 -85.8106
 -85.8115
 -85.8202
 -85.8189
 -85.8193
 -85.8185
 -85.8114
 -85.8129
 -85.8121
 -85.8113
 -85.7689
 -85.769
 -85.7699
 -85.7681
 -85.7759
 -85.776
 -85.7756
 -85.7777
 -85.8261
 -85.8255
 -85.8253
 -85.8253
 -85.7997
 -85.8003
 -85.8
 -85.8019
 -85.7777
 -85.7794
 -85.7777
 -85.7791
 -85.7493
 -85.749
 -85.751
 -85.7485
 -85.8171
 -85.8177
 -85.8166
 -85.8188
 -85.7794
 -85.7795
 -85.7799
 -85.7808
 -85.7882
 -85.7896
 -85.7874
 -85.7885
 -85.7692
 -85.7687
 -85.7691
 -85.7699
 -85.8036
 -85.8029
 -85.8035
 -85.8036
 -85.8201
 -85.8203
 -85.8198
 -85.8202
 -85.8009
 -85.7992
 -85.7997
 -85.7994
 -85.7903
 -85.7905
 -85.792
 -85.7913
 -85.7667
 -85.7675
 -85.7681
 -85.7659
 -85.8198
 -85.8057
 -85.8067
 -85.8052
 -85.8065
 -85.7879
 -85.7873
 -85.7861
 -85.7865
 -85.8088
 -85.8096
 -85.8094
 -85.8104
 -85.7778
 -85.777
 -85.7772
 -85.7785
 -85.8034
 -85.8041
 -85.8026
 -85.7652
 -85.7671
 -85.7656
 -85.7653
 -85.8141
 -85.812
 -85.8134
 -85.8127
 -85.7743
 -85.7741
 -85.7749
 -85.7743
 -85.8283
 -85.8279
 -85.8281
 -85.8287
 -85.7797
 -85.7799
 -85.7801
 -85.7798
 -85.7541
 -85.7575
 -85.7572
 -85.7561
 -85.764
 -85.7638
 -85.7652
 -85.7649
 -85.826
 -85.8255
 -85.8251
 -85.8249
 -85.8221
 -85.8219
 -85.8225
 -85.8227
 -85.7938
 -85.7951
 -85.7947
 -85.7951
 -85.7808
 -85.7805
 -85.7815
 -85.7975
 -85.7975
 -85.7956
 -85.7964
 -85.8056
 -85.8049
 -85.8065
 -85.8065
 -85.797
 -85.7996
 -85.7987
 -85.7985
 -85.7951
 -85.7956
 -85.7976
 -85.7965
 -85.825
 -85.8242
 -85.8243
 -85.824
 -85.7766
 -85.7762
 -85.7778
 -85.7766
 -85.7642
 -85.7616
 -85.7619
 -85.8089
 -85.8079
 -85.8085
 -85.8079
 -85.8168
 -85.8179
 -85.8171
 -85.8168
 -85.7786
 -85.7782
 -85.7789
 -85.777
 -85.7772
 -85.7778
 -85.7761
 -85.8185
 -85.8179
 -85.819
 -85.8173
 -85.7919
 -85.7917
 -85.7928
 -85.7918
 -85.7774
 -85.7759
 -85.777
 -85.7771
 -85.7879
 -85.7872
 -85.7873
 -85.7883
 -85.8143
 -85.8142
 -85.8132
 -85.8142
 -85.778
 -85.7798
 -85.777
 -85.7794
 -85.7893
 -85.7872
 -85.7879
 -85.7885
 -85.7829
 -85.7841
 -85.7831
 -85.8222
 -85.822
 -85.8213
 -85.8215
 -85.7922
 -85.7925
 -85.7915
 -85.793
 -85.8261
 -85.8258
 -85.8271
 -85.7966
 -85.7972
 -85.797
 -85.7965
 -85.7668
 -85.768
 -85.766
 -85.7666
 -85.8011
 -85.8014
 -85.8023
 -85.8034
 -85.7945
 -85.7962
 -85.794
 -85.7792
 -85.7796
 -85.7808
 -85.7799
 -85.7737
 -85.774
 -85.7733
 -85.7743
 -85.779
 -85.7796
 -85.7806
 -85.7788
 -85.753
 -85.7532
 -85.755
 -85.7552
 -85.7856
 -85.7852
 -85.7845
 -85.7845
 -85.7829
 -85.7824
 -85.7843
 -85.7821
 -85.819
 -85.8177
 -85.8179
 -85.8196
 -85.7719
 -85.7737
 -85.7731
 -85.7727
 -85.8046
 -85.804
 -85.805
 -85.8054
 -85.8229
 -85.8231
 -85.8225
 -85.822
 -85.8233
 -85.8221
 -85.8227
 -85.8231
 -85.8131
 -85.814
 -85.8131
 -85.8137
 -85.824
 -85.8251
 -85.825
 -85.8233
 -85.8197
 -85.8199
 -85.8198
 -85.8262
 -85.8247
 -85.8252
 -85.8251
 -85.7693
 -85.7686
 -85.7692
 -85.7681
 -85.7877
 -85.7864
 -85.7857
 -85.7866
 -85.7832
 -85.7848
 -85.7837
 -85.785
 -85.7855
 -85.7848
 -85.7847
 -85.7843
 -85.8211
 -85.8202
 -85.8208
 -85.8212
 -85.7877
 -85.7878
 -85.7865
 -85.7859
 -85.7792
 -85.7777
 -85.7777
 -85.7788
 -85.8064
 -85.806
 -85.8074
 -85.8057
 -85.7803
 -85.7818
 -85.7803
 -85.7812
 -85.8095
 -85.8086
 -85.8084
 -85.7972
 -85.7986
 -85.7986
 -85.818
 -85.8168
 -85.8172
 -85.8174
 -85.788
 -85.7886
 -85.7876
 -85.7876
 -85.8036
 -85.8025
 -85.8028
 -85.8038
 -85.7849
 -85.7832
 -85.7841
 -85.7852
 -85.8264
 -85.8259
 -85.8232
 -85.8227
 -85.8223
 -85.8234
 -85.7675
 -85.7671
 -85.7672
 -85.7664
 -85.8042
 -85.8053
 -85.8055
 -85.8063
 -85.779
 -85.7807
 -85.7794
 -85.7783
 -85.7377
 -85.735
 -85.7375
 -85.7366
 -85.7803
 -85.7798
 -85.779
 -85.7797
 -85.8088
 -85.8077
 -85.8087
 -85.7722
 -85.7719
 -85.7736
 -85.7735
 -85.8224
 -85.8214
 -85.8227
 -85.8218
 -85.7806
 -85.7812
 -85.7807
 -85.7813
 -85.8034
 -85.8046
 -85.8039
 -85.8036
 -85.7674
 -85.7681
 -85.7665
 -85.7676
 -85.7484
 -85.7482
 -85.7492
 -85.7496
 -85.7779
 -85.7789
 -85.7778
 -85.7776
 -85.7863
 -85.7858
 -85.7868
 -85.7986
 -85.7966
 -85.7989
 -85.798
 -85.7747
 -85.7747
 -85.7732
 -85.8097
 -85.8092
 -85.81
 -85.8107
 -85.8133
 -85.8151
 -85.8134
 -85.8149
 -85.8077
 -85.8066
 -85.8076
 -85.8077
 -85.8216
 -85.8194
 -85.8202
 -85.8205
 -85.8122
 -85.8112
 -85.8118
 -85.7824
 -85.7833
 -85.7831
 -85.7838
 -85.8106
 -85.8095
 -85.8058
 -85.8045
 -85.804
 -85.8053
 -85.8087
 -85.8082
 -85.8083
 -85.8092
 -85.7784
 -85.7791
 -85.7787
 -85.7774
 -85.7794
 -85.7804
 -85.7794
 -85.7804
 -85.7383
 -85.7393
 -85.7397
 -85.7389
 -85.7793
 -85.7802
 -85.7793
 -85.7827
 -85.7821
 -85.7818
 -85.7823
 -85.7941
 -85.794
 -85.7932
 -85.793
 -85.7828
 -85.7843
 -85.7844
 -85.7834
 -85.7676
 -85.7685
 -85.7675
 -85.7673
 -85.8135
 -85.8121
 -85.8134
 -85.8123
 -85.7933
 -85.7943
 -85.7931
 -85.7923
 -85.8212
 -85.8212
 -85.8208
 -85.8214
 -85.7999
 -85.7987
 -85.7998
 -85.7991
 -85.8203
 -85.8207
 -85.8204
 -85.7512
 -85.7527
 -85.7521
 -85.7523
 -85.808
 -85.8098
 -85.8082
 -85.8084
 -85.7898
 -85.7886
 -85.79
 -85.7894
 -85.7761
 -85.7753
 -85.7844
 -85.7846
 -85.7853
 -85.785
 -85.7891
 -85.7877
 -85.7881
 -85.8185
 -85.8189
 -85.818
 -85.8187
 -85.819
 -85.8183
 -85.8174
 -85.818
 -85.7764
 -85.7758
 -85.7766
 -85.7761
 -85.7922
 -85.7916
 -85.7805
 -85.7819
 -85.7811
 -85.7799
 -85.811
 -85.8102
 -85.812
 -85.812
 -85.7663
 -85.7662
 -85.7661
 -85.7667
 -85.7779
 -85.7784
 -85.7773
 -85.7772
 -85.7804
 -85.7817
 -85.7823
 -85.7817
 -85.7964
 -85.7961
 -85.7963
 -85.7981
 -85.8099
 -85.8096
 -85.8089
 -85.809
 -85.812
 -85.8109
 -85.8101
 -85.8113
 -85.7443
 -85.744
 -85.7435
 -85.7429
 -85.7726
 -85.7738
 -85.7743
 -85.7988
 -85.7966
 -85.7979
 -85.8004
 -85.8017
 -85.8004
 -85.8018
 -85.8204
 -85.8211
 -85.8206
 -85.8214
 -85.792
 -85.7797
 -85.7796
 -85.7781
 -85.7786
 -85.8044
 -85.8036
 -85.8025
 -85.8032
 -85.813
 -85.8117
 -85.812
 -85.8133
 -85.817
 -85.8173
 -85.7764
 -85.7759
 -85.7753
 -85.7752
 -85.7946
 -85.7957
 -85.7952
 -85.796
 -85.7729
 -85.7725
 -85.7728
 -85.7733
 -85.8008
 -85.7861
 -85.7851
 -85.7874
 -85.788
 -85.7835
 -85.7844
 -85.7849
 -85.7841
 -85.8209
 -85.8195
 -85.8226
 -85.8233
 -85.8234
 -85.8229
 -85.7583
 -85.7574
 -85.7579
 -85.7585
 -85.8116
 -85.8119
 -85.8105
 -85.8125
 -85.8009
 -85.7992
 -85.7998
 -85.8011
 -85.7472
 -85.7477
 -85.7477
 -85.7467
 -85.7941
 -85.7941
 -85.7948
 -85.7934
 -85.7931
 -85.7915
 -85.7908
 -85.791
 -85.7752
 -85.7736
 -85.7754
 -85.7748
 -85.8256
 -85.8262
 -85.8264
 -85.8264
 -85.7914
 -85.79
 -85.7902
 -85.7816
 -85.7831
 -85.783
 -85.7818
 -85.8235
 -85.8249
 -85.824
 -85.8242
 -85.7817
 -85.7808
 -85.7796
 -85.7822
 -85.7894
 -85.7904
 -85.8147
 -85.8149
 -85.8158
 -85.8138
 -85.7986
 -85.7987
 -85.8003
 -85.8
 -85.8221
 -85.8214
 -85.8223
 -85.822
 -85.7909
 -85.793
 -85.7785
 -85.779
 -85.7794
 -85.7793
 -85.7818
 -85.7819
 -85.7827
 -85.7832
 -85.8162
 -85.8161
 -85.8148
 -85.8153
 -85.8129
 -85.8125
 -85.8133
 -85.8134
 -85.811
 -85.8094
 -85.8109
 -85.8103
 -85.7829
 -85.7846
 -85.7839
 -85.7829
 -85.7585
 -85.7576
 -85.7582
 -85.7585
 -85.8237
 -85.8245
 -85.8237
 -85.8241
 -85.7746
 -85.7748
 -85.775
 -85.7758
 -85.7975
 -85.7983
 -85.7989
 -85.7975
 -85.7848
 -85.7871
 -85.7856
 -85.7863
 -85.7972
 -85.7956
 -85.7969
 -85.8034
 -85.8049
 -85.8033
 -85.8049
 -85.7941
 -85.7952
 -85.7944
 -85.7934
 -85.8082
 -85.8086
 -85.8096
 -85.8079
 -85.808
 -85.8077
 -85.8082
 -85.8063
 -85.7468
 -85.7492
 -85.747
 -85.7676
 -85.7693
 -85.7698
 -85.7692
 -85.797
 -85.796
 -85.7964
 -85.7963
 -85.8153
 -85.8162
 -85.8156
 -85.8166
 -85.7789
 -85.7773
 -85.7789
 -85.781
 -85.7817
 -85.7817
 -85.8017
 -85.8012
 -85.8021
 -85.8021
 -85.7966
 -85.7977
 -85.7983
 -85.7984
 -85.829
 -85.8289
 -85.8286
 -85.8292
 -85.7639
 -85.7644
 -85.7634
 -85.7615
 -85.8102
 -85.8108
 -85.7868
 -85.7884
 -85.7884
 -85.7871
 -85.8071
 -85.8078
 -85.8078
 -85.8081
 -85.7998
 -85.8002
 -85.8011
 -85.8003
 -85.7888
 -85.7887
 -85.79
 -85.7877
 -85.8057
 -85.8069
 -85.8064
 -85.8067
 -85.7765
 -85.7769
 -85.7769
 -85.7778
 -85.7716
 -85.7707
 -85.7718
 -85.7713
 -85.8138
 -85.8143
 -85.8155
 -85.8168
 -85.7966
 -85.7974
 -85.7984
 -85.7552
 -85.7547
 -85.7557
 -85.8168
 -85.8175
 -85.8177
 -85.818
 -85.8187
 -85.8183
 -85.8178
 -85.8176
 -85.7941
 -85.7945
 -85.795
 -85.7955
 -85.8206
 -85.8213
 -85.8212
 -85.8211
 -85.8218
 -85.823
 -85.822
 -85.8232
 -85.7887
 -85.7894
 -85.7905
 -85.7891
 -85.812
 -85.8126
 -85.8131
 -85.813
 -85.8285
 -85.8287
 -85.8282
 -85.829
 -85.8118
 -85.8117
 -85.8111
 -85.8126
 -85.7979
 -85.7963
 -85.7969
 -85.7956
 -85.8159
 -85.8162
 -85.8154
 -85.8151
 -85.808
 -85.8076
 -85.8086
 -85.802
 -85.8032
 -85.7599
 -85.7604
 -85.7595
 -85.759
 -85.8013
 -85.8027
 -85.8022
 -85.8021
 -85.7608
 -85.7612
 -85.7615
 -85.7616
 -85.7608
 -85.7603
 -85.7623
 -85.7624
 -85.7989
 -85.7997
 -85.7997
 -85.7986
 -85.7866
 -85.7867
 -85.7855
 -85.7871
 -85.8036
 -85.8051
 -85.8046
 -85.8045
 -85.7956
 -85.7947
 -85.7698
 -85.7691
 -85.7695
 -85.7705
 -85.8236
 -85.8241
 -85.8245
 -85.824
 -85.7872
 -85.7863
 -85.7885
 -85.7875
 -85.8157
 -85.8152
 -85.8144
 -85.8153
 -85.77
 -85.7687
 -85.7698
 -85.7692
 -85.8191
 -85.8204
 -85.8201
 -85.8203
 -85.8015
 -85.8
 -85.8013
 -85.8013
 -85.7797
 -85.7781
 -85.777
 -85.7779
 -85.8282
 -85.828
 -85.828
 -85.8276
 -85.7836
 -85.785
 -85.7839
 -85.7837
 -85.7887
 -85.7868
 -85.7881
 -85.787
 -85.8244
 -85.8246
 -85.8238
 -85.8248
 -85.7941
 -85.7921
 -85.7928
 -85.7928
 -85.8165
 -85.8173
 -85.8167
 -85.8164
 -85.8153
 -85.8144
 -85.8148
 -85.7899
 -85.7877
 -85.7884
 -85.7885
 -85.8154
 -85.8163
 -85.8156
 -85.816
 -85.7755
 -85.7767
 -85.7766
 -85.7754
 -85.8185
 -85.8191
 -85.8191
 -85.8187
 -85.8179
 -85.8175
 -85.8181
 -85.8177
 -85.7772
 -85.7768
 -85.7791
 -85.7779
 -85.7788
 -85.7785
 -85.7797
 -85.7779
 -85.7317
 -85.7321
 -85.731
 -85.7313
 -85.8108
 -85.8094
 -85.8096
 -85.7612
 -85.7631
 -85.7634
 -85.7622
 -85.8225
 -85.8216
 -85.8219
 -85.822
 -85.7763
 -85.8163
 -85.815
 -85.8152
 -85.8161
 -85.8164
 -85.8152
 -85.8155
 -85.7435
 -85.7421
 -85.7427
 -85.7432
 -85.7405
 -85.741
 -85.7404
 -85.74
 -85.8216
 -85.8206
 -85.8214
 -85.8221
 -85.7787
 -85.7782
 -85.7793
 -85.7779
 -85.8075
 -85.807
 -85.8083
 -85.7847
 -85.7835
 -85.7846
 -85.783
 -85.79
 -85.79
 -85.7898
 -85.8158
 -85.8155
 -85.817
 -85.8011
 -85.8023
 -85.8023
 -85.8012
 -85.7853
 -85.7837
 -85.7838
 -85.7849
 -85.7778
 -85.7783
 -85.7776
 -85.7782
 -85.8076
 -85.8084
 -85.8086
 -85.7683
 -85.7692
 -85.7669
 -85.7668
 -85.7778
 -85.7801
 -85.7783
 -85.7884
 -85.7908
 -85.7901
 -85.7894
 -85.7745
 -85.7758
 -85.776
 -85.7754
 -85.778
 -85.7795
 -85.7798
 -85.7794
 -85.8165
 -85.8157
 -85.8158
 -85.8157
 -85.7917
 -85.7905
 -85.7912
 -85.7921
 -85.7818
 -85.7819
 -85.7976
 -85.7968
 -85.7972
 -85.7959
 -85.8198
 -85.8228
 -85.8232
 -85.823
 -85.8229
 -85.7297
 -85.7294
 -85.7292
 -85.7297
 -85.8136
 -85.8149
 -85.814
 -85.8261
 -85.8259
 -85.8256
 -85.826
 -85.8112
 -85.8096
 -85.8102
 -85.8098
 -85.7772
 -85.7776
 -85.7783
 -85.7772
 -85.7905
 -85.7895
 -85.7892
 -85.7888
 -85.8268
 -85.8267
 -85.8265
 -85.8263
 -85.8108
 -85.8098
 -85.8091
 -85.81
 -85.7674
 -85.7663
 -85.7661
 -85.7683
 -85.7886
 -85.7886
 -85.7889
 -85.7867
 -85.7871
 -85.7878
 -85.7885
 -85.7873
 -85.7296
 -85.7294
 -85.7294
 -85.7298
 -85.7754
 -85.7751
 -85.7748
 -85.7758
 -85.8112
 -85.8127
 -85.8114
 -85.812
 -85.8019
 -85.8018
 -85.8032
 -85.8015
 -85.7921
 -85.7928
 -85.7942
 -85.7928
 -85.8088
 -85.8102
 -85.8096
 -85.8098
 -85.8022
 -85.8024
 -85.8035
 -85.8021
 -85.8093
 -85.8091
 -85.8084
 -85.8105
 -85.8283
 -85.8272
 -85.8275
 -85.8285
 -85.8132
 -85.8125
 -85.8122
 -85.8105
 -85.808
 -85.807
 -85.8065
 -85.8079
 -85.8066
 -85.7975
 -85.7974
 -85.7965
 -85.7988
 -85.8232
 -85.8229
 -85.8226
 -85.8226
 -85.7918
 -85.7908
 -85.7921
 -85.7916
 -85.8012
 -85.8018
 -85.8024
 -85.8003
 -85.7953
 -85.7938
 -85.7949
 -85.7961
 -85.785
 -85.7829
 -85.7846
 -85.7832
 -85.7516
 -85.7523
 -85.7544
 -85.7517
 -85.829
 -85.828
 -85.8056
 -85.8048
 -85.8048
 -85.735
 -85.735
 -85.7351
 -85.7802
 -85.7792
 -85.7798
 -85.7786
 -85.7602
 -85.7607
 -85.7583
 -85.758
 -85.7728
 -85.772
 -85.7731
 -85.771
 -85.823
 -85.8215
 -85.8222
 -85.8222
 -85.7982
 -85.7967
 -85.7971
 -85.7965
 -85.807
 -85.8086
 -85.8083
 -85.8095
 -85.802
 -85.8021
 -85.8008
 -85.8003
 -85.8098
 -85.8102
 -85.8093
 -85.8095
 -85.7933
 -85.7931
 -85.816
 -85.8134
 -85.816
 -85.8139
 -85.8099
 -85.8091
 -85.8084
 -85.8106
 -85.7797
 -85.7782
 -85.78
 -85.7785
 -85.7802
 -85.7806
 -85.7806
 -85.7808
 -85.8005
 -85.8006
 -85.8002
 -85.8012
 -85.7983
 -85.7989
 -85.7998
 -85.8007
 -85.7731
 -85.7712
 -85.771
 -85.7732
 -85.8085
 -85.8077
 -85.8073
 -85.807
 -85.8273
 -85.8269
 -85.8272
 -85.827
 -85.8175
 -85.8169
 -85.817
 -85.8166
 -85.8284
 -85.8287
 -85.8282
 -85.8288
 -85.8191
 -85.8201
 -85.8198
 -85.8199
 -85.7969
 -85.7987
 -85.797
 -85.7974
 -85.8081
 -85.807
 -85.7941
 -85.7957
 -85.7937
 -85.7947
 -85.7799
 -85.781
 -85.781
 -85.7814
 -85.8129
 -85.8142
 -85.8142
 -85.8131
 -85.7935
 -85.7929
 -85.7936
 -85.792
 -85.7889
 -85.7878
 -85.7875
 -85.7881
 -85.7773
 -85.7775
 -85.7782
 -85.779
 -85.7819
 -85.7815
 -85.781
 -85.7831
 -85.7773
 -85.7781
 -85.7786
 -85.7778
 -85.7541
 -85.7546
 -85.7535
 -85.7537
 -85.8116
 -85.812
 -85.8106
 -85.8117
 -85.8063
 -85.8067
 -85.7564
 -85.7575
 -85.7573
 -85.7555
 -85.7843
 -85.7846
 -85.8049
 -85.804
 -85.805
 -85.8175
 -85.8175
 -85.7752
 -85.7751
 -85.7746
 -85.7758
 -85.7562
 -85.7572
 -85.7572
 -85.7575
 -85.772
 -85.7726
 -85.7735
 -85.7738
 -85.7839
 -85.7847
 -85.7851
 -85.7855
 -85.8025
 -85.801
 -85.8009
 -85.8011
 -85.8064
 -85.8058
 -85.8057
 -85.8054
 -85.7834
 -85.7849
 -85.7849
 -85.7846
 -85.8014
 -85.8012
 -85.8018
 -85.7998
 -85.796
 -85.795
 -85.7948
 -85.7955
 -85.7983
 -85.7994
 -85.8001
 -85.7994
 -85.7992
 -85.7976
 -85.7995
 -85.7938
 -85.7929
 -85.795
 -85.7941
 -85.7862
 -85.7868
 -85.7853
 -85.7858
 -85.7786
 -85.7797
 -85.778
 -85.7795
 -85.8227
 -85.8225
 -85.823
 -85.8235
 -85.7913
 -85.7913
 -85.7926
 -85.7927
 -85.7713
 -85.7711
 -85.7696
 -85.7708
 -85.7676
 -85.7675
 -85.7672
 -85.7667
 -85.7736
 -85.7728
 -85.7729
 -85.7733
 -85.7771
 -85.7771
 -85.7786
 -85.7788
 -85.7784
 -85.7776
 -85.7772
 -85.7778
 -85.8215
 -85.8221
 -85.822
 -85.8222
 -85.7894
 -85.7894
 -85.7891
 -85.7905
 -85.8107
 -85.8113
 -85.8105
 -85.81
 -85.7785
 -85.78
 -85.7779
 -85.7794
 -85.8237
 -85.8242
 -85.824
 -85.8248
 -85.825
 -85.825
 -85.8256
 -85.809
 -85.8065
 -85.8074
 -85.8075
 -85.7814
 -85.782
 -85.7805
 -85.7815
 -85.827
 -85.8261
 -85.8263
 -85.788
 -85.7868
 -85.7876
 -85.7857
 -85.819
 -85.8192
 -85.8173
 -85.8176
 -85.8187
 -85.8174
 -85.7857
 -85.7846
 -85.7851
 -85.7681
 -85.7686
 -85.7669
 -85.7676
 -85.7778
 -85.7768
 -85.7783
 -85.7784
 -85.796
 -85.7975
 -85.7957
 -85.8238
 -85.8222
 -85.8224
 -85.8095
 -85.8083
 -85.8078
 -85.8085
 -85.8242
 -85.8242
 -85.8229
 -85.8251
 -85.7898
 -85.7913
 -85.792
 -85.7908
 -85.8187
 -85.819
 -85.8196
 -85.8179
 -85.7966
 -85.7969
 -85.7959
 -85.7955
 -85.7823
 -85.7811
 -85.7818
 -85.8263
 -85.8255
 -85.8259
 -85.827
 -85.8066
 -85.8017
 -85.8032
 -85.8029
 -85.8021
 -85.8032
 -85.8032
 -85.8022
 -85.7812
 -85.7806
 -85.7805
 -85.7804
 -85.7803
 -85.782
 -85.7909
 -85.7894
 -85.7892
 -85.7888
 -85.789
 -85.7906
 -85.7893
 -85.7902
 -85.8087
 -85.8273
 -85.8262
 -85.8259
 -85.8268
 -85.7468
 -85.7451
 -85.7464
 -85.7464
 -85.785
 -85.784
 -85.7815
 -85.781
 -85.7816
 -85.7819
 -85.7803
 -85.7805
 -85.7788
 -85.7795
 -85.8105
 -85.8091
 -85.8095
 -85.8101
 -85.8118
 -85.8126
 -85.811
 -85.8119
 -85.7822
 -85.781
 -85.8073
 -85.8072
 -85.8089
 -85.8079
 -85.8087
 -85.8099
 -85.8087
 -85.7999
 -85.7991
 -85.7983
 -85.7978
 -85.7916
 -85.7903
 -85.7914
 -85.7903
 -85.8109
 -85.8125
 -85.8122
 -85.8113
 -85.815
 -85.8154
 -85.8161
 -85.8152
 -85.8126
 -85.8139
 -85.8128
 -85.8117
 -85.8122
 -85.8119
 -85.8108
 -85.7907
 -85.7911
 -85.7911
 -85.7901
 -85.7635
 -85.7634
 -85.7643
 -85.7644
 -85.7868
 -85.7865
 -85.7859
 -85.7862
 -85.8147
 -85.8136
 -85.8129
 -85.814
 -85.8069
 -85.8066
 -85.8064
 -85.8077
 -85.7865
 -85.7874
 -85.7878
 -85.788
 -85.807
 -85.8057
 -85.8065
 -85.8069
 -85.7992
 -85.7997
 -85.7975
 -85.7995
 -85.7998
 -85.8012
 -85.8007
 -85.801
 -85.8067
 -85.8073
 -85.8074
 -85.8227
 -85.8229
 -85.8224
 -85.8226
 -85.7862
 -85.7876
 -85.7869
 -85.7872
 -85.7947
 -85.7962
 -85.7959
 -85.7955
 -85.7636
 -85.7625
 -85.7627
 -85.7642
 -85.777
 -85.778
 -85.7779
 -85.7771
 -85.7791
 -85.7767
 -85.7777
 -85.7765
 -85.7769
 -85.7775
 -85.7773
 -85.7779
 -85.7986
 -85.7978
 -85.7982
 -85.7723
 -85.772
 -85.7727
 -85.7728
 -85.7744
 -85.7749
 -85.7761
 -85.7743
 -85.8262
 -85.8255
 -85.8254
 -85.8258
 -85.7996
 -85.7988
 -85.7985
 -85.7979
 -85.8158
 -85.8159
 -85.8154
 -85.8147
 -85.8021
 -85.8028
 -85.8018
 -85.801
 -85.8063
 -85.8073
 -85.8064
 -85.8067
 -85.7806
 -85.7794
 -85.7801
 -85.7784
 -85.7947
 -85.7973
 -85.7954
 -85.7956
 -85.8154
 -85.816
 -85.815
 -85.8153
 -85.8034
 -85.8029
 -85.8045
 -85.804
 -85.775
 -85.7745
 -85.7763
 -85.7766
 -85.8226
 -85.823
 -85.8227
 -85.823
 -85.787
 -85.7858
 -85.7741
 -85.7951
 -85.7958
 -85.7965
 -85.7947
 -85.7914
 -85.7924
 -85.7909
 -85.7908
 -85.7585
 -85.7582
 -85.76
 -85.7849
 -85.7838
 -85.7834
 -85.7826
 -85.8023
 -85.8045
 -85.8037
 -85.8047
 -85.7962
 -85.7975
 -85.7967
 -85.7963
 -85.8204
 -85.8209
 -85.821
 -85.8207
 -85.7781
 -85.78
 -85.7786
 -85.7798
 -85.7797
 -85.7794
 -85.7812
 -85.7599
 -85.7578
 -85.7589
 -85.76
 -85.7774
 -85.7789
 -85.7779
 -85.8013
 -85.804
 -85.8017
 -85.777
 -85.7769
 -85.7758
 -85.7764
 -85.7914
 -85.7928
 -85.7931
 -85.7929
 -85.7298
 -85.7298
 -85.7298
 -85.7306
 -85.7902
 -85.7896
 -85.7899
 -85.771
 -85.7709
 -85.7711
 -85.7712
 -85.7899
 -85.7892
 -85.7878
 -85.7891
 -85.776
 -85.7772
 -85.7771
 -85.7776
 -85.8076
 -85.8081
 -85.8073
 -85.8084
 -85.8111
 -85.8102
 -85.8111
 -85.8116
 -85.825
 -85.825
 -85.8254
 -85.8246
 -85.8003
 -85.7986
 -85.8001
 -85.8006
 -85.7754
 -85.7743
 -85.7753
 -85.7746
 -85.7814
 -85.7807
 -85.7661
 -85.766
 -85.7668
 -85.7666
 -85.793
 -85.7936
 -85.7849
 -85.787
 -85.7866
 -85.7798
 -85.7805
 -85.7812
 -85.7803
 -85.8223
 -85.8225
 -85.8211
 -85.8213
 -85.8213
 -85.8209
 -85.8205
 -85.821
 -85.7806
 -85.7812
 -85.7804
 -85.7791
 -85.7722
 -85.7725
 -85.8025
 -85.8027
 -85.8024
 -85.8037
 -85.7793
 -85.7787
 -85.78
 -85.7798
 -85.7869
 -85.7851
 -85.7882
 -85.8286
 -85.8288
 -85.8282
 -85.7962
 -85.798
 -85.7971
 -85.7973
 -85.8181
 -85.8193
 -85.8178
 -85.8174
 -85.7983
 -85.7996
 -85.7998
 -85.7982
 -85.8106
 -85.8117
 -85.8118
 -85.81
 -85.7751
 -85.7761
 -85.7753
 -85.7748
 -85.7782
 -85.78
 -85.7776
 -85.7794
 -85.799
 -85.7976
 -85.7999
 -85.7983
 -85.7855
 -85.7872
 -85.7876
 -85.7854
 -85.7742
 -85.7746
 -85.7753
 -85.7765
 -85.7916
 -85.7923
 -85.7932
 -85.7939
 -85.8054
 -85.8057
 -85.8048
 -85.7981
 -85.7993
 -85.7985
 -85.7993
 -85.7373
 -85.7391
 -85.7396
 -85.7386
 -85.7725
 -85.7724
 -85.7727
 -85.7726
 -85.7848
 -85.7845
 -85.7847
 -85.7861
 -85.7553
 -85.7565
 -85.7544
 -85.7558
 -85.8179
 -85.8176
 -85.8169
 -85.8257
 -85.8252
 -85.8247
 -85.8251
 -85.8125
 -85.8146
 -85.8136
 -85.8137
 -85.7976
 -85.8053
 -85.8068
 -85.8073
 -85.8063
 -85.7948
 -85.7958
 -85.7941
 -85.7942
 -85.7713
 -85.7696
 -85.7706
 -85.7794
 -85.7799
 -85.7803
 -85.7783
 -85.7384
 -85.7367
 -85.7382
 -85.7359
 -85.7587
 -85.7587
 -85.7595
 -85.7586
 -85.7838
 -85.7838
 -85.7847
 -85.7856
 -85.8267
 -85.8257
 -85.826
 -85.8257
 -85.7424
 -85.7422
 -85.7439
 -85.7432
 -85.8092
 -85.8101
 -85.8083
 -85.8094
 -85.7981
 -85.7983
 -85.7996
 -85.7983
 -85.7808
 -85.7783
 -85.7783
 -85.7929
 -85.7913
 -85.791
 -85.791
 -85.8258
 -85.826
 -85.8263
 -85.7724
 -85.7748
 -85.7752
 -85.7908
 -85.7917
 -85.7931
 -85.7929
 -85.7842
 -85.7839
 -85.7836
 -85.7831
 -85.7859
 -85.7856
 -85.7871
 -85.7875
 -85.7708
 -85.7699
 -85.7699
 -85.7715
 -85.793
 -85.7939
 -85.7924
 -85.7942
 -85.8226
 -85.821
 -85.821
 -85.8203
 -85.8202
 -85.8199
 -85.8195
 -85.8206
 -85.7684
 -85.7685
 -85.7688
 -85.7682
 -85.8169
 -85.8172
 -85.8171
 -85.8159
 -85.8215
 -85.8227
 -85.8223
 -85.8211
 -85.8163
 -85.8164
 -85.815
 -85.8152
 -85.8055
 -85.8051
 -85.8062
 -85.8056
 -85.7958
 -85.7948
 -85.7964
 -85.7839
 -85.7818
 -85.7825
 -85.7828
 -85.8117
 -85.8108
 -85.8098
 -85.8112
 -85.8132
 -85.8134
 -85.8142
 -85.8138
 -85.8292
 -85.829
 -85.8283
 -85.8286
 -85.7589
 -85.7599
 -85.7596
 -85.7598
 -85.7666
 -85.7661
 -85.7663
 -85.767
 -85.771
 -85.7708
 -85.7727
 -85.7707
 -85.7848
 -85.7829
 -85.7842
 -85.7842
 -85.7874
 -85.7875
 -85.7874
 -85.8222
 -85.8229
 -85.8239
 -85.8233
 -85.8145
 -85.8141
 -85.8135
 -85.8133
 -85.7941
 -85.7931
 -85.7928
 -85.7936
 -85.8207
 -85.8215
 -85.8022
 -85.8023
 -85.8023
 -85.801
 -85.8203
 -85.8208
 -85.8218
 -85.8208
 -85.7997
 -85.8014
 -85.7993
 -85.8017
 -85.7834
 -85.7846
 -85.7823
 -85.7833
 -85.7654
 -85.7642
 -85.7652
 -85.7665
 -85.7366
 -85.7381
 -85.7358
 -85.7373
 -85.8185
 -85.8179
 -85.8178
 -85.8187
 -85.8205
 -85.8206
 -85.8207
 -85.8214
 -85.7898
 -85.7879
 -85.7892
 -85.7883
 -85.7974
 -85.7967
 -85.7965
 -85.7975
 -85.7784
 -85.7771
 -85.7793
 -85.8031
 -85.8022
 -85.8023
 -85.8015
 -85.7787
 -85.7784
 -85.7792
 -85.7794
 -85.7952
 -85.7937
 -85.7927
 -85.7936
 -85.8063
 -85.8056
 -85.8061
 -85.8064
 -85.7984
 -85.798
 -85.7974
 -85.8169
 -85.8157
 -85.8162
 -85.8161
 -85.8041
 -85.8058
 -85.7534
 -85.7555
 -85.7528
 -85.754
 -85.8118
 -85.8111
 -85.8116
 -85.7806
 -85.781
 -85.7812
 -85.7805
 -85.8042
 -85.8042
 -85.8036
 -85.7949
 -85.7934
 -85.7951
 -85.7941
 -85.8034
 -85.8017
 -85.804
 -85.8028
 -85.8041
 -85.8057
 -85.7454
 -85.7453
 -85.7444
 -85.7452
 -85.7386
 -85.737
 -85.7361
 -85.7377
 -85.7963
 -85.7947
 -85.7952
 -85.7945
 -85.8028
 -85.802
 -85.8028
 -85.8017
 -85.7458
 -85.7457
 -85.7459
 -85.7471
 -85.7803
 -85.7788
 -85.7694
 -85.7698
 -85.7702
 -85.7714
 -85.8047
 -85.8044
 -85.8062
 -85.8052
 -85.8019
 -85.8022
 -85.8034
 -85.8014
 -85.8035
 -85.8021
 -85.8018
 -85.802
 -85.7845
 -85.7848
 -85.7857
 -85.7845
 -85.7751
 -85.7744
 -85.7732
 -85.7752
 -85.7607
 -85.7624
 -85.7622
 -85.7607
 -85.7762
 -85.7761
 -85.7762
 -85.7783
 -85.8118
 -85.8109
 -85.8122
 -85.8116
 -85.7963
 -85.7931
 -85.7948
 -85.7571
 -85.7582
 -85.7593
 -85.8074
 -85.8093
 -85.8083
 -85.8083
 -85.8084
 -85.8064
 -85.8074
 -85.808
 -85.7899
 -85.789
 -85.7885
 -85.7923
 -85.7928
 -85.7941
 -85.7928
 -85.7757
 -85.775
 -85.7748
 -85.7748
 -85.8163
 -85.8159
 -85.8168
 -85.8164
 -85.7734
 -85.7731
 -85.7732
 -85.7736
 -85.7713
 -85.7705
 -85.7713
 -85.8251
 -85.8264
 -85.8269
 -85.826
 -85.8156
 -85.8164
 -85.7824
 -85.7817
 -85.783
 -85.7828
 -85.7952
 -85.7968
 -85.7954
 -85.7924
 -85.7918
 -85.792
 -85.7906
 -85.774
 -85.7753
 -85.7746
 -85.8153
 -85.816
 -85.8145
 -85.8149
 -85.7736
 -85.7757
 -85.7742
 -85.7738
 -85.8097
 -85.8085
 -85.8078
 -85.8083
 -85.7739
 -85.7744
 -85.7755
 -85.774
 -85.775
 -85.7745
 -85.7809
 -85.7801
 -85.7804
 -85.7809
 -85.7595
 -85.7588
 -85.7572
 -85.7586
 -85.8121
 -85.8133
 -85.7859
 -85.7868
 -85.787
 -85.7869
 -85.8251
 -85.8248
 -85.825
 -85.8254
 -85.784
 -85.7829
 -85.7846
 -85.7858
 -85.814
 -85.8152
 -85.8155
 -85.8154
 -85.8206
 -85.8218
 -85.82
 -85.8214
 -85.8093
 -85.8079
 -85.8227
 -85.8235
 -85.8232
 -85.8229
 -85.7743
 -85.7743
 -85.7738
 -85.7754
 -85.8228
 -85.8231
 -85.8232
 -85.8228
 -85.8261
 -85.8272
 -85.8268
 -85.8262
 -85.8012
 -85.8013
 -85.8026
 -85.8022
 -85.7926
 -85.7919
 -85.7935
 -85.7943
 -85.8191
 -85.8178
 -85.8187
 -85.8191
 -85.7553
 -85.757
 -85.7557
 -85.755
 -85.8184
 -85.8198
 -85.7855
 -85.7866
 -85.7866
 -85.7881
 -85.8185
 -85.8179
 -85.8169
 -85.817
 -85.776
 -85.7773
 -85.777
 -85.7769
 -85.7876
 -85.7854
 -85.7862
 -85.7873
 -85.7768
 -85.7763
 -85.7783
 -85.7755
 -85.7748
 -85.7755
 -85.7744
 -85.7727
 -85.7737
 -85.7733
 -85.7738
 -85.8024
 -85.8013
 -85.801
 -85.8173
 -85.8173
 -85.8183
 -85.8182
 -85.7991
 -85.7984
 -85.7977
 -85.7758
 -85.7749
 -85.7756
 -85.7952
 -85.7971
 -85.7954
 -85.7967
 -85.8043
 -85.8042
 -85.8043
 -85.8058
 -85.791
 -85.7924
 -85.7927
 -85.7922
 -85.7902
 -85.7896
 -85.789
 -85.7871
 -85.7862
 -85.786
 -85.7879
 -85.7888
 -85.7896
 -85.7873
 -85.8178
 -85.8173
 -85.8178
 -85.8167
 -85.8074
 -85.8065
 -85.8073
 -85.8078
 -85.7929
 -85.7932
 -85.7924
 -85.7946
 -85.7728
 -85.7717
 -85.7726
 -85.7996
 -85.7987
 -85.7994
 -85.7998
 -85.7815
 -85.7797
 -85.7806
 -85.7796
 -85.7491
 -85.7498
 -85.7489
 -85.7484
 -85.788
 -85.7872
 -85.7878
 -85.7877
 -85.819
 -85.8187
 -85.8198
 -85.8195
 -85.7866
 -85.7881
 -85.7872
 -85.7864
 -85.7739
 -85.7739
 -85.7743
 -85.7747
 -85.775
 -85.7742
 -85.7745
 -85.7919
 -85.7922
 -85.7916
 -85.8052
 -85.7861
 -85.7837
 -85.7853
 -85.7852
 -85.8209
 -85.8207
 -85.8213
 -85.8192
 -85.8194
 -85.8199
 -85.7857
 -85.7871
 -85.7861
 -85.7869
 -85.8258
 -85.8263
 -85.8266
 -85.8266
 -85.7764
 -85.8017
 -85.8002
 -85.8012
 -85.8009
 -85.7761
 -85.7765
 -85.7764
 -85.7767
 -85.8203
 -85.821
 -85.8196
 -85.8204
 -85.8061
 -85.808
 -85.8073
 -85.8064
 -85.813
 -85.8138
 -85.8122
 -85.8126
 -85.7727
 -85.7732
 -85.7736
 -85.7728
 -85.7829
 -85.784
 -85.7827
 -85.7829
 -85.7996
 -85.7986
 -85.7997
 -85.7983
 -85.7836
 -85.782
 -85.7842
 -85.7826
 -85.8052
 -85.8058
 -85.807
 -85.8067
 -85.777
 -85.7765
 -85.7778
 -85.7777
 -85.7817
 -85.7821
 -85.7834
 -85.7828
 -85.8017
 -85.8019
 -85.8019
 -85.8032
 -85.8204
 -85.8215
 -85.8209
 -85.8216
 -85.7698
 -85.7705
 -85.7714
 -85.7712
 -85.7598
 -85.7577
 -85.7598
 -85.7595
 -85.8214
 -85.8224
 -85.8219
 -85.822
 -85.7621
 -85.7607
 -85.7619
 -85.761
 -85.7606
 -85.7621
 -85.7957
 -85.7961
 -85.795
 -85.7944
 -85.7825
 -85.7833
 -85.7833
 -85.782
 -85.829
 -85.829
 -85.8291
 -85.8286
 -85.8202
 -85.8201
 -85.8213
 -85.8057
 -85.8055
 -85.8067
 -85.8053
 -85.7752
 -85.7755
 -85.7743
 -85.7759
 -85.7815
 -85.7813
 -85.7809
 -85.7805
 -85.7815
 -85.7822
 -85.8061
 -85.8083
 -85.8076
 -85.8067
 -85.8037
 -85.8036
 -85.8024
 -85.804
 -85.8077
 -85.8075
 -85.8063
 -85.8076
 -85.8257
 -85.8257
 -85.8243
 -85.8261
 -85.8106
 -85.8104
 -85.8093
 -85.7879
 -85.7978
 -85.7973
 -85.7977
 -85.7967
 -85.7987
 -85.7971
 -85.7976
 -85.7984
 -85.8165
 -85.8161
 -85.8159
 -85.8153
 -85.8107
 -85.8098
 -85.81
 -85.811
 -85.803
 -85.8018
 -85.8017
 -85.7848
 -85.7835
 -85.785
 -85.7829
 -85.7974
 -85.7995
 -85.7983
 -85.7984
 -85.7874
 -85.7884
 -85.7867
 -85.7424
 -85.7422
 -85.7412
 -85.743
 -85.8169
 -85.8188
 -85.8179
 -85.8167
 -85.815
 -85.817
 -85.816
 -85.7443
 -85.7993
 -85.7995
 -85.7991
 -85.8007
 -85.8027
 -85.8029
 -85.7656
 -85.7657
 -85.7655
 -85.7662
 -85.7713
 -85.7718
 -85.7735
 -85.7714
 -85.779
 -85.7798
 -85.7793
 -85.7796
 -85.7782
 -85.779
 -85.7794
 -85.7781
 -85.7779
 -85.7789
 -85.7877
 -85.7864
 -85.786
 -85.7861
 -85.7893
 -85.7907
 -85.8292
 -85.8291
 -85.7743
 -85.7765
 -85.7742
 -85.7755
 -85.7925
 -85.792
 -85.7931
 -85.7913
 -85.7688
 -85.7694
 -85.767
 -85.7676
 -85.8182
 -85.8189
 -85.8173
 -85.818
 -85.8145
 -85.8135
 -85.8144
 -85.8134
 -85.8053
 -85.8063
 -85.8065
 -85.8057
 -85.7997
 -85.8001
 -85.802
 -85.8013
 -85.796
 -85.7955
 -85.7743
 -85.8094
 -85.8106
 -85.8105
 -85.8107
 -85.8244
 -85.8241
 -85.8253
 -85.8239
 -85.8157
 -85.817
 -85.8154
 -85.816
 -85.7299
 -85.7299
 -85.7302
 -85.7306
 -85.8247
 -85.8249
 -85.8246
 -85.8246
 -85.7794
 -85.7795
 -85.7782
 -85.78
 -85.7852
 -85.7836
 -85.7842
 -85.783
 -85.8081
 -85.8083
 -85.809
 -85.8092
 -85.8087
 -85.8083
 -85.8077
 -85.808
 -85.7754
 -85.7771
 -85.7762
 -85.7767
 -85.8241
 -85.8244
 -85.824
 -85.8241
 -85.8187
 -85.8193
 -85.819
 -85.8196
 -85.8093
 -85.8095
 -85.8104
 -85.8105
 -85.8192
 -85.8183
 -85.8189
 -85.8191
 -85.7817
 -85.7831
 -85.7832
 -85.7836
 -85.7754
 -85.7757
 -85.776
 -85.7764
 -85.8173
 -85.8166
 -85.8162
 -85.8164
 -85.7909
 -85.7905
 -85.7902
 -85.7889
 -85.7926
 -85.7919
 -85.7916
 -85.7924
 -85.7391
 -85.7402
 -85.7405
 -85.7403
 -85.8241
 -85.8243
 -85.8202
 -85.8202
 -85.8196
 -85.8209
 -85.7687
 -85.7676
 -85.7671
 -85.7688
 -85.7832
 -85.7813
 -85.7812
 -85.7807
 -85.819
 -85.8183
 -85.8197
 -85.8198
 -85.7894
 -85.7898
 -85.7891
 -85.7907
 -85.7864
 -85.7869
 -85.7853
 -85.7854
 -85.8252
 -85.8255
 -85.825
 -85.8249
 -85.7989
 -85.7984
 -85.7988
 -85.7994
 -85.7955
 -85.796
 -85.7957
 -85.7947
 -85.8135
 -85.8138
 -85.8143
 -85.8134
 -85.806
 -85.8055
 -85.8051
 -85.8043
 -85.7897
 -85.7897
 -85.788
 -85.7834
 -85.7846
 -85.7839
 -85.786
 -85.7633
 -85.7624
 -85.7624
 -85.7647
 -85.7851
 -85.786
 -85.7862
 -85.7865
 -85.7975
 -85.7967
 -85.7973
 -85.7964
 -85.8247
 -85.825
 -85.8249
 -85.8238
 -85.786
 -85.7883
 -85.7871
 -85.7868
 -85.7689
 -85.7688
 -85.7676
 -85.7667
 -85.8084
 -85.8097
 -85.8091
 -85.8082
 -85.8034
 -85.8031
 -85.8024
 -85.7974
 -85.7991
 -85.7995
 -85.8
 -85.7612
 -85.761
 -85.7612
 -85.7624
 -85.7997
 -85.7987
 -85.799
 -85.7983
 -85.8235
 -85.8235
 -85.8236
 -85.8236
 -85.7983
 -85.7982
 -85.7987
 -85.799
 -85.772
 -85.7712
 -85.7718
 -85.7722
 -85.7773
 -85.7781
 -85.7771
 -85.7761
 -85.8293
 -85.8291
 -85.8294
 -85.8293
 -85.7815
 -85.7819
 -85.7816
 -85.7796
 -85.8031
 -85.8013
 -85.8017
 -85.8023
 -85.8289
 -85.8292
 -85.8287
 -85.8285
 -85.8208
 -85.8221
 -85.8213
 -85.8088
 -85.8087
 -85.8102
 -85.8106
 -85.8177
 -85.8179
 -85.8192
 -85.8173
 -85.7493
 -85.7504
 -85.7514
 -85.751
 -85.7769
 -85.7786
 -85.7762
 -85.8228
 -85.8238
 -85.8235
 -85.8238
 -85.8024
 -85.8019
 -85.8033
 -85.8014
 -85.8127
 -85.8124
 -85.8139
 -85.8115
 -85.7706
 -85.7704
 -85.7692
 -85.7687
 -85.7889
 -85.7908
 -85.7888
 -85.79
 -85.8054
 -85.8033
 -85.8041
 -85.7671
 -85.7675
 -85.7681
 -85.7681
 -85.7765
 -85.7735
 -85.7742
 -85.7738
 -85.787
 -85.8232
 -85.8238
 -85.8233
 -85.824
 -85.7516
 -85.7515
 -85.7501
 -85.7503
 -85.8129
 -85.8149
 -85.814
 -85.8152
 -85.8039
 -85.8031
 -85.8033
 -85.8019
 -85.7426
 -85.8158
 -85.815
 -85.8164
 -85.8228
 -85.824
 -85.8232
 -85.8233
 -85.7932
 -85.7931
 -85.7953
 -85.7939
 -85.8071
 -85.8071
 -85.808
 -85.8064
 -85.7792
 -85.778
 -85.7958
 -85.7952
 -85.795
 -85.7964
 -85.7789
 -85.778
 -85.7773
 -85.7783
 -85.7837
 -85.7832
 -85.7852
 -85.7852
 -85.8094
 -85.8085
 -85.8094
 -85.8096
 -85.7565
 -85.7563
 -85.7562
 -85.7581
 -85.7755
 -85.7749
 -85.7754
 -85.7746
 -85.7597
 -85.7608
 -85.7712
 -85.7713
 -85.7715
 -85.7713
 -85.7691
 -85.7681
 -85.7695
 -85.7683
 -85.825
 -85.8245
 -85.8238
 -85.8237
 -85.8014
 -85.8013
 -85.8008
 -85.8027
 -85.7884
 -85.7904
 -85.7894
 -85.7893
 -85.7975
 -85.7969
 -85.7965
 -85.7978
 -85.8241
 -85.8239
 -85.7667
 -85.7661
 -85.7662
 -85.7667
 -85.8238
 -85.8242
 -85.8233
 -85.7537
 -85.7533
 -85.7536
 -85.7529
 -85.8217
 -85.8203
 -85.8212
 -85.8206
 -85.7845
 -85.7835
 -85.7849
 -85.7833
 -85.7924
 -85.7923
 -85.7918
 -85.8231
 -85.8225
 -85.8228
 -85.8233
 -85.8011
 -85.7997
 -85.8011
 -85.8002
 -85.7926
 -85.7935
 -85.7944
 -85.7932
 -85.785
 -85.7843
 -85.7888
 -85.7861
 -85.7879
 -85.7871
 -85.8036
 -85.8021
 -85.803
 -85.825
 -85.8239
 -85.8237
 -85.8249
 -85.7918
 -85.7927
 -85.7917
 -85.7922
 -85.7891
 -85.7882
 -85.7827
 -85.7813
 -85.7809
 -85.7822
 -85.757
 -85.7573
 -85.7588
 -85.8011
 -85.8015
 -85.7997
 -85.7997
 -85.8244
 -85.8245
 -85.8245
 -85.7595
 -85.7589
 -85.7596
 -85.7911
 -85.7901
 -85.7908
 -85.7895
 -85.8068
 -85.8069
 -85.8055
 -85.806
 -85.7498
 -85.749
 -85.7495
 -85.75
 -85.8182
 -85.8185
 -85.8179
 -85.8177
 -85.8079
 -85.8071
 -85.8072
 -85.8066
 -85.8155
 -85.8158
 -85.8151
 -85.8225
 -85.8228
 -85.824
 -85.8232
 -85.7969
 -85.7953
 -85.7968
 -85.7971
 -85.8225
 -85.8222
 -85.8219
 -85.8217
 -85.7851
 -85.7848
 -85.7857
 -85.7841
 -85.8247
 -85.8053
 -85.7952
 -85.7947
 -85.796
 -85.7943
 -85.8036
 -85.8031
 -85.8023
 -85.8019
 -85.8111
 -85.8113
 -85.8104
 -85.8096
 -85.8043
 -85.8039
 -85.8052
 -85.8046
 -85.8124
 -85.8116
 -85.8125
 -85.8124
 -85.7952
 -85.7943
 -85.7946
 -85.7959
 -85.7929
 -85.7931
 -85.7934
 -85.7941
 -85.7888
 -85.7884
 -85.788
 -85.7895
 -85.7935
 -85.7934
 -85.7922
 -85.7739
 -85.7741
 -85.7738
 -85.7747
 -85.7968
 -85.8063
 -85.8078
 -85.808
 -85.8075
 -85.8235
 -85.8235
 -85.8223
 -85.7828
 -85.7806
 -85.7814
 -85.7807
 -85.7983
 -85.7999
 -85.7994
 -85.804
 -85.8036
 -85.803
 -85.8026
 -85.807
 -85.8077
 -85.8088
 -85.8092
 -85.8199
 -85.8204
 -85.8212
 -85.8202
 -85.7783
 -85.7782
 -85.779
 -85.7771
 -85.7984
 -85.7975
 -85.7974
 -85.7967
 -85.7938
 -85.7932
 -85.7922
 -85.7939
 -85.7926
 -85.7919
 -85.7916
 -85.7907
 -85.7958
 -85.7954
 -85.7962
 -85.7946
 -85.8107
 -85.8087
 -85.8111
 -85.8096
 -85.7925
 -85.7905
 -85.7913
 -85.7917
 -85.7664
 -85.7664
 -85.7663
 -85.7668
 -85.7622
 -85.763
 -85.7626
 -85.7956
 -85.7958
 -85.7969
 -85.7973
 -85.7962
 -85.7964
 -85.7971
 -85.7977
 -85.7932
 -85.792
 -85.7941
 -85.794
 -85.822
 -85.8222
 -85.8209
 -85.821
 -85.8113
 -85.8103
 -85.81
 -85.8111
 -85.7817
 -85.7825
 -85.7823
 -85.7827
 -85.7721
 -85.7739
 -85.7736
 -85.7713
 -85.8192
 -85.8187
 -85.8181
 -85.8192
 -85.7528
 -85.7514
 -85.7518
 -85.7535
 -85.7862
 -85.7875
 -85.7868
 -85.7866
 -85.77
 -85.7707
 -85.7706
 -85.7772
 -85.7781
 -85.7782
 -85.7793
 -85.8092
 -85.809
 -85.8099
 -85.8079
 -85.777
 -85.7754
 -85.7758
 -85.7766
 -85.7626
 -85.7658
 -85.7637
 -85.7496
 -85.7512
 -85.7519
 -85.7511
 -85.8264
 -85.8267
 -85.8269
 -85.8275
 -85.7803
 -85.7793
 -85.78
 -85.7807
 -85.8017
 -85.7999
 -85.8003
 -85.8013
 -85.821
 -85.8206
 -85.8197
 -85.8204
 -85.8152
 -85.8163
 -85.8147
 -85.8152
 -85.7814
 -85.7818
 -85.7808
 -85.7813
 -85.7672
 -85.7656
 -85.7642
 -85.766
 -85.8001
 -85.8008
 -85.7994
 -85.8001
 -85.7687
 -85.7703
 -85.7895
 -85.7871
 -85.7876
 -85.7889
 -85.7908
 -85.7907
 -85.7899
 -85.7913
 -85.7889
 -85.789
 -85.7883
 -85.773
 -85.7735
 -85.773
 -85.8024
 -85.8024
 -85.8029
 -85.8033
 -85.8008
 -85.8005
 -85.7998
 -85.8018
 -85.7812
 -85.7827
 -85.7819
 -85.7814
 -85.8118
 -85.8129
 -85.8114
 -85.8118
 -85.795
 -85.7932
 -85.7941
 -85.7953
 -85.773
 -85.7729
 -85.7727
 -85.7729
 -85.7871
 -85.7884
 -85.7873
 -85.802
 -85.8019
 -85.8008
 -85.8016
 -85.7969
 -85.7979
 -85.7985
 -85.826
 -85.8258
 -85.8255
 -85.8253
 -85.7602
 -85.7593
 -85.7604
 -85.758
 -85.7854
 -85.7867
 -85.7867
 -85.7857
 -85.7837
 -85.7833
 -85.7822
 -85.7837
 -85.8264
 -85.8263
 -85.8274
 -85.828
 -85.8139
 -85.8145
 -85.8143
 -85.7778
 -85.7777
 -85.7769
 -85.7779
 -85.8136
 -85.8122
 -85.8128
 -85.7803
 -85.7805
 -85.7795
 -85.7798
 -85.7362
 -85.7372
 -85.7365
 -85.7373
 -85.8217
 -85.822
 -85.8226
 -85.8213
 -85.7732
 -85.7728
 -85.7722
 -85.7712
 -85.8252
 -85.825
 -85.8248
 -85.825
 -85.7765
 -85.778
 -85.7768
 -85.7776
 -85.7375
 -85.7355
 -85.737
 -85.7371
 -85.7647
 -85.7634
 -85.7646
 -85.7652
 -85.7738
 -85.7747
 -85.7756
 -85.7736
 -85.7943
 -85.7926
 -85.7718
 -85.7721
 -85.7696
 -85.7699
 -85.8032
 -85.8023
 -85.802
 -85.8012
 -85.793
 -85.7929
 -85.7924
 -85.7943
 -85.8207
 -85.8195
 -85.8214
 -85.8216
 -85.8183
 -85.8178
 -85.8188
 -85.8188
 -85.8157
 -85.8146
 -85.8154
 -85.8146
 -85.8199
 -85.8201
 -85.8204
 -85.8196
 -85.8069
 -85.8067
 -85.8077
 -85.8069
 -85.8163
 -85.8173
 -85.8171
 -85.8168
 -85.7616
 -85.7595
 -85.7593
 -85.7617
 -85.819
 -85.8196
 -85.8196
 -85.8193
 -85.7888
 -85.7876
 -85.7869
 -85.7875
 -85.813
 -85.8113
 -85.8115
 -85.8185
 -85.8194
 -85.8195
 -85.8191
 -85.7735
 -85.7721
 -85.7719
 -85.7726
 -85.7652
 -85.7648
 -85.7641
 -85.7644
 -85.8092
 -85.8091
 -85.8084
 -85.8103
 -85.7898
 -85.7898
 -85.7895
 -85.7885
 -85.8074
 -85.8068
 -85.8073
 -85.807
 -85.807
 -85.8069
 -85.8091
 -85.7869
 -85.7865
 -85.7853
 -85.806
 -85.8067
 -85.7989
 -85.7971
 -85.8249
 -85.8254
 -85.8254
 -85.8248
 -85.797
 -85.7975
 -85.7966
 -85.7982
 -85.8059
 -85.8055
 -85.8071
 -85.8055
 -85.8018
 -85.8024
 -85.8018
 -85.8029
 -85.8163
 -85.8139
 -85.8143
 -85.8135
 -85.8133
 -85.7911
 -85.7915
 -85.7901
 -85.7901
 -85.7707
 -85.7707
 -85.7707
 -85.7708
 -85.8062
 -85.805
 -85.8064
 -85.8056
 -85.8077
 -85.807
 -85.8066
 -85.8081
 -85.7413
 -85.7424
 -85.7429
 -85.7437
 -85.7954
 -85.7966
 -85.7959
 -85.7951
 -85.7939
 -85.7927
 -85.7922
 -85.7933
 -85.8055
 -85.8046
 -85.7747
 -85.775
 -85.7755
 -85.7748
 -85.7845
 -85.7853
 -85.785
 -85.7842
 -85.7766
 -85.776
 -85.7756
 -85.7758
 -85.7823
 -85.7833
 -85.7831
 -85.7821
 -85.7759
 -85.7758
 -85.7753
 -85.7761
 -85.8145
 -85.8138
 -85.8141
 -85.8149
 -85.8188
 -85.8186
 -85.8176
 -85.8183
 -85.7807
 -85.78
 -85.7792
 -85.7806
 -85.7954
 -85.7943
 -85.7953
 -85.7947
 -85.8158
 -85.8146
 -85.8156
 -85.815
 -85.7906
 -85.7896
 -85.7897
 -85.7915
 -85.7803
 -85.7815
 -85.7677
 -85.7683
 -85.7686
 -85.7675
 -85.7932
 -85.7927
 -85.7917
 -85.7912
 -85.8161
 -85.8156
 -85.8157
 -85.817
 -85.8239
 -85.8232
 -85.8233
 -85.824
 -85.7451
 -85.7449
 -85.7884
 -85.7899
 -85.7901
 -85.7908
 -85.7865
 -85.7845
 -85.7858
 -85.7858
 -85.7853
 -85.7849
 -85.7773
 -85.7778
 -85.7778
 -85.7782
 -85.7931
 -85.7944
 -85.795
 -85.7616
 -85.7626
 -85.7627
 -85.7635
 -85.8191
 -85.8198
 -85.8183
 -85.8193
 -85.8236
 -85.8237
 -85.8235
 -85.8264
 -85.826
 -85.8251
 -85.8257
 -85.8008
 -85.8028
 -85.8022
 -85.8023
 -85.7953
 -85.7971
 -85.7948
 -85.7963
 -85.8123
 -85.8139
 -85.8144
 -85.8136
 -85.805
 -85.8047
 -85.806
 -85.8048
 -85.8031
 -85.8044
 -85.8036
 -85.7979
 -85.798
 -85.7974
 -85.7991
 -85.8097
 -85.8121
 -85.8112
 -85.8099
 -85.7907
 -85.7898
 -85.7906
 -85.7908
 -85.7963
 -85.796
 -85.7975
 -85.7955
 -85.8069
 -85.8065
 -85.8059
 -85.807
 -85.7956
 -85.7948
 -85.7944
 -85.7958
 -85.7381
 -85.7375
 -85.7394
 -85.7393
 -85.7787
 -85.7781
 -85.778
 -85.7772
 -85.8096
 -85.8095
 -85.811
 -85.8112
 -85.7765
 -85.7766
 -85.7747
 -85.7743
 -85.7728
 -85.771
 -85.7729
 -85.7741
 -85.8167
 -85.8165
 -85.8172
 -85.8158
 -85.8151
 -85.8139
 -85.815
 -85.8147
 -85.8197
 -85.8186
 -85.8195
 -85.82
 -85.8112
 -85.8112
 -85.8123
 -85.8118
 -85.7883
 -85.788
 -85.7871
 -85.788
 -85.7789
 -85.7784
 -85.7795
 -85.7782
 -85.8075
 -85.8056
 -85.8076
 -85.806
 -85.7794
 -85.7799
 -85.7801
 -85.7799
 -85.7686
 -85.769
 -85.7694
 -85.7699
 -85.7944
 -85.7955
 -85.7946
 -85.7955
 -85.7857
 -85.7847
 -85.7838
 -85.7867
 -85.7872
 -85.7891
 -85.7877
 -85.7688
 -85.768
 -85.7667
 -85.7679
 -85.7804
 -85.7801
 -85.7797
 -85.7799
 -85.8089
 -85.8097
 -85.809
 -85.8094
 -85.797
 -85.7983
 -85.7985
 -85.827
 -85.8262
 -85.8263
 -85.8268
 -85.8216
 -85.8225
 -85.8232
 -85.8222
 -85.7849
 -85.786
 -85.7843
 -85.786
 -85.7994
 -85.8004
 -85.7705
 -85.7704
 -85.7687
 -85.771
 -85.7971
 -85.7958
 -85.7952
 -85.7964
 -85.8193
 -85.8196
 -85.8186
 -85.8195
 -85.779
 -85.7793
 -85.7797
 -85.7894
 -85.7897
 -85.7901
 -85.7882
 -85.7855
 -85.7873
 -85.7872
 -85.7869
 -85.7946
 -85.7958
 -85.7961
 -85.7945
 -85.7921
 -85.7929
 -85.7939
 -85.7927
 -85.7965
 -85.7972
 -85.7962
 -85.7977
 -85.7908
 -85.7919
 -85.8135
 -85.8127
 -85.8145
 -85.8133
 -85.7917
 -85.7905
 -85.7909
 -85.7918
 -85.803
 -85.8013
 -85.8021
 -85.7914
 -85.7926
 -85.7917
 -85.7925
 -85.8035
 -85.8028
 -85.8021
 -85.803
 -85.7769
 -85.7756
 -85.7766
 -85.7749
 -85.7914
 -85.7911
 -85.7927
 -85.8
 -85.8003
 -85.8018
 -85.7993
 -85.7937
 -85.7934
 -85.7944
 -85.7764
 -85.7768
 -85.7757
 -85.8044
 -85.8041
 -85.8039
 -85.8027
 -85.7945
 -85.7954
 -85.7957
 -85.7465
 -85.747
 -85.7475
 -85.7451
 -85.8049
 -85.804
 -85.8033
 -85.8051
 -85.7867
 -85.7853
 -85.7855
 -85.785
 -85.8155
 -85.8154
 -85.8159
 -85.8164
 -85.818
 -85.8171
 -85.8186
 -85.8183
 -85.7725
 -85.7745
 -85.772
 -85.7724
 -85.7994
 -85.7985
 -85.7976
 -85.7822
 -85.7808
 -85.7819
 -85.7818
 -85.8176
 -85.8161
 -85.817
 -85.7965
 -85.7977
 -85.7969
 -85.798
 -85.8083
 -85.8088
 -85.8087
 -85.8084
 -85.821
 -85.8212
 -85.8217
 -85.8208
 -85.732
 -85.731
 -85.7312
 -85.732
 -85.782
 -85.7823
 -85.7831
 -85.7819
 -85.7985
 -85.8008
 -85.8
 -85.8005
 -85.7665
 -85.7653
 -85.7647
 -85.7945
 -85.7956
 -85.7954
 -85.7942
 -85.8223
 -85.8061
 -85.8051
 -85.8037
 -85.8051
 -85.8169
 -85.8168
 -85.817
 -85.8175
 -85.8123
 -85.8119
 -85.8116
 -85.8126
 -85.7994
 -85.7989
 -85.7967
 -85.7952
 -85.7954
 -85.7952
 -85.7485
 -85.7501
 -85.7486
 -85.7495
 -85.7845
 -85.784
 -85.7834
 -85.7824
 -85.7823
 -85.7833
 -85.7825
 -85.8229
 -85.8243
 -85.8231
 -85.8229
 -85.7946
 -85.7946
 -85.7959
 -85.796
 -85.799
 -85.7984
 -85.7973
 -85.7982
 -85.8181
 -85.8172
 -85.8186
 -85.8173
 -85.7958
 -85.7955
 -85.7971
 -85.7959
 -85.7601
 -85.7606
 -85.7591
 -85.7596
 -85.7933
 -85.7928
 -85.7937
 -85.7931
 -85.7815
 -85.7816
 -85.7818
 -85.7827
 -85.7786
 -85.7775
 -85.7776
 -85.7782
 -85.7706
 -85.7711
 -85.7705
 -85.7705
 -85.7574
 -85.7568
 -85.7564
 -85.7585
 -85.8259
 -85.8253
 -85.8255
 -85.8254
 -85.7521
 -85.7527
 -85.7511
 -85.7533
 -85.7948
 -85.7939
 -85.7948
 -85.7937
 -85.8251
 -85.8252
 -85.8245
 -85.8247
 -85.7883
 -85.7879
 -85.7888
 -85.7891
 -85.7705
 -85.8203
 -85.8197
 -85.82
 -85.8211
 -85.7761
 -85.7594
 -85.7614
 -85.7615
 -85.7596
 -85.8011
 -85.8029
 -85.8129
 -85.8114
 -85.8133
 -85.8118
 -85.8164
 -85.8164
 -85.8171
 -85.8169
 -85.8269
 -85.8261
 -85.8272
 -85.8134
 -85.8149
 -85.8146
 -85.8144
 -85.7886
 -85.8239
 -85.8075
 -85.8072
 -85.8067
 -85.8236
 -85.8241
 -85.8243
 -85.8239
 -85.7893
 -85.7891
 -85.7892
 -85.7882
 -85.7811
 -85.7816
 -85.7804
 -85.7799
 -85.8062
 -85.8054
 -85.8058
 -85.8076
 -85.8227
 -85.8233
 -85.8223
 -85.8221
 -85.8193
 -85.819
 -85.8195
 -85.8189
 -85.8027
 -85.8048
 -85.8046
 -85.7559
 -85.7548
 -85.7581
 -85.7558
 -85.7336
 -85.7354
 -85.7343
 -85.7352
 -85.7668
 -85.765
 -85.7645
 -85.7656
 -85.7977
 -85.7989
 -85.7975
 -85.7613
 -85.7626
 -85.7621
 -85.7611
 -85.8141
 -85.8138
 -85.8151
 -85.8151
 -85.8153
 -85.8146
 -85.8151
 -85.7762
 -85.7756
 -85.8085
 -85.8092
 -85.8292
 -85.8287
 -85.8291
 -85.826
 -85.8264
 -85.8262
 -85.8266
 -85.791
 -85.7899
 -85.7918
 -85.791
 -85.7839
 -85.7837
 -85.783
 -85.7846
 -85.7937
 -85.7935
 -85.7949
 -85.7944
 -85.8246
 -85.8246
 -85.8248
 -85.8246
 -85.8087
 -85.8094
 -85.809
 -85.8082
 -85.7701
 -85.77
 -85.77
 -85.7709
 -85.8088
 -85.8093
 -85.8084
 -85.8096
 -85.8
 -85.8003
 -85.799
 -85.8006
 -85.8067
 -85.8076
 -85.8075
 -85.7292
 -85.7296
 -85.7298
 -85.7833
 -85.7823
 -85.7894
 -85.7894
 -85.7883
 -85.7902
 -85.8123
 -85.8136
 -85.8126
 -85.8123
 -85.809
 -85.8094
 -85.8108
 -85.8099
 -85.8099
 -85.8093
 -85.8113
 -85.7486
 -85.7485
 -85.7696
 -85.7693
 -85.7701
 -85.7697
 -85.8
 -85.7477
 -85.7461
 -85.7467
 -85.7469
 -85.781
 -85.7826
 -85.7815
 -85.7812
 -85.7914
 -85.7907
 -85.7581
 -85.7608
 -85.7607
 -85.7592
 -85.8259
 -85.8269
 -85.8265
 -85.8261
 -85.8222
 -85.8226
 -85.8222
 -85.8234
 -85.7746
 -85.7771
 -85.7752
 -85.7764
 -85.7829
 -85.7821
 -85.7848
 -85.7842
 -85.7836
 -85.7829
 -85.7836
 -85.8109
 -85.8117
 -85.81
 -85.8109
 -85.7701
 -85.7713
 -85.7719
 -85.772
 -85.7939
 -85.7942
 -85.7937
 -85.8048
 -85.8052
 -85.8056
 -85.8067
 -85.7828
 -85.7832
 -85.784
 -85.7834
 -85.7777
 -85.779
 -85.7799
 -85.7785
 -85.7788
 -85.778
 -85.7783
 -85.7793
 -85.7878
 -85.7883
 -85.7896
 -85.7884
 -85.8046
 -85.8038
 -85.7813
 -85.7815
 -85.7818
 -85.7807
 -85.8265
 -85.8251
 -85.8254
 -85.8254
 -85.7769
 -85.7777
 -85.777
 -85.7778
 -85.7642
 -85.7637
 -85.7653
 -85.7646
 -85.8003
 -85.8003
 -85.7542
 -85.7544
 -85.7531
 -85.7547
 -85.7854
 -85.7864
 -85.7848
 -85.8229
 -85.8227
 -85.8233
 -85.8233
 -85.7562
 -85.7554
 -85.7559
 -85.778
 -85.7779
 -85.779
 -85.7785
 -85.7582
 -85.7768
 -85.7763
 -85.7765
 -85.7752
 -85.7958
 -85.7949
 -85.796
 -85.7958
 -85.7895
 -85.7898
 -85.7906
 -85.7894
 -85.8238
 -85.8248
 -85.798
 -85.7988
 -85.7984
 -85.798
 -85.7754
 -85.7736
 -85.7757
 -85.7734
 -85.7841
 -85.7868
 -85.7853
 -85.7844
 -85.8199
 -85.8193
 -85.8193
 -85.8194
 -85.7902
 -85.7908
 -85.7921
 -85.7915
 -85.8006
 -85.816
 -85.8165
 -85.8156
 -85.7843
 -85.7847
 -85.7833
 -85.7851
 -85.8084
 -85.808
 -85.8085
 -85.8073
 -85.7863
 -85.785
 -85.7854
 -85.7867
 -85.8235
 -85.8227
 -85.8224
 -85.8232
 -85.8286
 -85.8289
 -85.8283
 -85.7784
 -85.7791
 -85.7803
 -85.7795
 -85.8034
 -85.8039
 -85.8024
 -85.803
 -85.8073
 -85.8077
 -85.8085
 -85.8089
 -85.7821
 -85.7823
 -85.7771
 -85.7765
 -85.7761
 -85.7776
 -85.7875
 -85.7898
 -85.8012
 -85.8018
 -85.8011
 -85.8006
 -85.804
 -85.8045
 -85.8056
 -85.804
 -85.7882
 -85.7891
 -85.7902
 -85.7893
 -85.7999
 -85.7999
 -85.8
 -85.818
 -85.8169
 -85.8165
 -85.8171
 -85.8125
 -85.8121
 -85.8127
 -85.7884
 -85.7901
 -85.788
 -85.7894
 -85.7787
 -85.7769
 -85.7761
 -85.7782
 -85.8079
 -85.8064
 -85.8065
 -85.8074
 -85.7902
 -85.79
 -85.7884
 -85.7722
 -85.772
 -85.7722
 -85.772
 -85.7828
 -85.7827
 -85.7832
 -85.7837
 -85.8142
 -85.8137
 -85.813
 -85.8267
 -85.8257
 -85.8259
 -85.8066
 -85.8073
 -85.8074
 -85.7827
 -85.7815
 -85.7832
 -85.7822
 -85.8263
 -85.8264
 -85.8263
 -85.8267
 -85.8051
 -85.8043
 -85.8049
 -85.8059
 -85.8158
 -85.8163
 -85.8176
 -85.8175
 -85.8144
 -85.8151
 -85.8145
 -85.8146
 -85.7632
 -85.7617
 -85.762
 -85.7876
 -85.788
 -85.787
 -85.7881
 -85.8159
 -85.8164
 -85.8154
 -85.8155
 -85.7922
 -85.7928
 -85.7928
 -85.7942
 -85.8089
 -85.8091
 -85.8088
 -85.8076
 -85.8205
 -85.8212
 -85.7698
 -85.7707
 -85.7706
 -85.7712
 -85.8117
 -85.8108
 -85.8126
 -85.8113
 -85.7884
 -85.7879
 -85.7874
 -85.7888
 -85.8071
 -85.8055
 -85.825
 -85.825
 -85.8242
 -85.8253
 -85.8155
 -85.8169
 -85.815
 -85.8174
 -85.8267
 -85.8269
 -85.8276
 -85.8279
 -85.811
 -85.811
 -85.8116
 -85.8071
 -85.8087
 -85.8085
 -85.808
 -85.8082
 -85.8073
 -85.8078
 -85.8065
 -85.7806
 -85.7809
 -85.7799
 -85.7795
 -85.7603
 -85.7597
 -85.7614
 -85.7949
 -85.795
 -85.7952
 -85.8178
 -85.8168
 -85.8174
 -85.8165
 -85.7888
 -85.7897
 -85.7908
 -85.7898
 -85.7759
 -85.7741
 -85.7747
 -85.7761
 -85.7959
 -85.7946
 -85.7939
 -85.794
 -85.7856
 -85.7876
 -85.7858
 -85.8253
 -85.8256
 -85.8245
 -85.8244
 -85.7711
 -85.7714
 -85.7755
 -85.7762
 -85.7763
 -85.8096
 -85.8099
 -85.8088
 -85.8108
 -85.7941
 -85.7958
 -85.7955
 -85.7952
 -85.7739
 -85.7741
 -85.7752
 -85.7742
 -85.799
 -85.7966
 -85.7969
 -85.7982
 -85.785
 -85.784
 -85.7857
 -85.7858
 -85.8195
 -85.82
 -85.8214
 -85.783
 -85.7829
 -85.7839
 -85.7838
 -85.7988
 -85.7997
 -85.773
 -85.7745
 -85.774
 -85.7732
 -85.775
 -85.7738
 -85.7745
 -85.7739
 -85.8205
 -85.82
 -85.7774
 -85.7786
 -85.7779
 -85.7767
 -85.7964
 -85.7952
 -85.7957
 -85.7965
 -85.7869
 -85.7636
 -85.7622
 -85.7627
 -85.8005
 -85.8002
 -85.8005
 -85.7994
 -85.8215
 -85.8216
 -85.821
 -85.822
 -85.7634
 -85.764
 -85.7643
 -85.7628
 -85.7761
 -85.777
 -85.7758
 -85.7761
 -85.8064
 -85.8069
 -85.807
 -85.7653
 -85.7652
 -85.7663
 -85.7665
 -85.8266
 -85.8258
 -85.8262
 -85.8268
 -85.7698
 -85.7705
 -85.7708
 -85.7692
 -85.8052
 -85.804
 -85.8048
 -85.8059
 -85.7876
 -85.7886
 -85.7882
 -85.7873
 -85.7741
 -85.7745
 -85.7741
 -85.7853
 -85.7868
 -85.7852
 -85.7864
 -85.7741
 -85.773
 -85.7737
 -85.7738
 -85.7764
 -85.7755
 -85.776
 -85.8124
 -85.8113
 -85.8127
 -85.8107
 -85.8097
 -85.7932
 -85.796
 -85.7942
 -85.7942
 -85.823
 -85.8225
 -85.822
 -85.8225
 -85.8009
 -85.8024
 -85.8001
 -85.8019
 -85.8046
 -85.8056
 -85.8046
 -85.8043
 -85.7758
 -85.7753
 -85.7765
 -85.7774
 -85.7769
 -85.8046
 -85.8032
 -85.804
 -85.805
 -85.8222
 -85.8234
 -85.7975
 -85.7979
 -85.7965
 -85.7981
 -85.7738
 -85.7735
 -85.7744
 -85.8192
 -85.8199
 -85.8189
 -85.8193
 -85.7979
 -85.796
 -85.7967
 -85.797
 -85.7754
 -85.7748
 -85.7755
 -85.7759
 -85.7939
 -85.7938
 -85.7957
 -85.7943
 -85.8039
 -85.8061
 -85.7679
 -85.7673
 -85.7676
 -85.767
 -85.7763
 -85.7787
 -85.7795
 -85.7789
 -85.78
 -85.7795
 -85.779
 -85.7773
 -85.7777
 -85.7786
 -85.797
 -85.7967
 -85.7965
 -85.8022
 -85.8017
 -85.8012
 -85.8006
 -85.7804
 -85.7802
 -85.7805
 -85.7803
 -85.7885
 -85.7881
 -85.7993
 -85.7985
 -85.799
 -85.7982
 -85.7995
 -85.7995
 -85.794
 -85.7952
 -85.7956
 -85.7942
 -85.7533
 -85.7554
 -85.755
 -85.7557
 -85.7989
 -85.7742
 -85.7752
 -85.7744
 -85.7742
 -85.8252
 -85.8258
 -85.825
 -85.8101
 -85.8098
 -85.8089
 -85.8102
 -85.7932
 -85.7938
 -85.7932
 -85.7913
 -85.7977
 -85.7987
 -85.7971
 -85.778
 -85.7789
 -85.7785
 -85.7778
 -85.8198
 -85.8206
 -85.819
 -85.8201
 -85.8055
 -85.805
 -85.8061
 -85.8056
 -85.8199
 -85.8203
 -85.8187
 -85.8196
 -85.7697
 -85.7697
 -85.7687
 -85.7688
 -85.78
 -85.781
 -85.8122
 -85.8116
 -85.8111
 -85.8118
 -85.8221
 -85.822
 -85.8222
 -85.8218
 -85.8285
 -85.8289
 -85.8282
 -85.829
 -85.821
 -85.8201
 -85.8209
 -85.8044
 -85.8057
 -85.8042
 -85.8051
 -85.8215
 -85.8219
 -85.8221
 -85.8219
 -85.7704
 -85.7715
 -85.7725
 -85.7713
 -85.8162
 -85.8171
 -85.8173
 -85.805
 -85.8046
 -85.8043
 -85.8042
 -85.7739
 -85.7734
 -85.7739
 -85.7732
 -85.8065
 -85.8078
 -85.8071
 -85.8072
 -85.8012
 -85.8021
 -85.8027
 -85.8013
 -85.781
 -85.7815
 -85.7825
 -85.7833
 -85.7691
 -85.7693
 -85.7679
 -85.768
 -85.79
 -85.7904
 -85.7915
 -85.7902
 -85.75
 -85.7501
 -85.7525
 -85.7511
 -85.7755
 -85.7763
 -85.7753
 -85.7784
 -85.777
 -85.7769
 -85.7766
 -85.7435
 -85.7439
 -85.7423
 -85.7444
 -85.8192
 -85.8184
 -85.8186
 -85.8145
 -85.8147
 -85.8157
 -85.8155
 -85.7792
 -85.7814
 -85.7807
 -85.761
 -85.7616
 -85.7608
 -85.7685
 -85.7674
 -85.7687
 -85.7687
 -85.7807
 -85.7806
 -85.7816
 -85.7797
 -85.8053
 -85.8072
 -85.8063
 -85.806
 -85.7539
 -85.7537
 -85.7546
 -85.753
 -85.8025
 -85.8004
 -85.8003
 -85.8021
 -85.8143
 -85.8148
 -85.8134
 -85.8142
 -85.7997
 -85.7996
 -85.8017
 -85.8007
 -85.7912
 -85.7901
 -85.7921
 -85.7749
 -85.7748
 -85.7748
 -85.7755
 -85.8205
 -85.8212
 -85.8215
 -85.8211
 -85.8163
 -85.8171
 -85.8162
 -85.8155
 -85.7805
 -85.7816
 -85.7809
 -85.7798
 -85.8225
 -85.823
 -85.8235
 -85.8221
 -85.8235
 -85.8225
 -85.8226
 -85.8232
 -85.8233
 -85.8224
 -85.8228
 -85.7578
 -85.7575
 -85.7439
 -85.7442
 -85.7434
 -85.7452
 -85.8032
 -85.8026
 -85.8017
 -85.7934
 -85.7926
 -85.7946
 -85.7928
 -85.7963
 -85.7978
 -85.7974
 -85.7965
 -85.7304
 -85.7893
 -85.8019
 -85.8032
 -85.8161
 -85.8168
 -85.8165
 -85.8164
 -85.761
 -85.7856
 -85.7868
 -85.7856
 -85.8294
 -85.829
 -85.829
 -85.829
 -85.7967
 -85.7958
 -85.7968
 -85.7979
 -85.8233
 -85.8228
 -85.8235
 -85.8224
 -85.7909
 -85.7924
 -85.7897
 -85.7871
 -85.7887
 -85.7877
 -85.8197
 -85.8198
 -85.8188
 -85.8198
 -85.8026
 -85.8018
 -85.8009
 -85.8004
 -85.771
 -85.77
 -85.7717
 -85.7714
 -85.815
 -85.8169
 -85.8162
 -85.8236
 -85.8248
 -85.8248
 -85.8236
 -85.8155
 -85.8151
 -85.8144
 -85.8152
 -85.7795
 -85.7794
 -85.7818
 -85.7793
 -85.7828
 -85.7819
 -85.7821
 -85.782
 -85.8198
 -85.8205
 -85.8204
 -85.8205
 -85.7889
 -85.7891
 -85.7877
 -85.8129
 -85.8129
 -85.8126
 -85.8119
 -85.7731
 -85.7743
 -85.7724
 -85.7727
 -85.8039
 -85.8045
 -85.8028
 -85.8035
 -85.7725
 -85.7735
 -85.7726
 -85.7725
 -85.7989
 -85.7996
 -85.7984
 -85.7993
 -85.814
 -85.814
 -85.8151
 -85.8133
 -85.7698
 -85.7694
 -85.7704
 -85.7971
 -85.7983
 -85.8178
 -85.8174
 -85.8172
 -85.8166
 -85.7887
 -85.7878
 -85.7877
 -85.7711
 -85.7701
 -85.7697
 -85.7702
 -85.8075
 -85.808
 -85.8074
 -85.8084
 -85.804
 -85.8039
 -85.8059
 -85.8044
 -85.736
 -85.736
 -85.7376
 -85.7365
 -85.7958
 -85.7942
 -85.7951
 -85.749
 -85.7503
 -85.7507
 -85.7964
 -85.796
 -85.795
 -85.7961
 -85.7946
 -85.7693
 -85.7699
 -85.7675
 -85.7685
 -85.7913
 -85.7928
 -85.793
 -85.8163
 -85.8163
 -85.8164
 -85.8158
 -85.7925
 -85.7932
 -85.794
 -85.794
 -85.7946
 -85.7943
 -85.7941
 -85.8283
 -85.828
 -85.8278
 -85.8272
 -85.7769
 -85.7796
 -85.779
 -85.7782
 -85.7674
 -85.7674
 -85.7681
 -85.768
 -85.7864
 -85.7861
 -85.788
 -85.7866
 -85.8185
 -85.8187
 -85.8191
 -85.8177
 -85.7351
 -85.7364
 -85.7351
 -85.7371
 -85.8129
 -85.8116
 -85.8123
 -85.8124
 -85.767
 -85.766
 -85.7669
 -85.7666
 -85.8163
 -85.8138
 -85.8146
 -85.8157
 -85.8118
 -85.8112
 -85.8106
 -85.8113
 -85.8131
 -85.8136
 -85.7801
 -85.7792
 -85.779
 -85.7799
 -85.8208
 -85.8208
 -85.8208
 -85.8109
 -85.8093
 -85.8099
 -85.8112
 -85.7781
 -85.7794
 -85.7785
 -85.7774
 -85.7852
 -85.7847
 -85.7863
 -85.7293
 -85.7293
 -85.7288
 -85.7293
 -85.794
 -85.7924
 -85.7944
 -85.8209
 -85.8217
 -85.8207
 -85.8204
 -85.8138
 -85.813
 -85.8191
 -85.8203
 -85.8208
 -85.8197
 -85.8088
 -85.8089
 -85.7647
 -85.7649
 -85.7633
 -85.7658
 -85.8127
 -85.8127
 -85.8127
 -85.8116
 -85.7963
 -85.7969
 -85.785
 -85.7858
 -85.7854
 -85.785
 -85.8154
 -85.8161
 -85.8163
 -85.816
 -85.7808
 -85.7785
 -85.7788
 -85.7804
 -85.82
 -85.82
 -85.821
 -85.8222
 -85.8008
 -85.8011
 -85.7997
 -85.7644
 -85.7638
 -85.7635
 -85.7643
 -85.8051
 -85.8049
 -85.8044
 -85.8036
 -85.777
 -85.7757
 -85.7755
 -85.7747
 -85.7786
 -85.7768
 -85.7781
 -85.7337
 -85.7335
 -85.7337
 -85.7345
 -85.7691
 -85.7708
 -85.7712
 -85.7696
 -85.8136
 -85.813
 -85.8142
 -85.813
 -85.7946
 -85.7951
 -85.7936
 -85.7868
 -85.7746
 -85.7753
 -85.7748
 -85.7755
 -85.789
 -85.7878
 -85.7887
 -85.7893
 -85.8095
 -85.8113
 -85.8115
 -85.8098
 -85.7727
 -85.7727
 -85.7751
 -85.7615
 -85.8004
 -85.8009
 -85.7995
 -85.8016
 -85.7751
 -85.7767
 -85.7465
 -85.745
 -85.7742
 -85.7753
 -85.7743
 -85.7729
 -85.8093
 -85.8102
 -85.8178
 -85.8177
 -85.818
 -85.8175
 -85.785
 -85.7862
 -85.7863
 -85.7863
 -85.8242
 -85.8245
 -85.8251
 -85.8245
 -85.7838
 -85.7841
 -85.7814
 -85.7815
 -85.8124
 -85.8127
 -85.8118
 -85.8107
 -85.7786
 -85.7786
 -85.7793
 -85.7793
 -85.8122
 -85.8128
 -85.8114
 -85.8123
 -85.7891
 -85.7907
 -85.8218
 -85.8215
 -85.808
 -85.8091
 -85.8077
 -85.8092
 -85.8072
 -85.8067
 -85.8069
 -85.8083
 -85.7986
 -85.7979
 -85.7991
 -85.7989
 -85.8121
 -85.8109
 -85.8126
 -85.8132
 -85.778
 -85.7767
 -85.7774
 -85.7773
 -85.8212
 -85.821
 -85.8208
 -85.8223
 -85.8228
 -85.822
 -85.8225
 -85.7726
 -85.774
 -85.774
 -85.7734
 -85.8083
 -85.8069
 -85.8071
 -85.8077
 -85.7709
 -85.7724
 -85.7724
 -85.7738
 -85.7975
 -85.7927
 -85.7945
 -85.7946
 -85.7929
 -85.8158
 -85.8158
 -85.8157
 -85.8146
 -85.7512
 -85.7499
 -85.7507
 -85.7523
 -85.8077
 -85.8083
 -85.8092
 -85.8081
 -85.7957
 -85.7969
 -85.7942
 -85.7953
 -85.8108
 -85.8099
 -85.8097
 -85.8095
 -85.8053
 -85.8282
 -85.8279
 -85.827
 -85.8274
 -85.8133
 -85.8136
 -85.8121
 -85.8124
 -85.7456
 -85.7463
 -85.7474
 -85.7455
 -85.7893
 -85.7879
 -85.7873
 -85.7884
 -85.7821
 -85.7967
 -85.7968
 -85.7971
 -85.7983
 -85.8199
 -85.82
 -85.8189
 -85.8184
 -85.8164
 -85.8162
 -85.8175
 -85.8196
 -85.8177
 -85.8186
 -85.8182
 -85.7356
 -85.7361
 -85.8121
 -85.8117
 -85.8115
 -85.7808
 -85.7807
 -85.7803
 -85.7819
 -85.8097
 -85.8092
 -85.8097
 -85.8087
 -85.7986
 -85.8076
 -85.8063
 -85.8076
 -85.8073
 -85.8217
 -85.8199
 -85.8205
 -85.8216
 -85.8072
 -85.8081
 -85.8093
 -85.8074
 -85.7885
 -85.7891
 -85.787
 -85.7901
 -85.7737
 -85.7739
 -85.7733
 -85.7741
 -85.8271
 -85.8262
 -85.8272
 -85.8269
 -85.8099
 -85.8095
 -85.8103
 -85.8089
 -85.8262
 -85.8259
 -85.8261
 -85.8266
 -85.7812
 -85.7791
 -85.7812
 -85.7815
 -85.7977
 -85.797
 -85.8217
 -85.8229
 -85.8216
 -85.8223
 -85.7982
 -85.7984
 -85.7983
 -85.7997
 -85.7936
 -85.7949
 -85.7979
 -85.7983
 -85.7994
 -85.7979
 -85.8171
 -85.8171
 -85.8167
 -85.8179
 -85.7848
 -85.7831
 -85.7824
 -85.7839
 -85.7626
 -85.7637
 -85.7627
 -85.7626
 -85.7708
 -85.7702
 -85.7702
 -85.7701
 -85.783
 -85.784
 -85.7841
 -85.7828
 -85.7898
 -85.788
 -85.7892
 -85.7923
 -85.7903
 -85.7914
 -85.7917
 -85.7969
 -85.7962
 -85.7956
 -85.7968
 -85.7622
 -85.7621
 -85.7627
 -85.7876
 -85.7865
 -85.7882
 -85.7879
 -85.7991
 -85.8003
 -85.8002
 -85.7985
 -85.7793
 -85.7776
 -85.7797
 -85.7777
 -85.7839
 -85.7849
 -85.7848
 -85.7846
 -85.8003
 -85.8002
 -85.8012
 -85.8021
 -85.7961
 -85.7949
 -85.7959
 -85.7956
 -85.8084
 -85.8078
 -85.8082
 -85.8077
 -85.7697
 -85.7701
 -85.7705
 -85.8151
 -85.8145
 -85.8158
 -85.8148
 -85.7795
 -85.7809
 -85.7797
 -85.7788
 -85.7902
 -85.7896
 -85.7888
 -85.7907
 -85.7925
 -85.7937
 -85.794
 -85.8025
 -85.8025
 -85.803
 -85.8038
 -85.8067
 -85.8068
 -85.8076
 -85.8061
 -85.8081
 -85.8086
 -85.8094
 -85.8176
 -85.818
 -85.8181
 -85.8066
 -85.806
 -85.8052
 -85.8059
 -85.8177
 -85.8181
 -85.8169
 -85.8209
 -85.8209
 -85.8207
 -85.8199
 -85.7932
 -85.7906
 -85.7922
 -85.7914
 -85.7814
 -85.7805
 -85.7821
 -85.7809
 -85.7768
 -85.8176
 -85.8172
 -85.8188
 -85.817
 -85.8179
 -85.8159
 -85.7326
 -85.7319
 -85.7327
 -85.7334
 -85.8124
 -85.8115
 -85.7899
 -85.7893
 -85.7908
 -85.8261
 -85.8268
 -85.803
 -85.8013
 -85.8019
 -85.8023
 -85.7889
 -85.7896
 -85.7896
 -85.8129
 -85.8149
 -85.8139
 -85.8145
 -85.7822
 -85.7826
 -85.7817
 -85.7833
 -85.742
 -85.7433
 -85.743
 -85.7415
 -85.8016
 -85.8018
 -85.8014
 -85.8029
 -85.8164
 -85.8184
 -85.8166
 -85.8142
 -85.8139
 -85.8144
 -85.8135
 -85.7784
 -85.7766
 -85.7767
 -85.7758
 -85.7802
 -85.7812
 -85.7729
 -85.7741
 -85.7724
 -85.8257
 -85.8249
 -85.8156
 -85.8144
 -85.8156
 -85.8144
 -85.7975
 -85.7992
 -85.7987
 -85.8121
 -85.8108
 -85.8131
 -85.8129
 -85.7794
 -85.7771
 -85.7775
 -85.7786
 -85.7949
 -85.7947
 -85.796
 -85.7963
 -85.7945
 -85.7954
 -85.7958
 -85.7946
 -85.7765
 -85.7771
 -85.7762
 -85.7808
 -85.7799
 -85.7806
 -85.7803
 -85.8286
 -85.8291
 -85.8287
 -85.8295
 -85.7666
 -85.7647
 -85.8202
 -85.8209
 -85.8208
 -85.8201
 -85.7911
 -85.7925
 -85.7918
 -85.7911
 -85.7994
 -85.8003
 -85.8003
 -85.8005
 -85.7706
 -85.7715
 -85.7961
 -85.7951
 -85.7951
 -85.7942
 -85.79
 -85.7894
 -85.789
 -85.7905
 -85.8164
 -85.8163
 -85.8159
 -85.8166
 -85.7927
 -85.7939
 -85.794
 -85.7923
 -85.7816
 -85.7818
 -85.8042
 -85.8043
 -85.8035
 -85.8045
 -85.8097
 -85.8094
 -85.8104
 -85.7975
 -85.7989
 -85.7984
 -85.7992
 -85.7753
 -85.7761
 -85.7749
 -85.7768
 -85.741
 -85.7426
 -85.7423
 -85.7407
 -85.7937
 -85.793
 -85.7944
 -85.7957
 -85.8004
 -85.8019
 -85.8006
 -85.8006
 -85.7884
 -85.7892
 -85.7876
 -85.788
 -85.7824
 -85.7816
 -85.7827
 -85.7834
 -85.8169
 -85.8178
 -85.8041
 -85.8035
 -85.8029
 -85.7543
 -85.7537
 -85.7527
 -85.7547
 -85.7775
 -85.7765
 -85.778
 -85.7758
 -85.798
 -85.7983
 -85.7977
 -85.797
 -85.8169
 -85.8173
 -85.8172
 -85.7912
 -85.7905
 -85.789
 -85.789
 -85.7805
 -85.7824
 -85.7816
 -85.7805
 -85.8109
 -85.8094
 -85.8094
 -85.8102
 -85.8023
 -85.8019
 -85.8014
 -85.8015
 -85.8138
 -85.814
 -85.8138
 -85.8131
 -85.8132
 -85.8134
 -85.8132
 -85.7869
 -85.7873
 -85.7861
 -85.7856
 -85.7927
 -85.792
 -85.7933
 -85.7441
 -85.7445
 -85.7443
 -85.7434
 -85.7815
 -85.7816
 -85.7656
 -85.7646
 -85.7661
 -85.7671
 -85.7762
 -85.7716
 -85.8187
 -85.7822
 -85.7808
 -85.7818
 -85.7803
 -85.827
 -85.804
 -85.8032
 -85.8039
 -85.8024
 -85.7816
 -85.7826
 -85.782
 -85.7874
 -85.7887
 -85.7887
 -85.8149
 -85.8151
 -85.8137
 -85.815
 -85.8153
 -85.8147
 -85.8155
 -85.8146
 -85.7737
 -85.7718
 -85.7718
 -85.773
 -85.823
 -85.823
 -85.8236
 -85.8224
 -85.795
 -85.7939
 -85.7926
 -85.815
 -85.8156
 -85.8154
 -85.7997
 -85.7984
 -85.7989
 -85.7999
 -85.7822
 -85.7831
 -85.7815
 -85.7819
 -85.8006
 -85.8025
 -85.8005
 -85.7841
 -85.7848
 -85.7847
 -85.7833
 -85.7911
 -85.7929
 -85.8158
 -85.8166
 -85.8169
 -85.8177
 -85.8188
 -85.8201
 -85.8193
 -85.8191
 -85.7756
 -85.7771
 -85.7753
 -85.7767
 -85.8097
 -85.8081
 -85.8091
 -85.8101
 -85.8031
 -85.8011
 -85.8027
 -85.8037
 -85.7888
 -85.7875
 -85.7895
 -85.7885
 -85.8174
 -85.8168
 -85.8165
 -85.8159
 -85.7915
 -85.7901
 -85.7924
 -85.7916
 -85.7953
 -85.7945
 -85.7945
 -85.7965
 -85.791
 -85.7901
 -85.7913
 -85.7915
 -85.7778
 -85.7793
 -85.7741
 -85.775
 -85.776
 -85.7742
 -85.7627
 -85.7606
 -85.7624
 -85.7629
 -85.8036
 -85.8035
 -85.803
 -85.8046
 -85.801
 -85.8
 -85.7997
 -85.824
 -85.8242
 -85.8242
 -85.8242
 -85.8255
 -85.8261
 -85.8251
 -85.8202
 -85.8208
 -85.8194
 -85.8
 -85.8015
 -85.8023
 -85.8004
 -85.8076
 -85.8083
 -85.8089
 -85.8069
 -85.8158
 -85.8167
 -85.8161
 -85.8169
 -85.7831
 -85.7817
 -85.782
 -85.7828
 -85.7669
 -85.768
 -85.7688
 -85.7687
 -85.8264
 -85.8266
 -85.8257
 -85.8273
 -85.7798
 -85.7793
 -85.7786
 -85.78
 -85.7978
 -85.7976
 -85.7984
 -85.7974
 -85.8269
 -85.8269
 -85.8258
 -85.8276
 -85.804
 -85.8026
 -85.8044
 -85.804
 -85.7902
 -85.7896
 -85.7903
 -85.7897
 -85.7806
 -85.7796
 -85.7798
 -85.7716
 -85.7731
 -85.7722
 -85.7713
 -85.7765
 -85.7761
 -85.7767
 -85.7759
 -85.7747
 -85.7745
 -85.7787
 -85.7796
 -85.777
 -85.8132
 -85.8124
 -85.8123
 -85.8121
 -85.8232
 -85.8227
 -85.8229
 -85.8228
 -85.8065
 -85.806
 -85.8066
 -85.8049
 -85.7921
 -85.8179
 -85.8183
 -85.8182
 -85.8174
 -85.7726
 -85.7726
 -85.7725
 -85.7723
 -85.8241
 -85.8245
 -85.8239
 -85.8251
 -85.7858
 -85.785
 -85.7869
 -85.8095
 -85.7717
 -85.7716
 -85.7704
 -85.7778
 -85.7769
 -85.7759
 -85.7782
 -85.797
 -85.7969
 -85.795
 -85.7965
 -85.8117
 -85.8117
 -85.8108
 -85.8126
 -85.7919
 -85.8093
 -85.8087
 -85.8085
 -85.7928
 -85.7926
 -85.7928
 -85.7942
 -85.7842
 -85.7846
 -85.7836
 -85.7835
 -85.7876
 -85.786
 -85.7871
 -85.7875
 -85.8099
 -85.7794
 -85.7797
 -85.7803
 -85.8127
 -85.812
 -85.8131
 -85.8124
 -85.8174
 -85.817
 -85.8183
 -85.8166
 -85.8223
 -85.8228
 -85.8221
 -85.7836
 -85.7837
 -85.7828
 -85.7836
 -85.7686
 -85.7678
 -85.7686
 -85.8146
 -85.8146
 -85.8168
 -85.8164
 -85.8159
 -85.8158
 -85.7925
 -85.793
 -85.7937
 -85.8248
 -85.8247
 -85.8253
 -85.8246
 -85.817
 -85.8167
 -85.8172
 -85.8175
 -85.8051
 -85.8053
 -85.806
 -85.8064
 -85.7986
 -85.7991
 -85.7982
 -85.7971
 -85.7806
 -85.7804
 -85.78
 -85.781
 -85.8166
 -85.8166
 -85.816
 -85.8173
 -85.7845
 -85.7849
 -85.7831
 -85.7882
 -85.7894
 -85.7897
 -85.7899
 -85.8226
 -85.8223
 -85.8236
 -85.823
 -85.8088
 -85.8088
 -85.8086
 -85.808
 -85.8254
 -85.8248
 -85.824
 -85.8251
 -85.7868
 -85.7876
 -85.7882
 -85.788
 -85.798
 -85.7983
 -85.797
 -85.7993
 -85.8194
 -85.8192
 -85.8199
 -85.8195
 -85.7967
 -85.7977
 -85.796
 -85.7964
 -85.8256
 -85.8263
 -85.8256
 -85.7825
 -85.782
 -85.7819
 -85.7821
 -85.8009
 -85.801
 -85.8003
 -85.7996
 -85.8038
 -85.8048
 -85.8038
 -85.8041
 -85.7947
 -85.794
 -85.7961
 -85.7945
 -85.8174
 -85.8175
 -85.8186
 -85.8177
 -85.7939
 -85.7924
 -85.7933
 -85.7929
 -85.8036
 -85.8033
 -85.8033
 -85.8027
 -85.772
 -85.772
 -85.7718
 -85.772
 -85.8143
 -85.8145
 -85.8136
 -85.813
 -85.7703
 -85.7702
 -85.7703
 -85.7805
 -85.7798
 -85.7799
 -85.7807
 -85.7744
 -85.7752
 -85.7778
 -85.7756
 -85.8109
 -85.8106
 -85.8114
 -85.812
 -85.8066
 -85.8081
 -85.8068
 -85.8072
 -85.7854
 -85.7841
 -85.7843
 -85.7834
 -85.828
 -85.8276
 -85.827
 -85.7448
 -85.7445
 -85.8032
 -85.8041
 -85.8025
 -85.8033
 -85.7581
 -85.7563
 -85.7545
 -85.7561
 -85.8064
 -85.8068
 -85.8081
 -85.8074
 -85.7888
 -85.785
 -85.7844
 -85.7841
 -85.7833
 -85.8123
 -85.8125
 -85.8128
 -85.8133
 -85.8201
 -85.8194
 -85.8206
 -85.8197
 -85.7719
 -85.7719
 -85.8092
 -85.8098
 -85.8115
 -85.8096
 -85.8004
 -85.798
 -85.8007
 -85.7994
 -85.7799
 -85.7798
 -85.7791
 -85.7817
 -85.7939
 -85.7925
 -85.7924
 -85.7939
 -85.8157
 -85.8145
 -85.8171
 -85.8236
 -85.8233
 -85.8234
 -85.8232
 -85.8266
 -85.8266
 -85.8269
 -85.7857
 -85.785
 -85.7852
 -85.7861
 -85.8203
 -85.8198
 -85.8193
 -85.8193
 -85.7752
 -85.7742
 -85.7746
 -85.7748
 -85.8062
 -85.8056
 -85.8064
 -85.8047
 -85.8003
 -85.8018
 -85.8006
 -85.8006
 -85.8235
 -85.8235
 -85.8233
 -85.824
 -85.8081
 -85.8085
 -85.8078
 -85.807
 -85.7533
 -85.7524
 -85.7522
 -85.7534
 -85.7918
 -85.7895
 -85.7915
 -85.7903
 -85.7854
 -85.7869
 -85.7871
 -85.7851
 -85.8115
 -85.8117
 -85.8107
 -85.8101
 -85.7765
 -85.7757
 -85.7753
 -85.7754
 -85.8026
 -85.8016
 -85.8015
 -85.803
 -85.7832
 -85.7826
 -85.782
 -85.7661
 -85.7654
 -85.7651
 -85.7649
 -85.8025
 -85.8038
 -85.802
 -85.8053
 -85.8052
 -85.8046
 -85.7795
 -85.7785
 -85.7775
 -85.7754
 -85.7753
 -85.7759
 -85.7763
 -85.8197
 -85.731
 -85.7317
 -85.7315
 -85.7304
 -85.8172
 -85.8166
 -85.8179
 -85.817
 -85.7718
 -85.7877
 -85.7875
 -85.7873
 -85.7888
 -85.7854
 -85.7843
 -85.7872
 -85.7776
 -85.7796
 -85.7787
 -85.7781
 -85.7555
 -85.7552
 -85.7563
 -85.754
 -85.7749
 -85.7758
 -85.7756
 -85.7989
 -85.7983
 -85.7982
 -85.7857
 -85.7852
 -85.8288
 -85.8281
 -85.828
 -85.7745
 -85.7758
 -85.7741
 -85.7865
 -85.7876
 -85.7881
 -85.8202
 -85.8212
 -85.8211
 -85.8124
 -85.8125
 -85.8134
 -85.8126
 -85.7798
 -85.7803
 -85.7809
 -85.7701
 -85.7688
 -85.8232
 -85.8227
 -85.8238
 -85.8234
 -85.7601
 -85.7607
 -85.7587
 -85.7618
 -85.7743
 -85.7738
 -85.7408
 -85.7396
 -85.7489
 -85.7486
 -85.7492
 -85.7873
 -85.7885
 -85.7869
 -85.8224
 -85.8214
 -85.8207
 -85.8086
 -85.8086
 -85.8096
 -85.7812
 -85.7812
 -85.7825
 -85.7833
 -85.7821
 -85.819
 -85.7698
 -85.7697
 -85.7703
 -85.7703
 -85.7859
 -85.7883
 -85.7865
 -85.7869
 -85.8114
 -85.8114
 -85.8121
 -85.8081
 -85.8084
 -85.8076
 -85.8079
 -85.7874
 -85.7868
 -85.7882
 -85.7894
 -85.8099
 -85.8102
 -85.8114
 -85.8112
 -85.8129
 -85.8122
 -85.8128
 -85.8138
 -85.7951
 -85.8094
 -85.81
 -85.81
 -85.8105
 -85.8251
 -85.8256
 -85.825
 -85.8246
 -85.7772
 -85.7748
 -85.7744
 -85.7759
 -85.8234
 -85.8243
 -85.8239
 -85.8237
 -85.7392
 -85.7402
 -85.7389
 -85.8221
 -85.8215
 -85.823
 -85.8227
 -85.7779
 -85.7777
 -85.7764
 -85.7765
 -85.8151
 -85.814
 -85.8148
 -85.8156
 -85.7746
 -85.7746
 -85.7717
 -85.7724
 -85.8251
 -85.815
 -85.8136
 -85.8143
 -85.8132
 -85.8197
 -85.8205
 -85.8203
 -85.77
 -85.7708
 -85.7698
 -85.7693
 -85.8106
 -85.8098
 -85.8097
 -85.809
 -85.8022
 -85.8036
 -85.8036
 -85.803
 -85.8001
 -85.8007
 -85.7993
 -85.799
 -85.8278
 -85.827
 -85.7896
 -85.7896
 -85.7894
 -85.7875
 -85.7887
 -85.7893
 -85.7898
 -85.8099
 -85.8089
 -85.8108
 -85.8112
 -85.8088
 -85.8093
 -85.8092
 -85.8103
 -85.8032
 -85.8036
 -85.8042
 -85.8027
 -85.7789
 -85.7788
 -85.783
 -85.7822
 -85.7821
 -85.7867
 -85.7877
 -85.7877
 -85.7878
 -85.7668
 -85.7656
 -85.7661
 -85.766
 -85.7861
 -85.7848
 -85.7837
 -85.7551
 -85.7551
 -85.7566
 -85.7861
 -85.7861
 -85.785
 -85.7871
 -85.7783
 -85.7798
 -85.7775
 -85.7942
 -85.8107
 -85.81
 -85.8116
 -85.7895
 -85.7893
 -85.7903
 -85.791
 -85.7737
 -85.7737
 -85.7769
 -85.7754
 -85.7961
 -85.7973
 -85.7975
 -85.7975
 -85.8142
 -85.8135
 -85.8279
 -85.8274
 -85.827
 -85.8279
 -85.8103
 -85.8104
 -85.8111
 -85.8095
 -85.7912
 -85.791
 -85.7909
 -85.7918
 -85.825
 -85.8251
 -85.8264
 -85.8244
 -85.8246
 -85.8249
 -85.8251
 -85.7973
 -85.796
 -85.7952
 -85.7967
 -85.7734
 -85.7731
 -85.774
 -85.7897
 -85.7897
 -85.7912
 -85.7897
 -85.7685
 -85.7669
 -85.7688
 -85.7667
 -85.8065
 -85.8065
 -85.8068
 -85.8039
 -85.7722
 -85.7723
 -85.7722
 -85.7725
 -85.78
 -85.7808
 -85.7811
 -85.7806
 -85.8226
 -85.8215
 -85.8229
 -85.8218
 -85.7969
 -85.797
 -85.7958
 -85.7971
 -85.7858
 -85.785
 -85.7862
 -85.7851
 -85.8121
 -85.8121
 -85.8132
 -85.8149
 -85.8143
 -85.8141
 -85.7882
 -85.7898
 -85.7892
 -85.7911
 -85.7917
 -85.7926
 -85.7921
 -85.7921
 -85.7737
 -85.7745
 -85.7734
 -85.7872
 -85.7863
 -85.7855
 -85.7347
 -85.7334
 -85.7346
 -85.7338
 -85.781
 -85.7814
 -85.7697
 -85.7706
 -85.7699
 -85.7685
 -85.8007
 -85.7993
 -85.8005
 -85.799
 -85.7559
 -85.7579
 -85.7585
 -85.757
 -85.7771
 -85.7768
 -85.7757
 -85.8078
 -85.808
 -85.8078
 -85.8072
 -85.7763
 -85.7776
 -85.7758
 -85.7728
 -85.773
 -85.7714
 -85.772
 -85.7859
 -85.7853
 -85.7854
 -85.7868
 -85.8126
 -85.8152
 -85.7485
 -85.7492
 -85.7799
 -85.7789
 -85.7921
 -85.7908
 -85.7913
 -85.791
 -85.8061
 -85.8072
 -85.8063
 -85.8076
 -85.7942
 -85.7944
 -85.7951
 -85.7953
 -85.769
 -85.7667
 -85.7683
 -85.7679
 -85.8014
 -85.8
 -85.8005
 -85.7737
 -85.7731
 -85.7736
 -85.7735
 -85.8203
 -85.8201
 -85.821
 -85.8197
 -85.8069
 -85.807
 -85.8071
 -85.8058
 -85.7751
 -85.7759
 -85.7747
 -85.7913
 -85.7896
 -85.7911
 -85.7918
 -85.7694
 -85.769
 -85.7696
 -85.7764
 -85.7779
 -85.7774
 -85.7766
 -85.7762
 -85.7759
 -85.7772
 -85.7763
 -85.7907
 -85.7895
 -85.7893
 -85.7887
 -85.825
 -85.8246
 -85.8241
 -85.8243
 -85.8033
 -85.8049
 -85.8042
 -85.8046
 -85.7898
 -85.7881
 -85.7893
 -85.798
 -85.7974
 -85.7972
 -85.8194
 -85.818
 -85.8193
 -85.8184
 -85.8035
 -85.8036
 -85.8025
 -85.8043
 -85.7886
 -85.7898
 -85.79
 -85.7901
 -85.7668
 -85.7671
 -85.7749
 -85.7742
 -85.7754
 -85.7754
 -85.7444
 -85.7438
 -85.7421
 -85.744
 -85.8114
 -85.8116
 -85.8116
 -85.8109
 -85.7775
 -85.7762
 -85.7766
 -85.7765
 -85.7945
 -85.7934
 -85.794
 -85.7925
 -85.764
 -85.7633
 -85.7636
 -85.7632
 -85.7987
 -85.7983
 -85.7977
 -85.7976
 -85.791
 -85.8095
 -85.8093
 -85.8081
 -85.8084
 -85.7889
 -85.7872
 -85.7868
 -85.7883
 -85.7876
 -85.7884
 -85.7894
 -85.7888
 -85.7842
 -85.7828
 -85.7831
 -85.7826
 -85.7743
 -85.7729
 -85.7751
 -85.8157
 -85.8158
 -85.8161
 -85.8141
 -85.7878
 -85.7874
 -85.7874
 -85.7869
 -85.8145
 -85.8149
 -85.8158
 -85.8074
 -85.8064
 -85.8072
 -85.8068
 -85.8127
 -85.8144
 -85.8136
 -85.8147
 -85.7711
 -85.7725
 -85.7709
 -85.7303
 -85.7309
 -85.731
 -85.8082
 -85.8097
 -85.8094
 -85.7989
 -85.8012
 -85.8001
 -85.8016
 -85.7857
 -85.7863
 -85.7869
 -85.7856
 -85.7898
 -85.7902
 -85.7884
 -85.7888
 -85.7519
 -85.7529
 -85.7504
 -85.7532
 -85.7946
 -85.794
 -85.7938
 -85.7937
 -85.8023
 -85.8026
 -85.8035
 -85.8017
 -85.7774
 -85.7776
 -85.7807
 -85.7784
 -85.7795
 -85.7797
 -85.8083
 -85.8074
 -85.8081
 -85.8079
 -85.7768
 -85.7779
 -85.8038
 -85.8032
 -85.7696
 -85.733
 -85.7328
 -85.7329
 -85.734
 -85.7635
 -85.7651
 -85.8264
 -85.8273
 -85.8265
 -85.767
 -85.7683
 -85.7695
 -85.7683
 -85.8098
 -85.8096
 -85.78
 -85.7797
 -85.7799
 -85.78
 -85.784
 -85.7864
 -85.7855
 -85.8097
 -85.8105
 -85.8099
 -85.8113
 -85.8046
 -85.8058
 -85.8046
 -85.8052
 -85.8169
 -85.8171
 -85.8182
 -85.79
 -85.7887
 -85.7901
 -85.7883
 -85.7942
 -85.8171
 -85.8156
 -85.8168
 -85.8166
 -85.7703
 -85.77
 -85.7706
 -85.7712
 -85.7973
 -85.796
 -85.7971
 -85.7958
 -85.8116
 -85.8101
 -85.8112
 -85.8102
 -85.74
 -85.7405
 -85.7411
 -85.7414
 -85.7752
 -85.825
 -85.7868
 -85.7886
 -85.7874
 -85.7861
 -85.7966
 -85.7977
 -85.7961
 -85.7958
 -85.7779
 -85.7761
 -85.7771
 -85.7775
 -85.799
 -85.7984
 -85.799
 -85.7993
 -85.7742
 -85.7744
 -85.7755
 -85.7725
 -85.7735
 -85.7744
 -85.7734
 -85.7893
 -85.7905
 -85.7884
 -85.7895
 -85.8116
 -85.8125
 -85.8103
 -85.8279
 -85.8287
 -85.828
 -85.8277
 -85.7512
 -85.7499
 -85.7495
 -85.7931
 -85.7933
 -85.7904
 -85.791
 -85.7895
 -85.7915
 -85.8216
 -85.8213
 -85.8214
 -85.822
 -85.8082
 -85.8073
 -85.8079
 -85.807
 -85.7741
 -85.776
 -85.7747
 -85.7605
 -85.7887
 -85.7874
 -85.7878
 -85.7888
 -85.7917
 -85.7924
 -85.7921
 -85.8071
 -85.8065
 -85.8066
 -85.8075
 -85.8123
 -85.8108
 -85.8119
 -85.8113
 -85.7873
 -85.7865
 -85.8089
 -85.8088
 -85.8095
 -85.8103
 -85.7999
 -85.7995
 -85.7997
 -85.8009
 -85.8242
 -85.8245
 -85.8026
 -85.8014
 -85.8027
 -85.802
 -85.809
 -85.8095
 -85.8099
 -85.8103
 -85.8071
 -85.8079
 -85.807
 -85.8071
 -85.7934
 -85.794
 -85.7895
 -85.7903
 -85.7891
 -85.7884
 -85.7833
 -85.7822
 -85.7828
 -85.783
 -85.7996
 -85.8006
 -85.8005
 -85.7997
 -85.7732
 -85.7741
 -85.7748
 -85.7754
 -85.7777
 -85.7774
 -85.7769
 -85.7774
 -85.7475
 -85.7482
 -85.7479
 -85.7464
 -85.7832
 -85.7812
 -85.798
 -85.7961
 -85.7977
 -85.7969
 -85.787
 -85.7865
 -85.7876
 -85.7883
 -85.7957
 -85.7966
 -85.7971
 -85.7962
 -85.7904
 -85.7904
 -85.8093
 -85.8088
 -85.8262
 -85.8264
 -85.8264
 -85.8267
 -85.7683
 -85.7896
 -85.7896
 -85.7901
 -85.7909
 -85.7956
 -85.7941
 -85.7945
 -85.7946
 -85.7809
 -85.78
 -85.7797
 -85.7785
 -85.8066
 -85.8051
 -85.8066
 -85.8052
 -85.7965
 -85.7956
 -85.7951
 -85.7964
 -85.7741
 -85.7737
 -85.7746
 -85.773
 -85.7725
 -85.7855
 -85.7873
 -85.7856
 -85.7868
 -85.7853
 -85.7874
 -85.7857
 -85.7849
 -85.7745
 -85.7745
 -85.7734
 -85.7744
 -85.7779
 -85.7784
 -85.7802
 -85.7795
 -85.7906
 -85.7917
 -85.7898
 -85.7897
 -85.7746
 -85.7741
 -85.7736
 -85.774
 -85.7984
 -85.799
 -85.7972
 -85.7812
 -85.7812
 -85.781
 -85.7807
 -85.7577
 -85.7588
 -85.7978
 -85.7986
 -85.7991
 -85.7968
 -85.7985
 -85.7978
 -85.7985
 -85.7703
 -85.7712
 -85.7718
 -85.7667
 -85.7673
 -85.7673
 -85.7667
 -85.8035
 -85.8033
 -85.804
 -85.8026
 -85.7968
 -85.795
 -85.7969
 -85.814
 -85.8122
 -85.813
 -85.7924
 -85.7913
 -85.7916
 -85.8169
 -85.817
 -85.817
 -85.7437
 -85.7426
 -85.7429
 -85.7437
 -85.8243
 -85.8245
 -85.8242
 -85.8246
 -85.7832
 -85.782
 -85.7999
 -85.7984
 -85.7738
 -85.774
 -85.7738
 -85.7751
 -85.8019
 -85.8015
 -85.803
 -85.8102
 -85.8111
 -85.811
 -85.8113
 -85.8165
 -85.815
 -85.7706
 -85.7707
 -85.7703
 -85.7984
 -85.7981
 -85.797
 -85.7794
 -85.778
 -85.7795
 -85.7706
 -85.7706
 -85.77
 -85.7696
 -85.7887
 -85.7891
 -85.7879
 -85.7896
 -85.787
 -85.7856
 -85.7861
 -85.7868
 -85.8055
 -85.8051
 -85.805
 -85.8063
 -85.8098
 -85.8091
 -85.8096
 -85.8084
 -85.7852
 -85.7849
 -85.7864
 -85.8034
 -85.8032
 -85.8024
 -85.8077
 -85.8088
 -85.8079
 -85.8082
 -85.8291
 -85.8288
 -85.8293
 -85.794
 -85.7937
 -85.7936
 -85.8068
 -85.8074
 -85.8058
 -85.7922
 -85.7931
 -85.7915
 -85.7822
 -85.7806
 -85.7809
 -85.7709
 -85.7716
 -85.7712
 -85.7715
 -85.7925
 -85.7921
 -85.7935
 -85.7924
 -85.7794
 -85.7788
 -85.7777
 -85.7737
 -85.775
 -85.8063
 -85.8055
 -85.8074
 -85.8063
 -85.8064
 -85.8073
 -85.8061
 -85.8051
 -85.7748
 -85.7761
 -85.7767
 -85.7772
 -85.774
 -85.7729
 -85.7734
 -85.7727
 -85.7625
 -85.7617
 -85.7625
 -85.7613
 -85.8209
 -85.8214
 -85.8153
 -85.814
 -85.8146
 -85.8154
 -85.824
 -85.7815
 -85.7829
 -85.7812
 -85.795
 -85.7955
 -85.7944
 -85.7942
 -85.7749
 -85.7747
 -85.7911
 -85.791
 -85.792
 -85.7691
 -85.7696
 -85.8136
 -85.8138
 -85.8148
 -85.8129
 -85.8176
 -85.8173
 -85.819
 -85.8182
 -85.8112
 -85.8115
 -85.8103
 -85.7829
 -85.7839
 -85.7838
 -85.8166
 -85.8165
 -85.8169
 -85.8173
 -85.7792
 -85.7774
 -85.7787
 -85.7794
 -85.8122
 -85.8115
 -85.8114
 -85.8122
 -85.7795
 -85.7779
 -85.7775
 -85.7802
 -85.7716
 -85.7722
 -85.7709
 -85.8242
 -85.8256
 -85.8248
 -85.8246
 -85.7727
 -85.7732
 -85.773
 -85.7886
 -85.7892
 -85.7903
 -85.7893
 -85.8221
 -85.8231
 -85.8226
 -85.7791
 -85.7779
 -85.7791
 -85.7782
 -85.8032
 -85.8201
 -85.8206
 -85.8187
 -85.8199
 -85.7689
 -85.7693
 -85.7699
 -85.7693
 -85.8071
 -85.8052
 -85.8066
 -85.8072
 -85.7943
 -85.7948
 -85.7928
 -85.7716
 -85.7708
 -85.772
 -85.7689
 -85.8045
 -85.8044
 -85.8052
 -85.7777
 -85.7773
 -85.7453
 -85.744
 -85.7457
 -85.7463
 -85.7631
 -85.7602
 -85.7599
 -85.8172
 -85.8167
 -85.8193
 -85.8178
 -85.8177
 -85.8182
 -85.7656
 -85.7663
 -85.7645
 -85.7664
 -85.7869
 -85.7876
 -85.7876
 -85.7879
 -85.791
 -85.7892
 -85.7894
 -85.79
 -85.7973
 -85.7969
 -85.7983
 -85.7969
 -85.7982
 -85.7961
 -85.7976
 -85.7966
 -85.822
 -85.7738
 -85.7734
 -85.7739
 -85.7735
 -85.8227
 -85.8222
 -85.8232
 -85.7994
 -85.798
 -85.7975
 -85.7979
 -85.7707
 -85.7721
 -85.7724
 -85.796
 -85.7949
 -85.7958
 -85.7948
 -85.7926
 -85.8052
 -85.8056
 -85.8069
 -85.8064
 -85.7799
 -85.7799
 -85.7799
 -85.793
 -85.7953
 -85.7945
 -85.8229
 -85.8224
 -85.8216
 -85.8224
 -85.7917
 -85.7911
 -85.7908
 -85.74
 -85.7408
 -85.7391
 -85.7916
 -85.7907
 -85.7914
 -85.7895
 -85.806
 -85.8071
 -85.8069
 -85.794
 -85.794
 -85.8169
 -85.8173
 -85.8163
 -85.8164
 -85.8113
 -85.8122
 -85.8116
 -85.8116
 -85.8253
 -85.8251
 -85.8245
 -85.8241
 -85.7977
 -85.7953
 -85.797
 -85.7977
 -85.8087
 -85.8084
 -85.8079
 -85.8074
 -85.8169
 -85.8176
 -85.8182
 -85.7783
 -85.7791
 -85.7771
 -85.7778
 -85.79
 -85.7914
 -85.7844
 -85.7835
 -85.7847
 -85.7841
 -85.8061
 -85.8058
 -85.806
 -85.8066
 -85.7916
 -85.7929
 -85.7924
 -85.7913
 -85.8054
 -85.8048
 -85.8065
 -85.8051
 -85.7935
 -85.7941
 -85.7949
 -85.7951
 -85.7924
 -85.7912
 -85.7915
 -85.8156
 -85.8149
 -85.8156
 -85.8208
 -85.8205
 -85.8203
 -85.8219
 -85.8186
 -85.8185
 -85.8192
 -85.8091
 -85.8105
 -85.8093
 -85.7501
 -85.7497
 -85.7486
 -85.7898
 -85.7915
 -85.7902
 -85.8148
 -85.8154
 -85.8149
 -85.8147
 -85.7897
 -85.7904
 -85.7896
 -85.7981
 -85.7989
 -85.7985
 -85.7975
 -85.8031
 -85.8004
 -85.8015
 -85.8012
 -85.7926
 -85.7936
 -85.7935
 -85.7945
 -85.7761
 -85.777
 -85.7762
 -85.7757
 -85.7903
 -85.7981
 -85.7981
 -85.7988
 -85.7964
 -85.7726
 -85.7729
 -85.7731
 -85.773
 -85.771
 -85.772
 -85.7713
 -85.7719
 -85.7742
 -85.7746
 -85.7745
 -85.7736
 -85.8037
 -85.8037
 -85.805
 -85.8058
 -85.7784
 -85.7776
 -85.7781
 -85.7784
 -85.8251
 -85.8241
 -85.8249
 -85.8242
 -85.7601
 -85.7608
 -85.7619
 -85.7617
 -85.777
 -85.7771
 -85.7768
 -85.7685
 -85.7677
 -85.7673
 -85.7673
 -85.7728
 -85.772
 -85.7737
 -85.7736
 -85.7738
 -85.7948
 -85.7946
 -85.7954
 -85.7974
 -85.8211
 -85.8202
 -85.8198
 -85.8208
 -85.8206
 -85.8212
 -85.8203
 -85.7753
 -85.7745
 -85.8237
 -85.8244
 -85.8235
 -85.8159
 -85.8156
 -85.8158
 -85.8168
 -85.7728
 -85.7722
 -85.7728
 -85.8247
 -85.825
 -85.8243
 -85.8253
 -85.7837
 -85.7841
 -85.785
 -85.7829
 -85.7746
 -85.7729
 -85.7736
 -85.7747
 -85.7681
 -85.7699
 -85.7691
 -85.7688
 -85.7549
 -85.7552
 -85.7542
 -85.7541
 -85.8011
 -85.8033
 -85.8023
 -85.8029
 -85.785
 -85.7852
 -85.7846
 -85.783
 -85.8242
 -85.8235
 -85.8242
 -85.7381
 -85.7398
 -85.7388
 -85.7406
 -85.7628
 -85.7644
 -85.7634
 -85.7648
 -85.8241
 -85.8252
 -85.8246
 -85.8246
 -85.7934
 -85.7935
 -85.7948
 -85.8183
 -85.8195
 -85.8199
 -85.775
 -85.7747
 -85.773
 -85.8244
 -85.8239
 -85.8237
 -85.8241
 -85.8157
 -85.8151
 -85.8148
 -85.8139
 -85.78
 -85.7808
 -85.7818
 -85.7807
 -85.7851
 -85.7837
 -85.7849
 -85.7832
 -85.8119
 -85.8119
 -85.812
 -85.8132
 -85.7966
 -85.7959
 -85.795
 -85.7956
 -85.7579
 -85.7595
 -85.7596
 -85.7593
 -85.817
 -85.815
 -85.8163
 -85.8157
 -85.8255
 -85.7945
 -85.7948
 -85.7958
 -85.7957
 -85.8202
 -85.8208
 -85.8205
 -85.8216
 -85.7728
 -85.7728
 -85.773
 -85.773
 -85.8234
 -85.8241
 -85.823
 -85.8227
 -85.7918
 -85.7914
 -85.7856
 -85.785
 -85.7861
 -85.7864
 -85.8108
 -85.8095
 -85.8095
 -85.8095
 -85.7981
 -85.7995
 -85.7991
 -85.7848
 -85.7845
 -85.7851
 -85.8114
 -85.8112
 -85.81
 -85.8101
 -85.8082
 -85.8075
 -85.8088
 -85.8078
 -85.7755
 -85.7747
 -85.7744
 -85.7926
 -85.7954
 -85.7955
 -85.7937
 -85.7603
 -85.7598
 -85.7613
 -85.7592
 -85.7579
 -85.8245
 -85.8226
 -85.8245
 -85.8232
 -85.7949
 -85.7942
 -85.7935
 -85.7949
 -85.8181
 -85.8187
 -85.7893
 -85.7871
 -85.7874
 -85.7791
 -85.778
 -85.7799
 -85.7795
 -85.8237
 -85.8233
 -85.8241
 -85.8241
 -85.7742
 -85.7745
 -85.7744
 -85.78
 -85.7796
 -85.7807
 -85.7797
 -85.7843
 -85.786
 -85.7847
 -85.783
 -85.8057
 -85.8079
 -85.8063
 -85.807
 -85.7776
 -85.7793
 -85.7784
 -85.7782
 -85.8098
 -85.8015
 -85.803
 -85.8034
 -85.8011
 -85.8205
 -85.8209
 -85.8197
 -85.8227
 -85.8224
 -85.8223
 -85.8216
 -85.8025
 -85.8033
 -85.8018
 -85.8026
 -85.8266
 -85.8265
 -85.8265
 -85.8255
 -85.7845
 -85.7991
 -85.7973
 -85.7973
 -85.7986
 -85.795
 -85.7929
 -85.794
 -85.7943
 -85.7553
 -85.7569
 -85.7574
 -85.7558
 -85.7908
 -85.7912
 -85.7917
 -85.7901
 -85.7887
 -85.7888
 -85.7892
 -85.79
 -85.7897
 -85.7899
 -85.791
 -85.8183
 -85.8174
 -85.8169
 -85.7886
 -85.7869
 -85.7874
 -85.788
 -85.8169
 -85.8183
 -85.8176
 -85.7931
 -85.792
 -85.7963
 -85.7972
 -85.7968
 -85.796
 -85.7955
 -85.7959
 -85.7943
 -85.7946
 -85.7963
 -85.7958
 -85.8195
 -85.8199
 -85.8199
 -85.7848
 -85.8221
 -85.7981
 -85.799
 -85.7979
 -85.7967
 -85.7727
 -85.7726
 -85.7712
 -85.7759
 -85.7773
 -85.778
 -85.7959
 -85.7965
 -85.795
 -85.792
 -85.792
 -85.7926
 -85.7933
 -85.795
 -85.7938
 -85.7958
 -85.794
 -85.7389
 -85.7393
 -85.7377
 -85.8115
 -85.8103
 -85.8112
 -85.7919
 -85.7923
 -85.8143
 -85.8128
 -85.8133
 -85.8127
 -85.7999
 -85.801
 -85.7998
 -85.7557
 -85.7564
 -85.7544
 -85.755
 -85.7884
 -85.7868
 -85.7882
 -85.7869
 -85.7765
 -85.776
 -85.7754
 -85.7751
 -85.8052
 -85.8035
 -85.8046
 -85.8052
 -85.7826
 -85.7813
 -85.7823
 -85.7806
 -85.7602
 -85.7599
 -85.76
 -85.7845
 -85.784
 -85.7833
 -85.7837
 -85.8054
 -85.8068
 -85.8061
 -85.8064
 -85.7935
 -85.795
 -85.7951
 -85.7943
 -85.7785
 -85.778
 -85.7787
 -85.7872
 -85.7861
 -85.7865
 -85.7864
 -85.7761
 -85.7747
 -85.7762
 -85.7751
 -85.7692
 -85.7709
 -85.7704
 -85.7687
 -85.8235
 -85.824
 -85.8236
 -85.824
 -85.7748
 -85.7757
 -85.7754
 -85.7757
 -85.7779
 -85.777
 -85.7782
 -85.7782
 -85.8032
 -85.8047
 -85.8043
 -85.8052
 -85.7835
 -85.7832
 -85.7846
 -85.7839
 -85.8285
 -85.8287
 -85.8286
 -85.8288
 -85.7898
 -85.7892
 -85.7904
 -85.7717
 -85.7708
 -85.7711
 -85.7723
 -85.7743
 -85.7738
 -85.7741
 -85.7737
 -85.7744
 -85.7723
 -85.8078
 -85.8065
 -85.8077
 -85.8061
 -85.8281
 -85.8275
 -85.8278
 -85.8277
 -85.7866
 -85.7854
 -85.786
 -85.7853
 -85.7758
 -85.7752
 -85.7751
 -85.8048
 -85.8035
 -85.8035
 -85.8045
 -85.7897
 -85.7897
 -85.7901
 -85.7913
 -85.7792
 -85.7794
 -85.7791
 -85.7802
 -85.7707
 -85.7725
 -85.7714
 -85.8122
 -85.8135
 -85.814
 -85.8125
 -85.8162
 -85.8159
 -85.815
 -85.7868
 -85.7865
 -85.7875
 -85.7884
 -85.7879
 -85.7873
 -85.7889
 -85.7785
 -85.78
 -85.7807
 -85.7802
 -85.8043
 -85.8037
 -85.8029
 -85.7743
 -85.7742
 -85.7729
 -85.7944
 -85.7958
 -85.7953
 -85.8161
 -85.8148
 -85.8157
 -85.8066
 -85.8064
 -85.784
 -85.7848
 -85.7837
 -85.7847
 -85.7853
 -85.7847
 -85.7915
 -85.7898
 -85.7792
 -85.7695
 -85.7696
 -85.7686
 -85.8174
 -85.8173
 -85.8156
 -85.7868
 -85.788
 -85.7876
 -85.7867
 -85.7801
 -85.7936
 -85.7943
 -85.8048
 -85.8052
 -85.8044
 -85.8057
 -85.7934
 -85.7922
 -85.7937
 -85.7872
 -85.7879
 -85.7859
 -85.7873
 -85.7843
 -85.7865
 -85.7886
 -85.7875
 -85.7868
 -85.7892
 -85.8188
 -85.8177
 -85.8175
 -85.8184
 -85.8196
 -85.8203
 -85.8212
 -85.8211
 -85.7741
 -85.7751
 -85.7928
 -85.7928
 -85.7922
 -85.791
 -85.7989
 -85.7993
 -85.7999
 -85.8004
 -85.8027
 -85.8038
 -85.8027
 -85.8024
 -85.7917
 -85.7907
 -85.7903
 -85.7918
 -85.7891
 -85.7902
 -85.7894
 -85.7889
 -85.8159
 -85.8143
 -85.8159
 -85.8157
 -85.7753
 -85.7768
 -85.7774
 -85.7783
 -85.7758
 -85.7773
 -85.7766
 -85.8117
 -85.8128
 -85.8141
 -85.8147
 -85.7786
 -85.7796
 -85.7792
 -85.78
 -85.822
 -85.8214
 -85.822
 -85.8218
 -85.8168
 -85.8162
 -85.8166
 -85.8159
 -85.7856
 -85.7863
 -85.7851
 -85.7857
 -85.8069
 -85.8074
 -85.8069
 -85.8056
 -85.7796
 -85.7803
 -85.7813
 -85.7816
 -85.8113
 -85.8106
 -85.8109
 -85.7749
 -85.7756
 -85.7747
 -85.7752
 -85.801
 -85.8004
 -85.8012
 -85.8018
 -85.7843
 -85.7847
 -85.8097
 -85.8117
 -85.8107
 -85.8104
 -85.8122
 -85.8119
 -85.8111
 -85.7901
 -85.7919
 -85.7903
 -85.8134
 -85.8135
 -85.814
 -85.8147
 -85.7614
 -85.7618
 -85.7629
 -85.7626
 -85.7791
 -85.7797
 -85.7806
 -85.7811
 -85.8011
 -85.7994
 -85.7996
 -85.8011
 -85.8194
 -85.8197
 -85.819
 -85.8199
 -85.8167
 -85.8177
 -85.8178
 -85.8169
 -85.8195
 -85.8193
 -85.8196
 -85.8191
 -85.8195
 -85.7818
 -85.7826
 -85.7817
 -85.7829
 -85.7757
 -85.7761
 -85.7742
 -85.7754
 -85.7813
 -85.7813
 -85.7842
 -85.7856
 -85.7845
 -85.7842
 -85.7881
 -85.788
 -85.7895
 -85.788
 -85.7766
 -85.7767
 -85.7757
 -85.7952
 -85.7944
 -85.7946
 -85.7941
 -85.8289
 -85.8287
 -85.8281
 -85.7821
 -85.7819
 -85.7825
 -85.7838
 -85.8138
 -85.8122
 -85.8132
 -85.8136
 -85.8056
 -85.807
 -85.8064
 -85.7933
 -85.7925
 -85.7939
 -85.8068
 -85.8082
 -85.8068
 -85.8158
 -85.815
 -85.8057
 -85.8058
 -85.8057
 -85.7799
 -85.7803
 -85.7806
 -85.7792
 -85.8208
 -85.8215
 -85.8209
 -85.8205
 -85.8014
 -85.8026
 -85.8019
 -85.752
 -85.7502
 -85.7495
 -85.7516
 -85.7712
 -85.7705
 -85.7979
 -85.7844
 -85.7863
 -85.7851
 -85.7844
 -85.7951
 -85.7967
 -85.7966
 -85.8105
 -85.8106
 -85.8097
 -85.8107
 -85.8228
 -85.8231
 -85.793
 -85.7925
 -85.7926
 -85.7917
 -85.7694
 -85.7681
 -85.768
 -85.7695
 -85.8172
 -85.8179
 -85.8178
 -85.8173
 -85.8008
 -85.8014
 -85.8005
 -85.7411
 -85.7402
 -85.7392
 -85.7393
 -85.7751
 -85.7748
 -85.774
 -85.7818
 -85.7828
 -85.7809
 -85.782
 -85.8007
 -85.8009
 -85.8003
 -85.8019
 -85.7931
 -85.7941
 -85.7721
 -85.7724
 -85.7723
 -85.7723
 -85.8018
 -85.8032
 -85.7819
 -85.78
 -85.7808
 -85.7813
 -85.7868
 -85.7873
 -85.7858
 -85.7869
 -85.7936
 -85.7951
 -85.7955
 -85.7944
 -85.7805
 -85.7798
 -85.7783
 -85.8052
 -85.8037
 -85.8053
 -85.8039
 -85.8123
 -85.8133
 -85.8143
 -85.8125
 -85.8107
 -85.8108
 -85.811
 -85.8119
 -85.7682
 -85.7669
 -85.7676
 -85.7664
 -85.7945
 -85.7935
 -85.7479
 -85.7464
 -85.7468
 -85.7454
 -85.7865
 -85.7852
 -85.7845
 -85.8234
 -85.7343
 -85.7349
 -85.7349
 -85.7328
 -85.7913
 -85.792
 -85.7912
 -85.7913
 -85.7838
 -85.7851
 -85.7841
 -85.8113
 -85.8124
 -85.8124
 -85.8112
 -85.8118
 -85.8114
 -85.8127
 -85.8127
 -85.8104
 -85.8111
 -85.81
 -85.8095
 -85.7803
 -85.7814
 -85.7797
 -85.7813
 -85.7745
 -85.7739
 -85.7732
 -85.7732
 -85.8025
 -85.8026
 -85.8039
 -85.8025
 -85.7873
 -85.7855
 -85.7881
 -85.7869
 -85.8279
 -85.8197
 -85.82
 -85.7997
 -85.7997
 -85.788
 -85.7869
 -85.7872
 -85.8207
 -85.822
 -85.8212
 -85.8209
 -85.7904
 -85.7898
 -85.7997
 -85.7986
 -85.7556
 -85.7573
 -85.7555
 -85.7571
 -85.7803
 -85.7797
 -85.7788
 -85.7794
 -85.8014
 -85.803
 -85.8017
 -85.8025
 -85.7586
 -85.7572
 -85.7584
 -85.759
 -85.8256
 -85.8252
 -85.8262
 -85.8255
 -85.8198
 -85.8187
 -85.8225
 -85.8218
 -85.8209
 -85.8226
 -85.8128
 -85.8138
 -85.7848
 -85.7854
 -85.7843
 -85.7367
 -85.7381
 -85.7362
 -85.7365
 -85.7606
 -85.7617
 -85.762
 -85.7608
 -85.8204
 -85.8212
 -85.8204
 -85.82
 -85.8073
 -85.809
 -85.808
 -85.7963
 -85.7949
 -85.794
 -85.7955
 -85.7819
 -85.7838
 -85.7823
 -85.7818
 -85.816
 -85.817
 -85.8166
 -85.8208
 -85.7944
 -85.7962
 -85.7799
 -85.7804
 -85.8053
 -85.8069
 -85.805
 -85.8055
 -85.7744
 -85.7729
 -85.775
 -85.7728
 -85.7735
 -85.7723
 -85.7728
 -85.7391
 -85.7414
 -85.7409
 -85.7404
 -85.7816
 -85.7825
 -85.7824
 -85.7836
 -85.8166
 -85.8168
 -85.8144
 -85.8153
 -85.8149
 -85.8153
 -85.7793
 -85.7792
 -85.7804
 -85.7786
 -85.8106
 -85.8099
 -85.811
 -85.8059
 -85.8059
 -85.8062
 -85.8051
 -85.8148
 -85.8155
 -85.8143
 -85.8158
 -85.7819
 -85.7833
 -85.7828
 -85.7821
 -85.8228
 -85.8215
 -85.7891
 -85.7522
 -85.7529
 -85.7538
 -85.7545
 -85.8102
 -85.81
 -85.8109
 -85.7608
 -85.7597
 -85.7601
 -85.7591
 -85.8052
 -85.805
 -85.8049
 -85.8061
 -85.7721
 -85.7721
 -85.7708
 -85.7724
 -85.7772
 -85.7769
 -85.778
 -85.7782
 -85.8035
 -85.8044
 -85.8044
 -85.7847
 -85.7852
 -85.7845
 -85.7836
 -85.8021
 -85.8017
 -85.8026
 -85.8007
 -85.7984
 -85.7976
 -85.813
 -85.8135
 -85.8134
 -85.806
 -85.8062
 -85.805
 -85.7516
 -85.7518
 -85.7532
 -85.7519
 -85.7742
 -85.7753
 -85.7737
 -85.7757
 -85.8162
 -85.8146
 -85.8148
 -85.8147
 -85.8136
 -85.8133
 -85.7779
 -85.7805
 -85.7781
 -85.8062
 -85.8048
 -85.8053
 -85.8045
 -85.8057
 -85.8054
 -85.8049
 -85.7809
 -85.7802
 -85.7811
 -85.7813
 -85.8209
 -85.8211
 -85.7852
 -85.7847
 -85.7852
 -85.7861
 -85.7794
 -85.7795
 -85.78
 -85.8073
 -85.8077
 -85.7926
 -85.7918
 -85.7927
 -85.7937
 -85.7733
 -85.7729
 -85.803
 -85.8028
 -85.7858
 -85.7838
 -85.7841
 -85.7851
 -85.7954
 -85.7954
 -85.7945
 -85.7964
 -85.7954
 -85.7946
 -85.7954
 -85.7652
 -85.7653
 -85.7646
 -85.7674
 -85.7602
 -85.7602
 -85.7613
 -85.7611
 -85.8058
 -85.8048
 -85.8037
 -85.8046
 -85.8172
 -85.8174
 -85.8165
 -85.8165
 -85.7982
 -85.799
 -85.7979
 -85.7944
 -85.7939
 -85.7931
