 -85.7516
 -85.7539
 -85.7534
 -85.7546
 -85.7886
 -85.789
 -85.7898
 -85.7903
 -85.7802
 -85.779
 -85.7805
 -85.7793
 -85.7818
 -85.7805
 -85.7802
 -85.7795
 -85.8019
 -85.8027
 -85.8013
 -85.8009
 -85.8001
 -85.7992
 -85.8008
 -85.7995
 -85.7435
 -85.7422
 -85.7426
 -85.7434
 -85.7455
 -85.7459
 -85.7459
 -85.7451
 -85.7999
 -85.7995
 -85.7983
 -85.7994
 -85.7996
 -85.7998
 -85.7994
 -85.801
 -85.7385
 -85.7376
 -85.7389
 -85.7391
 -85.7795
 -85.7797
 -85.7784
 -85.7792
 -85.7587
 -85.7586
 -85.7574
 -85.7598
 -85.791
 -85.7892
 -85.7885
 -85.7898
 -85.7738
 -85.7733
 -85.7742
 -85.7752
 -85.748
 -85.7468
 -85.7488
 -85.7469
 -85.7969
 -85.7976
 -85.7967
 -85.7978
 -85.7831
 -85.7822
 -85.7834
 -85.7826
 -85.7747
 -85.7752
 -85.7754
 -85.7763
 -85.7949
 -85.7949
 -85.7955
 -85.7963
 -85.7449
 -85.743
 -85.7449
 -85.7437
 -85.8039
 -85.8042
 -85.8051
 -85.805
 -85.7175
 -85.7165
 -85.7161
 -85.7177
 -85.7877
 -85.7881
 -85.7868
 -85.7866
 -85.7721
 -85.7711
 -85.7721
 -85.7728
 -85.7771
 -85.7775
 -85.7768
 -85.7764
 -85.7661
 -85.7677
 -85.7685
 -85.7662
 -85.7472
 -85.746
 -85.7474
 -85.7471
 -85.7582
 -85.7578
 -85.7565
 -85.7574
 -85.7896
 -85.7895
 -85.7887
 -85.7879
 -85.7729
 -85.7749
 -85.7723
 -85.7732
 -85.759
 -85.7602
 -85.7601
 -85.759
 -85.7853
 -85.784
 -85.7857
 -85.7843
 -85.7887
 -85.7882
 -85.788
 -85.7883
 -85.7594
 -85.7582
 -85.7597
 -85.7573
 -85.75
 -85.7497
 -85.7495
 -85.7497
 -85.784
 -85.7821
 -85.7838
 -85.7833
 -85.7375
 -85.7384
 -85.7386
 -85.7392
 -85.7859
 -85.7859
 -85.7881
 -85.7875
 -85.8059
 -85.8051
 -85.8057
 -85.8049
 -85.7786
 -85.7784
 -85.779
 -85.7771
 -85.7885
 -85.7896
 -85.789
 -85.7888
 -85.7409
 -85.7407
 -85.7418
 -85.7399
 -85.7833
 -85.7824
 -85.7828
 -85.7842
 -85.7997
 -85.7994
 -85.8004
 -85.8
 -85.7552
 -85.7564
 -85.7559
 -85.7553
 -85.7842
 -85.786
 -85.7855
 -85.7855
 -85.7486
 -85.75
 -85.7486
 -85.7471
 -85.7608
 -85.7598
 -85.7594
 -85.7588
 -85.775
 -85.7739
 -85.7736
 -85.7728
 -85.7464
 -85.7459
 -85.7453
 -85.7463
 -85.7761
 -85.7749
 -85.7749
 -85.7759
 -85.7624
 -85.7605
 -85.7623
 -85.7599
 -85.7788
 -85.7796
 -85.7787
 -85.7797
 -85.7572
 -85.7584
 -85.7577
 -85.7595
 -85.779
 -85.7788
 -85.78
 -85.778
 -85.7863
 -85.7866
 -85.7873
 -85.7879
 -85.7882
 -85.7876
 -85.7883
 -85.7864
 -85.7553
 -85.7554
 -85.7533
 -85.7561
 -85.7651
 -85.7644
 -85.7647
 -85.7665
 -85.7207
 -85.7195
 -85.7186
 -85.7197
 -85.758
 -85.7579
 -85.7565
 -85.7577
 -85.773
 -85.7749
 -85.7742
 -85.7745
 -85.7633
 -85.763
 -85.765
 -85.7619
 -85.7624
 -85.7642
 -85.7623
 -85.764
 -85.7469
 -85.746
 -85.7473
 -85.7472
 -85.7959
 -85.7972
 -85.7976
 -85.7958
 -85.8021
 -85.8024
 -85.8027
 -85.803
 -85.7762
 -85.7779
 -85.775
 -85.7759
 -85.7585
 -85.7581
 -85.7593
 -85.7577
 -85.7857
 -85.7863
 -85.7871
 -85.7856
 -85.7448
 -85.7422
 -85.743
 -85.7429
 -85.7444
 -85.743
 -85.7428
 -85.7445
 -85.7184
 -85.7174
 -85.719
 -85.7187
 -85.7795
 -85.7809
 -85.7802
 -85.7815
 -85.7544
 -85.7561
 -85.7565
 -85.7545
 -85.7515
 -85.7502
 -85.7517
 -85.7527
 -85.8032
 -85.8041
 -85.8037
 -85.8042
 -85.7496
 -85.7491
 -85.748
 -85.7494
 -85.752
 -85.7513
 -85.7502
 -85.7519
 -85.7544
 -85.7556
 -85.7544
 -85.7532
 -85.768
 -85.7676
 -85.769
 -85.7687
 -85.7527
 -85.7543
 -85.7532
 -85.7536
 -85.7605
 -85.7615
 -85.7619
 -85.7609
 -85.765
 -85.7646
 -85.764
 -85.7634
 -85.749
 -85.7473
 -85.7495
 -85.7478
 -85.714
 -85.7136
 -85.716
 -85.716
 -85.746
 -85.7464
 -85.7473
 -85.7466
 -85.7802
 -85.7794
 -85.7808
 -85.7785
 -85.7806
 -85.7801
 -85.7814
 -85.7802
 -85.7878
 -85.7873
 -85.7869
 -85.7886
 -85.7443
 -85.7441
 -85.7444
 -85.745
 -85.8045
 -85.8045
 -85.8038
 -85.8051
 -85.7872
 -85.7884
 -85.7871
 -85.7874
 -85.7387
 -85.7386
 -85.7371
 -85.7372
 -85.7612
 -85.7612
 -85.7605
 -85.7632
 -85.7514
 -85.7523
 -85.7502
 -85.751
 -85.7519
 -85.7511
 -85.7512
 -85.745
 -85.7448
 -85.7448
 -85.7442
 -85.7832
 -85.7824
 -85.7817
 -85.7837
 -85.7662
 -85.7682
 -85.7673
 -85.7662
 -85.7816
 -85.7829
 -85.7819
 -85.758
 -85.7561
 -85.7572
 -85.7565
 -85.7706
 -85.7714
 -85.7711
 -85.7696
 -85.7939
 -85.7927
 -85.7927
 -85.7947
 -85.7451
 -85.7453
 -85.7475
 -85.7466
 -85.7493
 -85.7481
 -85.7475
 -85.7484
 -85.7801
 -85.7786
 -85.7782
 -85.7787
 -85.786
 -85.7852
 -85.7874
 -85.7871
 -85.7409
 -85.7409
 -85.7402
 -85.739
 -85.7483
 -85.7486
 -85.751
 -85.7503
 -85.7639
 -85.7657
 -85.7667
 -85.7642
 -85.8001
 -85.8009
 -85.8004
 -85.8007
 -85.7796
 -85.7811
 -85.7814
 -85.7809
 -85.7708
 -85.7685
 -85.7707
 -85.7707
 -85.7234
 -85.7212
 -85.7235
 -85.7233
 -85.768
 -85.7666
 -85.7685
 -85.7694
 -85.7935
 -85.7923
 -85.7936
 -85.7917
 -85.7533
 -85.751
 -85.7545
 -85.7536
 -85.7501
 -85.7505
 -85.7489
 -85.7498
 -85.7495
 -85.748
 -85.7483
 -85.7488
 -85.7363
 -85.7361
 -85.7362
 -85.7368
 -85.7515
 -85.7493
 -85.7494
 -85.7494
 -85.7807
 -85.7805
 -85.7807
 -85.7797
 -85.7429
 -85.7435
 -85.7441
 -85.7445
 -85.7991
 -85.7982
 -85.7987
 -85.7991
 -85.7439
 -85.742
 -85.7423
 -85.7437
 -85.7934
 -85.7916
 -85.7934
 -85.7923
 -85.7674
 -85.766
 -85.7661
 -85.767
 -85.7611
 -85.7624
 -85.763
 -85.7614
 -85.7563
 -85.7564
 -85.7582
 -85.7567
 -85.7534
 -85.7534
 -85.7523
 -85.7518
 -85.8038
 -85.8046
 -85.8048
 -85.8047
 -85.7548
 -85.754
 -85.7548
 -85.7542
 -85.8059
 -85.8053
 -85.8057
 -85.8048
 -85.7865
 -85.7862
 -85.7879
 -85.7867
 -85.7291
 -85.731
 -85.7306
 -85.7288
 -85.801
 -85.8007
 -85.8016
 -85.802
 -85.7481
 -85.7499
 -85.7484
 -85.747
 -85.7275
 -85.7266
 -85.7262
 -85.7273
 -85.7912
 -85.791
 -85.7904
 -85.791
 -85.8023
 -85.8032
 -85.8026
 -85.8024
 -85.7746
 -85.7751
 -85.7743
 -85.774
 -85.7892
 -85.7878
 -85.7896
 -85.7882
 -85.7515
 -85.7498
 -85.7507
 -85.7504
 -85.778
 -85.7774
 -85.778
 -85.7794
 -85.7604
 -85.7596
 -85.7609
 -85.761
 -85.7459
 -85.7465
 -85.7457
 -85.7456
 -85.7393
 -85.7391
 -85.739
 -85.7402
 -85.7666
 -85.766
 -85.7675
 -85.7655
 -85.7709
 -85.7709
 -85.7704
 -85.7694
 -85.7506
 -85.7503
 -85.7514
 -85.752
 -85.7505
 -85.7487
 -85.7505
 -85.7502
 -85.7822
 -85.7825
 -85.7814
 -85.7814
 -85.8003
 -85.8
 -85.8011
 -85.8013
 -85.7986
 -85.7978
 -85.7988
 -85.799
 -85.7981
 -85.7966
 -85.797
 -85.7976
 -85.7835
 -85.7829
 -85.784
 -85.7826
 -85.7504
 -85.7485
 -85.7499
 -85.7494
 -85.7511
 -85.752
 -85.7524
 -85.7528
 -85.7703
 -85.7698
 -85.7676
 -85.7676
 -85.7867
 -85.7858
 -85.788
 -85.7872
 -85.7863
 -85.7855
 -85.7858
 -85.7868
 -85.7755
 -85.7742
 -85.775
 -85.7753
 -85.7794
 -85.7806
 -85.7789
 -85.7793
 -85.7401
 -85.7399
 -85.7405
 -85.742
 -85.7061
 -85.705
 -85.7063
 -85.7041
 -85.7541
 -85.7538
 -85.752
 -85.753
 -85.7126
 -85.7148
 -85.7142
 -85.7541
 -85.7539
 -85.7548
 -85.753
 -85.7949
 -85.7941
 -85.7946
 -85.7937
 -85.774
 -85.7749
 -85.7751
 -85.7762
 -85.8002
 -85.7996
 -85.8009
 -85.7995
 -85.7502
 -85.7504
 -85.7489
 -85.7502
 -85.7845
 -85.7841
 -85.7861
 -85.7856
 -85.7757
 -85.7758
 -85.774
 -85.7747
 -85.8028
 -85.8033
 -85.8036
 -85.8023
 -85.7923
 -85.792
 -85.7925
 -85.7938
 -85.7541
 -85.7557
 -85.7546
 -85.7541
 -85.7843
 -85.7841
 -85.7828
 -85.7842
 -85.794
 -85.792
 -85.7932
 -85.7923
 -85.7273
 -85.725
 -85.7261
 -85.7252
 -85.7732
 -85.774
 -85.7746
 -85.7748
 -85.7938
 -85.7941
 -85.7948
 -85.7939
 -85.781
 -85.7823
 -85.78
 -85.7829
 -85.7922
 -85.7908
 -85.7924
 -85.7922
 -85.751
 -85.7525
 -85.7533
 -85.7532
 -85.7919
 -85.7944
 -85.7919
 -85.794
 -85.765
 -85.7659
 -85.7632
 -85.7647
 -85.7686
 -85.7695
 -85.7704
 -85.7684
 -85.7918
 -85.7917
 -85.7906
 -85.7923
 -85.8058
 -85.8052
 -85.8053
 -85.8057
 -85.7403
 -85.7412
 -85.7419
 -85.7423
 -85.7596
 -85.7608
 -85.7617
 -85.76
 -85.7778
 -85.7769
 -85.7761
 -85.7766
 -85.792
 -85.7929
 -85.7927
 -85.7929
 -85.7554
 -85.7543
 -85.7547
 -85.7548
 -85.7427
 -85.7445
 -85.7453
 -85.743
 -85.7854
 -85.7855
 -85.7839
 -85.7839
 -85.781
 -85.7822
 -85.7809
 -85.7815
 -85.8014
 -85.8021
 -85.8028
 -85.8014
 -85.7467
 -85.7485
 -85.7463
 -85.7478
 -85.8022
 -85.803
 -85.8029
 -85.8023
 -85.7584
 -85.7603
 -85.7593
 -85.7586
 -85.7076
 -85.7072
 -85.7078
 -85.7085
 -85.7972
 -85.798
 -85.7985
 -85.798
 -85.7833
 -85.7842
 -85.7827
 -85.7811
 -85.7982
 -85.7983
 -85.7976
 -85.7974
 -85.7702
 -85.7684
 -85.7697
 -85.7705
 -85.7667
 -85.7677
 -85.768
 -85.7671
 -85.79
 -85.7884
 -85.7889
 -85.789
 -85.7502
 -85.7508
 -85.7495
 -85.7505
 -85.7478
 -85.7487
 -85.7488
 -85.7482
 -85.7199
 -85.719
 -85.719
 -85.7185
 -85.7756
 -85.7767
 -85.7773
 -85.778
 -85.7713
 -85.7704
 -85.7728
 -85.7712
 -85.7813
 -85.7792
 -85.7805
 -85.7817
 -85.7599
 -85.7618
 -85.762
 -85.7594
 -85.8004
 -85.8002
 -85.801
 -85.7994
 -85.8023
 -85.8037
 -85.8023
 -85.802
 -85.7823
 -85.7829
 -85.7843
 -85.7843
 -85.6959
 -85.6957
 -85.6962
 -85.697
 -85.7646
 -85.7637
 -85.765
 -85.7629
 -85.7659
 -85.7654
 -85.7637
 -85.7654
 -85.7648
 -85.765
 -85.7632
 -85.7633
 -85.7906
 -85.79
 -85.7916
 -85.7897
 -85.7249
 -85.7267
 -85.7236
 -85.7247
 -85.7165
 -85.7166
 -85.7148
 -85.7145
 -85.7908
 -85.7897
 -85.7908
 -85.7894
 -85.7569
 -85.7588
 -85.7561
 -85.7586
 -85.7631
 -85.7631
 -85.7636
 -85.7637
 -85.7823
 -85.7813
 -85.7811
 -85.7796
 -85.749
 -85.7498
 -85.7504
 -85.7496
 -85.7927
 -85.7912
 -85.7916
 -85.7924
 -85.7601
 -85.7572
 -85.7588
 -85.7567
 -85.7575
 -85.7573
 -85.7559
 -85.7571
 -85.7429
 -85.7419
 -85.7436
 -85.7414
 -85.7644
 -85.7665
 -85.765
 -85.7666
 -85.7948
 -85.7955
 -85.7955
 -85.7945
 -85.7841
 -85.7858
 -85.7863
 -85.7848
 -85.7485
 -85.7481
 -85.7497
 -85.7495
 -85.7548
 -85.7568
 -85.7568
 -85.7548
 -85.7989
 -85.7993
 -85.7999
 -85.7997
 -85.7921
 -85.7911
 -85.7918
 -85.7912
 -85.766
 -85.7654
 -85.7644
 -85.7654
 -85.7439
 -85.7442
 -85.7442
 -85.7446
 -85.7319
 -85.7346
 -85.7341
 -85.7322
 -85.7825
 -85.7811
 -85.7803
 -85.7818
 -85.7438
 -85.7422
 -85.7437
 -85.7403
 -85.796
 -85.7946
 -85.7946
 -85.7958
 -85.7781
 -85.7801
 -85.779
 -85.7777
 -85.7948
 -85.7945
 -85.794
 -85.7943
 -85.7857
 -85.7842
 -85.7842
 -85.785
 -85.7657
 -85.7649
 -85.7656
 -85.7667
 -85.7513
 -85.7489
 -85.7495
 -85.7505
 -85.7345
 -85.7372
 -85.7348
 -85.735
 -85.7407
 -85.7383
 -85.7408
 -85.7402
 -85.7504
 -85.7484
 -85.7481
 -85.7488
 -85.7687
 -85.7693
 -85.769
 -85.7666
 -85.7692
 -85.7695
 -85.77
 -85.7682
 -85.771
 -85.7695
 -85.7722
 -85.7706
 -85.7831
 -85.7822
 -85.7835
 -85.7833
 -85.725
 -85.7231
 -85.7236
 -85.7235
 -85.7753
 -85.7756
 -85.7749
 -85.7763
 -85.7481
 -85.7463
 -85.747
 -85.7475
 -85.7628
 -85.7647
 -85.7635
 -85.7646
 -85.8015
 -85.7999
 -85.8013
 -85.801
 -85.7679
 -85.767
 -85.767
 -85.7663
 -85.7446
 -85.7439
 -85.7443
 -85.7425
 -85.762
 -85.7619
 -85.763
 -85.7639
 -85.7519
 -85.7529
 -85.7527
 -85.7515
 -85.7661
 -85.7642
 -85.7664
 -85.7651
 -85.7262
 -85.7247
 -85.7254
 -85.7265
 -85.7636
 -85.7637
 -85.7652
 -85.7653
 -85.7837
 -85.7832
 -85.7842
 -85.7835
 -85.7792
 -85.7794
 -85.7801
 -85.7794
 -85.7987
 -85.7968
 -85.7984
 -85.7975
 -85.7552
 -85.7549
 -85.7562
 -85.7553
 -85.7508
 -85.7519
 -85.7508
 -85.7536
 -85.7977
 -85.7962
 -85.7978
 -85.7975
 -85.7523
 -85.7522
 -85.7539
 -85.7523
 -85.7948
 -85.7943
 -85.7954
 -85.7942
 -85.7735
 -85.7756
 -85.7742
 -85.7751
 -85.769
 -85.7667
 -85.769
 -85.7694
 -85.7512
 -85.7527
 -85.7523
 -85.7511
 -85.7669
 -85.7668
 -85.7684
 -85.7666
 -85.7954
 -85.7948
 -85.7956
 -85.7956
 -85.7068
 -85.7072
 -85.7076
 -85.7056
 -85.7434
 -85.7432
 -85.7432
 -85.7435
 -85.7432
 -85.7435
 -85.7432
 -85.7422
 -85.7571
 -85.7577
 -85.7563
 -85.7585
 -85.7629
 -85.7617
 -85.7627
 -85.7619
 -85.7556
 -85.7547
 -85.7542
 -85.7559
 -85.8017
 -85.8011
 -85.8027
 -85.8008
 -85.7503
 -85.7494
 -85.7496
 -85.7514
 -85.7814
 -85.7816
 -85.7822
 -85.7808
 -85.7689
 -85.7916
 -85.7901
 -85.7906
 -85.7905
 -85.7787
 -85.7797
 -85.7807
 -85.7801
 -85.7395
 -85.7407
 -85.7411
 -85.7402
 -85.7587
 -85.758
 -85.7591
 -85.7602
 -85.753
 -85.7514
 -85.7526
 -85.753
 -85.7939
 -85.7928
 -85.7928
 -85.7929
 -85.7645
 -85.762
 -85.7637
 -85.7631
 -85.7955
 -85.7958
 -85.7943
 -85.7942
 -85.7851
 -85.786
 -85.7846
 -85.7864
 -85.7403
 -85.7411
 -85.7405
 -85.7422
 -85.7497
 -85.748
 -85.751
 -85.7498
 -85.7839
 -85.7848
 -85.7848
 -85.7839
 -85.7671
 -85.7651
 -85.7668
 -85.7439
 -85.7429
 -85.7434
 -85.7446
 -85.782
 -85.7797
 -85.7811
 -85.7798
 -85.7533
 -85.7515
 -85.7515
 -85.7528
 -85.7676
 -85.7651
 -85.7663
 -85.7676
 -85.7979
 -85.7978
 -85.7963
 -85.7977
 -85.7567
 -85.756
 -85.7552
 -85.7565
 -85.7918
 -85.7904
 -85.7917
 -85.7921
 -85.7706
 -85.7698
 -85.7708
 -85.769
 -85.7882
 -85.7875
 -85.7864
 -85.7872
 -85.7968
 -85.7968
 -85.798
 -85.7974
 -85.7576
 -85.7574
 -85.7585
 -85.7585
 -85.7066
 -85.7093
 -85.7087
 -85.7102
 -85.8023
 -85.8016
 -85.8017
 -85.8014
 -85.7809
 -85.7803
 -85.7794
 -85.7801
 -85.7463
 -85.7463
 -85.749
 -85.7468
 -85.7621
 -85.763
 -85.7635
 -85.7619
 -85.7287
 -85.7293
 -85.7293
 -85.7277
 -85.7958
 -85.7964
 -85.7979
 -85.7965
 -85.745
 -85.7443
 -85.7447
 -85.7449
 -85.7745
 -85.7758
 -85.7738
 -85.7749
 -85.7486
 -85.7456
 -85.7478
 -85.7481
 -85.804
 -85.8038
 -85.8039
 -85.8027
 -85.8035
 -85.8034
 -85.8027
 -85.8022
 -85.7851
 -85.7837
 -85.7833
 -85.7853
 -85.7759
 -85.7765
 -85.7759
 -85.7748
 -85.7764
 -85.7442
 -85.7445
 -85.7424
 -85.7439
 -85.7479
 -85.7472
 -85.7467
 -85.7485
 -85.7822
 -85.7836
 -85.7837
 -85.7836
 -85.7466
 -85.7477
 -85.7477
 -85.7466
 -85.7515
 -85.7511
 -85.7509
 -85.7525
 -85.7843
 -85.7849
 -85.7845
 -85.7833
 -85.7587
 -85.7605
 -85.7587
 -85.7605
 -85.7833
 -85.7834
 -85.7837
 -85.7847
 -85.7529
 -85.7527
 -85.7513
 -85.7528
 -85.7574
 -85.7588
 -85.7588
 -85.759
 -85.7652
 -85.7665
 -85.7645
 -85.7663
 -85.7756
 -85.7772
 -85.7761
 -85.7777
 -85.7897
 -85.789
 -85.7909
 -85.7909
 -85.7732
 -85.7728
 -85.7719
 -85.7721
 -85.7734
 -85.7739
 -85.7746
 -85.7741
 -85.7401
 -85.7401
 -85.7409
 -85.7414
 -85.7812
 -85.7816
 -85.782
 -85.7817
 -85.7694
 -85.7698
 -85.7704
 -85.7693
 -85.7722
 -85.7722
 -85.7711
 -85.7721
 -85.76
 -85.7604
 -85.7586
 -85.7597
 -85.7439
 -85.7437
 -85.7446
 -85.7426
 -85.7878
 -85.7878
 -85.7887
 -85.7886
 -85.7446
 -85.7433
 -85.7438
 -85.7455
 -85.8023
 -85.8022
 -85.8033
 -85.8028
 -85.7924
 -85.7914
 -85.7931
 -85.7926
 -85.7933
 -85.7933
 -85.7933
 -85.7929
 -85.7924
 -85.7922
 -85.7919
 -85.7932
 -85.7851
 -85.7857
 -85.7843
 -85.7858
 -85.7315
 -85.7305
 -85.7284
 -85.773
 -85.771
 -85.7728
 -85.7722
 -85.7908
 -85.7903
 -85.7899
 -85.7909
 -85.7593
 -85.7576
 -85.7586
 -85.7591
 -85.7531
 -85.7534
 -85.7526
 -85.7537
 -85.7861
 -85.7863
 -85.7876
 -85.7849
 -85.7646
 -85.7641
 -85.765
 -85.7661
 -85.7546
 -85.7547
 -85.7543
 -85.7539
 -85.8009
 -85.8021
 -85.7795
 -85.7791
 -85.7779
 -85.7778
 -85.7658
 -85.7656
 -85.7646
 -85.7754
 -85.7757
 -85.7753
 -85.7742
 -85.7344
 -85.734
 -85.7359
 -85.7358
 -85.7919
 -85.793
 -85.7928
 -85.7916
 -85.7751
 -85.7747
 -85.7739
 -85.774
 -85.7591
 -85.7576
 -85.7583
 -85.7596
 -85.7716
 -85.7699
 -85.7705
 -85.7711
 -85.7459
 -85.7454
 -85.7461
 -85.7458
 -85.7413
 -85.7437
 -85.742
 -85.7425
 -85.764
 -85.7653
 -85.7657
 -85.7648
 -85.7452
 -85.7449
 -85.745
 -85.7465
 -85.766
 -85.7651
 -85.7655
 -85.7648
 -85.7935
 -85.7933
 -85.792
 -85.7917
 -85.7475
 -85.7482
 -85.7488
 -85.7481
 -85.7198
 -85.7216
 -85.7199
 -85.7211
 -85.7775
 -85.7749
 -85.7767
 -85.7769
 -85.7623
 -85.7634
 -85.762
 -85.7634
 -85.7458
 -85.7455
 -85.7469
 -85.7465
 -85.7665
 -85.7654
 -85.767
 -85.767
 -85.7989
 -85.7984
 -85.7991
 -85.7989
 -85.7517
 -85.7517
 -85.7509
 -85.7517
 -85.7785
 -85.7772
 -85.7771
 -85.7769
 -85.7616
 -85.7632
 -85.762
 -85.7643
 -85.7847
 -85.7855
 -85.7852
 -85.7864
 -85.7937
 -85.7934
 -85.7942
 -85.7931
 -85.7467
 -85.7479
 -85.7471
 -85.7494
 -85.7562
 -85.7573
 -85.757
 -85.7568
 -85.7753
 -85.7751
 -85.7732
 -85.7743
 -85.7452
 -85.7456
 -85.7455
 -85.746
 -85.708
 -85.7066
 -85.7068
 -85.7077
 -85.7712
 -85.7698
 -85.7699
 -85.7695
 -85.7042
 -85.7039
 -85.7044
 -85.7057
 -85.7075
 -85.7096
 -85.7093
 -85.7082
 -85.7349
 -85.7361
 -85.7357
 -85.7343
 -85.781
 -85.7799
 -85.7791
 -85.7784
 -85.7805
 -85.7814
 -85.7816
 -85.7824
 -85.7826
 -85.7816
 -85.7824
 -85.7809
 -85.7781
 -85.7765
 -85.7769
 -85.7784
 -85.7283
 -85.7269
 -85.7281
 -85.7277
 -85.7481
 -85.7475
 -85.749
 -85.7484
 -85.746
 -85.7444
 -85.745
 -85.7446
 -85.7591
 -85.7608
 -85.7592
 -85.761
 -85.7729
 -85.772
 -85.773
 -85.7722
 -85.7849
 -85.7845
 -85.7839
 -85.785
 -85.7498
 -85.7517
 -85.7523
 -85.7505
 -85.7812
 -85.7675
 -85.7686
 -85.7687
 -85.768
 -85.8032
 -85.8035
 -85.8045
 -85.8039
 -85.7641
 -85.7645
 -85.7654
 -85.7643
 -85.7962
 -85.7976
 -85.7965
 -85.7473
 -85.748
 -85.7486
 -85.747
 -85.713
 -85.7146
 -85.7139
 -85.7148
 -85.7673
 -85.7673
 -85.7693
 -85.7664
 -85.7598
 -85.7576
 -85.7579
 -85.7578
 -85.7454
 -85.7464
 -85.7474
 -85.7479
 -85.7475
 -85.7481
 -85.7468
 -85.7482
 -85.733
 -85.7312
 -85.7324
 -85.7323
 -85.7755
 -85.7752
 -85.776
 -85.7781
 -85.7675
 -85.7693
 -85.7672
 -85.7685
 -85.7558
 -85.7544
 -85.756
 -85.7552
 -85.7643
 -85.7633
 -85.7661
 -85.7862
 -85.7855
 -85.7853
 -85.7503
 -85.7505
 -85.7484
 -85.7481
 -85.7364
 -85.7359
 -85.7359
 -85.7363
 -85.7531
 -85.7542
 -85.754
 -85.7528
 -85.7362
 -85.7345
 -85.7367
 -85.734
 -85.7891
 -85.7907
 -85.7895
 -85.79
 -85.7849
 -85.7855
 -85.7859
 -85.7868
 -85.7455
 -85.745
 -85.7452
 -85.745
 -85.7302
 -85.7278
 -85.7296
 -85.7301
 -85.7714
 -85.7694
 -85.7712
 -85.7704
 -85.8003
 -85.799
 -85.8005
 -85.7993
 -85.7353
 -85.7351
 -85.7343
 -85.7352
 -85.7803
 -85.779
 -85.7787
 -85.7806
 -85.7192
 -85.7181
 -85.7192
 -85.7184
 -85.7847
 -85.7853
 -85.7844
 -85.7864
 -85.7602
 -85.7589
 -85.761
 -85.7584
 -85.7893
 -85.7894
 -85.7904
 -85.7905
 -85.7469
 -85.7473
 -85.7476
 -85.7488
 -85.7573
 -85.756
 -85.7561
 -85.7561
 -85.75
 -85.7494
 -85.7512
 -85.751
 -85.7532
 -85.7525
 -85.7544
 -85.7517
 -85.7713
 -85.7724
 -85.7721
 -85.7707
 -85.7636
 -85.7624
 -85.7639
 -85.7639
 -85.7906
 -85.7895
 -85.7885
 -85.7888
 -85.802
 -85.8028
 -85.8011
 -85.8012
 -85.7614
 -85.7612
 -85.76
 -85.761
 -85.7931
 -85.7925
 -85.7923
 -85.7938
 -85.7831
 -85.7849
 -85.7858
 -85.7845
 -85.7261
 -85.7253
 -85.7236
 -85.726
 -85.7429
 -85.7457
 -85.745
 -85.7442
 -85.7598
 -85.7588
 -85.7584
 -85.7589
 -85.7333
 -85.7322
 -85.7319
 -85.7309
 -85.7726
 -85.7742
 -85.774
 -85.7734
 -85.7883
 -85.7907
 -85.7894
 -85.7895
 -85.7344
 -85.7369
 -85.7345
 -85.7344
 -85.7648
 -85.7661
 -85.7652
 -85.7654
 -85.754
 -85.7539
 -85.7539
 -85.7531
 -85.7083
 -85.7097
 -85.7097
 -85.7083
 -85.7584
 -85.7582
 -85.7579
 -85.7595
 -85.7683
 -85.7694
 -85.7692
 -85.7695
 -85.7841
 -85.7856
 -85.7846
 -85.7859
 -85.7527
 -85.7531
 -85.7536
 -85.7682
 -85.7679
 -85.7673
 -85.768
 -85.7561
 -85.7561
 -85.7581
 -85.7567
 -85.7808
 -85.7794
 -85.7804
 -85.7802
 -85.7803
 -85.7819
 -85.7817
 -85.7812
 -85.7948
 -85.7937
 -85.7944
 -85.7932
 -85.7487
 -85.7489
 -85.75
 -85.7486
 -85.7992
 -85.7997
 -85.8002
 -85.7995
 -85.7514
 -85.7527
 -85.7516
 -85.7509
 -85.7673
 -85.7691
 -85.7689
 -85.77
 -85.7703
 -85.7688
 -85.769
 -85.7683
 -85.706
 -85.7045
 -85.7058
 -85.7057
 -85.7549
 -85.7539
 -85.755
 -85.7552
 -85.7661
 -85.7659
 -85.7673
 -85.769
 -85.7651
 -85.7656
 -85.7657
 -85.764
 -85.8026
 -85.8026
 -85.8015
 -85.8024
 -85.7512
 -85.7527
 -85.7535
 -85.7517
 -85.7538
 -85.7528
 -85.7543
 -85.7525
 -85.7842
 -85.7854
 -85.7843
 -85.7852
 -85.7468
 -85.7465
 -85.7455
 -85.7453
 -85.7461
 -85.7457
 -85.7467
 -85.7456
 -85.7792
 -85.7772
 -85.779
 -85.7781
 -85.781
 -85.7809
 -85.7797
 -85.7809
 -85.7712
 -85.7712
 -85.7732
 -85.7727
 -85.7526
 -85.7519
 -85.7764
 -85.7752
 -85.7772
 -85.7756
 -85.7534
 -85.7543
 -85.7535
 -85.7538
 -85.762
 -85.7637
 -85.7642
 -85.7634
 -85.7965
 -85.7958
 -85.7952
 -85.7968
 -85.7623
 -85.7628
 -85.7636
 -85.7639
 -85.7866
 -85.7876
 -85.7882
 -85.7861
 -85.7492
 -85.752
 -85.751
 -85.7518
 -85.7595
 -85.7583
 -85.7579
 -85.7587
 -85.7659
 -85.7684
 -85.767
 -85.7676
 -85.7487
 -85.7475
 -85.7469
 -85.7479
 -85.7206
 -85.7209
 -85.7202
 -85.7191
 -85.8004
 -85.8003
 -85.8
 -85.8004
 -85.7356
 -85.7353
 -85.736
 -85.735
 -85.7735
 -85.7742
 -85.7726
 -85.7727
 -85.7203
 -85.7203
 -85.7216
 -85.7198
 -85.7758
 -85.7771
 -85.776
 -85.7759
 -85.7518
 -85.7515
 -85.751
 -85.7511
 -85.7518
 -85.7521
 -85.7507
 -85.7515
 -85.7702
 -85.7709
 -85.769
 -85.7702
 -85.7909
 -85.7893
 -85.7905
 -85.7891
 -85.7585
 -85.7606
 -85.7601
 -85.7604
 -85.7452
 -85.7447
 -85.7453
 -85.7458
 -85.7901
 -85.7919
 -85.791
 -85.7923
 -85.7504
 -85.7489
 -85.7511
 -85.7512
 -85.7585
 -85.7602
 -85.7597
 -85.7607
 -85.7835
 -85.7859
 -85.7855
 -85.7845
 -85.7693
 -85.7708
 -85.7711
 -85.7711
 -85.7639
 -85.763
 -85.7641
 -85.7647
 -85.7963
 -85.7972
 -85.7977
 -85.798
 -85.7922
 -85.7926
 -85.7926
 -85.792
 -85.7736
 -85.7737
 -85.7718
 -85.7728
 -85.7639
 -85.7648
 -85.7634
 -85.7665
 -85.7551
 -85.7557
 -85.7558
 -85.758
 -85.7436
 -85.7435
 -85.7424
 -85.7862
 -85.7871
 -85.7866
 -85.7879
 -85.7187
 -85.7175
 -85.7162
 -85.7163
 -85.7805
 -85.7786
 -85.7796
 -85.7794
 -85.7495
 -85.7478
 -85.7487
 -85.7488
 -85.7467
 -85.7456
 -85.746
 -85.7458
 -85.7925
 -85.7912
 -85.7919
 -85.7937
 -85.7705
 -85.7694
 -85.771
 -85.7698
 -85.7643
 -85.7638
 -85.7532
 -85.7616
 -85.7632
 -85.7613
 -85.7624
 -85.7207
 -85.722
 -85.7787
 -85.7794
 -85.7801
 -85.7397
 -85.7406
 -85.7384
 -85.7397
 -85.7791
 -85.7775
 -85.7779
 -85.778
 -85.7584
 -85.76
 -85.7596
 -85.7595
 -85.7527
 -85.7548
 -85.7535
 -85.7536
 -85.7962
 -85.7963
 -85.7978
 -85.7969
 -85.7402
 -85.7416
 -85.74
 -85.7417
 -85.7777
 -85.7779
 -85.7781
 -85.779
 -85.7983
 -85.7986
 -85.7972
 -85.7974
 -85.769
 -85.7675
 -85.7691
 -85.7679
 -85.7776
 -85.7756
 -85.7765
 -85.7763
 -85.7661
 -85.7676
 -85.7665
 -85.7642
 -85.8038
 -85.8021
 -85.8033
 -85.8018
 -85.8025
 -85.8025
 -85.802
 -85.8013
 -85.8015
 -85.801
 -85.8008
 -85.8015
 -85.7622
 -85.7607
 -85.7621
 -85.7619
 -85.7736
 -85.772
 -85.7726
 -85.7735
 -85.7632
 -85.7629
 -85.7618
 -85.7627
 -85.7606
 -85.7601
 -85.7622
 -85.7601
 -85.781
 -85.7816
 -85.7819
 -85.7804
 -85.7906
 -85.7923
 -85.7917
 -85.7924
 -85.7899
 -85.7904
 -85.789
 -85.7908
 -85.7684
 -85.7693
 -85.7681
 -85.769
 -85.7652
 -85.765
 -85.7647
 -85.764
 -85.7513
 -85.7504
 -85.7509
 -85.7525
 -85.7845
 -85.7858
 -85.7857
 -85.7842
 -85.7335
 -85.7335
 -85.732
 -85.7345
 -85.7878
 -85.7887
 -85.7876
 -85.7872
 -85.7721
 -85.7743
 -85.7719
 -85.7738
 -85.7707
 -85.7716
 -85.771
 -85.7701
 -85.7408
 -85.7406
 -85.7397
 -85.7383
 -85.701
 -85.7021
 -85.7007
 -85.7009
 -85.7563
 -85.7577
 -85.7563
 -85.7567
 -85.7877
 -85.7859
 -85.7867
 -85.7876
 -85.7468
 -85.7457
 -85.7465
 -85.7474
 -85.7732
 -85.7739
 -85.7723
 -85.7742
 -85.7755
 -85.7767
 -85.7781
 -85.7775
 -85.784
 -85.7847
 -85.7828
 -85.7835
 -85.7305
 -85.7292
 -85.7294
 -85.7305
 -85.7319
 -85.732
 -85.7313
 -85.7312
 -85.7874
 -85.7895
 -85.7886
 -85.7887
 -85.7815
 -85.7794
 -85.7794
 -85.7808
 -85.7558
 -85.756
 -85.7551
 -85.7553
 -85.7667
 -85.766
 -85.7674
 -85.7682
 -85.7718
 -85.7725
 -85.772
 -85.7716
 -85.7546
 -85.7538
 -85.7559
 -85.754
 -85.7779
 -85.7771
 -85.7772
 -85.7761
 -85.8073
 -85.8063
 -85.807
 -85.8071
 -85.7745
 -85.7761
 -85.776
 -85.7771
 -85.767
 -85.7676
 -85.7665
 -85.7686
 -85.767
 -85.7668
 -85.7655
 -85.7671
 -85.772
 -85.7729
 -85.7721
 -85.7708
 -85.7999
 -85.8002
 -85.7992
 -85.7999
 -85.7908
 -85.7896
 -85.7904
 -85.7771
 -85.777
 -85.7781
 -85.7769
 -85.7452
 -85.7451
 -85.7463
 -85.745
 -85.7602
 -85.7604
 -85.7592
 -85.7608
 -85.79
 -85.7882
 -85.7881
 -85.7882
 -85.7514
 -85.7518
 -85.7522
 -85.7528
 -85.7579
 -85.7567
 -85.7565
 -85.7582
 -85.7599
 -85.7592
 -85.7573
 -85.7588
 -85.7804
 -85.7794
 -85.7791
 -85.779
 -85.7722
 -85.7708
 -85.7724
 -85.7696
 -85.7772
 -85.7745
 -85.7755
 -85.7758
 -85.7479
 -85.7484
 -85.7488
 -85.7481
 -85.7599
 -85.761
 -85.7614
 -85.76
 -85.7792
 -85.7781
 -85.7794
 -85.7803
 -85.7568
 -85.7575
 -85.7584
 -85.7562
 -85.7744
 -85.7757
 -85.7758
 -85.7748
 -85.7472
 -85.7468
 -85.7475
 -85.7466
 -85.7983
 -85.7986
 -85.7974
 -85.7983
 -85.7505
 -85.7494
 -85.7509
 -85.7515
 -85.7482
 -85.7456
 -85.7471
 -85.7471
 -85.7828
 -85.7828
 -85.7838
 -85.7842
 -85.7509
 -85.7512
 -85.7515
 -85.7514
 -85.7761
 -85.7757
 -85.7763
 -85.7748
 -85.7393
 -85.7396
 -85.7376
 -85.7381
 -85.7707
 -85.7702
 -85.7706
 -85.7718
 -85.7949
 -85.7967
 -85.7951
 -85.7961
 -85.7715
 -85.7694
 -85.7693
 -85.7707
 -85.784
 -85.7847
 -85.784
 -85.784
 -85.7754
 -85.7747
 -85.7751
 -85.7761
 -85.7744
 -85.7751
 -85.7753
 -85.7766
 -85.7998
 -85.7999
 -85.8004
 -85.7985
 -85.7478
 -85.7471
 -85.7463
 -85.7462
 -85.7489
 -85.7483
 -85.7469
 -85.7482
 -85.7923
 -85.7921
 -85.7914
 -85.7932
 -85.7959
 -85.7966
 -85.7957
 -85.7542
 -85.7537
 -85.7536
 -85.7546
 -85.7777
 -85.7793
 -85.7776
 -85.7775
 -85.7728
 -85.7734
 -85.7717
 -85.7736
 -85.747
 -85.7483
 -85.7458
 -85.747
 -85.7844
 -85.7854
 -85.785
 -85.785
 -85.7657
 -85.7639
 -85.7642
 -85.7656
 -85.7706
 -85.769
 -85.7692
 -85.7689
 -85.7857
 -85.7868
 -85.7868
 -85.7865
 -85.7435
 -85.7431
 -85.7437
 -85.7443
 -85.754
 -85.7522
 -85.7528
 -85.7525
 -85.8013
 -85.8
 -85.8011
 -85.8007
 -85.7483
 -85.7481
 -85.7485
 -85.7503
 -85.7444
 -85.7438
 -85.7441
 -85.7442
 -85.7666
 -85.7671
 -85.7664
 -85.7684
 -85.7217
 -85.7223
 -85.721
 -85.7234
 -85.7694
 -85.7697
 -85.7689
 -85.7696
 -85.7871
 -85.7866
 -85.7862
 -85.7858
 -85.7913
 -85.7904
 -85.7909
 -85.7404
 -85.7405
 -85.7413
 -85.7406
 -85.7511
 -85.7526
 -85.7506
 -85.7521
 -85.7474
 -85.7469
 -85.7457
 -85.7457
 -85.7534
 -85.7521
 -85.753
 -85.7527
 -85.802
 -85.8027
 -85.8031
 -85.8027
 -85.7425
 -85.7426
 -85.742
 -85.741
 -85.7505
 -85.7494
 -85.7504
 -85.7522
 -85.7907
 -85.7917
 -85.7908
 -85.7904
 -85.7584
 -85.7581
 -85.7591
 -85.7521
 -85.7507
 -85.7521
 -85.7715
 -85.7709
 -85.7695
 -85.7243
 -85.7266
 -85.7268
 -85.7251
 -85.7701
 -85.7712
 -85.7706
 -85.7717
 -85.769
 -85.77
 -85.7679
 -85.7681
 -85.7924
 -85.7933
 -85.792
 -85.7919
 -85.7963
 -85.7961
 -85.798
 -85.7961
 -85.7459
 -85.7443
 -85.7442
 -85.7471
 -85.7728
 -85.7743
 -85.7745
 -85.7737
 -85.7722
 -85.7735
 -85.7741
 -85.7737
 -85.7645
 -85.7665
 -85.7656
 -85.7669
 -85.7564
 -85.757
 -85.7573
 -85.7551
 -85.773
 -85.7713
 -85.7726
 -85.773
 -85.7481
 -85.7485
 -85.7479
 -85.7489
 -85.7951
 -85.7946
 -85.7952
 -85.7954
 -85.7538
 -85.7533
 -85.7541
 -85.7551
 -85.7911
 -85.7898
 -85.7906
 -85.7904
 -85.7979
 -85.7973
 -85.7962
 -85.7975
 -85.7979
 -85.7976
 -85.7974
 -85.7971
 -85.7507
 -85.7498
 -85.7829
 -85.7825
 -85.7816
 -85.7824
 -85.7475
 -85.7495
 -85.7486
 -85.7479
 -85.7861
 -85.7883
 -85.7877
 -85.7881
 -85.7906
 -85.7899
 -85.7914
 -85.7899
 -85.7544
 -85.7557
 -85.7558
 -85.755
 -85.7727
 -85.7728
 -85.7739
 -85.7736
 -85.7532
 -85.7532
 -85.7545
 -85.7533
 -85.7613
 -85.7612
 -85.7615
 -85.763
 -85.7104
 -85.713
 -85.7098
 -85.7119
 -85.7941
 -85.7934
 -85.7952
 -85.794
 -85.754
 -85.7528
 -85.7545
 -85.7556
 -85.7404
 -85.7392
 -85.7393
 -85.7408
 -85.7636
 -85.7627
 -85.7644
 -85.7645
 -85.74
 -85.7377
 -85.737
 -85.74
 -85.7629
 -85.7614
 -85.7605
 -85.7623
 -85.7822
 -85.7818
 -85.7833
 -85.7811
 -85.7656
 -85.7645
 -85.7645
 -85.7651
 -85.7927
 -85.7945
 -85.7929
 -85.7637
 -85.7652
 -85.7635
 -85.7651
 -85.7103
 -85.7094
 -85.7095
 -85.709
 -85.8029
 -85.8031
 -85.8035
 -85.8029
 -85.7721
 -85.7716
 -85.7725
 -85.7713
 -85.7868
 -85.786
 -85.7846
 -85.7863
 -85.7456
 -85.7469
 -85.7435
 -85.745
 -85.756
 -85.7573
 -85.755
 -85.7566
 -85.7563
 -85.7586
 -85.7572
 -85.7585
 -85.7969
 -85.7962
 -85.7973
 -85.798
 -85.7585
 -85.7574
 -85.7564
 -85.757
 -85.8016
 -85.8012
 -85.8019
 -85.8007
 -85.7809
 -85.7792
 -85.7793
 -85.7811
 -85.7483
 -85.7487
 -85.7491
 -85.7483
 -85.7207
 -85.7212
 -85.7227
 -85.7202
 -85.7616
 -85.7594
 -85.7607
 -85.7589
 -85.7664
 -85.7666
 -85.7678
 -85.7663
 -85.783
 -85.7831
 -85.7823
 -85.7812
 -85.7124
 -85.7104
 -85.713
 -85.7121
 -85.7621
 -85.761
 -85.7629
 -85.7623
 -85.8003
 -85.7995
 -85.7992
 -85.7994
 -85.7893
 -85.7904
 -85.79
 -85.7895
 -85.7888
 -85.789
 -85.79
 -85.7885
 -85.7872
 -85.7861
 -85.7857
 -85.7863
 -85.7892
 -85.7911
 -85.7901
 -85.7899
 -85.7762
 -85.7766
 -85.7763
 -85.7764
 -85.7499
 -85.7526
 -85.7541
 -85.7542
 -85.7535
 -85.7802
 -85.7787
 -85.7792
 -85.7789
 -85.7798
 -85.7802
 -85.7782
 -85.7786
 -85.7363
 -85.7369
 -85.7369
 -85.7363
 -85.7936
 -85.7935
 -85.7929
 -85.7936
 -85.7862
 -85.7873
 -85.7889
 -85.7879
 -85.7482
 -85.7501
 -85.7498
 -85.7501
 -85.7502
 -85.7497
 -85.7525
 -85.7534
 -85.753
 -85.7542
 -85.7488
 -85.7471
 -85.7448
 -85.746
 -85.7795
 -85.781
 -85.7806
 -85.7795
 -85.8014
 -85.8015
 -85.8012
 -85.8017
 -85.7675
 -85.7666
 -85.7675
 -85.7659
 -85.7968
 -85.7949
 -85.794
 -85.7941
 -85.7626
 -85.7625
 -85.7617
 -85.7632
 -85.779
 -85.778
 -85.7771
 -85.7772
 -85.7466
 -85.7462
 -85.746
 -85.7444
 -85.7733
 -85.7748
 -85.7726
 -85.7737
 -85.7756
 -85.7775
 -85.7783
 -85.776
 -85.7504
 -85.7497
 -85.7486
 -85.7492
 -85.7581
 -85.7572
 -85.7599
 -85.7587
 -85.7632
 -85.763
 -85.7617
 -85.7608
 -85.7732
 -85.7741
 -85.7735
 -85.774
 -85.7352
 -85.7356
 -85.7362
 -85.7377
 -85.7765
 -85.775
 -85.776
 -85.7769
 -85.7583
 -85.7565
 -85.7585
 -85.7596
 -85.7824
 -85.782
 -85.7824
 -85.7812
 -85.7919
 -85.7907
 -85.7917
 -85.791
 -85.7985
 -85.7979
 -85.7977
 -85.7981
 -85.7962
 -85.7969
 -85.7951
 -85.8026
 -85.8027
 -85.8034
 -85.8036
 -85.7886
 -85.7874
 -85.786
 -85.7875
 -85.766
 -85.7656
 -85.7668
 -85.7665
 -85.797
 -85.7962
 -85.7954
 -85.7969
 -85.7701
 -85.7704
 -85.7694
 -85.7692
 -85.7737
 -85.7745
 -85.774
 -85.7971
 -85.7979
 -85.7974
 -85.7972
 -85.7945
 -85.7935
 -85.7939
 -85.7715
 -85.7709
 -85.7723
 -85.7727
 -85.7575
 -85.7585
 -85.7574
 -85.7596
 -85.7811
 -85.7801
 -85.7797
 -85.7794
 -85.7975
 -85.7983
 -85.7979
 -85.7973
 -85.7512
 -85.7509
 -85.7518
 -85.7502
 -85.7656
 -85.7653
 -85.764
 -85.7639
 -85.7676
 -85.7696
 -85.7673
 -85.7677
 -85.7824
 -85.781
 -85.782
 -85.7823
 -85.7518
 -85.7507
 -85.7529
 -85.751
 -85.746
 -85.7448
 -85.7462
 -85.7456
 -85.7677
 -85.7678
 -85.7675
 -85.7691
 -85.8007
 -85.8
 -85.7999
 -85.8002
 -85.7547
 -85.753
 -85.7549
 -85.754
 -85.7472
 -85.7485
 -85.7468
 -85.7484
 -85.7764
 -85.7744
 -85.7764
 -85.7762
 -85.753
 -85.7535
 -85.7526
 -85.7477
 -85.7487
 -85.7484
 -85.7741
 -85.7734
 -85.7754
 -85.7738
 -85.7482
 -85.7476
 -85.7467
 -85.7482
 -85.7489
 -85.7473
 -85.7485
 -85.7485
 -85.7767
 -85.7772
 -85.7763
 -85.7483
 -85.748
 -85.7912
 -85.7914
 -85.7934
 -85.7936
 -85.7809
 -85.783
 -85.7831
 -85.7822
 -85.7351
 -85.7367
 -85.7339
 -85.737
 -85.7245
 -85.7247
 -85.7232
 -85.7248
 -85.7526
 -85.7499
 -85.7516
 -85.7517
 -85.7955
 -85.7954
 -85.796
 -85.7955
 -85.779
 -85.7779
 -85.7772
 -85.7779
 -85.7435
 -85.7433
 -85.7432
 -85.743
 -85.7535
 -85.7538
 -85.7544
 -85.7558
 -85.7543
 -85.7545
 -85.7541
 -85.7506
 -85.7517
 -85.7518
 -85.7518
 -85.7517
 -85.7507
 -85.7521
 -85.7525
 -85.747
 -85.7456
 -85.7467
 -85.7454
 -85.7999
 -85.8006
 -85.8002
 -85.8001
 -85.7967
 -85.7978
 -85.7963
 -85.7674
 -85.7664
 -85.7676
 -85.7658
 -85.752
 -85.75
 -85.7523
 -85.7516
 -85.8031
 -85.8038
 -85.7475
 -85.7466
 -85.7468
 -85.7461
 -85.7709
 -85.7736
 -85.7719
 -85.7728
 -85.7773
 -85.7769
 -85.7482
 -85.748
 -85.7497
 -85.7482
 -85.7979
 -85.7986
 -85.7975
 -85.7993
 -85.8017
 -85.801
 -85.8012
 -85.8026
 -85.7636
 -85.7643
 -85.7635
 -85.7347
 -85.736
 -85.7352
 -85.7496
 -85.7516
 -85.7495
 -85.75
 -85.7852
 -85.7839
 -85.7861
 -85.7839
 -85.7562
 -85.7547
 -85.7548
 -85.7535
 -85.7551
 -85.7541
 -85.7556
 -85.7537
 -85.7796
 -85.7793
 -85.7801
 -85.7817
 -85.7135
 -85.7143
 -85.713
 -85.7115
 -85.7836
 -85.784
 -85.7852
 -85.7849
 -85.7848
 -85.7846
 -85.7858
 -85.7864
 -85.7457
 -85.7458
 -85.7439
 -85.7453
 -85.7944
 -85.795
 -85.7952
 -85.794
 -85.7103
 -85.7081
 -85.7086
 -85.7071
 -85.7983
 -85.7962
 -85.7963
 -85.7959
 -85.7898
 -85.7889
 -85.7536
 -85.7546
 -85.7542
 -85.7554
 -85.7443
 -85.743
 -85.7437
 -85.7448
 -85.7937
 -85.7947
 -85.7945
 -85.7941
 -85.7573
 -85.7579
 -85.7578
 -85.7568
 -85.8005
 -85.7997
 -85.8002
 -85.7525
 -85.7511
 -85.7505
 -85.7425
 -85.744
 -85.7444
 -85.7986
 -85.7991
 -85.7987
 -85.7983
 -85.7531
 -85.7523
 -85.7523
 -85.7523
 -85.7942
 -85.7944
 -85.7427
 -85.7436
 -85.7425
 -85.743
 -85.7691
 -85.7706
 -85.7707
 -85.7693
 -85.7551
 -85.7541
 -85.7605
 -85.7635
 -85.7631
 -85.7614
 -85.7537
 -85.7535
 -85.7536
 -85.752
 -85.8012
 -85.8025
 -85.8009
 -85.8014
 -85.7452
 -85.7446
 -85.7448
 -85.7899
 -85.7113
 -85.7111
 -85.7113
 -85.7104
 -85.7933
 -85.7937
 -85.7943
 -85.7921
 -85.7551
 -85.7552
 -85.7575
 -85.757
 -85.783
 -85.7823
 -85.7825
 -85.7827
 -85.7535
 -85.7524
 -85.7518
 -85.7532
 -85.7793
 -85.7363
 -85.736
 -85.7359
 -85.7365
 -85.779
 -85.779
 -85.7785
 -85.7773
 -85.7888
 -85.7895
 -85.79
 -85.7877
 -85.7888
 -85.7874
 -85.7892
 -85.7939
 -85.7951
 -85.7946
 -85.7945
 -85.7458
 -85.7463
 -85.7479
 -85.7471
 -85.7922
 -85.7922
 -85.7921
 -85.7933
 -85.7403
 -85.74
 -85.7404
 -85.7388
 -85.7908
 -85.7916
 -85.7921
 -85.7921
 -85.7667
 -85.7658
 -85.7656
 -85.7651
 -85.7824
 -85.7834
 -85.7838
 -85.7842
 -85.7714
 -85.7707
 -85.7702
 -85.7697
 -85.7983
 -85.7966
 -85.7712
 -85.7697
 -85.7698
 -85.771
 -85.7359
 -85.7354
 -85.7373
 -85.7354
 -85.7395
 -85.7389
 -85.7414
 -85.7392
 -85.7714
 -85.7727
 -85.7729
 -85.773
 -85.7847
 -85.7847
 -85.7843
 -85.7862
 -85.7867
 -85.7856
 -85.7862
 -85.7872
 -85.7969
 -85.7954
 -85.7959
 -85.7951
 -85.7871
 -85.7888
 -85.7879
 -85.787
 -85.7396
 -85.7397
 -85.7407
 -85.7387
 -85.7474
 -85.7475
 -85.7471
 -85.7495
 -85.8035
 -85.8028
 -85.8026
 -85.8026
 -85.774
 -85.7747
 -85.7744
 -85.7765
 -85.7494
 -85.7514
 -85.7494
 -85.751
 -85.7175
 -85.7171
 -85.7194
 -85.7166
 -85.7935
 -85.7942
 -85.7929
 -85.7954
 -85.7513
 -85.7514
 -85.7519
 -85.7528
 -85.7612
 -85.7627
 -85.7603
 -85.7615
 -85.7399
 -85.7393
 -85.7397
 -85.7407
 -85.7784
 -85.7776
 -85.7783
 -85.7784
 -85.7969
 -85.797
 -85.7965
 -85.7969
 -85.7754
 -85.7735
 -85.7741
 -85.7737
 -85.7635
 -85.7637
 -85.7655
 -85.7647
 -85.7371
 -85.7379
 -85.7386
 -85.7361
 -85.7965
 -85.7808
 -85.7818
 -85.7802
 -85.7816
 -85.7609
 -85.7602
 -85.7588
 -85.7593
 -85.7842
 -85.7851
 -85.7849
 -85.786
 -85.7495
 -85.7486
 -85.7488
 -85.7504
 -85.7782
 -85.779
 -85.7773
 -85.7354
 -85.7375
 -85.7358
 -85.7355
 -85.7902
 -85.7878
 -85.7894
 -85.7886
 -85.7456
 -85.7453
 -85.7463
 -85.7456
 -85.8059
 -85.8055
 -85.8058
 -85.8064
 -85.7517
 -85.7519
 -85.7521
 -85.7518
 -85.7229
 -85.7267
 -85.7264
 -85.7251
 -85.734
 -85.7338
 -85.7354
 -85.735
 -85.8034
 -85.8029
 -85.8024
 -85.8021
 -85.799
 -85.7988
 -85.7996
 -85.7997
 -85.7675
 -85.7689
 -85.7684
 -85.7689
 -85.7529
 -85.7526
 -85.7536
 -85.7716
 -85.7716
 -85.7695
 -85.7704
 -85.7806
 -85.7798
 -85.7816
 -85.7816
 -85.771
 -85.7739
 -85.7729
 -85.7727
 -85.7689
 -85.7695
 -85.7717
 -85.7705
 -85.8023
 -85.8014
 -85.8015
 -85.8011
 -85.7482
 -85.7477
 -85.7495
 -85.7482
 -85.7342
 -85.7314
 -85.7317
 -85.7843
 -85.7832
 -85.7838
 -85.7832
 -85.7932
 -85.7943
 -85.7934
 -85.7932
 -85.7504
 -85.7499
 -85.7508
 -85.7486
 -85.7488
 -85.7495
 -85.7476
 -85.7951
 -85.7944
 -85.7956
 -85.7937
 -85.7654
 -85.7651
 -85.7664
 -85.7653
 -85.749
 -85.7473
 -85.7487
 -85.7487
 -85.7609
 -85.7601
 -85.7602
 -85.7613
 -85.7904
 -85.7903
 -85.7891
 -85.7903
 -85.7497
 -85.7518
 -85.7486
 -85.7513
 -85.7624
 -85.7601
 -85.7608
 -85.7616
 -85.7552
 -85.7566
 -85.7554
 -85.7991
 -85.7989
 -85.7981
 -85.7984
 -85.7657
 -85.766
 -85.7648
 -85.7665
 -85.8035
 -85.8032
 -85.8047
 -85.7706
 -85.7713
 -85.7711
 -85.7705
 -85.7371
 -85.7385
 -85.7363
 -85.7369
 -85.7756
 -85.7759
 -85.777
 -85.7781
 -85.7682
 -85.7702
 -85.7677
 -85.7511
 -85.7516
 -85.7529
 -85.7519
 -85.7449
 -85.7453
 -85.7445
 -85.7456
 -85.7509
 -85.7516
 -85.7526
 -85.7506
 -85.7216
 -85.7218
 -85.7239
 -85.7241
 -85.7582
 -85.7578
 -85.7571
 -85.757
 -85.7553
 -85.7547
 -85.7569
 -85.7544
 -85.7956
 -85.7941
 -85.7944
 -85.7963
 -85.7429
 -85.7449
 -85.7443
 -85.7438
 -85.7796
 -85.7789
 -85.7799
 -85.7804
 -85.8
 -85.8002
 -85.7995
 -85.7989
 -85.8004
 -85.799
 -85.7997
 -85.8002
 -85.789
 -85.79
 -85.789
 -85.7896
 -85.8012
 -85.8024
 -85.8023
 -85.8003
 -85.7963
 -85.7966
 -85.7965
 -85.8037
 -85.8019
 -85.8025
 -85.8024
 -85.7399
 -85.7391
 -85.7398
 -85.7386
 -85.7606
 -85.7591
 -85.7584
 -85.7593
 -85.7556
 -85.7574
 -85.7561
 -85.7576
 -85.7582
 -85.7574
 -85.7572
 -85.7569
 -85.7979
 -85.7969
 -85.7976
 -85.798
 -85.7606
 -85.7607
 -85.7593
 -85.7587
 -85.7511
 -85.7494
 -85.7494
 -85.7506
 -85.7815
 -85.7811
 -85.7826
 -85.7807
 -85.7523
 -85.754
 -85.7523
 -85.7533
 -85.785
 -85.7839
 -85.7837
 -85.7712
 -85.7728
 -85.7728
 -85.7944
 -85.7932
 -85.7936
 -85.7938
 -85.761
 -85.7616
 -85.7605
 -85.7605
 -85.7784
 -85.7772
 -85.7775
 -85.7787
 -85.7575
 -85.7555
 -85.7565
 -85.7579
 -85.8038
 -85.8033
 -85.8002
 -85.7998
 -85.7993
 -85.8005
 -85.7379
 -85.7375
 -85.7376
 -85.7367
 -85.7791
 -85.7803
 -85.7805
 -85.7814
 -85.7508
 -85.7527
 -85.7513
 -85.7501
 -85.7045
 -85.7014
 -85.7042
 -85.7032
 -85.7523
 -85.7518
 -85.7509
 -85.7517
 -85.7843
 -85.7829
 -85.7841
 -85.7432
 -85.7429
 -85.7448
 -85.7447
 -85.7994
 -85.7983
 -85.7997
 -85.7987
 -85.7527
 -85.7533
 -85.7528
 -85.7534
 -85.7782
 -85.7795
 -85.7788
 -85.7784
 -85.7378
 -85.7386
 -85.7368
 -85.738
 -85.7165
 -85.7163
 -85.7173
 -85.7179
 -85.7497
 -85.7508
 -85.7496
 -85.7493
 -85.7591
 -85.7585
 -85.7596
 -85.7728
 -85.7706
 -85.7731
 -85.7722
 -85.7461
 -85.7461
 -85.7444
 -85.7852
 -85.7847
 -85.7855
 -85.7864
 -85.7892
 -85.7912
 -85.7894
 -85.791
 -85.783
 -85.7817
 -85.7828
 -85.783
 -85.7985
 -85.796
 -85.797
 -85.7973
 -85.788
 -85.7869
 -85.7875
 -85.7546
 -85.7557
 -85.7555
 -85.7562
 -85.7863
 -85.785
 -85.7809
 -85.7794
 -85.7789
 -85.7803
 -85.7841
 -85.7835
 -85.7837
 -85.7846
 -85.7502
 -85.751
 -85.7506
 -85.7491
 -85.7514
 -85.7525
 -85.7513
 -85.7524
 -85.7051
 -85.7063
 -85.7066
 -85.7058
 -85.7512
 -85.7523
 -85.7512
 -85.755
 -85.7544
 -85.7541
 -85.7546
 -85.7677
 -85.7677
 -85.7668
 -85.7665
 -85.7552
 -85.7568
 -85.7569
 -85.7558
 -85.7381
 -85.7391
 -85.7379
 -85.7378
 -85.7895
 -85.7879
 -85.7894
 -85.7881
 -85.7669
 -85.768
 -85.7667
 -85.7658
 -85.798
 -85.798
 -85.7976
 -85.7983
 -85.7743
 -85.7729
 -85.7742
 -85.7734
 -85.7971
 -85.7975
 -85.7972
 -85.7196
 -85.7213
 -85.7206
 -85.7209
 -85.7833
 -85.7853
 -85.7836
 -85.7838
 -85.763
 -85.7617
 -85.7633
 -85.7626
 -85.7476
 -85.7467
 -85.7569
 -85.7572
 -85.758
 -85.7576
 -85.7622
 -85.7606
 -85.7611
 -85.7951
 -85.7954
 -85.7945
 -85.7953
 -85.7955
 -85.7949
 -85.7939
 -85.7945
 -85.7479
 -85.7473
 -85.7482
 -85.7476
 -85.7656
 -85.765
 -85.7526
 -85.7541
 -85.7532
 -85.7518
 -85.7866
 -85.7858
 -85.7878
 -85.7878
 -85.7366
 -85.7365
 -85.7364
 -85.737
 -85.7496
 -85.7502
 -85.749
 -85.7489
 -85.7524
 -85.7539
 -85.7546
 -85.7538
 -85.7703
 -85.77
 -85.7702
 -85.7722
 -85.7854
 -85.7852
 -85.7843
 -85.7844
 -85.7878
 -85.7866
 -85.7856
 -85.787
 -85.7118
 -85.7115
 -85.711
 -85.7103
 -85.7437
 -85.745
 -85.7456
 -85.7731
 -85.7706
 -85.772
 -85.7748
 -85.7763
 -85.7748
 -85.7764
 -85.7972
 -85.7979
 -85.7973
 -85.7983
 -85.7654
 -85.7516
 -85.7515
 -85.7498
 -85.7504
 -85.7793
 -85.7784
 -85.7772
 -85.7779
 -85.7889
 -85.7875
 -85.7878
 -85.7892
 -85.7934
 -85.7937
 -85.748
 -85.7474
 -85.7468
 -85.7466
 -85.7684
 -85.7696
 -85.7691
 -85.7699
 -85.7441
 -85.7436
 -85.744
 -85.7445
 -85.7753
 -85.7588
 -85.7577
 -85.7603
 -85.761
 -85.7559
 -85.7569
 -85.7574
 -85.7566
 -85.7977
 -85.7962
 -85.7996
 -85.8004
 -85.8005
 -85.8
 -85.7276
 -85.7266
 -85.7271
 -85.7278
 -85.7874
 -85.7877
 -85.7861
 -85.7883
 -85.7754
 -85.7735
 -85.7741
 -85.7756
 -85.7151
 -85.7157
 -85.7157
 -85.7145
 -85.7677
 -85.7678
 -85.7685
 -85.767
 -85.7666
 -85.7649
 -85.7641
 -85.7644
 -85.7466
 -85.7449
 -85.7468
 -85.7461
 -85.803
 -85.8037
 -85.8038
 -85.8038
 -85.7648
 -85.7632
 -85.7635
 -85.7538
 -85.7554
 -85.7554
 -85.754
 -85.8007
 -85.8022
 -85.8012
 -85.8014
 -85.7539
 -85.7529
 -85.7516
 -85.7544
 -85.7626
 -85.7636
 -85.7908
 -85.7911
 -85.792
 -85.7898
 -85.7728
 -85.7729
 -85.7747
 -85.7744
 -85.7991
 -85.7983
 -85.7993
 -85.7989
 -85.7642
 -85.7665
 -85.7504
 -85.7509
 -85.7513
 -85.7512
 -85.754
 -85.7541
 -85.755
 -85.7555
 -85.7924
 -85.7924
 -85.7909
 -85.7914
 -85.7888
 -85.7883
 -85.7892
 -85.7893
 -85.7866
 -85.7848
 -85.7866
 -85.7858
 -85.7553
 -85.7572
 -85.7564
 -85.7553
 -85.7279
 -85.7268
 -85.7275
 -85.7279
 -85.8008
 -85.8018
 -85.8008
 -85.8013
 -85.7459
 -85.7461
 -85.7464
 -85.7473
 -85.7716
 -85.7725
 -85.7731
 -85.7716
 -85.7574
 -85.76
 -85.7582
 -85.7591
 -85.7713
 -85.7695
 -85.7709
 -85.7781
 -85.7798
 -85.7781
 -85.7798
 -85.7677
 -85.769
 -85.7681
 -85.7671
 -85.7835
 -85.784
 -85.7851
 -85.7832
 -85.7833
 -85.783
 -85.7836
 -85.7814
 -85.7147
 -85.7175
 -85.7149
 -85.7381
 -85.7399
 -85.7405
 -85.7398
 -85.771
 -85.7699
 -85.7704
 -85.7703
 -85.7915
 -85.7925
 -85.7918
 -85.7929
 -85.7508
 -85.7489
 -85.7507
 -85.7531
 -85.7539
 -85.7539
 -85.7763
 -85.7757
 -85.7767
 -85.7767
 -85.7706
 -85.7718
 -85.7724
 -85.7726
 -85.8068
 -85.8067
 -85.8063
 -85.8069
 -85.7339
 -85.7345
 -85.7334
 -85.7312
 -85.7857
 -85.7865
 -85.7596
 -85.7615
 -85.7614
 -85.76
 -85.7823
 -85.7831
 -85.7831
 -85.7834
 -85.7742
 -85.7746
 -85.7756
 -85.7747
 -85.7619
 -85.7617
 -85.7632
 -85.7607
 -85.7808
 -85.7821
 -85.7815
 -85.7819
 -85.748
 -85.7485
 -85.7486
 -85.7495
 -85.7426
 -85.7415
 -85.7428
 -85.7422
 -85.7898
 -85.7903
 -85.7916
 -85.7931
 -85.7706
 -85.7715
 -85.7727
 -85.7241
 -85.7235
 -85.7247
 -85.7931
 -85.794
 -85.7942
 -85.7945
 -85.7953
 -85.7949
 -85.7942
 -85.794
 -85.7678
 -85.7683
 -85.7688
 -85.7694
 -85.7974
 -85.7981
 -85.798
 -85.798
 -85.7988
 -85.8
 -85.799
 -85.8003
 -85.7618
 -85.7626
 -85.7637
 -85.7622
 -85.7878
 -85.7885
 -85.7891
 -85.7889
 -85.8062
 -85.8064
 -85.8058
 -85.8067
 -85.7876
 -85.7874
 -85.7867
 -85.7885
 -85.772
 -85.7702
 -85.771
 -85.7694
 -85.7921
 -85.7924
 -85.7915
 -85.7912
 -85.7833
 -85.7828
 -85.7839
 -85.7766
 -85.7779
 -85.7294
 -85.7299
 -85.729
 -85.7284
 -85.7758
 -85.7774
 -85.7768
 -85.7768
 -85.7304
 -85.7309
 -85.7312
 -85.7313
 -85.7304
 -85.7299
 -85.7321
 -85.7322
 -85.7732
 -85.774
 -85.774
 -85.7728
 -85.7594
 -85.7595
 -85.7582
 -85.7599
 -85.7785
 -85.7801
 -85.7796
 -85.7795
 -85.7695
 -85.7684
 -85.7405
 -85.7398
 -85.7402
 -85.7413
 -85.8008
 -85.8013
 -85.8017
 -85.8012
 -85.76
 -85.7591
 -85.7616
 -85.7604
 -85.7919
 -85.7914
 -85.7905
 -85.7914
 -85.7407
 -85.7394
 -85.7406
 -85.7399
 -85.7957
 -85.7972
 -85.7969
 -85.797
 -85.7761
 -85.7744
 -85.7758
 -85.7758
 -85.7516
 -85.7498
 -85.7486
 -85.7496
 -85.8059
 -85.8056
 -85.8056
 -85.8052
 -85.7561
 -85.7576
 -85.7563
 -85.7562
 -85.7617
 -85.7596
 -85.7611
 -85.7598
 -85.8017
 -85.8019
 -85.801
 -85.8021
 -85.7677
 -85.7655
 -85.7664
 -85.7663
 -85.7928
 -85.7937
 -85.793
 -85.7927
 -85.7915
 -85.7905
 -85.7908
 -85.763
 -85.7606
 -85.7614
 -85.7615
 -85.7915
 -85.7926
 -85.7919
 -85.7923
 -85.7469
 -85.7483
 -85.7481
 -85.7469
 -85.795
 -85.7958
 -85.7957
 -85.7952
 -85.7944
 -85.7939
 -85.7946
 -85.7941
 -85.7489
 -85.7484
 -85.751
 -85.7497
 -85.7506
 -85.7503
 -85.7516
 -85.7496
 -85.6977
 -85.6981
 -85.6969
 -85.6973
 -85.7864
 -85.7849
 -85.7851
 -85.7309
 -85.733
 -85.7334
 -85.732
 -85.7996
 -85.7985
 -85.7988
 -85.7989
 -85.7478
 -85.7926
 -85.7912
 -85.7914
 -85.7923
 -85.7927
 -85.7914
 -85.7916
 -85.7109
 -85.7093
 -85.71
 -85.7107
 -85.7076
 -85.7081
 -85.7075
 -85.707
 -85.7985
 -85.7974
 -85.7982
 -85.7991
 -85.7505
 -85.7499
 -85.7512
 -85.7496
 -85.7827
 -85.7822
 -85.7836
 -85.7572
 -85.7559
 -85.7572
 -85.7553
 -85.7632
 -85.7633
 -85.763
 -85.792
 -85.7917
 -85.7933
 -85.7756
 -85.7769
 -85.7769
 -85.7757
 -85.7579
 -85.7562
 -85.7563
 -85.7575
 -85.7495
 -85.7501
 -85.7493
 -85.75
 -85.7829
 -85.7838
 -85.784
 -85.7388
 -85.7399
 -85.7373
 -85.7371
 -85.7495
 -85.7521
 -85.75
 -85.7614
 -85.764
 -85.7633
 -85.7625
 -85.7458
 -85.7473
 -85.7474
 -85.7468
 -85.7498
 -85.7514
 -85.7518
 -85.7513
 -85.7929
 -85.7919
 -85.7921
 -85.7919
 -85.7651
 -85.7638
 -85.7645
 -85.7655
 -85.754
 -85.7541
 -85.7717
 -85.7708
 -85.7713
 -85.7698
 -85.7965
 -85.7999
 -85.8003
 -85.8001
 -85.7999
 -85.6954
 -85.6951
 -85.6949
 -85.6955
 -85.7896
 -85.791
 -85.79
 -85.8036
 -85.8033
 -85.8029
 -85.8034
 -85.7869
 -85.7851
 -85.7858
 -85.7853
 -85.7488
 -85.7493
 -85.7501
 -85.7489
 -85.7637
 -85.7626
 -85.7623
 -85.7619
 -85.8043
 -85.8042
 -85.804
 -85.8038
 -85.7864
 -85.7853
 -85.7845
 -85.7856
 -85.7379
 -85.7366
 -85.7364
 -85.7389
 -85.7616
 -85.7616
 -85.762
 -85.7595
 -85.76
 -85.7607
 -85.7615
 -85.7601
 -85.6954
 -85.6951
 -85.6951
 -85.6955
 -85.7468
 -85.7465
 -85.7462
 -85.7473
 -85.7868
 -85.7886
 -85.7871
 -85.7878
 -85.7765
 -85.7764
 -85.778
 -85.7761
 -85.7655
 -85.7664
 -85.7678
 -85.7664
 -85.7843
 -85.7858
 -85.7852
 -85.7853
 -85.7768
 -85.777
 -85.7783
 -85.7767
 -85.7848
 -85.7846
 -85.7838
 -85.7861
 -85.806
 -85.8048
 -85.8051
 -85.8062
 -85.7891
 -85.7883
 -85.788
 -85.7861
 -85.7833
 -85.7822
 -85.7816
 -85.7832
 -85.7818
 -85.7716
 -85.7715
 -85.7705
 -85.7731
 -85.8002
 -85.7999
 -85.7997
 -85.7996
 -85.7652
 -85.7641
 -85.7655
 -85.765
 -85.7757
 -85.7764
 -85.7771
 -85.7748
 -85.7692
 -85.7674
 -85.7687
 -85.77
 -85.7576
 -85.7552
 -85.7571
 -85.7556
 -85.7201
 -85.7208
 -85.7232
 -85.7202
 -85.8067
 -85.8057
 -85.7807
 -85.7798
 -85.7797
 -85.7014
 -85.7014
 -85.7015
 -85.7523
 -85.751
 -85.7517
 -85.7504
 -85.7298
 -85.7303
 -85.7276
 -85.7273
 -85.7438
 -85.743
 -85.7442
 -85.7418
 -85.8
 -85.7984
 -85.7992
 -85.7992
 -85.7723
 -85.7707
 -85.7712
 -85.7705
 -85.7822
 -85.7839
 -85.7837
 -85.785
 -85.7766
 -85.7767
 -85.7753
 -85.7747
 -85.7854
 -85.7858
 -85.7847
 -85.785
 -85.7669
 -85.7667
 -85.7923
 -85.7894
 -85.7923
 -85.7899
 -85.7855
 -85.7845
 -85.7838
 -85.7862
 -85.7517
 -85.75
 -85.7519
 -85.7503
 -85.7523
 -85.7527
 -85.7527
 -85.7529
 -85.775
 -85.7751
 -85.7746
 -85.7757
 -85.7725
 -85.7731
 -85.7742
 -85.7751
 -85.7442
 -85.7421
 -85.7418
 -85.7443
 -85.7838
 -85.783
 -85.7826
 -85.7822
 -85.8049
 -85.8044
 -85.8048
 -85.8045
 -85.7939
 -85.7932
 -85.7934
 -85.7929
 -85.8061
 -85.8064
 -85.8058
 -85.8066
 -85.7957
 -85.7968
 -85.7964
 -85.7966
 -85.7709
 -85.7729
 -85.771
 -85.7714
 -85.7834
 -85.7822
 -85.7678
 -85.7696
 -85.7673
 -85.7685
 -85.7519
 -85.7531
 -85.7532
 -85.7536
 -85.7888
 -85.7902
 -85.7902
 -85.789
 -85.7671
 -85.7665
 -85.7672
 -85.7655
 -85.762
 -85.7608
 -85.7604
 -85.7611
 -85.749
 -85.7492
 -85.75
 -85.7508
 -85.7542
 -85.7537
 -85.7531
 -85.7555
 -85.749
 -85.7499
 -85.7505
 -85.7495
 -85.7229
 -85.7234
 -85.7223
 -85.7225
 -85.7873
 -85.7878
 -85.7862
 -85.7874
 -85.7814
 -85.7819
 -85.7255
 -85.7267
 -85.7265
 -85.7244
 -85.7568
 -85.7572
 -85.7798
 -85.7789
 -85.78
 -85.794
 -85.794
 -85.7466
 -85.7465
 -85.7459
 -85.7473
 -85.7252
 -85.7264
 -85.7264
 -85.7267
 -85.743
 -85.7436
 -85.7446
 -85.7451
 -85.7564
 -85.7573
 -85.7578
 -85.7581
 -85.7772
 -85.7754
 -85.7754
 -85.7756
 -85.7815
 -85.7809
 -85.7808
 -85.7804
 -85.7558
 -85.7575
 -85.7574
 -85.7571
 -85.7759
 -85.7757
 -85.7763
 -85.7742
 -85.7699
 -85.7688
 -85.7685
 -85.7693
 -85.7725
 -85.7737
 -85.7745
 -85.7737
 -85.7735
 -85.7717
 -85.7738
 -85.7675
 -85.7665
 -85.7688
 -85.7678
 -85.7589
 -85.7596
 -85.7579
 -85.7585
 -85.7504
 -85.7517
 -85.7497
 -85.7514
 -85.7997
 -85.7995
 -85.8001
 -85.8007
 -85.7647
 -85.7646
 -85.7662
 -85.7662
 -85.7422
 -85.742
 -85.7402
 -85.7417
 -85.738
 -85.7379
 -85.7376
 -85.7371
 -85.7448
 -85.7439
 -85.744
 -85.7444
 -85.7487
 -85.7487
 -85.7504
 -85.7507
 -85.7502
 -85.7493
 -85.7489
 -85.7496
 -85.7984
 -85.7991
 -85.799
 -85.7991
 -85.7626
 -85.7625
 -85.7622
 -85.7637
 -85.7864
 -85.787
 -85.7861
 -85.7856
 -85.7503
 -85.752
 -85.7497
 -85.7513
 -85.8008
 -85.8013
 -85.8012
 -85.8021
 -85.8023
 -85.8022
 -85.803
 -85.7845
 -85.7816
 -85.7826
 -85.7828
 -85.7536
 -85.7542
 -85.7526
 -85.7537
 -85.8046
 -85.8035
 -85.8038
 -85.761
 -85.7596
 -85.7605
 -85.7584
 -85.7956
 -85.7958
 -85.7937
 -85.7941
 -85.7952
 -85.7938
 -85.7584
 -85.7572
 -85.7578
 -85.7386
 -85.7392
 -85.7373
 -85.738
 -85.7496
 -85.7484
 -85.75
 -85.7502
 -85.7699
 -85.7716
 -85.7696
 -85.801
 -85.7992
 -85.7994
 -85.785
 -85.7837
 -85.783
 -85.7839
 -85.8014
 -85.8014
 -85.7999
 -85.8025
 -85.763
 -85.7646
 -85.7654
 -85.7641
 -85.7953
 -85.7956
 -85.7962
 -85.7944
 -85.7706
 -85.771
 -85.7698
 -85.7693
 -85.7546
 -85.7532
 -85.754
 -85.8037
 -85.8029
 -85.8033
 -85.8045
 -85.7817
 -85.7763
 -85.778
 -85.7776
 -85.7767
 -85.7779
 -85.778
 -85.7769
 -85.7534
 -85.7526
 -85.7525
 -85.7524
 -85.7524
 -85.7542
 -85.7642
 -85.7625
 -85.7623
 -85.7618
 -85.7621
 -85.7639
 -85.7624
 -85.7635
 -85.7841
 -85.8049
 -85.8036
 -85.8033
 -85.8042
 -85.7147
 -85.7127
 -85.7142
 -85.7142
 -85.7576
 -85.7565
 -85.7537
 -85.7531
 -85.7538
 -85.7542
 -85.7524
 -85.7525
 -85.7507
 -85.7514
 -85.7861
 -85.7846
 -85.785
 -85.7857
 -85.7876
 -85.7884
 -85.7867
 -85.7877
 -85.7545
 -85.7531
 -85.7826
 -85.7824
 -85.7843
 -85.7832
 -85.7841
 -85.7854
 -85.7841
 -85.7743
 -85.7733
 -85.7725
 -85.7719
 -85.765
 -85.7635
 -85.7647
 -85.7636
 -85.7866
 -85.7883
 -85.7881
 -85.787
 -85.7911
 -85.7916
 -85.7924
 -85.7913
 -85.7884
 -85.7899
 -85.7887
 -85.7875
 -85.788
 -85.7877
 -85.7865
 -85.764
 -85.7645
 -85.7645
 -85.7634
 -85.7335
 -85.7334
 -85.7344
 -85.7345
 -85.7597
 -85.7593
 -85.7586
 -85.759
 -85.7908
 -85.7896
 -85.7888
 -85.7901
 -85.7821
 -85.7817
 -85.7815
 -85.783
 -85.7593
 -85.7603
 -85.7607
 -85.761
 -85.7822
 -85.7807
 -85.7816
 -85.7821
 -85.7735
 -85.774
 -85.7715
 -85.7738
 -85.7742
 -85.7757
 -85.7752
 -85.7755
 -85.7818
 -85.7825
 -85.7826
 -85.7998
 -85.7999
 -85.7994
 -85.7996
 -85.759
 -85.7605
 -85.7597
 -85.7601
 -85.7685
 -85.7702
 -85.7698
 -85.7694
 -85.7335
 -85.7323
 -85.7325
 -85.7342
 -85.7486
 -85.7497
 -85.7497
 -85.7487
 -85.751
 -85.7483
 -85.7495
 -85.7481
 -85.7485
 -85.7492
 -85.749
 -85.7496
 -85.7729
 -85.7719
 -85.7723
 -85.7433
 -85.7431
 -85.7438
 -85.7439
 -85.7457
 -85.7463
 -85.7476
 -85.7456
 -85.8036
 -85.8028
 -85.8027
 -85.8032
 -85.774
 -85.773
 -85.7727
 -85.7721
 -85.792
 -85.7922
 -85.7916
 -85.7908
 -85.7768
 -85.7775
 -85.7764
 -85.7755
 -85.7814
 -85.7826
 -85.7816
 -85.7819
 -85.7527
 -85.7513
 -85.7521
 -85.7501
 -85.7684
 -85.7713
 -85.7692
 -85.7694
 -85.7916
 -85.7923
 -85.7911
 -85.7915
 -85.7781
 -85.7776
 -85.7794
 -85.7789
 -85.7464
 -85.7458
 -85.7478
 -85.7482
 -85.7996
 -85.8
 -85.7997
 -85.8001
 -85.7598
 -85.7584
 -85.7454
 -85.7689
 -85.7697
 -85.7705
 -85.7685
 -85.7648
 -85.7659
 -85.7642
 -85.7642
 -85.7278
 -85.7275
 -85.7295
 -85.7575
 -85.7562
 -85.7558
 -85.755
 -85.777
 -85.7794
 -85.7785
 -85.7797
 -85.7702
 -85.7715
 -85.7707
 -85.7703
 -85.7972
 -85.7977
 -85.7978
 -85.7974
 -85.7498
 -85.752
 -85.7505
 -85.7518
 -85.7517
 -85.7513
 -85.7533
 -85.7295
 -85.7271
 -85.7282
 -85.7295
 -85.749
 -85.7507
 -85.7496
 -85.7758
 -85.7788
 -85.7762
 -85.7486
 -85.7485
 -85.7473
 -85.7479
 -85.7647
 -85.7663
 -85.7667
 -85.7664
 -85.6956
 -85.6956
 -85.6955
 -85.6964
 -85.7634
 -85.7627
 -85.7631
 -85.7419
 -85.7417
 -85.742
 -85.7421
 -85.7631
 -85.7623
 -85.7608
 -85.7622
 -85.7476
 -85.7488
 -85.7487
 -85.7494
 -85.7829
 -85.7834
 -85.7825
 -85.7838
 -85.7868
 -85.7858
 -85.7868
 -85.7873
 -85.8023
 -85.8023
 -85.8027
 -85.8018
 -85.7747
 -85.7728
 -85.7745
 -85.775
 -85.7468
 -85.7455
 -85.7467
 -85.7459
 -85.7535
 -85.7528
 -85.7364
 -85.7363
 -85.7371
 -85.737
 -85.7666
 -85.7672
 -85.7575
 -85.7598
 -85.7593
 -85.7518
 -85.7526
 -85.7533
 -85.7523
 -85.7993
 -85.7995
 -85.798
 -85.7982
 -85.7981
 -85.7978
 -85.7972
 -85.7978
 -85.7527
 -85.7534
 -85.7524
 -85.751
 -85.7433
 -85.7436
 -85.7772
 -85.7774
 -85.7771
 -85.7785
 -85.7513
 -85.7505
 -85.752
 -85.7518
 -85.7597
 -85.7577
 -85.7612
 -85.8063
 -85.8066
 -85.8059
 -85.7702
 -85.7721
 -85.7712
 -85.7714
 -85.7946
 -85.7959
 -85.7943
 -85.7938
 -85.7725
 -85.7739
 -85.7741
 -85.7724
 -85.7862
 -85.7874
 -85.7875
 -85.7855
 -85.7465
 -85.7476
 -85.7467
 -85.7461
 -85.7499
 -85.752
 -85.7493
 -85.7513
 -85.7732
 -85.7717
 -85.7743
 -85.7725
 -85.7582
 -85.7601
 -85.7606
 -85.758
 -85.7455
 -85.7459
 -85.7467
 -85.748
 -85.765
 -85.7658
 -85.7668
 -85.7675
 -85.7804
 -85.7807
 -85.7797
 -85.7722
 -85.7736
 -85.7727
 -85.7736
 -85.704
 -85.706
 -85.7066
 -85.7055
 -85.7436
 -85.7435
 -85.7438
 -85.7437
 -85.7574
 -85.7571
 -85.7573
 -85.7588
 -85.7243
 -85.7256
 -85.7232
 -85.7248
 -85.7943
 -85.7941
 -85.7932
 -85.8031
 -85.8025
 -85.8019
 -85.8025
 -85.7884
 -85.7906
 -85.7896
 -85.7896
 -85.7718
 -85.7803
 -85.7819
 -85.7826
 -85.7814
 -85.7686
 -85.7697
 -85.7678
 -85.7679
 -85.7422
 -85.7403
 -85.7414
 -85.7513
 -85.7519
 -85.7523
 -85.75
 -85.7052
 -85.7034
 -85.705
 -85.7025
 -85.7281
 -85.728
 -85.729
 -85.7279
 -85.7562
 -85.7562
 -85.7572
 -85.7583
 -85.8042
 -85.803
 -85.8034
 -85.8031
 -85.7097
 -85.7095
 -85.7115
 -85.7106
 -85.7846
 -85.7857
 -85.7837
 -85.7849
 -85.7723
 -85.7725
 -85.7739
 -85.7726
 -85.7528
 -85.7501
 -85.75
 -85.7664
 -85.7646
 -85.7643
 -85.7643
 -85.8032
 -85.8034
 -85.8037
 -85.7435
 -85.7462
 -85.7466
 -85.7641
 -85.7651
 -85.7667
 -85.7664
 -85.7567
 -85.7563
 -85.756
 -85.7555
 -85.7586
 -85.7583
 -85.76
 -85.7604
 -85.7416
 -85.7406
 -85.7406
 -85.7424
 -85.7665
 -85.7676
 -85.7659
 -85.7679
 -85.7996
 -85.7978
 -85.7979
 -85.797
 -85.7969
 -85.7966
 -85.7961
 -85.7974
 -85.7389
 -85.739
 -85.7394
 -85.7387
 -85.7933
 -85.7936
 -85.7934
 -85.7921
 -85.7984
 -85.7997
 -85.7992
 -85.7979
 -85.7926
 -85.7927
 -85.7911
 -85.7914
 -85.7805
 -85.7801
 -85.7813
 -85.7807
 -85.7697
 -85.7685
 -85.7703
 -85.7564
 -85.754
 -85.7548
 -85.7551
 -85.7874
 -85.7864
 -85.7853
 -85.7869
 -85.7891
 -85.7894
 -85.7902
 -85.7898
 -85.8069
 -85.8068
 -85.8059
 -85.8064
 -85.7283
 -85.7295
 -85.7291
 -85.7293
 -85.737
 -85.7363
 -85.7366
 -85.7374
 -85.7418
 -85.7417
 -85.7438
 -85.7416
 -85.7573
 -85.7553
 -85.7567
 -85.7567
 -85.7602
 -85.7604
 -85.7603
 -85.7991
 -85.7999
 -85.801
 -85.8004
 -85.7906
 -85.7901
 -85.7895
 -85.7892
 -85.7678
 -85.7667
 -85.7663
 -85.7673
 -85.7976
 -85.7984
 -85.7768
 -85.777
 -85.7769
 -85.7755
 -85.797
 -85.7976
 -85.7987
 -85.7976
 -85.7741
 -85.7759
 -85.7736
 -85.7762
 -85.7558
 -85.7571
 -85.7546
 -85.7557
 -85.7356
 -85.7342
 -85.7354
 -85.7368
 -85.7032
 -85.7048
 -85.7023
 -85.704
 -85.795
 -85.7943
 -85.7942
 -85.7952
 -85.7973
 -85.7974
 -85.7975
 -85.7983
 -85.7629
 -85.7609
 -85.7623
 -85.7613
 -85.7715
 -85.7707
 -85.7705
 -85.7717
 -85.7502
 -85.7488
 -85.7512
 -85.7778
 -85.7768
 -85.7769
 -85.7761
 -85.7505
 -85.7502
 -85.7511
 -85.7513
 -85.769
 -85.7674
 -85.7663
 -85.7672
 -85.7814
 -85.7806
 -85.7811
 -85.7816
 -85.7726
 -85.7721
 -85.7715
 -85.7932
 -85.7919
 -85.7925
 -85.7924
 -85.779
 -85.7809
 -85.7221
 -85.7244
 -85.7215
 -85.7228
 -85.7875
 -85.7867
 -85.7874
 -85.7527
 -85.7532
 -85.7533
 -85.7526
 -85.779
 -85.7791
 -85.7785
 -85.7686
 -85.7671
 -85.7689
 -85.7678
 -85.7781
 -85.7762
 -85.7789
 -85.7775
 -85.779
 -85.7807
 -85.7131
 -85.713
 -85.712
 -85.7129
 -85.7054
 -85.7037
 -85.7026
 -85.7044
 -85.7702
 -85.7684
 -85.7691
 -85.7683
 -85.7776
 -85.7766
 -85.7775
 -85.7763
 -85.7136
 -85.7135
 -85.7137
 -85.715
 -85.7524
 -85.7507
 -85.7401
 -85.7406
 -85.741
 -85.7423
 -85.7797
 -85.7793
 -85.7812
 -85.7802
 -85.7766
 -85.7768
 -85.7782
 -85.7759
 -85.7782
 -85.7767
 -85.7764
 -85.7766
 -85.757
 -85.7574
 -85.7584
 -85.757
 -85.7465
 -85.7457
 -85.7443
 -85.7466
 -85.7303
 -85.7322
 -85.732
 -85.7302
 -85.7477
 -85.7477
 -85.7477
 -85.75
 -85.7875
 -85.7865
 -85.788
 -85.7873
 -85.7703
 -85.7667
 -85.7686
 -85.7262
 -85.7275
 -85.7287
 -85.7826
 -85.7847
 -85.7837
 -85.7837
 -85.7838
 -85.7816
 -85.7826
 -85.7833
 -85.7631
 -85.7621
 -85.7615
 -85.7657
 -85.7664
 -85.7678
 -85.7663
 -85.7472
 -85.7464
 -85.7461
 -85.7461
 -85.7925
 -85.7921
 -85.7931
 -85.7927
 -85.7446
 -85.7443
 -85.7444
 -85.7449
 -85.7422
 -85.7414
 -85.7422
 -85.8024
 -85.8038
 -85.8044
 -85.8034
 -85.7918
 -85.7927
 -85.7546
 -85.7539
 -85.7554
 -85.7551
 -85.769
 -85.7708
 -85.7692
 -85.7659
 -85.7652
 -85.7655
 -85.7639
 -85.7453
 -85.7467
 -85.7459
 -85.7914
 -85.7923
 -85.7906
 -85.791
 -85.7448
 -85.7471
 -85.7455
 -85.7451
 -85.7851
 -85.7839
 -85.7831
 -85.7836
 -85.7451
 -85.7457
 -85.747
 -85.7452
 -85.7464
 -85.7458
 -85.753
 -85.7521
 -85.7525
 -85.753
 -85.7289
 -85.7281
 -85.7264
 -85.728
 -85.7879
 -85.7892
 -85.7587
 -85.7596
 -85.7599
 -85.7598
 -85.8025
 -85.8021
 -85.8023
 -85.8028
 -85.7565
 -85.7553
 -85.7571
 -85.7585
 -85.79
 -85.7914
 -85.7917
 -85.7916
 -85.7974
 -85.7987
 -85.7967
 -85.7983
 -85.7848
 -85.7832
 -85.7998
 -85.8006
 -85.8003
 -85.8
 -85.7456
 -85.7456
 -85.7451
 -85.7468
 -85.7999
 -85.8002
 -85.8003
 -85.7998
 -85.8036
 -85.8047
 -85.8043
 -85.8036
 -85.7758
 -85.7758
 -85.7773
 -85.7768
 -85.7661
 -85.7653
 -85.7672
 -85.768
 -85.7957
 -85.7942
 -85.7952
 -85.7957
 -85.7242
 -85.7262
 -85.7247
 -85.7239
 -85.7949
 -85.7965
 -85.7582
 -85.7594
 -85.7594
 -85.7611
 -85.795
 -85.7944
 -85.7933
 -85.7934
 -85.7475
 -85.7489
 -85.7487
 -85.7485
 -85.7605
 -85.758
 -85.7589
 -85.7602
 -85.7484
 -85.7479
 -85.7501
 -85.747
 -85.7462
 -85.747
 -85.7457
 -85.7438
 -85.7449
 -85.7445
 -85.7451
 -85.7771
 -85.7759
 -85.7755
 -85.7937
 -85.7937
 -85.7948
 -85.7948
 -85.7734
 -85.7725
 -85.7718
 -85.7472
 -85.7462
 -85.747
 -85.769
 -85.7711
 -85.7692
 -85.7707
 -85.7792
 -85.779
 -85.7791
 -85.7809
 -85.7643
 -85.7659
 -85.7662
 -85.7656
 -85.7634
 -85.7627
 -85.7621
 -85.76
 -85.759
 -85.7587
 -85.7608
 -85.7619
 -85.7627
 -85.7601
 -85.7942
 -85.7937
 -85.7943
 -85.7931
 -85.7826
 -85.7816
 -85.7826
 -85.7831
 -85.7665
 -85.7667
 -85.7659
 -85.7684
 -85.7439
 -85.7426
 -85.7437
 -85.7739
 -85.7729
 -85.7737
 -85.7742
 -85.7537
 -85.7516
 -85.7527
 -85.7516
 -85.7173
 -85.7181
 -85.7171
 -85.7165
 -85.761
 -85.7601
 -85.7607
 -85.7606
 -85.7956
 -85.7952
 -85.7965
 -85.7961
 -85.7594
 -85.7611
 -85.7601
 -85.7591
 -85.7451
 -85.7451
 -85.7455
 -85.7461
 -85.7464
 -85.7455
 -85.7458
 -85.7654
 -85.7657
 -85.765
 -85.7802
 -85.7589
 -85.7562
 -85.7579
 -85.7578
 -85.7977
 -85.7975
 -85.7982
 -85.7958
 -85.796
 -85.7966
 -85.7584
 -85.76
 -85.7588
 -85.7598
 -85.8032
 -85.8037
 -85.8041
 -85.804
 -85.748
 -85.7763
 -85.7747
 -85.7757
 -85.7754
 -85.7476
 -85.7481
 -85.7479
 -85.7483
 -85.797
 -85.7978
 -85.7963
 -85.7971
 -85.7812
 -85.7833
 -85.7826
 -85.7816
 -85.789
 -85.7898
 -85.788
 -85.7885
 -85.7438
 -85.7443
 -85.7448
 -85.7439
 -85.7552
 -85.7565
 -85.755
 -85.7553
 -85.7739
 -85.7729
 -85.774
 -85.7725
 -85.7561
 -85.7543
 -85.7567
 -85.7549
 -85.7802
 -85.7808
 -85.7822
 -85.7819
 -85.7486
 -85.748
 -85.7496
 -85.7495
 -85.7539
 -85.7543
 -85.7558
 -85.7551
 -85.7763
 -85.7765
 -85.7765
 -85.778
 -85.7972
 -85.7984
 -85.7977
 -85.7986
 -85.7406
 -85.7413
 -85.7424
 -85.7421
 -85.7293
 -85.7269
 -85.7293
 -85.729
 -85.7983
 -85.7994
 -85.7989
 -85.7989
 -85.7318
 -85.7303
 -85.7317
 -85.7306
 -85.7301
 -85.7319
 -85.7695
 -85.7701
 -85.7688
 -85.7681
 -85.7548
 -85.7557
 -85.7557
 -85.7543
 -85.8067
 -85.8068
 -85.8068
 -85.8064
 -85.797
 -85.7968
 -85.7982
 -85.7807
 -85.7806
 -85.7819
 -85.7802
 -85.7466
 -85.7469
 -85.7456
 -85.7474
 -85.7537
 -85.7534
 -85.753
 -85.7526
 -85.7536
 -85.7545
 -85.7812
 -85.7837
 -85.7829
 -85.7819
 -85.7786
 -85.7784
 -85.7771
 -85.7788
 -85.783
 -85.7827
 -85.7814
 -85.7829
 -85.803
 -85.8031
 -85.8015
 -85.8036
 -85.7862
 -85.786
 -85.7847
 -85.7609
 -85.7719
 -85.7714
 -85.7718
 -85.7706
 -85.773
 -85.7711
 -85.7717
 -85.7726
 -85.7928
 -85.7924
 -85.7922
 -85.7915
 -85.7863
 -85.7854
 -85.7855
 -85.7867
 -85.7777
 -85.7764
 -85.7763
 -85.7573
 -85.756
 -85.7576
 -85.7552
 -85.7714
 -85.7738
 -85.7725
 -85.7726
 -85.7603
 -85.7614
 -85.7595
 -85.7097
 -85.7095
 -85.7084
 -85.7104
 -85.7933
 -85.7954
 -85.7944
 -85.7931
 -85.7912
 -85.7934
 -85.7922
 -85.7118
 -85.7736
 -85.7738
 -85.7734
 -85.7752
 -85.7774
 -85.7776
 -85.7358
 -85.7359
 -85.7357
 -85.7365
 -85.7422
 -85.7428
 -85.7447
 -85.7424
 -85.7508
 -85.7518
 -85.7513
 -85.7515
 -85.75
 -85.7508
 -85.7513
 -85.7498
 -85.7496
 -85.7507
 -85.7606
 -85.7592
 -85.7587
 -85.7588
 -85.7624
 -85.764
 -85.807
 -85.8068
 -85.7456
 -85.7481
 -85.7455
 -85.747
 -85.766
 -85.7655
 -85.7666
 -85.7647
 -85.7394
 -85.7401
 -85.7374
 -85.738
 -85.7948
 -85.7955
 -85.7937
 -85.7944
 -85.7906
 -85.7895
 -85.7905
 -85.7894
 -85.7803
 -85.7814
 -85.7816
 -85.7808
 -85.7741
 -85.7745
 -85.7766
 -85.7759
 -85.7699
 -85.7693
 -85.7456
 -85.7849
 -85.7862
 -85.7861
 -85.7863
 -85.8016
 -85.8013
 -85.8027
 -85.8011
 -85.7919
 -85.7934
 -85.7916
 -85.7922
 -85.6957
 -85.6957
 -85.696
 -85.6964
 -85.8019
 -85.8022
 -85.8018
 -85.8019
 -85.7514
 -85.7514
 -85.75
 -85.752
 -85.7578
 -85.756
 -85.7567
 -85.7554
 -85.7834
 -85.7836
 -85.7844
 -85.7847
 -85.7841
 -85.7836
 -85.783
 -85.7834
 -85.7468
 -85.7487
 -85.7477
 -85.7483
 -85.8013
 -85.8016
 -85.8011
 -85.8013
 -85.7953
 -85.7959
 -85.7956
 -85.7963
 -85.7848
 -85.785
 -85.786
 -85.7861
 -85.7959
 -85.7948
 -85.7955
 -85.7957
 -85.7538
 -85.7555
 -85.7556
 -85.756
 -85.7468
 -85.7471
 -85.7476
 -85.7479
 -85.7937
 -85.7929
 -85.7924
 -85.7927
 -85.7643
 -85.7638
 -85.7634
 -85.762
 -85.7661
 -85.7653
 -85.765
 -85.7659
 -85.706
 -85.7072
 -85.7076
 -85.7074
 -85.8013
 -85.8015
 -85.7969
 -85.797
 -85.7962
 -85.7977
 -85.7393
 -85.738
 -85.7375
 -85.7394
 -85.7556
 -85.7535
 -85.7533
 -85.7528
 -85.7956
 -85.7948
 -85.7964
 -85.7965
 -85.7625
 -85.763
 -85.7622
 -85.7639
 -85.7592
 -85.7597
 -85.7579
 -85.7581
 -85.8026
 -85.8029
 -85.8023
 -85.8022
 -85.7731
 -85.7726
 -85.7731
 -85.7737
 -85.7694
 -85.7699
 -85.7696
 -85.7684
 -85.7895
 -85.7898
 -85.7903
 -85.7894
 -85.7811
 -85.7806
 -85.7801
 -85.7792
 -85.7628
 -85.7628
 -85.761
 -85.7559
 -85.7571
 -85.7563
 -85.7587
 -85.7332
 -85.7322
 -85.7323
 -85.7348
 -85.7577
 -85.7587
 -85.759
 -85.7593
 -85.7716
 -85.7707
 -85.7714
 -85.7703
 -85.8019
 -85.8023
 -85.8022
 -85.8009
 -85.7587
 -85.7613
 -85.76
 -85.7596
 -85.7395
 -85.7394
 -85.738
 -85.737
 -85.7838
 -85.7852
 -85.7845
 -85.7835
 -85.7782
 -85.7778
 -85.7771
 -85.7714
 -85.7734
 -85.7739
 -85.7744
 -85.7309
 -85.7306
 -85.7308
 -85.7322
 -85.7741
 -85.7729
 -85.7732
 -85.7725
 -85.8006
 -85.8006
 -85.8008
 -85.8008
 -85.7725
 -85.7723
 -85.7729
 -85.7732
 -85.743
 -85.7421
 -85.7428
 -85.7432
 -85.7489
 -85.7499
 -85.7488
 -85.7476
 -85.8071
 -85.8069
 -85.8072
 -85.8071
 -85.7537
 -85.7541
 -85.7538
 -85.7516
 -85.7778
 -85.7758
 -85.7763
 -85.777
 -85.8067
 -85.8069
 -85.8064
 -85.8062
 -85.7976
 -85.7991
 -85.7981
 -85.7842
 -85.784
 -85.7858
 -85.7862
 -85.7941
 -85.7944
 -85.7958
 -85.7937
 -85.7175
 -85.7188
 -85.7199
 -85.7194
 -85.7485
 -85.7504
 -85.7477
 -85.7998
 -85.8009
 -85.8007
 -85.8009
 -85.7771
 -85.7765
 -85.778
 -85.776
 -85.7886
 -85.7882
 -85.7899
 -85.7873
 -85.7414
 -85.7412
 -85.7398
 -85.7393
 -85.762
 -85.7641
 -85.7618
 -85.7632
 -85.7804
 -85.7781
 -85.7789
 -85.7375
 -85.7379
 -85.7386
 -85.7386
 -85.7481
 -85.7447
 -85.7455
 -85.745
 -85.7599
 -85.8003
 -85.8009
 -85.8004
 -85.8012
 -85.7201
 -85.7199
 -85.7184
 -85.7186
 -85.7888
 -85.791
 -85.7901
 -85.7913
 -85.7788
 -85.7778
 -85.778
 -85.7765
 -85.71
 -85.792
 -85.7911
 -85.7927
 -85.7998
 -85.8011
 -85.8002
 -85.8004
 -85.7668
 -85.7666
 -85.7692
 -85.7675
 -85.7823
 -85.7823
 -85.7833
 -85.7816
 -85.7511
 -85.7497
 -85.7697
 -85.769
 -85.7688
 -85.7704
 -85.7508
 -85.7498
 -85.7489
 -85.7501
 -85.7561
 -85.7555
 -85.7578
 -85.7579
 -85.7849
 -85.7839
 -85.7849
 -85.7851
 -85.7256
 -85.7253
 -85.7252
 -85.7273
 -85.747
 -85.7463
 -85.7468
 -85.7459
 -85.7291
 -85.7304
 -85.7421
 -85.7423
 -85.7424
 -85.7422
 -85.7397
 -85.7386
 -85.7402
 -85.7389
 -85.8023
 -85.8017
 -85.8009
 -85.8009
 -85.776
 -85.7758
 -85.7752
 -85.7774
 -85.7614
 -85.7637
 -85.7625
 -85.7624
 -85.7715
 -85.7709
 -85.7705
 -85.772
 -85.8013
 -85.8011
 -85.737
 -85.7364
 -85.7365
 -85.7371
 -85.801
 -85.8014
 -85.8004
 -85.7224
 -85.722
 -85.7223
 -85.7215
 -85.7986
 -85.797
 -85.7981
 -85.7974
 -85.757
 -85.756
 -85.7574
 -85.7557
 -85.7659
 -85.7657
 -85.7652
 -85.8002
 -85.7995
 -85.7998
 -85.8004
 -85.7756
 -85.7741
 -85.7756
 -85.7746
 -85.7661
 -85.7671
 -85.7681
 -85.7668
 -85.7576
 -85.7568
 -85.7618
 -85.7588
 -85.7608
 -85.76
 -85.7784
 -85.7767
 -85.7777
 -85.8023
 -85.8011
 -85.8009
 -85.8022
 -85.7653
 -85.7663
 -85.7651
 -85.7657
 -85.7622
 -85.7612
 -85.755
 -85.7534
 -85.753
 -85.7545
 -85.7261
 -85.7265
 -85.7282
 -85.7756
 -85.7761
 -85.7741
 -85.774
 -85.8016
 -85.8018
 -85.8018
 -85.7289
 -85.7283
 -85.729
 -85.7645
 -85.7633
 -85.7641
 -85.7626
 -85.7819
 -85.7821
 -85.7805
 -85.781
 -85.7181
 -85.7172
 -85.7177
 -85.7182
 -85.7947
 -85.795
 -85.7944
 -85.7942
 -85.7832
 -85.7823
 -85.7824
 -85.7817
 -85.7917
 -85.792
 -85.7912
 -85.7996
 -85.7998
 -85.8012
 -85.8003
 -85.771
 -85.7691
 -85.7708
 -85.7711
 -85.7996
 -85.7991
 -85.7989
 -85.7986
 -85.7577
 -85.7574
 -85.7584
 -85.7566
 -85.802
 -85.7803
 -85.769
 -85.7685
 -85.7699
 -85.768
 -85.7784
 -85.7779
 -85.7769
 -85.7766
 -85.7867
 -85.7869
 -85.786
 -85.7851
 -85.7792
 -85.7788
 -85.7802
 -85.7795
 -85.7882
 -85.7873
 -85.7884
 -85.7883
 -85.769
 -85.768
 -85.7684
 -85.7698
 -85.7664
 -85.7667
 -85.767
 -85.7677
 -85.7619
 -85.7614
 -85.7609
 -85.7626
 -85.7671
 -85.767
 -85.7656
 -85.7451
 -85.7454
 -85.7451
 -85.7461
 -85.7708
 -85.7814
 -85.7831
 -85.7833
 -85.7827
 -85.8006
 -85.8007
 -85.7993
 -85.7551
 -85.7527
 -85.7535
 -85.7528
 -85.7725
 -85.7743
 -85.7737
 -85.7789
 -85.7783
 -85.7777
 -85.7772
 -85.7822
 -85.7829
 -85.7842
 -85.7846
 -85.7966
 -85.7971
 -85.7981
 -85.797
 -85.7501
 -85.7499
 -85.7508
 -85.7487
 -85.7725
 -85.7715
 -85.7715
 -85.7706
 -85.7675
 -85.7668
 -85.7657
 -85.7675
 -85.7662
 -85.7654
 -85.765
 -85.764
 -85.7697
 -85.7692
 -85.7701
 -85.7684
 -85.7863
 -85.7841
 -85.7867
 -85.7851
 -85.766
 -85.7638
 -85.7646
 -85.7651
 -85.7367
 -85.7367
 -85.7367
 -85.7372
 -85.7319
 -85.7328
 -85.7324
 -85.7694
 -85.7697
 -85.7709
 -85.7713
 -85.7701
 -85.7704
 -85.7712
 -85.7718
 -85.7668
 -85.7654
 -85.7678
 -85.7677
 -85.799
 -85.7992
 -85.7977
 -85.7978
 -85.787
 -85.7858
 -85.7855
 -85.7868
 -85.7539
 -85.7549
 -85.7546
 -85.755
 -85.7431
 -85.7451
 -85.7448
 -85.7422
 -85.7959
 -85.7953
 -85.7946
 -85.7958
 -85.7214
 -85.7199
 -85.7203
 -85.7223
 -85.7589
 -85.7604
 -85.7596
 -85.7594
 -85.7408
 -85.7415
 -85.7414
 -85.7488
 -85.7498
 -85.75
 -85.7513
 -85.7847
 -85.7844
 -85.7855
 -85.7832
 -85.7486
 -85.7468
 -85.7472
 -85.7482
 -85.7325
 -85.736
 -85.7337
 -85.7179
 -85.7196
 -85.7205
 -85.7195
 -85.8039
 -85.8042
 -85.8044
 -85.8051
 -85.7523
 -85.7513
 -85.752
 -85.7527
 -85.7763
 -85.7743
 -85.7748
 -85.7758
 -85.7978
 -85.7974
 -85.7964
 -85.7972
 -85.7914
 -85.7926
 -85.7908
 -85.7914
 -85.7536
 -85.754
 -85.7529
 -85.7535
 -85.7376
 -85.7358
 -85.7342
 -85.7362
 -85.7745
 -85.7753
 -85.7737
 -85.7745
 -85.7393
 -85.741
 -85.7626
 -85.76
 -85.7605
 -85.7619
 -85.7641
 -85.764
 -85.7631
 -85.7646
 -85.7619
 -85.7621
 -85.7613
 -85.7441
 -85.7446
 -85.7441
 -85.777
 -85.7771
 -85.7777
 -85.778
 -85.7752
 -85.775
 -85.7741
 -85.7764
 -85.7534
 -85.755
 -85.7541
 -85.7536
 -85.7876
 -85.7888
 -85.7871
 -85.7875
 -85.7688
 -85.7668
 -85.7678
 -85.7692
 -85.7441
 -85.7441
 -85.7438
 -85.7441
 -85.76
 -85.7614
 -85.7602
 -85.7767
 -85.7765
 -85.7753
 -85.7762
 -85.7709
 -85.772
 -85.7727
 -85.8034
 -85.8032
 -85.8029
 -85.8026
 -85.7297
 -85.7287
 -85.7299
 -85.7273
 -85.7581
 -85.7595
 -85.7595
 -85.7583
 -85.7561
 -85.7557
 -85.7544
 -85.7561
 -85.8039
 -85.8037
 -85.805
 -85.8056
 -85.7899
 -85.7906
 -85.7904
 -85.7495
 -85.7495
 -85.7486
 -85.7496
 -85.7895
 -85.7881
 -85.7887
 -85.7523
 -85.7525
 -85.7514
 -85.7517
 -85.7028
 -85.7038
 -85.7031
 -85.704
 -85.7986
 -85.7989
 -85.7996
 -85.7982
 -85.7443
 -85.7439
 -85.7433
 -85.7421
 -85.8026
 -85.8023
 -85.8021
 -85.8023
 -85.7481
 -85.7497
 -85.7484
 -85.7493
 -85.7042
 -85.702
 -85.7036
 -85.7038
 -85.7348
 -85.7334
 -85.7347
 -85.7353
 -85.745
 -85.7461
 -85.747
 -85.7448
 -85.7681
 -85.7661
 -85.7428
 -85.7432
 -85.7403
 -85.7407
 -85.778
 -85.7769
 -85.7766
 -85.7758
 -85.7665
 -85.7665
 -85.7659
 -85.768
 -85.7975
 -85.7962
 -85.7983
 -85.7985
 -85.7948
 -85.7943
 -85.7954
 -85.7954
 -85.7919
 -85.7907
 -85.7916
 -85.7907
 -85.7966
 -85.7968
 -85.7971
 -85.7963
 -85.782
 -85.7819
 -85.783
 -85.782
 -85.7926
 -85.7937
 -85.7934
 -85.7931
 -85.7313
 -85.729
 -85.7287
 -85.7314
 -85.7956
 -85.7963
 -85.7962
 -85.796
 -85.7619
 -85.7605
 -85.7597
 -85.7604
 -85.7889
 -85.787
 -85.7873
 -85.7951
 -85.796
 -85.7962
 -85.7957
 -85.7447
 -85.7431
 -85.743
 -85.7437
 -85.7354
 -85.735
 -85.7342
 -85.7345
 -85.7847
 -85.7845
 -85.7837
 -85.7859
 -85.763
 -85.7629
 -85.7626
 -85.7615
 -85.7826
 -85.7819
 -85.7826
 -85.7822
 -85.7822
 -85.7821
 -85.7846
 -85.7597
 -85.7593
 -85.758
 -85.7811
 -85.7819
 -85.7731
 -85.7711
 -85.8021
 -85.8028
 -85.8027
 -85.8021
 -85.771
 -85.7716
 -85.7706
 -85.7724
 -85.781
 -85.7805
 -85.7823
 -85.7805
 -85.7764
 -85.7771
 -85.7764
 -85.7776
 -85.7926
 -85.7899
 -85.7904
 -85.7895
 -85.7893
 -85.7644
 -85.7649
 -85.7633
 -85.7634
 -85.7416
 -85.7416
 -85.7416
 -85.7416
 -85.7813
 -85.78
 -85.7815
 -85.7806
 -85.783
 -85.7823
 -85.7817
 -85.7834
 -85.7085
 -85.7097
 -85.7103
 -85.7112
 -85.7693
 -85.7706
 -85.7697
 -85.7689
 -85.7675
 -85.7662
 -85.7656
 -85.7669
 -85.7806
 -85.7795
 -85.7461
 -85.7463
 -85.7469
 -85.7462
 -85.7571
 -85.7579
 -85.7576
 -85.7568
 -85.7481
 -85.7475
 -85.7471
 -85.7473
 -85.7546
 -85.7557
 -85.7555
 -85.7543
 -85.7474
 -85.7473
 -85.7467
 -85.7476
 -85.7905
 -85.7898
 -85.7902
 -85.7911
 -85.7954
 -85.7952
 -85.794
 -85.7948
 -85.7527
 -85.752
 -85.7511
 -85.7527
 -85.7693
 -85.768
 -85.7692
 -85.7684
 -85.792
 -85.7907
 -85.7918
 -85.7912
 -85.7639
 -85.7628
 -85.7629
 -85.7649
 -85.7524
 -85.7537
 -85.7381
 -85.7389
 -85.7392
 -85.7379
 -85.7668
 -85.7663
 -85.7651
 -85.7645
 -85.7923
 -85.7918
 -85.7919
 -85.7934
 -85.8011
 -85.8003
 -85.8005
 -85.8012
 -85.7128
 -85.7126
 -85.7614
 -85.763
 -85.7633
 -85.764
 -85.7593
 -85.757
 -85.7585
 -85.7585
 -85.7579
 -85.7575
 -85.7489
 -85.7495
 -85.7496
 -85.7499
 -85.7667
 -85.7682
 -85.7688
 -85.7313
 -85.7324
 -85.7325
 -85.7334
 -85.7957
 -85.7965
 -85.7948
 -85.7959
 -85.8008
 -85.8008
 -85.8007
 -85.8039
 -85.8034
 -85.8024
 -85.8031
 -85.7753
 -85.7775
 -85.7768
 -85.777
 -85.7691
 -85.7711
 -85.7686
 -85.7703
 -85.7881
 -85.79
 -85.7905
 -85.7896
 -85.78
 -85.7796
 -85.7811
 -85.7798
 -85.7779
 -85.7793
 -85.7785
 -85.772
 -85.7722
 -85.7714
 -85.7734
 -85.7852
 -85.7879
 -85.7869
 -85.7854
 -85.764
 -85.763
 -85.7639
 -85.7641
 -85.7702
 -85.7699
 -85.7716
 -85.7694
 -85.7821
 -85.7817
 -85.781
 -85.7822
 -85.7694
 -85.7685
 -85.7681
 -85.7697
 -85.7049
 -85.7043
 -85.7063
 -85.7062
 -85.7505
 -85.7499
 -85.7498
 -85.7489
 -85.7851
 -85.785
 -85.7866
 -85.7868
 -85.748
 -85.7482
 -85.7461
 -85.7455
 -85.7439
 -85.7418
 -85.7439
 -85.7453
 -85.7931
 -85.7928
 -85.7936
 -85.792
 -85.7913
 -85.7899
 -85.7912
 -85.7908
 -85.7964
 -85.7952
 -85.7962
 -85.7967
 -85.7869
 -85.7869
 -85.7882
 -85.7876
 -85.7614
 -85.761
 -85.76
 -85.761
 -85.7508
 -85.7502
 -85.7515
 -85.75
 -85.7827
 -85.7806
 -85.7829
 -85.7811
 -85.7514
 -85.7519
 -85.7521
 -85.752
 -85.7392
 -85.7396
 -85.74
 -85.7406
 -85.7681
 -85.7694
 -85.7683
 -85.7694
 -85.7584
 -85.7573
 -85.7563
 -85.7594
 -85.7601
 -85.7621
 -85.7606
 -85.7394
 -85.7385
 -85.7371
 -85.7384
 -85.7525
 -85.7522
 -85.7517
 -85.7519
 -85.7843
 -85.7852
 -85.7845
 -85.7849
 -85.7711
 -85.7724
 -85.7727
 -85.8046
 -85.8037
 -85.8037
 -85.8043
 -85.7985
 -85.7995
 -85.8002
 -85.7991
 -85.7575
 -85.7588
 -85.7568
 -85.7587
 -85.7737
 -85.7748
 -85.7413
 -85.7412
 -85.7393
 -85.7419
 -85.7711
 -85.7697
 -85.769
 -85.7703
 -85.7959
 -85.7963
 -85.7952
 -85.7962
 -85.7509
 -85.7512
 -85.7517
 -85.7625
 -85.7629
 -85.7633
 -85.7612
 -85.7582
 -85.7601
 -85.7601
 -85.7597
 -85.7683
 -85.7697
 -85.7701
 -85.7682
 -85.7655
 -85.7665
 -85.7675
 -85.7663
 -85.7705
 -85.7713
 -85.7701
 -85.7718
 -85.7642
 -85.7653
 -85.7894
 -85.7886
 -85.7905
 -85.7892
 -85.7651
 -85.7637
 -85.7643
 -85.7652
 -85.7777
 -85.7758
 -85.7767
 -85.7647
 -85.7662
 -85.7651
 -85.766
 -85.7784
 -85.7776
 -85.7767
 -85.7778
 -85.7485
 -85.7471
 -85.7481
 -85.7462
 -85.7647
 -85.7644
 -85.7663
 -85.7744
 -85.7747
 -85.7764
 -85.7736
 -85.7674
 -85.767
 -85.7681
 -85.748
 -85.7484
 -85.7472
 -85.7793
 -85.779
 -85.7788
 -85.7774
 -85.7682
 -85.7693
 -85.7696
 -85.7144
 -85.7149
 -85.7155
 -85.7128
 -85.7799
 -85.7788
 -85.7781
 -85.7801
 -85.7595
 -85.7579
 -85.7582
 -85.7576
 -85.7917
 -85.7916
 -85.7922
 -85.7927
 -85.7945
 -85.7935
 -85.7951
 -85.7948
 -85.7436
 -85.7458
 -85.743
 -85.7435
 -85.7737
 -85.7727
 -85.7717
 -85.7545
 -85.7529
 -85.7541
 -85.754
 -85.7941
 -85.7924
 -85.7934
 -85.7704
 -85.7718
 -85.7709
 -85.7721
 -85.7837
 -85.7842
 -85.7841
 -85.7838
 -85.7978
 -85.7981
 -85.7986
 -85.7976
 -85.698
 -85.6969
 -85.6972
 -85.698
 -85.7543
 -85.7546
 -85.7555
 -85.7541
 -85.7727
 -85.7753
 -85.7743
 -85.775
 -85.7368
 -85.7355
 -85.7348
 -85.7682
 -85.7694
 -85.7692
 -85.7679
 -85.7993
 -85.7812
 -85.7801
 -85.7785
 -85.7801
 -85.7932
 -85.7932
 -85.7934
 -85.7939
 -85.7881
 -85.7876
 -85.7873
 -85.7885
 -85.7737
 -85.7732
 -85.7707
 -85.769
 -85.7692
 -85.7691
 -85.7166
 -85.7184
 -85.7168
 -85.7177
 -85.757
 -85.7565
 -85.7558
 -85.7547
 -85.7546
 -85.7557
 -85.7549
 -85.8
 -85.8015
 -85.8002
 -85.7999
 -85.7684
 -85.7683
 -85.7698
 -85.7699
 -85.7732
 -85.7726
 -85.7714
 -85.7724
 -85.7946
 -85.7936
 -85.7952
 -85.7937
 -85.7697
 -85.7693
 -85.7711
 -85.7698
 -85.7297
 -85.7302
 -85.7285
 -85.7291
 -85.7669
 -85.7664
 -85.7674
 -85.7667
 -85.7537
 -85.7538
 -85.7541
 -85.755
 -85.7504
 -85.7492
 -85.7493
 -85.7499
 -85.7414
 -85.742
 -85.7413
 -85.7413
 -85.7265
 -85.7259
 -85.7255
 -85.7278
 -85.8033
 -85.8026
 -85.8029
 -85.8027
 -85.7207
 -85.7213
 -85.7195
 -85.722
 -85.7686
 -85.7676
 -85.7686
 -85.7673
 -85.8024
 -85.8025
 -85.8017
 -85.802
 -85.7613
 -85.7608
 -85.7619
 -85.7622
 -85.7413
 -85.7971
 -85.7964
 -85.7967
 -85.798
 -85.7476
 -85.7289
 -85.7311
 -85.7312
 -85.7291
 -85.7757
 -85.7776
 -85.7888
 -85.7871
 -85.7892
 -85.7876
 -85.7927
 -85.7927
 -85.7935
 -85.7933
 -85.8044
 -85.8036
 -85.8047
 -85.7894
 -85.791
 -85.7907
 -85.7905
 -85.7617
 -85.801
 -85.7828
 -85.7825
 -85.7819
 -85.8008
 -85.8013
 -85.8016
 -85.8011
 -85.7625
 -85.7622
 -85.7623
 -85.7612
 -85.7533
 -85.7538
 -85.7524
 -85.7519
 -85.7813
 -85.7803
 -85.7808
 -85.7829
 -85.7997
 -85.8004
 -85.7992
 -85.799
 -85.796
 -85.7956
 -85.7962
 -85.7955
 -85.7775
 -85.7797
 -85.7795
 -85.7249
 -85.7237
 -85.7273
 -85.7248
 -85.6998
 -85.7018
 -85.7006
 -85.7016
 -85.7372
 -85.7351
 -85.7346
 -85.7359
 -85.7718
 -85.7731
 -85.7716
 -85.7309
 -85.7324
 -85.7319
 -85.7308
 -85.7902
 -85.7898
 -85.7912
 -85.7913
 -85.7915
 -85.7907
 -85.7913
 -85.7477
 -85.7471
 -85.7839
 -85.7846
 -85.807
 -85.8064
 -85.8069
 -85.8034
 -85.8038
 -85.8036
 -85.804
 -85.7643
 -85.7631
 -85.7653
 -85.7643
 -85.7564
 -85.7561
 -85.7554
 -85.7572
 -85.7673
 -85.7671
 -85.7687
 -85.7682
 -85.8019
 -85.8019
 -85.8021
 -85.8018
 -85.7841
 -85.7849
 -85.7845
 -85.7836
 -85.7409
 -85.7407
 -85.7408
 -85.7418
 -85.7842
 -85.7848
 -85.7838
 -85.7851
 -85.7744
 -85.7747
 -85.7732
 -85.775
 -85.7819
 -85.7829
 -85.7827
 -85.6949
 -85.6953
 -85.6955
 -85.7557
 -85.7546
 -85.7625
 -85.7625
 -85.7614
 -85.7635
 -85.7882
 -85.7896
 -85.7884
 -85.7882
 -85.7844
 -85.7848
 -85.7865
 -85.7855
 -85.7855
 -85.7848
 -85.787
 -85.7167
 -85.7166
 -85.7403
 -85.74
 -85.7409
 -85.7404
 -85.7744
 -85.7157
 -85.7139
 -85.7146
 -85.7148
 -85.7531
 -85.7549
 -85.7537
 -85.7534
 -85.7647
 -85.7639
 -85.7273
 -85.7304
 -85.7303
 -85.7286
 -85.8033
 -85.8044
 -85.804
 -85.8035
 -85.7992
 -85.7996
 -85.7992
 -85.8005
 -85.7459
 -85.7488
 -85.7465
 -85.748
 -85.7552
 -85.7544
 -85.7573
 -85.7568
 -85.7561
 -85.7553
 -85.7561
 -85.7866
 -85.7875
 -85.7855
 -85.7866
 -85.7408
 -85.7422
 -85.7429
 -85.743
 -85.7675
 -85.7679
 -85.7673
 -85.7797
 -85.7802
 -85.7807
 -85.7819
 -85.7552
 -85.7555
 -85.7564
 -85.7558
 -85.7495
 -85.7509
 -85.7519
 -85.7503
 -85.7507
 -85.7497
 -85.75
 -85.7512
 -85.7608
 -85.7613
 -85.7628
 -85.7614
 -85.7795
 -85.7786
 -85.7534
 -85.7537
 -85.754
 -85.7527
 -85.8039
 -85.8024
 -85.8027
 -85.8028
 -85.7485
 -85.7494
 -85.7487
 -85.7496
 -85.7343
 -85.7337
 -85.7354
 -85.7347
 -85.7747
 -85.7747
 -85.723
 -85.7232
 -85.7218
 -85.7235
 -85.7581
 -85.7592
 -85.7574
 -85.7999
 -85.7998
 -85.8005
 -85.8004
 -85.7252
 -85.7244
 -85.7249
 -85.7498
 -85.7496
 -85.7509
 -85.7503
 -85.7274
 -85.7484
 -85.7478
 -85.748
 -85.7466
 -85.7697
 -85.7686
 -85.7699
 -85.7697
 -85.7627
 -85.763
 -85.7638
 -85.7626
 -85.801
 -85.8021
 -85.7722
 -85.7731
 -85.7727
 -85.7721
 -85.7468
 -85.7448
 -85.7471
 -85.7446
 -85.7566
 -85.7596
 -85.7579
 -85.7569
 -85.7966
 -85.7959
 -85.7959
 -85.7961
 -85.7634
 -85.7641
 -85.7656
 -85.7649
 -85.775
 -85.7923
 -85.7928
 -85.7917
 -85.7569
 -85.7573
 -85.7557
 -85.7577
 -85.7838
 -85.7833
 -85.7839
 -85.7826
 -85.759
 -85.7576
 -85.758
 -85.7595
 -85.8006
 -85.7998
 -85.7994
 -85.8002
 -85.8063
 -85.8067
 -85.806
 -85.7501
 -85.7509
 -85.7523
 -85.7515
 -85.7782
 -85.7787
 -85.777
 -85.7777
 -85.7825
 -85.783
 -85.7838
 -85.7843
 -85.7543
 -85.7546
 -85.7488
 -85.7481
 -85.7476
 -85.7493
 -85.7605
 -85.763
 -85.7757
 -85.7764
 -85.7756
 -85.7751
 -85.7789
 -85.7794
 -85.7806
 -85.7789
 -85.7612
 -85.7622
 -85.7634
 -85.7625
 -85.7742
 -85.7743
 -85.7744
 -85.7945
 -85.7932
 -85.7928
 -85.7935
 -85.7884
 -85.7879
 -85.7886
 -85.7614
 -85.7633
 -85.7609
 -85.7625
 -85.7505
 -85.7485
 -85.7476
 -85.7499
 -85.7832
 -85.7815
 -85.7816
 -85.7826
 -85.7634
 -85.7632
 -85.7614
 -85.7432
 -85.743
 -85.7432
 -85.743
 -85.7551
 -85.755
 -85.7556
 -85.7561
 -85.7902
 -85.7896
 -85.7889
 -85.8041
 -85.8031
 -85.8033
 -85.7817
 -85.7825
 -85.7826
 -85.7551
 -85.7536
 -85.7556
 -85.7544
 -85.8038
 -85.8039
 -85.8037
 -85.8042
 -85.7801
 -85.7792
 -85.7799
 -85.7809
 -85.792
 -85.7925
 -85.794
 -85.7939
 -85.7905
 -85.7912
 -85.7906
 -85.7907
 -85.7332
 -85.7314
 -85.7317
 -85.7605
 -85.7609
 -85.7599
 -85.7611
 -85.7922
 -85.7927
 -85.7916
 -85.7917
 -85.7657
 -85.7663
 -85.7663
 -85.7679
 -85.7843
 -85.7845
 -85.7842
 -85.7829
 -85.7972
 -85.798
 -85.7406
 -85.7415
 -85.7414
 -85.7421
 -85.7874
 -85.7865
 -85.7885
 -85.787
 -85.7614
 -85.7608
 -85.7603
 -85.7619
 -85.7823
 -85.7805
 -85.8023
 -85.8023
 -85.8014
 -85.8026
 -85.7917
 -85.7933
 -85.7911
 -85.7938
 -85.8042
 -85.8044
 -85.8052
 -85.8055
 -85.7867
 -85.7867
 -85.7873
 -85.7823
 -85.7841
 -85.7839
 -85.7833
 -85.7835
 -85.7826
 -85.7831
 -85.7816
 -85.7527
 -85.753
 -85.7519
 -85.7514
 -85.7299
 -85.7291
 -85.7311
 -85.7687
 -85.7687
 -85.769
 -85.7943
 -85.7931
 -85.7938
 -85.7928
 -85.7618
 -85.7629
 -85.7642
 -85.7629
 -85.7474
 -85.7454
 -85.7461
 -85.7476
 -85.7698
 -85.7683
 -85.7676
 -85.7676
 -85.7583
 -85.7605
 -85.7584
 -85.8026
 -85.803
 -85.8017
 -85.8017
 -85.7419
 -85.7424
 -85.7469
 -85.7477
 -85.7478
 -85.7851
 -85.7855
 -85.7842
 -85.7865
 -85.7678
 -85.7696
 -85.7694
 -85.769
 -85.7452
 -85.7454
 -85.7466
 -85.7454
 -85.7733
 -85.7706
 -85.7709
 -85.7724
 -85.7576
 -85.7565
 -85.7584
 -85.7585
 -85.7962
 -85.7967
 -85.7983
 -85.7554
 -85.7552
 -85.7564
 -85.7563
 -85.773
 -85.7741
 -85.7441
 -85.7458
 -85.7452
 -85.7443
 -85.7464
 -85.7451
 -85.7458
 -85.7452
 -85.7973
 -85.7967
 -85.7491
 -85.7504
 -85.7497
 -85.7483
 -85.7703
 -85.769
 -85.7696
 -85.7704
 -85.7597
 -85.7336
 -85.732
 -85.7325
 -85.7749
 -85.7746
 -85.7749
 -85.7737
 -85.7983
 -85.7984
 -85.7978
 -85.799
 -85.7333
 -85.734
 -85.7343
 -85.7326
 -85.7476
 -85.7486
 -85.7472
 -85.7476
 -85.7815
 -85.7821
 -85.7822
 -85.7355
 -85.7353
 -85.7366
 -85.7368
 -85.8041
 -85.8032
 -85.8036
 -85.8043
 -85.7405
 -85.7413
 -85.7417
 -85.7399
 -85.7802
 -85.7788
 -85.7798
 -85.781
 -85.7605
 -85.7617
 -85.7612
 -85.7602
 -85.7453
 -85.7458
 -85.7453
 -85.7579
 -85.7596
 -85.7578
 -85.7592
 -85.7454
 -85.7442
 -85.7449
 -85.745
 -85.748
 -85.747
 -85.7475
 -85.7882
 -85.787
 -85.7886
 -85.7864
 -85.7852
 -85.7668
 -85.7699
 -85.7678
 -85.7679
 -85.8
 -85.7995
 -85.7989
 -85.7995
 -85.7754
 -85.777
 -85.7745
 -85.7765
 -85.7796
 -85.7806
 -85.7795
 -85.7792
 -85.7472
 -85.7467
 -85.7481
 -85.7491
 -85.7485
 -85.7795
 -85.7779
 -85.7789
 -85.78
 -85.7992
 -85.8006
 -85.7715
 -85.7721
 -85.7705
 -85.7723
 -85.745
 -85.7447
 -85.7457
 -85.7958
 -85.7966
 -85.7955
 -85.7959
 -85.772
 -85.7699
 -85.7707
 -85.771
 -85.7468
 -85.7461
 -85.7469
 -85.7474
 -85.7676
 -85.7674
 -85.7696
 -85.768
 -85.7787
 -85.7812
 -85.7384
 -85.7378
 -85.7381
 -85.7374
 -85.7478
 -85.7506
 -85.7514
 -85.7508
 -85.752
 -85.7515
 -85.7509
 -85.7489
 -85.7494
 -85.7505
 -85.771
 -85.7707
 -85.7705
 -85.7769
 -85.7763
 -85.7757
 -85.7751
 -85.7525
 -85.7523
 -85.7526
 -85.7523
 -85.7615
 -85.7611
 -85.7736
 -85.7727
 -85.7733
 -85.7724
 -85.7738
 -85.7738
 -85.7677
 -85.7691
 -85.7695
 -85.7679
 -85.722
 -85.7244
 -85.7239
 -85.7247
 -85.7731
 -85.7454
 -85.7466
 -85.7458
 -85.7455
 -85.8025
 -85.8032
 -85.8023
 -85.7856
 -85.7853
 -85.7843
 -85.7858
 -85.7668
 -85.7674
 -85.7668
 -85.7647
 -85.7718
 -85.7729
 -85.7711
 -85.7497
 -85.7508
 -85.7503
 -85.7495
 -85.7965
 -85.7974
 -85.7956
 -85.7969
 -85.7805
 -85.78
 -85.7812
 -85.7807
 -85.7966
 -85.7971
 -85.7952
 -85.7963
 -85.7404
 -85.7404
 -85.7393
 -85.7394
 -85.752
 -85.7531
 -85.7879
 -85.7874
 -85.7867
 -85.7876
 -85.7991
 -85.799
 -85.7992
 -85.7987
 -85.8062
 -85.8066
 -85.8059
 -85.8068
 -85.7978
 -85.7969
 -85.7977
 -85.7793
 -85.7807
 -85.7791
 -85.7801
 -85.7984
 -85.7989
 -85.7991
 -85.7989
 -85.7412
 -85.7424
 -85.7435
 -85.7422
 -85.7925
 -85.7935
 -85.7936
 -85.78
 -85.7795
 -85.7791
 -85.7791
 -85.7452
 -85.7446
 -85.7452
 -85.7443
 -85.7817
 -85.7831
 -85.7823
 -85.7824
 -85.7757
 -85.7768
 -85.7773
 -85.7758
 -85.7531
 -85.7536
 -85.7548
 -85.7556
 -85.7397
 -85.74
 -85.7384
 -85.7385
 -85.7632
 -85.7637
 -85.7649
 -85.7635
 -85.7183
 -85.7184
 -85.7211
 -85.7195
 -85.7469
 -85.7479
 -85.7467
 -85.7502
 -85.7486
 -85.7485
 -85.7482
 -85.7109
 -85.7114
 -85.7096
 -85.712
 -85.7958
 -85.795
 -85.7951
 -85.7906
 -85.7908
 -85.7919
 -85.7917
 -85.7511
 -85.7536
 -85.7528
 -85.7307
 -85.7313
 -85.7304
 -85.739
 -85.7379
 -85.7392
 -85.7393
 -85.7528
 -85.7526
 -85.7537
 -85.7516
 -85.7802
 -85.7824
 -85.7814
 -85.7811
 -85.7227
 -85.7224
 -85.7235
 -85.7217
 -85.7772
 -85.7749
 -85.7747
 -85.7767
 -85.7903
 -85.7909
 -85.7893
 -85.7903
 -85.774
 -85.774
 -85.7762
 -85.7752
 -85.7645
 -85.7634
 -85.7655
 -85.7462
 -85.7462
 -85.7462
 -85.7469
 -85.7972
 -85.7981
 -85.7984
 -85.7979
 -85.7926
 -85.7934
 -85.7925
 -85.7917
 -85.7525
 -85.7537
 -85.7529
 -85.7518
 -85.7995
 -85.8001
 -85.8006
 -85.799
 -85.8006
 -85.7995
 -85.7996
 -85.8003
 -85.8004
 -85.7994
 -85.7998
 -85.7271
 -85.7267
 -85.7114
 -85.7118
 -85.7108
 -85.7129
 -85.778
 -85.7773
 -85.7763
 -85.767
 -85.7661
 -85.7683
 -85.7663
 -85.7703
 -85.7719
 -85.7714
 -85.7705
 -85.6962
 -85.7624
 -85.7765
 -85.7779
 -85.7924
 -85.7931
 -85.7928
 -85.7927
 -85.7307
 -85.7583
 -85.7596
 -85.7583
 -85.8072
 -85.8068
 -85.8068
 -85.8068
 -85.7707
 -85.7696
 -85.7708
 -85.7721
 -85.8004
 -85.7998
 -85.8006
 -85.7994
 -85.7642
 -85.7659
 -85.7628
 -85.7599
 -85.7618
 -85.7606
 -85.7963
 -85.7965
 -85.7953
 -85.7965
 -85.7773
 -85.7764
 -85.7754
 -85.7748
 -85.7418
 -85.7408
 -85.7427
 -85.7424
 -85.7911
 -85.7933
 -85.7925
 -85.8007
 -85.8021
 -85.8021
 -85.8007
 -85.7917
 -85.7913
 -85.7905
 -85.7913
 -85.7515
 -85.7513
 -85.7541
 -85.7512
 -85.7551
 -85.7541
 -85.7543
 -85.7543
 -85.7965
 -85.7973
 -85.7972
 -85.7972
 -85.762
 -85.7622
 -85.7607
 -85.7888
 -85.7888
 -85.7884
 -85.7876
 -85.7442
 -85.7456
 -85.7435
 -85.7438
 -85.7787
 -85.7794
 -85.7775
 -85.7783
 -85.7436
 -85.7447
 -85.7437
 -85.7436
 -85.7731
 -85.774
 -85.7726
 -85.7736
 -85.79
 -85.7901
 -85.7912
 -85.7892
 -85.7405
 -85.7401
 -85.7412
 -85.7711
 -85.7724
 -85.7943
 -85.7938
 -85.7935
 -85.7929
 -85.7617
 -85.7608
 -85.7606
 -85.742
 -85.7409
 -85.7404
 -85.741
 -85.7828
 -85.7833
 -85.7827
 -85.7838
 -85.7788
 -85.7787
 -85.7809
 -85.7793
 -85.7025
 -85.7025
 -85.7043
 -85.7031
 -85.7697
 -85.7679
 -85.7689
 -85.7171
 -85.7186
 -85.7191
 -85.7704
 -85.7699
 -85.7688
 -85.77
 -85.7683
 -85.74
 -85.7406
 -85.738
 -85.739
 -85.7647
 -85.7663
 -85.7666
 -85.7926
 -85.7926
 -85.7926
 -85.792
 -85.7661
 -85.7668
 -85.7677
 -85.7677
 -85.7684
 -85.768
 -85.7678
 -85.806
 -85.8056
 -85.8054
 -85.8048
 -85.7485
 -85.7515
 -85.7508
 -85.75
 -85.7379
 -85.7379
 -85.7386
 -85.7386
 -85.7592
 -85.7588
 -85.7609
 -85.7594
 -85.7951
 -85.7953
 -85.7957
 -85.7942
 -85.7015
 -85.7029
 -85.7015
 -85.7037
 -85.7888
 -85.7873
 -85.7881
 -85.7882
 -85.7373
 -85.7363
 -85.7373
 -85.7369
 -85.7925
 -85.7898
 -85.7906
 -85.7919
 -85.7876
 -85.7869
 -85.7862
 -85.787
 -85.789
 -85.7896
 -85.7521
 -85.7511
 -85.7509
 -85.7519
 -85.7976
 -85.7977
 -85.7976
 -85.7866
 -85.7848
 -85.7855
 -85.7869
 -85.7499
 -85.7513
 -85.7503
 -85.7491
 -85.7578
 -85.7573
 -85.759
 -85.695
 -85.695
 -85.6945
 -85.695
 -85.7677
 -85.7659
 -85.7681
 -85.7978
 -85.7986
 -85.7975
 -85.7972
 -85.7898
 -85.7889
 -85.7957
 -85.797
 -85.7976
 -85.7963
 -85.7842
 -85.7843
 -85.7348
 -85.735
 -85.7333
 -85.7361
 -85.7886
 -85.7885
 -85.7886
 -85.7873
 -85.7702
 -85.7709
 -85.7576
 -85.7585
 -85.758
 -85.7576
 -85.7916
 -85.7924
 -85.7926
 -85.7923
 -85.7529
 -85.7503
 -85.7506
 -85.7525
 -85.7968
 -85.7968
 -85.7978
 -85.7991
 -85.7753
 -85.7756
 -85.7741
 -85.7345
 -85.7338
 -85.7335
 -85.7344
 -85.78
 -85.7799
 -85.7793
 -85.7784
 -85.7486
 -85.7471
 -85.7469
 -85.746
 -85.7504
 -85.7484
 -85.7498
 -85.6999
 -85.6997
 -85.7
 -85.7008
 -85.7397
 -85.7416
 -85.7421
 -85.7403
 -85.7895
 -85.789
 -85.7902
 -85.7889
 -85.7684
 -85.769
 -85.7673
 -85.7596
 -85.7459
 -85.7467
 -85.7462
 -85.747
 -85.7621
 -85.7607
 -85.7618
 -85.7625
 -85.785
 -85.787
 -85.7872
 -85.7854
 -85.7437
 -85.7438
 -85.7465
 -85.7312
 -85.7749
 -85.7754
 -85.7738
 -85.7761
 -85.7465
 -85.7483
 -85.7143
 -85.7127
 -85.7455
 -85.7467
 -85.7456
 -85.744
 -85.7848
 -85.7858
 -85.7942
 -85.7941
 -85.7945
 -85.7939
 -85.7576
 -85.759
 -85.759
 -85.759
 -85.8014
 -85.8017
 -85.8024
 -85.8017
 -85.7562
 -85.7566
 -85.7536
 -85.7536
 -85.7883
 -85.7885
 -85.7875
 -85.7863
 -85.7504
 -85.7505
 -85.7512
 -85.7512
 -85.7881
 -85.7887
 -85.7871
 -85.7881
 -85.7622
 -85.764
 -85.7988
 -85.7984
 -85.7833
 -85.7845
 -85.783
 -85.7847
 -85.7825
 -85.7819
 -85.7821
 -85.7837
 -85.7728
 -85.7721
 -85.7734
 -85.7732
 -85.7879
 -85.7865
 -85.7884
 -85.7891
 -85.7497
 -85.7483
 -85.7491
 -85.749
 -85.7981
 -85.7978
 -85.7976
 -85.7992
 -85.7999
 -85.7989
 -85.7995
 -85.7437
 -85.7453
 -85.7452
 -85.7446
 -85.7836
 -85.7821
 -85.7823
 -85.783
 -85.7417
 -85.7434
 -85.7435
 -85.745
 -85.7716
 -85.7662
 -85.7683
 -85.7683
 -85.7664
 -85.792
 -85.792
 -85.7919
 -85.7907
 -85.7197
 -85.7182
 -85.7191
 -85.7208
 -85.7829
 -85.7837
 -85.7846
 -85.7834
 -85.7695
 -85.7709
 -85.7679
 -85.7691
 -85.7864
 -85.7854
 -85.7852
 -85.785
 -85.7803
 -85.8058
 -85.8056
 -85.8045
 -85.805
 -85.7893
 -85.7896
 -85.7879
 -85.7882
 -85.7134
 -85.7141
 -85.7153
 -85.7132
 -85.7624
 -85.7609
 -85.7602
 -85.7614
 -85.7543
 -85.7707
 -85.7708
 -85.7712
 -85.7724
 -85.7966
 -85.7967
 -85.7955
 -85.7949
 -85.7927
 -85.7925
 -85.7939
 -85.7963
 -85.7942
 -85.7952
 -85.7947
 -85.702
 -85.7026
 -85.7879
 -85.7874
 -85.7873
 -85.7529
 -85.7528
 -85.7524
 -85.7541
 -85.7853
 -85.7846
 -85.7853
 -85.7841
 -85.7728
 -85.7829
 -85.7814
 -85.7829
 -85.7825
 -85.7987
 -85.7966
 -85.7973
 -85.7985
 -85.7824
 -85.7834
 -85.7848
 -85.7826
 -85.7615
 -85.7621
 -85.7598
 -85.7633
 -85.7449
 -85.7452
 -85.7445
 -85.7454
 -85.8046
 -85.8036
 -85.8047
 -85.8044
 -85.7854
 -85.7849
 -85.7858
 -85.7843
 -85.8037
 -85.8033
 -85.8035
 -85.8041
 -85.7533
 -85.751
 -85.7533
 -85.7536
 -85.7718
 -85.771
 -85.7986
 -85.8
 -85.7986
 -85.7992
 -85.7723
 -85.7726
 -85.7725
 -85.774
 -85.7673
 -85.7687
 -85.7721
 -85.7725
 -85.7737
 -85.772
 -85.7935
 -85.7935
 -85.793
 -85.7944
 -85.7573
 -85.7555
 -85.7547
 -85.7563
 -85.7324
 -85.7337
 -85.7325
 -85.7325
 -85.7416
 -85.7409
 -85.741
 -85.7408
 -85.7554
 -85.7564
 -85.7566
 -85.7552
 -85.763
 -85.7609
 -85.7623
 -85.7658
 -85.7635
 -85.7647
 -85.7651
 -85.7709
 -85.7701
 -85.7694
 -85.7708
 -85.732
 -85.7319
 -85.7325
 -85.7605
 -85.7592
 -85.7612
 -85.7608
 -85.7734
 -85.7747
 -85.7746
 -85.7727
 -85.7511
 -85.7493
 -85.7516
 -85.7494
 -85.7563
 -85.7575
 -85.7574
 -85.7571
 -85.7748
 -85.7746
 -85.7757
 -85.7767
 -85.7701
 -85.7687
 -85.7698
 -85.7695
 -85.7837
 -85.7831
 -85.7835
 -85.783
 -85.7404
 -85.7408
 -85.7413
 -85.7913
 -85.7906
 -85.7921
 -85.791
 -85.7514
 -85.7529
 -85.7517
 -85.7506
 -85.7634
 -85.7628
 -85.7619
 -85.764
 -85.766
 -85.7674
 -85.7677
 -85.7771
 -85.7772
 -85.7777
 -85.7787
 -85.7819
 -85.7819
 -85.7829
 -85.7812
 -85.7834
 -85.784
 -85.7849
 -85.7941
 -85.7945
 -85.7946
 -85.7818
 -85.7811
 -85.7802
 -85.7809
 -85.7941
 -85.7946
 -85.7932
 -85.7977
 -85.7977
 -85.7975
 -85.7966
 -85.7667
 -85.7639
 -85.7656
 -85.7647
 -85.7536
 -85.7525
 -85.7543
 -85.753
 -85.7484
 -85.794
 -85.7936
 -85.7954
 -85.7934
 -85.7944
 -85.7922
 -85.6987
 -85.698
 -85.6988
 -85.6995
 -85.7883
 -85.7872
 -85.763
 -85.7624
 -85.7641
 -85.8035
 -85.8043
 -85.7778
 -85.7758
 -85.7765
 -85.777
 -85.762
 -85.7627
 -85.7628
 -85.7888
 -85.7911
 -85.7899
 -85.7905
 -85.7544
 -85.755
 -85.7539
 -85.7557
 -85.7093
 -85.7108
 -85.7104
 -85.7087
 -85.7762
 -85.7764
 -85.776
 -85.7776
 -85.7927
 -85.7949
 -85.793
 -85.7903
 -85.7899
 -85.7905
 -85.7894
 -85.7502
 -85.7482
 -85.7482
 -85.7473
 -85.7522
 -85.7534
 -85.744
 -85.7453
 -85.7434
 -85.803
 -85.8022
 -85.7918
 -85.7905
 -85.7918
 -85.7904
 -85.7716
 -85.7735
 -85.7729
 -85.7879
 -85.7864
 -85.789
 -85.7887
 -85.7513
 -85.7487
 -85.7492
 -85.7505
 -85.7687
 -85.7684
 -85.7699
 -85.7703
 -85.7682
 -85.7692
 -85.7696
 -85.7684
 -85.7481
 -85.7488
 -85.7478
 -85.7529
 -85.7519
 -85.7527
 -85.7524
 -85.8063
 -85.8069
 -85.8065
 -85.8073
 -85.737
 -85.7348
 -85.797
 -85.7977
 -85.7976
 -85.7968
 -85.7645
 -85.766
 -85.7653
 -85.7644
 -85.7737
 -85.7747
 -85.7747
 -85.7749
 -85.7414
 -85.7424
 -85.77
 -85.7689
 -85.7689
 -85.7679
 -85.7632
 -85.7626
 -85.7621
 -85.7637
 -85.7927
 -85.7926
 -85.7921
 -85.7929
 -85.7662
 -85.7675
 -85.7677
 -85.7658
 -85.7538
 -85.754
 -85.7791
 -85.7792
 -85.7783
 -85.7794
 -85.7852
 -85.7849
 -85.7859
 -85.7716
 -85.7732
 -85.7726
 -85.7735
 -85.7467
 -85.7476
 -85.7462
 -85.7484
 -85.7082
 -85.71
 -85.7096
 -85.7078
 -85.7674
 -85.7666
 -85.7681
 -85.7696
 -85.7748
 -85.7765
 -85.775
 -85.775
 -85.7614
 -85.7623
 -85.7606
 -85.7609
 -85.7547
 -85.7538
 -85.755
 -85.7558
 -85.7933
 -85.7942
 -85.779
 -85.7783
 -85.7776
 -85.7232
 -85.7225
 -85.7214
 -85.7235
 -85.7492
 -85.748
 -85.7497
 -85.7472
 -85.7722
 -85.7725
 -85.7718
 -85.771
 -85.7933
 -85.7937
 -85.7936
 -85.7646
 -85.7638
 -85.762
 -85.7621
 -85.7526
 -85.7546
 -85.7538
 -85.7525
 -85.7866
 -85.7849
 -85.7849
 -85.7858
 -85.777
 -85.7766
 -85.7759
 -85.776
 -85.7898
 -85.79
 -85.7898
 -85.789
 -85.7892
 -85.7893
 -85.7891
 -85.7598
 -85.7602
 -85.7588
 -85.7583
 -85.7662
 -85.7654
 -85.7669
 -85.7117
 -85.7121
 -85.7119
 -85.7108
 -85.7537
 -85.7538
 -85.7358
 -85.7346
 -85.7364
 -85.7375
 -85.7478
 -85.7425
 -85.7953
 -85.7544
 -85.7529
 -85.754
 -85.7523
 -85.8046
 -85.7789
 -85.7779
 -85.7788
 -85.7771
 -85.7538
 -85.7549
 -85.7542
 -85.7603
 -85.7618
 -85.7617
 -85.791
 -85.7913
 -85.7897
 -85.7912
 -85.7915
 -85.7908
 -85.7916
 -85.7907
 -85.7449
 -85.7428
 -85.7428
 -85.7442
 -85.8
 -85.8001
 -85.8008
 -85.7994
 -85.7688
 -85.7675
 -85.7661
 -85.7911
 -85.7918
 -85.7916
 -85.774
 -85.7726
 -85.7731
 -85.7743
 -85.7545
 -85.7554
 -85.7536
 -85.7541
 -85.775
 -85.7771
 -85.775
 -85.7566
 -85.7573
 -85.7573
 -85.7557
 -85.7644
 -85.7664
 -85.792
 -85.7929
 -85.7932
 -85.7942
 -85.7954
 -85.7968
 -85.796
 -85.7957
 -85.7471
 -85.7487
 -85.7467
 -85.7483
 -85.7852
 -85.7835
 -85.7845
 -85.7857
 -85.7778
 -85.7757
 -85.7774
 -85.7786
 -85.7618
 -85.7605
 -85.7627
 -85.7615
 -85.7938
 -85.7932
 -85.7928
 -85.7921
 -85.7649
 -85.7633
 -85.7659
 -85.7651
 -85.7691
 -85.7683
 -85.7682
 -85.7704
 -85.7644
 -85.7634
 -85.7647
 -85.7649
 -85.7495
 -85.7512
 -85.7453
 -85.7464
 -85.7475
 -85.7455
 -85.7326
 -85.7302
 -85.7322
 -85.7327
 -85.7784
 -85.7782
 -85.7778
 -85.7795
 -85.7755
 -85.7743
 -85.7741
 -85.8012
 -85.8014
 -85.8014
 -85.8014
 -85.8028
 -85.8035
 -85.8024
 -85.797
 -85.7976
 -85.7961
 -85.7744
 -85.7761
 -85.7769
 -85.7748
 -85.7829
 -85.7836
 -85.7843
 -85.7821
 -85.792
 -85.793
 -85.7924
 -85.7932
 -85.7554
 -85.7539
 -85.7542
 -85.7551
 -85.7372
 -85.7385
 -85.7394
 -85.7393
 -85.8039
 -85.8041
 -85.803
 -85.8048
 -85.7517
 -85.7512
 -85.7504
 -85.7519
 -85.7719
 -85.7718
 -85.7726
 -85.7714
 -85.8045
 -85.8044
 -85.8032
 -85.8052
 -85.7788
 -85.7773
 -85.7793
 -85.7788
 -85.7634
 -85.7627
 -85.7635
 -85.7628
 -85.7527
 -85.7515
 -85.7517
 -85.7425
 -85.7442
 -85.7432
 -85.7423
 -85.748
 -85.7476
 -85.7483
 -85.7474
 -85.746
 -85.7458
 -85.7505
 -85.7515
 -85.7486
 -85.7891
 -85.7882
 -85.7881
 -85.7879
 -85.8003
 -85.7998
 -85.7999
 -85.7998
 -85.7817
 -85.7811
 -85.7817
 -85.7799
 -85.7655
 -85.7943
 -85.7949
 -85.7948
 -85.7939
 -85.7437
 -85.7437
 -85.7435
 -85.7434
 -85.8013
 -85.8018
 -85.8011
 -85.8024
 -85.7585
 -85.7576
 -85.7597
 -85.785
 -85.7426
 -85.7425
 -85.7412
 -85.7495
 -85.7485
 -85.7474
 -85.75
 -85.7711
 -85.771
 -85.7688
 -85.7705
 -85.7874
 -85.7874
 -85.7864
 -85.7884
 -85.7654
 -85.7848
 -85.784
 -85.7839
 -85.7663
 -85.7661
 -85.7664
 -85.768
 -85.7567
 -85.7571
 -85.756
 -85.7559
 -85.7605
 -85.7587
 -85.76
 -85.7604
 -85.7854
 -85.7514
 -85.7517
 -85.7523
 -85.7886
 -85.7877
 -85.7891
 -85.7882
 -85.7938
 -85.7934
 -85.7949
 -85.793
 -85.7992
 -85.7998
 -85.7991
 -85.756
 -85.7561
 -85.7551
 -85.7561
 -85.7391
 -85.7383
 -85.7392
 -85.7907
 -85.7906
 -85.7931
 -85.7927
 -85.7921
 -85.792
 -85.766
 -85.7665
 -85.7674
 -85.8021
 -85.8019
 -85.8027
 -85.8019
 -85.7934
 -85.7931
 -85.7936
 -85.7939
 -85.7801
 -85.7803
 -85.7811
 -85.7815
 -85.7729
 -85.7734
 -85.7724
 -85.7711
 -85.7526
 -85.7525
 -85.752
 -85.7531
 -85.7929
 -85.7929
 -85.7922
 -85.7937
 -85.7571
 -85.7575
 -85.7555
 -85.7612
 -85.7625
 -85.7629
 -85.7631
 -85.7996
 -85.7993
 -85.8007
 -85.8001
 -85.7841
 -85.7842
 -85.784
 -85.7833
 -85.8027
 -85.8021
 -85.8012
 -85.8024
 -85.7596
 -85.7606
 -85.7612
 -85.761
 -85.7722
 -85.7725
 -85.771
 -85.7736
 -85.796
 -85.7958
 -85.7967
 -85.7962
 -85.7707
 -85.7718
 -85.7699
 -85.7703
 -85.8029
 -85.8037
 -85.803
 -85.7548
 -85.7542
 -85.7542
 -85.7544
 -85.7754
 -85.7754
 -85.7747
 -85.7739
 -85.7786
 -85.7798
 -85.7786
 -85.779
 -85.7685
 -85.7677
 -85.7701
 -85.7683
 -85.7938
 -85.7939
 -85.7952
 -85.7942
 -85.7676
 -85.7659
 -85.7669
 -85.7665
 -85.7785
 -85.778
 -85.778
 -85.7774
 -85.743
 -85.743
 -85.7428
 -85.743
 -85.7904
 -85.7906
 -85.7896
 -85.7889
 -85.7411
 -85.7411
 -85.7411
 -85.7526
 -85.7518
 -85.7519
 -85.7528
 -85.7457
 -85.7466
 -85.7495
 -85.747
 -85.7866
 -85.7863
 -85.7871
 -85.7878
 -85.7818
 -85.7835
 -85.782
 -85.7824
 -85.758
 -85.7566
 -85.7568
 -85.7558
 -85.8056
 -85.8051
 -85.8045
 -85.7125
 -85.7121
 -85.778
 -85.7789
 -85.7771
 -85.778
 -85.7273
 -85.7254
 -85.7234
 -85.7251
 -85.7816
 -85.782
 -85.7834
 -85.7826
 -85.7619
 -85.7577
 -85.7569
 -85.7566
 -85.7557
 -85.7882
 -85.7884
 -85.7887
 -85.7892
 -85.7968
 -85.796
 -85.7974
 -85.7964
 -85.743
 -85.7429
 -85.7846
 -85.7853
 -85.7873
 -85.7851
 -85.7748
 -85.7721
 -85.7752
 -85.7737
 -85.7519
 -85.7518
 -85.751
 -85.7539
 -85.7676
 -85.7661
 -85.7658
 -85.7676
 -85.792
 -85.7906
 -85.7935
 -85.8008
 -85.8004
 -85.8005
 -85.8003
 -85.804
 -85.8041
 -85.8044
 -85.7584
 -85.7576
 -85.7578
 -85.7589
 -85.7971
 -85.7965
 -85.796
 -85.7959
 -85.7466
 -85.7455
 -85.7459
 -85.7461
 -85.7813
 -85.7806
 -85.7815
 -85.7796
 -85.7747
 -85.7764
 -85.775
 -85.775
 -85.8006
 -85.8006
 -85.8005
 -85.8012
 -85.7834
 -85.7839
 -85.7831
 -85.7822
 -85.722
 -85.721
 -85.7208
 -85.7221
 -85.7652
 -85.7627
 -85.7649
 -85.7635
 -85.758
 -85.7597
 -85.7599
 -85.7577
 -85.7872
 -85.7875
 -85.7863
 -85.7857
 -85.7481
 -85.7471
 -85.7468
 -85.7469
 -85.7772
 -85.7762
 -85.776
 -85.7777
 -85.7556
 -85.7548
 -85.7542
 -85.7364
 -85.7355
 -85.7353
 -85.735
 -85.7772
 -85.7786
 -85.7766
 -85.7803
 -85.7802
 -85.7795
 -85.7514
 -85.7503
 -85.7492
 -85.7469
 -85.7467
 -85.7474
 -85.7479
 -85.7964
 -85.6969
 -85.6976
 -85.6974
 -85.6962
 -85.7935
 -85.7929
 -85.7944
 -85.7934
 -85.7428
 -85.7607
 -85.7603
 -85.7602
 -85.7619
 -85.758
 -85.7569
 -85.7601
 -85.7493
 -85.7516
 -85.7505
 -85.7499
 -85.7244
 -85.7241
 -85.7253
 -85.7228
 -85.7463
 -85.7473
 -85.7471
 -85.7732
 -85.7725
 -85.7724
 -85.7584
 -85.7578
 -85.8066
 -85.8057
 -85.8056
 -85.7458
 -85.7473
 -85.7454
 -85.7593
 -85.7605
 -85.7611
 -85.7969
 -85.798
 -85.798
 -85.7882
 -85.7883
 -85.7894
 -85.7885
 -85.7517
 -85.7523
 -85.753
 -85.7409
 -85.7394
 -85.8003
 -85.7997
 -85.8009
 -85.8006
 -85.7296
 -85.7303
 -85.728
 -85.7315
 -85.7455
 -85.745
 -85.708
 -85.7066
 -85.717
 -85.7167
 -85.7174
 -85.7602
 -85.7615
 -85.7597
 -85.7994
 -85.7983
 -85.7975
 -85.784
 -85.7839
 -85.7851
 -85.7534
 -85.7533
 -85.7548
 -85.7557
 -85.7543
 -85.7956
 -85.7405
 -85.7405
 -85.7411
 -85.7411
 -85.7586
 -85.7613
 -85.7593
 -85.7597
 -85.7871
 -85.7871
 -85.7879
 -85.7835
 -85.7837
 -85.7829
 -85.7832
 -85.7603
 -85.7597
 -85.7612
 -85.7625
 -85.7854
 -85.7857
 -85.7871
 -85.7869
 -85.7888
 -85.788
 -85.7887
 -85.7898
 -85.7689
 -85.7848
 -85.7855
 -85.7856
 -85.7861
 -85.8025
 -85.8029
 -85.8023
 -85.8019
 -85.7489
 -85.7462
 -85.7456
 -85.7474
 -85.8006
 -85.8015
 -85.8011
 -85.8009
 -85.7062
 -85.7073
 -85.7058
 -85.7991
 -85.7985
 -85.8001
 -85.7997
 -85.7497
 -85.7494
 -85.7479
 -85.748
 -85.7912
 -85.79
 -85.7909
 -85.7918
 -85.7459
 -85.746
 -85.7427
 -85.7435
 -85.8025
 -85.7911
 -85.7896
 -85.7904
 -85.7892
 -85.7964
 -85.7972
 -85.7971
 -85.7408
 -85.7416
 -85.7405
 -85.74
 -85.7862
 -85.7853
 -85.7852
 -85.7844
 -85.7768
 -85.7784
 -85.7784
 -85.7777
 -85.7744
 -85.7752
 -85.7736
 -85.7733
 -85.8054
 -85.8045
 -85.7627
 -85.7628
 -85.7626
 -85.7604
 -85.7618
 -85.7624
 -85.763
 -85.7854
 -85.7844
 -85.7865
 -85.7869
 -85.7842
 -85.7848
 -85.7846
 -85.7858
 -85.7779
 -85.7784
 -85.7791
 -85.7774
 -85.7508
 -85.7507
 -85.7554
 -85.7545
 -85.7544
 -85.7595
 -85.7606
 -85.7606
 -85.7608
 -85.7372
 -85.7358
 -85.7364
 -85.7362
 -85.7589
 -85.7574
 -85.7562
 -85.724
 -85.724
 -85.7257
 -85.7589
 -85.7588
 -85.7576
 -85.7599
 -85.75
 -85.7518
 -85.7492
 -85.7679
 -85.7863
 -85.7855
 -85.7873
 -85.7627
 -85.7624
 -85.7635
 -85.7643
 -85.7449
 -85.7449
 -85.7485
 -85.7468
 -85.77
 -85.7713
 -85.7716
 -85.7716
 -85.7902
 -85.7895
 -85.8055
 -85.8049
 -85.8045
 -85.8055
 -85.7859
 -85.786
 -85.7868
 -85.785
 -85.7646
 -85.7643
 -85.7642
 -85.7652
 -85.8023
 -85.8024
 -85.8039
 -85.8017
 -85.8018
 -85.8021
 -85.8025
 -85.7714
 -85.7699
 -85.769
 -85.7707
 -85.7446
 -85.7442
 -85.7452
 -85.7629
 -85.7628
 -85.7646
 -85.7629
 -85.7391
 -85.7373
 -85.7395
 -85.7371
 -85.7816
 -85.7816
 -85.782
 -85.7788
 -85.7433
 -85.7433
 -85.7433
 -85.7436
 -85.752
 -85.7529
 -85.7533
 -85.7526
 -85.7996
 -85.7984
 -85.8
 -85.7988
 -85.7709
 -85.771
 -85.7697
 -85.7711
 -85.7585
 -85.7576
 -85.7589
 -85.7577
 -85.7879
 -85.7879
 -85.7891
 -85.7911
 -85.7904
 -85.7901
 -85.7612
 -85.763
 -85.7623
 -85.7645
 -85.7651
 -85.7661
 -85.7655
 -85.7655
 -85.7449
 -85.7458
 -85.7446
 -85.7601
 -85.759
 -85.7581
 -85.701
 -85.6996
 -85.7009
 -85.7
 -85.7531
 -85.7536
 -85.7405
 -85.7414
 -85.7407
 -85.7391
 -85.7751
 -85.7736
 -85.775
 -85.7733
 -85.7249
 -85.7271
 -85.7278
 -85.7262
 -85.7488
 -85.7484
 -85.7471
 -85.7831
 -85.7834
 -85.7831
 -85.7824
 -85.7478
 -85.7492
 -85.7473
 -85.7439
 -85.7442
 -85.7423
 -85.743
 -85.7587
 -85.7579
 -85.758
 -85.7597
 -85.7884
 -85.7914
 -85.7166
 -85.7174
 -85.7519
 -85.7508
 -85.7655
 -85.7641
 -85.7647
 -85.7643
 -85.7812
 -85.7824
 -85.7814
 -85.7829
 -85.7679
 -85.7681
 -85.7689
 -85.7691
 -85.7397
 -85.737
 -85.7388
 -85.7384
 -85.7759
 -85.7744
 -85.775
 -85.7449
 -85.7442
 -85.7448
 -85.7447
 -85.7971
 -85.7968
 -85.7978
 -85.7963
 -85.7821
 -85.7821
 -85.7823
 -85.7808
 -85.7465
 -85.7474
 -85.746
 -85.7646
 -85.7628
 -85.7645
 -85.7652
 -85.7401
 -85.7396
 -85.7403
 -85.7479
 -85.7497
 -85.7491
 -85.7482
 -85.7477
 -85.7474
 -85.7488
 -85.7479
 -85.764
 -85.7626
 -85.7624
 -85.7617
 -85.8023
 -85.8019
 -85.8013
 -85.8016
 -85.7781
 -85.7798
 -85.7791
 -85.7795
 -85.763
 -85.761
 -85.7624
 -85.7721
 -85.7715
 -85.7713
 -85.7961
 -85.7945
 -85.796
 -85.795
 -85.7783
 -85.7784
 -85.7772
 -85.7792
 -85.7616
 -85.763
 -85.7632
 -85.7634
 -85.7372
 -85.7375
 -85.7463
 -85.7455
 -85.7469
 -85.7469
 -85.712
 -85.7113
 -85.7094
 -85.7116
 -85.7872
 -85.7873
 -85.7873
 -85.7866
 -85.7493
 -85.7477
 -85.7482
 -85.748
 -85.7682
 -85.767
 -85.7677
 -85.766
 -85.734
 -85.7333
 -85.7335
 -85.7331
 -85.773
 -85.7725
 -85.7718
 -85.7717
 -85.7643
 -85.785
 -85.7848
 -85.7834
 -85.7837
 -85.7619
 -85.7601
 -85.7597
 -85.7613
 -85.7605
 -85.7614
 -85.7625
 -85.7619
 -85.7567
 -85.7551
 -85.7555
 -85.7549
 -85.7456
 -85.744
 -85.7464
 -85.7919
 -85.7921
 -85.7924
 -85.7901
 -85.7607
 -85.7603
 -85.7603
 -85.7597
 -85.7905
 -85.791
 -85.792
 -85.7827
 -85.7815
 -85.7824
 -85.782
 -85.7886
 -85.7905
 -85.7896
 -85.7908
 -85.742
 -85.7436
 -85.7417
 -85.6961
 -85.6967
 -85.6969
 -85.7835
 -85.7852
 -85.7849
 -85.7732
 -85.7757
 -85.7745
 -85.7761
 -85.7584
 -85.759
 -85.7597
 -85.7582
 -85.763
 -85.7635
 -85.7614
 -85.7619
 -85.7205
 -85.7216
 -85.7187
 -85.7219
 -85.7684
 -85.7677
 -85.7675
 -85.7673
 -85.777
 -85.7773
 -85.7783
 -85.7763
 -85.7491
 -85.7493
 -85.7528
 -85.7502
 -85.7515
 -85.7517
 -85.7837
 -85.7826
 -85.7834
 -85.7832
 -85.7484
 -85.7496
 -85.7787
 -85.778
 -85.7403
 -85.6992
 -85.6989
 -85.6991
 -85.7003
 -85.7335
 -85.7353
 -85.8039
 -85.8048
 -85.804
 -85.7374
 -85.7389
 -85.7402
 -85.7389
 -85.7854
 -85.7851
 -85.752
 -85.7516
 -85.7519
 -85.752
 -85.7565
 -85.7591
 -85.7582
 -85.7852
 -85.7861
 -85.7855
 -85.7869
 -85.7795
 -85.7809
 -85.7795
 -85.7802
 -85.7933
 -85.7935
 -85.7948
 -85.7632
 -85.7617
 -85.7634
 -85.7613
 -85.7679
 -85.7935
 -85.7918
 -85.7932
 -85.7929
 -85.7411
 -85.7408
 -85.7415
 -85.7421
 -85.7714
 -85.7699
 -85.7712
 -85.7697
 -85.7873
 -85.7856
 -85.7869
 -85.7858
 -85.707
 -85.7075
 -85.7082
 -85.7086
 -85.7466
 -85.8023
 -85.7597
 -85.7617
 -85.7603
 -85.7588
 -85.7706
 -85.7718
 -85.7701
 -85.7697
 -85.7496
 -85.7476
 -85.7488
 -85.7492
 -85.7733
 -85.7726
 -85.7733
 -85.7736
 -85.7455
 -85.7457
 -85.7469
 -85.7436
 -85.7447
 -85.7456
 -85.7446
 -85.7624
 -85.7638
 -85.7614
 -85.7626
 -85.7874
 -85.7883
 -85.7859
 -85.8055
 -85.8064
 -85.8056
 -85.8053
 -85.7196
 -85.7181
 -85.7177
 -85.7667
 -85.7669
 -85.7636
 -85.7643
 -85.7627
 -85.7649
 -85.7985
 -85.7981
 -85.7983
 -85.7989
 -85.7835
 -85.7825
 -85.7832
 -85.7822
 -85.7453
 -85.7475
 -85.746
 -85.7301
 -85.7617
 -85.7603
 -85.7607
 -85.7619
 -85.7651
 -85.7659
 -85.7656
 -85.7823
 -85.7817
 -85.7817
 -85.7828
 -85.7882
 -85.7865
 -85.7876
 -85.787
 -85.7601
 -85.7593
 -85.7843
 -85.7842
 -85.7849
 -85.7859
 -85.7743
 -85.7739
 -85.7741
 -85.7754
 -85.8014
 -85.8018
 -85.7773
 -85.7759
 -85.7774
 -85.7767
 -85.7844
 -85.785
 -85.7854
 -85.7859
 -85.7823
 -85.7832
 -85.7822
 -85.7823
 -85.767
 -85.7677
 -85.7627
 -85.7635
 -85.7622
 -85.7614
 -85.7557
 -85.7544
 -85.7552
 -85.7553
 -85.774
 -85.775
 -85.775
 -85.774
 -85.7443
 -85.7454
 -85.7462
 -85.7468
 -85.7494
 -85.749
 -85.7485
 -85.7491
 -85.7155
 -85.7163
 -85.716
 -85.7143
 -85.7556
 -85.7534
 -85.7722
 -85.7701
 -85.7718
 -85.7709
 -85.7598
 -85.7593
 -85.7605
 -85.7613
 -85.7696
 -85.7705
 -85.7711
 -85.7702
 -85.7637
 -85.7637
 -85.7848
 -85.7842
 -85.8037
 -85.8039
 -85.8039
 -85.8042
 -85.7388
 -85.7628
 -85.7627
 -85.7633
 -85.7643
 -85.7694
 -85.7678
 -85.7683
 -85.7683
 -85.753
 -85.752
 -85.7516
 -85.7503
 -85.7818
 -85.7801
 -85.7817
 -85.7802
 -85.7704
 -85.7694
 -85.7689
 -85.7703
 -85.7453
 -85.745
 -85.7459
 -85.7441
 -85.7436
 -85.7582
 -85.7601
 -85.7582
 -85.7597
 -85.7579
 -85.7603
 -85.7583
 -85.7575
 -85.7458
 -85.7458
 -85.7446
 -85.7457
 -85.7496
 -85.7502
 -85.7522
 -85.7514
 -85.7639
 -85.7652
 -85.7629
 -85.7628
 -85.746
 -85.7453
 -85.7448
 -85.7452
 -85.7726
 -85.7732
 -85.7712
 -85.7534
 -85.7534
 -85.7531
 -85.7528
 -85.727
 -85.7282
 -85.772
 -85.7728
 -85.7733
 -85.7708
 -85.7727
 -85.7719
 -85.7727
 -85.7411
 -85.7421
 -85.7428
 -85.737
 -85.7378
 -85.7377
 -85.7371
 -85.7782
 -85.778
 -85.7789
 -85.7773
 -85.7708
 -85.7688
 -85.7709
 -85.79
 -85.788
 -85.7889
 -85.7659
 -85.7646
 -85.765
 -85.7932
 -85.7933
 -85.7934
 -85.7112
 -85.7099
 -85.7103
 -85.7112
 -85.8015
 -85.8018
 -85.8014
 -85.8018
 -85.7555
 -85.7543
 -85.7742
 -85.7726
 -85.745
 -85.7452
 -85.7451
 -85.7464
 -85.7765
 -85.776
 -85.7777
 -85.7858
 -85.7868
 -85.7867
 -85.7869
 -85.7928
 -85.7911
 -85.7414
 -85.7415
 -85.7411
 -85.7726
 -85.7722
 -85.771
 -85.7514
 -85.7498
 -85.7514
 -85.7415
 -85.7415
 -85.7408
 -85.7403
 -85.7618
 -85.7622
 -85.7609
 -85.7627
 -85.7599
 -85.7582
 -85.7588
 -85.7596
 -85.7806
 -85.78
 -85.78
 -85.7815
 -85.7853
 -85.7846
 -85.7851
 -85.7837
 -85.7579
 -85.7575
 -85.7591
 -85.7782
 -85.7779
 -85.7771
 -85.783
 -85.7841
 -85.7832
 -85.7835
 -85.8069
 -85.8065
 -85.8071
 -85.7677
 -85.7673
 -85.7672
 -85.7819
 -85.7827
 -85.7809
 -85.7657
 -85.7666
 -85.7649
 -85.7544
 -85.7527
 -85.753
 -85.7418
 -85.7426
 -85.7421
 -85.7424
 -85.766
 -85.7655
 -85.7671
 -85.7659
 -85.7513
 -85.7507
 -85.7495
 -85.7449
 -85.7464
 -85.7815
 -85.7805
 -85.7826
 -85.7814
 -85.7815
 -85.7825
 -85.7812
 -85.7801
 -85.7461
 -85.7476
 -85.7483
 -85.7488
 -85.7453
 -85.744
 -85.7446
 -85.7437
 -85.7323
 -85.7315
 -85.7324
 -85.731
 -85.7977
 -85.7982
 -85.7914
 -85.79
 -85.7907
 -85.7915
 -85.8011
 -85.7536
 -85.7552
 -85.7533
 -85.7688
 -85.7694
 -85.7681
 -85.7679
 -85.7463
 -85.7461
 -85.7645
 -85.7644
 -85.7654
 -85.7398
 -85.7403
 -85.7895
 -85.7897
 -85.7909
 -85.7888
 -85.794
 -85.7937
 -85.7955
 -85.7947
 -85.7869
 -85.7873
 -85.7859
 -85.7552
 -85.7563
 -85.7562
 -85.7929
 -85.7928
 -85.7933
 -85.7937
 -85.751
 -85.7491
 -85.7506
 -85.7513
 -85.788
 -85.7872
 -85.7871
 -85.788
 -85.7515
 -85.7496
 -85.7492
 -85.7523
 -85.7426
 -85.7433
 -85.7418
 -85.8014
 -85.8029
 -85.8021
 -85.8018
 -85.7438
 -85.7444
 -85.7441
 -85.7616
 -85.7623
 -85.7635
 -85.7624
 -85.7991
 -85.8002
 -85.7997
 -85.7509
 -85.7496
 -85.751
 -85.75
 -85.778
 -85.7969
 -85.7974
 -85.7953
 -85.7966
 -85.7396
 -85.74
 -85.7407
 -85.74
 -85.7824
 -85.7802
 -85.7817
 -85.7824
 -85.768
 -85.7686
 -85.7663
 -85.7426
 -85.7416
 -85.743
 -85.7396
 -85.7794
 -85.7792
 -85.7801
 -85.7494
 -85.7489
 -85.713
 -85.7115
 -85.7134
 -85.7141
 -85.733
 -85.7297
 -85.7294
 -85.7936
 -85.793
 -85.7959
 -85.7943
 -85.7942
 -85.7948
 -85.7358
 -85.7366
 -85.7346
 -85.7368
 -85.7598
 -85.7606
 -85.7605
 -85.7609
 -85.7643
 -85.7624
 -85.7625
 -85.7633
 -85.7714
 -85.7709
 -85.7725
 -85.771
 -85.7724
 -85.7701
 -85.7717
 -85.7706
 -85.799
 -85.7451
 -85.7446
 -85.7452
 -85.7447
 -85.7997
 -85.7992
 -85.8003
 -85.7737
 -85.7722
 -85.7716
 -85.7721
 -85.7415
 -85.743
 -85.7434
 -85.77
 -85.7686
 -85.7697
 -85.7685
 -85.7662
 -85.7802
 -85.7807
 -85.7821
 -85.7816
 -85.7519
 -85.7519
 -85.7519
 -85.7665
 -85.7691
 -85.7683
 -85.8
 -85.7994
 -85.7985
 -85.7994
 -85.7651
 -85.7644
 -85.7641
 -85.7071
 -85.7079
 -85.7061
 -85.765
 -85.764
 -85.7648
 -85.7626
 -85.7811
 -85.7823
 -85.7821
 -85.7677
 -85.7677
 -85.7932
 -85.7937
 -85.7926
 -85.7927
 -85.787
 -85.7881
 -85.7873
 -85.7873
 -85.8026
 -85.8024
 -85.8018
 -85.8013
 -85.7718
 -85.7691
 -85.7711
 -85.7718
 -85.7841
 -85.7838
 -85.7832
 -85.7826
 -85.7932
 -85.7941
 -85.7948
 -85.7501
 -85.751
 -85.7487
 -85.7496
 -85.7632
 -85.7647
 -85.757
 -85.756
 -85.7573
 -85.7566
 -85.7812
 -85.7808
 -85.781
 -85.7818
 -85.765
 -85.7664
 -85.7659
 -85.7646
 -85.7804
 -85.7798
 -85.7817
 -85.7801
 -85.7672
 -85.7677
 -85.7686
 -85.769
 -85.7659
 -85.7645
 -85.7648
 -85.7918
 -85.791
 -85.7918
 -85.7976
 -85.7973
 -85.7971
 -85.7989
 -85.7951
 -85.795
 -85.7959
 -85.7846
 -85.7861
 -85.7848
 -85.7184
 -85.7179
 -85.7167
 -85.763
 -85.7649
 -85.7634
 -85.791
 -85.7916
 -85.791
 -85.7908
 -85.7629
 -85.7636
 -85.7628
 -85.7722
 -85.7731
 -85.7727
 -85.7716
 -85.7779
 -85.7748
 -85.776
 -85.7757
 -85.7661
 -85.7672
 -85.7671
 -85.7682
 -85.7476
 -85.7486
 -85.7477
 -85.7472
 -85.7635
 -85.7723
 -85.7722
 -85.7731
 -85.7704
 -85.7437
 -85.744
 -85.7442
 -85.7442
 -85.7419
 -85.7431
 -85.7422
 -85.7429
 -85.7455
 -85.7459
 -85.7458
 -85.7449
 -85.7785
 -85.7785
 -85.78
 -85.7808
 -85.7502
 -85.7493
 -85.7499
 -85.7502
 -85.8024
 -85.8013
 -85.8022
 -85.8014
 -85.7296
 -85.7304
 -85.7317
 -85.7314
 -85.7486
 -85.7488
 -85.7484
 -85.7391
 -85.7382
 -85.7377
 -85.7378
 -85.7439
 -85.743
 -85.7448
 -85.7448
 -85.745
 -85.7686
 -85.7684
 -85.7692
 -85.7715
 -85.7979
 -85.7969
 -85.7965
 -85.7976
 -85.7974
 -85.798
 -85.7971
 -85.7467
 -85.7458
 -85.8008
 -85.8017
 -85.8006
 -85.7921
 -85.7918
 -85.792
 -85.7931
 -85.7439
 -85.7433
 -85.7439
 -85.802
 -85.8023
 -85.8015
 -85.8026
 -85.7561
 -85.7566
 -85.7576
 -85.7553
 -85.7459
 -85.744
 -85.7448
 -85.7461
 -85.7386
 -85.7406
 -85.7397
 -85.7394
 -85.7238
 -85.7242
 -85.723
 -85.7229
 -85.7756
 -85.778
 -85.7769
 -85.7776
 -85.7577
 -85.7578
 -85.7571
 -85.7554
 -85.8014
 -85.8006
 -85.8014
 -85.7049
 -85.7067
 -85.7056
 -85.7076
 -85.7327
 -85.7345
 -85.7333
 -85.7349
 -85.8013
 -85.8025
 -85.8019
 -85.8018
 -85.767
 -85.7671
 -85.7686
 -85.7948
 -85.7962
 -85.7966
 -85.7463
 -85.7461
 -85.7441
 -85.8016
 -85.8011
 -85.8008
 -85.8013
 -85.7919
 -85.7913
 -85.7909
 -85.79
 -85.752
 -85.7529
 -85.7541
 -85.7527
 -85.7577
 -85.7561
 -85.7575
 -85.7556
 -85.7877
 -85.7877
 -85.7878
 -85.7892
 -85.7706
 -85.7699
 -85.7688
 -85.7694
 -85.7272
 -85.7289
 -85.7291
 -85.7287
 -85.7934
 -85.7911
 -85.7926
 -85.7919
 -85.8029
 -85.7682
 -85.7686
 -85.7697
 -85.7696
 -85.7969
 -85.7976
 -85.7973
 -85.7985
 -85.7439
 -85.7439
 -85.7441
 -85.7442
 -85.8006
 -85.8013
 -85.8001
 -85.7998
 -85.7653
 -85.7648
 -85.7583
 -85.7576
 -85.7588
 -85.7592
 -85.7864
 -85.785
 -85.7849
 -85.785
 -85.7723
 -85.7739
 -85.7734
 -85.7573
 -85.7571
 -85.7577
 -85.7872
 -85.7869
 -85.7856
 -85.7857
 -85.7835
 -85.7828
 -85.7842
 -85.7831
 -85.747
 -85.7461
 -85.7457
 -85.7662
 -85.7692
 -85.7694
 -85.7674
 -85.7299
 -85.7292
 -85.731
 -85.7286
 -85.7271
 -85.8017
 -85.7996
 -85.8017
 -85.8003
 -85.7686
 -85.7679
 -85.7671
 -85.7687
 -85.7945
 -85.7953
 -85.7624
 -85.76
 -85.7603
 -85.751
 -85.7497
 -85.7518
 -85.7514
 -85.8008
 -85.8004
 -85.8013
 -85.8013
 -85.7455
 -85.7459
 -85.7457
 -85.752
 -85.7515
 -85.7527
 -85.7517
 -85.7568
 -85.7587
 -85.7573
 -85.7554
 -85.7808
 -85.7831
 -85.7814
 -85.7822
 -85.7493
 -85.7512
 -85.7502
 -85.75
 -85.7854
 -85.7761
 -85.7777
 -85.7782
 -85.7756
 -85.7973
 -85.7977
 -85.7964
 -85.7997
 -85.7994
 -85.7992
 -85.7985
 -85.7772
 -85.7781
 -85.7764
 -85.7773
 -85.8041
 -85.804
 -85.8039
 -85.8029
 -85.7571
 -85.7734
 -85.7713
 -85.7714
 -85.7729
 -85.7688
 -85.7664
 -85.7677
 -85.7681
 -85.7242
 -85.7261
 -85.7267
 -85.7248
 -85.7642
 -85.7646
 -85.7651
 -85.7633
 -85.7617
 -85.7618
 -85.7623
 -85.7632
 -85.7629
 -85.7631
 -85.7644
 -85.7948
 -85.7938
 -85.7933
 -85.7617
 -85.7598
 -85.7603
 -85.761
 -85.7932
 -85.7949
 -85.7941
 -85.7666
 -85.7654
 -85.7702
 -85.7712
 -85.7708
 -85.7699
 -85.7694
 -85.7698
 -85.768
 -85.7684
 -85.7703
 -85.7697
 -85.7961
 -85.7966
 -85.7966
 -85.7574
 -85.7991
 -85.7722
 -85.7733
 -85.772
 -85.7706
 -85.7437
 -85.7437
 -85.7421
 -85.7474
 -85.749
 -85.7498
 -85.7698
 -85.7704
 -85.7688
 -85.7654
 -85.7654
 -85.7661
 -85.7669
 -85.7688
 -85.7675
 -85.7697
 -85.7677
 -85.7058
 -85.7062
 -85.7045
 -85.7872
 -85.7858
 -85.7869
 -85.7653
 -85.7658
 -85.7903
 -85.7887
 -85.7893
 -85.7886
 -85.7742
 -85.7755
 -85.7742
 -85.7247
 -85.7254
 -85.7232
 -85.7239
 -85.7614
 -85.7596
 -85.7612
 -85.7597
 -85.7481
 -85.7475
 -85.7469
 -85.7465
 -85.7802
 -85.7783
 -85.7795
 -85.7802
 -85.7549
 -85.7534
 -85.7546
 -85.7526
 -85.7297
 -85.7294
 -85.7295
 -85.757
 -85.7565
 -85.7557
 -85.7561
 -85.7804
 -85.7819
 -85.7812
 -85.7815
 -85.7671
 -85.7688
 -85.769
 -85.7681
 -85.7504
 -85.7497
 -85.7505
 -85.76
 -85.7588
 -85.7593
 -85.7592
 -85.7476
 -85.746
 -85.7478
 -85.7465
 -85.7398
 -85.7418
 -85.7412
 -85.7393
 -85.8007
 -85.8012
 -85.8007
 -85.8011
 -85.7461
 -85.7472
 -85.7469
 -85.7472
 -85.7496
 -85.7486
 -85.7499
 -85.7499
 -85.7779
 -85.7796
 -85.7792
 -85.7802
 -85.7559
 -85.7556
 -85.7571
 -85.7564
 -85.8062
 -85.8064
 -85.8064
 -85.8066
 -85.763
 -85.7623
 -85.7636
 -85.7426
 -85.7417
 -85.742
 -85.7433
 -85.7456
 -85.745
 -85.7454
 -85.745
 -85.7457
 -85.7433
 -85.7831
 -85.7817
 -85.783
 -85.7812
 -85.8057
 -85.8051
 -85.8055
 -85.8053
 -85.7594
 -85.758
 -85.7587
 -85.7579
 -85.7473
 -85.7466
 -85.7464
 -85.7798
 -85.7782
 -85.7783
 -85.7794
 -85.7629
 -85.7628
 -85.7633
 -85.7647
 -85.7511
 -85.7513
 -85.751
 -85.7522
 -85.7416
 -85.7436
 -85.7424
 -85.7881
 -85.7894
 -85.79
 -85.7884
 -85.7924
 -85.7922
 -85.7912
 -85.7596
 -85.7593
 -85.7604
 -85.7614
 -85.7609
 -85.7602
 -85.762
 -85.7503
 -85.752
 -85.7528
 -85.7522
 -85.7792
 -85.7785
 -85.7776
 -85.7455
 -85.7455
 -85.744
 -85.7681
 -85.7697
 -85.7691
 -85.7923
 -85.7909
 -85.7919
 -85.7817
 -85.7815
 -85.7564
 -85.7574
 -85.7561
 -85.7573
 -85.7579
 -85.7572
 -85.7649
 -85.763
 -85.7511
 -85.7401
 -85.7403
 -85.7392
 -85.7938
 -85.7937
 -85.7918
 -85.7597
 -85.761
 -85.7605
 -85.7594
 -85.7521
 -85.7672
 -85.768
 -85.7797
 -85.7802
 -85.7793
 -85.7807
 -85.767
 -85.7657
 -85.7673
 -85.7601
 -85.7608
 -85.7586
 -85.7602
 -85.7568
 -85.7593
 -85.7617
 -85.7604
 -85.7596
 -85.7623
 -85.7953
 -85.7942
 -85.794
 -85.7949
 -85.7963
 -85.797
 -85.7981
 -85.7979
 -85.7453
 -85.7465
 -85.7663
 -85.7663
 -85.7657
 -85.7643
 -85.7732
 -85.7736
 -85.7743
 -85.7748
 -85.7774
 -85.7787
 -85.7774
 -85.777
 -85.7651
 -85.764
 -85.7636
 -85.7652
 -85.7622
 -85.7634
 -85.7626
 -85.762
 -85.7921
 -85.7904
 -85.7921
 -85.7919
 -85.7467
 -85.7484
 -85.749
 -85.7501
 -85.7473
 -85.7489
 -85.7481
 -85.7875
 -85.7886
 -85.7902
 -85.7908
 -85.7504
 -85.7516
 -85.751
 -85.752
 -85.799
 -85.7983
 -85.799
 -85.7987
 -85.7931
 -85.7925
 -85.793
 -85.7921
 -85.7583
 -85.759
 -85.7577
 -85.7584
 -85.7821
 -85.7826
 -85.782
 -85.7806
 -85.7515
 -85.7523
 -85.7535
 -85.7538
 -85.787
 -85.7862
 -85.7865
 -85.7462
 -85.747
 -85.746
 -85.7466
 -85.7755
 -85.7748
 -85.7758
 -85.7764
 -85.7569
 -85.7573
 -85.7852
 -85.7874
 -85.7864
 -85.786
 -85.788
 -85.7877
 -85.7867
 -85.7633
 -85.7653
 -85.7636
 -85.7894
 -85.7895
 -85.79
 -85.7908
 -85.7311
 -85.7316
 -85.7328
 -85.7324
 -85.751
 -85.7516
 -85.7527
 -85.7532
 -85.7756
 -85.7737
 -85.774
 -85.7756
 -85.796
 -85.7964
 -85.7956
 -85.7966
 -85.793
 -85.7941
 -85.7942
 -85.7933
 -85.7961
 -85.7959
 -85.7963
 -85.7957
 -85.7962
 -85.754
 -85.7549
 -85.7539
 -85.7553
 -85.7471
 -85.7476
 -85.7455
 -85.7468
 -85.7534
 -85.7535
 -85.7567
 -85.7582
 -85.7571
 -85.7568
 -85.7611
 -85.761
 -85.7626
 -85.761
 -85.7482
 -85.7483
 -85.7471
 -85.7691
 -85.7681
 -85.7684
 -85.7678
 -85.8067
 -85.8064
 -85.8058
 -85.7544
 -85.7541
 -85.7548
 -85.7563
 -85.7898
 -85.7881
 -85.7891
 -85.7895
 -85.7806
 -85.7822
 -85.7816
 -85.7669
 -85.7661
 -85.7676
 -85.782
 -85.7835
 -85.782
 -85.792
 -85.7911
 -85.7807
 -85.7808
 -85.7807
 -85.7518
 -85.7523
 -85.7526
 -85.7511
 -85.7976
 -85.7983
 -85.7977
 -85.7973
 -85.7759
 -85.7773
 -85.7765
 -85.7205
 -85.7185
 -85.7177
 -85.7201
 -85.7422
 -85.7413
 -85.772
 -85.7569
 -85.7591
 -85.7577
 -85.757
 -85.769
 -85.7707
 -85.7706
 -85.7861
 -85.7862
 -85.7852
 -85.7863
 -85.7998
 -85.8002
 -85.7666
 -85.7661
 -85.7661
 -85.7651
 -85.7401
 -85.7386
 -85.7385
 -85.7401
 -85.7936
 -85.7943
 -85.7942
 -85.7937
 -85.7753
 -85.7759
 -85.775
 -85.7083
 -85.7073
 -85.7061
 -85.7062
 -85.7465
 -85.7462
 -85.7452
 -85.754
 -85.7551
 -85.753
 -85.7543
 -85.7751
 -85.7754
 -85.7747
 -85.7765
 -85.7667
 -85.7678
 -85.7431
 -85.7435
 -85.7434
 -85.7434
 -85.7764
 -85.7779
 -85.7541
 -85.752
 -85.7529
 -85.7535
 -85.7596
 -85.7602
 -85.7584
 -85.7597
 -85.7673
 -85.7689
 -85.7693
 -85.7681
 -85.7526
 -85.7517
 -85.7501
 -85.7802
 -85.7785
 -85.7803
 -85.7787
 -85.7881
 -85.7893
 -85.7904
 -85.7883
 -85.7863
 -85.7865
 -85.7867
 -85.7877
 -85.7387
 -85.7372
 -85.7381
 -85.7367
 -85.7682
 -85.7671
 -85.7159
 -85.7142
 -85.7147
 -85.7131
 -85.7593
 -85.7579
 -85.7571
 -85.8005
 -85.7006
 -85.7012
 -85.7013
 -85.6989
 -85.7646
 -85.7654
 -85.7646
 -85.7646
 -85.7562
 -85.7577
 -85.7566
 -85.787
 -85.7882
 -85.7883
 -85.7869
 -85.7876
 -85.7871
 -85.7886
 -85.7886
 -85.786
 -85.7867
 -85.7856
 -85.785
 -85.7523
 -85.7536
 -85.7517
 -85.7534
 -85.7458
 -85.7452
 -85.7443
 -85.7444
 -85.7771
 -85.7773
 -85.7787
 -85.7771
 -85.7602
 -85.7581
 -85.761
 -85.7597
 -85.8055
 -85.7964
 -85.7967
 -85.7741
 -85.7741
 -85.761
 -85.7598
 -85.7601
 -85.7975
 -85.799
 -85.7981
 -85.7977
 -85.7636
 -85.763
 -85.774
 -85.7728
 -85.7246
 -85.7265
 -85.7244
 -85.7263
 -85.7523
 -85.7517
 -85.7507
 -85.7513
 -85.7759
 -85.7777
 -85.7763
 -85.7772
 -85.728
 -85.7263
 -85.7277
 -85.7284
 -85.803
 -85.8025
 -85.8036
 -85.8028
 -85.7965
 -85.7952
 -85.7995
 -85.7987
 -85.7978
 -85.7996
 -85.7887
 -85.7897
 -85.7574
 -85.7581
 -85.7568
 -85.7033
 -85.7049
 -85.7028
 -85.703
 -85.7302
 -85.7314
 -85.7317
 -85.7304
 -85.7972
 -85.798
 -85.7972
 -85.7967
 -85.7825
 -85.7844
 -85.7833
 -85.7702
 -85.7687
 -85.7677
 -85.7693
 -85.7541
 -85.7563
 -85.7546
 -85.7541
 -85.7922
 -85.7933
 -85.7929
 -85.7977
 -85.7682
 -85.7701
 -85.7519
 -85.7525
 -85.7803
 -85.7821
 -85.78
 -85.7805
 -85.7457
 -85.744
 -85.7463
 -85.7439
 -85.7447
 -85.7433
 -85.7439
 -85.7061
 -85.7086
 -85.708
 -85.7075
 -85.7538
 -85.7548
 -85.7546
 -85.756
 -85.7929
 -85.7931
 -85.7904
 -85.7915
 -85.791
 -85.7914
 -85.7512
 -85.7511
 -85.7525
 -85.7505
 -85.7862
 -85.7855
 -85.7867
 -85.7809
 -85.781
 -85.7814
 -85.7801
 -85.791
 -85.7916
 -85.7903
 -85.792
 -85.7542
 -85.7557
 -85.7551
 -85.7543
 -85.7999
 -85.7984
 -85.7622
 -85.7207
 -85.7216
 -85.7226
 -85.7234
 -85.7857
 -85.7855
 -85.7865
 -85.7304
 -85.7292
 -85.7296
 -85.7285
 -85.7801
 -85.78
 -85.7798
 -85.7812
 -85.7431
 -85.7431
 -85.7416
 -85.7435
 -85.7488
 -85.7485
 -85.7497
 -85.7499
 -85.7783
 -85.7792
 -85.7792
 -85.7573
 -85.7578
 -85.757
 -85.756
 -85.7768
 -85.7763
 -85.7773
 -85.7751
 -85.7726
 -85.7717
 -85.7889
 -85.7894
 -85.7893
 -85.781
 -85.7813
 -85.78
 -85.72
 -85.7203
 -85.7219
 -85.7205
 -85.7455
 -85.7468
 -85.7449
 -85.7472
 -85.7925
 -85.7907
 -85.7909
 -85.7908
 -85.7896
 -85.7893
 -85.7496
 -85.7525
 -85.7498
 -85.7813
 -85.7798
 -85.7803
 -85.7794
 -85.7807
 -85.7804
 -85.7798
 -85.753
 -85.7523
 -85.7532
 -85.7534
 -85.7977
 -85.798
 -85.7578
 -85.7573
 -85.7579
 -85.7588
 -85.7514
 -85.7515
 -85.7521
 -85.7825
 -85.783
 -85.7661
 -85.7653
 -85.7662
 -85.7673
 -85.7445
 -85.7441
 -85.7778
 -85.7775
 -85.7585
 -85.7562
 -85.7566
 -85.7577
 -85.7693
 -85.7693
 -85.7682
 -85.7704
 -85.7692
 -85.7683
 -85.7693
 -85.7354
 -85.7355
 -85.7347
 -85.7378
 -85.7297
 -85.7298
 -85.731
 -85.7307
 -85.7809
 -85.7797
 -85.7785
 -85.7796
 -85.7936
 -85.7938
 -85.7929
 -85.7928
