 32.7137
 32.73
 32.8032
 32.8394
 31.3246
 31.3551
 31.2303
 31.183
 32.0232
 32.0893
 32.0009
 32.1098
 31.8968
 31.9226
 32.0817
 32.0463
 30.7625
 30.6206
 30.8007
 30.8171
 30.8036
 30.8709
 30.7364
 30.8449
 32.2715
 32.1079
 32.1887
 32.2193
 32.0622
 32.1552
 32.1739
 32.0482
 30.7426
 30.7947
 30.8912
 30.7738
 30.8286
 30.8207
 30.8514
 30.7162
 31.3654
 31.2346
 31.432
 31.4803
 31.7892
 31.7945
 31.8655
 31.8032
 32.6369
 32.681
 32.6762
 32.6425
 31.5416
 31.6291
 31.6915
 31.6143
 32.2802
 32.2782
 32.2424
 32.1959
 32.5993
 32.5692
 32.6446
 32.5933
 31.1545
 31.0818
 31.1523
 31.0436
 31.6092
 31.6619
 31.5912
 31.6585
 32.4469
 32.4456
 32.4424
 32.4073
 30.9948
 31.0368
 30.9744
 30.8694
 32.0941
 31.9387
 32.1706
 31.997
 30.4978
 30.5142
 30.3894
 30.361
 28.1563
 27.8112
 27.7954
 28.2467
 31.7085
 31.6183
 31.6991
 31.7371
 32.5439
 32.5601
 32.3932
 32.4299
 32.2205
 32.2344
 32.267
 32.2972
 32.6542
 32.6306
 32.591
 32.6259
 32.51
 32.4131
 32.4561
 32.4697
 32.544
 32.5618
 32.5831
 32.5511
 31.62
 31.6411
 31.6561
 31.7445
 32.3782
 32.2152
 32.4065
 32.3632
 32.5553
 32.4971
 32.5424
 32.5446
 31.8819
 31.9688
 31.8925
 31.9637
 31.2733
 31.3176
 31.3171
 31.3152
 32.649
 32.6618
 32.655
 32.6407
 32.7684
 32.7685
 32.8233
 32.824
 32.0889
 32.1813
 32.137
 32.0885
 31.6744
 31.8036
 31.7727
 31.8505
 31.6763
 31.651
 31.4976
 31.5294
 30.2166
 30.3217
 30.219
 30.3478
 32.221
 32.2552
 32.2185
 32.3081
 31.6305
 31.5542
 31.5834
 31.6587
 32.0396
 32.062
 32.1234
 31.8988
 31.934
 32.0004
 31.9759
 31.8782
 30.6441
 30.6819
 30.6016
 30.653
 32.616
 32.5962
 32.625
 32.6357
 31.842
 31.712
 31.7479
 31.7107
 32.7501
 32.7081
 32.6342
 32.5995
 32.7158
 32.7051
 32.7078
 32.712
 32.4054
 32.4431
 32.4633
 32.4934
 32.6594
 32.695
 32.671
 32.5906
 32.0186
 32.1115
 32.0703
 32.0367
 32.8252
 32.8272
 32.732
 32.8074
 32.3051
 32.2278
 32.2096
 32.2399
 32.8136
 32.7699
 32.8168
 32.776
 31.8891
 31.9032
 31.8351
 31.9955
 31.5227
 31.561
 31.479
 31.3956
 31.6173
 31.7021
 31.6607
 31.7879
 32.8353
 32.8773
 32.8607
 32.8662
 32.4837
 32.4955
 32.5466
 32.4536
 29.2318
 28.9139
 28.7556
 29.0733
 32.7016
 32.6751
 32.6691
 32.7022
 32.5406
 32.387
 32.4773
 32.4741
 32.6513
 32.6552
 32.6683
 32.6838
 32.8863
 32.8537
 32.8348
 32.7963
 32.2761
 32.1982
 32.2049
 32.287
 31.0178
 30.9103
 30.8261
 31.0145
 30.7665
 30.744
 30.6781
 30.6454
 32.4433
 32.3157
 32.4742
 32.4253
 32.6982
 32.6847
 32.6923
 32.667
 31.5953
 31.5736
 31.5074
 31.608
 32.3947
 31.9946
 32.2272
 32.27
 32.1304
 32.1323
 31.9472
 32.3111
 28.253
 27.8834
 28.3612
 28.1668
 32.0883
 31.9321
 32.0433
 31.9522
 32.7828
 32.8517
 32.8416
 32.8293
 32.542
 32.5271
 32.4899
 32.6348
 30.6228
 30.4967
 30.5323
 30.4802
 32.5667
 32.6043
 32.5388
 32.6002
 32.6116
 32.5534
 32.5582
 32.5858
 32.667
 32.6872
 32.6629
 32.6219
 32.4145
 32.3733
 32.339
 32.3167
 32.5574
 32.5801
 32.5587
 32.5679
 32.6778
 32.6625
 32.6633
 32.6625
 32.4007
 32.4096
 32.4504
 32.4265
 32.5338
 32.4568
 32.589
 32.536
 26.9359
 26.6655
 27.2876
 27.438
 32.3716
 32.5069
 32.5091
 32.4194
 31.9041
 32.0423
 31.9292
 32.0564
 31.9469
 32.0473
 31.962
 32.1231
 31.5151
 31.6644
 31.6242
 31.5958
 32.2079
 32.2274
 32.3051
 32.3583
 30.3499
 30.3888
 30.4847
 30.3191
 31.7944
 31.6977
 31.8321
 31.7663
 31.7884
 31.7555
 31.5881
 31.6582
 32.7565
 32.7827
 32.7312
 32.775
 32.51
 32.5761
 32.462
 32.5111
 32.5525
 32.5221
 32.4843
 31.9966
 32.0133
 31.9648
 31.9551
 31.7879
 31.8631
 31.9199
 31.7851
 32.7512
 32.6938
 32.6844
 32.7131
 31.9884
 31.8634
 32.0285
 32.9377
 32.9451
 32.9239
 32.9291
 32.4853
 32.4246
 32.4427
 32.5048
 31.1161
 31.3057
 31.2827
 31.081
 32.6069
 32.6674
 32.7406
 32.7647
 32.6989
 32.7062
 32.718
 32.6743
 32.0726
 32.1674
 32.1606
 32.1312
 31.8375
 31.888
 31.76
 31.7731
 32.1691
 32.072
 32.0358
 31.928
 32.7028
 32.7352
 32.7065
 32.6776
 32.6333
 32.5745
 32.5388
 32.6637
 30.9448
 30.8769
 30.909
 30.8712
 32.0094
 31.9329
 31.885
 31.9358
 32.523
 32.6085
 32.5705
 32.5248
 28.8525
 28.5427
 28.923
 28.9522
 32.5531
 32.5285
 32.4429
 32.4597
 31.0859
 31.2367
 31.0879
 31.2363
 32.8153
 32.7883
 32.8448
 32.7845
 32.7892
 32.7863
 32.7291
 32.7369
 32.2793
 32.2006
 32.3115
 32.3214
 31.1867
 31.1856
 31.181
 31.2657
 32.7736
 32.7632
 32.7645
 32.73
 32.1072
 32.0869
 32.0713
 32.15
 32.0191
 31.9102
 31.9422
 32.0706
 31.1062
 31.2112
 31.1004
 31.0837
 32.3437
 32.1851
 32.252
 32.3229
 31.1742
 31.3295
 31.1503
 31.2471
 32.5284
 32.5552
 32.5413
 32.5631
 32.5274
 32.4502
 32.4725
 32.4856
 32.6262
 32.6303
 32.6451
 32.6365
 32.6293
 32.6255
 32.6528
 32.5808
 30.5183
 30.3837
 30.3565
 30.3629
 32.6132
 32.6699
 32.6018
 32.6561
 30.1774
 30.2759
 30.2203
 30.374
 31.5904
 31.6842
 31.5271
 31.6422
 30.13
 30.54
 30.4435
 30.1603
 30.5631
 30.5726
 30.5125
 30.4765
 32.6591
 32.746
 32.7084
 32.6834
 29.8988
 29.7992
 29.6481
 29.8903
 31.4162
 31.4576
 31.5084
 31.4739
 30.6548
 30.5447
 30.6165
 30.6683
 32.111
 32.1306
 32.119
 32.1889
 31.5149
 31.6263
 31.5012
 31.6342
 32.6352
 32.5618
 32.5763
 32.6524
 31.9756
 32.0454
 32.0073
 31.9464
 32.6711
 32.5674
 32.5448
 32.5574
 32.1629
 32.2076
 32.1176
 32.1431
 31.7379
 31.593
 31.7094
 31.8273
 32.5217
 32.5047
 32.4783
 32.5273
 32.5695
 32.6561
 32.6229
 32.7059
 32.9144
 32.8911
 32.8412
 32.9669
 32.5465
 32.5128
 32.589
 32.5378
 31.9463
 31.853
 31.9066
 32.0056
 30.7606
 30.8849
 30.6889
 30.6576
 30.9285
 30.9717
 30.9143
 30.8625
 30.9929
 31.1005
 31.0598
 31.0222
 31.7156
 31.7485
 31.6193
 31.7173
 32.491
 32.3866
 32.4921
 32.4408
 32.4836
 32.5438
 32.5488
 32.548
 32.2676
 32.3845
 32.3709
 32.4326
 31.9061
 31.9692
 31.8419
 31.9293
 31.8523
 31.8966
 31.8309
 31.7548
 32.2704
 32.3371
 32.2759
 32.2595
 31.9076
 31.8143
 31.901
 31.9094
 31.8522
 31.9062
 32.0306
 32.1377
 25.0632
 24.7716
 25.0209
 24.347
 32.8474
 32.8872
 32.8236
 32.8797
 26.5608
 27.1559
 26.9965
 32.7477
 32.6993
 32.6757
 32.5646
 30.8837
 30.9572
 30.8959
 30.964
 32.284
 32.2634
 32.2284
 32.1677
 30.8526
 30.9176
 30.8322
 30.9573
 32.5758
 32.5942
 32.5537
 32.6683
 31.8544
 31.8168
 31.6203
 31.6725
 32.3004
 32.4056
 32.4744
 32.3227
 30.5315
 30.4501
 30.4448
 30.6614
 31.3906
 31.428
 31.3903
 31.2875
 32.7112
 32.7517
 32.7353
 32.6907
 31.6689
 31.6687
 31.7758
 31.6098
 31.2896
 31.4179
 31.3909
 31.3987
 30.1456
 29.6969
 29.8846
 29.7268
 32.3234
 32.3079
 32.2556
 32.2475
 31.1097
 31.0857
 31.1054
 31.233
 32.0918
 32.017
 32.1624
 31.9684
 31.0803
 31.2041
 31.0863
 31.0702
 32.6828
 32.6895
 32.6932
 32.8274
 31.4143
 31.2645
 31.4416
 31.2909
 32.7602
 32.7276
 32.7862
 32.7498
 32.5969
 32.5406
 32.5279
 32.5656
 31.4105
 31.4827
 31.5365
 31.3603
 30.2611
 30.3388
 30.3358
 30.276
 32.0878
 32.2419
 32.3054
 32.3642
 32.6582
 32.6589
 32.6394
 32.6583
 31.8975
 31.9895
 31.9851
 31.9595
 31.5734
 31.4804
 31.5357
 31.4613
 32.6903
 32.7991
 32.7484
 32.714
 32.2353
 32.5028
 32.5602
 32.3276
 31.6665
 31.6562
 31.8017
 31.7734
 31.7188
 31.651
 31.7398
 31.6875
 30.6486
 30.542
 30.4527
 30.636
 32.5102
 32.6224
 32.4701
 32.5458
 30.8013
 30.6632
 30.676
 30.7844
 32.848
 32.8955
 32.9938
 32.9879
 25.4008
 25.4515
 25.6998
 25.6982
 31.0216
 31.0058
 30.9068
 30.9861
 31.9609
 31.9085
 32.0137
 32.0961
 31.1697
 31.1463
 31.2289
 31.2217
 32.4448
 32.5831
 32.6062
 32.4771
 32.7572
 32.7842
 32.7694
 32.7888
 31.5058
 31.6228
 31.6304
 31.5756
 32.4926
 32.5729
 32.4834
 32.5162
 32.562
 32.6524
 32.6137
 32.6576
 28.4734
 28.1866
 28.2731
 28.2264
 32.1711
 32.125
 32.0755
 32.0564
 32.5
 32.5149
 32.3461
 32.4874
 32.1347
 32.3147
 32.1122
 32.0962
 32.6814
 32.6767
 32.668
 32.6925
 30.6715
 30.6357
 30.5932
 30.8055
 30.6391
 30.4892
 30.6345
 30.6581
 31.9455
 31.9539
 31.8426
 31.8203
 22.4881
 22.5412
 22.553
 22.6853
 32.4483
 32.4523
 32.453
 32.543
 32.4301
 32.4123
 32.5236
 32.4228
 32.4618
 32.4167
 32.5468
 32.5091
 31.4762
 31.5002
 31.3716
 31.5195
 29.77
 30.1183
 29.4629
 29.7324
 27.8772
 27.7699
 27.4471
 27.3375
 31.1608
 31.2318
 31.1878
 31.3026
 32.819
 32.8027
 32.8277
 32.864
 32.6558
 32.6576
 32.6549
 32.6461
 31.7285
 31.7601
 31.8286
 31.8513
 32.3237
 32.3767
 32.4066
 32.3447
 31.3808
 31.4627
 31.4168
 31.3452
 32.7945
 32.8391
 32.8064
 32.8224
 32.6938
 32.5622
 32.6174
 32.7315
 32.1865
 32.1449
 32.3737
 32.2134
 32.5622
 32.55
 32.4899
 32.4734
 31.2802
 31.2398
 31.2484
 31.306
 31.8152
 31.7181
 31.6627
 31.7569
 32.4061
 32.3799
 32.4658
 32.5849
 32.9996
 33.0195
 33.0235
 33.0086
 30.9756
 30.934
 30.8593
 30.912
 31.5057
 31.6146
 31.5567
 31.5643
 32.3806
 32.3889
 32.419
 32.3932
 32.1418
 32.1793
 32.1358
 32.2603
 30.7124
 31.3832
 31.3594
 31.0506
 31.9614
 32.1044
 32.141
 32.0587
 32.5181
 32.4039
 32.5016
 32.2188
 31.0668
 31.1927
 31.1744
 31.0815
 32.1554
 32.0026
 32.0647
 32.1181
 31.5527
 31.6015
 31.653
 31.548
 31.7105
 31.8251
 31.8133
 31.7406
 32.5678
 32.5862
 32.5583
 32.5194
 32.5765
 32.454
 32.5037
 32.5226
 31.3958
 31.7085
 31.3218
 31.5808
 32.1578
 31.9522
 32.1927
 31.9849
 32.5075
 32.4136
 32.3735
 32.3362
 32.7076
 32.6746
 32.6317
 32.8196
 32.6856
 32.49
 32.6494
 32.6004
 32.6191
 32.6971
 32.6333
 32.7204
 32.1082
 32.1531
 32.0476
 32.0628
 29.9809
 29.5855
 29.5865
 29.4981
 32.3473
 32.3133
 32.3536
 32.2624
 32.4631
 32.3514
 32.3919
 32.3794
 32.6345
 32.659
 32.6184
 32.6287
 30.8182
 31.0064
 30.8583
 30.9283
 32.3927
 32.4131
 32.3882
 32.4654
 32.2443
 32.129
 32.1719
 32.0334
 32.6342
 32.665
 32.6355
 32.5941
 32.5602
 32.5344
 32.5565
 32.5259
 32.5883
 32.671
 32.6294
 32.7016
 29.7414
 29.4606
 29.6889
 29.9667
 32.6628
 32.6276
 32.6494
 32.6561
 31.9164
 31.9617
 31.8756
 31.9695
 31.837
 31.8199
 31.7969
 31.8102
 30.8945
 31.0778
 30.9379
 31.0036
 32.5388
 32.5274
 32.5254
 32.537
 32.7581
 32.775
 32.7896
 32.8079
 30.6853
 30.8732
 30.731
 30.7656
 32.7586
 32.8327
 32.881
 32.764
 31.3259
 31.3531
 31.2397
 31.3838
 32.2639
 32.1553
 32.2076
 32.1284
 32.7266
 32.8321
 32.6951
 32.7793
 32.4803
 32.5441
 32.5405
 32.4677
 32.6151
 32.5708
 32.4652
 32.5686
 31.3158
 31.333
 31.2816
 31.2849
 25.3358
 25.4569
 25.4969
 24.9956
 32.063
 32.0194
 32.0194
 32.1153
 32.2257
 32.1796
 32.2099
 32.1129
 32.6899
 32.6792
 32.6899
 32.7008
 32.677
 32.686
 32.6778
 32.6822
 32.9229
 33.0089
 33.0088
 32.9845
 30.5807
 30.622
 30.4687
 30.6476
 32.4516
 32.3831
 32.3807
 32.5211
 32.1238
 32.1748
 32.1273
 32.2578
 32.5276
 31.3317
 31.446
 31.4478
 31.493
 32.1679
 32.0827
 32.0146
 32.0947
 31.6783
 31.8859
 31.9525
 31.8468
 32.6524
 32.653
 32.6475
 32.6453
 32.7167
 32.7675
 32.7856
 32.8857
 31.1431
 31.2669
 31.2318
 31.2135
 32.8148
 32.8512
 32.838
 32.78
 30.9189
 30.9053
 30.9963
 30.9998
 31.7966
 31.7446
 31.8119
 31.7036
 31.9319
 32.121
 32.0099
 32.2911
 32.6618
 32.5578
 32.6668
 32.6763
 32.2538
 32.1686
 32.1528
 32.2093
 32.653
 32.6949
 32.5683
 32.5151
 32.4755
 32.43
 32.5725
 31.9888
 32.1609
 32.0213
 32.107
 32.8444
 32.9553
 32.8489
 32.9927
 32.668
 32.7606
 32.6978
 32.6867
 30.9949
 30.999
 31.1672
 31.0276
 32.6588
 32.6669
 32.6455
 32.6706
 31.4195
 31.5954
 31.4787
 31.4156
 32.4205
 32.4734
 32.4303
 32.5096
 31.5229
 31.5773
 31.6538
 31.6068
 31.1417
 31.1392
 31.012
 31.0828
 32.5232
 32.5263
 32.5085
 32.504
 25.4263
 26.1682
 25.9764
 26.5104
 30.3528
 30.4073
 30.4389
 30.4236
 31.8765
 31.9837
 31.9472
 31.8597
 32.6159
 32.5777
 32.7296
 32.6244
 32.6627
 32.6347
 32.6375
 32.669
 30.7707
 30.8383
 30.9326
 30.6119
 31.0558
 30.9391
 30.8178
 30.8998
 32.2663
 32.1605
 32.188
 32.1891
 32.0942
 32.0051
 32.1181
 32.054
 32.6015
 32.3569
 32.5635
 32.4957
 30.3046
 30.3402
 30.3262
 30.4445
 30.4923
 30.489
 30.5869
 30.6101
 31.5797
 31.6613
 31.7288
 31.511
 32.0527
 32.0852
 32.1095
 32.2165
 32.1252
 32.4384
 32.5185
 32.3356
 32.4725
 32.5227
 32.5035
 32.5112
 32.6025
 31.8825
 31.794
 31.7871
 31.7684
 32.2469
 32.3254
 32.3811
 32.2349
 32.7345
 32.789
 32.7328
 32.7393
 31.6936
 31.6423
 31.6402
 31.7812
 32.6299
 32.5658
 32.6062
 32.5946
 31.8798
 31.8715
 31.9051
 31.787
 32.5011
 32.4283
 32.4128
 32.6224
 32.6469
 32.6683
 32.6594
 32.6521
 32.5858
 32.5491
 32.5954
 32.5635
 32.1811
 32.0792
 32.1187
 32.0191
 31.4992
 31.5568
 31.3792
 31.425
 32.1135
 32.124
 32.1738
 32.1541
 32.2387
 32.1401
 32.1787
 32.1553
 31.9154
 31.8894
 31.9543
 31.9914
 32.0627
 32.0898
 32.0049
 32.0762
 32.7239
 32.723
 32.6242
 32.6722
 32.3996
 32.4351
 32.4599
 32.4357
 32.9019
 32.9577
 32.9255
 32.9192
 32.2925
 32.3204
 32.3151
 32.1939
 31.6706
 31.7298
 31.6788
 31.6186
 32.3018
 32.18
 32.1745
 32.4665
 30.6536
 30.657
 30.4973
 30.5996
 31.5487
 31.6544
 31.5111
 31.5665
 31.5819
 31.556
 31.5199
 31.5849
 31.1546
 31.2366
 31.2376
 31.0906
 31.7269
 31.7057
 31.7991
 31.7142
 30.6413
 30.4085
 30.0363
 32.2839
 32.3795
 32.2992
 32.2898
 31.5967
 31.668
 31.6916
 31.6438
 32.6868
 32.6642
 32.6862
 32.6642
 32.7212
 32.6391
 32.7244
 32.6612
 31.8537
 31.826
 31.7737
 31.9249
 32.5951
 32.6396
 32.6222
 32.5322
 32.7112
 32.6854
 32.7735
 32.7238
 30.656
 30.492
 32.0198
 32.0306
 32.1265
 32.1162
 32.5695
 32.5859
 32.5973
 32.3146
 32.287
 32.2835
 32.3792
 31.1923
 31.1977
 31.4332
 31.3934
 31.4278
 31.3598
 31.3538
 31.4951
 32.3133
 32.3337
 32.3839
 32.3691
 32.7029
 32.6891
 32.658
 32.6721
 32.2313
 32.2959
 32.2761
 32.2237
 32.4938
 32.3806
 32.5286
 32.3773
 31.9954
 32.3505
 32.0978
 32.1301
 32.4827
 32.4604
 32.3752
 32.4355
 32.1566
 32.0569
 32.2541
 32.2507
 32.3636
 32.3987
 32.3714
 32.4002
 31.2794
 31.3152
 31.425
 31.4415
 32.2398
 32.3507
 32.3429
 32.283
 28.7828
 29.1329
 28.7307
 28.9496
 32.0677
 32.2534
 32.1715
 32.0411
 32.5067
 32.4851
 32.5589
 32.4933
 32.1215
 32.1688
 32.2442
 32.2756
 32.5596
 32.5904
 32.5431
 32.5409
 31.2099
 31.2615
 31.2061
 31.2218
 32.6552
 32.689
 32.6851
 32.7466
 32.4128
 32.395
 32.4046
 32.4908
 32.8491
 32.7278
 32.7717
 32.7149
 31.8101
 31.7326
 31.7262
 31.6706
 31.4307
 31.4098
 31.3622
 31.4725
 32.4393
 32.5575
 32.5181
 32.5656
 32.5163
 32.5078
 32.5181
 32.5296
 32.0714
 32.0834
 32.2349
 32.1098
 32.0016
 32.0971
 32.039
 32.0741
 25.5296
 25.2416
 25.2315
 25.4325
 32.2922
 32.3414
 32.408
 32.3517
 24.5084
 24.3518
 24.4681
 24.7891
 25.3416
 25.8379
 25.8125
 25.5294
 31.6859
 31.8149
 31.7334
 31.6171
 32.1075
 32.1491
 32.2238
 32.2273
 32.1309
 32.0183
 32.0309
 31.949
 31.9277
 32.0419
 31.9541
 32.0631
 32.0833
 32.1607
 32.1425
 32.0455
 29.9665
 29.7701
 29.8473
 30.0278
 32.4958
 32.4836
 32.5482
 32.4982
 32.3958
 32.499
 32.5198
 32.3444
 32.5566
 32.5269
 32.5692
 32.4837
 32.1071
 32.1664
 32.1152
 32.1293
 31.8975
 31.8724
 31.9312
 31.8233
 32.7271
 32.8143
 32.8362
 32.7381
 32.0361
 32.7199
 32.7542
 32.6807
 32.7163
 30.5197
 30.5162
 30.3858
 30.4603
 32.5938
 32.6147
 32.5724
 32.6075
 31.1227
 31.0262
 31.1078
 32.5716
 32.5311
 32.6079
 32.5866
 26.788
 27.3308
 26.9233
 27.3754
 32.682
 32.6849
 32.6306
 32.7139
 32.8805
 32.8299
 32.9486
 32.8638
 32.4163
 32.3869
 32.4914
 32.5785
 32.6785
 32.6637
 32.6548
 32.6894
 30.988
 30.6594
 30.8316
 30.9785
 32.2588
 32.2503
 32.1732
 32.0656
 32.7657
 32.7035
 32.7212
 32.7447
 32.8392
 32.6841
 32.7525
 32.7075
 32.6505
 32.7347
 32.5606
 31.5012
 31.5904
 31.616
 32.7781
 32.7735
 32.655
 32.6029
 31.1063
 31.0627
 31.0728
 31.1443
 32.485
 32.5365
 32.4673
 32.4872
 31.4728
 31.223
 31.4363
 31.0995
 31.7222
 31.5473
 31.6672
 31.6519
 31.504
 31.4855
 31.4415
 31.391
 32.0572
 32.0193
 32.0309
 32.0418
 30.6497
 30.3976
 30.6518
 30.7739
 32.4309
 32.5076
 32.4485
 32.5173
 30.7677
 30.8495
 30.6734
 30.8218
 31.4142
 31.3953
 31.3413
 31.4244
 31.9256
 32.014
 32.0069
 31.91
 28.2597
 27.875
 28.1391
 27.9468
 31.8066
 31.6918
 31.8506
 31.6115
 32.7041
 32.7209
 32.6896
 32.798
 31.6919
 31.6944
 31.5626
 31.5974
 32.3408
 32.3926
 32.3559
 32.4443
 32.6151
 32.6134
 32.5894
 32.6424
 32.6307
 32.6353
 32.6942
 32.6544
 32.8523
 32.9331
 32.9506
 32.7381
 32.3486
 32.3093
 32.3785
 32.4301
 32.6024
 32.6381
 32.615
 32.6058
 31.5864
 31.7255
 31.7223
 31.6139
 30.5834
 30.484
 30.7118
 30.7478
 32.4756
 32.477
 32.5
 32.4763
 31.3043
 31.34
 31.3787
 31.2417
 31.895
 31.7213
 31.6968
 31.7566
 30.1362
 30.0358
 29.7123
 30.1584
 32.2487
 32.4228
 32.4023
 32.3623
 32.6428
 32.6868
 32.6839
 32.6398
 31.4034
 31.2903
 31.2158
 31.0589
 32.1931
 32.0778
 32.1017
 32.1839
 31.708
 31.5194
 31.6197
 31.5795
 31.3582
 31.7164
 31.4605
 31.3439
 32.4467
 32.4102
 32.4722
 32.4289
 32.5753
 32.6062
 32.6166
 32.615
 25.7821
 26.1515
 26.2331
 25.7845
 32.6532
 32.6587
 32.6598
 32.6559
 32.5554
 32.533
 32.548
 32.5073
 32.0033
 31.951
 32.0023
 31.8974
 32.755
 32.7437
 32.7856
 32.5204
 32.5227
 32.5376
 32.5384
 32.7321
 32.8503
 32.6856
 32.7493
 32.0474
 32.1448
 32.0482
 32.1212
 31.9842
 31.8077
 31.9601
 31.8767
 31.0654
 31.1187
 31.0782
 31.2258
 32.4787
 32.6272
 32.5911
 32.5296
 30.6928
 30.675
 30.6253
 30.6819
 32.5023
 32.5673
 32.5044
 32.452
 32.7765
 32.7108
 32.715
 32.6755
 32.6721
 32.6961
 32.7443
 32.7568
 24.8321
 24.5092
 24.8042
 24.6885
 32.4635
 32.4669
 32.4687
 32.4555
 32.6621
 32.7419
 32.6319
 32.5446
 32.5798
 32.5682
 32.5541
 32.6113
 30.3666
 30.3847
 30.4978
 30.4644
 32.5425
 32.5821
 32.6015
 32.5388
 32.5983
 32.5939
 32.6392
 32.5639
 31.8989
 31.7697
 31.8541
 31.8317
 32.2291
 32.249
 32.1898
 32.223
 32.6151
 32.6009
 32.6928
 32.6358
 31.9983
 32.1389
 31.9972
 32.1393
 32.0924
 32.0611
 32.158
 32.0676
 32.4354
 32.4197
 32.327
 32.3571
 32.561
 32.5515
 32.3662
 32.3916
 32.3115
 32.3669
 32.6067
 32.5937
 32.6499
 32.5912
 32.6389
 32.6085
 32.5823
 32.5894
 31.1596
 31.2283
 31.2591
 31.1671
 32.4652
 32.4601
 32.4345
 32.4276
 31.7736
 31.7497
 31.7141
 31.8255
 32.6879
 32.7827
 32.7466
 32.8198
 32.69
 32.6891
 32.688
 32.7133
 32.726
 32.5376
 32.6019
 32.6978
 32.6782
 32.5488
 32.4941
 32.5049
 28.8603
 28.8427
 28.7359
 28.5017
 30.963
 30.9756
 31.0454
 30.9991
 31.4131
 31.342
 31.5357
 31.3206
 32.0915
 32.0744
 32.1676
 32.179
 28.7929
 28.7693
 29.1626
 28.7978
 32.2765
 32.1987
 32.2398
 32.2451
 32.6679
 32.6874
 32.6874
 32.6168
 32.5056
 32.5313
 32.4515
 32.5001
 32.3076
 32.2872
 32.3448
 32.3728
 31.4914
 31.5824
 31.4733
 31.6063
 32.6627
 32.6763
 32.6756
 32.6688
 32.0097
 32.0161
 32.0262
 32.0825
 31.4249
 31.2728
 31.3413
 31.236
 32.692
 32.4411
 32.5992
 32.5402
 32.6629
 32.5866
 32.6836
 32.5976
 31.7518
 31.546
 31.6156
 31.649
 32.4647
 32.403
 32.3672
 32.3597
 32.5032
 32.4593
 32.4665
 32.4187
 31.046
 31.0057
 30.9239
 30.9004
 31.5627
 31.493
 31.5329
 31.5746
 32.3525
 32.3317
 32.4191
 32.3894
 32.7191
 32.701
 32.7676
 32.6462
 32.8782
 32.8799
 32.9123
 32.8595
 32.2304
 32.1924
 32.1445
 31.5248
 31.5205
 31.4685
 31.4333
 28.4265
 28.2085
 27.8938
 27.8813
 31.7895
 31.9032
 31.8458
 31.9065
 32.5266
 32.4321
 32.4832
 32.4769
 32.3583
 32.2099
 32.187
 32.1967
 31.2054
 31.3121
 31.237
 31.1174
 32.4632
 32.5048
 32.4884
 32.5377
 32.4209
 32.4316
 32.688
 32.5915
 32.5517
 32.6789
 32.6019
 29.0472
 29.3279
 31.978
 31.9681
 31.9511
 31.5758
 31.7679
 31.4939
 31.6552
 31.8419
 31.9501
 31.9059
 31.8871
 32.4994
 32.5039
 32.4918
 32.5341
 32.5404
 32.6146
 32.5754
 32.59
 31.241
 31.2452
 31.1357
 31.1847
 31.8397
 32.0405
 31.8798
 32.1172
 32.1941
 32.2059
 32.1556
 32.1192
 30.9137
 30.8979
 31.0382
 31.0219
 32.6643
 32.7154
 32.7071
 32.7315
 32.0921
 32.2452
 32.2043
 32.2047
 32.7118
 32.7149
 32.7605
 32.83
 30.5141
 30.6902
 30.5478
 30.692
 30.7104
 30.6725
 30.7328
 30.8495
 30.8779
 30.9633
 31.0052
 30.8785
 32.6207
 32.6351
 32.6268
 32.6385
 32.2734
 32.3668
 32.3284
 32.2959
 32.5163
 32.4897
 32.5448
 32.5029
 32.9789
 32.8958
 32.9094
 32.9815
 32.0017
 31.9839
 31.9676
 32.0965
 31.4896
 31.3859
 31.4488
 31.3554
 31.3676
 31.3246
 31.4101
 31.2248
 32.3065
 32.2942
 32.3567
 32.2675
 32.5915
 32.5979
 32.6
 32.621
 32.6297
 32.5379
 32.6106
 32.6331
 31.7251
 31.6442
 31.6234
 31.7658
 31.2599
 31.2709
 31.1494
 31.6182
 31.769
 31.7185
 31.7647
 31.7671
 32.528
 32.432
 32.536
 32.4457
 32.5295
 32.611
 32.483
 32.7165
 32.2826
 32.1414
 32.0042
 32.0231
 23.5383
 23.7658
 23.6636
 23.5613
 32.5193
 32.5171
 32.5371
 32.5128
 31.6902
 31.7442
 31.6346
 31.6601
 32.3669
 32.2705
 32.3064
 32.4921
 32.2478
 32.1775
 32.3146
 32.2195
 32.3188
 32.2612
 32.1785
 32.1926
 31.8792
 31.828
 31.9607
 31.9321
 31.0097
 30.7414
 30.7984
 30.9665
 30.9504
 30.9489
 30.8635
 30.7524
 31.5963
 31.4448
 31.4456
 31.5284
 32.0304
 32.1467
 32.2981
 32.1716
 32.6594
 32.6437
 32.6651
 32.6847
 32.5431
 32.5554
 32.5182
 32.498
 32.6358
 32.5441
 32.567
 32.6411
 32.5949
 32.6187
 32.619
 32.6303
 32.1785
 32.2929
 32.1712
 32.2718
 30.0407
 30.1998
 30.0959
 30.0724
 32.319
 32.1748
 32.2075
 32.1577
 32.6603
 32.6942
 32.7183
 32.63
 32.6657
 32.6638
 32.6989
 32.7234
 32.4285
 32.3749
 32.4089
 32.465
 30.7555
 30.7379
 30.8112
 30.7665
 31.6089
 31.7155
 31.6697
 32.3055
 32.2585
 32.2577
 32.2942
 32.2904
 32.3019
 32.2819
 32.2014
 32.5916
 32.6296
 32.6399
 32.5726
 31.4356
 31.603
 31.6988
 31.5862
 32.6249
 32.5963
 32.6459
 32.634
 32.9047
 32.888
 32.8805
 32.8683
 32.757
 32.8286
 32.8079
 32.7365
 32.0871
 32.1881
 32.2128
 32.1613
 32.5182
 32.5887
 32.5283
 32.6717
 32.2863
 32.4224
 32.3833
 32.3506
 32.2629
 32.286
 32.32
 32.269
 32.6817
 32.682
 32.6719
 32.6834
 32.0777
 32.1316
 32.0535
 31.9666
 32.5511
 32.5706
 32.5361
 32.5747
 32.1763
 32.0369
 32.0659
 32.0914
 32.1861
 32.1301
 32.2128
 32.1039
 30.9887
 30.9839
 31.0917
 30.9873
 32.5648
 32.4866
 32.5387
 32.5643
 32.468
 32.3032
 32.4446
 32.4538
 31.7331
 31.6845
 31.6138
 31.6048
 32.8148
 32.8428
 32.8328
 32.7861
 32.1935
 32.2672
 32.2047
 32.2942
 32.0436
 32.1531
 31.8511
 31.9447
 32.3781
 32.404
 32.3816
 32.3504
 31.1352
 30.9649
 31.0851
 31.0021
 32.3193
 32.4725
 32.462
 32.459
 31.9789
 31.9497
 31.9493
 31.9881
 32.2499
 32.2743
 32.1939
 32.2131
 32.1689
 32.1744
 32.0834
 32.0413
 30.8255
 30.7775
 30.7394
 30.8961
 32.5179
 32.3543
 32.416
 32.2951
 32.5305
 32.543
 32.5254
 32.5535
 31.3144
 31.288
 31.3714
 31.2178
 31.2432
 31.1802
 31.2528
 32.5236
 32.5524
 32.5424
 32.5194
 32.4156
 32.3298
 32.3565
 32.3643
 32.0915
 32.0834
 32.1508
 32.0711
 32.6304
 32.6084
 32.5513
 32.5497
 31.9061
 31.846
 31.8613
 31.8249
 32.6169
 32.6624
 32.6476
 32.6179
 32.4388
 32.5569
 32.4934
 32.5937
 31.8085
 31.7448
 31.7074
 31.7203
 32.1531
 32.0672
 32.1693
 32.2469
 32.8582
 32.8787
 32.9468
 32.8244
 30.7851
 30.9566
 30.8259
 30.8707
 32.4268
 32.4233
 32.4608
 32.5497
 32.1544
 32.0863
 32.0791
 32.1478
 32.5826
 32.5583
 32.5868
 32.5213
 28.7355
 29.0083
 28.6189
 29.1846
 32.7022
 32.6712
 32.6987
 32.6964
 31.771
 31.8608
 31.8859
 31.8964
 31.4552
 31.5144
 31.492
 31.9802
 32.0296
 32.1312
 32.0826
 32.536
 32.5808
 32.5446
 32.5799
 32.3225
 32.2758
 32.1998
 32.2787
 32.778
 32.8318
 32.7521
 32.8397
 30.7182
 30.6251
 30.593
 30.6286
 32.1803
 32.1498
 32.1406
 32.0287
 32.7939
 32.799
 32.7958
 32.8437
 31.5735
 31.536
 31.5788
 31.6235
 32.6657
 32.6696
 32.6702
 32.5742
 32.7048
 32.7335
 32.181
 32.3269
 32.3413
 29.8905
 30.2009
 30.313
 29.9835
 32.7174
 32.6936
 32.7793
 32.657
 32.5442
 32.5179
 32.586
 32.555
 31.2227
 31.1698
 31.2912
 31.3131
 31.0839
 31.1263
 30.95
 31.1151
 32.4312
 32.2524
 32.2246
 32.4113
 32.5266
 32.3907
 32.4497
 32.3514
 32.1544
 32.0994
 32.0566
 32.1007
 32.6017
 32.5255
 32.5617
 32.4908
 32.7923
 32.7807
 32.8082
 32.8008
 32.4579
 32.481
 32.5328
 32.3729
 32.2606
 32.273
 32.2347
 32.3152
 31.3274
 31.3713
 31.3175
 31.2789
 33.021
 32.9927
 32.9336
 33.0268
 31.37
 31.4982
 31.4643
 31.307
 31.0393
 31.1048
 31.1606
 31.056
 31.2666
 31.3138
 31.2909
 31.3241
 32.4635
 32.3959
 32.0433
 32.0304
 32.1317
 32.0987
 32.5637
 32.7357
 32.6078
 32.606
 31.7144
 31.5519
 31.6159
 31.5741
 31.2874
 31.455
 31.2715
 31.4117
 32.5885
 32.6472
 32.6026
 32.6201
 32.4712
 32.4212
 32.3931
 32.439
 32.5649
 32.5748
 32.576
 32.5781
 32.6607
 32.5893
 32.6252
 32.537
 26.4503
 27.1887
 26.4058
 26.8611
 31.0929
 31.149
 31.0118
 31.1413
 32.6789
 32.845
 32.7547
 32.9037
 31.7047
 31.6072
 31.6105
 31.8046
 32.631
 32.6222
 32.6014
 32.5084
 32.081
 32.0507
 31.82
 32.2241
 32.9031
 32.935
 32.935
 32.9494
 32.0486
 32.0876
 31.9567
 32.1087
 32.374
 32.3978
 32.4132
 32.3915
 31.2502
 31.0537
 31.2602
 32.6912
 32.5925
 32.8633
 32.7044
 26.2012
 25.8363
 25.9614
 25.7371
 30.5951
 30.5456
 30.5159
 30.6297
 32.5329
 32.5385
 32.4973
 32.5351
 31.9256
 32.0022
 32.0999
 31.9959
 32.4293
 32.5214
 32.2419
 32.4021
 32.5447
 32.5763
 32.6502
 32.6867
 32.8367
 32.7797
 32.7492
 32.7596
 31.1629
 31.207
 31.1044
 31.0612
 32.5294
 32.5453
 32.5597
 32.5508
 30.6673
 30.688
 30.6544
 30.7522
 31.918
 31.9982
 31.9974
 31.911
 32.2749
 32.2799
 32.3422
 32.3024
 28.3056
 28.6557
 28.9606
 28.2171
 32.7441
 32.8075
 32.8164
 32.7681
 32.4109
 32.4359
 32.3735
 32.4786
 31.7927
 31.829
 31.8545
 31.952
 26.5147
 26.0953
 26.7414
 26.3634
 32.6047
 32.652
 32.5805
 32.5652
 30.8052
 30.8421
 30.8898
 30.8564
 31.697
 31.5722
 31.6135
 31.6425
 31.4103
 31.4898
 31.3751
 31.5235
 31.3847
 31.5007
 31.5038
 31.4728
 31.5871
 31.4626
 31.5527
 31.5502
 32.3032
 32.2887
 32.3078
 32.2971
 32.6442
 32.5581
 32.6091
 32.6284
 32.5782
 32.2084
 32.4021
 32.3323
 32.2739
 32.2248
 32.1859
 32.2968
 32.3316
 31.0628
 31.1966
 31.0655
 31.0485
 31.4442
 31.4596
 31.5214
 31.4755
 31.7814
 31.7329
 31.6066
 31.6629
 32.4926
 32.5668
 32.5649
 32.6497
 32.6491
 32.6741
 32.5581
 32.5697
 32.552
 32.5799
 32.6337
 32.5226
 32.3904
 32.5301
 32.1203
 32.0197
 32.039
 32.1617
 30.9067
 30.8972
 30.961
 30.8843
 32.5308
 32.5587
 32.5317
 32.5714
 31.0758
 31.2524
 31.2885
 31.3151
 32.6297
 32.6602
 32.646
 32.5948
 32.0333
 32.1271
 32.163
 32.1427
 32.2501
 32.2303
 32.251
 32.1435
 32.41
 32.3003
 32.4294
 32.3243
 32.4324
 32.3191
 32.2632
 32.4431
 32.4744
 32.4575
 32.3495
 32.4382
 32.6795
 32.6881
 32.6635
 32.6558
 32.5913
 32.6011
 32.647
 32.7306
 32.2883
 32.2631
 32.3006
 32.2687
 31.5084
 31.6258
 31.7344
 31.7088
 31.9656
 32.0759
 32.0606
 31.9543
 32.9077
 32.9337
 32.9063
 32.894
 32.0568
 32.0581
 32.0505
 32.1034
 31.0754
 31.1818
 31.1107
 31.1333
 31.0365
 31.1338
 31.0941
 31.0686
 31.068
 31.0027
 31.1728
 30.6538
 30.5905
 30.5429
 30.4751
 31.4922
 31.6137
 31.6964
 31.5542
 32.3886
 32.3966
 32.3613
 32.3708
 30.8709
 30.9353
 30.9994
 30.8935
 32.5006
 32.5157
 32.5386
 32.5433
 32.1724
 32.1105
 32.1281
 31.4243
 31.297
 31.3642
 31.3679
 31.2941
 31.4348
 31.3707
 32.3221
 32.2953
 32.2724
 32.2692
 32.8929
 32.8042
 32.8636
 32.8449
 32.0509
 32.1237
 32.1523
 32.1575
 31.062
 30.9829
 31.062
 31.1057
 32.6075
 32.673
 32.7545
 32.7127
 32.5744
 32.5809
 32.6101
 32.6063
 32.5453
 32.4039
 32.4714
 32.5409
 31.8293
 31.9622
 31.9113
 31.9339
 32.8297
 32.8614
 32.9531
 32.8548
 32.5126
 32.4949
 32.5141
 32.3756
 32.7904
 32.7968
 32.7919
 32.7423
 30.5712
 30.628
 30.6389
 30.6461
 32.6208
 32.5603
 32.6174
 32.5979
 32.3687
 32.5698
 32.4952
 32.4646
 32.1402
 32.2292
 32.1267
 32.1688
 32.6613
 32.5658
 32.577
 32.2292
 32.3144
 32.2745
 32.2752
 32.349
 32.2311
 32.3094
 32.6188
 32.6836
 32.477
 32.5692
 32.6595
 32.5473
 32.577
 32.6518
 31.9964
 31.9969
 32.0143
 32.3435
 32.3012
 31.2833
 31.2727
 31.1396
 31.1185
 32.07
 31.9717
 31.9709
 31.9711
 31.7478
 31.8872
 31.5817
 31.9679
 29.6314
 29.5825
 29.2491
 29.6932
 32.6821
 32.6946
 32.7455
 32.6698
 31.3274
 31.3352
 31.2622
 31.3075
 31.8189
 31.9029
 31.9159
 31.9026
 32.1026
 31.9907
 32.0303
 31.993
 32.6006
 32.6277
 32.5951
 32.894
 32.8844
 32.8144
 32.7833
 32.7851
 32.8178
 32.8588
 32.8703
 32.7419
 32.7683
 32.8764
 32.7972
 32.4474
 32.3634
 32.507
 32.4587
 31.0706
 30.9547
 31.0444
 31.004
 30.9637
 30.8745
 31.0601
 32.5807
 32.6143
 32.5685
 32.6109
 32.6178
 32.6026
 32.6306
 32.5962
 30.628
 30.53
 32.3381
 32.3149
 32.2868
 32.1931
 32.5489
 32.4429
 32.5036
 32.4318
 32.1862
 32.2344
 32.7051
 32.5706
 32.6714
 32.7011
 31.0219
 30.9413
 31.0587
 30.8797
 30.7502
 30.835
 30.7672
 30.6223
 32.6082
 32.5901
 32.5991
 31.3352
 31.4772
 31.4151
 32.6913
 32.6924
 32.6977
 32.7406
 31.7773
 31.8658
 31.6986
 31.8257
 32.5656
 32.5153
 32.586
 32.5252
 32.5083
 32.5163
 32.5439
 32.4759
 32.1843
 32.1629
 32.1359
 32.0259
 27.2815
 27.5597
 27.2843
 26.9035
 31.8276
 31.8478
 31.7042
 31.7061
 31.9185
 31.9217
 31.8536
 31.8305
 32.4823
 32.3929
 32.2566
 32.4214
 31.3588
 31.2683
 31.2558
 31.3767
 26.4272
 25.8467
 25.8288
 25.4246
 31.084
 31.246
 31.2545
 31.2207
 31.3408
 31.5076
 32.7709
 32.7246
 32.7061
 32.7225
 32.2907
 32.1872
 32.2973
 32.3466
 31.4327
 31.321
 31.3176
 31.3752
 32.6566
 32.6762
 32.6676
 32.6496
 30.5343
 30.5878
 30.5627
 32.6433
 32.6846
 32.5322
 32.1857
 32.3596
 32.3378
 31.1335
 31.0433
 31.1002
 31.1454
 32.6259
 32.6594
 32.6724
 32.5865
 31.3856
 31.3727
 32.0835
 32.1772
 32.0614
 32.0464
 32.6407
 32.5418
 32.5797
 32.5424
 33.0017
 32.9151
 32.8102
 32.7686
 32.7178
 32.752
 32.6872
 32.6422
 32.6363
 32.7019
 30.7186
 30.6151
 30.7845
 30.7469
 32.235
 32.2131
 32.2572
 31.6606
 26.2441
 26.3074
 26.2491
 26.0238
 31.3457
 31.2529
 31.2418
 31.4193
 32.603
 32.6073
 32.6464
 32.6376
 31.7236
 31.8253
 31.7814
 31.7205
 32.5545
 32.578
 32.571
 32.5463
 32.1128
 31.1453
 31.1384
 31.1484
 31.1858
 32.0131
 32.0665
 32.0624
 32.1397
 31.4369
 31.4313
 31.3113
 31.5322
 31.6008
 31.743
 31.6022
 31.2861
 31.1162
 31.2693
 31.2055
 32.6865
 32.7564
 32.8456
 32.8231
 31.0713
 31.0589
 31.09
 30.9872
 31.8753
 31.9188
 31.8995
 31.7176
 31.1633
 31.0983
 31.0893
 31.0862
 32.6235
 32.6398
 32.6519
 32.6495
 31.8937
 31.8412
 31.8009
 31.7832
 32.1811
 32.2194
 32.2382
 32.2459
 31.0245
 31.1548
 32.6907
 32.772
 32.7507
 32.7105
 31.4023
 31.2239
 31.5576
 31.2443
 32.2104
 32.122
 32.3089
 32.1629
 32.247
 32.1947
 32.1319
 32.1578
 31.8382
 31.8399
 31.842
 31.7194
 31.611
 31.708
 31.642
 31.5977
 31.2234
 31.3425
 31.3335
 31.4126
 31.6345
 31.5744
 31.6141
 31.6876
 31.9642
 32.1119
 32.1481
 31.9734
 32.5544
 32.4735
 32.4909
 32.6159
 30.5662
 30.6655
 30.7235
 30.7043
 32.3971
 32.2897
 32.3697
 32.2101
 32.4191
 32.4155
 32.3594
 32.4825
 28.1922
 28.1804
 28.5887
 28.0517
 31.3394
 31.2795
 31.3677
 31.2
 32.5596
 32.5271
 32.5294
 32.5503
 32.7868
 32.7649
 32.7798
 32.8095
 31.6981
 31.58
 31.6482
 31.8285
 32.2138
 32.2729
 32.2401
 32.2451
 31.1151
 31.109
 31.1538
 31.1099
 32.2498
 32.365
 32.3098
 32.329
 32.9241
 32.8096
 32.8146
 32.859
 31.7234
 31.8067
 31.9061
 31.612
 31.0685
 31.95
 31.8908
 32.0073
 31.8674
 32.595
 32.6106
 32.6383
 32.5322
 31.6555
 31.5935
 31.6389
 31.5059
 32.4166
 32.5149
 32.435
 32.515
 32.4332
 32.3342
 32.4495
 31.4458
 31.6509
 31.4879
 31.3576
 31.4739
 31.639
 31.5435
 31.5938
 32.0778
 32.0526
 32.1321
 32.0606
 30.2299
 30.2911
 30.2543
 30.1749
 32.7919
 32.8378
 32.7831
 32.8396
 29.5074
 30.2837
 30.26
 29.932
 31.5882
 31.5627
 31.7289
 31.5939
 30.5731
 30.6736
 30.6929
 30.7682
 30.9583
 30.9934
 30.9505
 30.9202
 32.6337
 32.5992
 32.5969
 32.5758
 32.8706
 32.9607
 32.9828
 32.6401
 32.6007
 32.6767
 32.6509
 32.015
 32.1121
 31.9074
 32.002
 32.3188
 32.2034
 32.243
 32.2822
 32.5058
 32.4877
 32.3785
 32.4275
 30.4472
 30.5149
 30.5288
 30.572
 32.3417
 32.2406
 32.4477
 32.3419
 31.4629
 30.8836
 31.1116
 31.7221
 31.7838
 31.8312
 31.9205
 31.5213
 31.4159
 31.4406
 31.4801
 32.7343
 32.7303
 32.7403
 32.3759
 32.3785
 32.4666
 32.2845
 31.2062
 31.2518
 31.1209
 31.2801
 32.5644
 32.5709
 32.5237
 32.5501
 32.6438
 32.5747
 32.666
 32.7532
 32.4939
 32.5
 32.516
 32.4872
 31.5294
 31.5114
 31.6001
 31.5365
 32.7185
 32.7916
 32.6946
 32.7606
 32.5302
 32.6132
 32.6575
 32.5323
 32.651
 32.6301
 32.653
 31.05
 31.0703
 31.111
 31.1694
 32.4513
 32.5225
 32.5035
 32.4211
 30.5414
 30.5806
 30.412
 32.438
 32.3797
 32.4303
 32.4384
 31.8919
 32.0464
 31.7494
 31.8738
 32.479
 32.4428
 32.366
 32.3145
 32.6438
 32.5138
 32.6684
 32.8259
 32.8758
 32.7949
 32.6477
 32.0287
 32.1258
 32.0377
 32.0881
 32.4484
 32.5363
 32.5445
 32.4469
 29.144
 29.3946
 29.6245
 29.7406
 32.5076
 32.4824
 32.4727
 32.5127
 32.752
 32.6945
 32.7862
 32.6886
 31.0023
 31.1956
 31.1522
 30.9683
 32.1595
 32.3491
 32.2072
 32.2355
 32.1374
 32.1511
 32.1118
 32.0474
 30.5503
 30.5115
 30.5613
 30.626
 30.5273
 30.6903
 30.6092
 30.6026
 31.6464
 31.5923
 31.6019
 31.6366
 30.6247
 30.5038
 30.5251
 30.6945
 31.173
 31.1779
 31.1832
 30.4916
 30.655
 30.6164
 30.6208
 31.6791
 31.5653
 31.6082
 31.5718
 32.6738
 32.813
 32.776
 32.8077
 32.7036
 32.7307
 32.6974
 32.7361
 32.6599
 32.6024
 32.6516
 32.6281
 30.9648
 31.0238
 30.9244
 30.91
 32.755
 32.7316
 32.8299
 32.7244
 32.5844
 32.4788
 32.4443
 32.6005
 31.7169
 31.7386
 31.6626
 31.8085
 32.701
 32.7649
 32.7433
 32.615
 31.7604
 31.8274
 31.8936
 32.4622
 32.3859
 32.3757
 31.1066
 31.2253
 31.2785
 31.2072
 32.4838
 32.452
 32.4846
 32.4694
 32.0679
 32.1395
 32.1096
 32.0018
 32.6623
 32.6785
 32.6688
 32.6755
 30.4946
 30.5944
 30.9334
 30.9776
 30.9974
 30.8432
 31.6617
 31.5592
 31.4956
 31.354
 32.0701
 32.0167
 31.9719
 31.9418
 32.8189
 32.9259
 32.9755
 32.8373
 24.6029
 23.9374
 24.6088
 24.4077
 32.5096
 32.463
 32.4176
 32.471
 31.8932
 32.0056
 31.8905
 32.1476
 32.1603
 32.3404
 32.237
 30.5872
 30.73
 30.6016
 30.7304
 32.8127
 32.7651
 32.7752
 32.711
 32.1702
 32.0784
 32.0942
 32.1599
 31.8481
 32.0471
 31.7867
 31.9249
 27.7932
 27.5897
 27.9331
 28.1276
 32.5236
 32.5444
 32.5195
 32.5187
 32.5031
 32.5125
 32.493
 32.3769
 32.5312
 32.4297
 32.4828
 32.4999
 32.5804
 32.4744
 31.6802
 31.7392
 31.6385
 31.5858
 31.7092
 31.5709
 31.6892
 31.5867
 31.8755
 31.9775
 31.8972
 31.8797
 30.8171
 31.0584
 30.9932
 30.9411
 31.5738
 31.5796
 31.4423
 32.6024
 32.5489
 32.6115
 32.549
 31.7026
 31.7906
 32.1066
 32.1953
 32.2052
 32.1963
 31.9411
 31.9634
 31.9218
 31.8832
 32.8488
 32.9044
 32.886
 32.8265
 32.7366
 32.6965
 32.6738
 32.6276
 24.6955
 25.0275
 25.0377
 24.9627
 32.5016
 32.5753
 32.5093
 32.5604
 32.5477
 32.5463
 32.5195
 32.3077
 32.3156
 32.3511
 32.3587
 32.6809
 32.6765
 32.6109
 32.6418
 31.6572
 31.7865
 31.622
 31.6411
 31.4408
 31.6225
 31.5062
 31.5468
 32.8272
 32.7985
 32.8217
 32.8336
 31.2665
 31.2748
 31.2978
 31.198
 32.3975
 32.4223
 32.3754
 32.414
 30.8313
 30.7301
 30.8301
 27.9783
 28.5286
 28.2492
 28.3408
 31.927
 31.7735
 31.8858
 31.8677
 32.4284
 32.4599
 32.426
 32.4296
 32.4919
 32.2816
 32.5471
 32.5387
 32.5255
 32.5461
 32.6647
 32.6705
 32.6685
 31.1252
 31.0859
 31.1947
 31.1305
 30.905
 30.9709
 31.0427
 31.0443
 32.2752
 32.3083
 32.3853
 32.2387
 32.5898
 32.6081
 32.71
 32.734
 32.7133
 32.6976
 31.6331
 31.743
 31.5712
 31.555
 31.6748
 31.5542
 31.6496
 31.6277
 32.5713
 32.6383
 32.6073
 32.627
 32.5927
 32.629
 32.6506
 32.6387
 32.5078
 32.5318
 32.5751
 32.4223
 31.889
 31.8757
 31.9446
 31.9822
 31.7203
 31.7507
 31.8355
 31.756
 26.3433
 26.1493
 26.0161
 25.8682
 32.2617
 32.4337
 32.3684
 32.2532
 32.3949
 32.3096
 32.256
 32.2043
 32.3174
 32.114
 31.0887
 31.0138
 31.0709
 30.9646
 32.38
 32.7884
 32.7652
 32.7108
 32.691
 32.1196
 32.1503
 32.2191
 32.2039
 31.486
 31.614
 31.6172
 31.4779
 31.6727
 31.6804
 32.4786
 32.5184
 32.4154
 32.38
 32.3328
 32.2209
 32.2377
 32.2604
 32.0171
 32.0722
 32.1431
 32.126
 32.1862
 32.8491
 32.8166
 32.7349
 32.7251
 32.5488
 32.5469
 32.5604
 32.5634
 31.0788
 31.2201
 30.9378
 30.87
 30.8004
 30.8856
 30.074
 29.7153
 29.8766
 30.0101
 31.6252
 31.6218
 31.7686
 31.6069
 32.4384
 32.4868
 32.3858
 32.3027
 27.1895
 27.2363
 27.332
 26.9686
 32.3422
 32.3695
 32.3225
 32.3774
 32.5281
 32.5998
 32.6121
 32.6161
 32.703
 32.6134
 32.6093
 32.6301
 30.6331
 30.5035
 30.4888
 30.4383
 32.4734
 32.5223
 32.5824
 32.5598
 32.5489
 32.5193
 32.5588
 30.8472
 30.7097
 30.8062
 30.786
 32.726
 32.7737
 32.7262
 32.8819
 32.4605
 32.4452
 31.4808
 31.5162
 31.4291
 31.5899
 32.371
 32.3263
 32.2527
 32.2303
 30.8402
 30.8938
 30.7002
 30.8277
 32.5837
 32.4981
 32.7699
 32.8366
 32.8274
 32.7812
 32.5964
 32.6241
 32.6365
 32.666
 31.4526
 31.4214
 31.5444
 31.4997
 31.6904
 31.7691
 31.6271
 31.6605
 31.7299
 31.8353
 31.736
 31.6984
 32.641
 32.6742
 32.6669
 32.6341
 30.1296
 30.0032
 30.0998
 30.2407
 30.6029
 30.4655
 30.5644
 30.5012
 32.0814
 32.108
 32.1196
 32.2124
 32.4669
 32.3117
 32.3784
 32.3646
 32.9139
 32.8653
 32.9014
 32.8887
 32.459
 32.5686
 32.412
 32.0806
 31.9884
 32.0631
 31.908
 32.5294
 32.499
 32.5087
 32.5575
 31.9232
 31.8773
 31.8399
 31.9595
 31.8284
 31.8695
 31.8385
 31.9688
 27.0601
 27.7425
 27.0457
 31.8594
 32.0342
 32.0159
 31.961
 32.1841
 32.2288
 32.2057
 32.2265
 31.5223
 31.4
 31.4746
 31.4092
 32.645
 32.6651
 32.6579
 32.5743
 32.5418
 32.5508
 32.248
 32.3086
 32.2673
 32.2546
 32.4017
 32.278
 32.3084
 32.2892
 30.0537
 30.1017
 30.1685
 30.0274
 31.4694
 31.4284
 31.363
 30.985
 31.7682
 31.7902
 32.5781
 32.5946
 32.5754
 32.6044
 31.9221
 31.941
 31.9211
 31.88
 32.1692
 32.1815
 32.1316
 32.1248
 32.65
 32.6482
 32.6257
 32.6557
 32.1082
 32.0248
 32.0164
 32.0193
 32.2827
 32.3338
 32.3148
 32.3905
 32.1685
 32.1286
 32.1583
 32.1556
 31.4256
 31.3738
 31.3159
 31.1563
 32.3684
 32.3473
 32.2899
 29.3981
 29.2115
 29.5517
 31.1574
 31.1363
 31.1028
 31.0527
 31.2397
 31.2998
 31.3222
 31.3242
 32.7155
 32.7226
 32.7693
 32.626
 31.0836
 31.0181
 31.0401
 31.0261
 30.7145
 30.5202
 30.7084
 30.5449
 32.5832
 32.5896
 32.5223
 32.5998
 31.3349
 31.2699
 31.2565
 31.2589
 30.1063
 30.0604
 30.1759
 30.0358
 31.7517
 31.7088
 31.7859
 31.6274
 32.251
 32.4024
 32.3295
 32.4006
 31.437
 31.3786
 31.4634
 31.4795
 31.948
 31.965
 31.9323
 32.1217
 32.054
 30.5948
 30.6842
 30.5051
 30.4533
 32.0501
 31.9787
 31.9536
 32.0329
 30.4051
 30.5191
 30.5698
 30.6205
 30.804
 30.6469
 31.0999
 31.0118
 32.1097
 32.1094
 32.069
 32.1685
 32.6884
 32.6841
 32.6786
 32.675
 31.8435
 31.7682
 31.7754
 31.7988
 32.6364
 32.654
 31.7671
 31.6213
 31.6731
 31.8852
 30.6902
 30.6414
 30.5996
 30.7093
 32.8464
 32.9622
 32.8996
 32.9019
 31.1557
 31.1698
 31.2739
 31.216
 31.7204
 31.6896
 31.7949
 31.6082
 31.1809
 31.0237
 31.0741
 31.049
 32.1198
 32.2204
 32.1473
 32.1673
 32.7317
 32.6745
 32.5608
 32.6643
 30.2869
 30.3514
 30.334
 30.4282
 32.6552
 32.6705
 32.6517
 32.6452
 32.5938
 32.772
 32.7099
 32.6149
 30.7253
 30.7027
 30.8
 30.6884
 32.6891
 32.8074
 32.8317
 32.8381
 31.49
 31.3911
 31.4275
 31.4999
 31.4027
 31.4632
 31.4418
 32.7387
 32.8555
 32.7736
 32.8447
 31.548
 31.4211
 31.4845
 31.4658
 32.3377
 32.4964
 32.4511
 32.4121
 31.3438
 31.2703
 31.269
 31.3388
 31.3629
 31.4004
 31.3228
 31.3911
 32.4676
 32.4396
 32.4826
 32.4446
 32.4217
 32.39
 32.4625
 32.3614
 23.0253
 23.2142
 22.9503
 23.0232
 31.4546
 31.5967
 31.5551
 31.0531
 31.3921
 31.4163
 31.1845
 30.9765
 31.0452
 31.0387
 31.0006
 32.5037
 31.3536
 31.4459
 31.3772
 31.2976
 31.3568
 31.3972
 31.4671
 26.4548
 25.9035
 26.0971
 26.3974
 25.5675
 25.6813
 25.5
 25.4255
 30.9335
 31.0162
 30.9275
 30.8676
 32.5181
 32.4713
 32.5554
 32.4688
 31.9522
 32.0059
 31.8912
 32.6777
 32.6603
 32.6696
 32.6417
 32.6261
 32.6062
 32.6316
 31.2276
 31.309
 31.112
 32.4408
 32.3423
 32.3147
 32.3812
 32.7454
 32.7333
 32.7621
 32.7329
 32.3313
 32.3642
 32.3176
 32.3527
 32.0583
 32.0163
 31.996
 31.98
 31.9841
 31.6721
 31.7389
 32.6857
 32.6219
 32.5282
 32.7722
 32.6963
 32.6453
 32.7951
 32.3895
 32.4428
 32.4848
 32.4568
 32.4143
 32.5069
 32.5232
 32.5103
 31.1505
 31.2178
 31.1957
 31.1954
 32.8516
 32.8988
 32.8022
 32.8224
 32.5906
 32.7181
 32.1699
 32.2503
 32.1805
 32.2701
 30.7958
 31.172
 31.119
 31.15
 31.1783
 22.7175
 22.5703
 22.5761
 22.5524
 31.5337
 31.4335
 31.5072
 30.6065
 30.6747
 30.6804
 30.6308
 31.7614
 31.9055
 31.9091
 31.8949
 32.3138
 32.3465
 32.3871
 32.3126
 32.7193
 32.7362
 32.8506
 32.6456
 30.5284
 30.5689
 30.6053
 30.6102
 31.4289
 31.4933
 31.5763
 31.4966
 31.645
 31.3164
 31.3102
 31.628
 32.724
 32.6861
 32.7086
 32.718
 32.7129
 32.708
 32.683
 32.6853
 22.5665
 22.5528
 22.5604
 22.5748
 32.3586
 32.2895
 32.2345
 32.3376
 31.5607
 31.4384
 31.588
 31.5176
 32.3067
 32.3143
 32.2422
 32.3152
 32.5226
 32.4268
 32.3696
 32.6005
 31.8802
 31.7893
 31.8587
 31.8304
 32.0629
 32.1284
 31.9934
 32.1247
 31.7364
 31.7291
 31.7914
 31.6472
 30.2531
 30.4194
 30.3655
 30.2135
 31.4995
 31.5437
 31.5583
 31.725
 31.8813
 31.9127
 32.0243
 31.9378
 31.9847
 32.3761
 32.3686
 32.4345
 32.3195
 30.945
 31.0014
 31.0121
 31.0069
 32.5887
 32.6056
 32.5799
 32.5879
 32.3299
 32.3266
 32.2856
 32.3664
 32.4519
 32.5265
 32.4914
 32.4387
 32.7727
 32.7884
 32.7758
 32.8256
 28.5237
 28.7835
 29.3729
 28.609
 30.1332
 30.2761
 32.1425
 32.1847
 32.1948
 23.8362
 23.8681
 23.7834
 32.4923
 32.4679
 32.5033
 32.4628
 30.7804
 30.8878
 30.513
 30.457
 32.5217
 32.4611
 32.5331
 32.3582
 30.8436
 30.989
 30.9243
 30.9068
 32.4421
 32.5222
 32.4752
 32.5537
 31.9317
 31.8374
 31.8028
 31.7126
 32.0781
 32.2008
 32.1643
 32.3746
 31.9144
 31.8232
 31.9377
 31.8857
 32.5538
 32.5592
 31.4436
 31.6405
 31.4611
 31.6164
 31.6479
 31.7092
 31.7664
 31.5361
 32.548
 32.5178
 32.5432
 32.5417
 32.8482
 32.8881
 32.8848
 32.851
 32.4308
 32.3963
 32.4368
 32.398
 32.3718
 32.279
 32.2384
 32.1785
 32.2708
 32.1281
 31.9787
 32.4072
 31.6476
 31.7807
 31.8196
 31.805
 30.3168
 30.371
 30.3038
 30.3647
 31.3391
 31.3936
 31.4039
 31.4498
 30.2382
 30.1821
 30.2957
 30.1554
 31.264
 31.1362
 31.1699
 31.1607
 32.5675
 32.445
 32.5212
 32.4841
 31.9055
 31.9648
 32.5223
 32.4644
 32.536
 32.51
 32.5072
 32.5736
 32.5538
 32.5809
 31.6186
 31.4548
 31.4557
 31.5339
 32.5264
 32.5486
 32.5154
 32.5756
 32.4666
 32.4999
 32.5004
 32.4808
 32.4095
 32.3782
 32.414
 32.5318
 32.758
 32.5943
 32.6893
 32.6697
 32.8576
 32.7937
 32.9216
 32.8755
 28.9466
 29.0307
 28.7831
 28.8096
 31.7119
 31.657
 31.7446
 31.6601
 32.0316
 32.0427
 29.7727
 29.9725
 29.9324
 29.527
 32.6997
 32.6871
 32.0115
 32.0749
 32.0026
 31.5153
 31.4647
 32.2292
 32.1383
 32.1078
 32.262
 29.2685
 29.6228
 29.5002
 29.609
 31.9792
 32.1519
 32.2279
 32.2308
 32.7441
 32.5425
 32.5731
 32.6448
 32.3081
 32.3603
 32.382
 32.3575
 31.6735
 31.7143
 31.7322
 31.7335
 32.5857
 32.6479
 32.6072
 32.5859
 32.5336
 32.4936
 32.4869
 32.6037
 32.242
 32.2769
 32.3023
 32.2547
 32.5293
 32.4476
 32.4262
 32.3907
 32.2419
 32.3862
 32.2745
 32.6005
 32.6258
 32.5821
 32.5852
 32.6929
 32.6825
 32.8883
 32.6124
 32.5386
 32.5536
 32.5081
 32.5564
 30.869
 30.9074
 30.8398
 30.776
 32.906
 32.8981
 32.7571
 32.8135
 32.0101
 32.0083
 31.8351
 32.0125
 31.8456
 31.6975
 31.7829
 31.6078
 32.0604
 32.0155
 32.0008
 32.15
 32.5986
 32.5573
 32.6543
 32.6543
 32.8024
 32.7353
 32.7152
 32.727
 31.3199
 31.2511
 31.2311
 31.192
 32.4424
 32.436
 32.4406
 32.4084
 31.8041
 31.69
 31.7602
 31.8345
 32.6958
 32.8387
 32.6902
 32.7413
 30.7913
 30.7568
 30.7732
 30.7724
 30.7431
 30.7663
 30.6128
 31.7271
 31.9325
 31.9001
 31.8753
 32.586
 32.584
 32.544
 32.6006
 30.4111
 30.5677
 30.5401
 32.708
 32.7771
 32.6063
 32.7012
 31.3133
 31.2957
 31.4724
 31.4438
 31.3526
 31.5009
 32.5832
 32.5812
 32.5785
 31.7421
 31.8081
 31.5985
 31.6727
 32.8948
 32.7622
 32.745
 32.8272
 32.6183
 32.518
 32.6752
 30.7444
 30.8974
 30.876
 31.7913
 31.922
 31.9344
 31.8627
 30.7265
 30.7401
 30.8818
 30.6283
 32.6416
 32.614
 32.5875
 32.6287
 31.0247
 31.0031
 30.9658
 31.0904
 32.3185
 32.3189
 32.3552
 32.4362
 32.6455
 32.7126
 32.6889
 30.5162
 30.6076
 30.5657
 30.4357
 32.0563
 32.3297
 32.229
 32.2992
 32.3306
 31.9859
 31.9553
 32.0452
 32.5272
 32.5573
 32.55
 32.548
 32.5553
 32.5482
 32.8983
 32.9427
 32.8789
 32.8255
 32.5012
 32.4392
 32.4506
 32.4216
 31.809
 30.3957
 30.5603
 30.5676
 30.4521
 27.3711
 26.8925
 27.2468
 27.1379
 32.8544
 32.7944
 32.7329
 32.7343
 32.6817
 32.673
 32.5691
 32.6054
 32.5088
 32.5854
 31.699
 31.821
 31.8285
 31.7484
 31.5768
 31.5819
 31.7188
 31.5497
 32.6301
 32.7314
 31.8456
 31.7773
 31.6541
 31.7303
 31.9072
 31.8006
 31.897
 32.215
 32.3063
 32.3487
 32.3618
 32.6304
 32.6584
 32.6155
 32.6702
 31.7276
 31.5706
 31.6043
 31.7173
 31.4345
 31.4768
 31.3285
 31.5005
 31.4586
 31.3629
 31.4032
 31.6995
 31.7156
 31.643
 31.7263
 32.6902
 32.6806
 32.6648
 32.7001
 30.692
 30.7062
 30.8392
 30.8486
 32.6424
 32.6494
 32.6381
 32.641
 31.3939
 31.4826
 31.5484
 31.4725
 32.0895
 32.1949
 32.1964
 32.1157
 32.9731
 32.956
 32.9466
 32.952
 32.0994
 32.1993
 32.0975
 32.1053
 32.4412
 32.4114
 32.5083
 32.3937
 32.3824
 32.3069
 32.3445
 32.2992
 32.0303
 31.9363
 31.9527
 31.1816
 31.1596
 31.2364
 31.2186
 32.6722
 32.6632
 32.6643
 32.6757
 32.6258
 32.5737
 32.5734
 32.5817
 31.3584
 31.139
 31.0184
 31.2466
 32.701
 32.846
 32.7347
 32.7973
 32.8637
 32.7633
 32.7859
 32.7063
 32.3863
 32.4885
 32.4815
 32.4709
 32.4749
 32.5168
 32.4869
 31.8801
 31.8472
 31.8681
 31.9064
 32.3486
 32.4
 32.5103
 32.5406
 30.4727
 30.6125
 30.6148
 30.4976
 32.2757
 32.3063
 32.3668
 32.397
 31.4294
 31.4572
 31.5531
 31.5111
 32.3028
 32.2707
 32.3493
 32.3782
 32.0269
 31.9731
 32.0549
 32.0476
 32.6426
 32.6159
 32.6356
 32.5841
 32.6297
 32.4825
 32.6103
 32.5656
 31.2255
 31.1423
 31.1837
 31.1442
 32.1593
 32.1932
 32.0601
 32.0794
 32.6021
 32.6304
 32.7165
 32.6619
 31.1102
 31.0647
 31.1243
 31.0483
 32.6737
 32.6735
 32.5934
 32.4755
 32.4447
 32.3841
 32.4867
 32.6075
 32.5283
 32.6067
 32.6123
 29.8333
 29.7655
 30.1606
 32.5915
 32.6112
 32.6162
 32.6112
 32.2438
 32.0927
 32.17
 32.0496
 32.2933
 32.3028
 32.289
 32.3426
 31.0823
 31.0238
 31.0207
 31.053
 32.4558
 32.5948
 32.5317
 32.6785
 32.6824
 32.5878
 32.6809
 30.7702
 30.3532
 30.4894
 30.8154
 32.5048
 32.5396
 32.5594
 32.1633
 32.0065
 32.1329
 32.3199
 32.3129
 32.2224
 32.2543
 32.5963
 32.519
 32.5394
 32.4945
 22.64
 22.6704
 22.6368
 22.7395
 32.6224
 32.6237
 32.6293
 32.2206
 32.2159
 32.2168
 32.1983
 32.9433
 32.9323
 33.0075
 32.9803
 32.5355
 32.6506
 32.6517
 32.6073
 31.6311
 31.5843
 31.6345
 31.5567
 31.4875
 31.6007
 31.5412
 31.4647
 30.7844
 30.7776
 30.7097
 30.8633
 32.4361
 32.5239
 32.4371
 32.4267
 32.1965
 32.064
 32.2101
 32.1343
 32.7656
 32.7828
 31.2975
 31.3127
 31.2967
 31.3443
 32.8336
 32.8078
 32.6606
 32.5767
 32.6215
 32.4898
 32.5312
 32.5634
 32.5303
 30.7785
 30.7125
 30.9065
 30.8757
 30.9566
 30.965
 31.0157
 30.9883
 32.8003
 32.8663
 32.9118
 32.7731
 32.0634
 32.0985
 32.1711
 32.1324
 32.1486
 32.0815
 32.9335
 32.8732
 32.9063
 32.8476
 32.7529
 32.8386
 32.7887
 30.1211
 30.0924
 30.206
 32.3971
 32.3163
 32.331
 32.3532
 31.1616
 31.0689
 31.2037
 31.2473
 32.3013
 32.2482
 32.2261
 32.3312
 31.8256
 31.7369
 31.7592
 31.8583
 32.1483
 32.2609
 32.1387
 32.128
 32.7241
 32.6686
 32.7191
 32.7249
 32.2748
 32.3408
 32.1874
 32.2858
 32.7203
 32.6928
 32.6936
 32.7169
 32.2313
 32.3686
 32.3023
 32.5263
 32.6019
 32.6377
 32.5288
 32.4998
 31.739
 31.7403
 31.8106
 32.3344
 32.2728
 32.3122
 32.2794
 24.74
 25.1462
 25.4256
 25.0326
 31.9588
 32.0344
 31.99
 31.9912
 32.7063
 32.6852
 32.7471
 32.6909
 29.7086
 29.9986
 29.3715
 29.8861
 31.0319
 30.9976
 31.1264
 30.6249
 30.7333
 30.8348
 30.7532
 31.5839
 31.4244
 31.5082
 31.4887
 32.3982
 32.0236
 31.846
 31.8381
 31.934
 32.621
 32.5674
 32.6614
 32.6996
 32.2437
 32.0104
 32.1714
 32.6351
 32.6169
 32.5793
 32.6015
 24.8002
 24.3261
 24.6869
 24.1324
 30.3733
 30.3036
 30.5145
 30.2188
 32.7127
 32.7152
 32.7235
 32.7115
 30.4687
 30.6294
 30.5651
 30.5919
 25.9807
 25.9967
 26.386
 26.3542
 31.8043
 31.6977
 31.8461
 31.7433
 32.6282
 32.5771
 32.5305
 32.6051
 32.7763
 32.7713
 32.7092
 32.4098
 32.5243
 32.4702
 32.4684
 30.6529
 30.5723
 30.5608
 32.4148
 32.5003
 32.524
 32.8992
 32.9026
 32.8542
 32.8562
 32.5517
 32.5568
 32.5607
 32.5685
 32.6501
 32.634
 32.6529
 32.6508
 31.8247
 31.7759
 31.6653
 31.8454
 32.5851
 32.5325
 32.6149
 32.5661
 30.7259
 30.865
 30.8743
 30.9383
 31.1441
 31.1211
 31.1273
 31.0733
 31.878
 31.7948
 31.9501
 31.8404
 31.1937
 31.1305
 31.1218
 31.2667
 30.9395
 30.7799
 30.8146
 30.9482
 31.0313
 31.0779
 31.1937
 31.1912
 32.1159
 32.0959
 32.0344
 32.0647
 32.5899
 32.6418
 32.597
 32.716
 32.7003
 32.7734
 32.6849
 31.4624
 31.5317
 31.5607
 31.4219
 31.6666
 31.5886
 31.5501
 31.5774
 30.0968
 30.1166
 30.2596
 30.1885
 30.1185
 30.3452
 30.2545
 30.2963
 31.3102
 31.2336
 31.3053
 31.526
 32.1684
 32.2305
 32.4311
 32.2208
 32.46
 32.5389
 32.5054
 32.544
 33.0174
 33.026
 33.0274
 30.887
 30.8264
 30.7192
 30.7826
 31.5548
 31.6012
 31.6778
 31.6382
 32.5779
 32.6074
 32.6315
 32.618
 31.0928
 31.0179
 32.2264
 32.2378
 32.2553
 32.3114
 31.2495
 31.2031
 31.0447
 31.1427
 32.4076
 32.3415
 32.4239
 32.3207
 32.6617
 32.6929
 32.7504
 32.8531
 31.5307
 31.3264
 31.5334
 31.5632
 24.5383
 24.8782
 24.2546
 24.7229
 31.2809
 31.3348
 31.3204
 31.2621
 30.7073
 30.6801
 30.6871
 30.6174
 32.8416
 32.9109
 32.9036
 32.9791
 32.4585
 32.4894
 32.5043
 32.4738
 32.5139
 32.471
 32.519
 31.8682
 31.9466
 31.8966
 31.9534
 32.4929
 32.4607
 32.524
 32.534
 32.7137
 32.7593
 32.7847
 32.7469
 32.0573
 32.0979
 32.0992
 32.0325
 32.3714
 32.3892
 32.5163
 30.9742
 31.0645
 31.0531
 31.0591
 32.047
 31.9166
 29.1112
 29.692
 29.062
 29.2693
 31.748
 31.8467
 31.8082
 32.9623
 32.915
 32.9928
 32.874
 32.3656
 32.4113
 32.4341
 32.3382
 32.4556
 32.3761
 32.371
 32.1728
 32.2661
 32.1109
 32.2259
 32.0191
 31.9222
 26.5286
 26.6011
 26.1869
 26.5654
 25.277
 24.6666
 24.5009
 25.0339
 32.5041
 32.5541
 32.529
 32.5696
 32.3458
 32.4138
 32.2997
 32.3064
 27.2481
 27.089
 27.1586
 27.6337
 32.5285
 32.509
 32.1508
 32.2145
 32.1361
 32.296
 31.9223
 31.99
 31.8544
 31.8913
 32.226
 32.1683
 32.1141
 32.2478
 32.0167
 32.1334
 32.1596
 32.1246
 32.6145
 32.6103
 32.6311
 32.6235
 32.5325
 32.3716
 32.4182
 32.4879
 30.6677
 31.044
 30.9308
 30.679
 32.4592
 32.5263
 32.5166
 32.6083
 31.5926
 31.7459
 31.6376
 31.7247
 32.4916
 32.6767
 32.6048
 29.8398
 29.9011
 30.2824
 31.8668
 31.6996
 31.8125
 31.8239
 31.777
 31.9758
 31.8601
 31.8414
 32.4686
 32.4939
 32.5362
 32.7937
 32.8166
 32.7158
 32.7507
 32.1421
 32.0876
 32.0436
 32.0514
 31.5437
 31.5718
 31.4807
 31.5388
 32.1085
 32.125
 32.1124
 32.1353
 32.1185
 32.0628
 32.1519
 30.4772
 30.3401
 30.275
 30.3935
 31.0923
 31.0318
 32.6306
 32.6036
 32.6381
 32.6624
 32.5374
 32.448
 32.5846
 32.4832
 32.507
 32.5108
 32.5299
 32.1791
 32.2937
 32.1303
 31.5585
 31.4972
 31.5963
 31.5742
 32.5052
 32.5941
 32.4953
 32.4797
 31.7867
 31.904
 31.9005
 31.8033
 32.1192
 32.1437
 32.4973
 32.4669
 32.5595
 32.4766
 32.8757
 32.8921
 32.9138
 32.8486
 30.4582
 30.2896
 29.9514
 30.2668
 31.7182
 31.5772
 32.6639
 32.6629
 32.6621
 32.6523
 30.6119
 30.664
 30.6346
 30.5943
 32.863
 32.8101
 32.7571
 32.7864
 31.4814
 31.382
 31.3473
 31.324
 30.9801
 30.8679
 31.0439
 30.882
 31.7818
 31.8754
 31.1206
 31.0405
 31.083
 31.0765
 32.1349
 32.0765
 32.1008
 32.2155
 31.1782
 31.1392
 31.1114
 31.1979
 30.5903
 30.418
 30.4224
 30.5498
 32.0017
 31.9839
 31.9179
 31.9315
 32.6535
 32.653
 32.5736
 32.552
 31.0193
 31.1772
 31.0991
 31.0033
 29.7882
 30.0054
 29.8156
 29.65
 31.0608
 30.8848
 32.8333
 32.7838
 32.8636
 32.8093
 31.2609
 31.2518
 31.421
 31.4075
 32.1858
 32.2995
 32.2922
 32.2927
 32.6208
 32.702
 32.7058
 32.6249
 32.4866
 32.567
 32.5465
 32.3038
 32.3153
 32.428
 32.3131
 32.0065
 32.1024
 32.0956
 32.1218
 32.2996
 32.3537
 32.3673
 31.3303
 31.3169
 31.2465
 31.2675
 32.4855
 32.5361
 32.4734
 32.449
 32.327
 32.5065
 32.343
 32.2044
 32.3085
 32.2542
 32.1085
 32.1489
 32.0923
 31.9901
 32.4569
 32.3763
 32.38
 32.4152
 32.6561
 32.6696
 32.6685
 32.8338
 32.8046
 32.7423
 32.7925
 32.8329
 32.7792
 32.8378
 31.1589
 31.3253
 31.2037
 31.286
 31.6505
 31.7286
 31.6905
 31.621
 32.8599
 32.7145
 32.7171
 32.6089
 32.3585
 32.2848
 32.451
 32.3795
 32.4179
 32.3692
 32.3841
 32.7855
 32.7964
 32.7932
 32.7983
 28.2314
 28.4577
 28.2206
 28.1064
 32.7025
 32.7161
 32.7229
 32.7141
 31.0996
 31.117
 31.0416
 31.057
 32.6575
 32.6014
 32.6151
 32.6302
 32.0759
 32.0471
 32.1568
 32.1634
 32.3057
 32.1582
 32.0688
 32.4358
 32.4099
 32.3809
 32.1269
 32.8949
 32.885
 32.8157
 32.8246
 31.0368
 31.0528
 30.9869
 31.2399
 31.2195
 31.1538
 32.5999
 32.5303
 32.522
 32.5019
 30.3708
 30.3212
 30.3007
 30.2885
 32.5434
 32.4037
 32.5142
 32.4811
 32.4602
 32.6608
 32.752
 32.6939
 32.6362
 30.9964
 30.9609
 31.1263
 30.996
 31.8061
 31.6181
 31.7249
 31.7691
 31.5636
 31.499
 31.5992
 31.6113
 32.1113
 32.1235
 32.1574
 32.0495
 32.6913
 32.6923
 32.7061
 32.6908
 32.6264
 32.6649
 32.5371
 32.6243
 32.6268
 32.6521
 32.5312
 32.6569
 31.9877
 31.9698
 31.8744
 31.8999
 32.572
 32.6521
 32.688
 32.6226
 32.6868
 32.6292
 32.6364
 32.6634
 32.1631
 32.1549
 32.1691
 32.0644
 30.8038
 30.6397
 30.7436
 30.6909
 32.0502
 32.2189
 32.1407
 32.2793
 30.5953
 30.2023
 30.6575
 30.6559
 30.9294
 30.868
 30.9082
 30.8258
 30.6577
 30.3214
 31.0514
 30.9514
 30.7771
 31.0311
 32.4823
 32.4399
 32.4971
 32.5285
 32.5892
 32.63
 32.6241
 32.6331
 30.1538
 30.1077
 30.1151
 30.2065
 31.0799
 31.0871
 30.9638
 31.7929
 31.7927
 31.7424
 31.8661
 32.4946
 32.4947
 32.349
 32.5512
 32.6217
 32.5967
 32.5815
 32.5518
 32.5911
 32.6349
 31.8847
 31.7495
 31.7885
 31.8339
 31.905
 31.8922
 31.9731
 31.8881
 31.6742
 31.642
 31.7936
 31.6741
 30.6052
 30.5753
 30.7677
 30.5528
 31.5817
 31.5496
 31.6659
 32.6644
 32.3679
 32.3302
 32.2794
 32.3584
 32.2809
 32.3703
 32.3799
 32.4437
 31.4101
 31.4999
 31.4818
 31.5534
 31.6005
 31.6396
 31.6559
 31.5343
 32.2858
 32.3682
 32.3406
 32.9262
 32.771
 32.7825
 32.9555
 32.2958
 32.1397
 32.2681
 32.1793
 32.6571
 32.6547
 32.6679
 26.0959
 26.1622
 25.7887
 26.2566
 31.3816
 31.2581
 31.3006
 31.1872
 31.3191
 31.1475
 31.2376
 26.8445
 32.3033
 32.2743
 32.2974
 32.1998
 32.3391
 32.301
 31.1394
 31.2821
 31.231
 31.1982
 32.298
 32.3099
 32.3955
 32.1982
 32.8364
 32.8017
 32.6205
 32.474
 32.3908
 32.4334
 32.5653
 32.4592
 32.4478
 32.5237
 32.66
 32.6178
 32.6024
 32.7126
 32.7856
 32.7803
 30.0314
 30.0478
 32.6188
 32.624
 32.4663
 32.554
 32.5153
 32.5027
 32.5635
 32.6114
 31.8089
 31.9177
 31.7318
 31.636
 31.2693
 31.2263
 31.4031
 31.3427
 31.1695
 31.2547
 31.1645
 31.2586
 31.8317
 31.7968
 31.7618
 31.7954
 32.5967
 32.6284
 32.4955
 32.572
 32.5865
 32.6203
 32.4009
 31.7133
 31.604
 31.6476
 31.6142
 30.6425
 30.6448
 30.4883
 30.6855
 31.2368
 31.1076
 31.2536
 31.194
 22.6917
 22.6271
 22.559
 22.7656
 30.7772
 30.7641
 30.8412
 30.822
 32.5639
 32.537
 32.4621
 32.6394
 32.9856
 32.931
 32.9692
 32.9733
 32.0187
 32.0204
 31.9045
 31.9515
 31.9923
 31.9886
 32.054
 32.0382
 32.1914
 32.4289
 32.3411
 32.3292
 30.8945
 30.8211
 30.8969
 30.8837
 31.2658
 31.1792
 31.2189
 31.1511
 31.5463
 31.522
 31.4593
 31.4572
 30.8813
 30.9523
 30.9658
 30.8871
 32.7605
 32.7679
 32.7777
 32.7463
 32.5725
 32.4958
 32.6107
 32.5377
 31.2901
 31.3903
 31.404
 31.3808
 32.868
 32.7394
 32.8687
 32.8984
 32.3525
 32.3713
 32.3694
 32.3426
 25.1426
 25.3657
 25.5777
 25.3556
 30.738
 30.7275
 31.0347
 31.0094
 31.1114
 30.9749
 31.608
 31.4051
 31.3415
 31.7537
 32.7819
 32.7293
 32.7187
 32.6741
 31.2007
 31.2895
 31.1854
 31.1374
 32.9477
 32.922
 32.9132
 32.8755
 32.515
 32.494
 32.5331
 32.516
 30.5997
 30.5969
 30.6495
 30.7326
 32.4262
 32.4299
 32.413
 32.3862
 32.5285
 32.5072
 32.5322
 32.5573
 31.6572
 31.6062
 31.5604
 31.5653
 31.8789
 31.8705
 31.941
 31.9917
 32.6295
 32.6375
 32.6466
 32.661
 32.6847
 32.6878
 32.703
 31.3036
 31.0787
 31.1165
 31.4056
 32.5751
 32.5128
 32.5289
 32.5226
 32.5139
 32.5415
 32.4938
 32.5696
 30.4772
 30.4562
 30.4873
 30.6237
 32.647
 32.6582
 32.6491
 32.675
 32.0726
 32.0499
 31.9539
 31.7331
 31.734
 31.6876
 31.7315
 31.8123
 32.0171
 31.9929
 32.0537
 32.5421
 32.4162
 32.4293
 32.3921
 30.8397
 30.8263
 30.821
 31.0403
 32.275
 32.3336
 32.3039
 32.3773
 31.0428
 31.0621
 31.0038
 31.0176
 32.4073
 32.262
 32.3775
 32.1819
 31.9886
 31.9277
 31.9349
 31.9797
 32.641
 32.7541
 32.712
 32.609
 29.966
 29.9906
 29.9412
 29.9387
 32.8613
 32.8859
 32.8719
 32.8191
 32.1241
 32.2687
 32.21
 32.2061
 30.0921
 30.0643
 30.1431
 30.1434
 31.1241
 31.0049
 31.0472
 31.702
 31.7487
 31.607
 31.5778
 31.1394
 31.1907
 31.0172
 31.1875
 27.8288
 28.1627
 28.4557
 28.3259
 32.6209
 32.5747
 32.5
 30.7079
 30.5411
 30.5662
 30.5948
 32.2562
 32.2863
 32.1864
 32.279
 31.442
 31.491
 31.3599
 31.5293
 32.1515
 32.1231
 31.9329
 31.9194
 32.9856
 32.9655
 33.0132
 32.9921
 31.8611
 31.9955
 31.9829
 31.4168
 31.6219
 31.7476
 31.6518
 32.489
 32.2126
 32.3626
 32.2849
 32.6553
 30.5831
 30.5478
 30.5383
 30.4728
 28.7086
 28.691
 28.3044
 28.1762
 31.6333
 31.4927
 31.5456
 31.4926
 31.9954
 32.0405
 31.9594
 32.0898
 26.1799
 31.2747
 31.3713
 31.2242
 30.7466
 30.6412
 30.7225
 30.7009
 32.8171
 32.7152
 32.6173
 32.7645
 32.0674
 32.0803
 32.0254
 32.1097
 32.4973
 32.4096
 32.4689
 32.4888
 32.4956
 32.4289
 32.6878
 32.6628
 32.5651
 32.5725
 32.6982
 32.6906
 32.6721
 32.6256
 31.8248
 31.8691
 31.8147
 31.7657
 29.7651
 29.7386
 29.7184
 30.0985
 32.1712
 32.1154
 32.1433
 32.0859
 30.7573
 30.8364
 31.9678
 31.9321
 31.9205
 31.9433
 31.7904
 31.5476
 31.8656
 31.6545
 30.6377
 30.7234
 30.7683
 30.7921
 32.2917
 32.2623
 32.3046
 32.1525
 32.7105
 32.6907
 32.6377
 32.7058
 32.1942
 32.2117
 32.2173
 32.159
 30.5405
 30.5484
 31.2698
 31.1768
 31.2067
 31.2449
 30.6114
 30.5459
 30.6327
 28.8982
 28.7575
 28.8979
 28.6406
 30.682
 30.7813
 30.7295
 30.796
 32.6059
 32.6065
 32.6099
 32.5927
 32.6187
 32.6136
 32.6216
 30.5166
 30.5592
 30.5635
 30.4974
 32.2719
 32.343
 32.2532
 32.3323
 32.5687
 32.535
 32.4733
 32.5482
 32.4833
 32.5327
 32.6419
 32.7609
 32.67
 32.6907
 32.1465
 32.2419
 32.1775
 30.4894
 30.651
 30.6737
 30.5655
 32.6133
 32.5749
 32.6082
 32.6136
 32.6518
 32.6601
 32.7022
 32.8418
 32.7993
 32.9199
 29.5448
 29.5806
 29.9506
 32.5032
 32.4551
 32.5538
 32.5733
 30.7383
 30.7284
 30.7124
 30.6959
 30.5808
 30.6108
 32.4458
 32.564
 32.5342
 32.5436
 31.8648
 31.8809
 31.9858
 31.9549
 27.8086
 27.6459
 27.799
 27.8663
 31.2891
 31.2704
 31.3512
 31.3572
 31.7378
 31.8732
 31.857
 31.8379
 31.1076
 31.072
 31.1431
 30.6546
 30.6538
 30.45
 30.5304
 32.3613
 32.4217
 32.3508
 32.3771
 30.9823
 31.0081
 31.0788
 31.071
 32.6901
 32.6589
 32.6722
 32.6548
 30.5465
 32.125
 32.4916
 32.528
 32.4766
 32.5513
 32.0709
 32.0688
 32.177
 32.1855
 31.6481
 31.6158
 31.6734
 31.7785
 32.0529
 32.1059
 32.0055
 32.0424
 31.373
 31.4258
 31.3207
 31.3432
 32.528
 32.5551
 32.5287
 32.488
 32.5508
 32.5331
 32.5215
 32.5054
 32.6482
 32.6326
 32.6343
 32.6244
 32.4771
 32.4643
 32.5418
 32.2873
 32.2883
 32.3307
 32.4748
 32.4978
 32.0622
 31.8507
 31.8454
 31.9927
 30.8071
 30.7963
 30.9282
 32.7907
 32.8046
 32.7914
 32.8151
 32.4243
 32.328
 32.3434
 31.9735
 31.9195
 32.0599
 32.0031
 31.9262
 31.9273
 31.8027
 31.8041
 31.035
 30.99
 30.9191
 31.0031
 32.537
 32.4528
 32.5417
 32.3822
 32.3101
 32.4296
 32.4626
 32.4314
 32.5956
 32.6532
 32.6769
 32.6856
 32.6152
 32.6746
 32.6566
 32.7038
 32.5013
 32.5345
 32.505
 32.5466
 31.5636
 31.7206
 31.5431
 31.6453
 32.5777
 32.6241
 32.6065
 32.6012
 31.1664
 31.1937
 31.1454
 31.2059
 30.7431
 30.9919
 30.9168
 32.5454
 32.5635
 32.5112
 32.5051
 32.5953
 32.4282
 32.4609
 32.4887
 32.5225
 32.6146
 32.5169
 32.4518
 30.8582
 30.8583
 30.9684
 30.9907
 31.6356
 31.7316
 31.7248
 31.6141
 32.5603
 32.6
 32.5588
 32.5767
 32.4256
 32.5599
 32.4414
 32.3086
 31.2284
 31.2698
 31.323
 31.2297
 28.7533
 28.3057
 28.3845
 28.8964
 32.513
 32.4917
 32.4916
 32.5093
 31.9221
 32.1462
 32.0933
 32.7519
 32.6243
 32.7146
 32.8566
 31.7295
 31.8196
 31.7301
 31.838
 32.4811
 32.3597
 32.4084
 32.4253
 31.171
 31.7339
 31.3165
 28.2359
 28.5075
 28.7568
 28.5152
 30.4778
 30.4453
 30.3933
 30.3283
 32.5157
 32.4706
 32.5288
 32.5418
 32.124
 32.236
 32.229
 32.1299
 30.973
 31.0571
 31.1242
 31.0691
 31.4698
 31.3431
 31.521
 31.4354
 32.4584
 32.4979
 32.4534
 32.4819
 32.048
 31.8237
 31.6136
 31.8832
 32.4067
 32.3484
 32.4155
 32.3671
 31.8769
 32.176
 32.8127
 32.9041
 32.9256
 32.8191
 32.4381
 32.4445
 32.4643
 32.4174
 32.451
 32.453
 32.4572
 32.2416
 32.2469
 32.2208
 31.9718
 31.9827
 31.961
 31.9204
 32.2074
 32.2145
 32.273
 32.1472
 32.5814
 32.6333
 32.6093
 32.595
 31.6164
 31.4818
 31.6489
 31.5787
 32.5098
 32.554
 32.5302
 32.4947
 32.1591
 32.1645
 32.1219
 32.1409
 32.9582
 33.0216
 33.0119
 32.2254
 32.2177
 32.3055
 32.188
 32.4415
 32.4228
 32.3548
 30.4719
 30.5664
 30.5497
 30.6027
 30.553
 30.3242
 30.6268
 30.1488
 32.6692
 32.679
 32.6732
 32.6804
 32.6367
 32.6473
 32.6447
 32.6626
 30.3747
 30.4142
 30.2775
 30.1876
 31.6983
 31.621
 31.6447
 32.7608
 32.8647
 32.7502
 32.8809
 31.2892
 31.431
 31.3533
 32.5045
 32.5173
 32.453
 32.4701
 24.3676
 24.6656
 24.5235
 24.7765
 30.9032
 30.8787
 30.8633
 30.9722
 32.2797
 32.206
 32.0983
 32.0158
 30.7138
 30.8032
 30.8184
 30.7835
 32.5139
 32.5327
 32.4776
 32.5522
 24.6821
 24.1943
 24.566
 24.5856
 31.3615
 31.2385
 31.4748
 31.425
 32.4613
 32.4527
 32.6427
 32.4208
 32.4308
 32.5423
 32.1975
 32.3367
 32.1373
 32.14
 32.2834
 32.3742
 32.4027
 32.4272
 32.6846
 32.6823
 32.7817
 32.6897
 31.0531
 31.1564
 30.9443
 30.9394
 31.1408
 31.2448
 31.1992
 31.1006
 31.4419
 31.4165
 31.4348
 31.5688
 31.1281
 31.115
 31.0915
 31.1724
 31.8091
 31.8641
 31.7571
 31.8361
 31.3956
 31.3004
 31.3314
 31.3976
 30.8808
 30.5623
 30.4812
 30.9422
 30.8923
 30.8495
 30.8651
 30.8818
 32.8058
 32.8913
 32.7657
 32.7201
 31.6821
 31.7923
 31.7824
 31.1848
 31.0848
 31.0856
 31.1819
 32.3073
 32.0976
 32.0972
 32.1155
 31.3735
 31.3227
 31.2697
 31.3193
 31.6003
 31.609
 31.7222
 31.5343
 32.4542
 32.4865
 32.5736
 32.5072
 31.9216
 31.9963
 31.9209
 31.8529
 31.8541
 31.8558
 31.7186
 32.7656
 32.7494
 32.805
 32.0172
 32.0077
 32.3891
 32.5308
 30.4644
 30.4067
 30.4221
 30.4685
 32.4094
 32.3377
 32.3839
 32.2726
 31.9029
 32.002
 31.8444
 31.9695
 32.4546
 32.398
 32.3778
 32.3096
 31.4572
 31.3753
 31.3143
 31.398
 31.3949
 32.6017
 32.6233
 32.6613
 32.6626
 32.2154
 32.2223
 32.2203
 32.21
 31.7565
 31.8684
 31.767
 31.8522
 31.9375
 32.104
 32.0724
 31.9881
 25.4686
 25.8584
 26.0461
 26.5433
 32.5905
 32.5549
 32.6067
 32.598
 32.4942
 32.567
 32.569
 32.4951
 31.9801
 32.0597
 32.0936
 32.1436
 32.2011
 32.1218
 32.668
 32.6665
 32.6821
 32.678
 32.3514
 32.3185
 32.2604
 32.2345
 32.5636
 32.5601
 32.5558
 32.5819
 32.6721
 32.6678
 32.5872
 32.6256
 31.7035
 31.7129
 31.6505
 31.5822
 30.9099
 30.8794
 30.9924
 30.9304
 32.6715
 32.6307
 32.5877
 32.5896
 32.6489
 32.7883
 32.7015
 32.6559
 31.4382
 31.5796
 31.5083
 31.5641
 32.8495
 32.8163
 32.7452
 32.7434
 32.6221
 32.633
 31.5965
 31.7359
 31.7872
 31.5863
 32.9938
 33.0068
 32.9381
 33.0436
 31.2702
 31.3136
 31.3141
 31.207
 30.867
 30.947
 30.9443
 30.8214
 26.9051
 27.0929
 32.7083
 32.6907
 32.6165
 32.6812
 32.5382
 32.6064
 32.5577
 32.6035
 32.6854
 32.774
 32.4442
 32.4942
 32.4751
 32.5086
 32.7122
 32.5578
 32.6135
 31.0188
 31.2764
 31.2625
 31.3809
 31.0545
 30.9926
 31.1073
 31.0462
 30.9023
 30.885
 30.8813
 30.4484
 30.5068
 30.5817
 30.5408
 32.4545
 32.2604
 32.3784
 32.3181
 32.4377
 32.3677
 32.4755
 32.4103
 31.5391
 31.4148
 31.3504
 31.4469
 31.8766
 31.8453
 31.7603
 31.8622
 32.0934
 31.9575
 31.9955
 32.5397
 32.5358
 32.5433
 32.4597
 31.8794
 31.7124
 31.776
 31.8718
 32.6307
 32.6255
 32.6126
 32.6147
 32.5949
 32.5806
 32.549
 32.6979
 32.0518
 32.0744
 32.1012
 31.99
 32.5119
 32.5777
 32.604
 32.5296
 24.8473
 24.6906
 25.1077
 25.0962
 32.4293
 32.4025
 32.3906
 32.3292
 31.8531
 31.8176
 31.7615
 31.7506
 32.6667
 32.6744
 32.6255
 32.5952
 32.264
 32.0797
 32.272
 32.3763
 31.1406
 31.1257
 31.0497
 31.2056
 31.1113
 31.213
 31.14
 31.1408
 30.8471
 30.9585
 30.8354
 30.8419
 31.3933
 31.4056
 31.3169
 31.3362
 32.8196
 32.6765
 32.8106
 32.6763
 32.8238
 32.8118
 32.8171
 32.7288
 32.022
 32.1304
 32.0326
 32.1265
 32.8404
 32.8596
 32.8342
 32.8705
 31.7801
 31.7656
 31.8969
 31.9743
 32.5781
 32.5394
 32.564
 32.5109
 32.6395
 32.6524
 32.621
 32.8357
 32.8704
 32.8391
 32.887
 31.9382
 31.7979
 31.6376
 31.8353
 32.5465
 32.5502
 32.5057
 32.5275
 31.951
 31.8832
 31.9405
 31.8554
 32.6448
 32.5643
 32.5564
 30.4662
 30.5716
 30.5918
 30.5091
 30.7838
 30.6735
 30.6311
 30.7119
 32.9314
 32.9184
 32.93
 32.9194
 32.1319
 32.0862
 32.2152
 32.201
 32.076
 32.3059
 32.6343
 32.636
 32.7562
 32.7239
 30.7872
 30.7754
 30.8799
 30.8038
 32.6058
 32.608
 32.5663
 32.8467
 32.9014
 32.7986
 32.8763
 32.8496
 32.7605
 32.8179
 32.8433
 32.5158
 32.4676
 32.4529
 32.5296
 32.3697
 32.3498
 32.3156
 32.3639
 32.3757
 32.2816
 32.3198
 32.3155
 32.4581
 32.4053
 31.3703
 31.3822
 31.2127
 31.3615
 32.4052
 32.47
 32.4345
 32.4184
 32.0931
 32.2194
 32.1981
 32.47
 32.4142
 32.4174
 32.3939
 32.2241
 32.2613
 32.3039
 32.2294
 32.5302
 32.4107
 32.4997
 32.3665
 32.6725
 32.6744
 32.6355
 32.4198
 32.438
 32.2637
 32.4703
 32.5973
 32.5943
 32.5551
 32.2858
 32.3663
 32.2511
 32.1996
 32.2076
 32.2096
 32.284
 32.3951
 32.3093
 32.3431
 26.9956
 27.1982
 27.4538
 26.5851
 31.9476
 32.0272
 32.0538
 31.9537
 32.6558
 32.6479
 32.6539
 32.6435
 31.5228
 31.5398
 31.5091
 31.3983
 31.2989
 31.4028
 31.2635
 31.2894
 32.426
 32.5369
 32.3401
 32.4129
 32.4817
 32.5975
 32.6012
 32.5648
 32.6102
 32.6225
 32.5858
 31.0549
 31.2257
 31.1499
 32.4614
 32.4275
 32.4601
 32.371
 31.9699
 31.9473
 31.9459
 31.9269
 31.1111
 31.0253
 31.0455
 31.1183
 22.8324
 22.5804
 22.6076
 22.9949
 32.5929
 32.6122
 32.6235
 32.5956
 32.3476
 32.2023
 32.2396
 32.2437
 31.6864
 31.5772
 31.4441
 32.3125
 32.2564
 32.2792
 32.3276
 30.8572
 32.0053
 32.0405
 32.2334
 32.1325
 31.4798
 31.4775
 31.4293
 31.394
 31.6742
 31.801
 31.8142
 31.7569
 32.3628
 32.424
 32.377
 32.4598
 32.4587
 32.4535
 28.1624
 28.6197
 28.0206
 28.3846
 32.6506
 32.648
 32.637
 32.6099
 32.6069
 32.6395
 32.6192
 30.9674
 30.7259
 30.979
 30.9753
 32.521
 32.5321
 32.4696
 32.4715
 32.1036
 32.1327
 32.1926
 32.1345
 31.297
 31.3405
 31.2602
 31.3526
 32.5336
 32.5619
 32.4847
 32.6523
 30.9583
 30.9237
 30.6403
 30.7642
 32.5529
 32.5781
 32.5623
 32.5726
 32.5549
 32.5396
 32.5536
 32.5923
 32.6479
 32.5731
 32.5152
 32.5769
 31.9306
 31.9815
 31.944
 31.9082
 29.9712
 29.8207
 29.5289
 30.0234
 30.3558
 30.5141
 30.4578
 30.4608
 29.0571
 29.1674
 28.701
 29.3355
 32.5424
 32.5642
 32.5252
 32.5792
 30.4199
 30.46
 30.4927
 30.4874
 32.7066
 32.7034
 32.7039
 32.6845
 32.1663
 31.1138
 31.1705
 31.1443
 31.0574
 32.7743
 30.6966
 31.1194
 31.1254
 30.7273
 32.3767
 32.2662
 31.5995
 31.7455
 31.6204
 31.7324
 31.0583
 31.088
 31.0137
 31.0374
 30.3082
 30.4207
 30.3049
 31.511
 31.4096
 31.3862
 31.3713
 32.6171
 30.6774
 31.9423
 32.0077
 32.0201
 30.9986
 30.939
 30.8966
 30.996
 32.6322
 32.6243
 32.6349
 32.6435
 32.858
 32.926
 32.7734
 32.8984
 31.9608
 32.0514
 32.0428
 31.8875
 30.6557
 30.5557
 30.6745
 30.6419
 31.2369
 31.2755
 31.2069
 31.2789
 32.1189
 32.0018
 32.0105
 30.096
 29.8511
 30.4556
 29.9999
 23.133
 23.698
 23.5588
 23.5588
 31.6662
 31.4208
 31.3573
 31.4933
 32.2647
 32.2186
 32.3338
 30.6709
 30.9489
 30.8453
 30.6089
 31.2597
 31.2778
 31.1657
 31.616
 31.5405
 31.6394
 31.6024
 32.6524
 32.6393
 31.9601
 31.7166
 30.0786
 30.178
 30.0777
 30.4282
 30.4169
 30.4134
 30.3726
 32.6182
 32.6378
 32.5963
 32.6184
 32.6268
 32.6117
 32.6034
 32.6303
 32.6646
 32.7462
 32.7112
 32.6709
 30.7843
 30.7778
 30.7694
 30.7989
 31.8718
 31.8592
 31.8939
 31.9506
 31.7876
 31.7811
 31.8833
 31.9661
 31.9425
 31.9244
 31.9831
 31.8615
 32.4786
 32.4187
 32.5266
 32.4386
 31.887
 31.7678
 31.8126
 22.5589
 22.5677
 22.5725
 32.558
 32.571
 32.6319
 32.6552
 32.6168
 32.6336
 31.7892
 31.6758
 31.7834
 31.7675
 31.8586
 31.828
 31.7064
 31.8809
 31.8804
 31.8985
 31.7659
 27.5242
 27.4957
 31.8826
 31.8198
 31.9041
 31.9006
 32.2707
 27.3148
 26.74
 26.9835
 26.838
 32.5856
 32.6358
 32.5982
 32.6175
 32.6763
 32.6283
 30.018
 30.6757
 30.4837
 30.1639
 30.3182
 30.1926
 30.2777
 30.2988
 30.6363
 30.6422
 30.7104
 30.5125
 32.4409
 32.6076
 32.5061
 32.5781
 32.8867
 32.9266
 32.8911
 32.9407
 32.5597
 32.5936
 32.5668
 31.721
 31.724
 31.8
 31.7041
 32.0933
 32.1582
 32.263
 32.2494
 32.6964
 32.6099
 32.7015
 32.3315
 32.3533
 32.283
 32.2108
 32.5923
 32.5964
 32.5678
 32.5863
 32.7676
 32.8008
 32.8241
 32.7401
 32.4338
 32.3603
 32.3907
 32.4585
 32.7551
 32.6202
 32.7136
 32.827
 31.93
 32.0039
 32.6049
 32.5975
 32.5677
 32.5492
 30.4531
 30.6139
 30.5938
 30.585
 32.2803
 32.34
 32.2845
 32.3513
 31.1023
 31.0654
 31.3652
 31.201
 32.4153
 32.2915
 29.0331
 29.09
 28.738
 29.3153
 32.767
 32.8965
 32.7544
 30.9333
 31.0091
 30.8927
 30.8964
 29.4753
 29.171
 29.4286
 32.465
 32.4584
 32.5462
 32.5172
 30.4728
 32.7625
 32.6739
 32.7732
 32.6503
 32.4655
 32.489
 32.4524
 32.538
 32.4686
 32.4561
 32.4394
 32.4762
 30.8098
 30.6861
 32.565
 32.5745
 32.6154
 32.6102
 32.5692
 32.4376
 32.5377
 32.481
 32.6609
 32.6842
 32.6817
 32.6549
 31.0949
 31.168
 31.1508
 31.1656
 32.8075
 32.8211
 32.7691
 32.7545
 32.4321
 31.2826
 31.2022
 31.2957
 32.6948
 32.7019
 32.6882
 32.6697
 31.885
 31.8976
 31.8463
 31.9788
 32.7998
 32.774
 32.7983
 32.7453
 30.8147
 30.9198
 30.9295
 30.8781
 30.1137
 30.0628
 30.1781
 32.4736
 32.5373
 32.5945
 32.5237
 32.3011
 32.1576
 32.3171
 32.2962
 31.7975
 31.7944
 31.7118
 31.661
 32.5328
 32.6164
 32.7313
 32.8437
 32.7651
 32.8407
 32.8789
 32.8067
 31.9739
 31.9645
 32.0059
 32.0231
 31.858
 31.8179
 31.7565
 31.8976
 32.6226
 32.6867
 32.5861
 32.5594
 32.0641
 32.0559
 32.0385
 31.0985
 31.2625
 31.2706
 31.2337
 31.522
 31.5496
 31.4842
 32.7071
 32.6016
 32.6296
 32.6358
 32.6315
 32.5771
 32.5339
 32.5972
 31.7939
 31.8861
 31.9052
 31.8113
 32.5462
 32.5602
 32.5859
 32.0127
 32.0157
 32.04
 32.0288
 32.5732
 32.6089
 32.5751
 32.5791
 31.5891
 31.5421
 31.6999
 30.3976
 30.5305
 30.555
 31.9297
 31.8785
 31.8924
 32.5941
 32.5841
 32.6241
 32.5822
 30.597
 30.6238
 30.608
 30.5358
 32.0945
 32.1257
 32.071
 32.0131
 31.4136
 31.3632
 31.196
 31.2525
 31.5788
 31.5449
 31.6069
 31.594
 31.4629
 31.1498
 31.234
 32.5056
 32.4821
 32.5018
 32.4873
 31.5569
 31.4601
 31.5923
 31.5938
 32.6017
 32.5729
 32.593
 32.5346
 31.7693
 31.7625
 31.7907
 31.8868
 30.7448
 30.7076
 31.7338
 31.9657
 31.8677
 31.9785
 31.5376
 31.5921
 31.4756
 31.5888
 32.6522
 32.6904
 32.6723
 32.6509
 31.9372
 31.9723
 30.6661
 30.6612
 30.735
 30.5951
 31.4066
 31.3032
 31.4414
 31.2091
 30.5193
 30.5313
 30.4189
 30.3437
 31.7714
 31.8203
 31.7605
 31.8862
 31.7226
 31.8004
 31.8056
 31.7538
 31.8528
 31.8297
 31.9073
 32.6181
 32.6422
 32.5722
 32.5832
 30.6978
 30.6423
 30.9227
 32.6125
 32.6009
 32.6188
 31.1545
 31.2439
 31.1687
 31.2796
 32.5123
 32.4834
 32.4474
 32.467
 32.549
 32.3688
 32.2962
 32.5159
 32.6606
 32.802
 32.7166
 32.8106
 32.7529
 32.6929
 32.7157
 30.6953
 30.6445
 30.7645
 30.7654
 32.1512
 32.2342
 32.1773
 32.2409
 32.2593
 31.8457
 31.8445
 31.9034
 31.7612
 32.7443
 32.7304
 32.6066
 32.7775
 32.4628
 32.5359
 32.5535
 32.4921
 32.3815
 32.5043
 32.5223
 32.3912
 32.6307
 32.5904
 32.6791
 32.6241
 31.1363
 31.1221
 30.9841
 32.588
 32.6302
 32.5753
 32.5856
 32.2241
 32.1913
 32.2751
 32.3862
 32.2637
 32.3263
 32.5798
 32.3847
 32.4739
 32.4534
 30.8991
 30.9915
 32.3844
 32.5286
 32.4057
 32.3907
 32.4579
 32.5288
 32.4872
 32.4864
 32.8457
 31.0662
 30.7265
 30.8521
 32.4303
 32.3901
 32.3544
 32.4784
 30.9789
 30.9757
 31.034
 30.9277
 31.1411
 31.2986
 31.2732
 31.0228
 32.2288
 32.2987
 32.2209
 32.2299
 31.7701
 31.6773
 31.6643
 31.4482
 31.4085
 31.5698
 31.5977
 30.4288
 30.5801
 30.4659
 30.4223
 31.8978
 32.0545
 32.1296
 31.8106
 32.0273
 32.1112
 32.0441
 31.9533
 32.7571
 32.7257
 32.7334
 32.7412
 32.2416
 32.2991
 32.3372
 32.654
 32.6072
 32.6743
 32.6444
 32.1957
 32.0967
 32.2383
 32.1939
 32.2703
 32.1949
 32.2376
 31.6948
 31.7392
 31.6534
 31.6323
 31.7232
 32.6742
 32.4614
 32.5677
 32.577
 30.9169
 31.0055
 31.0157
 31.0108
 32.3728
 32.3103
 32.3978
 32.3278
 31.8303
 31.7627
 31.8205
 31.8832
 32.327
 32.2555
 32.3753
 32.7481
 32.7207
 32.236
 32.2772
 32.2738
 32.2018
 31.0093
 30.8838
 32.25
 32.2183
 32.2624
 32.2003
 32.0668
 32.0413
 32.2046
 31.1137
 31.0975
 31.182
 31.1208
 32.3507
 32.3944
 32.4272
 32.3672
 32.1411
 32.0724
 32.1372
 32.1901
 32.6384
 32.6597
 32.5799
 32.6151
 32.15
 31.9898
 31.3646
 31.2433
 31.2814
 31.1567
 32.5923
 32.664
 32.6847
 32.7222
 32.7263
 32.6872
 32.556
 32.5134
 32.4577
 32.5015
 32.5949
 32.5068
 32.5788
 31.9569
 32.0168
 32.0176
 32.0793
 32.8679
 32.8496
 32.823
 32.8652
 32.672
 32.6546
 32.1504
 32.2354
 32.3191
 32.3603
 32.305
 32.2944
 32.5214
 32.4638
 32.4582
 32.5016
 29.337
 29.7238
 29.6226
 29.9142
 32.206
 32.2557
 32.3421
 32.2933
 32.2158
 30.6757
 30.6369
 30.7141
 31.7632
 31.864
 31.8814
 31.7601
 32.5037
 32.4511
 32.4808
 32.5672
 32.531
 32.4614
 32.5309
 32.4065
 32.4689
 32.4343
 32.3746
 30.966
 30.8952
 31.0997
 30.946
 32.1447
 32.1702
 32.0735
 32.0811
 31.0433
 31.0303
 31.1578
 31.0929
 31.9636
 31.9779
 31.8315
 31.8454
 32.5923
 32.6034
 31.7605
 31.8095
 31.8629
 31.8203
 30.8698
 30.9251
 30.9164
 30.9319
 30.1702
 30.1361
 30.2
 30.0768
 31.0806
 31.1448
 31.0473
 32.1397
 32.1153
 32.2004
 32.148
 31.3374
 31.2799
 31.217
 31.2774
 31.9021
 31.9731
 32.2682
 32.0049
 31.3355
 31.2941
 31.2647
 32.1279
 32.1478
 32.1518
 32.1363
 32.1077
 32.1291
 32.1695
 32.0161
 31.7416
 31.6057
 31.73
 31.7009
 32.1453
 32.0946
 32.0754
 32.1216
 32.7058
 32.5854
 32.7458
 32.6415
 31.6096
 31.6622
 31.3675
 31.3649
 32.502
 32.4444
 32.3964
 32.458
 28.4288
 28.47
 29.216
 28.8643
 32.6127
 32.6923
 32.6386
 32.7073
 32.6815
 32.607
 32.5424
 26.3907
 26.4734
 26.0074
 26.6008
 31.2284
 31.3216
 31.3185
 31.3861
 31.4107
 31.3091
 31.3389
 32.88
 32.8701
 32.8729
 30.7919
 30.9197
 30.6919
 31.8842
 31.7667
 31.8658
 31.964
 32.5692
 32.5734
 32.6003
 32.5523
 32.1023
 32.0062
 32.0851
 32.0942
 29.3516
 29.2312
 29.439
 29.0307
 32.3158
 32.4287
 32.4361
 32.3373
 31.4629
 31.3732
 31.5257
 31.4568
 32.4705
 32.4168
 32.3318
 32.2724
 32.6304
 32.6454
 32.5925
 32.3614
 32.3128
 32.4454
 32.4557
 31.0337
 30.9338
 30.9301
 30.9281
 31.3825
 31.2856
 31.3787
 31.4011
 32.625
 32.6163
 32.5949
 32.6552
 30.6608
 30.6237
 30.5815
 31.0019
 30.8734
 30.9899
 30.9571
 30.9371
 30.8675
 31.0036
 30.9299
 29.9386
 29.8523
 25.9957
 26.1413
 25.8268
 26.4071
 31.9408
 31.9775
 32.0131
 32.4658
 32.5279
 32.4025
 32.4825
 32.6267
 32.5545
 32.5894
 32.6068
 22.6107
 32.6526
 32.143
 32.0458
 31.5429
 31.4581
 31.5227
 31.4803
 30.8621
 32.5193
 32.503
 32.5122
 30.0488
 30.1267
 30.1236
 30.1244
 32.5688
 32.632
 32.5962
 32.5481
 30.504
 30.6121
 30.5374
 30.6059
 32.705
 32.6166
 32.6616
 32.7666
 32.7987
 32.7829
 31.3384
 31.2674
 31.4095
 31.3281
 32.364
 32.3815
 32.4191
 32.5263
 31.9751
 31.89
 32.091
 32.0731
 31.3825
 31.1876
 31.2547
 30.7445
 30.6278
 30.6166
 30.7536
 31.4324
 31.4408
 31.5392
 31.4333
 32.9192
 32.9384
 32.9924
 32.9241
 32.5848
 32.5954
 32.5876
 32.61
 31.1753
 31.0887
 31.0963
 31.0944
 32.5732
 32.7784
 32.7172
 31.6523
 31.6218
 31.6892
 31.7261
 32.4478
 32.5402
 32.3588
 32.3922
 32.1724
 32.2001
 32.2441
 32.2243
 32.1733
 32.2304
 32.132
 32.2044
 32.2613
 32.0888
 32.1365
 32.1672
 31.5386
 31.4941
 31.4166
 31.6421
 31.8825
 31.833
 31.8921
 32.2734
 32.2263
 31.3809
 31.4745
 31.4577
 31.549
 32.6733
 32.6966
 32.6807
 31.9072
 31.6127
 31.6426
 31.7507
 31.9919
 31.9462
 32.0342
 31.9255
 32.1106
 32.1504
 31.997
 32.1074
 24.3216
 24.3901
 24.7622
 24.3587
 32.7957
 32.8323
 32.7875
 27.6955
 28.0551
 28.222
 32.3877
 32.4333
 32.5354
 32.5718
 32.6326
 31.957
 32.1131
 31.8845
 32.0432
 32.5912
 32.5746
 32.5598
 31.4914
 31.5143
 31.5175
 31.5512
 32.5963
 32.5501
 32.5281
 32.5272
 32.6124
 32.5909
 32.5767
 30.1793
 30.2384
 30.2815
 30.3607
 32.7299
 32.7607
 32.7793
 32.8255
 31.4725
 31.5182
 31.5286
 31.5709
 32.6647
 32.6627
 32.66
 32.6553
 31.245
 31.1513
 31.1779
 31.2918
 24.0575
 24.3857
 24.0706
 24.5092
 31.846
 31.9622
 31.8426
 31.8382
 31.2268
 31.0921
 31.2317
 31.2093
 31.4492
 31.6322
 31.6155
 31.5357
 31.3416
 31.4396
 31.476
 31.3829
 31.7728
 31.7024
 32.9667
 32.9285
 32.9363
 32.9358
 30.9405
 30.9639
 30.9506
 31.5892
 31.7536
 31.6683
 31.5747
 32.5338
 32.6048
 32.5353
 32.468
 32.5852
 32.615
 32.57
 22.4636
 22.4218
 22.3686
 22.4535
 32.5472
 32.7252
 32.6338
 31.0885
 30.9881
 31.0289
 31.0725
 31.4109
 31.4659
 31.0221
 30.9502
 30.8522
 31.017
 31.5894
 31.5579
 31.4121
 31.2519
 31.0969
 31.4663
 31.5459
 31.58
 31.5572
 31.6775
 32.3908
 32.2988
 32.6664
 32.6744
 32.6765
 32.6715
 31.7892
 31.7503
 31.656
 31.7401
 32.9344
 32.7432
 32.719
 32.8596
 31.1003
 31.1215
 31.0446
 30.8517
 32.0633
 32.0213
 32.1614
 31.0919
 30.9684
 30.9371
 31.1201
 32.0559
 32.1016
 32.1389
 32.156
 32.6714
 32.585
 32.6749
 32.6416
 32.8576
 32.7996
 32.8155
 23.5246
 23.5006
 23.5276
 23.9018
 31.8038
 32.1025
 32.1968
 31.9963
 31.2698
 31.359
 31.2625
 31.3515
 32.8605
 32.8555
 32.9088
 32.5861
 32.21
 32.241
 32.228
 32.3466
 32.5765
 32.5845
 32.635
 32.617
 31.9078
 31.768
 31.7443
 31.8512
 32.2964
 32.2932
 32.5305
 30.6097
 32.1139
 32.0534
 32.1699
 32.0385
 32.3305
 32.4583
 26.6401
 26.5572
 32.2221
 32.3257
 32.2117
 32.0908
 31.7885
 31.7141
 31.4131
 31.4175
 31.354
 31.4354
 33.0422
 33.0506
 32.9571
 33.0595
 30.8393
 30.8185
 30.7097
 30.8308
 32.7591
 32.7799
 32.8058
 32.7674
 31.648
 31.6299
 31.6648
 31.8085
 32.4151
 32.4125
 32.4588
 32.4758
 31.4604
 31.3883
 31.5179
 31.4174
 32.6164
 32.5819
 30.9444
 30.9764
 32.0346
 31.9795
 32.0504
 31.9764
 32.0424
 32.0336
 32.0231
 31.9319
 32.3211
 32.3507
 32.2982
 32.2931
 31.5147
 31.6653
 31.5487
 31.4244
 32.3531
 32.2508
 32.3299
 32.3094
 30.9511
 30.9312
 30.985
 30.7496
 30.7609
 30.8673
 30.7888
 32.2875
 32.4162
 32.3764
 32.2778
 31.5986
 31.7675
 31.7206
 31.714
 32.3395
 32.3575
 32.4241
 32.489
 32.4743
 32.5429
 32.4204
 32.4455
 32.6016
 31.3276
 31.3125
 31.3016
 31.4126
 28.3302
 28.0022
 28.128
 28.6364
 31.6822
 31.611
 31.5245
 31.6135
 32.5088
 32.3503
 32.5463
 32.4288
 31.886
 31.9752
 31.9788
 31.9572
 31.8144
 30.2403
 30.2922
 30.4229
 30.3491
 31.4743
 31.4791
 31.6201
 31.5683
 27.1765
 27.2756
 27.6211
 26.9951
 32.6753
 32.689
 32.6876
 32.6811
 32.9028
 32.212
 32.2916
 32.2496
 32.1627
 31.1053
 31.1086
 31.185
 31.2524
 31.2668
 31.2268
 31.1682
 31.1099
 31.322
 31.2044
 31.2695
 23.8688
 24.199
 31.6714
 31.6442
 31.5719
 32.4827
 32.5144
 32.4493
 32.4944
 31.7725
 31.8208
 31.721
 31.8161
 32.3085
 31.9358
 32.0051
 31.9001
 32.0088
 30.726
 30.8908
 30.8642
 30.7322
 31.9168
 31.8621
 31.7295
 31.8904
 32.7317
 32.7521
 32.8037
 32.7104
 32.0098
 32.0331
 31.9924
 32.0647
 30.3882
 30.5354
 30.334
 30.3992
 31.7272
 31.7675
 31.6759
 31.7832
 30.5166
 30.5778
 30.5364
 30.4227
 32.7348
 32.7281
 32.7403
 32.7244
 32.1594
 32.2017
 30.8961
 30.7755
 30.9162
 30.8421
 32.2706
 32.2274
 32.2085
 32.146
 32.5312
 32.4679
 32.5391
 32.3053
 32.3739
 32.4973
 31.2081
 31.271
 31.2899
 31.1956
 32.6101
 32.6028
 32.6173
 32.6258
 31.1635
 31.2814
 31.1241
 31.1325
 31.8589
 31.9294
 31.9251
 31.834
 32.8614
 32.9156
 32.9163
 32.9967
 32.5124
 32.6085
 32.5026
 32.6094
 32.667
 32.6489
 32.6288
 32.463
 32.5276
 32.5161
 32.5193
 31.1318
 31.2465
 31.2609
 32.8964
 32.7499
 32.7288
 32.712
 32.4436
 32.4884
 32.4343
 32.5053
 32.7472
 32.6853
 32.7452
 32.6577
 32.6013
 32.6389
 32.6171
 32.631
 32.2218
 32.2062
 32.143
 32.0936
 32.6856
 32.728
 32.7353
 32.7889
 31.9577
 31.9879
 31.9006
 31.9172
 31.7574
 31.8229
 31.8769
 31.4228
 31.4478
 31.3473
 31.4549
 32.6508
 32.6324
 32.569
 32.5713
 32.8506
 32.9453
 32.9394
 32.8464
 32.6312
 32.6122
 32.5469
 31.9455
 31.9901
 31.939
 31.8557
 31.9967
 31.9708
 31.9227
 32.019
 31.8782
 31.8899
 31.7657
 31.3118
 31.1918
 31.2687
 32.1804
 32.2396
 32.3001
 32.1456
 31.0494
 30.9713
 31.1076
 31.0154
 31.0136
 31.0381
 31.1316
 32.6835
 32.7954
 32.7532
 32.7634
 32.6811
 32.6955
 32.7263
 32.6694
 32.4876
 31.2206
 31.2824
 31.1503
 31.1933
 31.1105
 31.2976
 23.337
 23.1406
 23.392
 23.4246
 31.6203
 31.7086
 32.6445
 32.7732
 32.7064
 30.4983
 30.3652
 32.0457
 32.1768
 32.1587
 32.1557
 32.4779
 32.4662
 32.4516
 31.7055
 31.52
 31.6677
 31.555
 32.7282
 32.7058
 32.6963
 32.7293
 26.2664
 26.5667
 26.5821
 26.1516
 32.2137
 32.2059
 32.2457
 32.1397
 31.3006
 31.1528
 31.3357
 31.5468
 31.5331
 31.5214
 31.6147
 32.7909
 32.665
 32.6813
 32.6175
 32.8226
 32.7214
 32.4712
 32.5381
 32.4504
 30.4063
 30.5
 31.2325
 31.3305
 31.1993
 31.383
 32.5146
 32.3277
 32.375
 31.7012
 31.796
 31.6415
 31.6237
 32.8335
 32.751
 32.7411
 32.7745
 32.385
 32.3685
 32.3208
 32.3013
 32.527
 32.5037
 32.4845
 32.5246
 32.7043
 32.6874
 32.5462
 32.9252
 32.929
 32.956
 32.963
 30.1036
 29.9972
 30.0845
 29.9579
 31.8556
 31.6016
 30.9645
 30.995
 30.9794
 31.0834
 32.7591
 32.7228
 32.7384
 32.7693
 32.3858
 32.3406
 32.3251
 32.3505
 32.0381
 32.0838
 32.246
 32.2989
 32.3115
 32.3207
 32.6546
 32.6558
 32.6709
 32.6418
 31.4624
 31.5114
 31.5483
 31.4962
 32.5098
 32.4989
 32.465
 32.5658
 32.6289
 32.6638
 32.1784
 32.1832
 32.2194
 32.1389
 31.7821
 31.8394
 31.7455
 32.3726
 32.2908
 32.3048
 32.2923
 32.407
 32.4938
 32.3937
 32.4945
 25.4368
 25.8692
 25.8774
 25.4155
 32.6872
 32.712
 32.6793
 32.6166
 32.2766
 32.168
 32.243
 32.2803
 32.4866
 32.4778
 32.5334
 32.5226
 32.5816
 32.6151
 32.6338
 32.5903
 31.4103
 31.2899
 32.2048
 32.2246
 32.2835
 28.9705
 28.7379
 28.6209
 29.1506
 32.6515
 32.5416
 32.7165
 32.5334
 32.3773
 32.3403
 32.3932
 32.419
 31.4625
 31.4266
 31.4048
 32.7278
 32.7097
 32.7894
 32.8072
 32.5858
 32.5412
 32.6081
 32.5776
 31.7139
 31.8119
 31.832
 31.7527
 31.9134
 31.9547
 31.977
 31.9595
 31.2212
 31.2018
 31.1867
 31.6308
 31.6224
 31.6324
 31.6009
 32.8025
 32.8729
 32.8007
 32.9399
 32.6377
 32.6258
 32.5504
 26.0951
 26.164
 26.1483
 25.7108
 32.7658
 32.8228
 31.2727
 31.0961
 31.2994
 31.556
 32.6257
 32.1434
 31.0581
 32.5938
 32.5146
 32.5928
 32.4873
 30.4161
 32.0417
 32.1194
 32.0415
 32.146
 32.8939
 32.9024
 32.9178
 32.6678
 32.6435
 32.6442
 31.2768
 31.272
 31.4372
 31.303
 31.5312
 31.6192
 31.5078
 31.5824
 32.1079
 31.9459
 31.8929
 32.0779
 30.7123
 30.6871
 30.6941
 30.8164
 32.6215
 32.6204
 32.684
 31.5511
 31.4664
 31.5194
 32.1825
 32.313
 32.2792
 32.1843
 32.5961
 32.5888
 32.5535
 32.5674
 32.5025
 32.3639
 32.4824
 32.6269
 32.6282
 32.6158
 32.5985
 32.5971
 32.5522
 31.427
 31.3663
 31.3357
 31.2548
 31.0567
 30.9128
 30.9765
 31.042
 32.428
 32.4536
 32.4862
 32.5802
 31.6661
 31.8044
 31.7804
 31.639
 32.2874
 32.4269
 32.2938
 32.2495
 32.8594
 32.8043
 32.7679
 32.8285
 31.0862
 31.1186
 31.1522
 31.1831
 32.8801
 32.8995
 32.827
 32.7336
 32.4749
 32.5147
 32.5225
 32.4335
 32.4165
 32.4499
 32.4238
 32.4017
 32.6016
 32.6946
 32.3758
 32.4811
 32.5084
 32.4125
 30.9968
 30.6373
 30.9119
 31.0316
 32.3326
 32.3284
 32.2351
 32.1897
 32.1418
 32.2891
 32.2172
 30.9315
 30.9048
 30.8712
 30.8731
 30.3221
 30.2861
 30.3561
 30.885
 30.8598
 31.003
 32.2662
 32.1808
 32.0973
 32.2256
 31.7791
 31.6949
 31.6422
 31.8232
 31.4948
 31.3908
 31.4923
 31.385
 32.5043
 32.5232
 32.5082
 32.5079
 31.5206
 31.7106
 31.8386
 31.8203
 30.4308
 30.4334
 30.5102
 30.3079
 32.5059
 32.5447
 32.4825
 32.4986
 32.1788
 32.1696
 32.1223
 32.1824
 30.3304
 30.4217
 30.521
 30.3002
 31.8174
 31.9025
 31.808
 31.8395
 32.6173
 32.6324
 32.6239
 32.6201
 32.581
 32.5671
 32.541
 32.0318
 32.1996
 32.1079
 31.9648
 32.261
 32.2076
 32.2605
 32.197
 32.292
 32.4531
 32.6921
 32.7613
 32.6731
 31.2514
 31.3049
 31.3229
 31.3609
 31.0999
 31.1925
 31.1435
 31.1801
 32.0182
 32.0149
 32.034
 32.1036
 32.5162
 30.8836
 30.8448
 30.8724
 30.9122
 32.1138
 32.0344
 32.1104
 32.0222
 30.578
 30.4684
 30.6082
 30.4387
 32.6609
 32.8266
 32.7098
 31.8095
 31.866
 31.7677
 31.68
 32.8608
 32.7861
 32.7247
 32.8371
 32.3846
 32.4171
 32.5367
 32.5048
 31.542
 31.5185
 31.6249
 31.4793
 32.4091
 31.9121
 31.9479
 31.998
 32.5087
 32.5637
 32.5384
 32.4652
 32.6846
 32.6925
 32.6663
 32.6685
 32.6824
 32.6634
 32.6778
 32.6677
 31.8305
 32.624
 32.6706
 32.6062
 31.4103
 31.4643
 31.3895
 31.4327
 31.3204
 31.3356
 31.2241
 31.3795
 30.9087
 30.8792
 30.9321
 32.6225
 32.6141
 32.6603
 32.6086
 31.9388
 31.6982
 31.8677
 31.1699
 31.2281
 31.0157
 31.0602
 31.1375
 31.1176
 32.7007
 32.7356
 32.6948
 30.5378
 30.5798
 30.5119
 30.621
 31.416
 31.4814
 31.4439
 31.3699
 31.905
 32.0715
 31.9263
 31.9224
 32.527
 32.5026
 32.4953
 32.5994
 32.6121
 32.6703
 32.629
 32.5881
 31.1021
 31.0702
 31.1279
 30.9728
 32.7996
 32.823
 32.7774
 32.679
 32.6503
 32.6612
 32.6489
 31.0973
 31.0863
 30.9587
 31.0526
 31.9085
 31.9359
 31.9842
 32.0033
 30.615
 30.679
 30.7803
 30.6498
 32.6269
 32.5499
 32.5485
 32.5653
 32.3536
 32.3089
 32.4133
 32.2579
 31.3591
 31.3678
 31.2987
 31.3675
 32.3147
 32.1986
 32.2804
 32.2484
 30.5975
 30.4311
 30.5657
 32.5644
 32.5971
 32.5649
 32.5667
 32.4266
 32.4352
 32.4051
 32.5229
 31.9991
 31.8737
 31.9698
 31.9842
 32.3303
 32.4294
 32.2904
 32.3681
 31.2986
 31.3114
 31.1879
 31.2524
 32.6958
 32.7224
 32.7715
 32.7642
 32.1418
 32.1614
 32.1354
 32.228
 31.9066
 31.9462
 31.9025
 31.8766
 31.5528
 31.5189
 31.6319
 31.6724
 32.0941
 32.105
 32.0479
 32.8743
 32.8511
 32.8305
 32.8529
 32.584
 32.6982
 32.7728
 32.6721
 31.4699
 31.565
 31.4791
 31.4003
 31.811
 31.6485
 31.756
 31.7815
 32.5181
 32.5404
 32.6124
 32.5861
 30.2894
 30.3459
 30.4393
 26.484
 26.4825
 32.1542
 32.0739
 32.1894
 32.1715
 30.2529
 29.9607
 29.554
 29.8104
 31.8355
 31.8552
 31.7116
 31.7242
 32.7863
 32.6242
 32.6098
 32.6064
 32.5896
 31.6968
 31.6304
 31.6275
 31.5772
 31.33
 31.3458
 31.247
 31.3604
 31.9673
 31.9761
 31.8974
 31.8643
 31.7166
 31.8458
 32.2808
 32.4401
 32.3008
 32.3771
 32.7907
 32.7426
 32.7871
 32.7047
 32.83
 32.8401
 32.8188
 32.812
 31.4239
 31.524
 31.3285
 31.0083
 31.0574
 31.0474
 31.0891
 30.3804
 30.3605
 30.3446
 32.6817
 32.7041
 32.6822
 32.6961
 30.8685
 30.9908
 31.0002
 31.0253
 32.1448
 32.0639
 32.1052
 32.1586
 31.9711
 31.861
 31.9168
 31.9954
 32.5168
 32.4104
 32.4783
 32.4627
 30.9505
 30.982
 31.0037
 30.8682
 31.8404
 31.7711
 31.9011
 31.9433
 29.2511
 29.0149
 28.8912
 29.1589
 32.4893
 32.5887
 32.4963
 32.6238
 32.9241
 32.7438
 32.8339
 32.8438
 31.6605
 31.5922
 31.6814
 31.7942
 32.3759
 32.3112
 32.3453
 32.2656
 32.2721
 32.3518
 32.2259
 32.132
 32.6779
 32.7073
 32.6628
 31.6076
 31.5967
 31.4197
 31.5675
 31.9779
 31.8869
 32.0314
 31.8401
 31.8793
 31.9591
 32.4891
 32.3961
 32.3323
 32.7302
 32.7581
 32.7836
 32.8377
 30.9495
 23.0326
 23.2162
 23.0143
 22.7879
 31.3461
 31.446
 31.2691
 31.3622
 32.3711
 32.6637
 32.6653
 32.6667
 32.639
 32.9261
 32.9186
 32.8829
 32.5369
 32.5903
 32.5562
 32.611
 29.2186
 29.2539
 29.426
 28.798
 32.1492
 32.241
 32.2826
 32.4234
 32.4633
 32.44
 32.7007
 32.6966
 30.1578
 30.279
 30.2946
 32.4162
 32.5048
 32.3025
 32.5201
 32.4817
 32.5041
 30.8293
 30.7175
 30.763
 31.6154
 31.6094
 31.5066
 31.6267
 32.6774
 32.6035
 32.6518
 31.6626
 31.4788
 30.769
 30.8971
 30.7461
 30.781
 30.5874
 30.5041
 30.2297
 30.7459
 32.5479
 32.5142
 25.6224
 25.3331
 27.5317
 27.5257
 27.6835
 32.6856
 32.6456
 32.6769
 30.7432
 30.896
 30.9068
 31.8476
 31.8094
 31.7275
 32.5872
 32.5221
 32.4652
 32.4828
 32.5158
 31.2024
 31.949
 31.9784
 32.0042
 32.0107
 33.0062
 32.9185
 32.929
 33.0286
 31.7531
 31.816
 31.7402
 31.5685
 31.5745
 31.6301
 31.5877
 32.7265
 32.7868
 32.7726
 32.7318
 32.0208
 31.9429
 31.9002
 31.9086
 31.5524
 31.649
 31.5964
 31.488
 32.6304
 31.691
 31.7939
 31.7004
 31.6556
 30.6887
 30.6283
 30.681
 30.7743
 32.6672
 32.5257
 32.5014
 32.6482
 30.7839
 30.7402
 30.7921
 30.813
 25.0124
 25.3032
 25.068
 30.7002
 30.7574
 30.56
 30.6711
 32.5
 32.4819
 32.4276
 32.4252
 31.5508
 31.6483
 31.5894
 31.5111
 32.6497
 32.6935
 32.3853
 32.4534
 30.4757
 31.3112
 31.4525
 31.4076
 31.5026
 31.1944
 31.0972
 31.1389
 32.0389
 32.0806
 31.9073
 31.8473
 31.4901
 31.6061
 31.5558
 31.6176
 32.1983
 32.1664
 32.1451
 32.1441
 32.2838
 32.2532
 32.3565
 32.3608
 30.3714
 30.4888
 32.5861
 32.5682
 32.5295
 33.0329
 33.006
 32.9989
 32.8993
 31.8595
 31.9202
 31.7164
 31.7284
 31.7584
 31.6935
 31.6964
 31.6365
 32.0608
 32.0799
 31.9527
 32.0456
 32.7629
 32.6428
 32.6487
 32.6228
 32.6353
 32.5793
 32.5724
 32.5201
 32.5013
 31.2457
 31.0508
 31.0977
 31.1173
 33.0264
 32.9265
 32.9693
 29.66
 29.7087
 29.9067
 32.6993
 32.6761
 32.6435
 32.6864
 32.6897
 32.7472
 32.6844
 32.6012
 31.8364
 31.8226
 31.7098
 32.9035
 32.979
 32.9609
 32.8725
 32.3886
 32.3715
 32.6519
 32.5517
 32.7493
 32.6925
 32.6964
 32.6844
 31.3183
 31.387
 30.2721
 30.3568
 30.4217
 30.2688
 31.6968
 31.7873
 31.6844
 31.8615
 32.6101
 32.6358
 32.622
 32.6225
 30.5896
 30.5794
 30.4148
 30.6457
 30.7628
 30.7068
 30.6892
 32.5175
 32.55
 32.5966
 32.504
 31.9665
 31.9773
 32.0318
 32.713
 32.7259
 32.6512
 32.6811
 31.8645
 31.8111
 32.0336
 31.7254
 31.9
 31.9189
 31.8932
 32.1119
 32.0109
 32.0134
 31.9665
 32.0214
 32.7206
 32.6727
 32.6844
 32.7428
 30.6442
 30.7705
 30.65
 30.7252
 32.1853
 32.1986
 32.2565
 32.194
 32.5588
 32.5986
 32.5556
 32.5951
 31.9773
 31.9297
 31.378
 31.205
 31.2246
 31.2399
 32.8001
 32.7671
 32.7994
 32.7497
 32.5635
 32.5228
 32.5707
 32.5673
 32.2356
 32.3728
 32.2359
 32.5116
 32.5361
 32.5634
 23.8035
 23.4847
 23.7993
 23.6334
 32.6481
 32.6027
 32.0357
 31.9517
 31.897
 31.7122
 32.039
 32.0994
 32.044
 32.1372
 29.711
 30.1397
 30.3168
 29.9529
 32.4368
 32.3896
 32.2674
 32.0272
 31.9739
 31.9777
 32.0198
 32.4232
 32.4729
 32.4014
 32.1982
 32.1757
 32.0587
 32.1518
 32.5636
 32.6206
 32.6128
 32.5608
 31.5231
 31.2609
 27.5756
 27.7854
 32.5272
 32.5016
 32.6106
 32.6287
 32.6219
 32.6228
 31.9811
 31.9442
 31.9978
 31.8674
 32.3091
 32.3397
 32.2919
 32.2636
 31.8879
 31.6281
 31.7796
 31.8303
 32.2509
 32.3356
 32.2938
 32.0892
 32.1019
 32.1025
 32.0969
 30.9449
 30.9115
 30.8487
 30.9491
 32.0719
 32.075
 32.1105
 32.1847
 32.4267
 32.4208
 32.3902
 32.7479
 32.7986
 32.7567
 32.7005
 32.0199
 31.9512
 31.9856
 32.1401
 32.286
 32.2355
 32.2301
 32.6726
 32.6452
 32.71
 32.6589
 32.9821
 33.0145
 33.0783
 33.0358
 30.7141
 30.7941
 30.926
 30.8451
 32.2243
 32.037
 32.0359
 32.1826
 32.6678
 32.6819
 32.657
 32.3828
 32.4164
 32.3944
 31.0652
 31.1527
 31.0659
 31.1148
 32.0696
 32.0123
 32.1362
 31.9917
 32.9334
 32.8903
 32.7742
 32.9041
 31.7147
 31.6405
 32.385
 32.299
 32.5208
 32.5287
 26.5165
 26.3845
 26.002
 26.5657
 31.7488
 31.7036
 31.7342
 31.7506
 32.7023
 32.6869
 32.6191
 32.6336
 32.4175
 32.5102
 32.4448
 32.5322
 31.3265
 31.1094
 31.2504
 31.1005
 32.3364
 32.3799
 32.4162
 32.4102
 32.439
 31.5885
 31.7621
 31.7016
 31.6906
 32.8384
 32.9027
 32.9335
 32.8063
 32.5909
 32.5687
 32.5771
 32.5559
 32.5253
 32.5104
 32.5128
 32.5707
 32.4688
 32.4143
 32.5886
 31.2952
 31.2699
 31.22
 31.4148
 32.5186
 32.504
 32.5199
 32.5343
 31.4289
 31.3683
 31.3154
 32.0389
 32.0881
 32.014
 32.1045
 31.5132
 31.4157
 31.466
 31.3856
 32.0717
 32.1102
 32.0061
 22.6911
 22.9249
 22.9285
 31.7655
 31.6339
 31.6781
 32.4355
 32.2934
 32.3856
 32.3157
 32.762
 32.674
 32.656
 32.5956
 32.8343
 32.7443
 32.8232
 32.8165
 28.8065
 29.1889
 28.3865
 29.1219
 32.2853
 32.3181
 32.3128
 32.3228
 32.3846
 32.418
 32.1801
 32.261
 32.3323
 32.3769
 32.6069
 32.5202
 32.571
 32.5767
 31.9625
 32.0468
 32.0099
 31.9662
 32.3211
 32.49
 32.1861
 32.1992
 32.1774
 23.3011
 23.1563
 23.5413
 23.8315
 31.026
 31.2793
 30.4729
 30.3763
 30.4635
 31.8533
 32.0779
 32.2686
 32.0568
 31.852
 31.815
 32.8655
 32.8361
 32.8294
 32.8605
 32.6239
 32.6107
 32.6861
 31.6332
 31.6752
 31.6675
 31.5341
 32.0909
 32.0309
 32.163
 32.0961
 31.3394
 31.3214
 31.2358
 32.6302
 32.6518
 32.6483
 32.6666
 32.5394
 31.2282
 31.3958
 31.2767
 31.3148
 31.96
 31.9747
 31.9919
 32.0881
 32.5274
 32.5479
 32.3627
 32.4489
 31.6739
 31.8392
 31.718
 31.7856
 25.4487
 25.5662
 25.6639
 25.6848
 32.1656
 30.4868
 32.6729
 32.615
 32.6457
 32.6755
 32.4031
 32.29
 32.4028
 32.4372
 32.7812
 32.7914
 32.7277
 32.836
 32.3967
 32.441
 32.4271
 32.4092
 32.0087
 32.0896
 32.1558
 32.2961
 32.4027
 32.4186
 32.3825
 32.7313
 32.6022
 32.7028
 32.7059
 31.7097
 31.5772
 31.8132
 30.1511
 30.0577
 30.1564
 30.2114
 28.139
 27.8031
 27.7479
 32.557
 32.5733
 32.617
 32.5467
 32.6596
 32.5736
 31.0722
 31.0559
 31.127
 30.9578
 31.7778
 31.8357
 31.8176
 31.8893
 32.5234
 32.6413
 32.5576
 30.7143
 32.6596
 32.6586
 32.655
 32.6518
 32.5491
 32.4974
 32.4888
 32.0343
 32.0989
 32.0441
 32.008
 31.7544
 31.8681
 31.7908
 31.8346
 32.6534
 32.6791
 32.0049
 31.9958
 32.0459
 31.9484
 32.3902
 32.4082
 32.3751
 32.319
 30.9228
 30.8417
 31.9919
 32.0929
 32.0739
 32.0883
 31.9216
 31.8832
 31.877
 31.7784
 32.0903
 32.0369
 32.0726
 32.1105
 32.5394
 32.509
 32.8001
 32.7916
 32.8264
 32.8383
 32.5457
 32.5505
 32.5605
 32.5417
 32.2932
 32.1844
 32.2406
 32.2025
 32.29
 32.4494
 32.3656
 32.4642
 32.7739
 32.8401
 32.7996
 32.8363
 27.2576
 27.3579
 27.3877
 26.9421
 32.6011
 32.6338
 32.2512
 32.3986
 32.2989
 32.3255
 32.7341
 32.7685
 32.7443
 32.7177
 32.3995
 32.3302
 32.2611
 32.3887
 32.623
 32.6308
 31.5978
 31.613
 30.6191
 30.5902
 30.5701
 30.5686
 32.0977
 32.633
 32.6388
 32.6258
 32.6101
 32.8562
 32.9142
 32.8395
 32.7794
 32.5546
 32.5875
 32.5249
 32.595
 31.7918
 31.9147
 31.8431
 31.9563
 32.2361
 32.2849
 32.2898
 32.2226
 32.0576
 31.998
 32.092
 32.2139
 32.095
 32.7117
 32.687
 32.7099
 32.7088
 32.8213
 32.8121
 32.7053
 32.9083
 32.4077
 32.3878
 32.3365
 32.3877
 32.6888
 32.7313
 32.7769
 32.7591
 32.5411
 32.4548
 32.5144
 32.5044
 32.3485
 32.2172
 32.241
 32.3215
 32.5584
 32.5465
 32.6575
 32.8264
 32.8362
 32.8763
 32.8261
 29.6971
 29.942
 32.4473
 32.427
 32.3895
 32.7061
 32.6107
 32.6407
 32.5998
 31.8328
 31.9843
 32.0609
 31.2866
 31.377
 31.4806
 31.318
 32.1642
 32.2261
 32.076
 32.0948
 32.47
 32.573
 32.4912
 31.613
 31.8197
 31.7143
 32.5874
 32.634
 32.6192
 31.2768
 31.322
 31.2331
 26.7423
 26.4273
 26.4213
 26.7208
 30.9223
 30.8744
 30.9504
 30.8697
 32.7794
 32.739
 32.3916
 32.3374
 32.4658
 32.4962
 32.4201
 32.5376
 32.1828
 32.2918
 32.1598
 31.4827
 31.4189
 31.4427
 31.4211
 31.2005
 31.3447
 32.1355
 32.1764
 32.1094
 32.3465
 32.3226
 32.3744
 32.6549
 32.5443
 32.5782
 31.954
 32.008
 32.0139
 31.7786
 32.643
 32.6436
 32.655
 32.6269
 32.6614
 32.6392
 32.6476
 32.6649
 31.7857
 31.7835
 31.833
 31.7435
 31.7186
 31.8175
 31.7685
 31.8838
 32.8983
 32.7961
 32.8567
 32.2294
 32.2787
 32.3158
 32.1444
 32.0074
 32.0392
 31.932
 29.9567
 30.0164
 29.9431
 32.5837
 32.7077
 32.7023
 31.8665
 31.8065
 31.9063
 32.6746
 32.6696
 32.6375
 32.6993
 32.6483
 32.662
 31.9905
 32.0559
 31.984
 31.9373
 32.4704
 32.7379
 32.6686
 32.7027
 32.9381
 32.9126
 32.8745
 32.4042
 32.506
 32.1108
 32.1862
 32.0569
 32.1103
 32.0298
 31.9434
 32.0914
 32.1236
 32.484
 32.5217
 32.5593
 32.6576
 32.1998
 32.0827
 32.1346
 32.1288
 31.0008
 30.86
 30.955
 30.761
 30.8104
 30.7733
 31.3717
 31.5057
 31.4234
 31.346
 30.7246
 32.7255
 32.6815
 32.6593
 32.5273
 32.516
 32.546
 32.5897
 32.4803
 32.3808
 32.7914
 32.7925
 32.6481
 31.9435
 32.0484
 31.4693
 31.4808
 31.3692
 31.5699
 31.0683
 31.1268
 30.9176
 31.0727
 31.7691
 31.7177
 31.796
 32.6533
 32.6337
 32.6529
 31.0109
 31.0414
 30.9946
 30.9867
 32.8495
 32.7203
 32.8023
 32.8003
 31.6946
 31.7553
 31.8103
 31.7106
 32.8331
 32.7572
 32.7167
 32.7998
 32.3646
 32.4268
 32.3734
 30.7675
 30.606
 30.689
 30.7413
 32.0552
 32.0171
 32.0031
 32.7988
 32.8153
 32.5971
 32.9426
 30.7291
 30.6274
 30.6737
 32.6681
 32.6427
 32.5466
 32.5387
 31.9438
 30.9997
 30.9229
 31.1298
 31.0318
 31.8144
 31.8481
 31.9485
 31.8348
 32.1469
 32.2935
 32.1815
 32.1543
 32.6172
 32.6353
 32.6216
 32.318
 32.1116
 32.2386
 31.9999
 32.1488
 32.2357
 32.0919
 32.491
 32.4762
 26.9245
 26.544
 27.025
 27.3666
 30.9221
 30.0947
 30.1092
 30.9675
 31.0089
 30.9498
 31.0783
 31.1338
 31.0623
 31.2838
 31.3185
 31.0702
 31.4355
 32.6586
 32.6475
 32.6617
 32.6393
 32.6418
 32.6964
 32.6976
 32.6943
 32.2474
 32.2998
 32.1792
 32.2306
 32.3549
 32.4679
 32.3983
 32.4494
 30.8326
 32.0637
 32.0219
 32.0623
 32.051
 30.9026
 30.9706
 30.8572
 32.5295
 32.5659
 32.6328
 32.6459
 32.119
 32.2575
 32.3042
 32.2902
 32.3718
 32.3463
 32.3412
 32.6475
 31.8174
 31.8043
 31.6692
 31.7272
 32.7331
 32.8237
 32.7449
 32.5605
 32.5237
 32.6216
 30.8316
 30.8808
 30.9758
 30.89
 32.5298
 32.4733
 32.5542
 25.3501
 25.4546
 24.9838
 32.5419
 32.5769
 32.5078
 32.6279
 31.8528
 31.7169
 31.8143
 32.5403
 32.52
 31.4187
 31.3317
 31.4716
 31.4231
 31.8121
 31.7034
 31.749
 31.7856
 30.6355
 30.6772
 30.7549
 30.8361
 32.5717
 32.6768
 32.614
 32.5577
 31.6796
 31.752
 31.7526
 31.7579
 31.4399
 31.354
 31.2722
 32.6698
 32.7535
 32.6278
 32.6307
 32.5549
 32.5011
 32.6526
 32.6332
 32.6518
 32.6411
 32.0117
 31.9944
 32.0299
 31.9628
 32.5633
 32.5371
 32.5201
 32.5906
 32.1926
 32.2483
 32.1587
 32.2675
 32.55
 32.5345
 32.4882
 32.4964
 32.622
 32.6451
 32.6574
 31.4128
 31.4734
 31.4452
 31.0892
 31.1015
 31.1145
 30.9797
 31.5989
 31.5881
 31.5027
 31.8974
 31.7289
 31.8519
 28.4858
 28.1597
 28.0633
 32.4779
 32.4015
 32.4401
 31.5291
 31.4911
 31.5743
 31.5396
 32.4861
 32.4676
 32.5152
 32.4743
 32.4911
 32.3183
 32.5396
 32.0741
 32.2491
 32.2181
 32.1912
 32.8374
 32.7627
 32.799
 32.7506
 32.4185
 32.4533
 32.4373
 32.3988
 32.4822
 32.534
 32.5842
 32.5259
 32.681
 31.9558
 31.9902
 31.9661
 31.9862
 31.7371
 31.8424
 31.7635
 31.8545
 32.1084
 32.1307
 32.1357
 32.0478
 32.0716
 32.146
 31.9721
 31.9118
 32.7901
 32.7148
 32.7833
 32.7821
 30.3276
 30.4305
 30.3842
 30.4421
 30.5263
 30.6248
 30.8091
 30.783
 32.8391
 32.857
 32.8846
 31.6759
 31.5532
 31.3459
 31.4512
 32.3184
 32.2798
 32.4138
 32.1544
 32.111
 32.6584
 32.6567
 32.6094
 32.5405
 31.1957
 31.2628
 31.2854
 31.0358
 31.0617
 30.9969
 31.1048
 32.1722
 32.1314
 30.5774
 30.5003
 30.596
 31.4333
 31.4426
 31.3906
 31.3789
 32.2873
 32.2102
 32.3474
 30.7957
 30.7384
 30.8842
 30.7006
 32.5512
 32.5229
 32.5294
 32.5497
 32.5183
 32.3296
 32.3377
 32.5052
 31.296
 31.6672
 31.5439
 31.4124
 29.4473
 29.5095
 29.1036
 29.1906
 32.2146
 32.1031
 32.1933
 32.0848
 32.6519
 32.6626
 32.65
 32.6424
 30.7565
 30.9106
 30.7593
 25.0265
 25.5366
 25.2301
 25.7831
 31.1414
 31.4494
 31.2216
 31.4133
 30.9347
 30.7283
 30.8475
 30.8465
 32.7537
 32.7836
 32.7022
 31.3356
 31.2358
 31.1917
 32.5905
 32.614
 32.4937
 30.6903
 30.8426
 30.8379
 30.7238
 31.1289
 31.1507
 31.1557
 31.2782
 32.5546
 32.5711
 32.5835
 32.5792
 32.863
 32.9003
 32.8437
 32.8421
 31.6742
 31.6604
 31.625
 31.5245
 32.4844
 32.4969
 32.52
 32.5254
 30.4156
 30.7049
 30.7443
 30.5882
 31.229
 31.4252
 31.3073
 31.3392
 30.5582
 32.3033
 32.3044
 32.2502
 32.2588
 31.0825
 31.0332
 31.0434
 30.9525
 32.135
 32.1442
 32.1146
 32.1331
 30.7486
 30.6602
 30.7737
 30.8176
 32.76
 32.7362
 32.6782
 32.6687
 32.6747
 32.6585
 31.7338
 31.8316
 31.837
 31.8594
 32.3307
 32.2308
 32.2224
 32.553
 32.6039
 32.5476
 31.7013
 31.6808
 31.8088
 31.8426
 31.5783
 31.6296
 31.5324
 31.5983
 32.3414
 32.1953
 32.2159
 32.7023
 32.6373
 32.628
 32.6876
 30.2717
 30.6638
 30.9991
 30.5664
 30.2376
 30.637
 30.8151
 30.6165
 30.8171
 32.7268
 32.7179
 32.7861
 32.7232
 30.9598
 30.9074
 32.7728
 32.8906
 32.912
 32.46
 32.3773
 32.5038
 32.4986
 30.7475
 30.7391
 30.726
 30.6811
 32.1476
 32.2302
 32.1814
 32.542
 32.5064
 32.5624
 32.5164
 32.9069
 32.8785
 32.8812
 32.8929
 32.0217
 31.8004
 31.8793
 31.8163
 32.4875
 32.5566
 32.5547
 32.5273
 31.6413
 32.3804
 32.2872
 32.234
 32.3686
 31.0372
 30.993
 31.0957
 30.829
 30.8622
 30.8873
 30.9444
 32.1959
 32.1856
 32.2709
 32.2296
 30.342
 30.3345
 30.3143
 30.437
 32.6486
 32.1962
 32.3047
 32.3406
 32.2338
 32.6973
 32.7771
 32.7916
 32.676
 29.4501
 29.8007
 29.9139
 29.3775
 32.4358
 32.4064
 32.4013
 32.4479
 32.6791
 32.6609
 32.642
 32.6491
 32.9002
 32.8701
 32.8659
 31.2415
 31.3622
 31.4137
 32.8945
 32.9177
 32.8726
 32.8957
 31.072
 30.9089
 30.9921
 32.4891
 32.4649
 32.483
 32.4565
 32.4773
 32.3564
 32.3375
 32.312
 32.7872
 32.7574
 32.6452
 32.6901
 31.2432
 31.1717
 31.1682
 32.6614
 31.0178
 32.2939
 32.2019
 32.2494
 32.4086
 32.2993
 32.2447
 32.1711
 32.6472
 32.6462
 32.7241
 32.447
 32.4676
 32.5017
 32.4581
 32.4834
 32.3939
 32.3799
 32.5204
 32.5747
 32.5241
 32.626
 24.8159
 24.8513
 24.5485
 31.6534
 31.7875
 31.6428
 32.8296
 32.7508
 31.2444
 31.4351
 31.4075
 31.4059
 32.1242
 32.0504
 32.107
 29.6683
 29.8524
 29.4775
 29.6661
 32.7864
 32.9386
 32.9516
 32.6013
 32.3134
 32.2184
 32.207
 32.1366
 32.1067
 32.2273
 32.1776
 32.1334
 32.8868
 32.7963
 32.8875
 32.8517
 30.4416
 30.5055
 30.4647
 32.537
 32.5561
 32.5415
 32.5607
 31.9235
 31.8201
 31.8424
 31.8558
 32.7602
 32.7118
 32.6772
 32.7252
 32.3859
 32.3378
 32.4106
 32.6836
 32.6795
 32.6835
 32.6865
 32.6646
 32.5843
 32.6773
 32.6125
 31.9982
 32.0977
 31.995
 31.8835
 30.9774
 30.8918
 30.9223
 30.8847
 32.0749
 32.1613
 32.1205
 32.1724
 32.3643
 32.2885
 32.3813
 32.3947
 32.2785
 32.1275
 32.2123
 32.1443
 32.6298
 32.693
 32.6535
 32.6073
 30.1342
 30.0697
 30.0745
 30.0869
 32.9204
 32.9699
 32.9429
 32.0974
 31.9562
 32.0202
 32.2383
 32.0299
 31.978
 32.0042
 31.9803
 32.5107
 32.2531
 32.0653
 32.0999
 32.0288
 32.1349
 30.3384
 30.445
 30.398
 30.4048
 32.6547
 32.6651
 32.6455
 32.6511
 32.4341
 32.2995
 32.3364
 32.077
 32.1499
 32.1831
 32.0841
 32.6853
 32.8168
 32.5805
 32.7073
 32.4738
 32.4906
 32.4994
 32.5436
 32.1159
 32.3414
 32.2102
 31.5193
 31.4245
 31.3788
 31.4742
 31.609
 31.5413
 31.6752
 32.7242
 32.617
 32.5838
 32.7011
 32.8097
 32.9349
 32.7992
 32.6947
 32.7743
 32.8182
 32.6528
 32.0491
 32.0132
 32.1485
 32.45
 32.3838
 32.3021
 32.5517
 32.4289
 32.5134
 31.4557
 31.5977
 31.5658
 31.883
 31.9346
 32.6609
 32.6334
 32.6144
 32.6331
 32.5664
 32.6072
 32.8534
 32.9185
 32.8555
 31.7366
 31.7592
 31.5811
 31.0925
 31.1158
 31.2681
 32.4974
 32.5079
 32.51
 32.5683
 32.7961
 32.5632
 32.5202
 32.2238
 32.2644
 32.2441
 32.1697
 32.601
 32.787
 32.6836
 32.7205
 32.7105
 32.8035
 32.6553
 32.6614
 32.5978
 32.8764
 32.882
 32.8516
 32.7728
 31.2465
 31.3358
 31.3523
 31.27
 31.2385
 31.1633
 31.0224
 31.0676
 32.486
 32.5813
 32.4763
 32.6164
 32.5936
 32.6369
 32.4083
 32.3809
 32.3687
 32.334
 31.9742
 31.8964
 32.0092
 32.0144
 32.6994
 32.6945
 32.7072
 32.6738
 32.6278
 32.6168
 32.6136
 32.6474
 31.4508
 31.5921
 31.4767
 31.5065
 32.4793
 32.5109
 32.5789
 32.5455
 32.4619
 32.5257
 32.4663
 31.61
 31.5106
 31.3928
 31.3788
 32.4215
 32.4805
 32.4737
 32.5241
 31.1826
 31.2442
 31.1558
 31.1954
 31.5708
 31.6486
 31.6241
 31.6536
 32.5768
 32.5784
 32.6111
 32.5622
 31.9141
 31.8891
 31.96
 32.0407
 32.5886
 32.6098
 32.5946
 32.6094
 31.8307
 31.8709
 31.8229
 32.2669
 32.3878
 32.242
 32.2491
 32.3535
 32.3628
 32.3389
 32.2965
 32.5487
 32.5506
 31.8336
 31.7577
 31.7951
 31.8617
 31.7387
 31.7471
 31.7997
 32.6702
 32.6532
 32.6742
 31.6541
 31.6851
 31.6415
 31.5314
 30.3358
 30.3733
 30.5766
 30.5321
 32.5931
 32.6009
 32.6336
 32.6696
 32.1812
 32.2806
 32.276
 32.1696
 31.0726
 31.0838
 31.1432
 31.1028
 31.4199
 31.3319
 31.3126
 31.4243
 30.8357
 30.7989
 30.8029
 31.1845
 31.1748
 32.4894
 32.4612
 32.4551
 32.4716
 32.499
 32.476
 32.3532
 32.4961
 32.6039
 32.5798
 32.8999
 32.9239
 32.9251
 32.9244
 32.6566
 32.6669
 32.6231
 32.6612
 32.6563
 32.6642
 32.5629
 32.2906
 32.3429
 32.3046
 32.377
 30.1318
 30.1652
 30.26
 32.7906
 32.7677
 32.7375
 32.763
 31.2254
 31.3356
 31.2547
 31.2279
 31.9259
 31.7878
 31.7959
 32.4199
 32.4637
 32.3495
 32.0676
 31.9561
 32.1426
 31.4352
 31.564
 32.0159
 31.9906
 31.9925
 32.5246
 32.5939
 32.6113
 32.5296
 31.0881
 31.018
 31.0982
 31.1379
 32.3656
 32.262
 32.3751
 28.9881
 28.428
 28.3157
 28.9308
 32.3031
 32.3052
 32.3392
 32.9384
 32.9505
 32.9293
 32.9117
 32.7199
 32.6681
 32.678
 31.9954
 31.9252
 32.0125
 31.992
 31.1848
 31.1185
 32.5599
 32.5872
 32.578
 32.5982
 31.9888
 31.7942
 31.815
 31.8937
 31.4751
 31.395
 31.4352
 31.4762
 32.0137
 31.9812
 32.0145
 25.7821
 25.5542
 25.1129
 25.1544
 32.1871
 32.2026
 32.0441
 32.7316
 32.8216
 32.7497
 32.8026
 32.2993
 32.2952
 32.3484
 32.2478
 32.5498
 32.4854
 31.9955
 32.0579
 32.0256
 32.0601
 32.0101
 31.8996
 32.9619
 32.9029
 32.7643
 32.8316
 32.5247
 32.5214
 32.5586
 32.5177
 32.7263
 32.6956
 32.5992
 32.6807
 32.5637
 32.557
 32.5189
 31.8832
 32.0469
 31.9149
 31.986
 31.5424
 31.4658
 31.3612
 31.5581
 31.5217
 31.5354
 31.5627
 31.4112
 31.73
 31.6157
 31.641
 31.5302
 32.5312
 32.5728
 27.8236
 27.5107
 27.5853
 27.1988
 32.882
 32.9701
 32.932
 30.5899
 23.707
 23.85
 23.9221
 23.3935
 32.4354
 32.3642
 32.4021
 32.3895
 32.6081
 32.6285
 32.6096
 31.4469
 31.3969
 31.3291
 31.4915
 31.507
 31.5387
 31.4398
 31.4588
 31.4277
 31.4021
 31.4809
 31.5157
 32.5958
 32.6145
 32.5235
 32.6375
 32.2247
 32.2883
 32.0567
 32.1923
 32.1387
 32.1485
 32.0522
 32.1499
 32.8289
 32.8494
 32.8458
 32.8575
 30.2514
 31.038
 30.9532
 32.2749
 32.2881
 32.4966
 32.4747
 32.5028
 31.0381
 30.8907
 30.9838
 31.0035
 32.4558
 32.483
 32.4152
 32.462
 29.6627
 29.9901
 29.6738
 30.0629
 32.5048
 32.4778
 32.438
 32.4964
 32.0438
 31.9455
 32.0542
 31.9259
 30.2253
 29.8943
 30.1714
 30.2792
 30.3341
 30.4139
 30.2901
 30.3926
 31.1326
 31.2864
 30.9452
 30.9996
 31.0774
 30.9352
 31.5712
 31.4989
 32.6983
 32.6304
 32.6201
 24.5744
 25.0526
 24.4937
 24.6112
 30.595
 30.7802
 30.8613
 30.5902
 31.0935
 30.9969
 31.0924
 31.1523
 31.7939
 31.6134
 31.6742
 32.565
 32.6209
 32.6799
 32.5534
 32.6528
 32.6605
 32.5658
 32.5675
 31.1159
 31.041
 31.1379
 30.9939
 32.5773
 32.4945
 32.5817
 32.5573
 32.039
 31.9721
 32.1178
 32.0916
 32.5227
 32.3397
 32.5264
 32.3905
 32.2234
 32.1505
 32.0866
 25.2513
 26.0052
 25.9358
 25.7369
 32.6745
 32.6857
 32.7157
 32.7026
 31.4022
 31.3598
 31.5364
 31.429
 31.5213
 31.4264
 32.5386
 32.5512
 32.6335
 32.4857
 31.7454
 31.8086
 31.7164
 32.1058
 32.1532
 32.0598
 32.1526
 31.4752
 31.3459
 31.4633
 31.3499
 32.5806
 32.6192
 32.609
 32.5897
 30.8684
 31.0192
 32.6307
 28.4476
 28.7275
 28.8827
 29.1007
 31.6987
 31.7398
 31.6584
 30.8285
 30.5921
 30.6124
 30.5733
 31.8474
 31.852
 31.8086
 31.7272
 32.218
 32.2167
 32.0491
 32.24
 32.3234
 32.2898
 32.381
 32.3941
 32.0724
 31.9981
 31.9828
 32.6524
 32.6584
 32.6455
 32.6215
 32.3481
 32.3388
 32.2993
 32.403
 32.1962
 32.3608
 31.2376
 31.211
 31.234
 32.0867
 32.0534
 32.07
 28.3809
 28.4871
 28.928
 28.5742
 32.5308
 32.5685
 32.4261
 32.6065
 31.1364
 31.2733
 31.3107
 31.3265
 31.6948
 31.7518
 32.7581
 32.9036
 32.8394
 31.9853
 32.1101
 32.1151
 32.2191
 32.1324
 32.1765
 32.2022
 32.5545
 32.5252
 32.5649
 32.5749
 30.8498
 30.8933
 32.9386
 32.9337
 32.9355
 32.9634
 32.867
 32.8688
 32.8999
 32.0686
 32.0413
 32.5553
 32.5174
 32.6536
 32.497
 32.0583
 31.9827
 32.1852
 32.2637
 32.677
 32.6093
 32.5914
 32.6907
 32.343
 32.2889
 32.417
 32.2832
 32.3257
 32.3768
 32.3598
 31.6044
 31.5716
 31.5313
 31.8529
 30.5889
 30.6104
 30.7978
 30.7539
 31.9004
 31.9275
 32.0044
 31.9517
 31.1067
 31.091
 31.1494
 31.1544
 32.2841
 32.2532
 32.3538
 32.5091
 32.5688
 32.575
 32.5413
 32.4303
 31.5325
 31.5049
 32.6111
 32.6287
 32.6313
 32.6047
 32.4011
 31.0931
 31.1204
 31.1978
 31.1417
 32.6127
 32.6851
 32.6925
 32.6504
 25.873
 26.1039
 32.6786
 32.722
 32.6725
 28.0805
 28.1827
 28.0371
 28.4998
 32.2935
 32.3378
 32.3029
 32.343
 32.165
 32.3129
 32.3993
 32.5089
 32.495
 30.7914
 30.7846
 30.8056
 30.9988
 30.9913
 31.0322
 32.2159
 32.4294
 32.8477
 32.8953
 27.201
 26.8025
 26.677
 26.8486
 31.0597
 31.2378
 31.0593
 32.3692
 32.3855
 32.4463
 32.3295
 32.6816
 32.6924
 32.6866
 32.6859
 32.0091
 31.946
 31.9403
 31.9933
 32.3887
 32.154
 32.2926
 31.9718
 31.9858
 32.0608
 31.9768
 31.6868
 31.801
 31.5906
 31.8398
 32.2132
 32.2198
 32.5439
 32.5653
 32.5142
 32.367
 32.4155
 32.4635
 32.4481
 32.4087
 32.3984
 32.5176
 32.4994
 31.9142
 31.999
 31.982
 31.9408
 32.1334
 32.183
 31.2654
 31.3219
 31.2691
 31.3558
 31.8102
 31.9624
 31.8912
 31.7895
 32.5678
 32.5635
 32.5674
 32.5683
 31.4716
 31.3394
 32.6697
 32.6704
 32.6522
 32.6494
 30.7656
 30.7768
 30.7694
 30.8442
 32.2245
 32.3276
 32.1727
 32.3203
 30.8235
 30.7643
 30.6793
 30.715
 31.1333
 31.1829
 31.2222
 32.6247
 32.6048
 32.6058
 30.8596
 30.7782
 32.8319
 32.7285
 32.7327
 32.613
 31.3286
 31.419
 31.3346
 31.424
 32.7727
 32.7485
 32.7468
 32.6798
 31.501
 31.674
 31.748
 31.5752
 31.4646
 31.4625
 31.5794
 32.5775
 32.4978
 32.5189
 32.5707
 32.5157
 32.5317
 32.5543
 32.3889
 31.726
 31.6191
 31.9046
 32.2474
 32.4076
 32.2629
 32.4638
 32.458
 32.4974
 32.4302
 32.4174
 32.4145
 32.3143
 32.4223
 32.7709
 32.6818
 32.7335
 32.7288
 32.4891
 32.4987
 32.5531
 32.4495
 32.2561
 32.1915
 32.0664
 31.9389
 32.0602
 32.0539
 32.4294
 32.5193
 32.4423
 32.4879
 32.4092
 32.5024
 32.5292
 32.7285
 32.6206
 32.5636
 28.5761
 28.8023
 29.0893
 28.8958
 31.148
 30.9724
 31.068
 32.9155
 32.9218
 32.8527
 32.9636
 32.4005
 32.4251
 32.399
 32.1228
 32.1868
 32.0599
 32.1039
 32.3283
 32.2399
 32.325
 32.3071
 32.6407
 32.6348
 32.6461
 32.5632
 32.5039
 31.7329
 31.7796
 31.6382
 30.6637
 30.6046
 30.7273
 30.6622
 32.5787
 32.3436
 32.4473
 32.3498
 32.482
 32.4412
 32.4471
 32.5594
 31.5575
 31.5492
 31.604
 31.6347
 32.3797
 32.4384
 32.3861
 32.4811
 32.5833
 32.6303
 32.655
 32.6712
 31.5139
 31.6014
 31.6992
 31.687
 32.5872
 32.5882
 31.2815
 31.319
 31.2365
 32.5785
 32.6224
 31.3958
 31.3966
 31.1475
 31.2203
 32.6552
 32.652
 32.649
 32.6524
 31.2365
 31.2145
 31.3398
 32.603
 32.6143
 32.2942
 32.2563
 32.1252
 32.2908
 32.5173
 32.504
 32.0034
 31.9469
 32.671
 32.666
 32.677
 32.6759
 32.1315
 32.2498
 32.1435
 32.0687
 31.7056
 31.5993
 31.5172
 31.5845
 30.8212
 30.7933
 30.8549
 30.8497
 32.6166
 32.5925
 32.5709
 32.5233
 32.3763
 32.2984
 31.5154
 31.6081
 32.1687
 32.3146
 32.1526
 29.3741
 29.4188
 30.0542
 29.8594
 28.6978
 29.1066
 28.8729
 32.7761
 32.6832
 32.6762
 32.6994
 32.6586
 32.6509
 32.662
 32.6648
 32.6277
 32.6174
 32.6006
 32.6049
 32.6505
 32.7441
 32.5541
 32.6106
 32.5187
 32.525
 32.5175
 32.5382
 32.1332
 32.3126
 32.3219
 32.1591
 30.9063
 30.9495
 30.9613
 30.8539
 32.6519
 32.664
 32.6115
 32.6125
 31.4769
 31.5286
 31.3692
 31.4038
 32.6133
 31.9577
 32.081
 32.0313
 32.0725
 31.646
 31.5813
 31.6388
 31.7031
 31.8957
 31.814
 31.8096
 32.5559
 31.1219
 31.0891
 31.165
 31.0662
 30.9503
 30.9111
 30.9091
 31.0349
 31.181
 31.0719
 31.0293
 32.5411
 32.552
 32.5485
 32.5948
 31.106
 31.059
 31.0225
 31.0053
 32.4602
 32.3322
 32.3535
 32.2135
 32.1202
 32.1527
 32.1557
 32.236
 32.5499
 32.4764
 32.492
 32.5345
 30.134
 30.3655
 30.2762
 32.2524
 32.603
 32.6087
 32.6151
 32.5857
 30.9895
 30.9075
 30.9058
 30.8807
 30.9159
 30.8186
 30.7442
 30.788
 31.9766
 32.0063
 31.9461
 32.0052
 32.4867
 32.5173
 32.513
 32.5279
 32.5232
 32.4791
 32.5436
 30.972
 30.9526
 30.996
 31.0994
 30.858
 30.7987
 30.8477
 30.8822
 32.5851
 32.4955
 32.4889
 31.6637
 31.5634
 31.0947
 31.1382
 31.1362
 32.6489
 32.5407
 32.6596
 32.6726
 31.8294
 31.7393
 31.9207
 31.911
 32.6605
 32.5186
 32.4907
 32.4657
 32.5362
 32.2065
 32.299
 32.2101
 32.3458
 30.8602
 30.8144
 31.321
 31.2009
 31.2763
 31.2059
 31.3627
 31.2166
 31.2713
 31.1834
 31.5229
 31.619
 31.4967
 31.6257
 31.7269
 31.67
 31.6868
 31.6455
 30.5938
 30.8331
 31.0869
 31.0485
 30.9873
 32.0206
 32.0357
 32.0669
 32.524
 32.4949
 32.4628
 32.5118
 31.7657
 31.8232
 31.7571
 31.659
 32.6257
 32.6556
 32.6476
 32.6371
 30.5275
 30.6274
 30.5162
 30.4498
 32.4005
 32.4184
 32.3788
 32.4013
 31.4267
 31.3513
 31.424
 31.8853
 31.8882
 32.5744
 32.6893
 32.5997
 32.5603
 32.4685
 32.647
 32.4085
 32.5592
 32.2329
 32.1594
 32.1956
 32.1598
 32.0505
 32.1143
 32.0204
 32.7856
 32.7525
 32.7332
 31.2506
 31.2697
 31.1542
 31.2903
 30.9555
 32.3707
 32.4316
 32.447
 32.3692
 31.9021
 31.8406
 31.8463
 31.8612
 32.2383
 32.3099
 32.3287
 24.7578
 24.6031
 24.9701
 24.92
 32.4941
 32.5685
 32.2046
 32.0764
 32.5912
 32.6601
 32.7187
 32.6389
 22.6042
 22.6658
 30.6314
 30.5889
 30.5548
 30.4716
 31.8536
 31.6438
 32.1548
 32.1595
 32.2003
 32.2052
 32.5863
 32.5783
 32.557
 32.5779
 31.3639
 31.2464
 31.3
 31.4171
 32.509
 32.4806
 32.5312
 32.516
 32.6033
 32.5477
 32.5234
 32.5596
 31.2194
 31.1322
 31.1464
 31.0565
 32.7103
 32.6924
 32.6226
 32.7901
 30.9642
 31.0619
 31.0361
 31.0776
 32.0499
 31.9911
 31.989
 32.5872
 32.5544
 32.4208
 32.5328
 32.2657
 32.3501
 32.3188
 32.3477
 32.4126
 32.4691
 32.6548
 32.6338
 32.6645
 32.0818
 32.098
 31.9858
 31.9732
 30.8464
 30.8495
 30.7216
 30.7067
 31.1167
 31.0399
 30.9915
 31.1262
 32.6413
 32.5718
 32.5172
 32.523
 31.9945
 31.9405
 31.967
 31.9834
 32.5715
 32.4019
 32.4158
 32.4553
 31.6245
 31.6238
 31.574
 32.4867
 32.496
 32.4688
 32.554
 31.6333
 31.5765
 31.8967
 31.7693
 31.8672
 31.8481
 31.595
 31.5132
 31.6468
 32.8139
 32.7934
 32.788
 32.7848
 32.5138
 32.5092
 32.466
 32.4841
 30.5636
 30.5568
 30.5313
 30.4522
 32.2333
 32.2691
 32.3435
 32.2552
 32.1923
 32.2908
 32.1774
 32.2247
 31.0979
 31.0253
 31.1172
 31.1441
 32.1345
 31.8096
 32.0675
 32.1089
 31.8311
 31.9274
 31.9928
 31.9017
 31.3751
 31.4452
 31.3414
 31.2659
 32.4791
 32.5154
 32.5301
 32.5938
 31.1138
 31.2719
 31.1
 32.3447
 32.3705
 32.1678
 32.2847
 32.8805
 32.927
 32.4511
 32.4748
 32.4293
 32.4582
 32.0698
 32.0879
 32.0266
 32.8403
 32.8492
 32.9921
 32.8781
 32.6066
 32.5546
 32.586
 32.5444
 31.743
 31.8813
 31.8527
 31.8197
 31.3694
 31.3401
 31.5335
 30.721
 30.6928
 30.7998
 30.7935
 32.2321
 32.2529
 32.2245
 32.3087
 32.347
 32.3838
 31.0293
 31.0157
 31.1127
 30.9606
 31.5147
 32.6359
 32.5703
 32.5439
 32.5694
 31.0196
 31.1637
 31.1376
 31.0632
 32.1144
 32.0416
 32.0659
 30.8159
 30.8118
 30.8078
 30.8001
 31.0851
 31.1771
 31.15
 31.0176
 31.0255
 30.9833
 31.1609
 32.5959
 32.6061
 32.5583
 32.5829
 31.1215
 30.977
 30.9894
 31.0207
 32.6491
 32.2846
 32.215
 32.3662
 31.8652
 31.7867
 31.6815
 31.8463
 32.6688
 32.6544
 32.6812
 32.5948
 32.8409
 32.8542
 32.3142
 32.285
 32.2615
 32.5774
 32.532
 32.5736
 32.6146
 32.4711
 32.4889
 32.519
 32.5328
 31.0953
 30.9975
 32.6782
 32.6794
 32.6792
 32.6615
 31.6603
 31.9837
 31.5356
 31.8037
 32.7265
 32.725
 32.7561
 32.6991
 31.7761
 31.7333
 31.8873
 31.5328
 31.627
 31.4256
 31.8514
 31.8963
 31.1067
 31.0886
 31.1633
 32.3327
 32.2471
 32.3026
 32.094
 32.5354
 32.593
 32.5629
 24.0552
 24.384
 24.0499
 23.7217
 31.6095
 31.7574
 31.6218
 31.5564
 32.7174
 32.8072
 32.6967
 32.7658
 32.2652
 32.3403
 32.3385
 32.2739
 31.5465
 31.577
 31.7057
 31.6026
 32.7384
 32.7001
 32.7468
 32.7405
 32.5949
 32.5501
 32.5895
 31.8075
 31.82
 31.7383
 32.2349
 32.2901
 32.2175
 32.0938
 32.4706
 32.5359
 32.5143
 32.505
 32.3018
 32.2537
 32.222
 31.6568
 32.0714
 31.7779
 31.8381
 32.5931
 32.5926
 32.5788
 32.6195
 32.5134
 32.4134
 32.3753
 32.5515
 32.4209
 32.1628
 32.4947
 32.442
 30.4443
 30.3018
 30.4971
 32.1954
 32.1636
 32.1786
 30.3734
 31.4921
 31.4651
 31.5933
 31.5612
 32.0074
 31.8151
 32.6213
 32.6138
 32.6067
 32.6172
 31.5882
 31.4518
 31.3163
 31.4491
 32.0038
 32.6568
 30.6893
 30.735
 30.7074
 30.7188
 24.4582
 24.9609
 24.7499
 32.9503
 32.9544
 33.0065
 31.7398
 31.8089
 30.2332
 30.1656
 30.2902
 30.2291
 32.6577
 32.6648
 32.6563
 32.6684
 31.5096
 31.4144
 31.4041
 32.1709
 32.2377
 32.0978
 32.1403
 31.9898
 32.0991
 30.9165
 31.0006
 31.0019
 30.9255
 32.6076
 32.5537
 32.4844
 32.53
 31.1817
 31.1035
 31.199
 31.1223
 32.7232
 32.6277
 32.5536
 32.6485
 31.7825
 31.7315
 31.6928
 31.8203
 31.4662
 31.5699
 31.4872
 31.2635
 32.5924
 32.5103
 32.5961
 32.6071
 32.3819
 30.8406
 30.7188
 30.7619
 30.7476
 32.3498
 32.3576
 32.4994
 32.376
 32.272
 32.2201
 32.0056
 32.0956
 31.8889
 32.0421
 32.6287
 32.6609
 32.6578
 32.5173
 32.5381
 32.5635
 32.571
 30.4136
 30.5142
 30.5411
 30.4831
 32.5579
 32.5518
 32.4992
 32.493
 31.9266
 32.065
 32.0745
 32.0244
 32.3905
 32.4059
 32.4205
 32.1477
 32.2036
 32.1622
 32.2452
 29.5737
 29.4627
 28.9782
 29.6247
 32.7488
 32.6605
 32.5824
 31.4618
 31.4546
 31.3731
 32.2237
 31.5471
 31.6874
 31.6633
 31.6481
 32.8941
 32.8941
 32.924
 32.9267
 31.3692
 31.1728
 31.2739
 31.294
 32.5862
 32.6817
 32.0194
 32.0898
 32.0471
 31.999
 32.0889
 32.1294
 32.2718
 29.1569
 29.3545
 28.7747
 29.1876
 30.1679
 30.0135
 30.0718
 30.1504
 32.5496
 32.5334
 32.5549
 32.5501
 32.5261
 32.457
 32.5585
 31.8143
 32.0147
 31.9605
 26.1328
 25.6857
 25.4725
 25.7943
 31.5943
 31.558
 31.4823
 31.4977
 31.5564
 31.542
 32.0483
 32.049
 32.0414
 31.908
 32.1887
 32.1914
 32.2356
 32.1565
 30.5774
 30.9175
 30.9635
 30.4974
 32.6164
 30.1388
 30.2024
 30.1083
 30.4055
 31.7624
 31.836
 31.8831
 31.8977
 32.2332
 32.2423
 31.6882
 31.6437
 31.6344
 31.7477
 31.4502
 31.3976
 31.471
 31.3954
 30.5765
 30.5236
 30.528
 30.3894
 24.4839
 24.293
 24.9079
 32.1972
 32.1009
 32.1406
 32.1433
 31.4274
 31.4158
 31.4756
 31.4636
 29.1247
 29.4706
 29.6297
 29.0627
 32.0247
 31.7291
 31.708
 31.6506
 31.7507
 31.0787
 31.0281
 31.0776
 32.5343
 32.4588
 32.4719
 32.457
 30.6609
 30.5357
 30.4936
 30.5449
 32.3626
 32.3078
 32.359
 32.3661
 32.2531
 32.5643
 32.491
 32.5652
 32.3972
 32.4577
 32.4322
 32.3638
 32.5313
 32.5116
 32.4247
 32.58
 32.6738
 32.6426
 32.6423
 31.6765
 30.0431
 30.3558
 29.6799
 32.1172
 32.0893
 32.1012
 31.6812
 31.6744
 31.7433
 32.6616
 32.7195
 32.6191
 32.7733
 31.9473
 32.0251
 31.0234
 31.096
 31.1096
 31.0805
 30.8894
 30.9067
 30.9156
 31.2836
 31.2082
 32.2255
 32.1372
 32.1991
 31.4102
 31.5768
 31.4787
 32.5069
 25.8528
 25.7251
 26.0328
 25.9372
 32.0631
 32.0375
 32.1113
 32.0737
 27.1298
 27.2068
 27.7406
 27.0733
 31.8143
 31.762
 31.7494
 32.7583
 32.7398
 32.8609
 32.863
 32.6463
 32.7631
 32.6276
 32.6263
 32.4013
 32.3961
 32.3091
 31.9432
 31.838
 32.7481
 32.6547
 32.6502
 32.794
 32.6822
 32.6932
 32.6996
 32.5506
 32.509
 32.5316
 32.3717
 32.265
 32.2379
 32.3548
 31.5975
 31.4693
 31.5714
 31.5253
 30.1519
 30.2305
 30.1244
 30.2208
 32.4829
 32.5317
 30.106
 30.2002
 30.2242
 32.0257
 31.8956
 32.0273
 32.1892
 32.1661
 32.5046
 32.5577
 32.5858
 32.5433
 31.8817
 31.9374
 31.8925
 31.2336
 31.1588
 31.8882
 31.9093
 31.8046
 31.9414
 31.7294
 31.786
 31.8647
 31.793
 32.421
 32.4106
 32.453
 31.3239
 31.2321
 31.4539
 32.8028
 32.8581
 32.8248
 32.9036
 31.281
 31.2603
 31.223
 31.2979
 32.4676
 32.4345
 32.4638
 32.5988
 32.6914
 32.6781
 32.577
 30.8677
 31.0299
 31.0136
 31.0191
 29.4269
 29.413
 29.2115
 32.5273
 32.5838
 32.5662
 31.6416
 31.5844
 31.9389
 31.952
 32.0575
 32.0364
 28.4904
 28.8187
 28.7565
 28.6525
 32.3541
 32.3681
 32.4394
 32.45
 31.6331
 31.6056
 31.5568
 31.5543
 31.4657
 31.5368
 31.4978
 31.5742
 32.6439
 32.6537
 32.6358
 32.6354
 30.3774
 30.2292
 30.2568
 30.4087
 32.6357
 32.7073
 32.6435
 28.5276
 28.35
 28.5309
 32.3336
 32.2287
 31.7948
 31.7584
 31.8231
 31.8145
 31.2204
 31.2725
 31.136
 31.1206
 32.5554
 32.6158
 32.7486
 32.7296
 32.683
 32.672
 23.9482
 23.3471
 23.558
 23.9534
 31.6464
 31.6994
 32.4759
 32.5302
 32.5824
 32.6578
 32.6533
 32.6638
 32.6717
 32.0571
 32.045
 32.9134
 32.8956
 32.9016
 32.9158
 32.3869
 32.2638
 32.5791
 32.5359
 32.5446
 31.215
 31.2637
 31.1064
 32.6054
 32.6421
