 -85.833
 -85.8346
 -85.8342
 -85.8351
 -85.8589
 -85.8592
 -85.8598
 -85.8601
 -85.853
 -85.8522
 -85.8532
 -85.8524
 -85.8541
 -85.8532
 -85.853
 -85.8525
 -85.8684
 -85.8689
 -85.868
 -85.8677
 -85.8671
 -85.8664
 -85.8675
 -85.8667
 -85.8274
 -85.8265
 -85.8268
 -85.8273
 -85.8288
 -85.829
 -85.829
 -85.8285
 -85.8669
 -85.8666
 -85.8658
 -85.8665
 -85.8668
 -85.8669
 -85.8666
 -85.8677
 -85.8239
 -85.8233
 -85.8242
 -85.8244
 -85.8525
 -85.8527
 -85.8518
 -85.8523
 -85.838
 -85.8379
 -85.8371
 -85.8387
 -85.8606
 -85.8594
 -85.8589
 -85.8598
 -85.8485
 -85.8482
 -85.8488
 -85.8495
 -85.8305
 -85.8297
 -85.831
 -85.8298
 -85.8649
 -85.8653
 -85.8647
 -85.8655
 -85.855
 -85.8544
 -85.8553
 -85.8547
 -85.8492
 -85.8495
 -85.8497
 -85.8503
 -85.8633
 -85.8634
 -85.8638
 -85.8643
 -85.8283
 -85.8271
 -85.8284
 -85.8275
 -85.8698
 -85.87
 -85.8706
 -85.8705
 -85.8094
 -85.8088
 -85.8085
 -85.8096
 -85.8583
 -85.8586
 -85.8577
 -85.8575
 -85.8473
 -85.8466
 -85.8473
 -85.8478
 -85.8509
 -85.8511
 -85.8507
 -85.8503
 -85.8431
 -85.8442
 -85.8448
 -85.8432
 -85.8299
 -85.8291
 -85.8301
 -85.8298
 -85.8376
 -85.8373
 -85.8364
 -85.8371
 -85.8596
 -85.8596
 -85.859
 -85.8584
 -85.8479
 -85.8493
 -85.8475
 -85.8481
 -85.8381
 -85.839
 -85.8389
 -85.8381
 -85.8566
 -85.8557
 -85.8569
 -85.8559
 -85.859
 -85.8586
 -85.8585
 -85.8587
 -85.8384
 -85.8376
 -85.8387
 -85.837
 -85.8318
 -85.8317
 -85.8315
 -85.8316
 -85.8557
 -85.8544
 -85.8556
 -85.8552
 -85.8232
 -85.8238
 -85.8239
 -85.8244
 -85.857
 -85.8571
 -85.8586
 -85.8581
 -85.8712
 -85.8706
 -85.871
 -85.8704
 -85.8519
 -85.8517
 -85.8522
 -85.8508
 -85.8589
 -85.8597
 -85.8593
 -85.8591
 -85.8256
 -85.8254
 -85.8263
 -85.825
 -85.8552
 -85.8546
 -85.8549
 -85.8558
 -85.8668
 -85.8666
 -85.8673
 -85.867
 -85.8355
 -85.8364
 -85.836
 -85.8356
 -85.8558
 -85.8571
 -85.8568
 -85.8568
 -85.8309
 -85.8319
 -85.831
 -85.8299
 -85.8394
 -85.8387
 -85.8384
 -85.838
 -85.8494
 -85.8486
 -85.8484
 -85.8479
 -85.8294
 -85.829
 -85.8286
 -85.8293
 -85.8501
 -85.8493
 -85.8493
 -85.85
 -85.8405
 -85.8392
 -85.8405
 -85.8388
 -85.852
 -85.8526
 -85.852
 -85.8526
 -85.8369
 -85.8378
 -85.8372
 -85.8385
 -85.8522
 -85.852
 -85.8529
 -85.8514
 -85.8573
 -85.8575
 -85.858
 -85.8585
 -85.8587
 -85.8582
 -85.8587
 -85.8574
 -85.8356
 -85.8357
 -85.8342
 -85.8362
 -85.8424
 -85.8419
 -85.8421
 -85.8434
 -85.8116
 -85.8108
 -85.8102
 -85.811
 -85.8375
 -85.8374
 -85.8364
 -85.8372
 -85.848
 -85.8493
 -85.8488
 -85.849
 -85.8412
 -85.8409
 -85.8424
 -85.8402
 -85.8405
 -85.8417
 -85.8404
 -85.8416
 -85.8297
 -85.8291
 -85.83
 -85.83
 -85.8641
 -85.865
 -85.8653
 -85.864
 -85.8685
 -85.8687
 -85.869
 -85.8692
 -85.8502
 -85.8514
 -85.8494
 -85.85
 -85.8378
 -85.8376
 -85.8384
 -85.8372
 -85.8569
 -85.8573
 -85.8578
 -85.8568
 -85.8283
 -85.8265
 -85.8271
 -85.827
 -85.828
 -85.8271
 -85.8269
 -85.8281
 -85.81
 -85.8093
 -85.8104
 -85.8102
 -85.8525
 -85.8535
 -85.853
 -85.854
 -85.835
 -85.8361
 -85.8364
 -85.835
 -85.8329
 -85.832
 -85.8331
 -85.8338
 -85.8693
 -85.8699
 -85.8696
 -85.87
 -85.8316
 -85.8313
 -85.8305
 -85.8315
 -85.8333
 -85.8328
 -85.832
 -85.8332
 -85.835
 -85.8358
 -85.835
 -85.8342
 -85.8445
 -85.8442
 -85.8452
 -85.8449
 -85.8338
 -85.8349
 -85.8341
 -85.8344
 -85.8392
 -85.8399
 -85.8402
 -85.8395
 -85.8423
 -85.842
 -85.8417
 -85.8412
 -85.8312
 -85.8301
 -85.8316
 -85.8303
 -85.807
 -85.8067
 -85.8084
 -85.8084
 -85.8291
 -85.8294
 -85.8301
 -85.8296
 -85.853
 -85.8525
 -85.8534
 -85.8518
 -85.8533
 -85.853
 -85.8539
 -85.853
 -85.8584
 -85.858
 -85.8577
 -85.8589
 -85.8279
 -85.8278
 -85.828
 -85.8284
 -85.8702
 -85.8702
 -85.8697
 -85.8706
 -85.8579
 -85.8588
 -85.8579
 -85.8581
 -85.8241
 -85.824
 -85.823
 -85.823
 -85.8397
 -85.8397
 -85.8392
 -85.8411
 -85.8329
 -85.8335
 -85.8321
 -85.8326
 -85.8332
 -85.8327
 -85.8327
 -85.8284
 -85.8283
 -85.8282
 -85.8279
 -85.8552
 -85.8546
 -85.8541
 -85.8555
 -85.8432
 -85.8446
 -85.844
 -85.8432
 -85.854
 -85.8549
 -85.8542
 -85.8375
 -85.8361
 -85.8369
 -85.8364
 -85.8463
 -85.8469
 -85.8466
 -85.8456
 -85.8627
 -85.8618
 -85.8618
 -85.8633
 -85.8284
 -85.8286
 -85.8301
 -85.8295
 -85.8314
 -85.8306
 -85.8302
 -85.8308
 -85.8529
 -85.8519
 -85.8516
 -85.852
 -85.8571
 -85.8566
 -85.8581
 -85.8579
 -85.8256
 -85.8256
 -85.8251
 -85.8243
 -85.8307
 -85.831
 -85.8326
 -85.8321
 -85.8416
 -85.8429
 -85.8435
 -85.8418
 -85.867
 -85.8676
 -85.8672
 -85.8675
 -85.8526
 -85.8536
 -85.8539
 -85.8535
 -85.8464
 -85.8448
 -85.8463
 -85.8464
 -85.8135
 -85.812
 -85.8136
 -85.8134
 -85.8445
 -85.8434
 -85.8448
 -85.8455
 -85.8624
 -85.8615
 -85.8624
 -85.8611
 -85.8342
 -85.8326
 -85.835
 -85.8344
 -85.8319
 -85.8322
 -85.8311
 -85.8317
 -85.8316
 -85.8305
 -85.8307
 -85.8311
 -85.8224
 -85.8223
 -85.8223
 -85.8227
 -85.8329
 -85.8314
 -85.8315
 -85.8315
 -85.8534
 -85.8532
 -85.8534
 -85.8526
 -85.827
 -85.8274
 -85.8278
 -85.8281
 -85.8664
 -85.8657
 -85.8661
 -85.8664
 -85.8277
 -85.8264
 -85.8266
 -85.8275
 -85.8623
 -85.8611
 -85.8623
 -85.8615
 -85.844
 -85.843
 -85.8431
 -85.8437
 -85.8396
 -85.8405
 -85.841
 -85.8399
 -85.8363
 -85.8364
 -85.8376
 -85.8366
 -85.8343
 -85.8343
 -85.8335
 -85.8332
 -85.8697
 -85.8702
 -85.8704
 -85.8704
 -85.8353
 -85.8347
 -85.8352
 -85.8348
 -85.8712
 -85.8708
 -85.871
 -85.8704
 -85.8575
 -85.8573
 -85.8584
 -85.8576
 -85.8174
 -85.8187
 -85.8185
 -85.8172
 -85.8676
 -85.8675
 -85.8681
 -85.8684
 -85.8306
 -85.8318
 -85.8307
 -85.8298
 -85.8164
 -85.8157
 -85.8154
 -85.8162
 -85.8608
 -85.8606
 -85.8602
 -85.8607
 -85.8687
 -85.8693
 -85.8689
 -85.8687
 -85.8491
 -85.8494
 -85.8489
 -85.8486
 -85.8594
 -85.8584
 -85.8596
 -85.8587
 -85.8329
 -85.8318
 -85.8324
 -85.8322
 -85.8514
 -85.851
 -85.8515
 -85.8524
 -85.8391
 -85.8385
 -85.8395
 -85.8395
 -85.8291
 -85.8295
 -85.8289
 -85.8288
 -85.8245
 -85.8244
 -85.8242
 -85.8252
 -85.8434
 -85.8431
 -85.8441
 -85.8427
 -85.8465
 -85.8465
 -85.8461
 -85.8454
 -85.8323
 -85.8321
 -85.8329
 -85.8333
 -85.8323
 -85.831
 -85.8323
 -85.832
 -85.8544
 -85.8547
 -85.8539
 -85.8538
 -85.8672
 -85.867
 -85.8678
 -85.8679
 -85.866
 -85.8654
 -85.8661
 -85.8663
 -85.8656
 -85.8646
 -85.8649
 -85.8653
 -85.8553
 -85.8549
 -85.8557
 -85.8547
 -85.8322
 -85.8309
 -85.8319
 -85.8315
 -85.8326
 -85.8333
 -85.8336
 -85.8338
 -85.8461
 -85.8458
 -85.8442
 -85.8442
 -85.8576
 -85.857
 -85.8585
 -85.858
 -85.8573
 -85.8567
 -85.857
 -85.8577
 -85.8498
 -85.8488
 -85.8494
 -85.8496
 -85.8524
 -85.8533
 -85.8521
 -85.8523
 -85.8251
 -85.8249
 -85.8254
 -85.8264
 -85.8016
 -85.8009
 -85.8018
 -85.8003
 -85.8347
 -85.8345
 -85.8333
 -85.834
 -85.8061
 -85.8076
 -85.8072
 -85.8347
 -85.8346
 -85.8352
 -85.8339
 -85.8633
 -85.8628
 -85.8632
 -85.8625
 -85.8487
 -85.8493
 -85.8494
 -85.8502
 -85.8671
 -85.8668
 -85.8676
 -85.8667
 -85.832
 -85.8322
 -85.8311
 -85.832
 -85.8561
 -85.8558
 -85.8572
 -85.8569
 -85.8499
 -85.8499
 -85.8487
 -85.8491
 -85.869
 -85.8693
 -85.8696
 -85.8686
 -85.8615
 -85.8614
 -85.8617
 -85.8626
 -85.8348
 -85.8359
 -85.8351
 -85.8347
 -85.8559
 -85.8557
 -85.8548
 -85.8558
 -85.8628
 -85.8614
 -85.8622
 -85.8615
 -85.8162
 -85.8146
 -85.8154
 -85.8148
 -85.8481
 -85.8487
 -85.8491
 -85.8492
 -85.8627
 -85.8628
 -85.8634
 -85.8627
 -85.8536
 -85.8545
 -85.8529
 -85.8549
 -85.8615
 -85.8605
 -85.8616
 -85.8615
 -85.8326
 -85.8336
 -85.8342
 -85.8341
 -85.8613
 -85.8631
 -85.8613
 -85.8628
 -85.8423
 -85.843
 -85.8411
 -85.8421
 -85.8449
 -85.8455
 -85.8462
 -85.8447
 -85.8612
 -85.8611
 -85.8603
 -85.8616
 -85.8711
 -85.8707
 -85.8707
 -85.8711
 -85.8252
 -85.8258
 -85.8263
 -85.8266
 -85.8385
 -85.8394
 -85.84
 -85.8388
 -85.8513
 -85.8507
 -85.8501
 -85.8505
 -85.8613
 -85.862
 -85.8618
 -85.862
 -85.8357
 -85.8348
 -85.8352
 -85.8352
 -85.8269
 -85.8281
 -85.8286
 -85.8271
 -85.8567
 -85.8567
 -85.8556
 -85.8556
 -85.8535
 -85.8544
 -85.8535
 -85.8539
 -85.868
 -85.8684
 -85.869
 -85.868
 -85.8296
 -85.8309
 -85.8293
 -85.8304
 -85.8686
 -85.8692
 -85.8691
 -85.8687
 -85.8377
 -85.839
 -85.8383
 -85.8379
 -85.8027
 -85.8024
 -85.8028
 -85.8033
 -85.865
 -85.8655
 -85.8659
 -85.8656
 -85.8552
 -85.8558
 -85.8548
 -85.8536
 -85.8657
 -85.8658
 -85.8653
 -85.8652
 -85.846
 -85.8447
 -85.8456
 -85.8462
 -85.8435
 -85.8442
 -85.8445
 -85.8438
 -85.86
 -85.8589
 -85.8592
 -85.8592
 -85.8321
 -85.8325
 -85.8316
 -85.8323
 -85.8303
 -85.831
 -85.831
 -85.8306
 -85.8111
 -85.8105
 -85.8105
 -85.8101
 -85.8498
 -85.8506
 -85.851
 -85.8515
 -85.8468
 -85.8462
 -85.8478
 -85.8467
 -85.8538
 -85.8523
 -85.8532
 -85.8541
 -85.8388
 -85.8401
 -85.8403
 -85.8384
 -85.8672
 -85.8671
 -85.8677
 -85.8665
 -85.8687
 -85.8696
 -85.8687
 -85.8684
 -85.8545
 -85.8549
 -85.8559
 -85.8559
 -85.7946
 -85.7944
 -85.7948
 -85.7954
 -85.8421
 -85.8414
 -85.8423
 -85.8409
 -85.8429
 -85.8426
 -85.8414
 -85.8426
 -85.8422
 -85.8424
 -85.8411
 -85.8411
 -85.8604
 -85.8599
 -85.8611
 -85.8597
 -85.8146
 -85.8158
 -85.8136
 -85.8144
 -85.8087
 -85.8088
 -85.8076
 -85.8073
 -85.8604
 -85.8597
 -85.8605
 -85.8595
 -85.8367
 -85.838
 -85.8362
 -85.8379
 -85.841
 -85.841
 -85.8414
 -85.8414
 -85.8545
 -85.8538
 -85.8537
 -85.8526
 -85.8312
 -85.8317
 -85.8322
 -85.8316
 -85.8618
 -85.8608
 -85.8611
 -85.8617
 -85.839
 -85.8369
 -85.8381
 -85.8365
 -85.8371
 -85.8369
 -85.836
 -85.8368
 -85.827
 -85.8262
 -85.8274
 -85.8259
 -85.8419
 -85.8434
 -85.8424
 -85.8435
 -85.8633
 -85.8638
 -85.8638
 -85.8631
 -85.8558
 -85.8569
 -85.8573
 -85.8562
 -85.8308
 -85.8306
 -85.8317
 -85.8315
 -85.8352
 -85.8366
 -85.8366
 -85.8352
 -85.8662
 -85.8665
 -85.8669
 -85.8668
 -85.8614
 -85.8607
 -85.8612
 -85.8608
 -85.843
 -85.8426
 -85.8419
 -85.8426
 -85.8276
 -85.8278
 -85.8278
 -85.8281
 -85.8194
 -85.8213
 -85.8209
 -85.8196
 -85.8546
 -85.8536
 -85.8531
 -85.8542
 -85.8276
 -85.8265
 -85.8275
 -85.8252
 -85.8642
 -85.8632
 -85.8632
 -85.864
 -85.8516
 -85.853
 -85.8522
 -85.8512
 -85.8633
 -85.8631
 -85.8628
 -85.863
 -85.8569
 -85.8559
 -85.8558
 -85.8564
 -85.8428
 -85.8423
 -85.8427
 -85.8435
 -85.8328
 -85.8312
 -85.8316
 -85.8323
 -85.8212
 -85.823
 -85.8214
 -85.8215
 -85.8254
 -85.8238
 -85.8255
 -85.8251
 -85.8322
 -85.8308
 -85.8306
 -85.8311
 -85.845
 -85.8453
 -85.8452
 -85.8434
 -85.8453
 -85.8456
 -85.8459
 -85.8447
 -85.8465
 -85.8455
 -85.8474
 -85.8463
 -85.8551
 -85.8544
 -85.8553
 -85.8552
 -85.8146
 -85.8133
 -85.8136
 -85.8135
 -85.8496
 -85.8498
 -85.8493
 -85.8503
 -85.8305
 -85.8293
 -85.8298
 -85.8302
 -85.8408
 -85.8422
 -85.8413
 -85.8421
 -85.8681
 -85.867
 -85.868
 -85.8677
 -85.8443
 -85.8437
 -85.8437
 -85.8433
 -85.8281
 -85.8276
 -85.8279
 -85.8267
 -85.8402
 -85.8402
 -85.8409
 -85.8415
 -85.8332
 -85.8339
 -85.8338
 -85.8329
 -85.8431
 -85.8418
 -85.8433
 -85.8424
 -85.8154
 -85.8144
 -85.8149
 -85.8157
 -85.8414
 -85.8414
 -85.8425
 -85.8425
 -85.8555
 -85.8552
 -85.8559
 -85.8553
 -85.8523
 -85.8524
 -85.8529
 -85.8525
 -85.8661
 -85.8647
 -85.8659
 -85.8652
 -85.8355
 -85.8353
 -85.8363
 -85.8356
 -85.8325
 -85.8332
 -85.8324
 -85.8344
 -85.8654
 -85.8643
 -85.8654
 -85.8652
 -85.8335
 -85.8334
 -85.8346
 -85.8335
 -85.8633
 -85.863
 -85.8638
 -85.8629
 -85.8483
 -85.8498
 -85.8488
 -85.8494
 -85.8452
 -85.8436
 -85.8451
 -85.8454
 -85.8327
 -85.8337
 -85.8335
 -85.8326
 -85.8437
 -85.8436
 -85.8447
 -85.8435
 -85.8637
 -85.8633
 -85.8639
 -85.8638
 -85.8021
 -85.8023
 -85.8026
 -85.8013
 -85.8273
 -85.8271
 -85.8271
 -85.8273
 -85.8272
 -85.8274
 -85.8272
 -85.8265
 -85.8368
 -85.8372
 -85.8363
 -85.8378
 -85.8409
 -85.84
 -85.8407
 -85.8402
 -85.8357
 -85.8351
 -85.8347
 -85.836
 -85.8682
 -85.8678
 -85.8689
 -85.8676
 -85.8321
 -85.8315
 -85.8316
 -85.8329
 -85.8539
 -85.854
 -85.8545
 -85.8535
 -85.8451
 -85.8611
 -85.86
 -85.8604
 -85.8603
 -85.852
 -85.8527
 -85.8534
 -85.8529
 -85.8246
 -85.8254
 -85.8257
 -85.8251
 -85.838
 -85.8375
 -85.8382
 -85.839
 -85.834
 -85.8328
 -85.8337
 -85.8339
 -85.8627
 -85.8619
 -85.8619
 -85.862
 -85.842
 -85.8402
 -85.8415
 -85.841
 -85.8638
 -85.8641
 -85.863
 -85.8629
 -85.8564
 -85.8571
 -85.8561
 -85.8574
 -85.8252
 -85.8258
 -85.8254
 -85.8265
 -85.8317
 -85.8305
 -85.8326
 -85.8318
 -85.8556
 -85.8563
 -85.8563
 -85.8556
 -85.8438
 -85.8424
 -85.8436
 -85.8276
 -85.827
 -85.8273
 -85.8281
 -85.8543
 -85.8527
 -85.8537
 -85.8528
 -85.8341
 -85.8329
 -85.833
 -85.8338
 -85.8442
 -85.8424
 -85.8433
 -85.8442
 -85.8655
 -85.8655
 -85.8644
 -85.8654
 -85.8365
 -85.8361
 -85.8355
 -85.8364
 -85.8612
 -85.8602
 -85.8611
 -85.8615
 -85.8463
 -85.8457
 -85.8464
 -85.8451
 -85.8587
 -85.8582
 -85.8574
 -85.858
 -85.8647
 -85.8647
 -85.8656
 -85.8651
 -85.8372
 -85.8371
 -85.8378
 -85.8378
 -85.802
 -85.8038
 -85.8035
 -85.8044
 -85.8687
 -85.8681
 -85.8682
 -85.868
 -85.8535
 -85.8531
 -85.8525
 -85.853
 -85.8294
 -85.8294
 -85.8312
 -85.8297
 -85.8403
 -85.841
 -85.8413
 -85.8401
 -85.8172
 -85.8175
 -85.8176
 -85.8164
 -85.864
 -85.8645
 -85.8655
 -85.8645
 -85.8284
 -85.8279
 -85.8282
 -85.8283
 -85.849
 -85.8499
 -85.8485
 -85.8493
 -85.8309
 -85.8288
 -85.8304
 -85.8305
 -85.8698
 -85.8697
 -85.8698
 -85.8689
 -85.8695
 -85.8694
 -85.8689
 -85.8685
 -85.8565
 -85.8555
 -85.8552
 -85.8566
 -85.85
 -85.8504
 -85.85
 -85.8492
 -85.8504
 -85.8279
 -85.8281
 -85.8266
 -85.8276
 -85.8304
 -85.8299
 -85.8296
 -85.8308
 -85.8544
 -85.8554
 -85.8555
 -85.8554
 -85.8296
 -85.8303
 -85.8303
 -85.8295
 -85.8329
 -85.8327
 -85.8325
 -85.8336
 -85.856
 -85.8564
 -85.8561
 -85.8552
 -85.8379
 -85.8392
 -85.838
 -85.8392
 -85.8552
 -85.8553
 -85.8555
 -85.8562
 -85.8339
 -85.8337
 -85.8328
 -85.8339
 -85.8371
 -85.838
 -85.838
 -85.8382
 -85.8425
 -85.8434
 -85.842
 -85.8432
 -85.8498
 -85.8509
 -85.8501
 -85.8512
 -85.8597
 -85.8593
 -85.8606
 -85.8605
 -85.8481
 -85.8478
 -85.8472
 -85.8473
 -85.8483
 -85.8486
 -85.8491
 -85.8487
 -85.825
 -85.825
 -85.8256
 -85.826
 -85.8538
 -85.854
 -85.8543
 -85.8541
 -85.8454
 -85.8457
 -85.8461
 -85.8453
 -85.8474
 -85.8474
 -85.8466
 -85.8473
 -85.8388
 -85.8391
 -85.8378
 -85.8386
 -85.8277
 -85.8275
 -85.8282
 -85.8268
 -85.8584
 -85.8584
 -85.859
 -85.859
 -85.8281
 -85.8272
 -85.8276
 -85.8288
 -85.8686
 -85.8686
 -85.8694
 -85.869
 -85.8616
 -85.8609
 -85.8622
 -85.8618
 -85.8622
 -85.8623
 -85.8623
 -85.862
 -85.8616
 -85.8615
 -85.8613
 -85.8622
 -85.8565
 -85.8569
 -85.8559
 -85.8569
 -85.8191
 -85.8184
 -85.817
 -85.848
 -85.8465
 -85.8478
 -85.8474
 -85.8605
 -85.8601
 -85.8599
 -85.8605
 -85.8383
 -85.8372
 -85.8378
 -85.8382
 -85.8341
 -85.8343
 -85.8337
 -85.8345
 -85.8572
 -85.8574
 -85.8582
 -85.8564
 -85.8421
 -85.8417
 -85.8423
 -85.8431
 -85.8351
 -85.8352
 -85.8349
 -85.8346
 -85.8677
 -85.8685
 -85.8525
 -85.8523
 -85.8514
 -85.8513
 -85.8429
 -85.8428
 -85.842
 -85.8497
 -85.8499
 -85.8496
 -85.8488
 -85.8211
 -85.8208
 -85.8222
 -85.8221
 -85.8613
 -85.862
 -85.8619
 -85.8611
 -85.8494
 -85.8491
 -85.8485
 -85.8486
 -85.8382
 -85.8372
 -85.8377
 -85.8386
 -85.847
 -85.8458
 -85.8462
 -85.8466
 -85.829
 -85.8287
 -85.8292
 -85.829
 -85.8259
 -85.8275
 -85.8263
 -85.8267
 -85.8416
 -85.8425
 -85.8428
 -85.8422
 -85.8285
 -85.8283
 -85.8284
 -85.8294
 -85.843
 -85.8424
 -85.8427
 -85.8422
 -85.8624
 -85.8623
 -85.8613
 -85.8612
 -85.8302
 -85.8307
 -85.8311
 -85.8306
 -85.8111
 -85.8123
 -85.8111
 -85.812
 -85.8511
 -85.8493
 -85.8506
 -85.8507
 -85.8404
 -85.8412
 -85.8402
 -85.8412
 -85.829
 -85.8288
 -85.8297
 -85.8295
 -85.8434
 -85.8426
 -85.8437
 -85.8438
 -85.8662
 -85.8659
 -85.8664
 -85.8662
 -85.8331
 -85.833
 -85.8325
 -85.8331
 -85.8518
 -85.8509
 -85.8509
 -85.8507
 -85.84
 -85.8411
 -85.8403
 -85.8419
 -85.8562
 -85.8567
 -85.8566
 -85.8574
 -85.8625
 -85.8624
 -85.8629
 -85.8621
 -85.8296
 -85.8305
 -85.8299
 -85.8315
 -85.8362
 -85.837
 -85.8368
 -85.8366
 -85.8495
 -85.8494
 -85.8481
 -85.8489
 -85.8286
 -85.8289
 -85.8288
 -85.8291
 -85.803
 -85.802
 -85.8021
 -85.8027
 -85.8467
 -85.8457
 -85.8458
 -85.8455
 -85.8003
 -85.8001
 -85.8005
 -85.8014
 -85.8025
 -85.804
 -85.8038
 -85.803
 -85.8214
 -85.8223
 -85.822
 -85.821
 -85.8536
 -85.8528
 -85.8522
 -85.8518
 -85.8532
 -85.8538
 -85.854
 -85.8546
 -85.8547
 -85.854
 -85.8546
 -85.8535
 -85.8515
 -85.8504
 -85.8507
 -85.8517
 -85.8169
 -85.8159
 -85.8167
 -85.8164
 -85.8306
 -85.8302
 -85.8312
 -85.8308
 -85.8291
 -85.828
 -85.8284
 -85.8282
 -85.8382
 -85.8394
 -85.8383
 -85.8395
 -85.8479
 -85.8472
 -85.848
 -85.8474
 -85.8563
 -85.8561
 -85.8557
 -85.8564
 -85.8317
 -85.833
 -85.8335
 -85.8322
 -85.8537
 -85.8441
 -85.8448
 -85.845
 -85.8444
 -85.8692
 -85.8695
 -85.8702
 -85.8697
 -85.8417
 -85.842
 -85.8426
 -85.8419
 -85.8643
 -85.8653
 -85.8645
 -85.83
 -85.8305
 -85.8309
 -85.8298
 -85.8064
 -85.8074
 -85.807
 -85.8076
 -85.844
 -85.8439
 -85.8453
 -85.8433
 -85.8387
 -85.8372
 -85.8374
 -85.8373
 -85.8287
 -85.8294
 -85.8301
 -85.8304
 -85.8302
 -85.8306
 -85.8297
 -85.8307
 -85.8201
 -85.8189
 -85.8197
 -85.8197
 -85.8498
 -85.8495
 -85.8501
 -85.8516
 -85.8441
 -85.8453
 -85.8438
 -85.8448
 -85.8359
 -85.8349
 -85.836
 -85.8355
 -85.8418
 -85.8411
 -85.8431
 -85.8572
 -85.8568
 -85.8566
 -85.8321
 -85.8323
 -85.8308
 -85.8306
 -85.8225
 -85.8221
 -85.8221
 -85.8224
 -85.834
 -85.8349
 -85.8347
 -85.8339
 -85.8223
 -85.8212
 -85.8226
 -85.8208
 -85.8593
 -85.8604
 -85.8596
 -85.8599
 -85.8563
 -85.8568
 -85.857
 -85.8576
 -85.8288
 -85.8284
 -85.8286
 -85.8284
 -85.8182
 -85.8166
 -85.8177
 -85.8181
 -85.8469
 -85.8454
 -85.8467
 -85.8461
 -85.8672
 -85.8663
 -85.8673
 -85.8665
 -85.8217
 -85.8216
 -85.821
 -85.8217
 -85.8531
 -85.8522
 -85.852
 -85.8533
 -85.8105
 -85.8098
 -85.8106
 -85.81
 -85.8562
 -85.8566
 -85.856
 -85.8574
 -85.839
 -85.8381
 -85.8395
 -85.8377
 -85.8594
 -85.8595
 -85.8603
 -85.8603
 -85.8298
 -85.83
 -85.8302
 -85.8311
 -85.837
 -85.8361
 -85.8362
 -85.8361
 -85.8319
 -85.8315
 -85.8327
 -85.8326
 -85.8341
 -85.8336
 -85.835
 -85.8331
 -85.8468
 -85.8475
 -85.8473
 -85.8463
 -85.8413
 -85.8405
 -85.8416
 -85.8416
 -85.8603
 -85.8595
 -85.8589
 -85.8591
 -85.8685
 -85.869
 -85.8678
 -85.8679
 -85.8398
 -85.8397
 -85.8389
 -85.8396
 -85.8621
 -85.8617
 -85.8616
 -85.8626
 -85.8551
 -85.8564
 -85.857
 -85.8561
 -85.8154
 -85.8148
 -85.8136
 -85.8153
 -85.827
 -85.8289
 -85.8284
 -85.8279
 -85.8387
 -85.838
 -85.8377
 -85.8381
 -85.8203
 -85.8196
 -85.8194
 -85.8186
 -85.8476
 -85.8488
 -85.8486
 -85.8482
 -85.8587
 -85.8604
 -85.8595
 -85.8596
 -85.8211
 -85.8228
 -85.8211
 -85.8211
 -85.8422
 -85.8431
 -85.8425
 -85.8426
 -85.8346
 -85.8346
 -85.8346
 -85.8341
 -85.8031
 -85.804
 -85.8041
 -85.8031
 -85.8377
 -85.8376
 -85.8374
 -85.8385
 -85.8447
 -85.8454
 -85.8453
 -85.8455
 -85.8557
 -85.8568
 -85.8561
 -85.857
 -85.8338
 -85.8341
 -85.8344
 -85.8446
 -85.8443
 -85.844
 -85.8444
 -85.8362
 -85.8361
 -85.8376
 -85.8366
 -85.8534
 -85.8524
 -85.8532
 -85.853
 -85.8531
 -85.8542
 -85.854
 -85.8537
 -85.8633
 -85.8626
 -85.8631
 -85.8622
 -85.831
 -85.8311
 -85.8319
 -85.8309
 -85.8664
 -85.8667
 -85.8671
 -85.8666
 -85.8328
 -85.8338
 -85.833
 -85.8326
 -85.844
 -85.8452
 -85.8451
 -85.8458
 -85.846
 -85.845
 -85.8451
 -85.8447
 -85.8015
 -85.8005
 -85.8014
 -85.8013
 -85.8353
 -85.8346
 -85.8354
 -85.8355
 -85.8431
 -85.843
 -85.844
 -85.8452
 -85.8424
 -85.8428
 -85.8428
 -85.8416
 -85.8688
 -85.8688
 -85.8681
 -85.8687
 -85.8327
 -85.8338
 -85.8344
 -85.8331
 -85.8345
 -85.8338
 -85.8349
 -85.8336
 -85.8558
 -85.8567
 -85.8559
 -85.8565
 -85.8297
 -85.8294
 -85.8288
 -85.8286
 -85.8291
 -85.8289
 -85.8295
 -85.8288
 -85.8523
 -85.8509
 -85.8522
 -85.8515
 -85.8536
 -85.8535
 -85.8526
 -85.8535
 -85.8467
 -85.8467
 -85.8481
 -85.8477
 -85.8337
 -85.8332
 -85.8503
 -85.8495
 -85.8509
 -85.8498
 -85.8343
 -85.8349
 -85.8343
 -85.8345
 -85.8403
 -85.8414
 -85.8418
 -85.8413
 -85.8645
 -85.8641
 -85.8636
 -85.8647
 -85.8405
 -85.8408
 -85.8414
 -85.8416
 -85.8575
 -85.8582
 -85.8586
 -85.8572
 -85.8313
 -85.8333
 -85.8326
 -85.8331
 -85.8385
 -85.8376
 -85.8373
 -85.8379
 -85.843
 -85.8448
 -85.8438
 -85.8442
 -85.831
 -85.8301
 -85.8298
 -85.8304
 -85.8115
 -85.8118
 -85.8113
 -85.8106
 -85.8673
 -85.8673
 -85.8671
 -85.8674
 -85.8219
 -85.8217
 -85.8222
 -85.8215
 -85.8483
 -85.8488
 -85.8477
 -85.8477
 -85.8113
 -85.8114
 -85.8122
 -85.811
 -85.8499
 -85.8508
 -85.8501
 -85.85
 -85.8331
 -85.8329
 -85.8326
 -85.8327
 -85.8331
 -85.8333
 -85.8324
 -85.8329
 -85.846
 -85.8465
 -85.8451
 -85.846
 -85.8605
 -85.8594
 -85.8603
 -85.8593
 -85.8378
 -85.8393
 -85.8389
 -85.8392
 -85.8286
 -85.8282
 -85.8286
 -85.829
 -85.86
 -85.8613
 -85.8606
 -85.8615
 -85.8322
 -85.8311
 -85.8326
 -85.8327
 -85.8378
 -85.839
 -85.8387
 -85.8393
 -85.8553
 -85.857
 -85.8567
 -85.8561
 -85.8454
 -85.8464
 -85.8466
 -85.8466
 -85.8416
 -85.8409
 -85.8417
 -85.8422
 -85.8644
 -85.865
 -85.8654
 -85.8656
 -85.8614
 -85.8618
 -85.8618
 -85.8613
 -85.8484
 -85.8484
 -85.8471
 -85.8478
 -85.8416
 -85.8422
 -85.8413
 -85.8434
 -85.8355
 -85.8359
 -85.836
 -85.8375
 -85.8275
 -85.8274
 -85.8267
 -85.8573
 -85.8579
 -85.8575
 -85.8585
 -85.8103
 -85.8095
 -85.8085
 -85.8086
 -85.8532
 -85.8519
 -85.8526
 -85.8524
 -85.8316
 -85.8304
 -85.831
 -85.8311
 -85.8296
 -85.8288
 -85.8291
 -85.829
 -85.8617
 -85.8608
 -85.8613
 -85.8625
 -85.8462
 -85.8454
 -85.8465
 -85.8457
 -85.8419
 -85.8415
 -85.8341
 -85.84
 -85.8411
 -85.8398
 -85.8405
 -85.8116
 -85.8125
 -85.852
 -85.8524
 -85.8529
 -85.8247
 -85.8254
 -85.8238
 -85.8247
 -85.8522
 -85.8511
 -85.8514
 -85.8514
 -85.8378
 -85.8389
 -85.8386
 -85.8385
 -85.8337
 -85.8352
 -85.8343
 -85.8344
 -85.8643
 -85.8644
 -85.8654
 -85.8648
 -85.8251
 -85.8261
 -85.825
 -85.8261
 -85.8513
 -85.8514
 -85.8515
 -85.8522
 -85.8658
 -85.8661
 -85.865
 -85.8652
 -85.8452
 -85.8441
 -85.8452
 -85.8444
 -85.8512
 -85.8498
 -85.8504
 -85.8503
 -85.8432
 -85.8442
 -85.8434
 -85.8418
 -85.8697
 -85.8685
 -85.8693
 -85.8683
 -85.8688
 -85.8688
 -85.8684
 -85.868
 -85.868
 -85.8677
 -85.8676
 -85.8681
 -85.8404
 -85.8393
 -85.8403
 -85.8402
 -85.8484
 -85.8473
 -85.8476
 -85.8483
 -85.8411
 -85.8409
 -85.8401
 -85.8407
 -85.8393
 -85.8389
 -85.8404
 -85.8389
 -85.8536
 -85.854
 -85.8542
 -85.8532
 -85.8603
 -85.8615
 -85.8612
 -85.8616
 -85.8598
 -85.8602
 -85.8592
 -85.8605
 -85.8447
 -85.8453
 -85.8445
 -85.8451
 -85.8425
 -85.8423
 -85.8421
 -85.8416
 -85.8328
 -85.8322
 -85.8325
 -85.8336
 -85.8561
 -85.8569
 -85.8569
 -85.8558
 -85.8205
 -85.8205
 -85.8195
 -85.8211
 -85.8584
 -85.859
 -85.8582
 -85.858
 -85.8473
 -85.8489
 -85.8472
 -85.8485
 -85.8464
 -85.847
 -85.8466
 -85.8459
 -85.8255
 -85.8254
 -85.8247
 -85.8238
 -85.7982
 -85.7989
 -85.7979
 -85.7981
 -85.8363
 -85.8373
 -85.8363
 -85.8365
 -85.8583
 -85.857
 -85.8576
 -85.8582
 -85.8297
 -85.8289
 -85.8295
 -85.8301
 -85.8481
 -85.8486
 -85.8475
 -85.8488
 -85.8497
 -85.8506
 -85.8515
 -85.8511
 -85.8557
 -85.8562
 -85.8549
 -85.8553
 -85.8184
 -85.8175
 -85.8176
 -85.8184
 -85.8194
 -85.8194
 -85.8189
 -85.8188
 -85.8581
 -85.8596
 -85.859
 -85.859
 -85.854
 -85.8525
 -85.8525
 -85.8535
 -85.8359
 -85.8361
 -85.8355
 -85.8356
 -85.8435
 -85.8431
 -85.844
 -85.8446
 -85.8471
 -85.8476
 -85.8472
 -85.847
 -85.8351
 -85.8345
 -85.836
 -85.8347
 -85.8514
 -85.8508
 -85.8509
 -85.8501
 -85.8722
 -85.8715
 -85.872
 -85.8721
 -85.849
 -85.8501
 -85.8501
 -85.8509
 -85.8438
 -85.8442
 -85.8434
 -85.8449
 -85.8438
 -85.8436
 -85.8427
 -85.8438
 -85.8473
 -85.8478
 -85.8473
 -85.8464
 -85.8669
 -85.8671
 -85.8664
 -85.8669
 -85.8605
 -85.8597
 -85.8602
 -85.8508
 -85.8508
 -85.8515
 -85.8507
 -85.8286
 -85.8284
 -85.8293
 -85.8284
 -85.839
 -85.8391
 -85.8383
 -85.8394
 -85.86
 -85.8587
 -85.8586
 -85.8587
 -85.8329
 -85.8332
 -85.8334
 -85.8338
 -85.8374
 -85.8365
 -85.8364
 -85.8376
 -85.8388
 -85.8384
 -85.837
 -85.8381
 -85.8532
 -85.8525
 -85.8523
 -85.8522
 -85.8474
 -85.8464
 -85.8475
 -85.8456
 -85.8509
 -85.849
 -85.8497
 -85.85
 -85.8305
 -85.8308
 -85.831
 -85.8306
 -85.8388
 -85.8395
 -85.8398
 -85.8388
 -85.8523
 -85.8515
 -85.8525
 -85.8531
 -85.8367
 -85.8371
 -85.8377
 -85.8362
 -85.8489
 -85.8498
 -85.8499
 -85.8492
 -85.8299
 -85.8297
 -85.8302
 -85.8295
 -85.8658
 -85.866
 -85.8651
 -85.8658
 -85.8323
 -85.8315
 -85.8325
 -85.833
 -85.8306
 -85.8289
 -85.8299
 -85.8299
 -85.8548
 -85.8548
 -85.8555
 -85.8558
 -85.8324
 -85.8327
 -85.8329
 -85.8328
 -85.8502
 -85.8498
 -85.8503
 -85.8492
 -85.8245
 -85.8247
 -85.8233
 -85.8236
 -85.8464
 -85.846
 -85.8462
 -85.8471
 -85.8634
 -85.8647
 -85.8635
 -85.8643
 -85.8469
 -85.8455
 -85.8454
 -85.8464
 -85.8557
 -85.8562
 -85.8557
 -85.8557
 -85.8496
 -85.8492
 -85.8494
 -85.8502
 -85.849
 -85.8494
 -85.8496
 -85.8505
 -85.8668
 -85.8669
 -85.8673
 -85.8659
 -85.8304
 -85.8299
 -85.8294
 -85.8293
 -85.8311
 -85.8307
 -85.8298
 -85.8306
 -85.8615
 -85.8615
 -85.8609
 -85.8622
 -85.8641
 -85.8646
 -85.8639
 -85.8348
 -85.8345
 -85.8344
 -85.8351
 -85.8513
 -85.8524
 -85.8512
 -85.8511
 -85.8478
 -85.8482
 -85.847
 -85.8483
 -85.8298
 -85.8307
 -85.829
 -85.8298
 -85.856
 -85.8567
 -85.8564
 -85.8564
 -85.8428
 -85.8415
 -85.8418
 -85.8428
 -85.8463
 -85.8452
 -85.8453
 -85.8451
 -85.8569
 -85.8577
 -85.8577
 -85.8575
 -85.8274
 -85.8271
 -85.8275
 -85.8279
 -85.8347
 -85.8334
 -85.8338
 -85.8337
 -85.8679
 -85.8671
 -85.8678
 -85.8675
 -85.8307
 -85.8306
 -85.8309
 -85.8321
 -85.8279
 -85.8275
 -85.8278
 -85.8278
 -85.8435
 -85.8438
 -85.8433
 -85.8447
 -85.8123
 -85.8127
 -85.8118
 -85.8135
 -85.8454
 -85.8456
 -85.8451
 -85.8456
 -85.8579
 -85.8575
 -85.8572
 -85.857
 -85.8609
 -85.8602
 -85.8606
 -85.8253
 -85.8253
 -85.8259
 -85.8254
 -85.8326
 -85.8337
 -85.8323
 -85.8333
 -85.8301
 -85.8298
 -85.8289
 -85.8289
 -85.8342
 -85.8334
 -85.834
 -85.8337
 -85.8684
 -85.8689
 -85.8692
 -85.8689
 -85.8266
 -85.8267
 -85.8263
 -85.8256
 -85.8323
 -85.8315
 -85.8322
 -85.8334
 -85.8604
 -85.8611
 -85.8605
 -85.8602
 -85.8377
 -85.8375
 -85.8382
 -85.8333
 -85.8323
 -85.8334
 -85.847
 -85.8465
 -85.8455
 -85.8141
 -85.8157
 -85.8158
 -85.8147
 -85.8459
 -85.8467
 -85.8463
 -85.847
 -85.8452
 -85.8459
 -85.8443
 -85.8445
 -85.8616
 -85.8622
 -85.8613
 -85.8613
 -85.8644
 -85.8643
 -85.8655
 -85.8643
 -85.829
 -85.8279
 -85.8279
 -85.8299
 -85.8478
 -85.8489
 -85.849
 -85.8485
 -85.8474
 -85.8483
 -85.8487
 -85.8484
 -85.842
 -85.8434
 -85.8427
 -85.8437
 -85.8364
 -85.8368
 -85.837
 -85.8355
 -85.848
 -85.8468
 -85.8477
 -85.848
 -85.8306
 -85.8308
 -85.8304
 -85.8311
 -85.8635
 -85.8632
 -85.8636
 -85.8637
 -85.8345
 -85.8342
 -85.8347
 -85.8354
 -85.8607
 -85.8598
 -85.8604
 -85.8603
 -85.8655
 -85.8651
 -85.8644
 -85.8652
 -85.8656
 -85.8653
 -85.8652
 -85.865
 -85.8324
 -85.8318
 -85.8549
 -85.8546
 -85.854
 -85.8545
 -85.8301
 -85.8315
 -85.8309
 -85.8304
 -85.8572
 -85.8587
 -85.8583
 -85.8586
 -85.8603
 -85.8599
 -85.8609
 -85.8599
 -85.8349
 -85.8358
 -85.8359
 -85.8354
 -85.8477
 -85.8478
 -85.8486
 -85.8484
 -85.8341
 -85.8341
 -85.835
 -85.8342
 -85.8398
 -85.8397
 -85.8399
 -85.8409
 -85.8046
 -85.8063
 -85.8042
 -85.8056
 -85.8629
 -85.8623
 -85.8636
 -85.8627
 -85.8347
 -85.8339
 -85.835
 -85.8358
 -85.8253
 -85.8244
 -85.8245
 -85.8255
 -85.8414
 -85.8408
 -85.8419
 -85.842
 -85.825
 -85.8233
 -85.8229
 -85.825
 -85.8409
 -85.8398
 -85.8392
 -85.8405
 -85.8544
 -85.8541
 -85.8552
 -85.8537
 -85.8427
 -85.842
 -85.842
 -85.8424
 -85.8618
 -85.8631
 -85.862
 -85.8414
 -85.8425
 -85.8413
 -85.8424
 -85.8045
 -85.8039
 -85.8039
 -85.8036
 -85.869
 -85.8692
 -85.8695
 -85.8691
 -85.8473
 -85.847
 -85.8476
 -85.8467
 -85.8577
 -85.8571
 -85.8561
 -85.8573
 -85.8289
 -85.8298
 -85.8274
 -85.8285
 -85.8361
 -85.837
 -85.8354
 -85.8365
 -85.8363
 -85.8379
 -85.8369
 -85.8378
 -85.8648
 -85.8643
 -85.8651
 -85.8656
 -85.8378
 -85.8371
 -85.8364
 -85.8368
 -85.8681
 -85.8679
 -85.8683
 -85.8675
 -85.8535
 -85.8523
 -85.8524
 -85.8537
 -85.8307
 -85.831
 -85.8313
 -85.8307
 -85.8116
 -85.812
 -85.813
 -85.8113
 -85.84
 -85.8385
 -85.8393
 -85.8381
 -85.8434
 -85.8434
 -85.8443
 -85.8432
 -85.855
 -85.855
 -85.8545
 -85.8537
 -85.806
 -85.8046
 -85.8063
 -85.8057
 -85.8403
 -85.8396
 -85.8409
 -85.8405
 -85.8672
 -85.8666
 -85.8664
 -85.8665
 -85.8594
 -85.8602
 -85.8599
 -85.8596
 -85.8591
 -85.8592
 -85.8599
 -85.8589
 -85.8579
 -85.8572
 -85.8568
 -85.8573
 -85.8593
 -85.8607
 -85.86
 -85.8598
 -85.8502
 -85.8505
 -85.8502
 -85.8503
 -85.8317
 -85.8337
 -85.8348
 -85.8348
 -85.8343
 -85.8531
 -85.8519
 -85.8523
 -85.8521
 -85.8528
 -85.853
 -85.8516
 -85.8519
 -85.8224
 -85.8228
 -85.8228
 -85.8224
 -85.8625
 -85.8624
 -85.862
 -85.8625
 -85.8573
 -85.8581
 -85.8591
 -85.8585
 -85.8307
 -85.832
 -85.8318
 -85.832
 -85.832
 -85.8317
 -85.8336
 -85.8343
 -85.834
 -85.8348
 -85.8311
 -85.8299
 -85.8283
 -85.8292
 -85.8525
 -85.8536
 -85.8533
 -85.8525
 -85.868
 -85.8681
 -85.8678
 -85.8682
 -85.8441
 -85.8434
 -85.8441
 -85.843
 -85.8647
 -85.8634
 -85.8628
 -85.8628
 -85.8407
 -85.8406
 -85.84
 -85.8411
 -85.8522
 -85.8515
 -85.8508
 -85.8509
 -85.8295
 -85.8293
 -85.8291
 -85.828
 -85.8481
 -85.8492
 -85.8476
 -85.8485
 -85.8498
 -85.8512
 -85.8517
 -85.8501
 -85.8322
 -85.8317
 -85.8309
 -85.8314
 -85.8375
 -85.8369
 -85.8388
 -85.8379
 -85.8411
 -85.8409
 -85.84
 -85.8394
 -85.8481
 -85.8487
 -85.8483
 -85.8486
 -85.8216
 -85.8219
 -85.8223
 -85.8234
 -85.8504
 -85.8493
 -85.85
 -85.8507
 -85.8377
 -85.8364
 -85.8378
 -85.8386
 -85.8546
 -85.8543
 -85.8545
 -85.8538
 -85.8612
 -85.8604
 -85.8611
 -85.8606
 -85.8659
 -85.8655
 -85.8653
 -85.8657
 -85.8643
 -85.8648
 -85.8635
 -85.8689
 -85.8689
 -85.8694
 -85.8695
 -85.8589
 -85.8581
 -85.8571
 -85.8582
 -85.843
 -85.8428
 -85.8436
 -85.8434
 -85.8649
 -85.8643
 -85.8638
 -85.8648
 -85.8459
 -85.8461
 -85.8455
 -85.8453
 -85.8484
 -85.849
 -85.8486
 -85.8649
 -85.8655
 -85.8652
 -85.865
 -85.8631
 -85.8624
 -85.8627
 -85.8469
 -85.8465
 -85.8474
 -85.8477
 -85.8371
 -85.8378
 -85.837
 -85.8386
 -85.8537
 -85.8529
 -85.8527
 -85.8525
 -85.8653
 -85.8658
 -85.8655
 -85.8651
 -85.8327
 -85.8325
 -85.8332
 -85.832
 -85.8428
 -85.8425
 -85.8417
 -85.8416
 -85.8442
 -85.8456
 -85.8439
 -85.8443
 -85.8546
 -85.8536
 -85.8543
 -85.8545
 -85.8331
 -85.8323
 -85.8339
 -85.8326
 -85.8291
 -85.8282
 -85.8292
 -85.8288
 -85.8442
 -85.8443
 -85.8441
 -85.8452
 -85.8675
 -85.867
 -85.8669
 -85.8671
 -85.8352
 -85.834
 -85.8353
 -85.8347
 -85.83
 -85.8308
 -85.8297
 -85.8308
 -85.8503
 -85.8489
 -85.8504
 -85.8502
 -85.834
 -85.8343
 -85.8337
 -85.8303
 -85.831
 -85.8307
 -85.8487
 -85.8482
 -85.8496
 -85.8485
 -85.8307
 -85.8302
 -85.8296
 -85.8306
 -85.8311
 -85.83
 -85.8308
 -85.8308
 -85.8505
 -85.8509
 -85.8502
 -85.8307
 -85.8305
 -85.8607
 -85.8609
 -85.8623
 -85.8624
 -85.8535
 -85.855
 -85.855
 -85.8544
 -85.8216
 -85.8227
 -85.8207
 -85.8229
 -85.8143
 -85.8144
 -85.8133
 -85.8145
 -85.8337
 -85.8318
 -85.833
 -85.8331
 -85.8638
 -85.8637
 -85.8642
 -85.8638
 -85.8521
 -85.8514
 -85.8509
 -85.8514
 -85.8273
 -85.8272
 -85.8271
 -85.827
 -85.8343
 -85.8345
 -85.835
 -85.8359
 -85.8349
 -85.835
 -85.8348
 -85.8323
 -85.833
 -85.8331
 -85.8331
 -85.8331
 -85.8323
 -85.8333
 -85.8336
 -85.8298
 -85.8288
 -85.8296
 -85.8287
 -85.867
 -85.8675
 -85.8671
 -85.8671
 -85.8647
 -85.8654
 -85.8644
 -85.844
 -85.8433
 -85.8441
 -85.8429
 -85.8333
 -85.8319
 -85.8335
 -85.833
 -85.8692
 -85.8697
 -85.8302
 -85.8296
 -85.8297
 -85.8292
 -85.8465
 -85.8484
 -85.8472
 -85.8478
 -85.851
 -85.8507
 -85.8306
 -85.8305
 -85.8316
 -85.8306
 -85.8655
 -85.866
 -85.8653
 -85.8665
 -85.8682
 -85.8677
 -85.8679
 -85.8688
 -85.8413
 -85.8419
 -85.8413
 -85.8213
 -85.8222
 -85.8216
 -85.8317
 -85.833
 -85.8316
 -85.8319
 -85.8566
 -85.8556
 -85.8572
 -85.8557
 -85.8362
 -85.8351
 -85.8352
 -85.8343
 -85.8354
 -85.8347
 -85.8358
 -85.8345
 -85.8526
 -85.8524
 -85.853
 -85.8541
 -85.8067
 -85.8072
 -85.8063
 -85.8054
 -85.8554
 -85.8557
 -85.8565
 -85.8563
 -85.8563
 -85.8561
 -85.8569
 -85.8574
 -85.8289
 -85.829
 -85.8277
 -85.8287
 -85.863
 -85.8634
 -85.8636
 -85.8628
 -85.8045
 -85.803
 -85.8033
 -85.8023
 -85.8658
 -85.8643
 -85.8643
 -85.8641
 -85.8598
 -85.8591
 -85.8344
 -85.8352
 -85.8349
 -85.8357
 -85.8279
 -85.827
 -85.8275
 -85.8283
 -85.8625
 -85.8632
 -85.8631
 -85.8629
 -85.837
 -85.8374
 -85.8373
 -85.8366
 -85.8673
 -85.8668
 -85.8671
 -85.8336
 -85.8326
 -85.8322
 -85.8267
 -85.8277
 -85.828
 -85.866
 -85.8664
 -85.8661
 -85.8658
 -85.8341
 -85.8335
 -85.8335
 -85.8335
 -85.8629
 -85.863
 -85.8268
 -85.8275
 -85.8267
 -85.827
 -85.8453
 -85.8463
 -85.8464
 -85.8454
 -85.8354
 -85.8348
 -85.8393
 -85.8413
 -85.841
 -85.8398
 -85.8345
 -85.8343
 -85.8344
 -85.8333
 -85.8679
 -85.8687
 -85.8676
 -85.868
 -85.8285
 -85.8281
 -85.8283
 -85.8599
 -85.8052
 -85.805
 -85.8052
 -85.8046
 -85.8622
 -85.8625
 -85.863
 -85.8614
 -85.8354
 -85.8355
 -85.8371
 -85.8368
 -85.8549
 -85.8545
 -85.8546
 -85.8548
 -85.8343
 -85.8336
 -85.8331
 -85.8341
 -85.8524
 -85.8224
 -85.8221
 -85.8221
 -85.8225
 -85.8522
 -85.8522
 -85.8519
 -85.851
 -85.8591
 -85.8596
 -85.8599
 -85.8583
 -85.8591
 -85.858
 -85.8594
 -85.8627
 -85.8635
 -85.8631
 -85.8631
 -85.8289
 -85.8293
 -85.8304
 -85.8298
 -85.8615
 -85.8615
 -85.8614
 -85.8622
 -85.8252
 -85.825
 -85.8253
 -85.8241
 -85.8605
 -85.861
 -85.8614
 -85.8614
 -85.8435
 -85.8429
 -85.8427
 -85.8424
 -85.8546
 -85.8553
 -85.8556
 -85.8558
 -85.8468
 -85.8463
 -85.846
 -85.8456
 -85.8658
 -85.8646
 -85.8467
 -85.8457
 -85.8457
 -85.8465
 -85.8222
 -85.8218
 -85.8231
 -85.8218
 -85.8246
 -85.8242
 -85.826
 -85.8244
 -85.8468
 -85.8477
 -85.8478
 -85.848
 -85.8562
 -85.8562
 -85.8559
 -85.8572
 -85.8576
 -85.8568
 -85.8572
 -85.858
 -85.8648
 -85.8638
 -85.8641
 -85.8635
 -85.8579
 -85.8591
 -85.8585
 -85.8579
 -85.8247
 -85.8247
 -85.8254
 -85.824
 -85.8301
 -85.8301
 -85.8299
 -85.8315
 -85.8695
 -85.869
 -85.8689
 -85.8689
 -85.8487
 -85.8491
 -85.8489
 -85.8504
 -85.8315
 -85.8328
 -85.8315
 -85.8326
 -85.8095
 -85.8092
 -85.8108
 -85.8088
 -85.8624
 -85.8629
 -85.8619
 -85.8637
 -85.8328
 -85.8329
 -85.8332
 -85.8339
 -85.8397
 -85.8407
 -85.8391
 -85.8399
 -85.8249
 -85.8245
 -85.8248
 -85.8254
 -85.8517
 -85.8512
 -85.8517
 -85.8518
 -85.8648
 -85.8649
 -85.8646
 -85.8648
 -85.8497
 -85.8483
 -85.8487
 -85.8484
 -85.8413
 -85.8415
 -85.8427
 -85.8421
 -85.8229
 -85.8235
 -85.824
 -85.8223
 -85.8646
 -85.8534
 -85.8542
 -85.853
 -85.854
 -85.8395
 -85.839
 -85.838
 -85.8383
 -85.8558
 -85.8565
 -85.8563
 -85.8571
 -85.8316
 -85.8309
 -85.8311
 -85.8322
 -85.8516
 -85.8522
 -85.8509
 -85.8218
 -85.8232
 -85.8221
 -85.8218
 -85.8601
 -85.8584
 -85.8595
 -85.8589
 -85.8288
 -85.8287
 -85.8293
 -85.8289
 -85.8712
 -85.8709
 -85.8711
 -85.8715
 -85.833
 -85.8331
 -85.8333
 -85.8331
 -85.8132
 -85.8158
 -85.8155
 -85.8147
 -85.8208
 -85.8206
 -85.8217
 -85.8215
 -85.8694
 -85.8691
 -85.8687
 -85.8685
 -85.8663
 -85.8661
 -85.8666
 -85.8668
 -85.8441
 -85.845
 -85.8447
 -85.8451
 -85.8339
 -85.8337
 -85.8344
 -85.847
 -85.847
 -85.8455
 -85.8461
 -85.8533
 -85.8528
 -85.854
 -85.854
 -85.8466
 -85.8486
 -85.8479
 -85.8477
 -85.8451
 -85.8455
 -85.847
 -85.8462
 -85.8686
 -85.868
 -85.8681
 -85.8678
 -85.8306
 -85.8303
 -85.8316
 -85.8306
 -85.821
 -85.819
 -85.8192
 -85.8559
 -85.8551
 -85.8556
 -85.8552
 -85.8622
 -85.863
 -85.8624
 -85.8622
 -85.8321
 -85.8319
 -85.8324
 -85.8309
 -85.8311
 -85.8316
 -85.8302
 -85.8635
 -85.863
 -85.8638
 -85.8625
 -85.8426
 -85.8424
 -85.8433
 -85.8425
 -85.8312
 -85.83
 -85.8309
 -85.831
 -85.8395
 -85.8389
 -85.839
 -85.8397
 -85.8602
 -85.8601
 -85.8593
 -85.8601
 -85.8317
 -85.8332
 -85.8309
 -85.8328
 -85.8405
 -85.8389
 -85.8394
 -85.84
 -85.8355
 -85.8365
 -85.8357
 -85.8664
 -85.8662
 -85.8657
 -85.8659
 -85.8428
 -85.8431
 -85.8422
 -85.8434
 -85.8695
 -85.8693
 -85.8703
 -85.8462
 -85.8468
 -85.8466
 -85.8462
 -85.823
 -85.8239
 -85.8224
 -85.8229
 -85.8498
 -85.85
 -85.8507
 -85.8516
 -85.8446
 -85.846
 -85.8442
 -85.8327
 -85.833
 -85.8339
 -85.8332
 -85.8283
 -85.8286
 -85.828
 -85.8288
 -85.8325
 -85.833
 -85.8337
 -85.8323
 -85.8123
 -85.8124
 -85.8138
 -85.814
 -85.8376
 -85.8373
 -85.8368
 -85.8368
 -85.8356
 -85.8352
 -85.8367
 -85.8349
 -85.8639
 -85.8628
 -85.863
 -85.8644
 -85.827
 -85.8284
 -85.8279
 -85.8276
 -85.8526
 -85.8521
 -85.8528
 -85.8531
 -85.867
 -85.8671
 -85.8666
 -85.8662
 -85.8673
 -85.8663
 -85.8668
 -85.8672
 -85.8593
 -85.8599
 -85.8593
 -85.8597
 -85.8679
 -85.8687
 -85.8686
 -85.8673
 -85.8644
 -85.8646
 -85.8645
 -85.8696
 -85.8684
 -85.8688
 -85.8687
 -85.8249
 -85.8244
 -85.8249
 -85.824
 -85.8393
 -85.8382
 -85.8378
 -85.8384
 -85.8358
 -85.837
 -85.8362
 -85.8371
 -85.8376
 -85.8371
 -85.8369
 -85.8367
 -85.8655
 -85.8648
 -85.8653
 -85.8656
 -85.8393
 -85.8393
 -85.8384
 -85.8379
 -85.8327
 -85.8315
 -85.8315
 -85.8323
 -85.8539
 -85.8536
 -85.8547
 -85.8534
 -85.8335
 -85.8347
 -85.8335
 -85.8342
 -85.8564
 -85.8557
 -85.8555
 -85.8467
 -85.8478
 -85.8478
 -85.8631
 -85.8622
 -85.8625
 -85.8626
 -85.8395
 -85.84
 -85.8392
 -85.8392
 -85.8518
 -85.8509
 -85.8511
 -85.8519
 -85.8371
 -85.8357
 -85.8364
 -85.8373
 -85.8697
 -85.8693
 -85.8672
 -85.8669
 -85.8665
 -85.8674
 -85.8235
 -85.8232
 -85.8233
 -85.8227
 -85.8522
 -85.8531
 -85.8532
 -85.8539
 -85.8325
 -85.8338
 -85.8327
 -85.832
 -85.8005
 -85.7984
 -85.8003
 -85.7996
 -85.8335
 -85.8331
 -85.8325
 -85.8331
 -85.8559
 -85.8549
 -85.8558
 -85.8272
 -85.827
 -85.8283
 -85.8283
 -85.8666
 -85.8658
 -85.8668
 -85.8661
 -85.8337
 -85.8342
 -85.8338
 -85.8343
 -85.8516
 -85.8525
 -85.852
 -85.8517
 -85.8235
 -85.824
 -85.8227
 -85.8236
 -85.8087
 -85.8086
 -85.8093
 -85.8097
 -85.8317
 -85.8325
 -85.8316
 -85.8314
 -85.8382
 -85.8378
 -85.8386
 -85.8478
 -85.8463
 -85.848
 -85.8474
 -85.8291
 -85.8292
 -85.828
 -85.8565
 -85.8562
 -85.8567
 -85.8574
 -85.8594
 -85.8608
 -85.8595
 -85.8606
 -85.855
 -85.8541
 -85.8549
 -85.855
 -85.8659
 -85.8642
 -85.8649
 -85.8651
 -85.8585
 -85.8577
 -85.8582
 -85.8351
 -85.8358
 -85.8357
 -85.8362
 -85.8573
 -85.8564
 -85.8535
 -85.8524
 -85.8521
 -85.8531
 -85.8558
 -85.8554
 -85.8555
 -85.8561
 -85.832
 -85.8325
 -85.8322
 -85.8312
 -85.8328
 -85.8336
 -85.8328
 -85.8336
 -85.8009
 -85.8017
 -85.802
 -85.8014
 -85.8327
 -85.8335
 -85.8327
 -85.8354
 -85.8349
 -85.8347
 -85.8351
 -85.8443
 -85.8442
 -85.8436
 -85.8434
 -85.8355
 -85.8366
 -85.8367
 -85.836
 -85.8236
 -85.8243
 -85.8235
 -85.8234
 -85.8596
 -85.8585
 -85.8595
 -85.8586
 -85.8436
 -85.8444
 -85.8435
 -85.8429
 -85.8656
 -85.8656
 -85.8653
 -85.8658
 -85.8489
 -85.8479
 -85.8488
 -85.8482
 -85.8649
 -85.8652
 -85.865
 -85.8109
 -85.812
 -85.8116
 -85.8118
 -85.8552
 -85.8566
 -85.8554
 -85.8556
 -85.841
 -85.84
 -85.8411
 -85.8406
 -85.8303
 -85.8296
 -85.8367
 -85.8369
 -85.8374
 -85.8372
 -85.8404
 -85.8392
 -85.8396
 -85.8635
 -85.8638
 -85.8631
 -85.8637
 -85.8638
 -85.8634
 -85.8627
 -85.8631
 -85.8304
 -85.83
 -85.8306
 -85.8302
 -85.8428
 -85.8423
 -85.8337
 -85.8348
 -85.8341
 -85.8332
 -85.8576
 -85.857
 -85.8584
 -85.8584
 -85.8226
 -85.8226
 -85.8225
 -85.8229
 -85.8316
 -85.832
 -85.8312
 -85.8311
 -85.8336
 -85.8346
 -85.8351
 -85.8346
 -85.8461
 -85.8458
 -85.846
 -85.8474
 -85.8567
 -85.8565
 -85.8559
 -85.856
 -85.8584
 -85.8575
 -85.8568
 -85.8578
 -85.8055
 -85.8053
 -85.805
 -85.8045
 -85.8275
 -85.8284
 -85.8288
 -85.848
 -85.8463
 -85.8473
 -85.8493
 -85.8503
 -85.8492
 -85.8503
 -85.865
 -85.8655
 -85.8651
 -85.8658
 -85.8426
 -85.833
 -85.833
 -85.8318
 -85.8322
 -85.8524
 -85.8518
 -85.8509
 -85.8514
 -85.8591
 -85.8581
 -85.8584
 -85.8594
 -85.8623
 -85.8625
 -85.8305
 -85.8301
 -85.8296
 -85.8295
 -85.8447
 -85.8455
 -85.8452
 -85.8458
 -85.8278
 -85.8274
 -85.8277
 -85.8281
 -85.8496
 -85.838
 -85.8373
 -85.8391
 -85.8395
 -85.836
 -85.8367
 -85.8371
 -85.8365
 -85.8654
 -85.8643
 -85.8668
 -85.8673
 -85.8674
 -85.867
 -85.8165
 -85.8158
 -85.8161
 -85.8166
 -85.8581
 -85.8583
 -85.8571
 -85.8587
 -85.8496
 -85.8483
 -85.8488
 -85.8498
 -85.8078
 -85.8082
 -85.8082
 -85.8074
 -85.8443
 -85.8443
 -85.8448
 -85.8437
 -85.8435
 -85.8423
 -85.8417
 -85.8419
 -85.8295
 -85.8283
 -85.8297
 -85.8292
 -85.8691
 -85.8696
 -85.8697
 -85.8697
 -85.8422
 -85.8411
 -85.8413
 -85.8345
 -85.8357
 -85.8356
 -85.8346
 -85.8674
 -85.8685
 -85.8678
 -85.868
 -85.8346
 -85.8339
 -85.833
 -85.835
 -85.8406
 -85.8414
 -85.8605
 -85.8607
 -85.8614
 -85.8598
 -85.8479
 -85.8479
 -85.8491
 -85.8489
 -85.8663
 -85.8658
 -85.8665
 -85.8662
 -85.8418
 -85.8434
 -85.8321
 -85.8325
 -85.8327
 -85.8327
 -85.8347
 -85.8347
 -85.8354
 -85.8357
 -85.8617
 -85.8616
 -85.8606
 -85.8609
 -85.8591
 -85.8587
 -85.8594
 -85.8594
 -85.8576
 -85.8563
 -85.8575
 -85.857
 -85.8356
 -85.8369
 -85.8363
 -85.8356
 -85.8166
 -85.8158
 -85.8163
 -85.8165
 -85.8676
 -85.8683
 -85.8676
 -85.8679
 -85.829
 -85.8292
 -85.8294
 -85.83
 -85.8469
 -85.8476
 -85.8481
 -85.847
 -85.837
 -85.8388
 -85.8376
 -85.8382
 -85.8467
 -85.8455
 -85.8465
 -85.8516
 -85.8527
 -85.8515
 -85.8528
 -85.8443
 -85.8451
 -85.8445
 -85.8438
 -85.8554
 -85.8557
 -85.8565
 -85.8551
 -85.8552
 -85.855
 -85.8554
 -85.8539
 -85.8074
 -85.8094
 -85.8076
 -85.8236
 -85.8249
 -85.8253
 -85.8248
 -85.8466
 -85.8458
 -85.8461
 -85.846
 -85.861
 -85.8617
 -85.8612
 -85.862
 -85.8325
 -85.8311
 -85.8324
 -85.834
 -85.8346
 -85.8346
 -85.8503
 -85.8498
 -85.8506
 -85.8506
 -85.8463
 -85.8471
 -85.8475
 -85.8476
 -85.8718
 -85.8717
 -85.8715
 -85.8719
 -85.8208
 -85.8211
 -85.8204
 -85.8189
 -85.8569
 -85.8574
 -85.8386
 -85.8399
 -85.8398
 -85.8389
 -85.8545
 -85.8551
 -85.855
 -85.8553
 -85.8488
 -85.8491
 -85.8498
 -85.8492
 -85.8402
 -85.84
 -85.8411
 -85.8393
 -85.8534
 -85.8543
 -85.8539
 -85.8542
 -85.8305
 -85.8309
 -85.8309
 -85.8316
 -85.8268
 -85.826
 -85.8269
 -85.8265
 -85.8598
 -85.8602
 -85.8611
 -85.8621
 -85.8463
 -85.8469
 -85.8477
 -85.814
 -85.8136
 -85.8144
 -85.8621
 -85.8627
 -85.8629
 -85.8631
 -85.8637
 -85.8633
 -85.8629
 -85.8628
 -85.8443
 -85.8446
 -85.845
 -85.8454
 -85.8652
 -85.8657
 -85.8656
 -85.8656
 -85.8661
 -85.867
 -85.8663
 -85.8672
 -85.8401
 -85.8406
 -85.8415
 -85.8404
 -85.8584
 -85.8588
 -85.8593
 -85.8592
 -85.8714
 -85.8715
 -85.8711
 -85.8718
 -85.8582
 -85.8581
 -85.8576
 -85.8589
 -85.8473
 -85.846
 -85.8465
 -85.8454
 -85.8614
 -85.8617
 -85.861
 -85.8608
 -85.8552
 -85.8549
 -85.8557
 -85.8505
 -85.8514
 -85.8176
 -85.818
 -85.8173
 -85.817
 -85.8499
 -85.851
 -85.8506
 -85.8506
 -85.8184
 -85.8187
 -85.8189
 -85.819
 -85.8183
 -85.818
 -85.8195
 -85.8196
 -85.848
 -85.8487
 -85.8487
 -85.8478
 -85.8384
 -85.8385
 -85.8376
 -85.8388
 -85.8518
 -85.8529
 -85.8526
 -85.8525
 -85.8455
 -85.8447
 -85.8253
 -85.8248
 -85.8251
 -85.8259
 -85.8675
 -85.8679
 -85.8682
 -85.8678
 -85.8389
 -85.8382
 -85.84
 -85.8392
 -85.8613
 -85.8609
 -85.8603
 -85.8609
 -85.8255
 -85.8245
 -85.8254
 -85.8249
 -85.864
 -85.865
 -85.8648
 -85.8649
 -85.8501
 -85.849
 -85.85
 -85.85
 -85.833
 -85.8318
 -85.8309
 -85.8316
 -85.8712
 -85.871
 -85.871
 -85.8707
 -85.8361
 -85.8372
 -85.8363
 -85.8362
 -85.8401
 -85.8386
 -85.8396
 -85.8388
 -85.8682
 -85.8683
 -85.8677
 -85.8685
 -85.8443
 -85.8427
 -85.8433
 -85.8433
 -85.8619
 -85.8626
 -85.8621
 -85.8618
 -85.861
 -85.8603
 -85.8605
 -85.841
 -85.8393
 -85.8399
 -85.8399
 -85.861
 -85.8618
 -85.8612
 -85.8615
 -85.8298
 -85.8307
 -85.8306
 -85.8297
 -85.8635
 -85.864
 -85.8639
 -85.8636
 -85.863
 -85.8627
 -85.8632
 -85.8628
 -85.8311
 -85.8308
 -85.8326
 -85.8317
 -85.8323
 -85.8321
 -85.833
 -85.8316
 -85.7959
 -85.7961
 -85.7953
 -85.7956
 -85.8574
 -85.8563
 -85.8564
 -85.8187
 -85.8201
 -85.8204
 -85.8195
 -85.8666
 -85.8659
 -85.8661
 -85.8662
 -85.8304
 -85.8617
 -85.8608
 -85.8609
 -85.8616
 -85.8618
 -85.8609
 -85.8611
 -85.805
 -85.8038
 -85.8043
 -85.8048
 -85.8027
 -85.803
 -85.8026
 -85.8022
 -85.866
 -85.8652
 -85.8658
 -85.8663
 -85.8323
 -85.8319
 -85.8327
 -85.8317
 -85.8548
 -85.8545
 -85.8554
 -85.8369
 -85.836
 -85.8369
 -85.8356
 -85.8411
 -85.8411
 -85.841
 -85.8613
 -85.8611
 -85.8623
 -85.8498
 -85.8507
 -85.8507
 -85.8499
 -85.8374
 -85.8362
 -85.8363
 -85.8371
 -85.8316
 -85.832
 -85.8314
 -85.8319
 -85.8549
 -85.8555
 -85.8557
 -85.8241
 -85.8249
 -85.8231
 -85.823
 -85.8315
 -85.8334
 -85.8319
 -85.8398
 -85.8417
 -85.8411
 -85.8406
 -85.829
 -85.83
 -85.8301
 -85.8297
 -85.8317
 -85.8329
 -85.8332
 -85.8328
 -85.8619
 -85.8612
 -85.8614
 -85.8613
 -85.8424
 -85.8415
 -85.842
 -85.8427
 -85.8346
 -85.8347
 -85.847
 -85.8464
 -85.8467
 -85.8457
 -85.8645
 -85.8669
 -85.8672
 -85.8671
 -85.8669
 -85.7943
 -85.794
 -85.7939
 -85.7943
 -85.8596
 -85.8607
 -85.86
 -85.8695
 -85.8693
 -85.8691
 -85.8694
 -85.8577
 -85.8565
 -85.857
 -85.8566
 -85.8311
 -85.8314
 -85.832
 -85.8311
 -85.8415
 -85.8407
 -85.8404
 -85.8402
 -85.87
 -85.87
 -85.8698
 -85.8697
 -85.8574
 -85.8566
 -85.8561
 -85.8568
 -85.8235
 -85.8226
 -85.8224
 -85.8241
 -85.84
 -85.84
 -85.8403
 -85.8385
 -85.8388
 -85.8394
 -85.8399
 -85.8389
 -85.7942
 -85.794
 -85.794
 -85.7943
 -85.8297
 -85.8295
 -85.8293
 -85.83
 -85.8577
 -85.8589
 -85.8579
 -85.8584
 -85.8504
 -85.8504
 -85.8515
 -85.8501
 -85.8427
 -85.8433
 -85.8443
 -85.8433
 -85.8559
 -85.857
 -85.8565
 -85.8566
 -85.8506
 -85.8508
 -85.8517
 -85.8506
 -85.8563
 -85.8561
 -85.8556
 -85.8572
 -85.8712
 -85.8704
 -85.8706
 -85.8714
 -85.8593
 -85.8587
 -85.8585
 -85.8572
 -85.8552
 -85.8545
 -85.854
 -85.8551
 -85.8541
 -85.847
 -85.8469
 -85.8462
 -85.848
 -85.8672
 -85.8669
 -85.8668
 -85.8667
 -85.8425
 -85.8417
 -85.8427
 -85.8423
 -85.8499
 -85.8503
 -85.8508
 -85.8492
 -85.8453
 -85.844
 -85.8449
 -85.8458
 -85.8372
 -85.8355
 -85.8368
 -85.8358
 -85.8112
 -85.8118
 -85.8134
 -85.8113
 -85.8718
 -85.871
 -85.8534
 -85.8527
 -85.8527
 -85.7984
 -85.7984
 -85.7985
 -85.8335
 -85.8326
 -85.8331
 -85.8322
 -85.8179
 -85.8183
 -85.8164
 -85.8162
 -85.8276
 -85.827
 -85.8279
 -85.8262
 -85.8671
 -85.8658
 -85.8664
 -85.8664
 -85.8475
 -85.8463
 -85.8467
 -85.8462
 -85.8545
 -85.8557
 -85.8555
 -85.8564
 -85.8506
 -85.8506
 -85.8496
 -85.8492
 -85.8566
 -85.857
 -85.8562
 -85.8564
 -85.8436
 -85.8435
 -85.8615
 -85.8595
 -85.8615
 -85.8598
 -85.8567
 -85.856
 -85.8556
 -85.8572
 -85.8331
 -85.8319
 -85.8333
 -85.8321
 -85.8334
 -85.8337
 -85.8337
 -85.8338
 -85.8493
 -85.8494
 -85.849
 -85.8498
 -85.8476
 -85.8481
 -85.8488
 -85.8495
 -85.8279
 -85.8264
 -85.8262
 -85.828
 -85.8556
 -85.855
 -85.8547
 -85.8544
 -85.8705
 -85.8701
 -85.8704
 -85.8702
 -85.8627
 -85.8622
 -85.8623
 -85.862
 -85.8713
 -85.8716
 -85.8711
 -85.8717
 -85.864
 -85.8647
 -85.8645
 -85.8646
 -85.8465
 -85.8479
 -85.8466
 -85.8469
 -85.8553
 -85.8545
 -85.8443
 -85.8455
 -85.8439
 -85.8448
 -85.8332
 -85.834
 -85.8341
 -85.8344
 -85.8591
 -85.8601
 -85.8601
 -85.8593
 -85.8438
 -85.8434
 -85.8439
 -85.8427
 -85.8402
 -85.8394
 -85.8391
 -85.8396
 -85.8312
 -85.8313
 -85.8319
 -85.8325
 -85.8348
 -85.8345
 -85.8341
 -85.8357
 -85.8312
 -85.8318
 -85.8322
 -85.8315
 -85.8132
 -85.8135
 -85.8127
 -85.8129
 -85.858
 -85.8584
 -85.8573
 -85.8581
 -85.8539
 -85.8542
 -85.815
 -85.8158
 -85.8156
 -85.8142
 -85.8366
 -85.8369
 -85.8528
 -85.8521
 -85.8528
 -85.8627
 -85.8627
 -85.8295
 -85.8295
 -85.829
 -85.83
 -85.8148
 -85.8156
 -85.8156
 -85.8158
 -85.827
 -85.8275
 -85.8282
 -85.8285
 -85.8363
 -85.8369
 -85.8373
 -85.8376
 -85.8509
 -85.8497
 -85.8496
 -85.8498
 -85.8539
 -85.8535
 -85.8534
 -85.8532
 -85.8359
 -85.8371
 -85.8371
 -85.8368
 -85.85
 -85.8499
 -85.8503
 -85.8488
 -85.8458
 -85.845
 -85.8448
 -85.8454
 -85.8476
 -85.8484
 -85.849
 -85.8484
 -85.8483
 -85.847
 -85.8485
 -85.8441
 -85.8434
 -85.845
 -85.8443
 -85.8381
 -85.8386
 -85.8374
 -85.8378
 -85.8322
 -85.8331
 -85.8317
 -85.8329
 -85.8668
 -85.8667
 -85.8671
 -85.8675
 -85.8421
 -85.8421
 -85.8432
 -85.8432
 -85.8265
 -85.8264
 -85.8251
 -85.8261
 -85.8236
 -85.8235
 -85.8233
 -85.823
 -85.8283
 -85.8277
 -85.8277
 -85.828
 -85.831
 -85.831
 -85.8322
 -85.8324
 -85.832
 -85.8314
 -85.8311
 -85.8316
 -85.8659
 -85.8663
 -85.8663
 -85.8664
 -85.8406
 -85.8406
 -85.8404
 -85.8414
 -85.8574
 -85.8578
 -85.8572
 -85.8568
 -85.8321
 -85.8333
 -85.8317
 -85.8328
 -85.8676
 -85.868
 -85.8679
 -85.8685
 -85.8687
 -85.8686
 -85.8691
 -85.856
 -85.854
 -85.8547
 -85.8548
 -85.8344
 -85.8348
 -85.8337
 -85.8345
 -85.8703
 -85.8695
 -85.8697
 -85.8396
 -85.8386
 -85.8392
 -85.8377
 -85.8639
 -85.864
 -85.8625
 -85.8628
 -85.8636
 -85.8626
 -85.8377
 -85.8369
 -85.8373
 -85.824
 -85.8244
 -85.8231
 -85.8236
 -85.8316
 -85.8308
 -85.8319
 -85.832
 -85.8458
 -85.847
 -85.8456
 -85.8677
 -85.8664
 -85.8666
 -85.8564
 -85.8555
 -85.855
 -85.8557
 -85.868
 -85.868
 -85.867
 -85.8688
 -85.8409
 -85.8421
 -85.8426
 -85.8417
 -85.8637
 -85.8639
 -85.8643
 -85.863
 -85.8463
 -85.8465
 -85.8457
 -85.8454
 -85.8351
 -85.8341
 -85.8347
 -85.8696
 -85.869
 -85.8693
 -85.8702
 -85.8541
 -85.8503
 -85.8515
 -85.8512
 -85.8506
 -85.8514
 -85.8514
 -85.8507
 -85.8343
 -85.8337
 -85.8337
 -85.8336
 -85.8336
 -85.8348
 -85.8418
 -85.8406
 -85.8404
 -85.8401
 -85.8403
 -85.8416
 -85.8406
 -85.8413
 -85.8558
 -85.8705
 -85.8696
 -85.8694
 -85.87
 -85.8075
 -85.8062
 -85.8072
 -85.8072
 -85.8372
 -85.8363
 -85.8344
 -85.834
 -85.8345
 -85.8348
 -85.8336
 -85.8337
 -85.8324
 -85.8329
 -85.8572
 -85.8561
 -85.8564
 -85.8569
 -85.8582
 -85.8588
 -85.8576
 -85.8583
 -85.835
 -85.8341
 -85.8547
 -85.8546
 -85.8559
 -85.8551
 -85.8558
 -85.8567
 -85.8558
 -85.8488
 -85.8482
 -85.8476
 -85.8472
 -85.8424
 -85.8414
 -85.8422
 -85.8413
 -85.8575
 -85.8588
 -85.8586
 -85.8578
 -85.8607
 -85.8611
 -85.8616
 -85.8609
 -85.8588
 -85.8598
 -85.859
 -85.8581
 -85.8585
 -85.8583
 -85.8574
 -85.8416
 -85.8419
 -85.8419
 -85.8412
 -85.8204
 -85.8204
 -85.8211
 -85.8211
 -85.8386
 -85.8383
 -85.8379
 -85.8381
 -85.8605
 -85.8596
 -85.8591
 -85.86
 -85.8543
 -85.8541
 -85.8539
 -85.855
 -85.8383
 -85.839
 -85.8394
 -85.8395
 -85.8544
 -85.8534
 -85.854
 -85.8543
 -85.8483
 -85.8487
 -85.8469
 -85.8485
 -85.8488
 -85.8499
 -85.8495
 -85.8497
 -85.8542
 -85.8547
 -85.8547
 -85.8668
 -85.8669
 -85.8666
 -85.8667
 -85.8381
 -85.8392
 -85.8386
 -85.8389
 -85.8448
 -85.8459
 -85.8457
 -85.8454
 -85.8205
 -85.8197
 -85.8198
 -85.8209
 -85.831
 -85.8317
 -85.8317
 -85.831
 -85.8325
 -85.8307
 -85.8315
 -85.8306
 -85.8309
 -85.8313
 -85.8312
 -85.8316
 -85.8479
 -85.8472
 -85.8475
 -85.8272
 -85.8271
 -85.8276
 -85.8277
 -85.8289
 -85.8293
 -85.8302
 -85.8288
 -85.8696
 -85.869
 -85.8689
 -85.8693
 -85.8486
 -85.848
 -85.8478
 -85.8473
 -85.8614
 -85.8615
 -85.8611
 -85.8605
 -85.8506
 -85.8511
 -85.8504
 -85.8497
 -85.8539
 -85.8547
 -85.854
 -85.8542
 -85.8338
 -85.8328
 -85.8334
 -85.832
 -85.8447
 -85.8468
 -85.8453
 -85.8455
 -85.861
 -85.8615
 -85.8607
 -85.861
 -85.8516
 -85.8512
 -85.8525
 -85.8521
 -85.8294
 -85.829
 -85.8304
 -85.8306
 -85.8667
 -85.867
 -85.8668
 -85.8671
 -85.8388
 -85.8378
 -85.8287
 -85.8451
 -85.8456
 -85.8462
 -85.8448
 -85.8422
 -85.843
 -85.8418
 -85.8418
 -85.8165
 -85.8163
 -85.8177
 -85.8371
 -85.8362
 -85.8359
 -85.8353
 -85.8508
 -85.8525
 -85.8518
 -85.8527
 -85.846
 -85.8469
 -85.8464
 -85.846
 -85.865
 -85.8654
 -85.8655
 -85.8652
 -85.8318
 -85.8333
 -85.8322
 -85.8331
 -85.833
 -85.8328
 -85.8342
 -85.8177
 -85.816
 -85.8168
 -85.8177
 -85.8312
 -85.8324
 -85.8317
 -85.8499
 -85.8521
 -85.8502
 -85.8309
 -85.8308
 -85.83
 -85.8304
 -85.8422
 -85.8433
 -85.8435
 -85.8433
 -85.7944
 -85.7944
 -85.7943
 -85.795
 -85.8412
 -85.8408
 -85.841
 -85.8263
 -85.8261
 -85.8263
 -85.8264
 -85.841
 -85.8405
 -85.8394
 -85.8404
 -85.8302
 -85.831
 -85.831
 -85.8314
 -85.8549
 -85.8552
 -85.8546
 -85.8555
 -85.8576
 -85.8569
 -85.8577
 -85.858
 -85.8686
 -85.8687
 -85.8689
 -85.8683
 -85.8492
 -85.8478
 -85.849
 -85.8494
 -85.8297
 -85.8288
 -85.8296
 -85.8291
 -85.8343
 -85.8338
 -85.8224
 -85.8224
 -85.823
 -85.8229
 -85.8434
 -85.8439
 -85.8371
 -85.8387
 -85.8384
 -85.8331
 -85.8337
 -85.8342
 -85.8335
 -85.8665
 -85.8666
 -85.8655
 -85.8657
 -85.8657
 -85.8654
 -85.865
 -85.8654
 -85.8338
 -85.8342
 -85.8336
 -85.8326
 -85.8272
 -85.8274
 -85.8509
 -85.8511
 -85.8508
 -85.8518
 -85.8327
 -85.8322
 -85.8332
 -85.8331
 -85.8387
 -85.8373
 -85.8397
 -85.8715
 -85.8717
 -85.8712
 -85.846
 -85.8473
 -85.8467
 -85.8468
 -85.8632
 -85.8641
 -85.863
 -85.8626
 -85.8476
 -85.8486
 -85.8488
 -85.8476
 -85.8572
 -85.8581
 -85.8582
 -85.8568
 -85.8295
 -85.8303
 -85.8296
 -85.8292
 -85.8319
 -85.8333
 -85.8314
 -85.8328
 -85.8481
 -85.8471
 -85.8489
 -85.8476
 -85.8376
 -85.8389
 -85.8392
 -85.8375
 -85.8288
 -85.8291
 -85.8296
 -85.8305
 -85.8423
 -85.8429
 -85.8436
 -85.8441
 -85.8531
 -85.8534
 -85.8527
 -85.8474
 -85.8484
 -85.8478
 -85.8484
 -85.8002
 -85.8015
 -85.802
 -85.8012
 -85.8274
 -85.8274
 -85.8276
 -85.8275
 -85.837
 -85.8368
 -85.837
 -85.838
 -85.8141
 -85.815
 -85.8134
 -85.8145
 -85.863
 -85.8628
 -85.8622
 -85.8692
 -85.8688
 -85.8684
 -85.8687
 -85.8588
 -85.8604
 -85.8596
 -85.8597
 -85.8471
 -85.8531
 -85.8543
 -85.8547
 -85.8539
 -85.8449
 -85.8457
 -85.8443
 -85.8443
 -85.8265
 -85.8252
 -85.8259
 -85.8328
 -85.8332
 -85.8335
 -85.8319
 -85.801
 -85.7997
 -85.8009
 -85.7991
 -85.8167
 -85.8167
 -85.8173
 -85.8166
 -85.8362
 -85.8362
 -85.8369
 -85.8376
 -85.87
 -85.8692
 -85.8694
 -85.8692
 -85.8041
 -85.804
 -85.8053
 -85.8047
 -85.8561
 -85.8569
 -85.8555
 -85.8563
 -85.8475
 -85.8476
 -85.8486
 -85.8476
 -85.8339
 -85.832
 -85.8319
 -85.8433
 -85.8421
 -85.8418
 -85.8418
 -85.8693
 -85.8694
 -85.8697
 -85.8274
 -85.8292
 -85.8295
 -85.8417
 -85.8424
 -85.8435
 -85.8433
 -85.8366
 -85.8363
 -85.8361
 -85.8357
 -85.8378
 -85.8377
 -85.8388
 -85.8391
 -85.8261
 -85.8254
 -85.8254
 -85.8267
 -85.8434
 -85.8442
 -85.843
 -85.8444
 -85.8667
 -85.8654
 -85.8655
 -85.8649
 -85.8648
 -85.8646
 -85.8642
 -85.8651
 -85.8242
 -85.8243
 -85.8246
 -85.8241
 -85.8622
 -85.8624
 -85.8624
 -85.8614
 -85.8658
 -85.8668
 -85.8664
 -85.8655
 -85.8618
 -85.8618
 -85.8607
 -85.8609
 -85.8533
 -85.853
 -85.8538
 -85.8534
 -85.8456
 -85.8448
 -85.8461
 -85.8363
 -85.8347
 -85.8353
 -85.8355
 -85.8581
 -85.8575
 -85.8567
 -85.8578
 -85.8593
 -85.8595
 -85.8601
 -85.8598
 -85.8719
 -85.8718
 -85.8712
 -85.8715
 -85.8169
 -85.8177
 -85.8174
 -85.8176
 -85.8229
 -85.8224
 -85.8226
 -85.8231
 -85.8263
 -85.8261
 -85.8276
 -85.8261
 -85.837
 -85.8356
 -85.8366
 -85.8365
 -85.839
 -85.8392
 -85.8391
 -85.8664
 -85.867
 -85.8677
 -85.8673
 -85.8603
 -85.86
 -85.8595
 -85.8594
 -85.8443
 -85.8435
 -85.8432
 -85.8439
 -85.8652
 -85.8659
 -85.8506
 -85.8507
 -85.8507
 -85.8497
 -85.8649
 -85.8653
 -85.8661
 -85.8653
 -85.8487
 -85.85
 -85.8484
 -85.8502
 -85.8359
 -85.8368
 -85.8351
 -85.8359
 -85.8219
 -85.821
 -85.8218
 -85.8228
 -85.7996
 -85.8008
 -85.799
 -85.8002
 -85.8635
 -85.863
 -85.8629
 -85.8636
 -85.865
 -85.8651
 -85.8653
 -85.8658
 -85.8409
 -85.8395
 -85.8405
 -85.8398
 -85.8469
 -85.8463
 -85.8461
 -85.847
 -85.832
 -85.8311
 -85.8327
 -85.8513
 -85.8506
 -85.8507
 -85.8501
 -85.8323
 -85.8321
 -85.8327
 -85.8328
 -85.8452
 -85.844
 -85.8432
 -85.8439
 -85.8539
 -85.8533
 -85.8537
 -85.854
 -85.8477
 -85.8473
 -85.8469
 -85.8622
 -85.8612
 -85.8616
 -85.8616
 -85.8522
 -85.8535
 -85.8126
 -85.8142
 -85.8122
 -85.8131
 -85.8582
 -85.8576
 -85.8581
 -85.8338
 -85.8341
 -85.8342
 -85.8337
 -85.8522
 -85.8522
 -85.8518
 -85.8449
 -85.8438
 -85.8451
 -85.8443
 -85.8516
 -85.8503
 -85.8521
 -85.8511
 -85.8521
 -85.8534
 -85.8064
 -85.8063
 -85.8056
 -85.8062
 -85.8012
 -85.8
 -85.7993
 -85.8005
 -85.846
 -85.8448
 -85.8452
 -85.8446
 -85.8512
 -85.8505
 -85.8511
 -85.8503
 -85.8067
 -85.8067
 -85.8068
 -85.8078
 -85.8335
 -85.8324
 -85.8251
 -85.8254
 -85.8257
 -85.8266
 -85.8527
 -85.8524
 -85.8538
 -85.8531
 -85.8504
 -85.8506
 -85.8516
 -85.85
 -85.8516
 -85.8505
 -85.8504
 -85.8505
 -85.8368
 -85.837
 -85.8377
 -85.8368
 -85.8294
 -85.8289
 -85.8279
 -85.8296
 -85.8183
 -85.8196
 -85.8194
 -85.8182
 -85.8303
 -85.8302
 -85.8303
 -85.8319
 -85.8582
 -85.8575
 -85.8585
 -85.8581
 -85.8461
 -85.8435
 -85.8449
 -85.8155
 -85.8163
 -85.8171
 -85.8547
 -85.8562
 -85.8555
 -85.8555
 -85.8556
 -85.854
 -85.8547
 -85.8552
 -85.841
 -85.8403
 -85.8399
 -85.8429
 -85.8433
 -85.8443
 -85.8433
 -85.8299
 -85.8294
 -85.8292
 -85.8292
 -85.8617
 -85.8614
 -85.8621
 -85.8618
 -85.8281
 -85.8279
 -85.8279
 -85.8283
 -85.8265
 -85.8259
 -85.8265
 -85.8687
 -85.8697
 -85.8701
 -85.8694
 -85.8612
 -85.8618
 -85.8351
 -85.8346
 -85.8356
 -85.8354
 -85.8452
 -85.8464
 -85.8453
 -85.8429
 -85.8425
 -85.8427
 -85.8416
 -85.8286
 -85.8296
 -85.8291
 -85.8609
 -85.8615
 -85.8604
 -85.8606
 -85.8283
 -85.8299
 -85.8288
 -85.8285
 -85.8565
 -85.8557
 -85.8551
 -85.8555
 -85.8285
 -85.8289
 -85.8298
 -85.8286
 -85.8294
 -85.829
 -85.834
 -85.8333
 -85.8336
 -85.834
 -85.8173
 -85.8167
 -85.8156
 -85.8166
 -85.8584
 -85.8594
 -85.8379
 -85.8386
 -85.8388
 -85.8387
 -85.8688
 -85.8685
 -85.8687
 -85.869
 -85.8364
 -85.8356
 -85.8368
 -85.8378
 -85.86
 -85.8609
 -85.8611
 -85.8611
 -85.8652
 -85.8661
 -85.8647
 -85.8658
 -85.8563
 -85.8551
 -85.8668
 -85.8674
 -85.8672
 -85.867
 -85.8289
 -85.8289
 -85.8285
 -85.8297
 -85.8669
 -85.8671
 -85.8672
 -85.8669
 -85.8695
 -85.8704
 -85.87
 -85.8696
 -85.8499
 -85.8499
 -85.8509
 -85.8506
 -85.8431
 -85.8426
 -85.8439
 -85.8445
 -85.8639
 -85.8629
 -85.8636
 -85.864
 -85.8141
 -85.8154
 -85.8144
 -85.8139
 -85.8634
 -85.8645
 -85.8376
 -85.8385
 -85.8385
 -85.8396
 -85.8635
 -85.863
 -85.8622
 -85.8623
 -85.8302
 -85.8311
 -85.831
 -85.8309
 -85.8392
 -85.8375
 -85.8381
 -85.839
 -85.8308
 -85.8304
 -85.832
 -85.8298
 -85.8293
 -85.8298
 -85.8289
 -85.8276
 -85.8284
 -85.8281
 -85.8285
 -85.8508
 -85.85
 -85.8497
 -85.8625
 -85.8625
 -85.8633
 -85.8633
 -85.8482
 -85.8476
 -85.8471
 -85.83
 -85.8293
 -85.8298
 -85.8451
 -85.8466
 -85.8453
 -85.8463
 -85.8523
 -85.8522
 -85.8523
 -85.8535
 -85.8418
 -85.843
 -85.8432
 -85.8428
 -85.8412
 -85.8407
 -85.8403
 -85.8389
 -85.8381
 -85.8379
 -85.8394
 -85.8402
 -85.8408
 -85.839
 -85.8629
 -85.8625
 -85.8629
 -85.8621
 -85.8547
 -85.854
 -85.8547
 -85.855
 -85.8434
 -85.8436
 -85.843
 -85.8447
 -85.8277
 -85.8268
 -85.8275
 -85.8486
 -85.8479
 -85.8485
 -85.8487
 -85.8345
 -85.833
 -85.8338
 -85.833
 -85.8093
 -85.8098
 -85.8091
 -85.8087
 -85.8395
 -85.8389
 -85.8393
 -85.8392
 -85.8638
 -85.8636
 -85.8645
 -85.8642
 -85.8385
 -85.8396
 -85.8389
 -85.8382
 -85.8285
 -85.8285
 -85.8288
 -85.8292
 -85.8294
 -85.8288
 -85.829
 -85.8426
 -85.8428
 -85.8424
 -85.853
 -85.838
 -85.8362
 -85.8374
 -85.8373
 -85.8653
 -85.8653
 -85.8657
 -85.864
 -85.8642
 -85.8646
 -85.8377
 -85.8388
 -85.838
 -85.8387
 -85.8693
 -85.8696
 -85.8699
 -85.8699
 -85.8305
 -85.8502
 -85.8491
 -85.8498
 -85.8496
 -85.8302
 -85.8305
 -85.8304
 -85.8307
 -85.8649
 -85.8655
 -85.8644
 -85.865
 -85.8537
 -85.8552
 -85.8547
 -85.854
 -85.8592
 -85.8598
 -85.8585
 -85.8589
 -85.8276
 -85.828
 -85.8283
 -85.8276
 -85.8355
 -85.8364
 -85.8354
 -85.8356
 -85.8486
 -85.8478
 -85.8487
 -85.8476
 -85.8361
 -85.8349
 -85.8366
 -85.8353
 -85.853
 -85.8535
 -85.8545
 -85.8542
 -85.8309
 -85.8305
 -85.8316
 -85.8315
 -85.8346
 -85.8349
 -85.8359
 -85.8355
 -85.8503
 -85.8504
 -85.8504
 -85.8514
 -85.865
 -85.8659
 -85.8653
 -85.866
 -85.8253
 -85.8258
 -85.8266
 -85.8264
 -85.8176
 -85.8159
 -85.8176
 -85.8174
 -85.8658
 -85.8666
 -85.8662
 -85.8662
 -85.8193
 -85.8183
 -85.8192
 -85.8185
 -85.8182
 -85.8193
 -85.8455
 -85.8459
 -85.845
 -85.8445
 -85.8352
 -85.8359
 -85.8359
 -85.8349
 -85.8718
 -85.8718
 -85.8719
 -85.8715
 -85.8649
 -85.8647
 -85.8657
 -85.8534
 -85.8533
 -85.8542
 -85.853
 -85.8295
 -85.8298
 -85.8288
 -85.8301
 -85.8345
 -85.8343
 -85.834
 -85.8337
 -85.8344
 -85.835
 -85.8537
 -85.8554
 -85.8549
 -85.8542
 -85.8519
 -85.8518
 -85.8508
 -85.8521
 -85.855
 -85.8548
 -85.8539
 -85.8549
 -85.8692
 -85.8692
 -85.8681
 -85.8695
 -85.8572
 -85.8571
 -85.8562
 -85.8395
 -85.8472
 -85.8468
 -85.8471
 -85.8463
 -85.8479
 -85.8466
 -85.847
 -85.8476
 -85.8619
 -85.8616
 -85.8615
 -85.861
 -85.8573
 -85.8567
 -85.8568
 -85.8576
 -85.8513
 -85.8504
 -85.8503
 -85.837
 -85.836
 -85.8372
 -85.8355
 -85.8468
 -85.8485
 -85.8476
 -85.8476
 -85.839
 -85.8398
 -85.8385
 -85.8041
 -85.804
 -85.8032
 -85.8046
 -85.8623
 -85.8637
 -85.863
 -85.8621
 -85.8608
 -85.8623
 -85.8615
 -85.8056
 -85.8484
 -85.8485
 -85.8483
 -85.8495
 -85.851
 -85.8512
 -85.8221
 -85.8222
 -85.822
 -85.8225
 -85.8265
 -85.8269
 -85.8282
 -85.8266
 -85.8325
 -85.8331
 -85.8328
 -85.833
 -85.8319
 -85.8325
 -85.8328
 -85.8318
 -85.8317
 -85.8324
 -85.8393
 -85.8383
 -85.8379
 -85.838
 -85.8405
 -85.8416
 -85.872
 -85.8718
 -85.8288
 -85.8306
 -85.8288
 -85.8298
 -85.843
 -85.8427
 -85.8435
 -85.8421
 -85.8246
 -85.825
 -85.8232
 -85.8236
 -85.8633
 -85.8638
 -85.8625
 -85.8631
 -85.8603
 -85.8595
 -85.8603
 -85.8595
 -85.8531
 -85.8539
 -85.854
 -85.8534
 -85.8487
 -85.849
 -85.8505
 -85.85
 -85.8458
 -85.8454
 -85.8289
 -85.8563
 -85.8572
 -85.8572
 -85.8573
 -85.8681
 -85.8679
 -85.8689
 -85.8677
 -85.8613
 -85.8623
 -85.861
 -85.8615
 -85.7945
 -85.7944
 -85.7947
 -85.795
 -85.8684
 -85.8686
 -85.8683
 -85.8683
 -85.8328
 -85.8329
 -85.8319
 -85.8333
 -85.8373
 -85.8361
 -85.8366
 -85.8356
 -85.8553
 -85.8554
 -85.856
 -85.8562
 -85.8558
 -85.8554
 -85.855
 -85.8552
 -85.8297
 -85.831
 -85.8303
 -85.8307
 -85.8679
 -85.8682
 -85.8678
 -85.868
 -85.8637
 -85.8641
 -85.8639
 -85.8644
 -85.8562
 -85.8564
 -85.8571
 -85.8572
 -85.8641
 -85.8633
 -85.8638
 -85.864
 -85.8346
 -85.8357
 -85.8358
 -85.8361
 -85.8297
 -85.8299
 -85.8302
 -85.8304
 -85.8626
 -85.862
 -85.8617
 -85.8618
 -85.8418
 -85.8415
 -85.8413
 -85.8403
 -85.8431
 -85.8426
 -85.8423
 -85.843
 -85.8015
 -85.8024
 -85.8027
 -85.8025
 -85.8679
 -85.8681
 -85.8648
 -85.8649
 -85.8643
 -85.8653
 -85.8245
 -85.8236
 -85.8233
 -85.8246
 -85.8358
 -85.8343
 -85.8342
 -85.8338
 -85.8639
 -85.8633
 -85.8644
 -85.8645
 -85.8406
 -85.8409
 -85.8404
 -85.8416
 -85.8383
 -85.8386
 -85.8374
 -85.8375
 -85.8688
 -85.869
 -85.8687
 -85.8686
 -85.848
 -85.8477
 -85.848
 -85.8484
 -85.8454
 -85.8457
 -85.8455
 -85.8447
 -85.8595
 -85.8598
 -85.8601
 -85.8595
 -85.8537
 -85.8533
 -85.853
 -85.8523
 -85.8408
 -85.8408
 -85.8395
 -85.836
 -85.8369
 -85.8363
 -85.838
 -85.8203
 -85.8196
 -85.8196
 -85.8213
 -85.8373
 -85.8379
 -85.8381
 -85.8384
 -85.847
 -85.8464
 -85.8468
 -85.8461
 -85.8684
 -85.8686
 -85.8685
 -85.8676
 -85.838
 -85.8398
 -85.8388
 -85.8386
 -85.8246
 -85.8245
 -85.8236
 -85.8229
 -85.8555
 -85.8566
 -85.8561
 -85.8554
 -85.8516
 -85.8513
 -85.8508
 -85.8469
 -85.8483
 -85.8486
 -85.8489
 -85.8187
 -85.8185
 -85.8186
 -85.8196
 -85.8487
 -85.8479
 -85.8481
 -85.8476
 -85.8674
 -85.8674
 -85.8675
 -85.8675
 -85.8476
 -85.8475
 -85.8479
 -85.8481
 -85.827
 -85.8264
 -85.8269
 -85.8272
 -85.8311
 -85.8318
 -85.831
 -85.8302
 -85.872
 -85.8719
 -85.8721
 -85.872
 -85.8344
 -85.8347
 -85.8345
 -85.833
 -85.8513
 -85.8499
 -85.8503
 -85.8508
 -85.8717
 -85.8719
 -85.8716
 -85.8714
 -85.8653
 -85.8663
 -85.8657
 -85.8559
 -85.8557
 -85.8569
 -85.8573
 -85.8628
 -85.863
 -85.864
 -85.8625
 -85.8094
 -85.8103
 -85.8111
 -85.8108
 -85.8309
 -85.8322
 -85.8303
 -85.8669
 -85.8676
 -85.8675
 -85.8676
 -85.8508
 -85.8504
 -85.8515
 -85.8501
 -85.8589
 -85.8587
 -85.8598
 -85.858
 -85.826
 -85.8258
 -85.8249
 -85.8245
 -85.8402
 -85.8417
 -85.8401
 -85.8411
 -85.8531
 -85.8515
 -85.8521
 -85.8232
 -85.8235
 -85.824
 -85.824
 -85.8306
 -85.8283
 -85.8288
 -85.8284
 -85.8388
 -85.8672
 -85.8677
 -85.8673
 -85.8679
 -85.8112
 -85.8111
 -85.8101
 -85.8102
 -85.8591
 -85.8607
 -85.86
 -85.8609
 -85.852
 -85.8513
 -85.8515
 -85.8504
 -85.8043
 -85.8614
 -85.8607
 -85.8618
 -85.8669
 -85.8678
 -85.8672
 -85.8673
 -85.8436
 -85.8435
 -85.8453
 -85.8441
 -85.8545
 -85.8545
 -85.8552
 -85.854
 -85.8326
 -85.8317
 -85.8457
 -85.8452
 -85.845
 -85.8461
 -85.8324
 -85.8317
 -85.8311
 -85.832
 -85.8362
 -85.8358
 -85.8373
 -85.8374
 -85.8563
 -85.8556
 -85.8563
 -85.8565
 -85.815
 -85.8148
 -85.8148
 -85.8162
 -85.8298
 -85.8293
 -85.8297
 -85.829
 -85.8175
 -85.8183
 -85.8264
 -85.8265
 -85.8266
 -85.8265
 -85.8247
 -85.824
 -85.8251
 -85.8242
 -85.8686
 -85.8682
 -85.8677
 -85.8676
 -85.85
 -85.85
 -85.8495
 -85.8511
 -85.8398
 -85.8414
 -85.8406
 -85.8405
 -85.8469
 -85.8465
 -85.8462
 -85.8472
 -85.8679
 -85.8678
 -85.8229
 -85.8224
 -85.8225
 -85.8229
 -85.8677
 -85.868
 -85.8673
 -85.8128
 -85.8126
 -85.8127
 -85.8122
 -85.866
 -85.8649
 -85.8657
 -85.8652
 -85.8368
 -85.8361
 -85.8371
 -85.8359
 -85.8429
 -85.8429
 -85.8425
 -85.8671
 -85.8666
 -85.8669
 -85.8672
 -85.8498
 -85.8487
 -85.8498
 -85.8491
 -85.8431
 -85.8438
 -85.8445
 -85.8436
 -85.8372
 -85.8366
 -85.8402
 -85.8381
 -85.8395
 -85.8389
 -85.8518
 -85.8506
 -85.8513
 -85.8687
 -85.8678
 -85.8676
 -85.8685
 -85.8425
 -85.8432
 -85.8424
 -85.8428
 -85.8404
 -85.8397
 -85.8354
 -85.8343
 -85.8339
 -85.835
 -85.8154
 -85.8156
 -85.8168
 -85.8498
 -85.8501
 -85.8487
 -85.8487
 -85.8682
 -85.8683
 -85.8683
 -85.8173
 -85.8169
 -85.8174
 -85.842
 -85.8412
 -85.8417
 -85.8407
 -85.8542
 -85.8544
 -85.8532
 -85.8536
 -85.8098
 -85.8092
 -85.8096
 -85.8099
 -85.8633
 -85.8635
 -85.863
 -85.8629
 -85.8551
 -85.8545
 -85.8545
 -85.8541
 -85.8611
 -85.8613
 -85.8608
 -85.8667
 -85.8669
 -85.8678
 -85.8672
 -85.8465
 -85.8452
 -85.8464
 -85.8466
 -85.8667
 -85.8664
 -85.8662
 -85.866
 -85.8372
 -85.837
 -85.8377
 -85.8365
 -85.8684
 -85.853
 -85.8451
 -85.8448
 -85.8457
 -85.8445
 -85.8517
 -85.8514
 -85.8507
 -85.8504
 -85.8576
 -85.8578
 -85.8571
 -85.8565
 -85.8523
 -85.852
 -85.8531
 -85.8525
 -85.8586
 -85.858
 -85.8588
 -85.8587
 -85.8451
 -85.8445
 -85.8447
 -85.8457
 -85.8433
 -85.8435
 -85.8438
 -85.8443
 -85.8401
 -85.8398
 -85.8395
 -85.8407
 -85.8438
 -85.8438
 -85.8428
 -85.8285
 -85.8287
 -85.8285
 -85.8292
 -85.8464
 -85.8539
 -85.8551
 -85.8552
 -85.8548
 -85.8675
 -85.8675
 -85.8665
 -85.8354
 -85.8338
 -85.8344
 -85.8339
 -85.8476
 -85.8489
 -85.8485
 -85.8521
 -85.8517
 -85.8513
 -85.8509
 -85.8544
 -85.855
 -85.8558
 -85.8561
 -85.8646
 -85.865
 -85.8656
 -85.8649
 -85.832
 -85.8319
 -85.8325
 -85.831
 -85.8477
 -85.847
 -85.8469
 -85.8463
 -85.8441
 -85.8436
 -85.8428
 -85.8441
 -85.8431
 -85.8426
 -85.8423
 -85.8416
 -85.8456
 -85.8453
 -85.8459
 -85.8447
 -85.8573
 -85.8558
 -85.8576
 -85.8565
 -85.843
 -85.8415
 -85.8421
 -85.8424
 -85.8226
 -85.8227
 -85.8226
 -85.823
 -85.8194
 -85.82
 -85.8197
 -85.8455
 -85.8457
 -85.8465
 -85.8468
 -85.8459
 -85.8461
 -85.8467
 -85.8471
 -85.8436
 -85.8426
 -85.8443
 -85.8442
 -85.8663
 -85.8664
 -85.8654
 -85.8654
 -85.8579
 -85.857
 -85.8568
 -85.8577
 -85.8346
 -85.8353
 -85.8351
 -85.8354
 -85.8271
 -85.8285
 -85.8283
 -85.8265
 -85.8641
 -85.8637
 -85.8632
 -85.864
 -85.8121
 -85.8111
 -85.8114
 -85.8127
 -85.8381
 -85.8391
 -85.8386
 -85.8384
 -85.8255
 -85.826
 -85.826
 -85.8311
 -85.8318
 -85.8319
 -85.8328
 -85.8562
 -85.856
 -85.8567
 -85.8551
 -85.8309
 -85.8297
 -85.83
 -85.8307
 -85.8198
 -85.8222
 -85.8206
 -85.8097
 -85.8109
 -85.8115
 -85.8108
 -85.8698
 -85.87
 -85.8702
 -85.8706
 -85.8335
 -85.8328
 -85.8333
 -85.8338
 -85.8503
 -85.8489
 -85.8492
 -85.8499
 -85.8655
 -85.8652
 -85.8645
 -85.865
 -85.8609
 -85.8618
 -85.8605
 -85.8609
 -85.8344
 -85.8347
 -85.8339
 -85.8343
 -85.8233
 -85.8221
 -85.821
 -85.8224
 -85.849
 -85.8496
 -85.8484
 -85.849
 -85.8245
 -85.8257
 -85.8407
 -85.8388
 -85.8392
 -85.8402
 -85.8417
 -85.8416
 -85.841
 -85.8421
 -85.8402
 -85.8403
 -85.8397
 -85.8278
 -85.8282
 -85.8278
 -85.8508
 -85.8508
 -85.8512
 -85.8515
 -85.8495
 -85.8493
 -85.8487
 -85.8503
 -85.8342
 -85.8354
 -85.8348
 -85.8344
 -85.8582
 -85.8591
 -85.8579
 -85.8582
 -85.845
 -85.8436
 -85.8443
 -85.8453
 -85.8278
 -85.8277
 -85.8275
 -85.8277
 -85.8388
 -85.8398
 -85.839
 -85.8505
 -85.8504
 -85.8495
 -85.8502
 -85.8465
 -85.8472
 -85.8477
 -85.8694
 -85.8693
 -85.869
 -85.8689
 -85.8178
 -85.8172
 -85.818
 -85.8162
 -85.8375
 -85.8385
 -85.8385
 -85.8377
 -85.8361
 -85.8359
 -85.835
 -85.8362
 -85.8698
 -85.8697
 -85.8705
 -85.871
 -85.8598
 -85.8604
 -85.8602
 -85.8316
 -85.8315
 -85.8309
 -85.8316
 -85.8596
 -85.8586
 -85.859
 -85.8335
 -85.8336
 -85.8329
 -85.8331
 -85.7994
 -85.8001
 -85.7996
 -85.8002
 -85.866
 -85.8662
 -85.8667
 -85.8657
 -85.828
 -85.8277
 -85.8272
 -85.8264
 -85.8688
 -85.8686
 -85.8684
 -85.8686
 -85.8306
 -85.8317
 -85.8308
 -85.8314
 -85.8003
 -85.7988
 -85.7999
 -85.8
 -85.8214
 -85.8204
 -85.8213
 -85.8217
 -85.8285
 -85.8292
 -85.8298
 -85.8283
 -85.8445
 -85.8431
 -85.8269
 -85.8272
 -85.8252
 -85.8254
 -85.8515
 -85.8507
 -85.8505
 -85.8499
 -85.8434
 -85.8434
 -85.843
 -85.8444
 -85.8652
 -85.8643
 -85.8658
 -85.8659
 -85.8633
 -85.863
 -85.8637
 -85.8637
 -85.8613
 -85.8604
 -85.8611
 -85.8604
 -85.8646
 -85.8647
 -85.865
 -85.8643
 -85.8543
 -85.8542
 -85.855
 -85.8543
 -85.8618
 -85.8626
 -85.8624
 -85.8621
 -85.819
 -85.8174
 -85.8172
 -85.8191
 -85.8639
 -85.8644
 -85.8643
 -85.8642
 -85.8401
 -85.8392
 -85.8387
 -85.8391
 -85.8592
 -85.8578
 -85.858
 -85.8635
 -85.8642
 -85.8643
 -85.8639
 -85.8282
 -85.8271
 -85.827
 -85.8275
 -85.8218
 -85.8215
 -85.8209
 -85.8212
 -85.8562
 -85.8561
 -85.8555
 -85.8571
 -85.841
 -85.8409
 -85.8407
 -85.8399
 -85.8547
 -85.8543
 -85.8547
 -85.8545
 -85.8544
 -85.8544
 -85.8561
 -85.8387
 -85.8384
 -85.8375
 -85.8537
 -85.8542
 -85.848
 -85.8467
 -85.8685
 -85.8689
 -85.8689
 -85.8685
 -85.8466
 -85.8469
 -85.8463
 -85.8475
 -85.8536
 -85.8532
 -85.8545
 -85.8532
 -85.8504
 -85.8509
 -85.8504
 -85.8512
 -85.8618
 -85.8598
 -85.8602
 -85.8595
 -85.8594
 -85.842
 -85.8423
 -85.8412
 -85.8412
 -85.826
 -85.826
 -85.826
 -85.8261
 -85.8538
 -85.8529
 -85.8539
 -85.8533
 -85.855
 -85.8544
 -85.8541
 -85.8553
 -85.8032
 -85.8041
 -85.8045
 -85.8051
 -85.8454
 -85.8463
 -85.8457
 -85.8451
 -85.8441
 -85.8432
 -85.8428
 -85.8437
 -85.8533
 -85.8526
 -85.8292
 -85.8294
 -85.8297
 -85.8292
 -85.8368
 -85.8374
 -85.8372
 -85.8366
 -85.8306
 -85.8302
 -85.8299
 -85.83
 -85.8351
 -85.8359
 -85.8357
 -85.8349
 -85.8301
 -85.83
 -85.8296
 -85.8302
 -85.8603
 -85.8598
 -85.86
 -85.8607
 -85.8637
 -85.8636
 -85.8628
 -85.8633
 -85.8338
 -85.8333
 -85.8327
 -85.8338
 -85.8453
 -85.8444
 -85.8453
 -85.8447
 -85.8613
 -85.8604
 -85.8612
 -85.8608
 -85.8415
 -85.8408
 -85.8409
 -85.8423
 -85.8335
 -85.8344
 -85.8237
 -85.8242
 -85.8244
 -85.8235
 -85.8436
 -85.8432
 -85.8424
 -85.842
 -85.8616
 -85.8612
 -85.8612
 -85.8624
 -85.8677
 -85.8672
 -85.8673
 -85.8679
 -85.8062
 -85.8061
 -85.8399
 -85.841
 -85.8411
 -85.8417
 -85.8384
 -85.8368
 -85.8378
 -85.8378
 -85.8374
 -85.8371
 -85.8312
 -85.8316
 -85.8316
 -85.8319
 -85.8435
 -85.8446
 -85.845
 -85.819
 -85.8197
 -85.8198
 -85.8204
 -85.864
 -85.8646
 -85.8633
 -85.8641
 -85.8676
 -85.8676
 -85.8675
 -85.8698
 -85.8694
 -85.8687
 -85.8692
 -85.8495
 -85.8511
 -85.8506
 -85.8507
 -85.8452
 -85.8466
 -85.8449
 -85.846
 -85.8586
 -85.8599
 -85.8603
 -85.8596
 -85.8528
 -85.8526
 -85.8536
 -85.8527
 -85.8514
 -85.8523
 -85.8518
 -85.8473
 -85.8474
 -85.8469
 -85.8483
 -85.8566
 -85.8584
 -85.8577
 -85.8567
 -85.8416
 -85.8409
 -85.8416
 -85.8417
 -85.846
 -85.8458
 -85.847
 -85.8454
 -85.8543
 -85.8541
 -85.8536
 -85.8544
 -85.8454
 -85.8448
 -85.8445
 -85.8456
 -85.8007
 -85.8003
 -85.8017
 -85.8017
 -85.8323
 -85.8318
 -85.8317
 -85.8311
 -85.8565
 -85.8564
 -85.8576
 -85.8577
 -85.8306
 -85.8307
 -85.8292
 -85.8288
 -85.8277
 -85.8263
 -85.8277
 -85.8287
 -85.8621
 -85.8619
 -85.8624
 -85.8613
 -85.8608
 -85.8598
 -85.8607
 -85.8605
 -85.8645
 -85.8636
 -85.8643
 -85.8646
 -85.8577
 -85.8577
 -85.8586
 -85.8582
 -85.8398
 -85.8396
 -85.8388
 -85.8395
 -85.8324
 -85.832
 -85.8329
 -85.8319
 -85.8548
 -85.8533
 -85.8549
 -85.8537
 -85.8328
 -85.8331
 -85.8333
 -85.8332
 -85.8244
 -85.8247
 -85.825
 -85.8254
 -85.8445
 -85.8454
 -85.8447
 -85.8454
 -85.8377
 -85.837
 -85.8363
 -85.8385
 -85.8389
 -85.8404
 -85.8393
 -85.8246
 -85.8239
 -85.823
 -85.8239
 -85.8336
 -85.8334
 -85.8331
 -85.8332
 -85.8559
 -85.8565
 -85.856
 -85.8563
 -85.8466
 -85.8476
 -85.8477
 -85.8702
 -85.8696
 -85.8697
 -85.87
 -85.866
 -85.8667
 -85.8672
 -85.8664
 -85.8371
 -85.838
 -85.8366
 -85.838
 -85.8484
 -85.8492
 -85.8259
 -85.8258
 -85.8245
 -85.8263
 -85.8466
 -85.8456
 -85.8452
 -85.8461
 -85.8641
 -85.8643
 -85.8636
 -85.8643
 -85.8325
 -85.8327
 -85.8331
 -85.8406
 -85.8409
 -85.8411
 -85.8397
 -85.8376
 -85.839
 -85.8389
 -85.8387
 -85.8447
 -85.8456
 -85.8459
 -85.8446
 -85.8427
 -85.8434
 -85.8441
 -85.8432
 -85.8462
 -85.8468
 -85.846
 -85.8471
 -85.8417
 -85.8425
 -85.8596
 -85.859
 -85.8603
 -85.8594
 -85.8424
 -85.8415
 -85.8418
 -85.8425
 -85.8513
 -85.8499
 -85.8506
 -85.8421
 -85.8432
 -85.8424
 -85.843
 -85.8517
 -85.8512
 -85.8506
 -85.8513
 -85.8309
 -85.8299
 -85.8306
 -85.8293
 -85.8421
 -85.8419
 -85.8432
 -85.849
 -85.8492
 -85.8503
 -85.8484
 -85.844
 -85.8437
 -85.8445
 -85.8305
 -85.8308
 -85.8299
 -85.8524
 -85.8522
 -85.852
 -85.851
 -85.8446
 -85.8453
 -85.8455
 -85.8073
 -85.8076
 -85.808
 -85.8062
 -85.8528
 -85.852
 -85.8515
 -85.8529
 -85.8385
 -85.8374
 -85.8376
 -85.8372
 -85.8612
 -85.8611
 -85.8615
 -85.8619
 -85.8631
 -85.8624
 -85.8635
 -85.8633
 -85.8274
 -85.829
 -85.8271
 -85.8274
 -85.8485
 -85.8477
 -85.8471
 -85.835
 -85.8339
 -85.8347
 -85.8347
 -85.8628
 -85.8616
 -85.8623
 -85.8461
 -85.8471
 -85.8465
 -85.8474
 -85.8555
 -85.8559
 -85.8558
 -85.8556
 -85.8654
 -85.8656
 -85.866
 -85.8653
 -85.7961
 -85.7953
 -85.7955
 -85.7961
 -85.8348
 -85.8351
 -85.8357
 -85.8347
 -85.8477
 -85.8496
 -85.8489
 -85.8493
 -85.8227
 -85.8218
 -85.8214
 -85.8446
 -85.8455
 -85.8453
 -85.8444
 -85.8665
 -85.8537
 -85.8529
 -85.8518
 -85.8529
 -85.8622
 -85.8622
 -85.8623
 -85.8627
 -85.8586
 -85.8583
 -85.858
 -85.8588
 -85.8484
 -85.8481
 -85.8464
 -85.8452
 -85.8453
 -85.8452
 -85.8088
 -85.8101
 -85.8089
 -85.8096
 -85.8367
 -85.8364
 -85.8359
 -85.8351
 -85.8351
 -85.8359
 -85.8353
 -85.867
 -85.8681
 -85.8672
 -85.867
 -85.8447
 -85.8447
 -85.8457
 -85.8458
 -85.8481
 -85.8476
 -85.8468
 -85.8475
 -85.8632
 -85.8625
 -85.8636
 -85.8626
 -85.8457
 -85.8454
 -85.8466
 -85.8457
 -85.8178
 -85.8182
 -85.817
 -85.8174
 -85.8436
 -85.8433
 -85.844
 -85.8435
 -85.8344
 -85.8345
 -85.8347
 -85.8354
 -85.8321
 -85.8313
 -85.8314
 -85.8318
 -85.8259
 -85.8263
 -85.8258
 -85.8259
 -85.8157
 -85.8152
 -85.8149
 -85.8165
 -85.8694
 -85.8689
 -85.869
 -85.8689
 -85.8116
 -85.812
 -85.8108
 -85.8126
 -85.8449
 -85.8441
 -85.8449
 -85.8439
 -85.8687
 -85.8688
 -85.8682
 -85.8684
 -85.8398
 -85.8395
 -85.8402
 -85.8404
 -85.8258
 -85.8649
 -85.8645
 -85.8646
 -85.8656
 -85.8302
 -85.8173
 -85.8188
 -85.8188
 -85.8174
 -85.8498
 -85.8512
 -85.859
 -85.8579
 -85.8594
 -85.8582
 -85.8618
 -85.8618
 -85.8624
 -85.8622
 -85.8701
 -85.8695
 -85.8703
 -85.8595
 -85.8606
 -85.8604
 -85.8603
 -85.84
 -85.8677
 -85.8548
 -85.8546
 -85.8542
 -85.8675
 -85.8679
 -85.8681
 -85.8677
 -85.8405
 -85.8404
 -85.8405
 -85.8397
 -85.8341
 -85.8345
 -85.8336
 -85.8332
 -85.8538
 -85.8531
 -85.8535
 -85.8549
 -85.8668
 -85.8673
 -85.8665
 -85.8663
 -85.8641
 -85.8639
 -85.8643
 -85.8638
 -85.8511
 -85.8526
 -85.8525
 -85.8146
 -85.8137
 -85.8162
 -85.8145
 -85.7973
 -85.7987
 -85.7979
 -85.7985
 -85.823
 -85.8216
 -85.8212
 -85.8221
 -85.8471
 -85.848
 -85.847
 -85.8187
 -85.8197
 -85.8194
 -85.8186
 -85.86
 -85.8598
 -85.8608
 -85.8608
 -85.861
 -85.8604
 -85.8608
 -85.8303
 -85.8299
 -85.8556
 -85.8561
 -85.872
 -85.8715
 -85.8719
 -85.8694
 -85.8697
 -85.8696
 -85.8699
 -85.8418
 -85.841
 -85.8425
 -85.8418
 -85.8363
 -85.8362
 -85.8356
 -85.8369
 -85.844
 -85.8438
 -85.8449
 -85.8445
 -85.8683
 -85.8683
 -85.8685
 -85.8683
 -85.8558
 -85.8563
 -85.856
 -85.8554
 -85.8256
 -85.8255
 -85.8255
 -85.8262
 -85.8558
 -85.8562
 -85.8555
 -85.8565
 -85.8489
 -85.8492
 -85.8481
 -85.8493
 -85.8542
 -85.8549
 -85.8548
 -85.7939
 -85.7942
 -85.7943
 -85.8358
 -85.8351
 -85.8406
 -85.8406
 -85.8398
 -85.8412
 -85.8586
 -85.8597
 -85.8588
 -85.8586
 -85.856
 -85.8563
 -85.8574
 -85.8568
 -85.8567
 -85.8562
 -85.8578
 -85.8089
 -85.8088
 -85.8251
 -85.825
 -85.8256
 -85.8252
 -85.8489
 -85.8082
 -85.807
 -85.8074
 -85.8076
 -85.834
 -85.8353
 -85.8344
 -85.8342
 -85.8422
 -85.8416
 -85.8162
 -85.8183
 -85.8182
 -85.8171
 -85.8694
 -85.8701
 -85.8698
 -85.8695
 -85.8664
 -85.8667
 -85.8664
 -85.8673
 -85.8291
 -85.8311
 -85.8295
 -85.8305
 -85.8356
 -85.8349
 -85.837
 -85.8366
 -85.8361
 -85.8356
 -85.8361
 -85.8575
 -85.8581
 -85.8568
 -85.8575
 -85.8255
 -85.8264
 -85.8269
 -85.827
 -85.8441
 -85.8444
 -85.844
 -85.8527
 -85.853
 -85.8534
 -85.8542
 -85.8355
 -85.8358
 -85.8364
 -85.836
 -85.8315
 -85.8325
 -85.8332
 -85.8321
 -85.8324
 -85.8317
 -85.8319
 -85.8327
 -85.8394
 -85.8398
 -85.8408
 -85.8398
 -85.8525
 -85.8519
 -85.8343
 -85.8344
 -85.8347
 -85.8338
 -85.8698
 -85.8687
 -85.8689
 -85.869
 -85.8309
 -85.8315
 -85.831
 -85.8316
 -85.821
 -85.8206
 -85.8218
 -85.8213
 -85.8492
 -85.8492
 -85.8132
 -85.8134
 -85.8124
 -85.8136
 -85.8375
 -85.8383
 -85.837
 -85.8669
 -85.8668
 -85.8673
 -85.8673
 -85.8148
 -85.8142
 -85.8145
 -85.8318
 -85.8316
 -85.8325
 -85.8322
 -85.8163
 -85.8308
 -85.8304
 -85.8305
 -85.8295
 -85.8456
 -85.8449
 -85.8458
 -85.8456
 -85.8407
 -85.841
 -85.8415
 -85.8406
 -85.8677
 -85.8685
 -85.8474
 -85.848
 -85.8477
 -85.8473
 -85.8297
 -85.8282
 -85.8299
 -85.8281
 -85.8365
 -85.8386
 -85.8374
 -85.8367
 -85.8646
 -85.8641
 -85.8641
 -85.8642
 -85.8412
 -85.8417
 -85.8427
 -85.8423
 -85.8494
 -85.8615
 -85.8619
 -85.8612
 -85.8367
 -85.837
 -85.8359
 -85.8373
 -85.8556
 -85.8552
 -85.8556
 -85.8547
 -85.8382
 -85.8372
 -85.8375
 -85.8385
 -85.8675
 -85.8669
 -85.8666
 -85.8672
 -85.8715
 -85.8717
 -85.8713
 -85.832
 -85.8326
 -85.8335
 -85.8329
 -85.8516
 -85.852
 -85.8508
 -85.8513
 -85.8546
 -85.855
 -85.8556
 -85.8559
 -85.8349
 -85.8351
 -85.831
 -85.8305
 -85.8302
 -85.8314
 -85.8392
 -85.8409
 -85.8499
 -85.8503
 -85.8497
 -85.8494
 -85.8521
 -85.8525
 -85.8533
 -85.8521
 -85.8397
 -85.8404
 -85.8412
 -85.8406
 -85.8488
 -85.8488
 -85.8489
 -85.8631
 -85.8622
 -85.8619
 -85.8624
 -85.8588
 -85.8584
 -85.8589
 -85.8399
 -85.8412
 -85.8395
 -85.8407
 -85.8323
 -85.8309
 -85.8303
 -85.8318
 -85.8551
 -85.8539
 -85.854
 -85.8547
 -85.8413
 -85.841
 -85.8398
 -85.8271
 -85.827
 -85.8271
 -85.827
 -85.8355
 -85.8354
 -85.8358
 -85.8361
 -85.8601
 -85.8597
 -85.8592
 -85.87
 -85.8692
 -85.8694
 -85.8541
 -85.8546
 -85.8547
 -85.8354
 -85.8344
 -85.8358
 -85.835
 -85.8697
 -85.8697
 -85.8696
 -85.87
 -85.8529
 -85.8523
 -85.8528
 -85.8535
 -85.8614
 -85.8617
 -85.8627
 -85.8627
 -85.8603
 -85.8608
 -85.8604
 -85.8604
 -85.8202
 -85.819
 -85.8192
 -85.8392
 -85.8395
 -85.8388
 -85.8396
 -85.8614
 -85.8618
 -85.861
 -85.8611
 -85.8428
 -85.8433
 -85.8433
 -85.8444
 -85.8559
 -85.8561
 -85.8559
 -85.8549
 -85.865
 -85.8656
 -85.8254
 -85.826
 -85.826
 -85.8265
 -85.8581
 -85.8574
 -85.8589
 -85.8578
 -85.8398
 -85.8394
 -85.839
 -85.8401
 -85.8545
 -85.8532
 -85.8686
 -85.8686
 -85.868
 -85.8688
 -85.8611
 -85.8622
 -85.8607
 -85.8626
 -85.87
 -85.8701
 -85.8707
 -85.8709
 -85.8576
 -85.8576
 -85.858
 -85.8545
 -85.8558
 -85.8556
 -85.8552
 -85.8554
 -85.8547
 -85.855
 -85.854
 -85.8338
 -85.834
 -85.8332
 -85.8329
 -85.818
 -85.8174
 -85.8188
 -85.8449
 -85.845
 -85.8451
 -85.863
 -85.8621
 -85.8626
 -85.8619
 -85.8401
 -85.8408
 -85.8417
 -85.8409
 -85.8301
 -85.8287
 -85.8291
 -85.8302
 -85.8457
 -85.8447
 -85.8441
 -85.8442
 -85.8377
 -85.8392
 -85.8378
 -85.8689
 -85.8691
 -85.8682
 -85.8682
 -85.8263
 -85.8266
 -85.8297
 -85.8303
 -85.8304
 -85.8565
 -85.8568
 -85.8558
 -85.8575
 -85.8443
 -85.8456
 -85.8454
 -85.8452
 -85.8285
 -85.8287
 -85.8295
 -85.8287
 -85.8482
 -85.8463
 -85.8465
 -85.8475
 -85.8372
 -85.8364
 -85.8377
 -85.8378
 -85.8643
 -85.8646
 -85.8658
 -85.8356
 -85.8355
 -85.8363
 -85.8363
 -85.848
 -85.8487
 -85.8278
 -85.829
 -85.8286
 -85.828
 -85.8294
 -85.8285
 -85.829
 -85.8285
 -85.8651
 -85.8647
 -85.8313
 -85.8322
 -85.8317
 -85.8307
 -85.8461
 -85.8451
 -85.8456
 -85.8461
 -85.8387
 -85.8205
 -85.8195
 -85.8198
 -85.8493
 -85.8491
 -85.8493
 -85.8485
 -85.8658
 -85.8659
 -85.8655
 -85.8663
 -85.8204
 -85.8208
 -85.821
 -85.8199
 -85.8302
 -85.8309
 -85.83
 -85.8302
 -85.854
 -85.8544
 -85.8544
 -85.8218
 -85.8217
 -85.8226
 -85.8228
 -85.8699
 -85.8693
 -85.8696
 -85.87
 -85.8253
 -85.8259
 -85.8262
 -85.8249
 -85.853
 -85.852
 -85.8527
 -85.8536
 -85.8392
 -85.84
 -85.8396
 -85.839
 -85.8286
 -85.829
 -85.8287
 -85.8374
 -85.8386
 -85.8373
 -85.8383
 -85.8287
 -85.8278
 -85.8284
 -85.8284
 -85.8305
 -85.8298
 -85.8302
 -85.8587
 -85.8578
 -85.8589
 -85.8574
 -85.8566
 -85.8436
 -85.8458
 -85.8443
 -85.8444
 -85.867
 -85.8666
 -85.8662
 -85.8666
 -85.8496
 -85.8508
 -85.849
 -85.8504
 -85.8525
 -85.8533
 -85.8525
 -85.8523
 -85.83
 -85.8296
 -85.8306
 -85.8313
 -85.8308
 -85.8525
 -85.8514
 -85.852
 -85.8528
 -85.8665
 -85.8674
 -85.8469
 -85.8473
 -85.8462
 -85.8474
 -85.8284
 -85.8282
 -85.8289
 -85.864
 -85.8646
 -85.8638
 -85.8641
 -85.8473
 -85.8458
 -85.8464
 -85.8466
 -85.8297
 -85.8292
 -85.8297
 -85.8301
 -85.8441
 -85.844
 -85.8455
 -85.8445
 -85.852
 -85.8537
 -85.8239
 -85.8234
 -85.8237
 -85.8232
 -85.8304
 -85.8323
 -85.8329
 -85.8324
 -85.8333
 -85.8329
 -85.8325
 -85.8312
 -85.8315
 -85.8322
 -85.8466
 -85.8463
 -85.8462
 -85.8507
 -85.8503
 -85.8498
 -85.8494
 -85.8335
 -85.8334
 -85.8337
 -85.8334
 -85.8399
 -85.8396
 -85.8484
 -85.8478
 -85.8481
 -85.8475
 -85.8485
 -85.8485
 -85.8442
 -85.8452
 -85.8455
 -85.8444
 -85.8125
 -85.8142
 -85.8139
 -85.8144
 -85.8481
 -85.8287
 -85.8295
 -85.8289
 -85.8288
 -85.8688
 -85.8693
 -85.8687
 -85.8569
 -85.8566
 -85.8559
 -85.857
 -85.8436
 -85.8441
 -85.8436
 -85.8422
 -85.8471
 -85.8479
 -85.8466
 -85.8317
 -85.8324
 -85.8321
 -85.8316
 -85.8645
 -85.8652
 -85.8639
 -85.8648
 -85.8532
 -85.8529
 -85.8537
 -85.8533
 -85.8646
 -85.8649
 -85.8636
 -85.8644
 -85.8253
 -85.8253
 -85.8245
 -85.8246
 -85.8333
 -85.8341
 -85.8585
 -85.8581
 -85.8576
 -85.8582
 -85.8664
 -85.8662
 -85.8664
 -85.8661
 -85.8714
 -85.8717
 -85.8712
 -85.8718
 -85.8654
 -85.8648
 -85.8653
 -85.8524
 -85.8534
 -85.8522
 -85.853
 -85.8658
 -85.8662
 -85.8663
 -85.8662
 -85.8258
 -85.8267
 -85.8274
 -85.8265
 -85.8617
 -85.8624
 -85.8625
 -85.8529
 -85.8525
 -85.8523
 -85.8523
 -85.8285
 -85.8281
 -85.8286
 -85.8279
 -85.854
 -85.8551
 -85.8545
 -85.8545
 -85.8499
 -85.8506
 -85.851
 -85.8499
 -85.834
 -85.8344
 -85.8352
 -85.8358
 -85.8248
 -85.825
 -85.8239
 -85.8239
 -85.8411
 -85.8414
 -85.8423
 -85.8413
 -85.81
 -85.8101
 -85.8119
 -85.8108
 -85.8298
 -85.8304
 -85.8296
 -85.832
 -85.831
 -85.8309
 -85.8306
 -85.8049
 -85.8053
 -85.804
 -85.8056
 -85.8641
 -85.8634
 -85.8635
 -85.8603
 -85.8605
 -85.8613
 -85.8611
 -85.8326
 -85.8344
 -85.8338
 -85.8185
 -85.8189
 -85.8183
 -85.8243
 -85.8235
 -85.8245
 -85.8245
 -85.8339
 -85.8337
 -85.8345
 -85.833
 -85.8531
 -85.8545
 -85.8538
 -85.8536
 -85.813
 -85.8128
 -85.8136
 -85.8123
 -85.8509
 -85.8493
 -85.8492
 -85.8506
 -85.8601
 -85.8605
 -85.8595
 -85.8601
 -85.8487
 -85.8486
 -85.8502
 -85.8495
 -85.842
 -85.8412
 -85.8427
 -85.8293
 -85.8292
 -85.8292
 -85.8298
 -85.8651
 -85.8657
 -85.8659
 -85.8655
 -85.8618
 -85.8624
 -85.8617
 -85.8612
 -85.8337
 -85.8345
 -85.834
 -85.8332
 -85.8666
 -85.867
 -85.8674
 -85.8664
 -85.8674
 -85.8667
 -85.8667
 -85.8672
 -85.8672
 -85.8665
 -85.8669
 -85.816
 -85.8158
 -85.8053
 -85.8055
 -85.8049
 -85.8063
 -85.8514
 -85.851
 -85.8503
 -85.8438
 -85.8431
 -85.8447
 -85.8433
 -85.8461
 -85.8472
 -85.8469
 -85.8462
 -85.7948
 -85.8405
 -85.8504
 -85.8514
 -85.8616
 -85.8621
 -85.8619
 -85.8619
 -85.8185
 -85.8377
 -85.8386
 -85.8376
 -85.8721
 -85.8718
 -85.8718
 -85.8718
 -85.8464
 -85.8456
 -85.8464
 -85.8473
 -85.8673
 -85.8669
 -85.8674
 -85.8666
 -85.8418
 -85.843
 -85.8408
 -85.8388
 -85.8401
 -85.8393
 -85.8644
 -85.8646
 -85.8637
 -85.8646
 -85.851
 -85.8503
 -85.8496
 -85.8492
 -85.8262
 -85.8255
 -85.8269
 -85.8266
 -85.8607
 -85.8623
 -85.8617
 -85.8675
 -85.8685
 -85.8685
 -85.8675
 -85.8611
 -85.8608
 -85.8603
 -85.8609
 -85.8329
 -85.8328
 -85.8347
 -85.8327
 -85.8354
 -85.8347
 -85.8349
 -85.8349
 -85.8645
 -85.8651
 -85.865
 -85.865
 -85.8402
 -85.8404
 -85.8393
 -85.8591
 -85.8591
 -85.8588
 -85.8583
 -85.828
 -85.8289
 -85.8274
 -85.8276
 -85.852
 -85.8525
 -85.8511
 -85.8517
 -85.8274
 -85.8282
 -85.8275
 -85.8274
 -85.848
 -85.8486
 -85.8477
 -85.8484
 -85.86
 -85.86
 -85.8608
 -85.8594
 -85.8253
 -85.825
 -85.8258
 -85.8466
 -85.8475
 -85.863
 -85.8626
 -85.8624
 -85.862
 -85.8401
 -85.8394
 -85.8393
 -85.8263
 -85.8256
 -85.8252
 -85.8257
 -85.8548
 -85.8552
 -85.8547
 -85.8555
 -85.8521
 -85.852
 -85.8535
 -85.8524
 -85.7992
 -85.7991
 -85.8004
 -85.7996
 -85.8456
 -85.8444
 -85.8451
 -85.8092
 -85.8102
 -85.8105
 -85.8461
 -85.8458
 -85.8451
 -85.8459
 -85.8447
 -85.8249
 -85.8254
 -85.8236
 -85.8243
 -85.8421
 -85.8432
 -85.8434
 -85.8618
 -85.8617
 -85.8618
 -85.8613
 -85.8431
 -85.8436
 -85.8442
 -85.8442
 -85.8447
 -85.8444
 -85.8443
 -85.8712
 -85.871
 -85.8708
 -85.8704
 -85.8309
 -85.833
 -85.8325
 -85.8319
 -85.8234
 -85.8235
 -85.824
 -85.8239
 -85.8383
 -85.838
 -85.8395
 -85.8384
 -85.8635
 -85.8637
 -85.864
 -85.8629
 -85.7984
 -85.7995
 -85.7985
 -85.8
 -85.8591
 -85.858
 -85.8586
 -85.8587
 -85.8231
 -85.8224
 -85.8231
 -85.8228
 -85.8617
 -85.8598
 -85.8604
 -85.8613
 -85.8582
 -85.8578
 -85.8572
 -85.8578
 -85.8593
 -85.8596
 -85.8333
 -85.8326
 -85.8325
 -85.8331
 -85.8653
 -85.8653
 -85.8653
 -85.8575
 -85.8563
 -85.8567
 -85.8577
 -85.8318
 -85.8328
 -85.8321
 -85.8313
 -85.8373
 -85.837
 -85.8382
 -85.794
 -85.794
 -85.7936
 -85.7939
 -85.8442
 -85.843
 -85.8446
 -85.8654
 -85.866
 -85.8652
 -85.865
 -85.8598
 -85.8591
 -85.864
 -85.8649
 -85.8653
 -85.8644
 -85.8558
 -85.8559
 -85.8213
 -85.8215
 -85.8203
 -85.8222
 -85.8589
 -85.8589
 -85.859
 -85.858
 -85.846
 -85.8465
 -85.8372
 -85.8378
 -85.8375
 -85.8372
 -85.8611
 -85.8616
 -85.8618
 -85.8615
 -85.8339
 -85.8321
 -85.8323
 -85.8336
 -85.8647
 -85.8647
 -85.8654
 -85.8664
 -85.8495
 -85.8497
 -85.8487
 -85.8211
 -85.8206
 -85.8204
 -85.8211
 -85.8529
 -85.8528
 -85.8524
 -85.8518
 -85.831
 -85.8299
 -85.8298
 -85.8291
 -85.8322
 -85.8308
 -85.8318
 -85.7974
 -85.7972
 -85.7974
 -85.798
 -85.8248
 -85.8261
 -85.8264
 -85.8252
 -85.8596
 -85.8592
 -85.8601
 -85.8591
 -85.8447
 -85.8451
 -85.8439
 -85.8386
 -85.8291
 -85.8296
 -85.8293
 -85.8298
 -85.8403
 -85.8393
 -85.8401
 -85.8406
 -85.8564
 -85.8578
 -85.8579
 -85.8566
 -85.8276
 -85.8276
 -85.8295
 -85.8189
 -85.8493
 -85.8496
 -85.8485
 -85.8501
 -85.8295
 -85.8307
 -85.8072
 -85.8061
 -85.8288
 -85.8296
 -85.8289
 -85.8278
 -85.8563
 -85.857
 -85.8629
 -85.8628
 -85.8631
 -85.8627
 -85.8372
 -85.8381
 -85.8382
 -85.8382
 -85.868
 -85.8682
 -85.8687
 -85.8682
 -85.8362
 -85.8365
 -85.8344
 -85.8344
 -85.8587
 -85.8589
 -85.8582
 -85.8573
 -85.8322
 -85.8322
 -85.8327
 -85.8327
 -85.8586
 -85.859
 -85.8579
 -85.8586
 -85.8404
 -85.8417
 -85.8661
 -85.8658
 -85.8552
 -85.856
 -85.855
 -85.8562
 -85.8546
 -85.8542
 -85.8544
 -85.8555
 -85.8478
 -85.8473
 -85.8482
 -85.8481
 -85.8585
 -85.8575
 -85.8588
 -85.8593
 -85.8317
 -85.8307
 -85.8313
 -85.8312
 -85.8656
 -85.8655
 -85.8653
 -85.8665
 -85.8669
 -85.8662
 -85.8667
 -85.8276
 -85.8286
 -85.8286
 -85.8281
 -85.8554
 -85.8543
 -85.8545
 -85.855
 -85.8262
 -85.8273
 -85.8273
 -85.8284
 -85.847
 -85.8432
 -85.8446
 -85.8447
 -85.8433
 -85.8614
 -85.8614
 -85.8613
 -85.8604
 -85.8109
 -85.8099
 -85.8105
 -85.8117
 -85.8549
 -85.8555
 -85.8561
 -85.8553
 -85.8455
 -85.8465
 -85.8444
 -85.8453
 -85.8574
 -85.8567
 -85.8566
 -85.8564
 -85.8531
 -85.8711
 -85.8709
 -85.8702
 -85.8706
 -85.8594
 -85.8597
 -85.8585
 -85.8587
 -85.8066
 -85.8071
 -85.808
 -85.8065
 -85.8406
 -85.8395
 -85.839
 -85.8399
 -85.8349
 -85.8463
 -85.8464
 -85.8467
 -85.8476
 -85.8646
 -85.8647
 -85.8639
 -85.8634
 -85.8618
 -85.8617
 -85.8627
 -85.8644
 -85.8629
 -85.8636
 -85.8633
 -85.7989
 -85.7993
 -85.8585
 -85.8581
 -85.858
 -85.8339
 -85.8338
 -85.8336
 -85.8347
 -85.8566
 -85.8561
 -85.8566
 -85.8558
 -85.8478
 -85.8549
 -85.8539
 -85.8549
 -85.8547
 -85.866
 -85.8646
 -85.8651
 -85.8659
 -85.8546
 -85.8553
 -85.8563
 -85.8547
 -85.8399
 -85.8404
 -85.8387
 -85.8412
 -85.8284
 -85.8285
 -85.8281
 -85.8287
 -85.8703
 -85.8696
 -85.8704
 -85.8701
 -85.8567
 -85.8564
 -85.857
 -85.856
 -85.8696
 -85.8694
 -85.8695
 -85.8699
 -85.8342
 -85.8326
 -85.8342
 -85.8344
 -85.8471
 -85.8466
 -85.866
 -85.867
 -85.866
 -85.8665
 -85.8475
 -85.8476
 -85.8476
 -85.8487
 -85.8439
 -85.8449
 -85.8473
 -85.8476
 -85.8484
 -85.8472
 -85.8624
 -85.8624
 -85.862
 -85.863
 -85.837
 -85.8357
 -85.8352
 -85.8363
 -85.8197
 -85.8206
 -85.8198
 -85.8198
 -85.8261
 -85.8256
 -85.8257
 -85.8255
 -85.8356
 -85.8364
 -85.8365
 -85.8355
 -85.8409
 -85.8395
 -85.8405
 -85.8429
 -85.8413
 -85.8421
 -85.8424
 -85.8465
 -85.8459
 -85.8455
 -85.8464
 -85.8195
 -85.8193
 -85.8198
 -85.8392
 -85.8383
 -85.8397
 -85.8394
 -85.8482
 -85.8491
 -85.8491
 -85.8478
 -85.8327
 -85.8314
 -85.8331
 -85.8315
 -85.8363
 -85.8371
 -85.837
 -85.8368
 -85.8492
 -85.8491
 -85.8498
 -85.8506
 -85.8459
 -85.8449
 -85.8457
 -85.8455
 -85.8555
 -85.8551
 -85.8554
 -85.855
 -85.8252
 -85.8255
 -85.8259
 -85.8608
 -85.8603
 -85.8614
 -85.8606
 -85.8329
 -85.8339
 -85.8331
 -85.8324
 -85.8412
 -85.8408
 -85.8402
 -85.8416
 -85.843
 -85.844
 -85.8442
 -85.8509
 -85.8509
 -85.8512
 -85.8519
 -85.8542
 -85.8543
 -85.8549
 -85.8537
 -85.8553
 -85.8557
 -85.8563
 -85.8628
 -85.8631
 -85.8632
 -85.8541
 -85.8537
 -85.853
 -85.8535
 -85.8628
 -85.8631
 -85.8622
 -85.8654
 -85.8654
 -85.8652
 -85.8646
 -85.8436
 -85.8416
 -85.8428
 -85.8422
 -85.8344
 -85.8337
 -85.8349
 -85.834
 -85.8308
 -85.8628
 -85.8625
 -85.8638
 -85.8623
 -85.863
 -85.8615
 -85.7965
 -85.796
 -85.7966
 -85.7971
 -85.8587
 -85.8579
 -85.841
 -85.8405
 -85.8418
 -85.8695
 -85.8701
 -85.8513
 -85.85
 -85.8504
 -85.8507
 -85.8402
 -85.8408
 -85.8408
 -85.8591
 -85.8607
 -85.8599
 -85.8603
 -85.835
 -85.8353
 -85.8346
 -85.8358
 -85.8038
 -85.8048
 -85.8046
 -85.8034
 -85.8502
 -85.8503
 -85.85
 -85.8512
 -85.8618
 -85.8634
 -85.862
 -85.8601
 -85.8599
 -85.8603
 -85.8596
 -85.8321
 -85.8306
 -85.8307
 -85.83
 -85.8334
 -85.8342
 -85.8277
 -85.8287
 -85.8273
 -85.8691
 -85.8686
 -85.8612
 -85.8602
 -85.8612
 -85.8602
 -85.847
 -85.8483
 -85.8479
 -85.8584
 -85.8574
 -85.8592
 -85.859
 -85.8328
 -85.831
 -85.8313
 -85.8322
 -85.8449
 -85.8447
 -85.8458
 -85.846
 -85.8446
 -85.8453
 -85.8456
 -85.8447
 -85.8306
 -85.831
 -85.8303
 -85.8339
 -85.8331
 -85.8337
 -85.8335
 -85.8715
 -85.8719
 -85.8716
 -85.8722
 -85.8229
 -85.8213
 -85.8649
 -85.8654
 -85.8653
 -85.8648
 -85.842
 -85.843
 -85.8425
 -85.8419
 -85.8484
 -85.8491
 -85.8491
 -85.8493
 -85.826
 -85.8266
 -85.8458
 -85.8451
 -85.8451
 -85.8444
 -85.8411
 -85.8407
 -85.8403
 -85.8415
 -85.8619
 -85.8618
 -85.8614
 -85.862
 -85.8432
 -85.8441
 -85.8442
 -85.8429
 -85.8345
 -85.8346
 -85.8522
 -85.8523
 -85.8517
 -85.8524
 -85.8565
 -85.8563
 -85.8571
 -85.847
 -85.8481
 -85.8477
 -85.8483
 -85.8296
 -85.8302
 -85.8293
 -85.8308
 -85.803
 -85.8043
 -85.804
 -85.8028
 -85.844
 -85.8435
 -85.8445
 -85.8456
 -85.8492
 -85.8504
 -85.8493
 -85.8494
 -85.8399
 -85.8404
 -85.8392
 -85.8395
 -85.8351
 -85.8345
 -85.8354
 -85.8359
 -85.8623
 -85.8629
 -85.8522
 -85.8517
 -85.8512
 -85.8133
 -85.8128
 -85.8121
 -85.8136
 -85.8314
 -85.8305
 -85.8317
 -85.83
 -85.8474
 -85.8476
 -85.8471
 -85.8466
 -85.8623
 -85.8625
 -85.8625
 -85.842
 -85.8415
 -85.8403
 -85.8403
 -85.8337
 -85.8351
 -85.8345
 -85.8336
 -85.8575
 -85.8563
 -85.8563
 -85.857
 -85.8507
 -85.8504
 -85.85
 -85.8501
 -85.8598
 -85.8599
 -85.8598
 -85.8593
 -85.8593
 -85.8595
 -85.8593
 -85.8387
 -85.839
 -85.838
 -85.8376
 -85.8432
 -85.8427
 -85.8437
 -85.8054
 -85.8057
 -85.8056
 -85.8048
 -85.8344
 -85.8345
 -85.822
 -85.8213
 -85.8225
 -85.8232
 -85.8303
 -85.8267
 -85.8637
 -85.835
 -85.8339
 -85.8347
 -85.8335
 -85.8702
 -85.8521
 -85.8514
 -85.852
 -85.8508
 -85.8345
 -85.8353
 -85.8348
 -85.8391
 -85.8401
 -85.8401
 -85.8606
 -85.8608
 -85.8597
 -85.8607
 -85.861
 -85.8605
 -85.8611
 -85.8604
 -85.8283
 -85.8269
 -85.8269
 -85.8279
 -85.867
 -85.8671
 -85.8676
 -85.8666
 -85.845
 -85.8441
 -85.8431
 -85.8607
 -85.8612
 -85.861
 -85.8487
 -85.8477
 -85.8481
 -85.8489
 -85.835
 -85.8357
 -85.8344
 -85.8347
 -85.8494
 -85.8509
 -85.8494
 -85.8365
 -85.837
 -85.8369
 -85.8358
 -85.8419
 -85.8433
 -85.8613
 -85.862
 -85.8622
 -85.8629
 -85.8637
 -85.8647
 -85.8641
 -85.8639
 -85.8299
 -85.831
 -85.8296
 -85.8307
 -85.8566
 -85.8553
 -85.8561
 -85.8569
 -85.8514
 -85.8498
 -85.851
 -85.8519
 -85.8401
 -85.8391
 -85.8407
 -85.8399
 -85.8626
 -85.8621
 -85.8619
 -85.8614
 -85.8423
 -85.8412
 -85.843
 -85.8424
 -85.8452
 -85.8447
 -85.8446
 -85.8461
 -85.8419
 -85.8412
 -85.8421
 -85.8423
 -85.8316
 -85.8327
 -85.8287
 -85.8294
 -85.8302
 -85.8288
 -85.8198
 -85.8182
 -85.8195
 -85.8199
 -85.8517
 -85.8516
 -85.8513
 -85.8525
 -85.8497
 -85.8489
 -85.8487
 -85.8678
 -85.868
 -85.868
 -85.868
 -85.869
 -85.8695
 -85.8688
 -85.8648
 -85.8653
 -85.8642
 -85.8489
 -85.8501
 -85.8507
 -85.8493
 -85.8549
 -85.8554
 -85.8559
 -85.8544
 -85.8614
 -85.8621
 -85.8616
 -85.8622
 -85.8357
 -85.8346
 -85.8349
 -85.8355
 -85.8231
 -85.8239
 -85.8245
 -85.8245
 -85.8697
 -85.8699
 -85.8692
 -85.8704
 -85.8331
 -85.8328
 -85.8322
 -85.8333
 -85.8472
 -85.8471
 -85.8476
 -85.8468
 -85.8701
 -85.8701
 -85.8693
 -85.8707
 -85.852
 -85.851
 -85.8524
 -85.852
 -85.8412
 -85.8407
 -85.8413
 -85.8408
 -85.8338
 -85.833
 -85.8331
 -85.8267
 -85.8279
 -85.8272
 -85.8265
 -85.8305
 -85.8302
 -85.8307
 -85.8301
 -85.8292
 -85.8289
 -85.8323
 -85.833
 -85.8309
 -85.8593
 -85.8587
 -85.8586
 -85.8584
 -85.8672
 -85.8669
 -85.867
 -85.8669
 -85.8541
 -85.8537
 -85.8541
 -85.8528
 -85.8427
 -85.863
 -85.8633
 -85.8633
 -85.8626
 -85.8275
 -85.8275
 -85.8274
 -85.8272
 -85.8679
 -85.8683
 -85.8678
 -85.8687
 -85.8378
 -85.8372
 -85.8386
 -85.8564
 -85.8268
 -85.8267
 -85.8258
 -85.8315
 -85.8308
 -85.8301
 -85.8319
 -85.8466
 -85.8465
 -85.845
 -85.8462
 -85.8581
 -85.8581
 -85.8574
 -85.8588
 -85.8426
 -85.8563
 -85.8557
 -85.8556
 -85.8433
 -85.8431
 -85.8433
 -85.8444
 -85.8366
 -85.8368
 -85.8361
 -85.836
 -85.8392
 -85.838
 -85.8388
 -85.8391
 -85.8567
 -85.8328
 -85.8331
 -85.8335
 -85.8589
 -85.8583
 -85.8592
 -85.8586
 -85.8626
 -85.8623
 -85.8634
 -85.862
 -85.8665
 -85.8668
 -85.8664
 -85.8361
 -85.8362
 -85.8354
 -85.8361
 -85.8244
 -85.8238
 -85.8244
 -85.8604
 -85.8604
 -85.8621
 -85.8618
 -85.8614
 -85.8613
 -85.843
 -85.8435
 -85.844
 -85.8685
 -85.8684
 -85.8689
 -85.8683
 -85.8623
 -85.8621
 -85.8625
 -85.8627
 -85.853
 -85.8531
 -85.8536
 -85.8539
 -85.8478
 -85.8482
 -85.8475
 -85.8466
 -85.8337
 -85.8336
 -85.8333
 -85.8341
 -85.862
 -85.862
 -85.8615
 -85.8625
 -85.8368
 -85.8371
 -85.8357
 -85.8397
 -85.8406
 -85.8409
 -85.841
 -85.8667
 -85.8665
 -85.8675
 -85.8671
 -85.8558
 -85.8559
 -85.8557
 -85.8552
 -85.8689
 -85.8685
 -85.8679
 -85.8687
 -85.8386
 -85.8392
 -85.8397
 -85.8396
 -85.8474
 -85.8476
 -85.8466
 -85.8484
 -85.8642
 -85.8641
 -85.8646
 -85.8643
 -85.8463
 -85.8471
 -85.8458
 -85.8461
 -85.8691
 -85.8696
 -85.8691
 -85.8353
 -85.8348
 -85.8348
 -85.835
 -85.8497
 -85.8497
 -85.8491
 -85.8486
 -85.8519
 -85.8527
 -85.8519
 -85.8521
 -85.8448
 -85.8442
 -85.8459
 -85.8446
 -85.8626
 -85.8627
 -85.8636
 -85.8629
 -85.8441
 -85.8429
 -85.8436
 -85.8433
 -85.8518
 -85.8515
 -85.8515
 -85.851
 -85.827
 -85.827
 -85.8268
 -85.827
 -85.8602
 -85.8603
 -85.8596
 -85.8591
 -85.8257
 -85.8257
 -85.8257
 -85.8336
 -85.8331
 -85.8332
 -85.8338
 -85.8289
 -85.8295
 -85.8315
 -85.8298
 -85.8575
 -85.8573
 -85.8579
 -85.8584
 -85.8541
 -85.8553
 -85.8542
 -85.8546
 -85.8375
 -85.8365
 -85.8366
 -85.8359
 -85.871
 -85.8707
 -85.8702
 -85.806
 -85.8057
 -85.8515
 -85.8521
 -85.8509
 -85.8515
 -85.8162
 -85.8149
 -85.8135
 -85.8147
 -85.854
 -85.8543
 -85.8553
 -85.8547
 -85.8401
 -85.8372
 -85.8367
 -85.8365
 -85.8358
 -85.8586
 -85.8587
 -85.859
 -85.8594
 -85.8647
 -85.8642
 -85.8652
 -85.8645
 -85.8269
 -85.8269
 -85.8561
 -85.8566
 -85.858
 -85.8565
 -85.8492
 -85.8473
 -85.8495
 -85.8485
 -85.8332
 -85.8332
 -85.8326
 -85.8346
 -85.8442
 -85.8431
 -85.8429
 -85.8442
 -85.8613
 -85.8604
 -85.8624
 -85.8676
 -85.8673
 -85.8673
 -85.8672
 -85.8699
 -85.8699
 -85.8702
 -85.8377
 -85.8371
 -85.8373
 -85.838
 -85.8649
 -85.8645
 -85.8641
 -85.8641
 -85.8295
 -85.8288
 -85.8291
 -85.8292
 -85.8538
 -85.8533
 -85.8539
 -85.8526
 -85.8491
 -85.8504
 -85.8494
 -85.8494
 -85.8674
 -85.8675
 -85.8673
 -85.8679
 -85.8553
 -85.8556
 -85.8551
 -85.8545
 -85.8125
 -85.8119
 -85.8117
 -85.8126
 -85.8425
 -85.8407
 -85.8423
 -85.8413
 -85.8375
 -85.8387
 -85.8388
 -85.8373
 -85.858
 -85.8582
 -85.8574
 -85.8569
 -85.8306
 -85.8299
 -85.8296
 -85.8297
 -85.851
 -85.8502
 -85.8501
 -85.8513
 -85.8358
 -85.8353
 -85.8348
 -85.8225
 -85.8219
 -85.8217
 -85.8215
 -85.8509
 -85.8519
 -85.8505
 -85.8531
 -85.853
 -85.8525
 -85.8329
 -85.8321
 -85.8313
 -85.8297
 -85.8296
 -85.8301
 -85.8304
 -85.8644
 -85.7953
 -85.7958
 -85.7957
 -85.7948
 -85.8624
 -85.862
 -85.863
 -85.8623
 -85.8269
 -85.8393
 -85.8391
 -85.839
 -85.8401
 -85.8375
 -85.8367
 -85.8389
 -85.8314
 -85.833
 -85.8323
 -85.8318
 -85.8142
 -85.814
 -85.8148
 -85.8131
 -85.8293
 -85.83
 -85.8299
 -85.8481
 -85.8476
 -85.8475
 -85.8377
 -85.8373
 -85.8717
 -85.871
 -85.871
 -85.829
 -85.83
 -85.8287
 -85.8383
 -85.8392
 -85.8396
 -85.8648
 -85.8656
 -85.8656
 -85.8587
 -85.8587
 -85.8595
 -85.8589
 -85.8331
 -85.8335
 -85.834
 -85.8256
 -85.8246
 -85.8672
 -85.8668
 -85.8677
 -85.8674
 -85.8178
 -85.8183
 -85.8167
 -85.8191
 -85.8288
 -85.8284
 -85.8029
 -85.802
 -85.8091
 -85.8089
 -85.8094
 -85.839
 -85.8399
 -85.8387
 -85.8665
 -85.8658
 -85.8652
 -85.8557
 -85.8557
 -85.8564
 -85.8343
 -85.8342
 -85.8353
 -85.8359
 -85.8349
 -85.8639
 -85.8253
 -85.8253
 -85.8257
 -85.8258
 -85.8379
 -85.8398
 -85.8384
 -85.8386
 -85.8579
 -85.8579
 -85.8585
 -85.8553
 -85.8555
 -85.8549
 -85.8551
 -85.8391
 -85.8386
 -85.8397
 -85.8406
 -85.8567
 -85.8569
 -85.8579
 -85.8578
 -85.8591
 -85.8585
 -85.859
 -85.8598
 -85.845
 -85.8563
 -85.8568
 -85.8568
 -85.8572
 -85.8688
 -85.8691
 -85.8687
 -85.8683
 -85.8311
 -85.8293
 -85.8289
 -85.8301
 -85.8674
 -85.8681
 -85.8678
 -85.8676
 -85.8017
 -85.8024
 -85.8014
 -85.8663
 -85.8659
 -85.8671
 -85.8668
 -85.8317
 -85.8315
 -85.8304
 -85.8305
 -85.8608
 -85.8599
 -85.8606
 -85.8612
 -85.829
 -85.8291
 -85.8268
 -85.8274
 -85.8687
 -85.8607
 -85.8597
 -85.8602
 -85.8593
 -85.8645
 -85.8651
 -85.865
 -85.8255
 -85.8261
 -85.8253
 -85.825
 -85.8572
 -85.8566
 -85.8565
 -85.856
 -85.8506
 -85.8517
 -85.8518
 -85.8513
 -85.849
 -85.8495
 -85.8484
 -85.8481
 -85.8709
 -85.8702
 -85.8408
 -85.8408
 -85.8406
 -85.8391
 -85.8401
 -85.8405
 -85.8409
 -85.8567
 -85.8559
 -85.8575
 -85.8577
 -85.8559
 -85.8562
 -85.8561
 -85.857
 -85.8514
 -85.8518
 -85.8522
 -85.8511
 -85.8324
 -85.8323
 -85.8356
 -85.835
 -85.8349
 -85.8385
 -85.8393
 -85.8393
 -85.8394
 -85.823
 -85.8221
 -85.8225
 -85.8223
 -85.8381
 -85.8371
 -85.8362
 -85.8139
 -85.8139
 -85.8151
 -85.8381
 -85.838
 -85.8372
 -85.8388
 -85.8319
 -85.8332
 -85.8314
 -85.8444
 -85.8573
 -85.8568
 -85.858
 -85.8407
 -85.8406
 -85.8413
 -85.8419
 -85.8284
 -85.8284
 -85.8309
 -85.8297
 -85.8459
 -85.8468
 -85.8469
 -85.847
 -85.8601
 -85.8596
 -85.8709
 -85.8705
 -85.8702
 -85.8709
 -85.8571
 -85.8571
 -85.8577
 -85.8564
 -85.842
 -85.8419
 -85.8418
 -85.8425
 -85.8686
 -85.8687
 -85.8697
 -85.8682
 -85.8683
 -85.8685
 -85.8688
 -85.8468
 -85.8458
 -85.8451
 -85.8463
 -85.8281
 -85.8279
 -85.8286
 -85.8409
 -85.8408
 -85.8421
 -85.8409
 -85.8243
 -85.8231
 -85.8246
 -85.8229
 -85.854
 -85.854
 -85.8543
 -85.852
 -85.8272
 -85.8272
 -85.8272
 -85.8274
 -85.8333
 -85.8339
 -85.8341
 -85.8337
 -85.8667
 -85.8659
 -85.867
 -85.8661
 -85.8465
 -85.8465
 -85.8456
 -85.8466
 -85.8378
 -85.8372
 -85.8381
 -85.8372
 -85.8584
 -85.8584
 -85.8593
 -85.8606
 -85.8602
 -85.86
 -85.8397
 -85.8409
 -85.8405
 -85.842
 -85.8424
 -85.8431
 -85.8427
 -85.8427
 -85.8284
 -85.8289
 -85.8282
 -85.8389
 -85.8382
 -85.8375
 -85.7981
 -85.7971
 -85.7981
 -85.7975
 -85.834
 -85.8344
 -85.8253
 -85.8259
 -85.8254
 -85.8243
 -85.8494
 -85.8484
 -85.8493
 -85.8481
 -85.8145
 -85.8161
 -85.8165
 -85.8154
 -85.8311
 -85.8308
 -85.8299
 -85.855
 -85.8552
 -85.8551
 -85.8546
 -85.8304
 -85.8314
 -85.83
 -85.8277
 -85.8278
 -85.8266
 -85.827
 -85.8379
 -85.8374
 -85.8375
 -85.8386
 -85.8588
 -85.8609
 -85.8088
 -85.8094
 -85.8332
 -85.8325
 -85.8427
 -85.8417
 -85.8421
 -85.8419
 -85.8537
 -85.8546
 -85.8538
 -85.8549
 -85.8444
 -85.8445
 -85.845
 -85.8452
 -85.8247
 -85.8229
 -85.8242
 -85.8239
 -85.85
 -85.849
 -85.8493
 -85.8284
 -85.8279
 -85.8283
 -85.8282
 -85.8649
 -85.8647
 -85.8655
 -85.8644
 -85.8544
 -85.8544
 -85.8545
 -85.8534
 -85.8294
 -85.8301
 -85.8291
 -85.8421
 -85.8408
 -85.842
 -85.8425
 -85.825
 -85.8247
 -85.8252
 -85.8304
 -85.8317
 -85.8313
 -85.8306
 -85.8303
 -85.8301
 -85.8311
 -85.8304
 -85.8417
 -85.8407
 -85.8405
 -85.84
 -85.8687
 -85.8684
 -85.8679
 -85.8681
 -85.8515
 -85.8527
 -85.8522
 -85.8525
 -85.8409
 -85.8396
 -85.8405
 -85.8473
 -85.8469
 -85.8468
 -85.8642
 -85.863
 -85.8641
 -85.8634
 -85.8517
 -85.8517
 -85.8509
 -85.8523
 -85.84
 -85.8409
 -85.8411
 -85.8412
 -85.823
 -85.8232
 -85.8293
 -85.8288
 -85.8297
 -85.8297
 -85.8056
 -85.8052
 -85.8039
 -85.8053
 -85.8579
 -85.858
 -85.858
 -85.8575
 -85.8314
 -85.8303
 -85.8306
 -85.8305
 -85.8446
 -85.8437
 -85.8442
 -85.843
 -85.8208
 -85.8203
 -85.8204
 -85.8202
 -85.8479
 -85.8476
 -85.8471
 -85.847
 -85.8419
 -85.8564
 -85.8563
 -85.8553
 -85.8555
 -85.8402
 -85.8389
 -85.8386
 -85.8398
 -85.8392
 -85.8398
 -85.8406
 -85.8402
 -85.8366
 -85.8355
 -85.8357
 -85.8353
 -85.8288
 -85.8278
 -85.8294
 -85.8612
 -85.8614
 -85.8616
 -85.86
 -85.8393
 -85.8391
 -85.839
 -85.8387
 -85.8603
 -85.8606
 -85.8613
 -85.8548
 -85.854
 -85.8546
 -85.8543
 -85.8589
 -85.8603
 -85.8596
 -85.8605
 -85.8263
 -85.8274
 -85.8261
 -85.7947
 -85.7952
 -85.7953
 -85.8553
 -85.8565
 -85.8563
 -85.8481
 -85.8499
 -85.849
 -85.8501
 -85.8377
 -85.8382
 -85.8387
 -85.8376
 -85.841
 -85.8413
 -85.8399
 -85.8402
 -85.8115
 -85.8122
 -85.8103
 -85.8125
 -85.8447
 -85.8442
 -85.8441
 -85.844
 -85.8507
 -85.851
 -85.8517
 -85.8503
 -85.8313
 -85.8314
 -85.8339
 -85.832
 -85.8329
 -85.8331
 -85.8555
 -85.8547
 -85.8553
 -85.8551
 -85.8308
 -85.8316
 -85.8519
 -85.8515
 -85.8252
 -85.7969
 -85.7967
 -85.7968
 -85.7976
 -85.8205
 -85.8217
 -85.8698
 -85.8704
 -85.8699
 -85.8232
 -85.8242
 -85.8251
 -85.8242
 -85.8567
 -85.8565
 -85.8332
 -85.833
 -85.8331
 -85.8332
 -85.8364
 -85.8383
 -85.8376
 -85.8566
 -85.8572
 -85.8568
 -85.8578
 -85.8525
 -85.8535
 -85.8525
 -85.853
 -85.8622
 -85.8624
 -85.8633
 -85.8411
 -85.84
 -85.8412
 -85.8398
 -85.8444
 -85.8624
 -85.8613
 -85.8622
 -85.862
 -85.8257
 -85.8255
 -85.826
 -85.8264
 -85.8468
 -85.8458
 -85.8467
 -85.8457
 -85.858
 -85.8568
 -85.8577
 -85.857
 -85.8022
 -85.8026
 -85.8031
 -85.8033
 -85.8295
 -85.8686
 -85.8386
 -85.84
 -85.839
 -85.838
 -85.8463
 -85.8471
 -85.8459
 -85.8456
 -85.8316
 -85.8302
 -85.831
 -85.8313
 -85.8481
 -85.8477
 -85.8481
 -85.8484
 -85.8288
 -85.8289
 -85.8298
 -85.8274
 -85.8282
 -85.8289
 -85.8282
 -85.8406
 -85.8415
 -85.8398
 -85.8407
 -85.8581
 -85.8587
 -85.857
 -85.871
 -85.8715
 -85.871
 -85.8708
 -85.8109
 -85.8099
 -85.8096
 -85.8435
 -85.8436
 -85.8414
 -85.8419
 -85.8407
 -85.8423
 -85.866
 -85.8657
 -85.8658
 -85.8662
 -85.8554
 -85.8547
 -85.8552
 -85.8544
 -85.8287
 -85.8302
 -85.8292
 -85.8181
 -85.8401
 -85.839
 -85.8394
 -85.8402
 -85.8424
 -85.843
 -85.8427
 -85.8545
 -85.854
 -85.8541
 -85.8548
 -85.8586
 -85.8574
 -85.8583
 -85.8578
 -85.8389
 -85.8383
 -85.8559
 -85.8558
 -85.8564
 -85.857
 -85.8489
 -85.8485
 -85.8487
 -85.8496
 -85.868
 -85.8683
 -85.851
 -85.85
 -85.8511
 -85.8505
 -85.856
 -85.8564
 -85.8567
 -85.857
 -85.8545
 -85.8551
 -85.8544
 -85.8545
 -85.8438
 -85.8442
 -85.8407
 -85.8413
 -85.8404
 -85.8398
 -85.8359
 -85.835
 -85.8355
 -85.8356
 -85.8486
 -85.8494
 -85.8493
 -85.8487
 -85.8279
 -85.8287
 -85.8292
 -85.8297
 -85.8315
 -85.8312
 -85.8308
 -85.8312
 -85.808
 -85.8086
 -85.8084
 -85.8072
 -85.8358
 -85.8343
 -85.8474
 -85.8459
 -85.8471
 -85.8465
 -85.8388
 -85.8384
 -85.8392
 -85.8398
 -85.8456
 -85.8462
 -85.8466
 -85.846
 -85.8414
 -85.8414
 -85.8563
 -85.8558
 -85.8696
 -85.8697
 -85.8698
 -85.87
 -85.8241
 -85.8408
 -85.8408
 -85.8411
 -85.8418
 -85.8455
 -85.8443
 -85.8447
 -85.8447
 -85.834
 -85.8333
 -85.833
 -85.8321
 -85.8541
 -85.853
 -85.8541
 -85.853
 -85.8461
 -85.8454
 -85.8451
 -85.8461
 -85.8287
 -85.8284
 -85.8291
 -85.8278
 -85.8275
 -85.8376
 -85.839
 -85.8376
 -85.8386
 -85.8374
 -85.839
 -85.8377
 -85.8371
 -85.829
 -85.829
 -85.8282
 -85.829
 -85.8316
 -85.832
 -85.8334
 -85.8329
 -85.8416
 -85.8425
 -85.8409
 -85.8408
 -85.8291
 -85.8286
 -85.8283
 -85.8286
 -85.8477
 -85.8481
 -85.8467
 -85.8342
 -85.8342
 -85.834
 -85.8338
 -85.816
 -85.8168
 -85.8472
 -85.8478
 -85.8482
 -85.8464
 -85.8477
 -85.8472
 -85.8477
 -85.8258
 -85.8265
 -85.8269
 -85.8229
 -85.8234
 -85.8234
 -85.823
 -85.8517
 -85.8515
 -85.8521
 -85.851
 -85.8464
 -85.845
 -85.8465
 -85.8599
 -85.8586
 -85.8591
 -85.8429
 -85.8421
 -85.8423
 -85.8622
 -85.8623
 -85.8623
 -85.8051
 -85.8043
 -85.8045
 -85.8051
 -85.8681
 -85.8682
 -85.868
 -85.8683
 -85.8357
 -85.8349
 -85.8488
 -85.8477
 -85.8285
 -85.8286
 -85.8285
 -85.8294
 -85.8504
 -85.8501
 -85.8513
 -85.8569
 -85.8577
 -85.8576
 -85.8578
 -85.8619
 -85.8607
 -85.8259
 -85.826
 -85.8257
 -85.8476
 -85.8474
 -85.8466
 -85.8328
 -85.8318
 -85.8329
 -85.826
 -85.8259
 -85.8255
 -85.8252
 -85.8401
 -85.8404
 -85.8395
 -85.8408
 -85.8388
 -85.8376
 -85.838
 -85.8386
 -85.8533
 -85.8529
 -85.8528
 -85.8539
 -85.8567
 -85.8561
 -85.8565
 -85.8555
 -85.8374
 -85.8371
 -85.8383
 -85.8516
 -85.8514
 -85.8508
 -85.855
 -85.8558
 -85.8552
 -85.8554
 -85.8719
 -85.8716
 -85.872
 -85.8442
 -85.844
 -85.8439
 -85.8542
 -85.8547
 -85.8535
 -85.8428
 -85.8435
 -85.8423
 -85.835
 -85.8338
 -85.834
 -85.8261
 -85.8267
 -85.8264
 -85.8266
 -85.843
 -85.8427
 -85.8438
 -85.8429
 -85.8328
 -85.8323
 -85.8315
 -85.8283
 -85.8294
 -85.8539
 -85.8533
 -85.8548
 -85.8539
 -85.854
 -85.8546
 -85.8537
 -85.8529
 -85.8292
 -85.8303
 -85.8308
 -85.8311
 -85.8286
 -85.8277
 -85.8281
 -85.8275
 -85.8196
 -85.8191
 -85.8197
 -85.8187
 -85.8653
 -85.8657
 -85.8609
 -85.8599
 -85.8604
 -85.861
 -85.8678
 -85.8344
 -85.8355
 -85.8342
 -85.845
 -85.8454
 -85.8445
 -85.8444
 -85.8293
 -85.8292
 -85.842
 -85.8419
 -85.8427
 -85.8248
 -85.8252
 -85.8596
 -85.8597
 -85.8605
 -85.8591
 -85.8628
 -85.8626
 -85.8639
 -85.8633
 -85.8577
 -85.858
 -85.857
 -85.8355
 -85.8363
 -85.8362
 -85.862
 -85.8619
 -85.8622
 -85.8625
 -85.8326
 -85.8312
 -85.8323
 -85.8328
 -85.8586
 -85.8579
 -85.8579
 -85.8585
 -85.8329
 -85.8316
 -85.8314
 -85.8335
 -85.8267
 -85.8272
 -85.8262
 -85.868
 -85.8691
 -85.8685
 -85.8683
 -85.8275
 -85.828
 -85.8278
 -85.84
 -85.8405
 -85.8413
 -85.8405
 -85.8663
 -85.8671
 -85.8667
 -85.8325
 -85.8316
 -85.8326
 -85.8319
 -85.8515
 -85.8648
 -85.8652
 -85.8637
 -85.8646
 -85.8247
 -85.825
 -85.8254
 -85.825
 -85.8545
 -85.853
 -85.8541
 -85.8546
 -85.8444
 -85.8448
 -85.8433
 -85.8268
 -85.8261
 -85.8271
 -85.8246
 -85.8525
 -85.8524
 -85.853
 -85.8315
 -85.8312
 -85.8064
 -85.8053
 -85.8066
 -85.8071
 -85.8201
 -85.8179
 -85.8176
 -85.8624
 -85.862
 -85.8641
 -85.863
 -85.8629
 -85.8633
 -85.822
 -85.8225
 -85.8212
 -85.8227
 -85.8387
 -85.8392
 -85.8392
 -85.8395
 -85.8419
 -85.8405
 -85.8406
 -85.8411
 -85.8468
 -85.8464
 -85.8476
 -85.8465
 -85.8475
 -85.8459
 -85.847
 -85.8462
 -85.8663
 -85.8285
 -85.8281
 -85.8286
 -85.8282
 -85.8668
 -85.8664
 -85.8672
 -85.8485
 -85.8474
 -85.847
 -85.8473
 -85.826
 -85.8271
 -85.8274
 -85.8458
 -85.8449
 -85.8456
 -85.8448
 -85.8432
 -85.853
 -85.8533
 -85.8543
 -85.854
 -85.8332
 -85.8332
 -85.8332
 -85.8434
 -85.8452
 -85.8446
 -85.867
 -85.8666
 -85.8659
 -85.8665
 -85.8424
 -85.8419
 -85.8417
 -85.8023
 -85.8028
 -85.8016
 -85.8424
 -85.8416
 -85.8422
 -85.8407
 -85.8536
 -85.8545
 -85.8543
 -85.8442
 -85.8443
 -85.8622
 -85.8626
 -85.8618
 -85.8619
 -85.8578
 -85.8586
 -85.8581
 -85.858
 -85.8689
 -85.8688
 -85.8683
 -85.868
 -85.8472
 -85.8452
 -85.8466
 -85.8471
 -85.8558
 -85.8555
 -85.8552
 -85.8547
 -85.8622
 -85.8628
 -85.8633
 -85.832
 -85.8325
 -85.831
 -85.8316
 -85.8411
 -85.8421
 -85.8367
 -85.836
 -85.837
 -85.8365
 -85.8537
 -85.8535
 -85.8536
 -85.8541
 -85.8423
 -85.8433
 -85.843
 -85.8421
 -85.8532
 -85.8527
 -85.8541
 -85.8529
 -85.8439
 -85.8443
 -85.8449
 -85.8451
 -85.8429
 -85.842
 -85.8422
 -85.8612
 -85.8606
 -85.8612
 -85.8653
 -85.8651
 -85.8649
 -85.8662
 -85.8636
 -85.8635
 -85.8641
 -85.8561
 -85.8572
 -85.8562
 -85.81
 -85.8097
 -85.8089
 -85.841
 -85.8423
 -85.8412
 -85.8606
 -85.8611
 -85.8607
 -85.8605
 -85.8409
 -85.8414
 -85.8408
 -85.8475
 -85.8481
 -85.8478
 -85.847
 -85.8514
 -85.8493
 -85.8501
 -85.8499
 -85.8431
 -85.8439
 -85.8438
 -85.8446
 -85.8302
 -85.8309
 -85.8303
 -85.8299
 -85.8413
 -85.8475
 -85.8474
 -85.848
 -85.8461
 -85.8275
 -85.8277
 -85.8279
 -85.8278
 -85.8262
 -85.8271
 -85.8265
 -85.827
 -85.8287
 -85.8291
 -85.829
 -85.8283
 -85.8519
 -85.8519
 -85.8529
 -85.8535
 -85.832
 -85.8313
 -85.8317
 -85.832
 -85.8687
 -85.8679
 -85.8686
 -85.868
 -85.8178
 -85.8184
 -85.8192
 -85.819
 -85.8309
 -85.831
 -85.8308
 -85.8244
 -85.8237
 -85.8234
 -85.8234
 -85.8277
 -85.8271
 -85.8284
 -85.8282
 -85.8284
 -85.8449
 -85.8447
 -85.8453
 -85.8469
 -85.8655
 -85.8648
 -85.8645
 -85.8653
 -85.8652
 -85.8656
 -85.8649
 -85.8296
 -85.829
 -85.8676
 -85.8682
 -85.8674
 -85.8614
 -85.8612
 -85.8614
 -85.8621
 -85.8277
 -85.8272
 -85.8277
 -85.8684
 -85.8686
 -85.868
 -85.8689
 -85.8361
 -85.8365
 -85.8372
 -85.8356
 -85.829
 -85.8277
 -85.8283
 -85.8292
 -85.824
 -85.8254
 -85.8248
 -85.8245
 -85.8138
 -85.814
 -85.8132
 -85.8131
 -85.8498
 -85.8515
 -85.8508
 -85.8512
 -85.8372
 -85.8373
 -85.8369
 -85.8356
 -85.868
 -85.8674
 -85.868
 -85.8008
 -85.8021
 -85.8014
 -85.8027
 -85.8199
 -85.8211
 -85.8204
 -85.8215
 -85.8679
 -85.8688
 -85.8683
 -85.8683
 -85.8437
 -85.8438
 -85.8448
 -85.8633
 -85.8643
 -85.8646
 -85.8294
 -85.8292
 -85.8278
 -85.8682
 -85.8678
 -85.8676
 -85.8679
 -85.8613
 -85.8608
 -85.8606
 -85.8599
 -85.8333
 -85.8339
 -85.8347
 -85.8338
 -85.8373
 -85.8361
 -85.8371
 -85.8358
 -85.8583
 -85.8583
 -85.8584
 -85.8594
 -85.8462
 -85.8457
 -85.845
 -85.8454
 -85.8161
 -85.8173
 -85.8174
 -85.8171
 -85.8623
 -85.8607
 -85.8617
 -85.8613
 -85.869
 -85.8446
 -85.8449
 -85.8456
 -85.8455
 -85.8648
 -85.8653
 -85.8651
 -85.8659
 -85.8276
 -85.8276
 -85.8278
 -85.8278
 -85.8674
 -85.8679
 -85.8671
 -85.8668
 -85.8425
 -85.8422
 -85.8377
 -85.8372
 -85.838
 -85.8383
 -85.8575
 -85.8564
 -85.8564
 -85.8564
 -85.8475
 -85.8485
 -85.8482
 -85.837
 -85.8368
 -85.8372
 -85.8579
 -85.8577
 -85.8568
 -85.8569
 -85.8553
 -85.8548
 -85.8558
 -85.855
 -85.8298
 -85.8292
 -85.8289
 -85.8432
 -85.8453
 -85.8454
 -85.844
 -85.8179
 -85.8175
 -85.8188
 -85.8172
 -85.8161
 -85.8682
 -85.8667
 -85.8682
 -85.8672
 -85.8449
 -85.8444
 -85.8438
 -85.8449
 -85.8631
 -85.8637
 -85.8405
 -85.8389
 -85.839
 -85.8326
 -85.8317
 -85.8332
 -85.8329
 -85.8676
 -85.8673
 -85.868
 -85.8679
 -85.8288
 -85.829
 -85.8289
 -85.8333
 -85.833
 -85.8338
 -85.8331
 -85.8366
 -85.8379
 -85.837
 -85.8356
 -85.8534
 -85.8551
 -85.8539
 -85.8545
 -85.8315
 -85.8328
 -85.8321
 -85.8319
 -85.8567
 -85.8501
 -85.8513
 -85.8516
 -85.8498
 -85.8651
 -85.8654
 -85.8644
 -85.8668
 -85.8666
 -85.8665
 -85.866
 -85.8509
 -85.8515
 -85.8503
 -85.851
 -85.8699
 -85.8698
 -85.8698
 -85.869
 -85.8368
 -85.8482
 -85.8468
 -85.8468
 -85.8478
 -85.845
 -85.8433
 -85.8442
 -85.8445
 -85.814
 -85.8153
 -85.8157
 -85.8145
 -85.8417
 -85.842
 -85.8424
 -85.8411
 -85.84
 -85.8401
 -85.8405
 -85.8411
 -85.8408
 -85.841
 -85.8419
 -85.8633
 -85.8626
 -85.8623
 -85.84
 -85.8387
 -85.839
 -85.8395
 -85.8622
 -85.8634
 -85.8628
 -85.8435
 -85.8427
 -85.846
 -85.8467
 -85.8464
 -85.8457
 -85.8454
 -85.8457
 -85.8445
 -85.8447
 -85.8461
 -85.8456
 -85.8643
 -85.8646
 -85.8646
 -85.837
 -85.8663
 -85.8474
 -85.8482
 -85.8472
 -85.8463
 -85.8276
 -85.8275
 -85.8264
 -85.8301
 -85.8312
 -85.8317
 -85.8457
 -85.8461
 -85.845
 -85.8426
 -85.8426
 -85.8431
 -85.8437
 -85.845
 -85.8441
 -85.8456
 -85.8442
 -85.8014
 -85.8017
 -85.8005
 -85.858
 -85.857
 -85.8578
 -85.8425
 -85.8429
 -85.8601
 -85.859
 -85.8594
 -85.8589
 -85.8488
 -85.8497
 -85.8488
 -85.8144
 -85.8149
 -85.8134
 -85.8138
 -85.8398
 -85.8386
 -85.8397
 -85.8386
 -85.8306
 -85.8302
 -85.8297
 -85.8295
 -85.853
 -85.8517
 -85.8525
 -85.853
 -85.8353
 -85.8343
 -85.8351
 -85.8337
 -85.8179
 -85.8176
 -85.8177
 -85.8368
 -85.8364
 -85.8359
 -85.8361
 -85.8531
 -85.8542
 -85.8537
 -85.8539
 -85.8438
 -85.845
 -85.8451
 -85.8445
 -85.8322
 -85.8317
 -85.8323
 -85.8389
 -85.838
 -85.8384
 -85.8383
 -85.8303
 -85.8292
 -85.8304
 -85.8295
 -85.8248
 -85.8262
 -85.8258
 -85.8244
 -85.8674
 -85.8678
 -85.8675
 -85.8678
 -85.8292
 -85.8299
 -85.8297
 -85.8299
 -85.8316
 -85.8309
 -85.8319
 -85.8318
 -85.8514
 -85.8526
 -85.8523
 -85.853
 -85.836
 -85.8358
 -85.8368
 -85.8363
 -85.8714
 -85.8716
 -85.8715
 -85.8717
 -85.841
 -85.8404
 -85.8414
 -85.8268
 -85.8261
 -85.8264
 -85.8272
 -85.8288
 -85.8284
 -85.8287
 -85.8284
 -85.8289
 -85.8273
 -85.855
 -85.854
 -85.855
 -85.8537
 -85.8711
 -85.8706
 -85.8709
 -85.8707
 -85.8385
 -85.8375
 -85.8379
 -85.8374
 -85.83
 -85.8295
 -85.8294
 -85.8527
 -85.8516
 -85.8517
 -85.8525
 -85.8409
 -85.8408
 -85.8411
 -85.8421
 -85.8326
 -85.8328
 -85.8325
 -85.8334
 -85.826
 -85.8274
 -85.8266
 -85.8585
 -85.8595
 -85.8599
 -85.8587
 -85.8616
 -85.8615
 -85.8608
 -85.8386
 -85.8384
 -85.8391
 -85.8398
 -85.8395
 -85.839
 -85.8402
 -85.8321
 -85.8333
 -85.8339
 -85.8334
 -85.8523
 -85.8518
 -85.8512
 -85.8288
 -85.8288
 -85.8278
 -85.8445
 -85.8456
 -85.8452
 -85.8616
 -85.8605
 -85.8613
 -85.8541
 -85.8539
 -85.8364
 -85.837
 -85.8361
 -85.837
 -85.8374
 -85.8369
 -85.8422
 -85.8409
 -85.8327
 -85.8251
 -85.8252
 -85.8244
 -85.8626
 -85.8625
 -85.8612
 -85.8386
 -85.8395
 -85.8392
 -85.8385
 -85.8333
 -85.8439
 -85.8445
 -85.8527
 -85.853
 -85.8524
 -85.8534
 -85.8437
 -85.8428
 -85.844
 -85.8389
 -85.8394
 -85.8379
 -85.839
 -85.8366
 -85.8384
 -85.84
 -85.8391
 -85.8386
 -85.8405
 -85.8637
 -85.8629
 -85.8627
 -85.8634
 -85.8644
 -85.8649
 -85.8657
 -85.8655
 -85.8286
 -85.8294
 -85.8433
 -85.8433
 -85.8428
 -85.8419
 -85.8481
 -85.8483
 -85.8488
 -85.8492
 -85.851
 -85.8519
 -85.851
 -85.8508
 -85.8424
 -85.8416
 -85.8413
 -85.8425
 -85.8404
 -85.8412
 -85.8406
 -85.8402
 -85.8614
 -85.8602
 -85.8614
 -85.8613
 -85.8296
 -85.8308
 -85.8312
 -85.832
 -85.83
 -85.8312
 -85.8306
 -85.8582
 -85.859
 -85.8601
 -85.8605
 -85.8322
 -85.833
 -85.8326
 -85.8333
 -85.8663
 -85.8658
 -85.8663
 -85.8661
 -85.8621
 -85.8617
 -85.862
 -85.8614
 -85.8376
 -85.8382
 -85.8372
 -85.8377
 -85.8544
 -85.8547
 -85.8543
 -85.8533
 -85.833
 -85.8335
 -85.8343
 -85.8345
 -85.8578
 -85.8572
 -85.8575
 -85.8293
 -85.8298
 -85.8291
 -85.8296
 -85.8497
 -85.8492
 -85.8499
 -85.8503
 -85.8367
 -85.837
 -85.8566
 -85.8581
 -85.8574
 -85.8572
 -85.8585
 -85.8583
 -85.8576
 -85.8411
 -85.8425
 -85.8413
 -85.8595
 -85.8595
 -85.8599
 -85.8605
 -85.8188
 -85.8191
 -85.82
 -85.8197
 -85.8326
 -85.833
 -85.8338
 -85.8341
 -85.8498
 -85.8485
 -85.8486
 -85.8498
 -85.8642
 -85.8644
 -85.8639
 -85.8646
 -85.8621
 -85.8628
 -85.8629
 -85.8623
 -85.8642
 -85.8641
 -85.8644
 -85.8639
 -85.8643
 -85.8347
 -85.8353
 -85.8346
 -85.8356
 -85.8299
 -85.8302
 -85.8288
 -85.8297
 -85.8343
 -85.8343
 -85.8366
 -85.8376
 -85.8368
 -85.8366
 -85.8396
 -85.8395
 -85.8407
 -85.8395
 -85.8306
 -85.8307
 -85.8299
 -85.8452
 -85.8445
 -85.8447
 -85.8443
 -85.8717
 -85.8716
 -85.8711
 -85.8349
 -85.8347
 -85.8352
 -85.8363
 -85.8598
 -85.8585
 -85.8593
 -85.8596
 -85.8533
 -85.8544
 -85.854
 -85.8437
 -85.8431
 -85.8442
 -85.8543
 -85.8554
 -85.8543
 -85.8613
 -85.8607
 -85.8534
 -85.8535
 -85.8534
 -85.8332
 -85.8335
 -85.8337
 -85.8327
 -85.8653
 -85.8659
 -85.8654
 -85.8651
 -85.85
 -85.851
 -85.8504
 -85.8115
 -85.8101
 -85.8096
 -85.8112
 -85.8265
 -85.8259
 -85.8472
 -85.8367
 -85.8382
 -85.8372
 -85.8367
 -85.8451
 -85.8463
 -85.8462
 -85.8572
 -85.8573
 -85.8566
 -85.8573
 -85.8668
 -85.8671
 -85.8434
 -85.8431
 -85.8431
 -85.8424
 -85.825
 -85.824
 -85.824
 -85.8251
 -85.8625
 -85.863
 -85.8629
 -85.8626
 -85.8495
 -85.85
 -85.8493
 -85.8031
 -85.8024
 -85.8016
 -85.8017
 -85.8295
 -85.8293
 -85.8286
 -85.8346
 -85.8355
 -85.8339
 -85.8348
 -85.8495
 -85.8496
 -85.8491
 -85.8504
 -85.8435
 -85.8443
 -85.8271
 -85.8273
 -85.8272
 -85.8272
 -85.8503
 -85.8514
 -85.8347
 -85.8333
 -85.8339
 -85.8343
 -85.8386
 -85.839
 -85.8378
 -85.8386
 -85.8439
 -85.8451
 -85.8454
 -85.8445
 -85.8337
 -85.8331
 -85.832
 -85.853
 -85.8518
 -85.8531
 -85.852
 -85.8586
 -85.8594
 -85.8602
 -85.8588
 -85.8573
 -85.8574
 -85.8576
 -85.8583
 -85.8241
 -85.823
 -85.8237
 -85.8227
 -85.8446
 -85.8438
 -85.8083
 -85.8072
 -85.8075
 -85.8064
 -85.8384
 -85.8373
 -85.8368
 -85.8674
 -85.7979
 -85.7983
 -85.7983
 -85.7967
 -85.8421
 -85.8426
 -85.842
 -85.8421
 -85.8362
 -85.8372
 -85.8365
 -85.8578
 -85.8586
 -85.8587
 -85.8577
 -85.8582
 -85.8578
 -85.8589
 -85.8589
 -85.8571
 -85.8576
 -85.8568
 -85.8564
 -85.8335
 -85.8344
 -85.8331
 -85.8343
 -85.829
 -85.8285
 -85.8279
 -85.828
 -85.8509
 -85.851
 -85.852
 -85.8509
 -85.839
 -85.8376
 -85.8396
 -85.8387
 -85.8709
 -85.8645
 -85.8647
 -85.8487
 -85.8487
 -85.8395
 -85.8387
 -85.8389
 -85.8652
 -85.8663
 -85.8656
 -85.8654
 -85.8414
 -85.8409
 -85.8487
 -85.8479
 -85.8143
 -85.8156
 -85.8142
 -85.8155
 -85.8335
 -85.8331
 -85.8324
 -85.8328
 -85.85
 -85.8513
 -85.8502
 -85.8509
 -85.8166
 -85.8155
 -85.8165
 -85.817
 -85.8692
 -85.8688
 -85.8696
 -85.869
 -85.8645
 -85.8636
 -85.8666
 -85.8661
 -85.8654
 -85.8667
 -85.859
 -85.8598
 -85.837
 -85.8375
 -85.8366
 -85.7997
 -85.8008
 -85.7994
 -85.7996
 -85.8182
 -85.819
 -85.8193
 -85.8183
 -85.865
 -85.8656
 -85.865
 -85.8647
 -85.8547
 -85.8559
 -85.8552
 -85.846
 -85.8449
 -85.8442
 -85.8454
 -85.8347
 -85.8363
 -85.8351
 -85.8347
 -85.8615
 -85.8623
 -85.862
 -85.8653
 -85.8446
 -85.846
 -85.8332
 -85.8336
 -85.8531
 -85.8544
 -85.8529
 -85.8532
 -85.8289
 -85.8278
 -85.8294
 -85.8277
 -85.8282
 -85.8273
 -85.8277
 -85.8016
 -85.8033
 -85.803
 -85.8026
 -85.8345
 -85.8352
 -85.8351
 -85.8361
 -85.862
 -85.8621
 -85.8602
 -85.861
 -85.8607
 -85.8609
 -85.8328
 -85.8327
 -85.8336
 -85.8322
 -85.8573
 -85.8567
 -85.8576
 -85.8535
 -85.8535
 -85.8538
 -85.8529
 -85.8606
 -85.8611
 -85.8602
 -85.8614
 -85.8348
 -85.8358
 -85.8354
 -85.8349
 -85.8669
 -85.8659
 -85.8404
 -85.8117
 -85.8122
 -85.813
 -85.8135
 -85.8569
 -85.8568
 -85.8575
 -85.8183
 -85.8175
 -85.8178
 -85.817
 -85.853
 -85.8528
 -85.8528
 -85.8537
 -85.8271
 -85.8271
 -85.8261
 -85.8274
 -85.8311
 -85.8309
 -85.8317
 -85.8318
 -85.8517
 -85.8523
 -85.8524
 -85.8369
 -85.8373
 -85.8368
 -85.8361
 -85.8506
 -85.8503
 -85.851
 -85.8495
 -85.8477
 -85.8471
 -85.8592
 -85.8595
 -85.8594
 -85.8536
 -85.8538
 -85.8529
 -85.8112
 -85.8114
 -85.8125
 -85.8115
 -85.8287
 -85.8296
 -85.8283
 -85.8299
 -85.8616
 -85.8604
 -85.8606
 -85.8605
 -85.8596
 -85.8594
 -85.8316
 -85.8336
 -85.8318
 -85.8538
 -85.8527
 -85.8531
 -85.8524
 -85.8534
 -85.8532
 -85.8527
 -85.834
 -85.8335
 -85.8341
 -85.8343
 -85.8654
 -85.8656
 -85.8373
 -85.8369
 -85.8374
 -85.838
 -85.8328
 -85.8329
 -85.8333
 -85.8547
 -85.855
 -85.8431
 -85.8425
 -85.8432
 -85.844
 -85.828
 -85.8277
 -85.8513
 -85.8511
 -85.8378
 -85.8362
 -85.8365
 -85.8372
 -85.8453
 -85.8453
 -85.8446
 -85.8461
 -85.8453
 -85.8447
 -85.8453
 -85.8218
 -85.8218
 -85.8213
 -85.8234
 -85.8179
 -85.8179
 -85.8187
 -85.8186
 -85.8535
 -85.8527
 -85.8518
 -85.8526
 -85.8625
 -85.8626
 -85.8619
 -85.8619
 -85.8475
 -85.8481
