 14.9557
 14.8159
 14.8543
 14.7583
 12.2135
 12.1902
 12.1003
 12.0538
 12.9829
 13.0819
 12.9576
 13.0878
 12.8739
 12.9582
 13.0154
 13.0492
 11.1826
 11.0439
 11.2495
 11.2874
 11.2514
 11.3681
 11.1622
 11.3246
 15.4721
 15.5751
 15.542
 15.4727
 15.4372
 15.3945
 15.394
 15.4654
 11.1758
 11.2323
 11.3583
 11.2223
 11.2988
 11.279
 11.3273
 11.1253
 15.8128
 15.876
 15.7786
 15.7599
 12.936
 12.9267
 13.0285
 12.9606
 14.4335
 14.451
 14.5306
 14.3595
 12.1876
 12.349
 12.3986
 12.3004
 13.4483
 13.4699
 13.4054
 13.3236
 15.1481
 15.2233
 15.0944
 15.2198
 11.6802
 11.5895
 11.6754
 11.5323
 12.6592
 12.7285
 12.6288
 12.7058
 13.4377
 13.4151
 13.3975
 13.3319
 11.6511
 11.6614
 11.5992
 11.4991
 15.3747
 15.4903
 15.3669
 15.4495
 10.8496
 10.8495
 10.7084
 10.6857
 16.6232
 16.6838
 16.6834
 16.598
 12.4858
 12.4214
 12.5297
 12.55
 13.5954
 13.6599
 13.5566
 13.5315
 13.29
 13.274
 13.3342
 13.3681
 14.0561
 13.9459
 13.894
 14.0406
 15.1715
 15.2482
 15.157
 15.1624
 14.5003
 14.5281
 14.6238
 14.5642
 12.3149
 12.3362
 12.3787
 12.4609
 13.5339
 13.3582
 13.5626
 13.5061
 14.4238
 14.3364
 14.3441
 14.4193
 12.7381
 12.8612
 12.7337
 12.8381
 12.1762
 12.2338
 12.2343
 12.2185
 14.4374
 14.5489
 14.427
 14.5939
 15.0457
 15.0545
 15.0712
 15.0667
 12.7997
 12.9444
 12.8344
 12.8503
 15.6058
 15.5647
 15.5434
 15.5297
 12.5253
 12.509
 12.3114
 12.3603
 10.4527
 10.6007
 10.4974
 10.6283
 13.1621
 13.1969
 13.1423
 13.2822
 12.3896
 12.2909
 12.3324
 12.3939
 15.504
 15.5073
 15.42
 15.5728
 12.7147
 12.8133
 12.7708
 12.6631
 11.189
 11.2346
 11.1153
 11.1885
 14.7068
 14.6216
 14.6595
 14.6993
 12.7297
 12.5601
 12.6055
 12.5768
 15.0193
 14.9255
 14.9962
 15.0955
 14.4221
 14.4888
 14.5257
 14.5543
 13.4253
 13.5077
 13.5231
 13.6177
 15.191
 15.231
 15.2618
 15.1804
 13.228
 13.3259
 13.3127
 13.2471
 14.2324
 14.3429
 14.217
 14.3861
 13.1535
 13.0883
 13.1491
 13.0935
 14.5444
 14.4568
 14.5235
 14.3938
 13.0075
 13.0218
 12.9273
 13.0972
 12.4289
 12.4245
 12.3539
 12.2826
 12.3513
 12.4378
 12.3828
 12.5379
 14.6335
 14.659
 14.7736
 14.5917
 14.0007
 14.0571
 14.0512
 13.9231
 16.4607
 16.5082
 16.5632
 16.4956
 14.544
 14.5755
 14.6671
 14.5585
 13.5765
 13.4275
 13.5034
 13.4818
 14.2158
 14.2182
 14.0708
 14.2908
 14.3289
 14.2218
 14.3379
 14.24
 15.2859
 15.3445
 15.2642
 15.2641
 11.5875
 11.443
 11.3803
 11.5955
 11.2385
 11.1886
 11.1284
 11.0847
 13.3486
 13.2139
 13.439
 13.3612
 14.5041
 14.5338
 14.4649
 14.5902
 12.4915
 12.4432
 12.3791
 12.4993
 15.3265
 15.5289
 15.448
 15.4435
 15.3773
 15.4559
 15.4964
 15.3643
 16.6486
 16.7141
 16.6326
 16.6493
 13.0807
 12.9443
 13.0313
 12.9228
 14.6934
 14.5822
 14.5618
 14.6791
 14.9258
 14.9993
 14.88
 14.8693
 10.9813
 10.8361
 10.8899
 10.8171
 15.1354
 15.1829
 15.2624
 15.1581
 14.9436
 14.9952
 15.0535
 14.9502
 14.7606
 14.6849
 14.7747
 14.8552
 13.8234
 13.8474
 13.7562
 13.7705
 14.8741
 14.7589
 14.8437
 14.8057
 14.4409
 14.388
 14.3558
 14.4087
 13.9954
 14.0262
 14.0699
 14.1063
 15.0766
 15.1989
 15.0501
 15.188
 16.8723
 16.8868
 16.7847
 16.7834
 15.2978
 15.2611
 15.1971
 15.2506
 12.9859
 13.0711
 12.9536
 13.1254
 12.9697
 13.0198
 12.9282
 13.0365
 12.3846
 12.4698
 12.4832
 12.3817
 15.5265
 15.5402
 15.5098
 15.4666
 10.6939
 10.713
 10.815
 10.6158
 12.5336
 12.4278
 12.5541
 12.5166
 15.571
 15.5664
 15.6572
 15.6757
 14.38
 14.389
 14.4248
 14.2546
 14.9776
 14.9034
 15.0628
 15.0008
 14.9523
 15.0001
 15.0084
 15.4891
 15.5009
 15.5125
 15.5529
 12.7367
 12.8104
 12.8903
 12.6969
 14.0171
 13.8692
 13.9191
 13.9924
 12.9287
 12.812
 12.9132
 14.5126
 14.6521
 14.5581
 14.5978
 13.7635
 13.6695
 13.703
 13.8259
 11.7803
 11.9737
 11.9592
 11.7184
 15.3201
 15.3066
 15.1826
 15.2273
 15.0151
 15.0844
 15.1416
 15.0739
 13.0813
 13.2107
 13.2326
 13.1845
 12.5581
 12.6347
 12.4481
 12.4593
 15.4824
 15.4611
 15.5016
 15.5703
 15.0663
 15.0356
 14.8783
 14.9258
 14.103
 13.9823
 13.9145
 14.0845
 11.3371
 11.2553
 11.3012
 11.2748
 13.0321
 12.9057
 12.854
 12.9165
 13.6423
 13.8088
 13.6764
 13.6428
 16.4954
 16.5957
 16.4934
 16.4968
 13.9069
 13.9867
 13.8575
 13.7919
 11.7839
 11.923
 11.7838
 11.9601
 14.786
 14.9366
 14.7244
 14.764
 15.1006
 15.0815
 15.1799
 15.1219
 15.12
 15.2171
 15.1936
 15.1671
 15.9528
 15.9625
 15.9599
 15.914
 14.8379
 14.9896
 14.9759
 14.9796
 13.0499
 13.0583
 13.0401
 13.1309
 15.5328
 15.4973
 15.4674
 15.4332
 11.5605
 11.6756
 11.5741
 11.5398
 15.3608
 15.4816
 15.4712
 15.3697
 11.8482
 12.037
 11.8259
 11.9477
 14.0255
 14.1133
 14.1093
 14.0418
 14.2483
 14.1452
 14.1147
 14.2125
 14.6537
 14.6529
 14.513
 14.6157
 14.8587
 14.8591
 14.9488
 14.9688
 10.8415
 10.7103
 10.6703
 10.693
 14.776
 14.8449
 14.7744
 14.8296
 10.4761
 10.6008
 10.5164
 10.6938
 12.5254
 12.5688
 12.4225
 12.5312
 16.2374
 16.1376
 16.1575
 16.2391
 11.0519
 11.0749
 10.9785
 10.9329
 15.1416
 15.0419
 15.1353
 15.218
 16.1959
 16.2609
 16.2934
 16.2022
 12.1192
 12.1636
 12.229
 12.1714
 11.105
 10.9339
 11.0658
 11.1387
 13.3463
 13.3284
 13.374
 13.41
 12.2674
 12.4103
 12.2373
 12.3954
 15.0078
 15.1261
 15.0578
 15.0886
 13.141
 13.1888
 13.1481
 13.0466
 14.3358
 14.3635
 14.2807
 14.2714
 15.4092
 15.3583
 15.4326
 15.4335
 15.7548
 15.7747
 15.7843
 15.6923
 13.967
 14.0071
 13.9033
 14.0445
 13.6449
 13.6613
 13.6898
 13.7658
 15.0427
 15.0566
 14.9757
 14.9622
 15.0465
 15.1892
 15.0609
 15.0739
 12.8983
 12.8735
 12.9599
 12.9655
 11.2108
 11.3061
 11.1204
 11.0819
 11.465
 11.5395
 11.4368
 11.4011
 11.5356
 11.6754
 11.6428
 11.5631
 12.5988
 12.6726
 12.5646
 12.6759
 15.0478
 15.1908
 15.0845
 15.1241
 14.9972
 14.9202
 14.8941
 14.8772
 13.658
 13.7251
 13.8377
 13.8648
 12.5701
 12.631
 12.4675
 12.553
 12.6164
 12.6825
 12.632
 12.5435
 13.3845
 13.4903
 13.4073
 13.3846
 13.0141
 12.9118
 13.0374
 13.0182
 15.6218
 15.6324
 15.5777
 15.4894
 17.1831
 17.2439
 17.1729
 17.2749
 14.763
 14.7724
 14.8828
 14.8166
 16.9358
 16.8381
 16.8608
 14.8354
 14.8616
 14.7956
 14.9088
 11.6097
 11.6943
 11.637
 11.7193
 13.4959
 13.4452
 13.4103
 13.3222
 11.3626
 11.4215
 11.2845
 11.4453
 15.0829
 15.0677
 15.182
 15.0913
 12.6385
 12.6437
 12.4486
 12.4993
 13.3541
 13.3799
 13.5045
 13.4232
 10.8975
 10.8138
 10.7818
 11.0231
 12.1006
 12.1279
 12.0726
 11.9648
 14.7346
 14.6317
 14.7014
 14.7384
 12.5971
 12.6102
 12.7234
 12.5818
 11.8854
 12.0751
 11.9762
 12.0441
 16.1717
 16.2832
 16.2529
 16.2762
 13.5232
 13.4824
 13.4086
 13.3936
 11.8785
 11.8288
 11.8155
 11.9275
 12.9327
 12.8282
 13.0084
 12.7596
 11.8798
 12.0165
 11.8654
 11.8731
 14.9529
 14.8559
 14.8017
 14.8193
 12.0444
 11.8229
 12.0676
 11.8669
 14.0187
 13.9609
 14.1324
 14.0214
 13.8095
 13.7671
 13.6958
 13.8357
 12.1047
 12.1563
 12.243
 12.0426
 10.5219
 10.6307
 10.636
 10.5583
 15.6495
 15.5934
 15.5382
 15.5043
 14.4829
 14.3812
 14.3327
 14.4578
 13.0789
 13.1564
 13.2043
 13.1717
 12.16
 12.0709
 12.1025
 12.0585
 14.731
 14.8214
 14.7784
 14.7681
 15.4457
 15.3367
 15.2836
 15.4225
 12.5322
 12.5241
 12.6843
 12.6662
 12.8209
 12.7199
 12.8275
 12.7803
 11.0195
 10.8993
 10.7943
 11.0084
 15.2077
 15.075
 15.2341
 15.1503
 11.1554
 11.0302
 11.0509
 11.1323
 14.4909
 14.3821
 14.4678
 14.5022
 17.1179
 17.1285
 17.083
 17.0642
 11.5756
 11.5171
 11.4271
 11.4971
 12.7659
 12.6996
 12.8332
 12.9343
 11.6753
 11.6567
 11.7431
 11.7496
 13.7322
 13.8592
 13.7775
 13.7228
 13.9773
 13.9229
 13.8994
 13.9623
 12.2604
 12.4132
 12.4017
 12.3471
 15.0647
 15.0128
 15.1158
 15.0416
 15.267
 15.2108
 15.1982
 15.25
 16.6016
 16.6466
 16.6609
 16.6786
 13.2756
 13.204
 13.1504
 13.1046
 13.617
 13.6621
 13.4762
 13.6032
 12.9934
 13.1778
 13.0398
 12.9565
 14.4187
 14.2647
 14.2485
 14.4393
 11.1177
 11.1218
 11.0418
 11.2621
 11.0813
 10.8695
 11.0796
 11.1089
 12.8868
 12.8315
 12.7384
 12.7283
 17.7254
 17.74
 17.7084
 17.6506
 14.0166
 14.0822
 13.9979
 14.1409
 13.9676
 13.9955
 14.1185
 13.9953
 14.0255
 13.9981
 14.1374
 14.1288
 12.1166
 12.1727
 12.0087
 12.1842
 16.3733
 16.269
 16.4285
 16.3751
 16.6547
 16.6698
 16.7308
 16.7731
 12.0072
 12.1014
 12.0099
 12.1485
 14.5822
 14.4485
 14.6321
 14.4717
 14.2611
 14.2862
 14.2402
 14.2352
 12.7316
 12.7803
 12.8298
 12.9421
 15.1988
 15.1396
 15.1024
 15.1589
 12.0489
 12.1489
 12.136
 12.0339
 14.3917
 14.5761
 14.4936
 14.639
 14.5431
 14.5553
 14.6459
 14.5741
 15.4588
 15.5155
 15.4092
 15.5231
 14.1317
 13.9959
 14.0688
 13.9751
 11.8112
 11.7456
 11.7607
 11.848
 12.6416
 12.5119
 12.465
 12.5836
 15.1622
 15.1749
 15.0844
 15.0853
 14.7513
 14.6208
 14.621
 14.7459
 11.4686
 11.4119
 11.3188
 11.3839
 12.1474
 12.2534
 12.1951
 12.2233
 13.9211
 13.9658
 14.0341
 13.9612
 15.5735
 15.5493
 15.5551
 15.5142
 15.9998
 15.8523
 15.8867
 15.9836
 12.8394
 12.9701
 13.0232
 12.9142
 15.3368
 15.4316
 15.341
 15.5309
 11.6077
 11.7693
 11.7594
 11.6205
 13.0987
 12.9352
 13.0288
 13.1266
 12.0552
 12.0964
 12.146
 12.0748
 12.5699
 12.7249
 12.7084
 12.6139
 13.9984
 14.0662
 13.9898
 13.9169
 14.9623
 15.143
 15.102
 15.023
 15.8374
 15.69
 15.8176
 15.8046
 15.4941
 15.6227
 15.4835
 15.5234
 14.993
 15.1037
 15.1234
 15.0569
 13.8291
 13.7878
 13.7871
 13.9799
 13.8518
 13.7781
 13.8031
 13.8979
 13.7321
 13.8276
 13.6463
 13.7451
 12.9392
 13.0064
 12.8872
 12.9095
 16.288
 16.3904
 16.3387
 16.3478
 13.4407
 13.4063
 13.4595
 13.338
 15.1816
 15.2871
 15.24
 15.2161
 14.2816
 14.1347
 14.2423
 14.1634
 11.1944
 11.4196
 11.2315
 11.2974
 13.8147
 13.8715
 13.8764
 13.9265
 15.3657
 15.4235
 15.3905
 15.5019
 14.2289
 14.2593
 14.1681
 14.1108
 14.9344
 14.8753
 14.8802
 14.9729
 13.9174
 14.0589
 13.9192
 14.0347
 16.2346
 16.3129
 16.2752
 16.1969
 14.284
 14.2737
 14.1909
 14.1747
 12.8217
 12.8544
 12.7596
 12.86
 12.9754
 12.9627
 12.9152
 12.9548
 11.35
 11.608
 11.4071
 11.5022
 14.7229
 14.7368
 14.6327
 14.7059
 14.9615
 14.8906
 14.9786
 14.7844
 11.3194
 11.5032
 11.3273
 11.3626
 14.9355
 14.9327
 14.8238
 14.9302
 11.8744
 11.92
 11.7774
 11.9343
 13.4471
 13.2797
 13.3788
 13.3003
 13.8524
 14.0154
 13.8649
 13.8268
 15.0329
 14.9191
 14.9321
 15.0347
 13.9271
 13.9219
 13.7794
 13.9114
 11.8344
 11.8698
 11.8174
 11.8019
 17.1901
 17.1565
 17.1306
 17.2491
 15.6167
 15.64
 15.6406
 15.6066
 15.507
 15.4849
 15.5101
 15.5826
 14.5766
 14.5258
 14.6345
 14.4822
 14.2928
 14.384
 14.3169
 14.3703
 14.6981
 14.7618
 14.7868
 14.6909
 10.9998
 11.0611
 10.8411
 11.0734
 15.0752
 15.1471
 15.1413
 14.9962
 13.0276
 13.0239
 12.9789
 13.1103
 13.7588
 12.0481
 12.1849
 12.1715
 12.2033
 13.1607
 13.0537
 12.966
 13.0513
 15.7253
 15.6703
 15.6484
 15.6902
 14.4791
 14.5255
 14.4371
 14.3675
 14.7777
 14.8874
 14.8154
 14.8098
 11.7783
 11.9205
 11.8943
 11.8786
 14.1702
 14.3366
 14.2191
 14.2655
 11.6391
 11.6206
 11.7663
 11.7434
 12.6267
 12.5511
 12.6835
 12.5193
 15.6791
 15.6092
 15.6488
 15.5231
 15.0187
 15.1296
 14.9469
 15.0247
 12.9389
 12.8576
 12.8388
 12.9288
 13.893
 14.034
 13.8764
 15.4367
 15.4841
 15.4416
 15.3957
 12.8428
 13.0602
 12.9124
 13.0123
 14.8219
 14.9496
 14.9259
 14.8725
 13.9341
 14.0979
 14.0108
 13.9188
 11.5054
 11.5062
 11.7075
 11.5424
 14.5955
 14.64
 14.7062
 14.6152
 12.0928
 12.2605
 12.1311
 12.078
 13.7291
 13.8168
 13.7361
 13.8683
 12.3145
 12.4002
 12.5131
 12.4353
 11.664
 11.6625
 11.5051
 11.5762
 14.5234
 14.5405
 14.4523
 14.4607
 17.1276
 17.0015
 17.0114
 16.9478
 10.7856
 10.875
 10.8806
 10.8982
 12.9507
 13.0128
 13.0562
 12.9815
 15.1972
 15.2108
 15.0153
 15.1664
 14.2599
 14.1648
 14.153
 14.2644
 16.1087
 16.0821
 16.0963
 16.1741
 11.636
 11.5507
 11.387
 11.5138
 15.4987
 15.5676
 15.5314
 15.5182
 13.3319
 13.22
 13.3834
 13.2999
 15.0942
 15.2906
 15.1332
 15.1481
 10.6639
 10.6868
 10.6781
 10.8256
 10.8488
 10.8852
 10.9767
 11.0702
 12.5132
 12.6318
 12.6696
 12.4813
 13.2619
 13.2184
 13.2503
 13.3437
 13.2325
 15.2863
 15.2672
 15.3825
 15.3084
 15.1504
 15.1899
 15.2257
 15.1197
 12.8052
 12.6929
 12.6862
 12.6719
 15.3493
 15.2609
 15.2606
 15.3545
 14.9264
 14.9647
 14.9767
 14.8798
 12.5581
 12.51
 12.5271
 12.6517
 14.4567
 14.323
 14.4554
 14.328
 12.8061
 12.7956
 12.7855
 12.6926
 14.8784
 14.9031
 14.986
 14.8981
 14.6115
 14.5427
 14.5139
 14.5039
 14.065
 13.9471
 14.1049
 13.9899
 13.3022
 13.1665
 13.2376
 13.1102
 12.2014
 12.2669
 12.0707
 12.106
 13.4208
 13.4558
 13.5205
 13.5053
 13.4567
 13.3889
 13.3633
 13.3869
 15.7403
 15.7425
 15.6847
 15.6508
 13.0009
 12.991
 12.9267
 12.9744
 13.7744
 13.7507
 13.6917
 13.7744
 13.6407
 13.6571
 13.7355
 13.6695
 14.4594
 14.4322
 14.5459
 14.4702
 15.4348
 15.447
 15.3905
 15.5329
 12.4341
 12.4745
 12.4092
 12.3614
 15.3976
 15.4732
 15.4469
 15.3232
 11.0127
 11.0241
 10.8349
 10.9476
 12.1836
 12.2749
 12.1151
 12.1747
 12.1304
 12.1085
 12.0972
 12.1483
 11.9127
 11.9717
 11.9846
 11.8381
 12.6413
 12.5825
 12.6985
 12.584
 16.1165
 16.1734
 16.2684
 13.5027
 13.6678
 13.5285
 13.5459
 12.2472
 12.3075
 12.3447
 12.2629
 14.5155
 14.6385
 14.5738
 14.5456
 14.8986
 14.8617
 14.9408
 14.8504
 12.5799
 12.5562
 12.467
 12.6898
 14.0779
 14.1092
 14.072
 13.9629
 14.8006
 14.7918
 14.8401
 14.8496
 11.0507
 10.8701
 13.037
 13.0528
 13.1817
 13.1627
 14.0182
 14.0599
 14.1229
 13.4162
 13.3746
 13.3909
 13.5147
 15.8565
 15.8973
 15.7889
 15.8025
 12.0927
 12.0018
 12
 12.1498
 13.4614
 13.4919
 13.562
 13.5446
 14.5261
 14.6183
 14.5608
 14.4637
 13.5583
 13.6757
 13.6391
 13.5858
 15.3997
 15.4532
 15.3587
 15.4052
 15.6216
 15.4494
 15.5757
 15.5424
 14.0795
 13.9902
 13.9529
 14.0194
 15.3256
 15.3482
 15.3395
 15.26
 13.9236
 13.9835
 13.9596
 14.003
 11.9128
 11.9472
 12.0915
 12.1067
 15.2801
 15.219
 15.174
 15.2426
 16.5687
 16.4823
 16.5269
 16.481
 13.095
 13.3165
 13.1896
 13.1329
 14.2154
 14.1351
 14.2358
 14.1374
 15.3965
 15.4129
 15.3104
 15.3311
 14.0165
 14.0737
 13.9527
 13.9728
 11.6226
 11.6658
 11.5858
 11.6104
 14.9955
 15.0038
 15.0561
 15.0078
 13.2018
 13.2691
 13.266
 13.309
 14.2828
 14.1515
 14.2375
 14.0833
 12.6856
 12.5935
 12.6012
 12.5126
 11.9893
 11.9972
 11.9286
 12.048
 15.2138
 15.128
 15.1841
 15.0351
 14.6426
 14.5612
 14.5822
 14.6077
 13.2825
 13.2949
 13.4437
 13.3473
 15.4495
 15.4083
 15.4248
 15.3924
 17.1322
 17.213
 17.2064
 17.1594
 13.5784
 13.6772
 13.6846
 13.6902
 17.3217
 17.3448
 17.3
 17.2412
 17.1659
 17.0716
 17.0701
 17.1143
 15.8197
 15.7578
 15.7662
 15.8482
 12.9739
 13.0595
 13.134
 13.1756
 13.0523
 12.944
 12.9428
 12.8584
 12.8623
 12.9672
 12.8886
 13.0203
 13.1531
 13.2822
 13.2562
 13.106
 16.2263
 16.2982
 16.2479
 16.2667
 15.2261
 15.2798
 15.1657
 15.2072
 15.2209
 15.3505
 15.3335
 15.3032
 14.4166
 14.295
 14.4094
 14.2831
 13.4334
 13.5046
 13.4302
 13.4826
 12.6899
 12.7025
 12.759
 12.6547
 15.0724
 14.9568
 14.9374
 15.0522
 12.9424
 14.0385
 13.9563
 13.9535
 14.0233
 10.814
 10.7826
 10.6178
 10.7198
 14.19
 14.1885
 14.1022
 14.1822
 11.7066
 11.5465
 11.6634
 15.3079
 15.2466
 15.212
 15.327
 16.9322
 16.8489
 16.8786
 16.8266
 13.8659
 13.8829
 13.7503
 13.9473
 14.4719
 14.6119
 14.5807
 14.5983
 15.3321
 15.2597
 15.2003
 15.1753
 15.1443
 15.1066
 15.1987
 15.0966
 15.9305
 16.0748
 15.9882
 15.9914
 13.3134
 13.3313
 13.2465
 13.084
 13.9226
 13.8071
 13.9501
 13.8587
 14.7566
 14.846
 14.7597
 14.7936
 14.0632
 14.1518
 13.9334
 12.4183
 12.4915
 12.5164
 14.9727
 14.9649
 15.095
 15.1174
 15.9705
 16.0119
 16.0093
 15.974
 14.7881
 14.7198
 14.7242
 14.8126
 15.8487
 15.9393
 15.8303
 15.9774
 12.4096
 12.2139
 12.358
 12.3216
 12.5196
 12.4717
 12.4323
 12.3582
 15.4539
 15.4943
 15.4759
 15.4895
 16.0308
 16.153
 16.074
 16.0386
 13.5419
 13.6952
 13.5695
 13.6316
 11.2002
 11.318
 11.1325
 11.2872
 15.9267
 15.9282
 15.9801
 15.92
 12.9342
 13.0604
 13.0653
 12.9095
 16.638
 16.6921
 16.6278
 16.6689
 12.6899
 12.6097
 12.7224
 12.5127
 14.3415
 14.4287
 14.2945
 14.4593
 12.4249
 12.4206
 12.288
 12.3053
 15.3322
 15.2974
 15.2758
 15.1801
 14.5394
 14.6292
 14.6144
 14.6239
 14.9021
 14.9394
 14.8333
 14.834
 14.8419
 14.8853
 14.7631
 14.9305
 13.5888
 13.5142
 13.5297
 13.6331
 14.1487
 14.2454
 14.1356
 14.1424
 12.225
 12.3407
 12.3996
 12.3458
 10.9857
 10.8679
 11.1277
 11.1443
 14.2479
 14.26
 14.3425
 14.2707
 11.9238
 11.9683
 12.0326
 11.8364
 12.7585
 12.5879
 12.5278
 12.6074
 16.2382
 16.2902
 16.3784
 16.2578
 15.4202
 15.2461
 15.2785
 15.3335
 14.3726
 14.4499
 14.4806
 14.4339
 15.8986
 15.9677
 15.9873
 16.0334
 13.4761
 13.35
 13.3674
 13.4224
 12.4066
 12.1864
 12.3084
 12.2785
 15.8399
 15.7074
 15.8297
 15.8416
 14.0243
 13.9314
 13.999
 13.9802
 14.8071
 14.8222
 14.8185
 14.8714
 17.0879
 17.0236
 17.0001
 17.075
 14.5754
 14.5937
 14.5977
 14.504
 13.9343
 13.8617
 13.8834
 13.8436
 12.8723
 12.7612
 12.836
 12.7258
 14.93
 14.9056
 14.8858
 13.9142
 13.9348
 13.9639
 13.9403
 14.6258
 14.6794
 14.4964
 14.6018
 13.0548
 13.1669
 13.063
 13.1208
 12.9966
 12.8585
 12.9039
 12.9094
 11.6812
 11.7792
 11.7134
 11.8675
 15.148
 15.1541
 15.0782
 15.1733
 11.2234
 11.1861
 11.1333
 11.194
 14.9806
 14.8875
 14.9714
 15.0267
 13.9342
 13.8096
 13.8259
 13.7601
 13.7976
 13.9254
 13.874
 13.9465
 17.2391
 17.315
 17.2412
 17.2648
 14.6694
 14.7342
 14.6596
 14.6416
 13.9652
 13.995
 13.8867
 13.7617
 14.063
 14.033
 14.0092
 14.1617
 10.7857
 10.7955
 10.9313
 10.8368
 14.9858
 14.8748
 14.8111
 14.9549
 14.8493
 14.9124
 14.7917
 14.94
 12.7619
 12.6223
 12.7283
 12.6724
 15.2544
 15.2746
 15.3329
 15.3437
 15.2874
 15.3079
 15.2443
 15.3183
 13.0611
 13.2103
 13.0756
 13.1663
 13.0358
 13.0269
 13.1338
 13.0257
 13.7031
 13.6882
 13.5162
 13.5883
 14.8835
 14.9357
 13.331
 13.4243
 13.2792
 13.3987
 14.8703
 14.8113
 14.8746
 14.8429
 14.3134
 14.1974
 14.1562
 14.1907
 11.6423
 11.7254
 11.7814
 11.6316
 14.1978
 14.1637
 14.1081
 14.0857
 12.5516
 12.4638
 12.4145
 12.5848
 15.0313
 14.8631
 14.922
 14.8728
 14.4914
 14.5936
 14.6061
 14.5623
 14.0044
 13.804
 13.9076
 13.8952
 15.2076
 15.2977
 15.3325
 15.2652
 16.5078
 16.4634
 16.515
 16.5596
 11.4005
 11.4317
 11.4977
 11.4441
 15.8565
 15.8596
 15.8165
 15.8912
 13.4017
 13.3562
 13.4747
 13.4683
 16.5062
 16.4925
 16.456
 16.5498
 13.406
 13.2867
 13.3624
 13.3778
 14.9741
 14.986
 15.0235
 15.0037
 15.0126
 14.9809
 15.0825
 15.0212
 13.6331
 13.5907
 13.7214
 13.644
 12.1375
 12.2659
 12.1521
 12.2915
 14.5231
 14.3565
 14.3833
 14.3856
 15.4802
 15.5137
 15.4746
 15.4255
 12.1704
 11.9864
 12.0739
 11.9441
 14.9376
 14.9965
 14.873
 14.8601
 14.4359
 14.3307
 14.3607
 14.2951
 12.708
 12.4665
 12.525
 12.6011
 13.7583
 13.6502
 13.6157
 13.6141
 14.11
 14.1501
 14.0948
 14.0327
 11.6408
 11.5597
 11.4828
 11.433
 12.1542
 12.0985
 12.1138
 12.1744
 13.5366
 13.5102
 13.6623
 13.6051
 14.1296
 14.0681
 14.1775
 13.9475
 14.6713
 14.6356
 14.6322
 14.4938
 15.4689
 15.475
 15.5538
 12.5341
 12.4696
 12.4772
 12.3909
 16.5523
 16.6078
 16.6954
 16.6681
 12.8755
 13.0238
 12.9444
 12.9781
 15.1307
 15.262
 15.1894
 15.1797
 15.3575
 15.4635
 15.4313
 15.445
 11.8903
 12.0198
 11.958
 11.7834
 13.8087
 13.8733
 13.7686
 13.8446
 14.0321
 14.0707
 14.8823
 14.2643
 14.1521
 14.2878
 14.212
 16.5179
 16.4418
 13.0795
 13.0354
 12.9955
 15.6302
 15.5828
 15.7043
 15.6312
 12.9704
 13.1012
 13.0613
 13.0537
 14.4222
 14.3176
 14.3484
 14.3613
 14.9187
 14.7605
 14.8537
 14.8333
 11.7748
 11.7735
 11.6052
 11.7275
 15.6156
 15.5214
 15.6238
 15.5114
 13.2374
 13.2418
 13.1976
 13.1282
 11.3951
 11.3724
 11.5347
 11.5368
 13.813
 13.9381
 13.8419
 13.9194
 13.1534
 13.3368
 13.2797
 13.2805
 14.035
 13.9444
 14.0285
 14.1942
 10.7965
 11.0688
 10.8355
 11.0642
 11.0519
 11.0358
 11.1121
 11.2344
 11.3078
 11.3794
 11.3878
 11.2945
 14.3073
 14.4001
 14.2905
 14.3054
 13.4705
 13.626
 13.5638
 13.5002
 14.147
 14.1616
 14.2403
 14.1792
 14.3688
 14.3936
 14.2665
 14.4083
 12.9507
 12.9185
 12.9017
 13.0414
 12.1964
 12.059
 12.125
 12.0347
 12.1345
 12.0831
 12.2118
 12.0174
 13.7634
 13.7044
 13.7893
 13.7138
 14.1062
 14.0989
 14.1418
 14.1939
 15.0043
 15.0602
 15.027
 14.9131
 12.609
 12.5024
 12.4934
 12.6481
 15.8398
 15.8289
 15.9231
 15.8124
 12.5203
 12.4515
 12.5198
 12.5352
 13.6332
 13.4429
 13.6139
 13.4848
 13.6753
 13.6499
 13.6517
 13.7586
 15.5174
 15.5255
 15.5692
 15.6484
 17.446
 17.3838
 17.4745
 17.4633
 14.628
 14.5228
 14.6263
 14.6047
 12.4685
 12.612
 12.5525
 12.469
 15.3283
 15.4253
 15.3544
 15.2858
 13.4472
 13.3819
 13.5233
 13.3853
 13.3258
 13.2394
 13.1248
 13.1654
 12.7319
 12.667
 12.8487
 12.7972
 16.04
 16.0877
 16.0942
 16.0182
 16.0186
 16.002
 16.048
 16.0693
 12.4133
 12.2336
 12.2904
 12.3282
 12.9411
 13.1132
 13.1369
 13.0264
 14.7099
 14.6939
 14.7536
 14.7519
 13.9987
 14.0289
 13.9238
 13.8666
 13.6921
 13.6669
 13.6724
 13.7406
 14.7071
 14.7914
 14.6135
 14.7581
 13.1779
 13.2611
 13.224
 13.3136
 10.292
 10.4756
 10.3391
 10.3118
 13.3718
 13.2181
 13.2391
 13.1633
 13.9767
 13.924
 14.002
 13.8685
 13.9293
 13.9342
 14.0302
 13.9343
 13.6654
 13.5816
 13.6506
 13.7502
 11.2436
 11.2457
 11.3647
 11.2594
 12.2546
 12.3718
 12.3019
 13.2047
 13.1977
 13.1367
 13.2201
 15.4655
 15.4796
 15.3853
 15.4855
 14.3328
 14.3326
 14.4172
 14.2973
 12.1729
 12.3386
 12.3934
 12.3301
 15.0023
 14.9601
 14.9421
 14.8975
 14.5227
 14.5951
 14.6039
 14.492
 14.37
 14.4236
 14.5434
 14.4338
 12.951
 13.0397
 13.0701
 13.0509
 13.5987
 13.6898
 13.5883
 13.7814
 13.1979
 13.4006
 13.3241
 13.2889
 15.2818
 15.2265
 15.2186
 15.2618
 14.4893
 14.4195
 14.3958
 14.5003
 13.0684
 13.1547
 13.0445
 12.9377
 14.5431
 14.4982
 14.4376
 14.5887
 13.3743
 13.2547
 13.2593
 13.318
 15.3294
 15.3674
 15.3037
 15.3846
 11.5518
 11.5102
 11.6531
 11.5533
 15.04
 15.1051
 15.0045
 14.9666
 15.1297
 15.3195
 15.2016
 15.2006
 12.7033
 12.6988
 12.6101
 12.5826
 15.0515
 15.0302
 15.0092
 15.018
 13.3498
 13.4092
 13.3538
 13.472
 15.5637
 15.5573
 15.6747
 15.6537
 13.669
 13.7293
 13.7075
 13.5913
 11.7305
 11.5134
 11.689
 11.5736
 13.5919
 13.7499
 13.7486
 13.6725
 12.8008
 12.7489
 12.7919
 12.8082
 13.3504
 13.3932
 13.3549
 13.2997
 13.3711
 13.337
 13.2972
 13.2119
 11.3359
 11.3067
 11.2579
 11.4675
 15.2171
 15.2806
 15.3341
 15.3429
 15.0893
 15.1343
 15.225
 15.14
 11.9841
 11.9662
 12.0538
 11.8651
 11.7881
 11.7146
 11.7941
 14.7827
 14.8285
 14.8328
 14.7556
 13.3574
 13.2235
 13.3371
 13.3571
 13.4437
 13.4063
 13.5262
 13.3906
 15.1271
 15.0416
 15.1841
 15.1114
 12.7344
 12.6493
 12.6784
 12.6487
 14.0718
 14.1881
 14.1786
 14.0506
 13.6321
 13.758
 13.7387
 13.7807
 12.6299
 12.5364
 12.5123
 12.5416
 15.5505
 15.5923
 15.5424
 15.4917
 14.7444
 14.8648
 14.8424
 14.8328
 11.2436
 11.4505
 11.2897
 11.3439
 15.2172
 15.2336
 15.1997
 15.0563
 15.549
 15.5967
 15.5753
 15.5647
 14.0475
 13.9984
 14.0549
 13.9047
 16.5233
 16.4932
 16.5517
 16.4356
 13.7954
 13.7733
 13.831
 13.7843
 12.5299
 12.5938
 12.6282
 12.6494
 12.1377
 12.2192
 12.1835
 15.6309
 15.6177
 15.5913
 15.6253
 14.9981
 14.8822
 15.0183
 14.9073
 15.126
 15.1617
 15.1991
 15.2377
 14.8393
 14.9182
 14.868
 14.8968
 11.127
 11.0325
 10.9793
 11.0141
 15.4765
 15.4687
 15.5025
 15.5646
 14.9013
 14.9831
 14.9162
 14.8061
 12.2478
 12.1814
 12.2583
 12.313
 14.5239
 14.5672
 14.4933
 14.8031
 14.9163
 14.8337
 13.5317
 13.6476
 13.7328
 16.3333
 16.2335
 16.2166
 16.298
 13.7756
 13.7166
 13.7684
 13.673
 13.8029
 13.7486
 13.9086
 13.8701
 11.9365
 11.86
 11.9971
 12.0233
 11.6163
 11.6718
 11.4278
 11.6512
 15.2071
 15.2866
 15.2978
 15.138
 13.5228
 13.3924
 13.3952
 13.4163
 13.4946
 13.4058
 13.3544
 13.393
 14.0365
 13.8994
 13.9599
 13.8639
 14.5806
 14.5266
 14.5197
 14.6514
 13.5525
 13.6599
 13.6002
 13.5357
 15.2546
 15.2306
 15.2772
 15.2016
 11.8579
 11.908
 11.849
 11.813
 14.8625
 14.8796
 14.8273
 14.7791
 12.1316
 12.253
 12.1837
 12.144
 11.4958
 11.5816
 11.6543
 11.5205
 11.7115
 11.7575
 11.7542
 11.7886
 15.0269
 15.0994
 12.9046
 12.9248
 13.0112
 12.9535
 15.1555
 15.0228
 15.0918
 15.1319
 12.5647
 12.3519
 12.4283
 12.3825
 12.0979
 12.2228
 12.0544
 12.2072
 14.6552
 14.5903
 14.572
 14.628
 13.6242
 13.6328
 13.5284
 13.5834
 14.8573
 14.8473
 14.7743
 14.8455
 14.2598
 14.2578
 14.2418
 14.147
 16.9809
 16.8495
 17.0038
 16.8871
 11.7645
 11.8366
 11.6588
 11.7955
 14.7897
 14.8892
 14.7679
 14.7302
 15.6222
 15.6976
 15.6935
 15.5912
 14.1405
 14.1852
 14.0822
 14.0388
 15.5273
 15.6578
 15.6831
 15.5305
 14.2356
 14.3582
 14.3808
 14.2915
 12.8522
 12.8951
 12.7528
 12.9361
 13.9597
 14.0349
 14.0358
 13.9888
 11.9273
 11.72
 11.9263
 14.1234
 14.015
 14.172
 14.0435
 17.0275
 17.0678
 17.0646
 17.1034
 10.9864
 10.9361
 10.8874
 10.994
 13.7334
 13.7438
 13.6773
 13.7614
 12.5779
 12.6641
 12.7595
 12.633
 15.2647
 15.1739
 15.3939
 15.2973
 14.5852
 14.5043
 14.6747
 14.5799
 14.5932
 14.4414
 14.5182
 14.4465
 11.6857
 11.78
 11.666
 11.584
 14.4755
 14.561
 14.6195
 14.5895
 11.0347
 11.0823
 10.9956
 11.1578
 12.9411
 13.0724
 13.0764
 12.9296
 15.2182
 15.1949
 15.1551
 15.2095
 16.5694
 16.5463
 16.4722
 16.5979
 14.2302
 14.3816
 14.2914
 14.4084
 13.9087
 13.9119
 13.814
 13.9336
 12.7305
 12.7404
 12.8038
 12.914
 16.9106
 16.9851
 16.871
 16.9318
 14.2194
 14.3031
 14.161
 14.1998
 11.3106
 11.3952
 11.4223
 11.3891
 12.3781
 12.2654
 12.31
 12.3522
 12.303
 12.3279
 12.2069
 12.3622
 12.3251
 12.4296
 12.4591
 12.4072
 12.2817
 12.1189
 12.2192
 12.2294
 13.3913
 13.343
 13.3965
 13.3989
 15.0975
 14.9273
 14.8197
 14.7965
 14.8716
 13.0804
 13.2272
 13.1762
 13.175
 13.1076
 13.0728
 13.2247
 13.2087
 15.9806
 15.9304
 15.9381
 15.98
 12.0147
 12.0175
 12.0792
 12.0193
 12.5872
 12.4847
 12.368
 12.4517
 15.2375
 15.0889
 15.1169
 14.9493
 14.9515
 14.9733
 14.9154
 14.848
 14.8709
 14.8047
 15.0338
 15.15
 15.293
 15.2102
 13.1019
 12.9739
 13.0072
 13.1337
 11.2859
 11.2498
 11.3177
 11.25
 13.933
 13.9826
 13.9032
 14.0405
 11.5664
 11.7798
 11.8341
 11.8535
 14.1975
 14.2257
 14.2691
 14.1537
 13.0546
 13.1654
 13.2341
 13.216
 15.1181
 15.1352
 15.1574
 15.2344
 13.5875
 13.4504
 13.6328
 13.522
 13.3662
 13.2363
 13.1674
 13.3569
 15.0505
 15.0968
 15.1878
 15.1414
 14.5162
 14.5836
 14.3815
 14.4476
 14.1399
 14.1548
 14.2384
 14.2997
 13.4867
 13.4388
 13.4858
 13.4255
 15.7491
 15.7429
 15.7072
 15.6338
 13.187
 13.3111
 13.2456
 13.1606
 14.5004
 14.6302
 14.4794
 14.4264
 12.9182
 12.9415
 12.9197
 13.002
 11.8879
 12.0064
 11.9111
 11.9652
 11.5841
 11.6733
 11.6634
 11.6259
 11.583
 11.4987
 11.7241
 11.005
 10.9141
 10.8545
 10.7906
 12.2697
 12.4085
 12.5351
 12.3643
 13.9385
 13.9628
 13.8825
 13.9
 11.4642
 11.5461
 11.6262
 11.4865
 13.8063
 13.8013
 13.867
 13.8816
 13.414
 13.3518
 13.3844
 11.8564
 11.7304
 11.8041
 11.8144
 11.877
 12.0142
 11.9575
 13.5501
 13.5802
 13.4891
 13.4598
 14.5625
 14.5132
 14.5788
 14.439
 13.0012
 13.0957
 13.1282
 13.1459
 11.6507
 11.5585
 11.6291
 11.6833
 14.8761
 14.91
 14.8665
 14.9613
 14.0132
 14.0518
 14.1263
 14.1592
 13.8286
 13.6654
 13.8259
 13.8244
 12.8254
 12.9433
 12.864
 12.8578
 14.9419
 15.0126
 14.87
 14.9922
 15.2986
 15.3796
 15.2904
 15.2982
 13.927
 13.9278
 13.9441
 13.8406
 11.0769
 11.1572
 11.1713
 11.1498
 14.7968
 14.9141
 14.7818
 14.8543
 15.197
 15.1158
 15.2312
 15.1185
 13.229
 13.3797
 13.2248
 13.2503
 14.8278
 14.7755
 14.8375
 15.2929
 15.2055
 15.2443
 13.4611
 13.5537
 13.3719
 13.5111
 15.1403
 15.1851
 15.2549
 15.147
 15.2091
 15.3214
 15.2273
 15.2337
 13.1686
 13.1372
 13.1969
 15.019
 15.0338
 12.027
 11.9953
 11.8221
 11.7997
 12.9989
 12.8283
 12.8349
 12.8859
 15.7864
 15.7161
 15.8468
 15.6871
 16.3527
 16.3105
 16.4213
 16.321
 14.7602
 14.9445
 14.8366
 14.8217
 11.8396
 11.8413
 11.7668
 11.8221
 12.9864
 13.0708
 13.1246
 13.0769
 15.594
 15.6173
 15.6241
 15.6383
 14.8375
 14.8322
 14.7743
 14.7138
 14.8053
 14.7753
 14.7992
 15.0722
 15.0007
 14.9893
 14.9927
 15.0055
 15.0809
 14.9888
 14.9564
 15.2597
 15.3753
 15.286
 15.3547
 11.5207
 11.3868
 11.492
 11.479
 11.4981
 11.3784
 11.579
 13.9894
 14.0652
 13.9737
 14.0955
 14.8634
 14.994
 14.8445
 14.879
 10.9959
 10.8859
 15.2839
 15.356
 15.3361
 15.3976
 13.6197
 13.4327
 13.5529
 13.4617
 13.2847
 13.3298
 15.1495
 15.1703
 15.0732
 15.143
 11.4634
 11.3615
 11.5153
 11.2746
 11.128
 11.2329
 11.1466
 10.9396
 14.1792
 14.1323
 14.1684
 15.9501
 15.8705
 15.9053
 14.9581
 14.8292
 14.9682
 14.939
 12.5772
 12.6963
 12.4941
 12.6736
 14.5892
 14.6593
 14.693
 14.7516
 14.7539
 14.81
 14.7153
 14.8266
 13.0591
 13.0546
 13.0134
 12.8713
 16.8326
 16.7608
 16.8402
 16.9108
 12.7642
 12.7448
 12.6311
 12.6479
 12.6922
 12.7065
 12.6043
 12.5651
 15.3108
 15.3027
 15.4429
 15.3405
 11.9151
 11.8282
 11.8126
 11.9438
 16.997
 17.0922
 17.0961
 17.1623
 11.5392
 11.7804
 11.7773
 11.7765
 12.1771
 12.3004
 14.7442
 14.6721
 14.6878
 14.6159
 15.4166
 15.5169
 15.4566
 15.3812
 12.0035
 11.8843
 11.901
 11.9571
 14.6321
 14.6095
 14.6168
 14.6812
 11.0289
 11.1129
 11.0585
 14.9071
 14.9964
 15.0275
 15.5447
 15.4288
 15.4013
 11.6379
 11.5612
 11.6044
 11.657
 14.8919
 14.9554
 14.96
 14.9471
 11.9419
 11.9288
 15.59
 15.5142
 15.5905
 15.565
 13.8652
 13.746
 13.7547
 13.838
 14.7728
 14.8153
 14.3689
 14.1679
 14.1851
 14.2984
 14.69
 14.7041
 14.6947
 14.8024
 11.123
 11.0032
 11.2015
 11.1486
 15.4825
 15.5307
 15.5086
 12.3285
 16.9479
 16.981
 16.9714
 17.0049
 11.9587
 11.9211
 11.8554
 12.0674
 14.743
 14.7314
 14.5556
 14.6051
 12.7041
 12.7707
 12.7506
 12.7203
 14.7143
 14.7905
 14.8352
 14.7422
 13.1139
 15.9687
 15.9968
 15.9975
 15.9564
 13.0742
 13.0801
 13.1076
 13.1997
 12.2411
 12.1869
 12.1121
 12.3429
 12.2989
 12.4386
 12.287
 11.9213
 11.7668
 11.8812
 11.8535
 15.2532
 15.22
 15.1031
 15.1649
 11.8731
 11.8716
 11.8928
 11.7713
 15.5952
 15.6129
 15.5944
 15.6956
 11.9967
 11.9198
 11.8779
 11.8742
 14.0477
 14.1085
 14.1227
 14.1487
 12.7671
 12.6957
 12.6546
 12.6261
 13.5501
 13.6073
 13.6419
 13.6738
 11.4518
 11.6338
 13.7775
 13.8786
 13.8548
 13.7795
 15.8678
 15.91
 15.7913
 15.9064
 15.5643
 15.6043
 15.4703
 15.5854
 13.5644
 13.4714
 13.4509
 13.4443
 12.6888
 12.6969
 12.7089
 12.5601
 12.4316
 12.5507
 12.4736
 12.4026
 11.7639
 11.9043
 11.8658
 11.959
 12.4464
 12.2846
 12.3748
 12.4414
 15.5366
 15.5507
 15.4852
 15.6125
 15.1624
 15.1746
 15.1938
 15.0518
 10.8897
 11.0035
 11.0489
 11.0338
 13.4157
 13.3504
 13.3881
 13.2164
 15.0236
 14.8957
 15.0092
 14.9457
 16.6045
 16.616
 16.5154
 16.665
 11.9099
 11.8511
 11.9653
 11.7279
 14.9884
 14.9576
 14.9327
 14.8681
 14.2842
 14.1941
 14.345
 14.262
 15.6986
 15.7234
 15.7065
 15.6302
 13.2089
 13.2772
 13.2248
 13.2187
 11.6474
 11.6368
 11.6914
 11.6501
 13.3842
 13.5576
 13.4937
 13.5223
 14.18
 14.1395
 14.0481
 14.1061
 15.7968
 15.7452
 15.6987
 15.8351
 11.6066
 12.9078
 12.8216
 12.9627
 12.8183
 14.2519
 14.3059
 14.3978
 14.3441
 12.5932
 12.5243
 12.5477
 12.435
 14.9846
 15.0852
 15.0266
 14.9639
 13.2782
 13.1935
 13.3248
 15.8519
 15.7105
 15.8158
 15.8142
 12.2117
 12.4377
 12.303
 12.3693
 15.4451
 15.465
 15.3894
 15.4469
 10.4687
 10.5286
 10.4842
 10.3908
 15.0122
 14.9979
 14.9791
 15
 16.4041
 16.2042
 16.2272
 16.3029
 15.8825
 15.894
 15.8182
 15.8108
 10.9403
 11.0295
 11.0695
 11.1216
 11.4448
 11.4545
 11.385
 11.3676
 13.9894
 13.8927
 13.9334
 13.8741
 14.8738
 14.913
 14.8476
 13.6658
 13.682
 13.8268
 13.7759
 12.9648
 13.03
 12.883
 12.8936
 13.5814
 13.3676
 13.4399
 13.467
 13.8079
 13.7852
 13.5936
 13.6843
 10.8886
 10.9916
 10.9909
 11.0442
 15.2297
 15.2739
 15.1211
 15.2278
 15.844
 15.9952
 15.9804
 12.6686
 12.74
 12.7292
 12.7997
 12.0911
 11.9728
 12.0439
 12.068
 14.979
 14.9904
 14.9586
 15.1877
 15.168
 15.1067
 15.2595
 11.7634
 11.8422
 11.7087
 11.9044
 14.0355
 14.0648
 13.9515
 14.0302
 15.1069
 15.2173
 15.1279
 15.1343
 14.2967
 14.3568
 14.3474
 14.2705
 12.2352
 12.2261
 12.3406
 12.2279
 14.9679
 14.8323
 15.0297
 14.8776
 14.1754
 14.3464
 14.3126
 14.2323
 14.7062
 14.5782
 14.6688
 11.4998
 11.526
 11.6057
 11.6235
 13.9149
 13.9143
 13.9839
 13.856
 10.8399
 10.908
 10.6468
 13.7668
 13.6947
 13.7346
 13.7658
 15.7301
 15.6564
 15.7783
 15.7357
 13.4264
 13.4014
 13.342
 13.2388
 13.8341
 13.6843
 13.8733
 14.9406
 14.9191
 14.821
 14.8599
 15.4976
 15.4651
 15.5308
 15.438
 15.0026
 14.9367
 14.8743
 15.0073
 16.4597
 16.4302
 16.3475
 16.3338
 14.4286
 14.4521
 14.4987
 14.5131
 14.7347
 14.7808
 14.6384
 14.8043
 11.5982
 11.7924
 11.7529
 11.5358
 15.4417
 15.3141
 15.3551
 15.3857
 13.1315
 13.1747
 13.1021
 13.0466
 11.0782
 11.0469
 11.1266
 11.1966
 11.0527
 11.2448
 11.1575
 11.1158
 12.3554
 12.2792
 12.3451
 12.3277
 11.0504
 10.869
 10.8876
 11.135
 11.654
 11.6472
 11.6646
 10.7976
 11.0169
 10.9594
 10.9593
 15.7475
 15.7962
 15.7504
 15.83
 14.268
 14.4028
 14.4228
 14.3815
 14.6338
 14.5135
 14.6072
 14.5096
 14.567
 14.6344
 14.6288
 14.6598
 11.5181
 11.6083
 11.4967
 11.4693
 14.3901
 14.3854
 14.4855
 14.5072
 14.9622
 15.0786
 15.0943
 14.9948
 12.7994
 12.8326
 12.7114
 12.8765
 14.8225
 14.7319
 14.8263
 14.7363
 12.6327
 12.7287
 12.7805
 13.6783
 13.5597
 13.5291
 11.77
 11.9151
 11.9187
 11.8639
 14.2878
 14.2445
 14.3268
 14.3266
 13.1146
 13.2207
 13.1827
 13.0862
 14.5996
 14.7297
 14.674
 14.5638
 10.8232
 10.9075
 11.2847
 11.3359
 11.3867
 11.2159
 15.8077
 15.8466
 15.8444
 15.9078
 13.1167
 13.0261
 12.9995
 12.9113
 14.9303
 14.8267
 14.931
 14.9824
 17.2897
 17.4196
 17.2962
 17.3362
 14.97
 15.019
 15.0827
 15.0087
 12.741
 12.8588
 12.7459
 15.4889
 15.5028
 15.3709
 15.3824
 11.1517
 11.2915
 11.1269
 11.2551
 14.9512
 14.9053
 14.939
 14.8893
 13.2415
 13.1242
 13.1626
 13.2305
 15.6443
 15.62
 15.7159
 15.6439
 16.7462
 16.7277
 16.7093
 16.6655
 15.1134
 15.0302
 15.1136
 15.1432
 14.4122
 14.4564
 14.3738
 13.5297
 13.7165
 13.5353
 13.6131
 15.2785
 15.2628
 15.3546
 12.5434
 12.5977
 12.5114
 12.4333
 12.3523
 12.1798
 12.3653
 12.2171
 12.7855
 12.929
 12.8213
 12.7953
 11.3147
 11.6076
 11.512
 11.4643
 12.3961
 12.4593
 12.3657
 14.6899
 14.6142
 14.635
 14.5792
 12.5482
 12.6617
 12.9961
 13.1029
 13.143
 13.059
 12.7894
 12.8347
 12.8063
 12.7388
 15.0369
 14.9917
 15.0141
 15.1017
 15.0335
 14.9537
 15.0269
 14.9445
 17.3088
 17.2495
 17.2273
 17.2682
 15.036
 14.9465
 15.0358
 14.6132
 14.6541
 14.6813
 14.6438
 13.7984
 13.7984
 13.8604
 13.8839
 14.6303
 14.5293
 14.5208
 14.594
 15.7485
 15.6932
 15.7658
 15.7623
 12.1881
 12.3668
 12.2377
 12.3136
 14.0276
 13.9457
 14.0211
 14.1011
 11.708
 11.7109
 11.7511
 11.661
 13.552
 13.6482
 13.5579
 13.6282
 11.4206
 11.3449
 11.4027
 16.6558
 16.5732
 16.5991
 16.5949
 12.8214
 12.632
 12.7772
 12.7584
 14.1309
 14.2238
 14.1099
 14.1616
 15.1961
 15.2673
 14.5993
 14.5733
 14.5181
 14.5417
 14.2405
 14.3679
 14.3458
 11.7092
 11.6644
 11.7896
 11.7004
 11.5691
 11.6445
 11.7465
 11.703
 15.2561
 15.2803
 15.2192
 15.2707
 14.0968
 14.1247
 14.8417
 14.74
 14.8076
 14.8943
 12.4569
 12.5649
 12.362
 12.3514
 15.7106
 15.6853
 15.7231
 15.6551
 15.116
 15.088
 15.1711
 15.1806
 14.8883
 14.7757
 14.725
 14.7817
 13.6749
 13.6869
 13.6968
 13.5297
 12.683
 12.6949
 12.7694
 12.783
 12.4256
 12.4918
 12.5892
 12.4815
 17.0094
 17.0248
 17.0611
 17.0906
 15.467
 15.3705
 15.33
 13.4733
 13.6757
 13.5557
 13.3753
 13.2857
 13.3944
 13.2495
 11.6245
 11.5233
 11.5995
 11.4814
 13.9725
 14.9306
 14.9297
 15.0306
 15.0179
 13.0142
 13.0796
 13.1799
 13.1329
 12.273
 12.415
 12.408
 12.2536
 12.1882
 12.1753
 15.2618
 15.3068
 15.351
 15.3642
 13.7563
 13.6612
 13.6938
 13.6508
 15.5648
 15.5975
 15.5682
 15.5262
 13.308
 14.4464
 14.5097
 14.3449
 14.3063
 14.6605
 14.5901
 14.5454
 14.6147
 11.6228
 11.7599
 11.376
 11.2743
 11.203
 11.3145
 16.1598
 16.2412
 16.1921
 16.1605
 12.419
 12.4038
 12.556
 12.3595
 13.3819
 13.5162
 13.4507
 13.3247
 16.8679
 16.8403
 16.8423
 16.9048
 13.8354
 13.8328
 13.7768
 13.8891
 13.9301
 14.0528
 14.1234
 14.1209
 15.2256
 15.3206
 15.1821
 15.2275
 10.9862
 10.8485
 10.8379
 10.812
 14.0337
 14.1497
 14.139
 14.7148
 14.6123
 14.6071
 14.7044
 11.2873
 11.1116
 11.2444
 11.2209
 14.7574
 14.8205
 14.9024
 14.7393
 14.1641
 14.087
 12.15
 12.1573
 12.0535
 12.2614
 13.5153
 13.4959
 13.3602
 13.3607
 11.3251
 11.4007
 11.2426
 11.3284
 14.1023
 13.9296
 15.0872
 15.0512
 15.0267
 15.0312
 14.7926
 14.7724
 14.7005
 14.6669
 12.02
 11.996
 12.1515
 12.0957
 12.4152
 12.479
 12.365
 12.3737
 12.4833
 12.6203
 12.4976
 12.5101
 14.7849
 14.6552
 14.7076
 14.7732
 16.2297
 16.2925
 16.2655
 16.2343
 11.0365
 10.8921
 11.0228
 10.9559
 15.2886
 15.2831
 15.2702
 15.2168
 13.6005
 13.5055
 13.492
 13.5738
 14.5398
 14.3796
 14.4913
 14.4328
 13.6055
 13.7407
 13.6157
 13.1368
 12.9975
 13.1292
 12.9597
 13.9221
 13.8431
 13.8976
 13.9904
 12.7287
 12.6763
 12.5868
 12.7557
 12.7172
 12.7656
 12.7119
 12.9065
 16.8451
 16.7205
 16.8384
 15.6043
 15.5091
 15.4532
 15.4926
 13.5671
 13.6454
 13.6129
 13.6218
 12.1907
 12.0493
 12.1253
 12.0464
 14.9013
 15.031
 14.9035
 14.8656
 14.8009
 14.7913
 13.3366
 13.404
 13.3257
 13.32
 13.66
 13.5495
 13.5189
 13.5018
 10.2502
 10.2863
 10.3627
 10.2041
 15.8568
 15.8177
 15.8838
 15.9955
 12.6
 12.5766
 14.4064
 14.3022
 14.2877
 14.398
 12.8411
 12.7726
 12.7848
 12.7536
 13.3975
 13.3766
 13.2999
 13.3368
 14.3042
 14.2958
 14.1971
 14.372
 13.0367
 12.9263
 12.9547
 12.9392
 15.2507
 15.2064
 15.2206
 15.143
 15.5286
 15.6188
 15.5154
 15.5653
 12.1621
 12.1082
 12.0232
 11.8412
 13.6329
 13.5773
 13.4877
 16.3395
 16.3851
 16.3072
 11.9655
 11.8943
 11.8741
 11.8267
 11.8241
 11.8671
 11.9249
 11.9336
 13.8703
 13.8461
 13.824
 13.758
 11.6165
 11.5334
 11.5655
 11.5528
 11.2418
 11.0754
 11.2205
 11.0594
 14.2481
 14.1976
 14.1125
 14.2242
 12.2562
 12.1947
 12.1472
 12.1594
 10.3454
 10.2989
 10.4351
 10.2729
 12.5073
 12.4916
 12.5666
 12.385
 13.529
 13.6912
 13.6206
 13.7313
 12.0529
 11.9784
 12.0765
 12.1098
 12.8393
 12.8664
 12.7839
 13.2072
 13.1055
 16.0085
 15.9973
 16.0299
 16.0631
 13.2424
 13.1288
 13.1561
 13.1792
 16.1806
 16.1587
 16.142
 16.1381
 16.0643
 16.0816
 15.9849
 15.9509
 13.4215
 13.3681
 13.3573
 13.4592
 14.4358
 14.4364
 14.5272
 14.3897
 13.0286
 12.9041
 12.936
 12.9511
 13.7933
 13.8738
 15.6602
 15.713
 15.6886
 15.6062
 11.1566
 11.1081
 11.0421
 11.1493
 14.371
 14.4534
 14.2855
 14.3554
 11.9118
 11.9573
 12.0566
 11.9756
 15.6374
 15.714
 15.6367
 15.6739
 11.7438
 11.5392
 11.6031
 11.5706
 13.2058
 13.3603
 13.2391
 13.2574
 14.8617
 14.9633
 15.0386
 14.9803
 10.5905
 10.658
 10.6418
 10.7414
 14.6955
 14.5724
 14.6672
 14.6973
 14.1965
 14.3543
 14.2481
 14.3074
 11.1344
 11.1101
 11.2323
 11.1024
 13.8683
 14.0287
 13.9845
 13.9892
 12.0812
 11.9842
 12.0422
 12.0932
 12.0954
 12.1851
 12.1462
 14.1684
 14.3591
 14.2715
 14.3109
 12.1756
 12.0589
 12.1362
 12.097
 15.3399
 15.2295
 15.2409
 15.3456
 11.8665
 11.7837
 11.7933
 11.8525
 11.9232
 11.9685
 11.8932
 11.948
 15.1221
 15.1446
 14.9577
 15.0561
 15.0601
 15.1011
 15.0004
 15.145
 17.6306
 17.6063
 17.6809
 17.662
 12.3924
 12.5348
 12.5158
 15.9993
 15.8698
 15.8718
 15.9257
 11.3905
 11.497
 11.4712
 11.4464
 15.1501
 11.9703
 12.0982
 12.0541
 11.9575
 11.968
 12.0663
 12.0747
 16.9835
 17.0843
 17.0574
 17.0112
 17.1071
 17.1139
 17.1273
 17.1544
 11.3805
 11.4915
 11.3897
 11.3085
 15.0417
 15.0881
 14.9897
 15.1059
 12.8763
 12.9388
 12.8005
 14.5769
 14.6666
 14.584
 14.728
 14.1704
 14.1633
 14.2111
 11.94
 11.9947
 11.8069
 13.3986
 13.3202
 13.2994
 13.3784
 14.5481
 14.6563
 14.6646
 14.5846
 15.1637
 15.1304
 15.1824
 15.14
 12.9044
 12.8291
 12.8164
 15.6677
 15.621
 15.7566
 15.7602
 15.0705
 14.8777
 15.001
 14.2548
 14.0833
 14.1126
 14.1936
 15.1452
 15.046
 15.0549
 15.0907
 15.1194
 14.9876
 14.9642
 14.9962
 11.8539
 11.9378
 11.9306
 11.9512
 14.0689
 14.1658
 14.0882
 14.0356
 14.6953
 14.7233
 13.5245
 13.6058
 13.5499
 13.6627
 11.4531
 11.5387
 11.4856
 11.5236
 11.5441
 17.732
 17.7592
 17.772
 17.7335
 12.2896
 12.1589
 12.2292
 10.999
 11.0427
 11.1003
 11.028
 12.5645
 12.7332
 12.7051
 12.7255
 15.1873
 15.1473
 15.0931
 15.1944
 14.1541
 14.2308
 14.2676
 14.2424
 10.8909
 10.9027
 10.9459
 10.967
 12.3795
 12.4705
 12.5489
 12.4574
 15.7229
 15.7994
 15.806
 15.6817
 14.3076
 14.2767
 14.2534
 14.4202
 14.477
 14.4255
 14.3635
 14.4502
 17.7526
 17.7676
 17.7666
 17.7461
 15.3498
 15.3701
 15.403
 15.3063
 12.4096
 12.2609
 12.422
 12.3404
 13.2885
 13.2989
 13.1917
 13.3351
 13.993
 13.9166
 13.8279
 13.9679
 12.7515
 12.6309
 12.6694
 12.6741
 13.2014
 13.2072
 13.1028
 13.2169
 12.6373
 12.6344
 12.7276
 12.5003
 10.5468
 10.7699
 10.7003
 10.4844
 12.2358
 12.2951
 12.3248
 12.4897
 12.6908
 12.7627
 12.852
 12.7291
 12.9078
 13.5811
 13.5827
 13.6574
 13.4758
 11.443
 11.4962
 11.5214
 11.515
 14.0983
 14.1599
 14.053
 14.0935
 13.3889
 13.3383
 13.2776
 13.4563
 13.7534
 13.8714
 13.7928
 13.6993
 14.495
 14.646
 14.5335
 14.631
 16.5481
 16.5044
 16.4006
 16.5623
 10.37
 10.5761
 13.0523
 13.1185
 13.1305
 17.4036
 17.4037
 17.4123
 14.8987
 14.9717
 14.9241
 15.0099
 16.0309
 16.0222
 16.1523
 16.1554
 15.3434
 15.3932
 15.3201
 15.4473
 11.2545
 11.4296
 11.3563
 11.3331
 13.6243
 13.7641
 13.7044
 13.7835
 12.8127
 12.6821
 12.6858
 12.5742
 13.2246
 13.2686
 13.3402
 13.4259
 12.6851
 12.6298
 12.7337
 12.698
 13.9686
 13.9629
 12.0202
 12.2843
 12.0469
 12.2693
 12.5414
 12.6191
 12.6777
 12.4478
 14.9267
 15.0492
 14.9102
 15.0319
 14.9842
 14.9557
 14.9586
 14.9444
 13.4858
 13.4673
 13.5152
 13.4381
 13.5022
 13.4302
 13.3568
 13.2741
 15.3823
 15.5124
 15.5501
 15.3491
 12.631
 12.7235
 12.7664
 12.779
 10.6571
 10.7316
 10.6654
 10.7222
 11.9328
 12.0021
 11.997
 12.055
 10.5345
 10.465
 10.5983
 10.4294
 11.797
 11.6617
 11.6965
 11.6901
 13.6593
 13.5114
 13.6369
 13.6013
 12.8357
 12.912
 13.9115
 13.7731
 13.9474
 13.8728
 14.9959
 14.8976
 14.913
 14.8747
 12.3696
 12.1939
 12.1893
 12.309
 13.9525
 13.9788
 13.9482
 14.0737
 14.2251
 14.3106
 14.3404
 14.2909
 15.1463
 15.1451
 15.0959
 15.007
 14.7594
 14.7604
 14.8208
 14.6625
 15.0559
 14.9864
 14.9758
 15.0216
 16.4893
 16.4761
 16.5414
 16.5165
 12.4648
 12.421
 12.5492
 12.4453
 12.9324
 12.9015
 16.2545
 16.2369
 16.2453
 16.3374
 14.6093
 14.569
 13.0361
 13.1316
 13.0185
 12.065
 12.0282
 15.3509
 15.3676
 15.4178
 15.2935
 16.3646
 16.3128
 16.3161
 16.2903
 15.4884
 15.4308
 15.3735
 15.3541
 14.6285
 14.5442
 14.52
 14.5041
 13.2319
 13.3733
 13.3787
 13.3685
 12.7797
 12.8309
 12.8485
 12.8685
 14.674
 14.5781
 14.565
 14.5921
 13.4423
 13.4497
 13.3964
 13.5664
 13.6608
 13.7398
 13.7659
 13.7066
 13.5768
 13.4949
 13.441
 13.4936
 13.4483
 13.6225
 13.4469
 13.9137
 14.0006
 13.8264
 13.9001
 14.4038
 14.3555
 14.4872
 14.4144
 15.0604
 14.9764
 15.1156
 14.9794
 11.3982
 11.4397
 11.3607
 11.28
 14.0832
 14.0833
 13.9655
 13.9775
 15.5299
 15.5286
 15.682
 15.5634
 15.7285
 15.7102
 15.7453
 15.7736
 15.4963
 15.5689
 15.5635
 15.5169
 15.0682
 15.0776
 14.9619
 14.9397
 15.1078
 15.171
 15.1987
 15.1531
 11.725
 11.6493
 11.6413
 11.6072
 14.1708
 14.1733
 14.1957
 14.0865
 12.5887
 12.4744
 12.5746
 12.631
 15.0426
 14.918
 15.0667
 14.9763
 11.2777
 11.231
 11.2401
 11.1388
 11.0882
 11.1171
 10.9694
 12.587
 12.8192
 12.7434
 12.7334
 14.8921
 14.8392
 14.9503
 14.8615
 10.7462
 10.9331
 10.8946
 14.3243
 14.4108
 14.3441
 14.4841
 11.82
 11.7983
 12.0778
 12.0361
 11.9308
 12.076
 14.4987
 14.5645
 14.5212
 15.5452
 15.5074
 15.6194
 15.5833
 15.0227
 15.072
 14.9697
 14.968
 13.7323
 13.6057
 13.7688
 11.1089
 11.3431
 11.3224
 12.6202
 12.7679
 12.8069
 12.727
 11.1064
 11.1539
 11.3094
 10.9985
 14.2603
 14.1418
 14.0864
 14.156
 11.641
 11.6152
 11.5528
 11.7367
 13.6275
 13.5999
 13.6799
 13.7382
 14.7827
 14.8887
 14.835
 10.863
 10.9821
 10.9154
 10.7324
 12.9846
 13.3718
 13.232
 13.2849
 13.3476
 13.1204
 13.1052
 13.1967
 14.8363
 14.9018
 14.8867
 14.8907
 14.8945
 14.7618
 14.2104
 14.3212
 14.3225
 14.3398
 14.1771
 14.0447
 14.1449
 14.0662
 12.7028
 10.7236
 10.9265
 10.9557
 10.8241
 16.7644
 16.8619
 16.8144
 16.8247
 14.6527
 14.7132
 14.8816
 14.9164
 14.8631
 14.8372
 14.9089
 14.8986
 15.0378
 14.9863
 12.5326
 12.6852
 12.6723
 12.5926
 12.4389
 12.3859
 12.5327
 12.416
 14.6415
 14.7329
 12.818
 12.7951
 12.6427
 12.7422
 12.7818
 12.6474
 12.7701
 13.3848
 13.473
 13.5362
 13.5732
 14.0445
 14.1464
 14.0499
 14.1551
 12.5289
 12.3553
 12.3774
 12.5148
 12.1214
 12.0953
 12.006
 12.1372
 12.2707
 12.1407
 12.2362
 12.4753
 12.4393
 12.4551
 12.5576
 14.2324
 14.2026
 14.185
 14.2754
 15.9994
 16.0295
 15.9662
 15.9548
 14.4957
 14.5076
 14.563
 14.5356
 12.1002
 12.2288
 12.3156
 12.2011
 12.8494
 12.9099
 12.9147
 12.8127
 14.4591
 14.4007
 14.357
 14.3494
 12.8945
 13.0165
 12.9343
 12.9001
 13.4991
 13.4586
 13.6197
 13.4483
 13.5246
 13.4107
 13.4552
 13.4096
 12.9512
 12.8626
 12.8777
 11.5972
 11.5541
 11.6323
 11.6053
 14.5337
 14.425
 14.4744
 14.466
 13.9273
 13.8164
 13.8284
 13.8527
 15.8622
 15.9181
 15.9049
 15.8208
 15.1369
 15.0625
 15.071
 15.1256
 15.0178
 15.1742
 15.0968
 15.193
 15.1953
 15.1375
 15.1524
 15.1098
 13.5278
 13.5894
 13.5677
 15.598
 15.6199
 15.5684
 15.5484
 15.3092
 15.2705
 15.2014
 15.2969
 10.8174
 10.9631
 10.9687
 10.8655
 13.4653
 13.5286
 13.5946
 13.6408
 12.1524
 12.1447
 12.2168
 12.2591
 13.2632
 13.2078
 13.2856
 13.359
 12.9801
 12.8885
 12.9852
 12.9579
 14.8294
 14.9172
 14.875
 14.9975
 13.7845
 13.5689
 13.7389
 13.711
 12.0445
 11.9528
 12.0426
 12.0008
 13.2047
 13.2515
 13.0876
 13.1134
 15.2215
 15.2779
 15.1714
 15.1272
 11.5558
 11.51
 11.5421
 11.4871
 14.3599
 14.4561
 15.3358
 13.7903
 13.7387
 13.6562
 13.815
 14.0836
 13.9769
 14.0981
 14.1239
 16.3053
 16.3205
 16.2274
 14.5346
 14.6374
 14.6608
 14.7233
 13.2168
 13.0301
 13.1104
 13.0032
 13.6316
 13.547
 13.5962
 13.6372
 11.6172
 11.5553
 11.5416
 11.5819
 15.0941
 14.9262
 15.0433
 14.8816
 14.8877
 14.9156
 14.7836
 16.0912
 16.2247
 16.1502
 16.1035
 15.144
 15.0224
 15.1087
 13.2585
 13.0322
 13.2224
 15.2185
 15.2328
 15.3178
 15.2746
 14.0433
 13.9394
 13.9165
 13.921
 17.7379
 17.7424
 17.7357
 17.6734
 14.2132
 14.2496
 14.2499
 15.56
 15.5813
 15.5615
 15.561
 14.2219
 14.2737
 14.3652
 14.281
 15.2992
 15.212
 15.2191
 15.1713
 12.6844
 12.6319
 12.7067
 12.6027
 12.3846
 12.4892
 12.4051
 12.346
 11.0978
 11.097
 11.0258
 11.1971
 13.4052
 13.5544
 13.4399
 13.4001
 15.3281
 15.4403
 15.3377
 15.401
 14.7468
 14.7881
 15.9401
 15.9367
 15.9051
 15.9071
 13.9904
 13.9452
 14.5199
 14.3543
 14.3901
 14.99
 14.9261
 14.8788
 14.933
 11.2827
 11.2181
 11.4104
 11.3859
 11.5149
 11.5466
 11.5984
 11.5366
 14.8531
 14.8163
 14.8835
 14.9673
 15.6119
 15.5809
 13.2697
 13.2236
 13.2562
 13.145
 14.9779
 15.0169
 14.9341
 14.9398
 14.3585
 14.4957
 14.2694
 10.3865
 10.3341
 10.4734
 13.6985
 13.5482
 13.6018
 13.6
 11.7788
 11.6271
 11.8078
 11.8772
 13.4914
 13.3884
 13.3624
 13.5055
 12.5559
 12.4625
 12.444
 12.6209
 15.3681
 15.2739
 15.354
 15.3985
 14.9393
 14.805
 14.9804
 14.8451
 13.4717
 13.588
 13.3635
 13.5125
 14.471
 14.3545
 14.3232
 14.4803
 15.3442
 15.3073
 15.2704
 15.1814
 14.0262
 13.9751
 13.9085
 13.8499
 12.8623
 12.8443
 12.9253
 13.576
 13.4552
 13.5377
 13.472
 17.2727
 17.1898
 17.135
 17.1924
 15.6086
 15.6115
 15.5889
 15.6018
 14.5499
 14.5516
 14.5616
 14.4535
 16.3657
 16.2804
 16.4015
 16.3325
 11.7046
 11.7094
 11.8165
 10.9369
 11.045
 11.1696
 11.0614
 12.3254
 12.1094
 12.1917
 12.1893
 13.6229
 12.9076
 12.7539
 12.7119
 12.8196
 13.7876
 13.7002
 13.8423
 13.8476
 15.3854
 15.4771
 15.4275
 14.874
 14.8474
 14.8152
 14.9607
 17.2598
 17.3481
 17.2706
 17.3799
 16.1934
 16.1966
 16.1624
 16.1708
 14.5993
 14.6002
 14.5341
 14.4716
 10.8106
 11.0106
 10.9423
 10.9641
 17.0294
 17.0122
 16.933
 16.9507
 12.6859
 12.5659
 12.7631
 12.6283
 13.6286
 13.6178
 13.5111
 13.6095
 14.8207
 15.003
 14.9913
 13.8984
 14.0216
 14.0382
 14.0302
 11.0559
 11.0026
 10.9685
 15.3161
 15.1603
 15.139
 14.2328
 14.1992
 14.074
 14.0994
 14.6149
 14.6443
 14.6752
 14.6978
 14.5225
 14.5443
 14.4211
 14.3984
 15.5245
 15.5868
 15.5779
 15.4749
 13.9451
 13.8668
 13.9797
 13.8643
 11.1844
 11.3842
 11.38
 11.4807
 11.6902
 11.7227
 11.7264
 11.6178
 15.7174
 15.697
 15.6918
 15.7108
 11.8529
 11.7957
 11.806
 11.9572
 11.3827
 11.2022
 11.2511
 11.4183
 11.8328
 11.8455
 11.9927
 11.9778
 13.0522
 13.0699
 12.9734
 13.0232
 13.743
 13.8262
 13.707
 14.5902
 14.7501
 14.7051
 14.6685
 12.3837
 12.4657
 12.5347
 12.3647
 12.3837
 12.3197
 12.26
 12.2977
 10.3461
 10.3462
 10.5683
 10.4339
 16.2804
 16.2155
 16.2336
 16.2175
 15.9063
 15.9543
 15.9309
 15.8612
 15.4822
 15.509
 15.3841
 15.5139
 14.4836
 14.6341
 14.5319
 14.5416
 14.4027
 14.3904
 14.3941
 11.3197
 11.231
 11.0999
 11.1799
 12.2604
 12.3197
 12.3885
 12.3803
 13.9656
 14.048
 14.0837
 14.0196
 11.6114
 11.5325
 13.3325
 13.3328
 13.3381
 13.4437
 11.7427
 11.6838
 11.5162
 11.6458
 13.5042
 13.3534
 13.5343
 13.3402
 14.6203
 14.5568
 14.7113
 14.6624
 15.8349
 15.899
 15.8445
 15.7653
 17.3447
 17.2552
 17.3772
 17.3059
 11.8691
 11.9146
 11.9343
 11.8457
 11.3702
 11.3526
 11.342
 11.2524
 14.2077
 14.3381
 14.26
 14.3283
 13.7106
 13.7723
 13.7907
 13.7088
 15.0322
 15.1339
 14.962
 13.0766
 13.1705
 13.157
 13.2055
 15.078
 15.0987
 15.0247
 15.0299
 13.8804
 13.9845
 14.0754
 14.0047
 12.9795
 13.0418
 13.0126
 12.9606
 13.5742
 13.6116
 13.658
 11.7649
 11.8892
 11.8496
 11.8524
 13.0734
 12.9309
 16.4133
 16.2663
 16.4201
 16.3586
 12.5026
 12.5914
 12.5398
 14.83
 14.7935
 14.7985
 14.8224
 13.1986
 13.2223
 13.2577
 13.7568
 13.8698
 13.7491
 13.8197
 13.1379
 13.2677
 13.0643
 13.1834
 13.0253
 12.8926
 16.9322
 16.9316
 16.9991
 16.927
 17.1637
 17.266
 17.304
 17.2113
 13.6757
 13.8089
 13.7551
 13.8142
 13.2568
 13.3285
 13.2592
 13.3441
 16.8571
 16.8753
 16.8455
 16.7807
 14.8852
 15.0017
 15.5346
 15.5161
 15.4729
 15.3853
 12.9921
 13.0429
 12.8795
 12.9708
 13.3254
 13.2811
 13.1763
 13.3716
 13.0831
 13.2199
 13.2524
 13.2162
 14.6408
 14.6374
 14.5331
 14.6414
 15.2625
 15.2713
 15.3731
 15.2485
 15.9888
 15.8848
 15.8931
 15.9797
 15.2516
 15.2606
 15.2571
 15.0967
 12.432
 12.5328
 12.414
 12.4938
 13.6742
 13.938
 13.8087
 16.3433
 16.2882
 16.2213
 12.8254
 12.6342
 12.7397
 12.7471
 12.6748
 12.906
 12.7838
 12.7464
 14.1512
 14.2254
 14.2647
 14.045
 14.008
 13.9042
 13.9962
 15.3161
 15.3806
 15.4061
 15.4064
 12.1191
 12.164
 12.064
 12.1219
 15.5539
 15.5786
 15.5708
 15.5275
 15.578
 15.6389
 15.5847
 10.8751
 10.6994
 10.6133
 10.751
 11.9025
 11.816
 14.805
 14.849
 14.7485
 14.7857
 13.7854
 13.6617
 13.7883
 13.9985
 14.0606
 14.0298
 14.1311
 15.3365
 15.255
 15.2956
 12.2354
 12.1549
 12.3282
 12.2718
 15.3247
 15.1876
 15.2832
 15.3033
 12.6543
 12.769
 12.8101
 12.7471
 15.5112
 15.4569
 15.2138
 15.3282
 15.2408
 15.2921
 14.8781
 14.9311
 14.9049
 14.8684
 16.1871
 16.2163
 16.3068
 16.2475
 12.4327
 12.2928
 14.5692
 14.5022
 14.4912
 14.5008
 11.0484
 11.1084
 11.0675
 11.0171
 14.5918
 14.6457
 14.5054
 14.4286
 12.1982
 12.0674
 12.027
 12.0178
 11.4955
 11.3485
 11.588
 11.3794
 12.6674
 12.7976
 11.5096
 11.3915
 11.433
 11.4703
 15.3153
 15.3342
 15.3325
 15.2372
 11.5603
 11.5067
 11.4891
 11.5694
 10.8863
 10.712
 10.7278
 10.8529
 13.2223
 13.2144
 13.1061
 13.1394
 13.9012
 13.946
 13.8171
 13.7629
 11.5996
 11.7689
 11.6669
 11.5923
 16.3092
 16.2
 16.2589
 16.3366
 11.6699
 11.4875
 14.5436
 14.4715
 14.4579
 14.3586
 11.8173
 11.8648
 11.9973
 11.9808
 15.2988
 15.1995
 15.217
 15.2211
 14.2923
 14.4527
 14.3978
 14.3129
 15.0608
 15.0934
 14.9664
 15.3055
 15.3644
 15.3047
 15.4051
 15.5318
 15.4406
 15.4669
 15.422
 13.228
 13.303
 13.3402
 11.9521
 11.9354
 11.8199
 11.8451
 13.5599
 13.622
 13.6575
 15.2993
 15.3767
 15.3237
 13.7362
 13.5634
 13.711
 13.6129
 13.1282
 13.1562
 13.1123
 12.9744
 14.0636
 13.9345
 13.9167
 13.9666
 14.2482
 14.307
 14.3341
 14.392
 14.452
 14.4622
 14.2556
 14.2039
 14.1304
 14.3142
 11.8654
 11.9438
 11.8804
 11.9777
 12.6938
 12.7782
 12.7084
 12.6547
 14.0345
 13.9818
 14.0369
 13.8732
 15.2828
 15.3549
 15.3034
 13.5453
 13.618
 13.5424
 13.5289
 14.7073
 14.8449
 14.7978
 14.8582
 16.6638
 16.6396
 16.6865
 16.7156
 14.415
 14.4727
 14.4443
 14.4532
 11.7487
 11.7701
 11.6482
 11.6939
 14.4367
 14.3
 14.3737
 14.4399
 15.4651
 15.4718
 15.4262
 15.3873
 15.3157
 15.3735
 15.3659
 13.9604
 13.9393
 13.9625
 13.0582
 14.4983
 14.6622
 14.5627
 14.5674
 11.5384
 11.5698
 11.4848
 11.7846
 11.7557
 11.693
 14.4723
 14.3609
 14.4425
 14.376
 10.7804
 10.7288
 10.6885
 10.6725
 15.2617
 13.38
 13.4824
 13.4
 13.4359
 15.1884
 15.1454
 15.1607
 15.1359
 11.5584
 11.4958
 11.6892
 11.5642
 12.8484
 12.6656
 12.7421
 12.807
 12.3452
 12.2735
 12.4191
 12.392
 15.5299
 15.4945
 15.4473
 15.5284
 14.7216
 14.6287
 14.7293
 14.7287
 13.5687
 13.6368
 13.5277
 13.6437
 14.552
 14.6685
 14.5046
 14.6211
 12.9346
 12.8907
 12.7762
 12.8042
 15.1893
 15.2386
 15.1343
 15.134
 14.7672
 14.705
 14.6176
 14.679
 13.2804
 13.268
 13.2912
 13.1391
 11.4093
 11.2478
 11.3414
 11.2508
 15.4677
 15.4554
 15.3577
 15.4066
 16.1089
 16.2215
 16.1016
 16.1111
 11.4966
 11.3926
 11.4382
 11.3849
 16.092
 16.1786
 15.9412
 15.9829
 15.9941
 15.9003
 13.7679
 13.6991
 13.8032
 13.8837
 14.7219
 14.6573
 14.659
 14.7665
 10.4341
 10.3681
 10.384
 10.4848
 11.6056
 11.6174
 11.4493
 12.8525
 12.8632
 12.7624
 12.9064
 15.3618
 15.3315
 15.4358
 15.2998
 14.7994
 14.8186
 14.8568
 14.9037
 14.8377
 14.7599
 12.8605
 12.6696
 12.7294
 12.8046
 13.0398
 13.0341
 13.1414
 13.0107
 12.6795
 12.6884
 12.8147
 12.6824
 10.9513
 10.9227
 11.1711
 10.8735
 12.4179
 12.4081
 12.5341
 14.3441
 13.5412
 13.5646
 13.5266
 13.6198
 13.4922
 13.6189
 13.5838
 13.5628
 12.0658
 12.1409
 12.1463
 12.2151
 12.4513
 12.5246
 12.5232
 12.4017
 13.2785
 13.3847
 13.3799
 14.5423
 14.6
 14.5036
 14.675
 13.5859
 13.3938
 13.5132
 13.48
 14.4526
 14.3869
 14.508
 16.9723
 16.9724
 17.0277
 16.9292
 11.9657
 11.7689
 11.8432
 11.8678
 12.0406
 11.8266
 11.9438
 16.9188
 13.4671
 13.436
 13.4818
 13.3337
 13.3163
 13.2866
 15.9546
 15.9294
 15.9399
 15.9066
 15.4538
 15.4222
 15.3328
 15.4691
 14.9244
 14.8656
 14.8698
 14.9915
 15.1031
 15.0537
 14.983
 15.0992
 15.1125
 15.0214
 14.2856
 14.3612
 14.3928
 14.4114
 14.2089
 14.1002
 10.2358
 10.2296
 15.2742
 15.11
 15.276
 15.1749
 14.0106
 14.0441
 13.9767
 14.0984
 15.5133
 15.4888
 15.6515
 15.5955
 11.8407
 11.761
 11.9803
 11.8929
 12.0358
 12.141
 12.0402
 12.1512
 12.9563
 12.8749
 12.8551
 12.9113
 13.6155
 13.5779
 13.4131
 13.4916
 13.68
 13.7503
 15.2933
 12.5897
 12.4574
 12.4906
 12.4595
 11.0036
 11.0254
 10.8281
 11.0659
 11.9511
 11.8139
 11.978
 11.9222
 17.731
 17.7304
 17.7162
 17.687
 11.1524
 11.129
 11.1927
 11.1849
 14.9742
 14.9703
 15.0723
 14.9152
 14.547
 14.6674
 14.6192
 14.7056
 12.801
 12.7849
 12.7161
 12.6976
 12.8007
 12.8257
 12.8909
 12.8617
 15.324
 15.1547
 15.2407
 15.2017
 11.3459
 11.2824
 11.3596
 11.3402
 11.8178
 11.7344
 11.775
 11.6934
 12.5566
 12.532
 12.4444
 12.4438
 11.5855
 11.6793
 11.6403
 11.5835
 14.7294
 14.6223
 14.6236
 14.5791
 15.3308
 15.303
 15.279
 15.2396
 11.9182
 12.0258
 12.0616
 12.0308
 14.1175
 14.1201
 14.168
 14.2634
 13.922
 13.9761
 13.9982
 13.9298
 17.2037
 17.1633
 17.1098
 17.1584
 11.2046
 11.1752
 11.5426
 11.5136
 11.6339
 11.4465
 15.705
 15.806
 15.839
 15.6841
 14.7117
 14.8494
 14.8483
 14.9024
 11.767
 11.8554
 11.7178
 11.6787
 14.3351
 14.2978
 14.3624
 14.2466
 14.4116
 14.3773
 14.5034
 14.4936
 11.0194
 10.9894
 11.0651
 11.1128
 13.5991
 13.6268
 13.5905
 13.5435
 13.8611
 13.8218
 13.8539
 13.9307
 12.3595
 12.2894
 12.2512
 12.3101
 12.9303
 12.9619
 13.0025
 13.0709
 14.2471
 14.2272
 14.3717
 14.7065
 14.6196
 14.6781
 14.5285
 15.8929
 15.9201
 15.9473
 15.7958
 14.5223
 14.4537
 14.4331
 14.4121
 13.719
 13.7899
 13.7273
 13.8192
 10.878
 10.837
 10.8596
 11.0254
 14.5331
 14.3401
 14.4431
 14.4425
 15.6255
 15.6231
 15.6983
 15.7486
 12.6092
 12.5022
 12.5568
 12.6497
 13.132
 13.1454
 13.2056
 13.6323
 13.4666
 13.4576
 13.4128
 15.9517
 15.9488
 15.9431
 15.8721
 13.4538
 13.5635
 13.5151
 13.6123
 11.4494
 11.4343
 11.4338
 11.4123
 13.5801
 13.5607
 13.5481
 13.4828
 15.558
 15.6228
 15.5834
 15.545
 15.1775
 15.1085
 15.1918
 15.2739
 10.1404
 10.1852
 10.1225
 10.1156
 14.7572
 14.7347
 14.7507
 14.8857
 13.183
 13.3704
 13.3129
 13.2722
 10.3347
 10.3195
 10.4241
 10.4212
 11.558
 11.3881
 11.4727
 12.6107
 12.6228
 12.4832
 12.4435
 11.7712
 11.7741
 11.6028
 11.8176
 16.7576
 16.6972
 16.6337
 16.6571
 15.0523
 14.9447
 15.0903
 11.1479
 10.9958
 11.0234
 11.0123
 13.2461
 13.2747
 13.1517
 13.3112
 12.2543
 12.2818
 12.1334
 12.3593
 15.4208
 15.4319
 15.5149
 15.5642
 14.3655
 14.2471
 14.3884
 14.2936
 12.9021
 13.0869
 13.0322
 15.8803
 15.8414
 15.7861
 15.7948
 15.2286
 15.3555
 15.2924
 15.3314
 14.4496
 11.123
 11.0541
 11.0939
 10.9968
 16.5697
 16.5673
 16.6426
 16.6504
 12.3701
 12.1747
 12.2755
 12.1485
 13.095
 13.1795
 13.129
 13.2558
 17.04
 12.0087
 12.1111
 11.9521
 11.2007
 11.0341
 11.1347
 11.1154
 14.0115
 13.9741
 13.8096
 13.9367
 12.9797
 12.9863
 12.8894
 13.052
 15.0019
 15.1075
 13.7944
 13.8496
 13.8427
 13.7201
 15.0132
 15.0759
 15.1285
 15.0388
 14.6134
 14.6626
 14.5071
 14.5119
 12.6941
 12.7724
 12.6894
 12.6506
 16.2413
 16.2446
 16.2437
 16.134
 15.3568
 15.4195
 15.375
 15.4516
 16.0902
 16.0074
 15.6511
 15.6553
 15.6411
 15.6444
 15.7478
 15.8171
 15.7028
 15.7983
 11.0654
 11.1246
 11.2384
 11.2403
 13.2734
 13.2693
 13.3193
 13.1431
 14.363
 14.2152
 14.3118
 14.2984
 13.5387
 13.5814
 13.6086
 13.5007
 11.0032
 11.0164
 15.9271
 15.9803
 15.9685
 15.9236
 11.0219
 10.9823
 11.0853
 16.451
 16.4889
 16.4535
 16.5039
 11.3095
 11.4409
 11.3415
 11.4408
 14.5149
 14.5963
 14.4809
 14.5961
 14.0797
 14.0525
 14.1092
 11.044
 11.1178
 11.0963
 11.0208
 13.3795
 13.4874
 13.3574
 13.4593
 13.9904
 13.9383
 13.8316
 13.9392
 14.4668
 14.5288
 14.2207
 14.4107
 14.2658
 14.3459
 13.1293
 13.2527
 13.1964
 10.909
 11.1128
 11.1328
 10.9837
 14.1388
 14.063
 14.1485
 14.1242
 14.3165
 14.3768
 14.7087
 14.8232
 14.8489
 14.7584
 16.3813
 16.3667
 16.2829
 13.4462
 13.421
 13.5685
 13.5741
 11.1644
 11.1571
 11.1408
 16.0704
 16.1427
 16.0689
 14.0517
 14.1379
 14.0794
 14.1835
 12.8356
 12.8402
 12.9811
 12.9317
 16.6695
 16.7025
 16.676
 16.6631
 11.8682
 11.833
 11.9129
 11.9298
 12.7609
 12.8576
 12.8406
 12.8766
 11.9241
 11.8851
 11.9702
 11.1674
 11.1419
 10.9446
 11.0582
 13.6708
 13.8031
 13.6849
 13.675
 11.4966
 11.5285
 11.5801
 11.597
 14.5514
 14.5903
 14.5176
 14.6385
 10.9724
 13.0692
 13.8538
 13.9083
 13.8037
 13.9424
 13.1103
 13.135
 13.2428
 13.2584
 12.4797
 12.4444
 12.5176
 12.6295
 13.1223
 13.1782
 13.0407
 13.0975
 12.2539
 12.3355
 12.2238
 12.2443
 13.8447
 13.9142
 13.8623
 13.7693
 13.9858
 13.9431
 13.9235
 13.875
 14.3497
 14.3718
 14.4139
 14.2786
 13.8828
 13.8879
 13.9883
 15.4716
 15.4499
 15.4728
 15.3945
 13.7699
 12.8602
 12.6959
 12.6862
 12.784
 11.2218
 11.2121
 11.3662
 14.6227
 14.7783
 14.7101
 14.7589
 13.5986
 13.4562
 13.4911
 13.0541
 13.0606
 13.1575
 13.1603
 12.8126
 12.7752
 12.6535
 12.627
 11.6803
 11.6126
 11.5331
 11.6354
 15.0667
 15.0895
 15.02
 15.1815
 13.4745
 13.558
 13.5871
 13.6206
 13.9129
 13.9863
 14.0542
 13.9351
 14.0466
 14.125
 14.1343
 14.2103
 13.8197
 13.8662
 13.7999
 13.9197
 12.4415
 12.6434
 12.4115
 12.5507
 14.0142
 14.1946
 14.1261
 14.1076
 15.9551
 15.9523
 15.9559
 15.9152
 16.0068
 15.9392
 15.9492
 13.809
 13.7921
 13.6923
 13.6816
 13.7564
 13.6954
 13.6598
 13.6291
 13.9143
 14.0116
 13.8514
 13.8499
 11.3167
 11.3056
 11.4677
 11.4494
 12.4374
 12.5622
 12.5628
 12.4258
 14.8079
 14.7427
 14.7557
 14.7285
 15.3659
 15.2553
 15.2692
 15.4099
 11.8104
 11.8374
 11.9127
 11.803
 16.5378
 16.5881
 16.5683
 16.4806
 14.423
 14.3145
 14.3764
 14.3903
 15.6082
 15.5386
 15.5493
 15.1207
 15.0514
 15.043
 14.9701
 12.6617
 12.705
 12.6083
 12.7893
 15.0443
 15.1971
 15.1366
 15.1001
 15.9369
 15.7461
 15.8751
 16.658
 16.5723
 16.5201
 16.5501
 10.8596
 10.8145
 10.7368
 10.6314
 14.9731
 15.0424
 14.9835
 14.9465
 13.2314
 13.3932
 13.366
 13.2592
 11.451
 11.544
 11.644
 11.5588
 12.1553
 11.9849
 12.2136
 12.1083
 14.8715
 14.8578
 14.9273
 14.8813
 15.6639
 15.7646
 15.8461
 15.7402
 13.5129
 13.4388
 13.5539
 13.4886
 15.6283
 15.497
 14.2321
 14.3951
 14.3656
 14.2757
 14.0794
 14.0889
 14.1541
 14.0441
 14.2099
 14.1995
 14.2556
 15.424
 15.3872
 15.4233
 13.167
 13.1637
 13.1274
 13.0904
 13.3744
 13.3881
 13.478
 13.2801
 14.8644
 14.7399
 14.7942
 14.8548
 12.3954
 12.2566
 12.4437
 12.378
 13.8426
 13.983
 13.9072
 13.7969
 15.5729
 15.5739
 15.5969
 15.5772
 14.4732
 14.4035
 14.4726
 13.332
 13.3321
 13.4394
 13.339
 13.7218
 13.6587
 13.5798
 10.859
 10.9258
 10.9497
 10.9859
 16.1274
 16.1706
 16.1189
 16.2476
 14.6003
 14.4844
 14.503
 14.5716
 14.6451
 14.6717
 14.7631
 14.6437
 10.7306
 10.7821
 10.6233
 10.5142
 12.3534
 12.2833
 12.2964
 15.0154
 15.0453
 15.0822
 15.0354
 12.1305
 12.2781
 12.2146
 14.9669
 14.9623
 15.0391
 15.0164
 17.3271
 17.267
 17.3228
 17.271
 11.4848
 11.4358
 11.3489
 11.5095
 15.4063
 15.4363
 15.4826
 15.5723
 11.0849
 11.1367
 11.1571
 11.1202
 15.1574
 15.0294
 15.1241
 15.0759
 17.3001
 17.4016
 17.313
 17.3167
 15.8354
 15.9436
 15.8571
 15.7997
 15.3741
 15.2928
 15.2288
 15.3913
 13.8143
 13.9798
 15.3756
 15.3597
 15.5163
 15.4925
 13.2225
 13.2801
 13.3198
 13.3848
 13.962
 13.9598
 14.0308
 13.8773
 11.5477
 11.7096
 11.4362
 11.4096
 11.8156
 11.8951
 11.8058
 11.7475
 12.103
 12.1766
 12.1146
 12.2224
 11.7422
 11.7179
 11.6858
 11.773
 12.7835
 12.8249
 12.7083
 12.8
 12.047
 11.9109
 11.9531
 12.018
 16.0293
 16.1526
 16.1698
 16.015
 11.5954
 11.522
 11.5552
 11.5752
 14.2882
 14.3758
 14.4227
 14.3749
 12.3368
 12.5368
 12.476
 11.7983
 11.6772
 11.6894
 11.7413
 15.3525
 15.465
 15.4764
 15.4349
 15.8874
 15.9233
 15.9763
 15.947
 12.5464
 12.5706
 12.6446
 12.4543
 14.1028
 14.1201
 14.1502
 14.2112
 12.8177
 12.9069
 12.8252
 12.8366
 12.8322
 12.8312
 12.61
 14.405
 14.4371
 14.5314
 12.8835
 12.8432
 13.5158
 13.6708
 10.9047
 10.8298
 10.8301
 10.8942
 13.6201
 13.5665
 13.6296
 13.5013
 12.8729
 12.9366
 12.7788
 12.9312
 13.355
 13.287
 13.3357
 13.2338
 12.0775
 12.1167
 12.0516
 12.129
 12.1401
 14.1575
 14.1468
 14.2582
 14.2628
 15.5924
 15.5924
 15.5901
 15.5801
 12.8415
 12.967
 12.8417
 12.9148
 12.8223
 12.9058
 12.9313
 12.8043
 17.1095
 17.0548
 17.0202
 16.9519
 13.8091
 13.7148
 13.762
 13.8295
 13.8443
 13.9428
 13.9825
 13.8844
 12.9706
 13.0593
 15.4054
 15.3763
 15.3307
 15.3914
 14.6311
 14.5679
 14.6081
 14.6725
 15.2387
 15.2853
 15.3276
 15.3168
 14.7443
 14.6684
 14.6841
 14.7625
 15.1936
 15.2016
 15.2492
 15.1784
 12.3396
 12.3896
 12.3411
 12.2627
 11.5849
 11.591
 11.7203
 11.6388
 14.9176
 14.963
 15.0237
 14.9066
 13.8211
 13.9315
 13.836
 13.8702
 12.1008
 12.2549
 12.1495
 12.2228
 14.2772
 14.3262
 14.338
 14.2095
 14.9245
 14.8515
 15.7792
 15.7342
 15.7074
 15.7881
 14.0614
 14.0988
 14.1475
 14.2009
 11.9856
 12.0469
 12.0476
 11.8947
 11.2574
 11.3456
 11.3198
 11.2357
 16.8492
 16.8407
 14.2346
 14.1449
 14.1022
 14.0834
 14.3943
 14.551
 14.4501
 14.4471
 14.5422
 14.5814
 15.136
 15.0757
 15.0958
 15.0377
 13.9869
 13.8815
 13.84
 16.0026
 15.9413
 15.936
 15.8865
 11.7114
 11.6131
 11.7936
 11.6986
 11.3784
 11.3812
 11.3731
 10.7823
 10.895
 11.0014
 10.9083
 13.4307
 13.2528
 13.327
 13.2975
 13.8242
 13.6871
 13.8838
 13.7616
 12.3259
 12.1452
 12.0765
 12.189
 12.9408
 12.9506
 12.8392
 12.9426
 13.1732
 13.0622
 13.1162
 13.651
 13.6291
 13.6928
 13.5563
 12.6523
 12.4323
 12.5086
 12.6292
 14.2138
 14.258
 14.1948
 14.1799
 13.7257
 13.7571
 13.6374
 13.799
 12.96
 12.9867
 13.0426
 12.9242
 13.8192
 13.9049
 13.9391
 13.8099
 17.2644
 17.2915
 17.2065
 17.2072
 15.08
 15.1231
 15.119
 15.1943
 12.6613
 12.6542
 12.529
 12.5147
 15.0697
 15.0446
 15.1682
 15.208
 15.3597
 15.4947
 15.3551
 15.2719
 11.8469
 11.8619
 11.7754
 11.9454
 11.9635
 12.0924
 11.9742
 12.0008
 11.5519
 11.6686
 11.5392
 11.5219
 12.3411
 12.3489
 12.237
 12.278
 14.3222
 14.3295
 14.4092
 14.3285
 15.0791
 15.1154
 15.0309
 15.1304
 12.8333
 13.0125
 12.8279
 12.9672
 15.028
 14.9964
 14.9816
 14.9884
 15.7732
 15.7465
 15.7193
 15.6668
 13.9492
 13.8613
 13.9297
 13.8427
 14.527
 14.5953
 14.6756
 14.4319
 14.4022
 14.2701
 14.3837
 15.6499
 15.7071
 15.7975
 15.7124
 14.9423
 14.9575
 15.0062
 14.9735
 12.7715
 12.6952
 12.7584
 12.6968
 13.6919
 13.5921
 13.5776
 10.7973
 10.9298
 10.9232
 10.8359
 11.3085
 11.1965
 11.1087
 11.2332
 14.5597
 14.4819
 14.6027
 14.4812
 13.3989
 13.313
 15.453
 15.4583
 15.5632
 15.4189
 13.6573
 13.7531
 13.819
 13.7316
 11.4939
 11.4592
 11.5843
 11.4805
 15.0346
 15.0143
 14.9695
 14.2579
 14.2461
 14.2135
 14.3504
 14.4859
 14.3313
 14.3594
 14.3979
 13.8865
 13.769
 13.7576
 13.9153
 13.9584
 13.8951
 13.8188
 13.9102
 13.5964
 13.5232
 13.6045
 13.5018
 14.0773
 13.9976
 12.2368
 12.2868
 12.0846
 12.2507
 13.981
 14.0912
 14.052
 13.9839
 13.1446
 13.32
 13.2598
 14.0303
 13.9253
 13.9907
 13.9318
 13.2344
 13.2909
 13.3499
 13.2618
 15.0977
 15.2018
 15.1226
 15.2516
 14.1891
 14.2078
 14.0875
 13.4279
 13.4197
 13.2673
 13.4958
 14.011
 14.0251
 13.9468
 15.2433
 15.2065
 15.305
 13.0791
 13.0904
 13.0887
 13.2158
 13.8034
 13.7213
 13.7113
 16.8809
 16.8578
 16.8154
 16.9656
 12.9564
 13.0376
 13.0936
 12.9507
 14.4378
 14.5708
 14.5555
 14.5809
 12.1744
 12.1812
 12.1378
 12.0446
 11.9549
 12.0379
 11.8937
 11.9137
 15.3196
 15.1841
 15.345
 15.3214
 13.5284
 13.618
 13.6701
 14.6837
 14.7992
 14.7234
 14.7234
 11.7254
 11.916
 11.8156
 13.7739
 13.683
 13.7493
 13.6374
 12.8315
 12.7865
 12.7864
 12.8029
 11.6042
 11.5375
 11.5198
 11.6205
 17.5838
 17.658
 17.6381
 17.5833
 14.8401
 14.8225
 14.7579
 14.8468
 13.4943
 13.3011
 13.3728
 13.33
 15.7704
 15.8535
 15.8662
 13.7862
 13.6859
 13.7218
 13.8065
 11.3149
 12.9657
 13.0388
 13.1907
 13.0715
 12.0416
 12.0454
 12.0109
 11.965
 12.3826
 12.4512
 12.4724
 12.3964
 13.4938
 13.5377
 13.6592
 13.7932
 13.7989
 13.7832
 16.6599
 16.5772
 16.6525
 16.5994
 14.6655
 14.7121
 14.7542
 14.8186
 14.802
 14.7257
 14.7975
 11.3722
 11.1165
 11.3805
 11.3835
 13.8931
 13.9044
 13.7675
 13.7812
 13.4187
 13.4666
 13.5562
 13.4793
 11.8481
 11.9206
 11.7888
 11.9292
 13.7347
 13.7618
 13.6448
 13.7627
 16.0743
 16.0314
 16.1234
 16.092
 14.0128
 14.0542
 13.9933
 14.0361
 14.8676
 14.8651
 14.849
 14.7788
 15.0778
 15.1564
 15.1338
 15.0956
 15.6664
 15.631
 15.6713
 15.6688
 16.2476
 16.2917
 16.3085
 16.189
 10.7192
 10.8519
 10.7922
 10.8266
 16.5043
 16.4688
 16.5512
 16.408
 13.9057
 13.973
 13.8945
 14.0004
 10.8793
 10.9099
 10.9847
 10.9731
 14.3528
 14.3652
 14.3034
 14.2615
 15.6004
 11.5992
 11.6759
 11.6487
 11.5282
 15.1519
 16.1176
 16.0087
 15.9869
 16.0847
 13.333
 13.1992
 12.3152
 12.468
 12.3094
 12.4529
 11.8853
 11.9059
 11.8208
 11.8345
 10.6504
 10.7895
 10.6513
 12.2921
 12.1497
 12.152
 12.1563
 14.2592
 11.1324
 12.8503
 12.8997
 12.9357
 11.3917
 11.2965
 11.273
 11.3298
 14.3158
 14.314
 14.3261
 14.3931
 14.8225
 14.7989
 14.8633
 14.9199
 12.8578
 12.9383
 12.9076
 12.7388
 11.2474
 11.131
 11.2744
 11.2677
 11.7686
 11.8047
 11.7263
 11.8135
 13.1509
 12.9752
 12.9963
 16.2456
 16.3027
 16.1287
 16.2383
 17.5053
 17.4131
 17.4637
 17.4123
 15.6137
 15.7377
 15.7469
 15.6836
 13.5477
 13.452
 13.5727
 15.9765
 15.8842
 15.9213
 16.0004
 12.0798
 12.1166
 11.9737
 12.2175
 12.1802
 12.2657
 12.2154
 15.0889
 15.1322
 12.7123
 12.5824
 10.3455
 10.4596
 10.3211
 10.8001
 10.7593
 10.7774
 10.7075
 14.0926
 14.1921
 14.033
 14.1106
 14.6961
 14.7178
 14.7696
 14.6522
 13.9949
 14.0022
 13.8946
 13.9051
 11.1343
 11.1414
 11.1121
 11.1468
 12.7594
 12.7095
 12.7473
 12.8216
 15.6439
 15.6482
 15.6452
 15.5621
 12.6878
 12.6561
 12.7416
 12.605
 13.4769
 13.4473
 13.5486
 13.4265
 12.8903
 12.7987
 12.8175
 17.7749
 17.7493
 17.7367
 14.6694
 14.7255
 14.2976
 14.2949
 14.3934
 14.2461
 12.492
 12.3689
 12.4496
 12.4884
 12.6813
 12.6243
 12.4794
 12.6168
 12.604
 12.6684
 12.4752
 16.7646
 16.7723
 15.7246
 15.7348
 15.6745
 15.716
 13.4455
 16.8408
 16.9277
 16.8902
 16.8844
 14.8981
 14.7739
 14.8761
 14.8902
 14.1919
 14.2368
 16.2211
 16.062
 16.0756
 16.1567
 10.6983
 10.5406
 10.6171
 10.6671
 11.1834
 11.1524
 11.2163
 11.0321
 15.2449
 15.0668
 15.195
 15.1001
 14.6957
 14.7596
 14.5563
 14.6053
 14.6738
 14.7416
 14.6762
 12.5256
 12.4652
 12.6218
 12.5208
 15.5947
 15.5348
 15.4888
 15.4714
 13.8953
 13.838
 13.9123
 13.1351
 13.1194
 13.0583
 12.9733
 14.7343
 14.7156
 14.6408
 14.6912
 15.0337
 14.928
 14.8688
 14.9768
 15.0823
 15.1572
 15.1388
 15.055
 14.3473
 14.2949
 14.22
 14.3123
 12.9747
 13.0619
 14.8752
 14.8507
 14.8165
 14.9071
 10.7015
 10.9188
 10.8941
 10.8794
 15.2196
 15.1654
 15.2193
 15.1521
 15.9932
 16.0195
 15.9053
 15.9656
 13.4142
 13.3699
 16.4882
 16.4571
 16.5516
 16.4354
 14.5004
 14.4459
 14.5486
 11.4285
 11.4835
 11.3857
 11.3683
 16.3676
 16.4011
 16.3733
 15.0986
 15.1015
 15.0047
 15.0385
 16.147
 15.1303
 15.1727
 15.1584
 15.2643
 13.7569
 13.8276
 13.7456
 13.7645
 14.1698
 14.1453
 14.0862
 14.1774
 11.2491
 11.0893
 13.6329
 13.5794
 13.6053
 13.6357
 15.1698
 15.2889
 15.1531
 15.2958
 14.6216
 14.4047
 14.5164
 14.6184
 11.6061
 11.7074
 11.6945
 11.6981
 14.192
 14.1558
 14.0442
 14.0768
 13.4346
 11.9621
 11.8772
 11.9918
 14.5799
 14.5547
 14.6567
 14.51
 12.7575
 12.7913
 12.7247
 12.8804
 14.3948
 14.4647
 14.4708
 14.3449
 11.227
 11.373
 11.3899
 11.3207
 10.3712
 10.296
 10.4184
 15.0983
 15.021
 14.923
 14.9955
 13.1981
 13.1299
 13.2728
 13.2272
 12.7661
 12.7344
 12.6513
 12.5967
 14.6972
 14.6951
 15.0377
 15.0896
 15.1231
 15.0085
 14.3807
 14.2174
 13.2257
 13.1891
 13.2451
 13.2864
 12.9969
 12.9498
 12.8645
 13.004
 14.247
 14.2113
 14.1178
 14.1661
 13.3377
 13.3259
 13.3203
 11.713
 11.8708
 11.9058
 11.8368
 12.3233
 12.3605
 12.2843
 14.276
 14.1041
 14.2647
 14.1865
 14.9388
 15.0639
 15.1276
 14.9928
 12.7714
 12.9009
 12.8989
 12.8046
 14.179
 14.1893
 14.3025
 15.6295
 15.6444
 15.6242
 15.6429
 14.7222
 14.7376
 14.6865
 14.649
 12.2491
 12.2529
 12.3597
 10.7704
 10.9285
 10.9185
 12.8816
 12.8231
 12.8191
 14.7291
 14.8282
 14.6923
 14.7954
 10.9657
 10.9599
 10.9803
 10.8913
 13.082
 13.142
 13.074
 12.9896
 12.0556
 11.9965
 11.8131
 11.8545
 12.2526
 12.1938
 12.2597
 12.2471
 15.9014
 15.9657
 15.9752
 14.3282
 14.3025
 14.3776
 14.2907
 12.1427
 12.0733
 12.1929
 12.1904
 14.048
 13.9946
 13.9762
 13.8594
 12.6584
 12.6568
 12.689
 12.8227
 11.3868
 11.3062
 15.6654
 15.5923
 15.6052
 15.5569
 12.4523
 12.5181
 12.3619
 12.4862
 14.3676
 14.4221
 14.4533
 14.3408
 12.8984
 13.0281
 11.0341
 11.0394
 11.1413
 10.9728
 12.0602
 11.9105
 12.106
 11.8354
 10.8228
 10.8231
 10.7131
 10.6246
 12.5605
 12.5899
 12.5213
 12.865
 12.707
 12.7443
 12.7798
 12.6779
 12.7705
 12.7363
 12.8597
 14.89
 14.8607
 14.9614
 14.9886
 16.1006
 16.1495
 16.0366
 13.8051
 13.7817
 13.7837
 11.7634
 11.8786
 11.8036
 11.915
 14.2303
 14.1585
 14.0674
 14.1523
 15.2139
 15.3298
 15.3069
 15.2089
 13.7782
 13.8886
 13.9407
 13.9457
 14.4097
 14.2658
 14.3994
 11.0644
 11.0077
 11.1692
 11.1595
 15.5573
 15.5194
 15.3455
 15.2876
 15.2782
 12.6997
 12.6541
 12.7713
 12.5861
 13.923
 13.814
 13.7961
 13.8661
 15.3665
 15.3489
 15.2639
 15.3489
 13.4096
 13.599
 13.5966
 13.4653
 14.5744
 14.6486
 14.5154
 14.5224
 11.6351
 11.6075
 11.4317
 14.7236
 14.7472
 14.6529
 14.6617
 13.4607
 13.3815
 15.4067
 15.2812
 15.3142
 15.3873
 15.2544
 15.3436
 15.2999
 15.3392
 11.4437
 11.5309
 15.0957
 15.0046
 15.0551
 15.1315
 13.7645
 13.8773
 13.8124
 13.7662
 14.4254
 16.0127
 16.0952
 16.0693
 13.3836
 13.3974
 13.3567
 13.4616
 11.4575
 11.4431
 11.5378
 11.3902
 15.8524
 15.8473
 15.7986
 15.8828
 15.2815
 15.2002
 15.3037
 15.2855
 12.795
 12.7325
 12.7277
 15.747
 15.7325
 15.6811
 15.6535
 10.7598
 10.9046
 10.8049
 10.7361
 15.6345
 15.5638
 15.5383
 15.6769
 13.0079
 13.1316
 13.0373
 12.9101
 14.3971
 14.3367
 14.3564
 14.4301
 15.3328
 15.296
 15.3134
 14.5082
 14.3871
 14.5203
 14.4197
 15.456
 15.5575
 15.4926
 15.4917
 15.1801
 15.2467
 15.1936
 12.4379
 12.5397
 12.4067
 12.4768
 12.6012
 13.9245
 13.6972
 13.8404
 13.8368
 11.3773
 11.4323
 11.5006
 11.4325
 13.3914
 13.2717
 13.4621
 13.3189
 12.951
 12.8629
 12.9516
 12.9896
 15.3063
 15.3516
 15.2393
 15.0693
 15.0962
 13.1524
 13.2934
 13.1879
 13.1368
 11.4732
 11.2971
 13.5626
 13.5317
 13.634
 13.5029
 15.4446
 15.47
 15.3767
 11.7114
 11.6572
 11.7633
 11.7186
 13.6121
 13.7533
 13.7137
 13.6847
 15.3571
 15.4157
 15.3582
 15.3166
 13.8779
 13.897
 13.7408
 13.8475
 13.0708
 12.8791
 15.8183
 15.8675
 15.8398
 15.8991
 15.0986
 14.9417
 14.8617
 14.9189
 14.8367
 14.8604
 14.8736
 14.9939
 14.9476
 14.8855
 13.7048
 13.6978
 13.7271
 13.153
 13.202
 13.2426
 13.2961
 14.9685
 14.9793
 14.9582
 14.9788
 14.4001
 14.411
 13.4215
 13.5135
 13.4794
 13.5673
 13.4567
 13.4382
 13.9556
 13.8229
 13.8099
 13.9186
 16.4376
 16.3354
 16.3544
 16.3014
 13.4707
 15.4588
 15.3602
 15.4297
 15.4516
 11.1029
 10.9944
 11.1221
 12.5409
 12.5903
 12.649
 12.5233
 13.9118
 13.8419
 13.8828
 14.043
 13.7235
 13.6298
 13.7586
 15.142
 15.0639
 15.109
 15.1652
 11.5279
 11.4306
 11.6697
 11.4962
 13.0838
 13.1212
 13.0175
 13.0485
 11.5596
 11.5242
 11.7048
 11.6103
 15.5189
 15.5014
 15.5979
 15.5924
 14.9139
 14.8363
 12.5044
 12.5537
 12.6163
 12.5451
 11.3882
 11.3763
 11.356
 11.4337
 10.4099
 10.3537
 10.4521
 10.2989
 11.516
 11.6057
 11.4948
 13.0845
 13.0089
 13.1181
 13.0527
 11.7428
 11.6946
 11.624
 11.6784
 15.6216
 15.5328
 15.4619
 15.5521
 12.0202
 11.9489
 11.9178
 13.1064
 13.1402
 13.1699
 13.1658
 15.4715
 15.5189
 15.47
 15.5464
 12.7988
 12.6706
 12.7537
 12.7424
 13.3154
 13.2285
 13.1964
 13.2934
 14.7396
 14.6821
 14.6505
 14.5736
 15.6882
 15.6706
 15.7888
 15.7806
 14.1176
 14.0819
 13.9925
 14.0964
 16.6292
 16.5957
 16.487
 16.5318
 15.2246
 15.1628
 15.2368
 15.012
 15.1166
 15.1153
 15.1388
 16.9881
 16.9431
 17.0472
 16.9504
 11.7764
 11.8703
 11.8632
 12.189
 12.1756
 12.0746
 12.1007
 14.9329
 14.7783
 14.8267
 16.0747
 16.0578
 16.1019
 15.6217
 15.7206
 15.6207
 15.6169
 14.8755
 14.8904
 14.803
 14.9618
 13.028
 12.8858
 12.9708
 12.9874
 16.4109
 16.4036
 16.3307
 16.4304
 13.2441
 13.4184
 13.4435
 13.3045
 12.18
 12.0789
 12.2678
 12.1749
 13.4909
 13.4927
 13.3294
 13.387
 14.1857
 14.2515
 14.0957
 15.3981
 15.407
 15.4003
 15.3358
 11.5261
 11.4172
 11.3873
 11.4149
 12.0515
 11.9793
 12.0574
 12.1265
 14.7896
 14.7083
 14.7595
 14.8375
 11.211
 11.1434
 11.0869
 11.4967
 11.316
 11.4708
 11.4299
 11.3396
 11.3063
 11.4211
 11.3797
 16.3093
 16.3338
 16.9873
 16.9732
 17.0298
 16.9128
 13.0807
 13.1304
 13.2065
 13.8761
 13.9555
 13.788
 13.926
 13.7376
 13.621
 13.6599
 13.7229
 17.7004
 14.2308
 13.2109
 13.1038
 12.1201
 12.0414
 12.0865
 12.075
 16.0844
 14.4682
 14.3723
 14.4708
 10.2658
 10.3491
 10.3454
 10.3413
 13.685
 13.7679
 13.689
 13.5977
 11.0585
 11.1442
 11.0772
 11.1785
 14.1715
 14.0546
 14.2475
 14.4672
 14.3492
 14.4205
 11.8331
 11.7781
 11.9307
 11.8201
 13.2721
 13.3202
 13.3997
 13.466
 15.5965
 15.6693
 15.5274
 15.5588
 12.044
 11.8403
 11.9179
 11.155
 10.9641
 10.963
 11.1475
 12.1104
 12.1324
 12.2415
 12.1108
 14.9423
 14.9602
 14.791
 14.9692
 14.7185
 14.7917
 14.7769
 14.7882
 11.7032
 11.606
 11.6158
 11.596
 14.2512
 14.2629
 14.3533
 12.4001
 12.3774
 12.435
 12.4961
 15.3717
 15.2822
 15.4249
 15.4179
 13.1602
 13.1087
 13.2551
 13.1951
 15.4898
 15.422
 15.4833
 15.4754
 13.4969
 13.3961
 13.4843
 13.4495
 12.2605
 12.2311
 12.122
 12.3597
 15.6907
 15.7201
 15.6445
 13.5881
 13.4921
 11.9849
 12.0521
 12.0536
 12.1331
 14.2444
 14.3068
 14.3189
 15.5491
 15.6411
 15.6672
 15.6205
 12.8796
 12.8331
 12.8996
 12.7925
 13.0548
 13.0745
 12.8933
 13.027
 17.3631
 17.3705
 17.282
 17.3322
 13.8085
 13.9218
 13.8474
 16.7819
 16.7096
 16.6867
 13.6844
 13.6913
 13.753
 13.7179
 13.8383
 15.4879
 15.4758
 15.6165
 15.5777
 14.1209
 14.0325
 13.9809
 12.1058
 12.1106
 12.117
 12.1644
 13.9694
 13.9151
 13.8595
 13.8616
 13.8706
 13.9136
 13.9388
 10.4478
 10.5221
 10.5463
 10.65
 15.0209
 14.8249
 14.8746
 14.9419
 15.8125
 15.8069
 15.7659
 15.7767
 14.4977
 14.5369
 14.3693
 14.4794
 11.8063
 11.7328
 11.7229
 11.8945
 17.4203
 17.3413
 17.3982
 17.2906
 12.49
 12.6155
 12.5272
 12.5166
 15.7906
 15.8628
 15.825
 15.835
 12.0187
 12.2758
 12.2197
 12.1069
 12.2815
 12.3583
 12.4183
 12.3308
 12.4787
 12.4125
 14.9323
 14.9929
 14.9996
 14.9454
 11.5483
 11.554
 11.5546
 12.4332
 12.6133
 12.5294
 12.4009
 15.0976
 14.9889
 15.0603
 15.1617
 14.4865
 14.5302
 14.396
 17.7837
 17.7822
 17.8151
 17.7828
 13.8317
 13.9929
 13.8384
 11.5851
 11.4967
 11.593
 11.6303
 12.1688
 12.2519
 11.6603
 11.542
 11.4427
 11.6271
 12.5819
 12.5696
 15.8374
 15.7909
 15.9174
 15.7306
 12.3244
 12.3563
 12.3386
 12.4809
 13.6628
 13.5956
 14.5914
 14.5081
 14.53
 14.5771
 12.3302
 12.2762
 12.2198
 12.2763
 14.8634
 15.0381
 15.0312
 14.9001
 11.6441
 11.663
 11.5452
 11.3619
 13.276
 13.2431
 13.3756
 16.0126
 16.0604
 16.071
 16.006
 13.0622
 13.0927
 13.1471
 13.2064
 15.0066
 15.1017
 15.1365
 15.1753
 14.931
 15.0464
 14.9662
 17.5006
 17.5045
 17.5091
 17.4546
 15.67
 15.5163
 15.48
 15.619
 12.1213
 12.1917
 12.0709
 12.1961
 13.9201
 13.8921
 13.9941
 14.377
 15.368
 15.3156
 15.3508
 15.2779
 14.3546
 14.4369
 14.3656
 14.3296
 12.7171
 12.5571
 12.5353
 12.6802
 15.3876
 15.3871
 15.2106
 16.1162
 13.3084
 13.2581
 13.3872
 13.2061
 15.3289
 15.1858
 16.8621
 16.9304
 15.3425
 15.2665
 15.3458
 15.4632
 12.6365
 12.5374
 11.9603
 11.9655
 11.9108
 11.986
 14.6188
 14.5294
 14.5088
 14.5366
 11.2074
 11.1813
 11.0732
 11.1837
 14.546
 14.5354
 14.7428
 14.7258
 12.4397
 12.4243
 12.4781
 12.6363
 15.0996
 15.0941
 15.0443
 15.0368
 12.2943
 12.22
 12.3673
 12.2724
 14.1851
 14.1008
 11.3989
 11.4678
 12.9156
 12.8353
 12.9536
 12.8069
 12.8835
 12.9358
 12.9301
 12.807
 13.5264
 13.5981
 13.4942
 13.4876
 12.2939
 12.4482
 12.2956
 12.1846
 15.1329
 15.2345
 15.1732
 15.1789
 11.4843
 11.538
 11.5593
 11.2915
 11.2563
 11.3846
 11.2982
 15.4456
 15.3308
 15.3319
 15.381
 12.621
 12.7647
 12.7442
 12.6873
 15.4365
 15.3542
 15.3442
 15.2593
 13.7124
 13.9629
 13.8139
 13.8112
 13.9595
 12.0046
 11.9849
 11.9798
 12.1249
 16.6207
 16.6885
 16.6378
 16.5594
 12.6951
 12.6231
 12.5364
 12.6419
 13.741
 13.6373
 13.8453
 13.7625
 12.6838
 12.7698
 12.7857
 12.7883
 12.9032
 10.4971
 10.5854
 10.7613
 10.6653
 12.2335
 12.2313
 12.416
 12.3646
 16.8217
 16.7721
 16.7063
 16.836
 14.2207
 14.3401
 14.3892
 14.2838
 14.7306
 13.6357
 13.6596
 13.6214
 13.5333
 11.6386
 11.6423
 11.7592
 11.8246
 12.0244
 12.0285
 11.9088
 11.6455
 11.9201
 11.7864
 11.8451
 17.3803
 17.3343
 12.4017
 12.4054
 12.3864
 14.8004
 14.8072
 14.8342
 14.7147
 12.5369
 12.594
 12.5094
 12.6142
 13.5165
 12.8336
 12.9455
 12.8258
 12.8656
 11.2927
 11.4985
 11.443
 11.305
 12.8445
 12.7613
 12.6019
 12.8159
 14.2628
 14.2251
 14.3717
 14.1465
 15.4943
 15.4742
 15.5274
 15.4513
 10.6839
 10.8457
 10.6377
 10.7019
 12.6073
 12.6611
 12.5548
 12.6999
 10.8774
 10.9409
 10.911
 10.8012
 14.7846
 14.9307
 14.7843
 14.7656
 13.5234
 13.5815
 11.364
 11.1885
 11.3814
 11.2849
 13.5276
 13.4926
 13.494
 13.3869
 13.9331
 13.806
 13.6239
 13.5533
 13.4949
 13.6204
 11.9499
 11.976
 12.0152
 11.8865
 14.5554
 14.6852
 14.7442
 14.6284
 15.868
 15.7878
 15.851
 15.8493
 15.6054
 15.6381
 15.6442
 15.642
 14.6662
 14.6119
 14.6067
 14.7053
 14.1438
 14.2919
 14.188
 14.0902
 14.2555
 14.179
 14.1284
 13.7345
 13.8156
 13.849
 13.7644
 15.9205
 15.9522
 15.9072
 14.3696
 14.4207
 14.294
 14.315
 13.5653
 13.4684
 13.4752
 13.6101
 14.9076
 15.003
 14.8531
 15.0166
 14.7167
 14.6253
 14.6501
 14.6579
 13.3726
 13.3664
 13.2804
 13.202
 13.8978
 13.9908
 13.9071
 13.9374
 12.7734
 12.8242
 12.7625
 12.8032
 15.6443
 15.6177
 15.5817
 12.1286
 12.1871
 12.0401
 12.1782
 14.9049
 14.8077
 14.8721
 14.9479
 14.1849
 14.2502
 14.2968
 14.1518
 13.9644
 13.8711
 13.8389
 13.1366
 13.148
 13.1042
 13.0154
 12.9065
 12.8884
 12.8157
 12.95
 12.7006
 12.6812
 12.5778
 11.9013
 11.8521
 11.8676
 12.982
 13.0344
 13.1125
 13.0207
 11.7377
 11.6741
 11.8279
 11.5227
 11.5159
 11.553
 11.6632
 13.885
 14.0896
 13.9784
 14.0224
 14.7216
 14.7994
 14.7071
 14.7929
 15.196
 11.8675
 11.9285
 11.734
 11.8527
 11.7573
 11.9797
 17.5595
 17.6058
 17.5534
 17.5231
 12.3899
 12.4899
 14.1337
 14.2585
 14.1282
 10.8625
 10.7235
 13.1211
 13.292
 13.2438
 13.217
 14.2219
 14.1661
 14.1633
 12.3715
 12.1529
 12.2896
 12.2117
 14.7627
 14.7359
 14.8114
 14.7006
 16.9901
 16.9128
 16.9312
 17.0124
 13.3106
 13.2889
 13.3452
 13.1933
 11.9449
 11.7304
 11.9443
 12.2465
 12.2491
 12.2212
 12.3271
 14.9626
 15.1189
 15.0784
 15.1802
 14.9855
 14.9005
 15.3254
 15.2457
 15.3556
 10.7892
 10.8757
 11.9555
 12.0811
 11.9404
 12.1091
 13.5906
 13.4279
 13.4531
 12.4955
 12.6334
 12.4029
 12.3933
 14.9082
 15.0595
 15.0316
 14.9574
 13.7785
 13.789
 13.6888
 13.6648
 13.8512
 13.7653
 13.7611
 13.8556
 15.0953
 15.0422
 15.0768
 14.8963
 14.949
 14.9095
 14.9193
 10.3428
 10.2063
 10.2981
 10.1444
 15.7267
 15.8512
 11.594
 11.5491
 11.5663
 11.6484
 14.1624
 14.0572
 14.1037
 14.1537
 13.5814
 13.5036
 13.5024
 13.498
 15.6367
 15.5527
 13.6497
 13.728
 13.7327
 13.7993
 14.1529
 14.1901
 14.224
 14.1152
 12.0686
 12.0961
 12.1387
 12.0685
 13.9462
 13.8712
 13.8476
 14.0065
 14.83
 14.8265
 13.1731
 13.1709
 13.2332
 13.1381
 12.6273
 12.6806
 12.5795
 13.5843
 13.4692
 13.5054
 13.4489
 15.2581
 15.207
 15.2827
 15.1471
 17.1369
 17.0543
 17.0653
 17.1449
 13.9136
 13.9824
 13.9035
 13.772
 13.44
 13.2845
 13.4001
 13.4356
 14.2684
 14.2087
 14.3302
 14.305
 14.603
 14.6679
 14.5912
 14.5397
 12.0208
 11.8888
 13.1266
 13.183
 13.225
 16.4419
 16.4815
 16.5329
 16.4308
 15.0758
 15.161
 15.0126
 15.1945
 13.6254
 13.5838
 13.6582
 13.6959
 12.0447
 11.9932
 11.9908
 14.0985
 14.1386
 14.2684
 14.2745
 14.8863
 14.7446
 14.7956
 14.8941
 12.4642
 12.6037
 12.6151
 12.5257
 13.1449
 13.1811
 13.2244
 13.2144
 12.0888
 12.0666
 12.0748
 12.3584
 12.3378
 12.345
 12.3293
 14.4232
 14.4023
 14.4813
 14.5365
 14.0088
 14.0276
 13.9285
 17.0096
 16.9955
 17.013
 17.0674
 14.8813
 14.8774
 15.845
 15.91
 15.8128
 15.7571
 15.1588
 15.5546
 11.656
 14.7818
 14.8938
 14.8065
 14.9441
 10.7348
 13.0953
 13.2051
 13.095
 13.2448
 14.8206
 14.7088
 14.7673
 14.3898
 14.3018
 14.2997
 12.0519
 12.0377
 12.2044
 12.0625
 12.1893
 12.2669
 12.1656
 12.257
 15.3759
 15.5069
 15.5115
 15.4175
 11.2695
 11.2404
 11.1974
 11.3511
 13.7782
 13.8832
 13.9663
 12.2027
 12.1046
 12.1728
 13.3784
 13.4853
 13.4452
 13.3589
 14.7766
 14.7186
 14.8516
 14.8068
 13.4335
 13.2654
 13.4152
 14.6679
 14.6374
 14.6299
 14.7494
 14.1372
 13.9859
 12.0398
 11.9657
 11.9343
 11.8275
 11.6361
 11.4772
 11.5631
 11.6079
 15.0928
 14.9884
 15.1347
 15.0469
 12.5539
 12.7209
 12.6514
 12.5204
 13.1914
 13.3684
 13.2187
 13.1463
 14.3337
 14.4233
 14.2814
 14.341
 11.789
 11.8416
 11.8871
 11.9474
 14.0992
 14.1968
 14.0342
 14.0728
 13.7803
 13.8683
 13.8705
 13.6936
 14.0541
 14.125
 14.0309
 14.0177
 15.0265
 14.9221
 15.1921
 15.1203
 15.0475
 15.1696
 15.9894
 16.1265
 16.0346
 15.9987
 13.1257
 13.1313
 13.1363
 13.0127
 13.2395
 13.3604
 13.3481
 11.3016
 11.2714
 11.2432
 11.2547
 10.7475
 10.6821
 10.7997
 11.4594
 11.4011
 11.5845
 13.4111
 13.2803
 13.1895
 13.3576
 12.7555
 12.6761
 12.6025
 12.8115
 12.1184
 12.0051
 12.1019
 11.9871
 14.6803
 14.7903
 14.7631
 14.6935
 15.8004
 15.7179
 15.6717
 15.6728
 10.7969
 10.7889
 10.8908
 10.655
 14.9072
 14.9466
 14.9908
 14.8841
 13.5161
 13.5168
 13.4571
 13.5459
 10.6765
 10.7369
 10.8964
 10.5898
 12.9895
 13.108
 12.9545
 12.9937
 14.2406
 14.2946
 14.2504
 14.2885
 14.8722
 14.9597
 14.948
 15.5302
 15.4207
 15.4878
 15.5491
 15.2742
 15.3201
 15.2651
 15.3287
 15.2037
 15.2789
 14.9667
 14.9066
 15.0835
 12.1514
 12.2235
 12.2462
 12.2637
 11.4845
 11.58
 11.5433
 11.5655
 12.9284
 12.9619
 12.9523
 13.1056
 13.9708
 11.659
 11.6062
 11.6263
 11.7038
 15.5892
 15.5951
 15.6022
 15.623
 11.0365
 10.945
 11.0671
 10.8809
 14.3943
 14.4923
 14.3328
 12.6808
 15.4667
 15.4723
 15.542
 15.1233
 15.1768
 15.2394
 15.076
 13.6235
 13.6442
 13.7963
 13.6964
 12.4524
 12.4442
 12.5392
 12.3661
 13.9823
 12.7324
 12.7869
 12.8178
 13.9406
 13.9689
 13.9384
 13.8269
 14.6845
 14.654
 14.7388
 14.7386
 14.3685
 14.5038
 14.4044
 14.3896
 12.6693
 15.0153
 15.0035
 14.9491
 12.2303
 12.3113
 12.2062
 12.2794
 11.8832
 11.9256
 11.7792
 11.9612
 11.4473
 11.378
 11.4659
 14.6817
 14.6753
 14.753
 14.668
 15.6633
 15.728
 15.6686
 12.0161
 12.0427
 11.7866
 11.8362
 11.8997
 11.9024
 13.9768
 13.9683
 13.8905
 11.0083
 11.0574
 10.9485
 11.0756
 12.0035
 12.0541
 12.0031
 11.9458
 13.0307
 13.0295
 12.9624
 12.9396
 13.5495
 13.5148
 13.5807
 13.6731
 14.9183
 14.9395
 14.9666
 14.8807
 11.8459
 11.8383
 11.9012
 11.7373
 14.6141
 14.5834
 14.7171
 14.3992
 14.3066
 14.2933
 14.264
 11.4864
 11.5045
 11.3358
 11.4308
 12.7359
 12.7239
 12.7713
 12.8091
 10.961
 11.0549
 11.1565
 11.0335
 14.3923
 14.3166
 14.2739
 14.288
 13.5646
 13.5218
 13.653
 13.4376
 11.8753
 11.8909
 11.8127
 11.8646
 13.619
 13.5309
 13.6485
 13.6272
 10.9767
 10.8067
 10.9472
 14.7172
 14.7529
 14.7754
 14.7587
 13.3364
 13.3406
 13.368
 13.4523
 13.0777
 12.9542
 13.0509
 13.0346
 13.7604
 13.8297
 13.6583
 13.7805
 11.9217
 11.928
 11.7739
 11.863
 13.949
 14.0654
 13.9943
 14.0331
 13.1861
 13.2171
 13.1972
 13.2902
 15.6506
 15.6449
 15.6658
 15.6496
 12.286
 12.2602
 12.3601
 12.4152
 15.6576
 15.6594
 15.6601
 14.9584
 15.0074
 15.0053
 14.9457
 15.2895
 15.2435
 15.0635
 15.2057
 12.3943
 12.4482
 12.3654
 12.2866
 12.8073
 12.6474
 12.7732
 12.7523
 14.3963
 14.4959
 14.4882
 14.5496
 10.5808
 10.6726
 10.7807
 16.962
 16.9809
 13.1744
 13.0692
 13.2336
 13.1883
 16.1622
 16.2442
 16.3389
 16.2502
 12.8277
 12.8134
 12.6776
 12.733
 14.3283
 14.6347
 14.6737
 14.7016
 14.7619
 12.4662
 12.4296
 12.4071
 12.3629
 11.8079
 11.8544
 11.7306
 11.8414
 15.6468
 15.6467
 12.6541
 12.5997
 12.4194
 12.6173
 13.2981
 13.5024
 13.2817
 13.3889
 14.8227
 14.8198
 14.8914
 14.6825
 13.957
 14.053
 14.0761
 13.9459
 12.0424
 12.1827
 11.92
 11.4466
 11.4884
 11.4704
 11.4881
 10.6992
 10.6958
 10.6575
 14.5676
 14.6331
 14.6128
 14.551
 11.4451
 11.5463
 11.5819
 11.6035
 15.3628
 15.4476
 15.4131
 15.3876
 12.9178
 12.9167
 12.8888
 13.0247
 13.4474
 13.3111
 13.4137
 13.4073
 11.4046
 11.4103
 11.421
 11.3217
 12.7768
 12.7037
 12.8144
 12.8827
 16.3722
 16.4209
 16.4485
 16.3824
 13.9676
 14.1269
 13.9793
 14.0975
 14.505
 14.3507
 14.3658
 14.4937
 12.4805
 12.4119
 12.5315
 12.6338
 15.2337
 15.3081
 15.3449
 15.3325
 13.1896
 13.2751
 13.2455
 13.1123
 14.5936
 14.6795
 14.6923
 15.6957
 15.7583
 15.734
 15.7901
 13.0929
 12.9876
 13.172
 12.9062
 12.9238
 12.9916
 14.9904
 15.0936
 15.1633
 15.1848
 15.196
 15.1487
 15.1117
 11.5253
 17.652
 17.6049
 17.6138
 17.6889
 11.9577
 12.0535
 11.8605
 11.9705
 15.435
 14.3513
 14.3718
 14.4001
 14.2529
 14.5319
 14.596
 14.3926
 14.9326
 14.798
 14.8617
 14.9077
 16.3655
 16.3909
 16.332
 16.4559
 15.3662
 15.2861
 15.2912
 13.5936
 13.654
 13.6447
 14.5869
 14.6246
 10.4051
 10.5602
 10.5701
 15.2839
 15.2001
 15.3279
 14.3812
 14.2976
 14.2553
 11.4323
 11.3116
 11.3275
 12.3966
 12.3901
 12.2707
 12.3902
 14.8974
 14.837
 14.8042
 15.6381
 15.7409
 11.2053
 11.3145
 11.1574
 11.2074
 16.0763
 16.0437
 16.1481
 15.9772
 15.2564
 15.2917
 17.1241
 17.197
 16.7422
 16.7576
 16.7096
 14.3846
 14.3264
 14.4412
 11.266
 11.4077
 11.4615
 12.7017
 12.6839
 12.5729
 14.8384
 14.7607
 14.6575
 14.5979
 14.6951
 11.7523
 15.7121
 15.7139
 15.6702
 15.6649
 14.4941
 14.305
 14.4322
 14.4333
 12.5305
 12.5683
 12.4857
 12.6171
 12.6042
 12.6744
 12.6394
 14.4055
 14.4425
 14.3455
 14.2689
 12.6953
 12.6505
 12.5673
 12.5722
 12.3011
 12.4049
 12.3442
 12.2098
 13.8057
 12.6444
 12.6258
 12.5969
 12.5565
 11.0572
 10.9893
 11.054
 11.1446
 15.0467
 15.222
 15.2458
 15.1154
 11.3044
 11.2282
 11.2972
 11.31
 17.1949
 17.1662
 17.2308
 11.2045
 11.2833
 11.0739
 11.141
 15.0119
 15.0355
 15.1314
 15.1172
 12.2756
 12.3878
 12.3062
 12.2244
 15.2587
 15.2538
 15.4576
 15.4128
 10.8608
 12.048
 12.2178
 12.153
 12.2707
 11.7357
 11.6131
 11.6682
 15.5848
 15.5321
 15.618
 15.6553
 12.4122
 12.5041
 12.4963
 12.5624
 13.2859
 13.1827
 13.1712
 13.2141
 13.4351
 13.3682
 13.5286
 13.5344
 10.681
 10.8253
 14.1839
 14.1716
 14.1834
 14.3943
 14.3073
 14.2697
 14.2106
 12.5821
 12.6575
 12.4599
 12.4491
 12.5765
 12.5167
 12.5171
 12.4219
 13.0887
 13.077
 12.9842
 13.1182
 15.0163
 15.009
 14.759
 14.829
 14.8332
 14.3805
 14.3064
 14.3033
 14.2886
 15.7771
 15.856
 15.8457
 15.8473
 14.4871
 14.55
 14.6412
 16.3222
 16.3258
 16.231
 14.4734
 14.4866
 14.5785
 14.4113
 14.9887
 14.8539
 15.0146
 13.9576
 12.5709
 12.6074
 12.469
 14.2416
 14.2772
 14.2054
 14.1402
 15.317
 15.3078
 15.0718
 15.1955
 13.8124
 13.7432
 13.7042
 13.7
 12.0978
 12.1757
 10.534
 10.6449
 10.7215
 10.5203
 12.5032
 12.5587
 12.4508
 12.6321
 14.185
 14.2064
 14.2176
 14.1565
 10.9322
 10.9195
 10.6921
 11.0121
 11.2459
 11.1824
 11.1543
 13.6681
 13.8129
 13.8536
 13.7205
 15.5261
 15.5564
 15.4719
 14.1047
 14.1171
 13.9885
 14.103
 15.5561
 15.6852
 15.561
 15.6871
 12.8223
 12.8303
 12.7977
 13.0496
 15.6312
 15.6284
 15.6381
 15.6061
 14.9758
 14.9079
 14.8818
 14.9344
 11.1893
 11.3273
 11.1639
 11.2872
 13.5774
 13.5743
 13.6716
 13.5684
 14.492
 14.5588
 14.4582
 14.542
 12.5953
 12.5692
 12.1887
 11.998
 12.0552
 12.0724
 14.2883
 14.1703
 14.2018
 14.0665
 14.028
 13.9578
 14.0056
 14.0193
 15.4488
 15.3878
 15.4711
 14.3183
 14.3938
 14.4518
 17.4486
 17.5379
 17.4676
 17.5136
 14.9054
 14.8574
 15.5924
 15.5431
 15.5823
 15.6676
 13.2764
 13.3847
 13.2871
 13.417
 16.3344
 16.2355
 16.1861
 16.28
 15.1764
 15.2049
 15.3124
 12.8767
 12.8404
 12.8541
 12.9115
 15.1199
 15.0366
 15.1563
 15.2605
 15.2536
 15.3451
 15.3312
 14.3941
 14.4558
 14.4399
 14.3287
 12.2793
 11.9824
 16.8013
 16.7628
 14.9432
 15.0283
 14.1293
 14.2208
 14.1833
 14.1989
 12.9507
 12.8673
 12.9506
 12.7984
 13.8166
 13.8084
 13.7482
 13.7272
 15.5401
 15.6979
 15.5676
 15.6336
 13.3345
 13.469
 13.3952
 15.5002
 15.5275
 15.4816
 15.4856
 11.584
 11.5656
 11.4752
 11.6342
 12.9741
 12.9789
 12.9841
 13.0917
 15.3747
 15.304
 15.4064
 14.0785
 14.2013
 14.0919
 14.0338
 15.6396
 15.6473
 15.6087
 15.163
 15.0651
 15.0962
 15.1564
 15.2818
 15.3014
 15.2037
 15.267
 14.2319
 14.3185
 14.3479
 14.3808
 11.1701
 11.2385
 11.3312
 11.2944
 13.1911
 13.0531
 13.1088
 13.091
 14.2002
 14.3353
 14.234
 13.6163
 13.6704
 13.6633
 11.7088
 11.8588
 11.721
 11.8133
 13.0985
 13.069
 13.1934
 13.0246
 14.3256
 14.2442
 14.2001
 14.2176
 15.762
 15.7331
 15.4004
 15.464
 15.3467
 15.3447
 16.9574
 16.9849
 17.0619
 16.9501
 12.5351
 12.5127
 12.5084
 12.5637
 15.0792
 15.1908
 15.1545
 15.1633
 13.8073
 13.9185
 13.8457
 13.9718
 15.9171
 15.96
 15.9437
 15.9826
 13.5155
 13.5765
 13.6381
 13.6263
 14.0719
 12.5668
 12.6605
 12.7077
 12.672
 14.2714
 14.3924
 14.4184
 14.2949
 14.287
 14.2323
 14.1602
 14.1923
 14.5704
 14.6681
 14.6301
 14.6992
 15.3123
 15.4169
 15.2551
 11.9969
 11.9665
 11.9271
 12.1494
 14.3226
 14.3583
 14.3591
 14.3967
 12.1211
 12.0655
 11.9822
 12.9032
 12.9841
 12.9071
 12.9712
 12.3388
 12.1612
 12.2604
 12.1516
 15.3482
 15.263
 15.3654
 17.702
 17.6608
 17.6496
 12.6711
 12.5298
 12.5657
 13.4863
 13.2956
 13.3961
 13.2879
 14.4903
 14.4417
 14.3919
 14.4736
 14.1831
 14.1382
 14.2836
 14.2502
 16.5264
 16.4598
 16.6109
 16.456
 13.7628
 13.818
 13.8286
 13.8425
 13.2949
 13.2948
 13.1872
 13.3175
 15.1035
 15.102
 14.8496
 15.0449
 14.9476
 14.9344
 12.8141
 12.9093
 12.8468
 12.8436
 15.2155
 15.1052
 13.2049
 13.2569
 15.5053
 17.5271
 17.5462
 17.5322
 17.4693
 15.8991
 15.8036
 10.8466
 10.6938
 10.8209
 15.68
 15.5933
 15.5152
 15.6018
 12.6689
 12.6471
 14.9952
 15.0184
 15.0036
 14.9982
 14.6409
 14.4616
 14.5367
 12.5432
 12.5009
 12.5278
 12.3972
 13.0749
 12.9631
 13.0602
 13.0255
 11.9583
 11.9545
 11.8287
 14.2326
 14.3285
 14.2243
 14.3784
 13.9206
 11.8583
 12.0725
 11.9109
 11.9646
 15.6423
 15.6708
 15.6073
 15.5647
 13.6829
 13.7725
 13.6361
 13.7411
 12.4747
 12.6605
 12.5264
 12.6211
 17.1142
 17.0958
 17.0681
 17.0623
 15.3418
 10.9147
 14.4069
 14.2498
 14.3513
 14.4529
 13.6506
 13.5497
 13.6791
 13.7189
 14.9877
 15.1238
 15.0498
 15.0187
 13.5814
 13.6387
 13.5935
 13.5698
 15.4536
 15.4311
 15.3341
 15.4624
 15.3784
 15.3144
 15.3869
 14.1739
 14.0696
 14.2256
 14.1651
 12.4152
 12.3021
 12.536
 10.4587
 10.3087
 10.4415
 10.5228
 16.6005
 16.6952
 16.7039
 14.0289
 14.0355
 14.1165
 14.0713
 14.1838
 14.035
 11.5186
 11.5271
 11.5696
 11.4148
 12.6994
 12.7858
 12.7534
 12.8438
 15.3135
 15.1637
 15.2742
 16.1058
 14.3006
 14.4311
 14.3837
 14.3107
 14.0314
 13.96
 13.9781
 12.9084
 12.9732
 12.9494
 12.8706
 12.5394
 12.6678
 12.5739
 12.6399
 14.3555
 14.4301
 12.7077
 12.7183
 12.693
 12.6053
 13.5162
 13.5497
 13.5201
 13.4214
 11.2781
 11.1972
 13.1744
 13.2802
 13.1877
 13.2346
 12.7601
 12.7023
 12.6834
 12.6175
 12.9623
 12.8915
 12.9593
 12.9644
 13.9725
 13.9087
 14.2573
 14.1815
 14.2641
 14.3292
 14.6222
 14.7178
 14.6744
 14.648
 13.4819
 13.4039
 13.4046
 13.4643
 15.4117
 15.3387
 15.279
 15.2348
 15.0128
 15.0337
 15.0731
 15.0379
 16.8035
 16.7431
 16.7514
 16.8411
 14.6188
 14.7821
 13.5273
 13.7007
 13.5707
 13.6242
 14.3835
 14.4054
 14.3609
 14.2865
 13.7133
 13.6405
 13.592
 13.677
 14.212
 14.193
 12.5384
 12.5845
 10.9384
 10.9141
 10.8948
 10.8743
 15.6166
 14.284
 14.2962
 14.2622
 14.1869
 13.8708
 13.9708
 13.9355
 13.9124
 14.8136
 14.8777
 14.9018
 14.9894
 12.7878
 12.933
 12.806
 12.9338
 13.6239
 13.6962
 13.7318
 13.6298
 15.4615
 15.4977
 15.4161
 15.5006
 15.5483
 14.4577
 14.3484
 14.4858
 14.4406
 14.5573
 14.4137
 14.5269
 14.5469
 15.3099
 15.3054
 15.3952
 15.3101
 15.0485
 15.0199
 14.8883
 14.9499
 14.0798
 13.9812
 14.126
 14.134
 15.4187
 15.4785
 15.5164
 15.4806
 13.5673
 13.5349
 13.6778
 14.9115
 14.9121
 14.9322
 14.9469
 16.3426
 16.2833
 13.5737
 13.4972
 13.4729
 13.7434
 13.619
 13.6687
 13.6096
 15.5872
 15.5147
 15.4792
 15.8932
 15.8451
 15.8445
 15.8786
 13.1757
 13.2031
 13.1082
 13.2055
 13.639
 13.7841
 13.6326
 12.3191
 12.538
 12.4368
 13.9752
 14.0585
 14.0384
 11.9576
 11.9835
 11.934
 16.8932
 16.9565
 16.9575
 16.8992
 11.2706
 11.2188
 11.2944
 11.206
 14.6917
 14.7849
 13.4594
 13.5407
 15.2684
 15.2639
 15.2891
 15.1973
 13.27
 13.3206
 13.1904
 12.4837
 12.3926
 12.4147
 12.3967
 11.8754
 12.052
 15.6247
 15.6129
 15.6594
 13.5731
 13.5833
 13.6862
 15.0361
 15.1261
 15.0162
 15.5429
 15.5415
 15.5678
 15.6072
 14.2977
 14.2523
 14.3563
 14.2121
 14.4273
 14.5403
 14.5185
 14.4383
 12.8716
 12.9033
 12.9178
 12.7938
 12.5732
 12.6713
 12.6149
 12.7536
 14.5056
 14.4878
 14.4176
 13.2196
 13.2613
 13.3234
 12.8669
 12.7621
 12.8211
 12.7809
 10.1559
 10.2413
 10.1205
 13.944
 13.9763
 13.9777
 12.817
 12.7479
 12.8917
 14.0456
 13.987
 14.1195
 14.7181
 14.8353
 14.8081
 15.6202
 15.5834
 15.5998
 15.5753
 13.9558
 14.191
 14.08
 14.1549
 14.9158
 14.9468
 15.0183
 15.3614
 15.2553
 12.9888
 13.0616
 12.8961
 13.0039
 12.9695
 12.8693
 13.024
 13.0912
 15.2783
 15.173
 15.1214
 15.0942
 15.3994
 15.5088
 15.442
 15.5151
 16.0612
 16.1127
 16.0585
 16.149
 11.3697
 11.3132
 12.0843
 12.2473
 12.1539
 12.0654
 11.1531
 14.7805
 14.6638
 14.777
 13.8605
 13.8311
 13.912
 13.9539
 15.3589
 15.3639
 14.1049
 14.1352
 14.0208
 15.6893
 15.6522
 12.2338
 12.2263
 12.0999
 12.329
 11.7806
 11.8219
 11.6041
 11.7382
 12.534
 12.5152
 12.6314
 14.6985
 14.622
 14.6274
 11.8181
 11.8392
 11.7923
 11.7648
 14.9705
 15.0922
 15.0005
 14.9539
 12.4375
 12.5119
 12.5447
 12.4447
 14.8964
 15.0041
 15.026
 14.8539
 15.4101
 15.3705
 15.4424
 11.1596
 10.9494
 11.048
 11.1104
 15.6012
 15.5571
 15.5787
 14.3358
 14.3031
 14.1766
 14.2583
 11.2179
 11.0891
 11.156
 14.8937
 14.9707
 14.8558
 14.9206
 13.0826
 11.5082
 11.4309
 11.6935
 11.5475
 15.7615
 15.7352
 15.6854
 15.7423
 12.9571
 13.1283
 12.9956
 12.9538
 14.0064
 13.9706
 14.1074
 15.388
 15.4512
 15.3764
 15.565
 13.0989
 13.143
 13.0421
 15.0501
 15.0935
 16.8212
 16.9065
 16.8265
 16.7703
 15.9491
 16.1581
 16.1665
 11.7328
 11.7898
 11.5602
 11.7309
 11.7676
 11.688
 15.8907
 15.8673
 15.9601
 15.8353
 14.4703
 14.4256
 14.4372
 14.3759
 14.1487
 14.2897
 14.2837
 14.2479
 13.5606
 13.6041
 13.4782
 13.588
 13.5558
 13.7295
 13.6199
 13.7174
 11.3883
 15.4835
 15.5281
 15.4769
 15.5093
 11.3383
 11.4352
 11.2893
 13.5063
 13.6177
 13.6758
 13.629
 15.5704
 15.4762
 15.4441
 13.6898
 13.7817
 13.7131
 13.7853
 14.007
 12.9101
 12.8766
 12.7461
 12.7941
 14.9807
 14.9893
 14.9826
 14.0103
 13.8372
 13.9133
 11.2186
 11.2709
 11.4077
 11.2885
 14.0159
 14.0345
 14.0814
 17.1726
 17.1458
 17.2284
 14.0255
 14.0987
 14.0312
 14.198
 12.8547
 12.7429
 12.7804
 13.9107
 13.88
 12.0193
 11.9474
 12.0868
 12.0594
 12.5637
 12.4549
 12.5083
 12.5345
 11.0857
 11.1313
 11.2151
 11.306
 13.6429
 13.8453
 13.6993
 13.6665
 12.6842
 12.7171
 12.7558
 12.7956
 12.0256
 11.933
 11.8405
 15.1214
 15.0612
 15.2168
 15.1553
 14.126
 14.023
 14.6533
 14.7309
 14.645
 14.6825
 12.9949
 13.0039
 13.018
 12.936
 14.0433
 13.9472
 13.9715
 14.0816
 13.1176
 13.182
 13.0453
 13.1743
 13.9388
 13.9144
 13.809
 13.8085
 14.0948
 14.1789
 14.1786
 12.076
 12.1647
 12.1079
 11.5889
 11.5843
 11.6224
 11.4342
 12.0521
 12.0559
 11.9681
 12.7298
 12.5555
 12.6958
 16.6149
 16.6094
 16.6867
 14.1512
 14.0194
 14.122
 12.2063
 12.1522
 12.2227
 12.223
 14.1546
 14.105
 14.1632
 13.5628
 13.5353
 13.5186
 13.6347
 13.0532
 13.2852
 13.209
 13.2124
 14.0134
 13.9251
 13.9576
 13.8811
 15.2324
 15.1692
 15.2202
 15.2733
 14.1137
 13.5782
 13.5936
 13.5287
 13.7326
 15.6077
 15.5724
 15.559
 15.5647
 15.5473
 15.4671
 15.5197
 15.4688
 15.3897
 15.3202
 15.3659
 15.4081
 13.077
 13.1079
 12.9576
 12.8964
 15.065
 15.1242
 15.0852
 15.0729
 10.7919
 10.9263
 10.8276
 10.923
 16.0869
 16.0372
 15.9736
 15.9782
 15.0514
 15.0403
 15.066
 15.736
 15.8107
 15.8614
 15.8433
 15.3548
 15.4233
 15.2924
 15.5369
 15.5197
 13.8494
 13.8657
 13.7882
 13.6372
 11.6531
 11.7599
 11.7936
 11.5777
 11.6041
 11.5181
 11.6447
 15.3466
 15.4183
 11.0481
 10.9668
 11.085
 12.0348
 12.059
 12.021
 11.95
 15.372
 15.4223
 15.3572
 11.1975
 11.138
 11.2491
 11.1039
 14.5973
 14.5752
 14.5007
 14.6632
 15.3267
 15.4492
 15.3899
 15.3029
 15.8073
 15.6579
 15.7193
 15.7483
 16.4102
 16.3729
 16.4576
 16.4578
 13.3064
 13.1108
 13.2207
 13.1279
 14.5232
 14.5214
 14.5618
 14.6992
 11.1295
 11.3012
 11.1418
 17.2219
 17.1299
 17.1925
 17.0841
 15.9791
 15.8881
 15.9386
 15.8611
 11.2747
 11.0791
 11.1857
 11.1935
 14.0137
 13.9967
 13.9107
 11.9432
 11.7799
 11.7535
 15.1894
 15.1954
 15.3214
 11.0788
 11.2299
 11.2308
 11.1375
 11.9255
 11.9725
 12.0017
 12.105
 14.9321
 14.8779
 14.7892
 14.8739
 14.5445
 14.654
 14.5479
 14.6732
 12.4621
 12.4568
 12.4168
 12.2951
 13.7592
 13.8227
 13.8937
 13.846
 16.1518
 16.0596
 16.064
 16.0597
 11.8842
 12.1357
 11.9734
 12.0337
 10.9413
 13.7826
 13.7534
 13.6823
 13.6845
 11.5816
 11.5094
 11.5292
 11.4001
 15.5938
 15.5933
 15.5769
 15.5756
 11.1468
 11.0421
 11.186
 11.2384
 14.0783
 14.1025
 14.4995
 14.5562
 14.4845
 14.446
 12.4786
 12.598
 12.6113
 12.6085
 13.5471
 13.4189
 13.4358
 14.5472
 14.5658
 14.5235
 12.503
 12.5075
 12.646
 12.6539
 12.626
 12.6892
 12.5678
 12.6586
 15.2588
 15.3544
 15.3616
 14.0133
 13.7856
 13.789
 13.9146
 16.1937
 16.1091
 16.0181
 16.1448
 16.2216
 11.0404
 11.2609
 11.0279
 11.2291
 13.8392
 13.9029
 13.9501
 13.8465
 11.6712
 11.5851
 14.2419
 14.3998
 14.3958
 15.0102
 15.1067
 14.9454
 14.9735
 11.2317
 11.274
 11.1837
 11.1792
 15.4721
 15.4365
 15.4521
 14.9935
 15.0363
 14.9588
 15.0278
 14.5986
 14.4903
 14.5695
 14.6983
 12.9204
 12.6978
 12.8186
 12.7677
 15.1364
 14.9998
 15.078
 15.0884
 12.5271
 13.3688
 13.2379
 13.2014
 13.3881
 11.6234
 11.5782
 11.7065
 11.293
 11.3464
 11.358
 11.4531
 13.302
 13.2494
 13.3946
 13.3276
 10.6934
 10.6977
 10.6944
 10.8403
 14.6479
 13.4339
 13.5867
 13.5965
 13.4789
 13.8123
 13.9771
 13.9096
 13.8605
 16.398
 16.3047
 16.2806
 16.376
 14.0673
 14.0396
 14.0012
 14.129
 14.3683
 14.3437
 14.3085
 14.2662
 14.2683
 14.2484
 14.1717
 11.8312
 11.9585
 12.01
 14.3397
 14.4494
 14.4352
 14.3576
 11.8254
 11.6418
 11.742
 13.9257
 13.9948
 13.8009
 13.7319
 13.7656
 13.6728
 13.7046
 13.6707
 13.8954
 13.8688
 13.7276
 13.7765
 11.7501
 11.6761
 11.6834
 14.6071
 11.4876
 13.5341
 13.4551
 13.5401
 13.6503
 15.2894
 15.2658
 15.3803
 15.1007
 15.0021
 14.9629
 13.7824
 13.7462
 13.8511
 13.9884
 13.9938
 13.938
 13.8831
 13.904
 13.9874
 13.8324
 13.9691
 17.2695
 17.2538
 17.3355
 12.4646
 12.6074
 12.4677
 14.1007
 14.0612
 12.0618
 12.241
 12.1942
 12.2385
 13.3757
 13.282
 13.3708
 16.3099
 16.3156
 16.4098
 16.3715
 14.2982
 14.4324
 14.3378
 14.3664
 15.2273
 15.2771
 15.3298
 15.3615
 12.9777
 13.1376
 13.0584
 12.993
 14.7683
 14.8424
 14.785
 14.9014
 16.1412
 16.1577
 16.1674
 14.5687
 14.6088
 14.6657
 14.6407
 12.9343
 12.8036
 12.846
 12.8472
 13.9633
 13.851
 13.8314
 13.8982
 15.1037
 15.1562
 15.0989
 14.4721
 14.5535
 14.5136
 14.5347
 15.1268
 15.2327
 15.1075
 15.2053
 15.5449
 15.4204
 15.4242
 15.5647
 11.3557
 11.274
 11.3157
 11.2738
 15.4089
 15.3285
 15.3581
 15.3269
 15.1466
 15.2167
 15.1098
 15.1232
 13.2485
 13.0919
 13.1556
 13.0691
 14.5643
 14.6016
 14.4989
 14.5349
 10.3435
 10.2762
 10.2905
 10.2717
 14.3113
 14.3615
 14.2628
 15.5556
 15.6277
 15.5966
 15.5119
 15.4522
 15.5
 15.4672
 15.5021
 15.2873
 15.4363
 12.8862
 12.9894
 12.896
 13.0533
 10.6608
 10.762
 10.7035
 10.7204
 14.4193
 14.5219
 14.4642
 14.5257
 15.3042
 15.3693
 15.3799
 13.0556
 13.1746
 13.1952
 13.0797
 14.1783
 14.2065
 14.131
 14.0674
 15.0262
 15.0253
 15.0366
 14.9472
 15.604
 15.4546
 15.5455
 12.3137
 12.1954
 12.1443
 12.2815
 12.1754
 12.1658
 12.2889
 14.3863
 14.3763
 14.307
 14.2676
 14.3203
 14.3809
 14.2542
 15.0318
 14.9378
 14.8975
 14.9101
 13.0882
 13.1129
 13.2008
 15.3128
 15.3092
 15.418
 13.8148
 13.6909
 13.7434
 12.1194
 12.2704
 12.1956
 12.8832
 12.9149
 14.6257
 14.5533
 14.6309
 14.5449
 14.5054
 14.5512
 14.1185
 14.2487
 14.9227
 15.7107
 15.6914
 15.7747
 11.7703
 11.787
 11.9674
 14.3906
 14.3103
 14.3424
 14.4128
 14.9826
 13.9228
 13.8393
 13.0311
 13.005
 13.0531
 12.9501
 13.9545
 14.0503
 13.9358
 14.324
 14.2684
 14.4291
 14.3022
 14.5731
 14.3867
 14.3122
 14.3927
 14.434
 14.2561
 11.8391
 11.9543
 11.9856
 11.9035
 11.7719
 11.6764
 11.5036
 11.5661
 15.35
 15.2627
 13.9018
 13.9417
 13.9714
 14.0514
 13.5986
 13.5679
 13.5321
 13.4831
 13.132
 13.031
 13.1436
 13.1617
 14.1513
 14.2093
 14.2517
 14.132
 14.3083
 14.239
 14.2891
 14.3459
 12.1078
 12.2866
 12.1374
 12.1824
 15.1506
 15.0322
 15.0199
 14.9442
 15.1898
 15.0721
 15.1362
 12.3792
 12.2679
 12.1363
 12.0969
 15.074
 14.9983
 15.0241
 14.9494
 11.6463
 11.7029
 11.6096
 11.6714
 12.1296
 12.2011
 12.1638
 12.2196
 14.4917
 14.438
 14.5337
 14.4829
 12.8297
 12.791
 12.8681
 12.9791
 14.9848
 14.9265
 14.8485
 14.82
 12.5601
 12.6245
 12.5939
 15.3861
 15.3241
 15.4014
 15.3507
 13.4315
 13.4647
 13.4019
 13.3559
 14.5686
 14.5374
 12.6418
 12.4716
 12.5487
 12.6049
 12.5201
 12.5423
 12.6167
 14.2501
 14.1064
 14.2387
 12.3384
 12.3519
 12.3049
 12.195
 16.129
 16.0878
 16.025
 16.0604
 14.9779
 14.9443
 14.8502
 14.8355
 13.3186
 13.4678
 13.4483
 13.3048
 11.6843
 11.6651
 11.7513
 11.6688
 12.0393
 11.9259
 11.9
 12.019
 11.5054
 11.5039
 11.4787
 11.7744
 11.7342
 14.7204
 14.6511
 14.7272
 14.6281
 15.2197
 15.1812
 15.3324
 15.2431
 14.8579
 14.8542
 14.6338
 14.5231
 14.6068
 14.6008
 14.3398
 14.326
 14.2068
 14.3243
 15.258
 15.255
 15.3324
 13.7207
 13.7912
 13.7714
 13.8168
 10.3394
 10.3832
 10.5011
 14.6936
 14.7114
 14.6778
 14.5848
 12.0828
 12.2386
 12.1402
 12.0993
 12.9197
 12.777
 12.8209
 13.877
 13.9404
 13.8246
 12.9028
 12.7709
 12.9116
 12.1059
 12.2217
 13.006
 12.9874
 12.9858
 14.9514
 14.9111
 14.8836
 15.0014
 11.5833
 11.4992
 11.5898
 11.6305
 13.3988
 13.2582
 13.3458
 16.5002
 16.5954
 16.6252
 16.5082
 15.4138
 15.4654
 13.5745
 14.6066
 14.4728
 14.5608
 14.6054
 13.8398
 13.7259
 13.7324
 12.6869
 12.6529
 12.7489
 12.684
 11.5856
 11.5094
 14.0303
 14.0786
 14.0727
 14.1419
 15.5198
 15.5896
 15.599
 15.4819
 12.014
 11.9337
 11.9579
 12.011
 13.2729
 13.2244
 13.2929
 17.0748
 17.1105
 17.1869
 17.1886
 15.3469
 15.3656
 15.4569
 14.7873
 14.7087
 14.8441
 14.7596
 13.418
 13.4074
 13.4805
 13.3316
 13.9378
 13.8484
 15.6433
 15.6116
 15.6214
 15.6178
 13.1952
 13.0716
 14.8397
 14.9576
 14.8845
 14.8549
 14.4028
 14.3574
 14.4842
 14.3979
 13.9339
 13.8255
 13.7724
 13.8628
 14.8044
 14.8554
 14.9683
 12.9178
 13.0834
 12.9181
 13.0418
 12.2987
 12.1979
 12.0973
 12.2853
 12.4421
 12.4559
 12.4476
 12.3228
 15.5566
 15.6576
 15.5811
 15.6551
 13.9647
 14.0342
 16.7032
 16.8026
 16.7547
 16.8476
 14.4595
 14.5627
 14.6071
 11.0869
 17.4617
 17.4387
 17.4417
 17.5665
 14.0142
 13.9512
 14.0142
 14.0008
 14.6942
 14.5931
 14.6441
 12.3549
 12.2555
 12.233
 12.3677
 12.3496
 12.3941
 12.2655
 12.275
 12.4136
 12.3607
 12.463
 12.5085
 14.9225
 14.8351
 14.9796
 14.8359
 15.286
 15.3234
 15.3698
 15.3636
 13.2059
 13.2135
 13.0737
 13.221
 14.355
 14.5051
 14.3194
 14.4177
 10.5587
 11.5805
 11.5225
 13.4374
 13.4479
 14.2671
 14.3543
 14.3317
 11.5
 11.3042
 11.4323
 11.4646
 14.0802
 14.1292
 13.5517
 13.6437
 16.3058
 16.221
 16.324
 16.2337
 14.939
 14.9767
 15.0521
 14.9975
 13.225
 13.0841
 13.2066
 13.1173
 16.1107
 16.2112
 16.1356
 16.0946
 10.7617
 10.8237
 10.6881
 10.8134
 11.6725
 11.8306
 11.4223
 11.5093
 11.6115
 11.418
 12.3287
 12.2293
 14.5343
 14.4768
 14.5464
 17.2773
 17.1957
 17.3027
 17.2969
 16.0046
 15.9421
 15.9268
 16.0078
 11.6215
 11.5167
 11.6207
 11.6899
 12.7526
 12.5804
 12.6715
 13.7272
 13.8299
 13.906
 13.7788
 14.8155
 14.694
 14.7895
 14.8297
 11.9299
 11.8133
 11.908
 11.5938
 13.8098
 13.6765
 14.8329
 14.7963
 13.0255
 12.9037
 13.0677
 13.0225
 15.2259
 15.3476
 15.1901
 15.3614
 15.4209
 15.5257
 15.4858
 17.1729
 17.0314
 17.0478
 17.0985
 14.755
 14.697
 14.7072
 14.6169
 12.0287
 12.007
 12.2497
 12.1349
 12.2044
 12.135
 14.9855
 14.9896
 14.8915
 15.059
 12.5732
 12.6441
 12.5322
 12.9865
 12.9909
 12.9486
 13.0465
 12.167
 12.0476
 12.1801
 12.0396
 14.8502
 14.7537
 14.7865
 14.8298
 11.2944
 11.5053
 14.3055
 16.5444
 16.5123
 16.4494
 16.4196
 12.5558
 12.5931
 12.4914
 16.0506
 16.1105
 16.0557
 16.1438
 12.908
 12.9198
 12.915
 12.8071
 15.5164
 15.5206
 15.6279
 15.4848
 15.1982
 15.2108
 15.1188
 15.098
 13.1226
 13.0328
 13.0184
 14.6134
 14.5621
 14.6418
 14.6996
 13.3774
 13.3942
 13.3208
 13.4907
 13.5076
 13.6103
 12.1626
 12.1211
 12.1382
 12.9361
 12.917
 12.9935
 16.6448
 16.633
 16.5498
 16.6172
 15.3443
 15.2463
 15.3887
 15.2143
 11.8717
 12.0397
 12.0456
 12.0554
 12.3917
 12.436
 15.0658
 14.8784
 15.0542
 12.964
 13.1086
 13.0891
 13.1581
 13.0429
 13.08
 13.1266
 14.9277
 14.9795
 14.9166
 14.8924
 11.371
 11.3741
 14.5371
 14.5781
 14.5335
 14.4801
 15.0203
 15.0135
 14.9788
 12.9092
 12.8738
 13.9866
 14.0305
 14.0234
 13.9107
 15.5316
 15.5722
 13.2288
 13.2879
 14.5319
 14.6699
 14.6439
 14.5676
 13.7104
 13.7137
 13.7918
 13.6426
 13.7248
 13.7939
 13.7326
 15.7499
 15.7313
 15.7788
 15.6094
 16.0394
 16.0396
 15.9714
 16.0065
 12.8558
 12.9348
 13.0287
 12.9578
 11.7814
 11.7693
 11.8541
 11.8535
 13.5122
 13.451
 13.5507
 13.9207
 13.9868
 14.0345
 13.9698
 13.9051
 12.466
 12.4364
 14.7567
 14.6558
 14.7488
 14.7781
 15.159
 11.7847
 11.8133
 11.9051
 11.8568
 13.8858
 14.0591
 14.0113
 13.917
 17.0395
 16.9844
 14.2308
 14.3609
 14.231
 16.6485
 16.6239
 16.6717
 16.5829
 13.325
 13.4095
 13.3383
 13.3854
 15.5398
 15.4283
 15.4055
 14.9446
 14.8572
 11.2123
 11.2294
 11.2302
 11.4825
 11.4748
 11.5448
 15.3296
 15.1897
 14.9705
 14.9758
 16.837
 16.894
 16.9053
 16.9224
 11.7867
 11.9576
 11.755
 15.2141
 15.1986
 15.1395
 15.2744
 15.0304
 15.0713
 14.9586
 15.0715
 12.9089
 12.8603
 12.8127
 12.877
 13.3539
 13.1169
 13.2349
 12.9415
 12.9244
 13.0519
 12.9306
 12.4906
 12.621
 12.3848
 12.6749
 15.5945
 15.586
 15.3148
 15.3099
 15.26
 13.4426
 13.4979
 13.6034
 13.5576
 15.1264
 15.1356
 15.0216
 15.06
 12.7699
 12.8413
 12.8179
 12.7523
 15.5536
 15.4342
 11.8659
 11.9484
 11.9045
 12.0095
 12.7613
 12.9486
 12.8659
 12.7302
 14.792
 14.781
 14.8151
 14.7248
 12.1181
 11.979
 14.2859
 14.26
 14.2216
 14.1996
 16.1183
 16.0978
 16.112
 16.0944
 15.5489
 15.4927
 15.5525
 15.4705
 11.1477
 11.0964
 11.048
 11.0679
 11.6684
 11.722
 11.7692
 14.8422
 14.8611
 14.8748
 11.2222
 11.1425
 14.2122
 14.1625
 14.2339
 14.0894
 12.0193
 12.101
 11.9973
 12.1029
 15.0797
 15.132
 15.0637
 15.1429
 15.7671
 15.6725
 15.7237
 12.2653
 12.1246
 12.1344
 12.1688
 14.4623
 14.3243
 14.3474
 14.3853
 15.2575
 15.2216
 15.155
 15.3257
 15.5811
 15.7315
 15.5491
 13.4522
 13.5701
 13.3925
 13.8221
 13.7978
 13.886
 13.758
 13.5047
 13.5181
 13.4032
 13.5397
 14.5632
 14.4597
 14.5586
 14.4693
 14.9828
 14.959
 14.9023
 15.0297
 15.3561
 15.4462
 13.0697
 12.9123
 13.0761
 13.0748
 13.7177
 13.8653
 13.7488
 13.8151
 13.667
 13.8212
 13.8432
 13.899
 13.7081
 13.778
 16.5834
 16.546
 16.4783
 16.5291
 11.6419
 11.5101
 11.6371
 14.4148
 14.425
 14.4422
 14.5222
 14.0788
 14.1655
 14.0815
 15.4601
 15.3921
 15.5024
 15.4695
 15.198
 15.2906
 15.2243
 15.2501
 14.4671
 14.4372
 14.3539
 15.0679
 15.1225
 12.7467
 12.816
 12.6588
 11.0012
 10.9736
 11.0865
 11.0209
 15.1994
 15.3027
 15.2985
 15.1743
 14.0841
 13.9917
 13.9603
 14.0687
 12.4613
 12.4295
 12.5416
 12.541
 15.1171
 15.0773
 15.1541
 15.0093
 14.8603
 14.8007
 14.7669
 14.6816
 12.2451
 12.3502
 12.4858
 12.459
 14.8907
 14.7776
 11.8332
 11.8776
 11.7667
 13.5067
 13.6029
 15.8522
 15.8991
 15.9189
 15.9439
 14.4373
 14.3908
 14.3594
 14.3832
 15.9157
 15.9602
 15.9119
 14.1258
 14.1456
 13.2903
 13.2173
 13.0978
 13.2813
 14.4397
 14.4321
 13.0704
 12.96
 14.5249
 14.589
 14.5335
 14.4981
 13.0604
 13.1501
 13.0198
 12.9939
 12.58
 12.4533
 12.3392
 12.4242
 11.2917
 11.2737
 11.3326
 11.3245
 14.0132
 13.9555
 15.1612
 15.1633
 15.326
 15.3716
 12.5164
 12.6451
 15.4232
 15.3242
 15.3907
 16.3875
 16.3708
 16.2316
 16.2913
 16.5455
 16.4711
 16.5148
 13.7988
 13.6681
 13.6823
 13.7007
 14.507
 14.4148
 14.4897
 15.2357
 14.8169
 14.7368
 14.8623
 14.7552
 15.2615
 15.189
 15.3322
 15.2373
 14.5968
 14.6776
 14.5789
 14.6718
 12.9151
 13.1243
 13.1174
 12.9466
 11.28
 11.3313
 11.3328
 11.2178
 14.2657
 14.2986
 14.1509
 14.1947
 12.2543
 12.3161
 12.1097
 12.1483
 14.8266
 12.8759
 13.0398
 12.9623
 12.988
 15.8028
 15.8595
 15.8082
 15.8036
 12.8488
 12.7324
 12.7238
 14.6829
 11.756
 11.7455
 11.8143
 11.6089
 11.4746
 11.4689
 11.4608
 11.429
 11.5766
 11.469
 11.4355
 13.8891
 13.908
 13.879
 14.0147
 11.5388
 11.5288
 11.4756
 11.4799
 15.254
 15.3226
 15.3412
 15.364
 13.1539
 13.2016
 13.1883
 13.3067
 14.2963
 14.171
 14.1929
 14.2849
 16.2036
 16.1348
 16.1912
 13.3046
 14.0959
 14.1252
 14.1744
 14.0434
 11.5305
 11.428
 11.4298
 11.3933
 11.5444
 11.4638
 11.3565
 11.3972
 13.2212
 13.2561
 13.1838
 13.2745
 14.8082
 14.8748
 14.9103
 14.871
 14.4081
 14.2947
 14.3685
 11.7109
 11.6407
 11.7266
 11.8429
 11.4692
 11.3988
 11.4126
 11.5057
 15.2801
 15.3348
 15.3337
 12.3181
 12.2163
 11.494
 11.5275
 11.5055
 15.2195
 15.2878
 15.1719
 15.1641
 12.7084
 12.5311
 12.7373
 12.7649
 14.4385
 13.4965
 13.4696
 13.3987
 13.4903
 13.2176
 13.3111
 13.1947
 13.3794
 11.5375
 11.4705
 12.0696
 11.9195
 12.0211
 11.9014
 12.1152
 11.942
 12.0176
 11.8856
 12.2195
 12.3542
 12.1768
 12.3261
 12.7233
 12.628
 12.7097
 12.6494
 16.0563
 15.9455
 11.61
 11.559
 11.4773
 15.6177
 15.6368
 15.6129
 14.9895
 15.1207
 15.149
 15.0273
 12.6363
 12.7075
 12.6156
 12.5093
 14.221
 14.3266
 14.28
 14.2689
 10.924
 11.0312
 10.9244
 10.8281
 13.5567
 13.5839
 13.5044
 13.5356
 12.1928
 12.0995
 12.2136
 13.0544
 13.0562
 13.5848
 13.7577
 13.6239
 13.626
 13.7786
 13.9314
 13.8093
 13.8933
 15.3832
 15.3396
 15.3248
 13.1561
 13.0583
 13.105
 13.0104
 14.5447
 14.5006
 14.4207
 11.8488
 11.8783
 11.717
 11.9111
 11.4292
 13.4029
 13.5663
 13.5807
 13.4769
 13.0897
 13.008
 12.9941
 13.0368
 13.2158
 13.2783
 13.3234
 17.2654
 17.3253
 17.2409
 17.2433
 15.0311
 14.9443
 15.5078
 15.5913
 14.1233
 14.2941
 14.2471
 14.1745
 17.7222
 17.6897
 11.0307
 10.9906
 10.9469
 10.8483
 12.6826
 12.4628
 15.3856
 15.4007
 15.3411
 15.3446
 14.1034
 14.0907
 14.0069
 14.0438
 12.1073
 11.9874
 12.037
 12.172
 14.9069
 14.9455
 14.8599
 14.8967
 14.2238
 14.3095
 14.1865
 14.2408
 12.0105
 11.9494
 11.943
 11.8245
 14.2388
 14.2016
 14.1992
 14.3376
 11.3244
 11.4321
 11.4012
 11.4446
 13.1859
 13.0917
 13.1232
 15.0268
 15.0273
 15.1676
 15.0469
 13.3626
 13.4627
 13.3931
 13.4736
 13.6997
 13.7857
 14.6343
 14.4768
 14.4515
 13.1135
 13.1385
 13.0058
 12.9818
 11.2118
 11.2239
 11.1128
 11.116
 11.773
 11.6776
 11.5962
 11.792
 15.141
 15.159
 15.2457
 15.215
 15.5984
 15.6079
 15.6294
 15.6174
 15.3546
 15.4824
 15.3911
 15.4403
 15.7133
 15.7007
 15.7396
 13.8576
 13.879
 13.8557
 14.0134
 12.3326
 12.2713
 12.7255
 12.5726
 12.6668
 12.6768
 12.4589
 12.3801
 12.5196
 15.0407
 15.1221
 15.0914
 15.1522
 13.8942
 13.8738
 13.8016
 13.8201
 10.9069
 10.8924
 10.8562
 10.7912
 13.6377
 13.6999
 13.7482
 13.6281
 13.4673
 13.5974
 13.4537
 13.5699
 11.6993
 11.6274
 11.7385
 11.7321
 15.4472
 15.5918
 15.5352
 15.4844
 12.7485
 12.7554
 15.504
 15.5751
 12.2122
 12.3382
 12.2286
 12.1264
 13.6783
 13.6973
 13.6427
 13.7883
 15.8927
 15.8008
 15.8654
 15.5268
 15.5587
 15.6085
 15.604
 14.7398
 14.858
 13.6737
 13.7249
 13.6439
 13.7188
 13.021
 13.037
 12.9455
 14.4213
 14.5124
 14.5004
 14.4042
 14.5234
 14.3667
 14.5285
 14.4257
 12.4992
 12.611
 12.567
 12.563
 15.7528
 15.7587
 15.7137
 11.1142
 11.0864
 11.2576
 11.2319
 13.2761
 13.3122
 13.2935
 15.194
 15.1577
 15.1215
 11.4525
 11.4561
 11.5723
 11.3958
 12.219
 14.7746
 14.8927
 14.8765
 14.8358
 11.591
 11.8122
 11.7201
 11.6236
 13.2827
 13.1407
 13.188
 11.1703
 11.1461
 11.1453
 11.1601
 11.6077
 11.7026
 11.6994
 11.5788
 11.5304
 15.8843
 15.8193
 14.101
 14.1394
 13.9977
 14.0845
 15.9972
 16.0565
 16.0515
 16.0214
 14.6707
 13.2374
 13.1958
 13.371
 12.7452
 12.6512
 12.5546
 12.7446
 14.6539
 14.6377
 14.7171
 14.751
 14.973
 14.9967
 13.3927
 13.3273
 13.3336
 14.8729
 14.9345
 14.8632
 14.8017
 14.9997
 14.995
 14.9433
 14.9173
 11.4899
 11.4396
 14.6178
 14.5365
 14.6124
 14.6255
 15.7371
 15.5828
 15.7402
 15.6206
 15.0306
 15.0113
 14.8074
 14.9794
 15.6943
 15.7569
 15.6906
 12.3462
 12.4617
 12.3291
 12.792
 12.7786
 11.6163
 11.5853
 11.6825
 15.354
 15.4623
 15.4277
 15.4529
 15.2284
 15.1752
 15.1348
 17.3997
 17.2991
 17.3934
 17.4483
 12.4199
 12.5868
 12.4151
 12.3376
 14.8587
 14.8095
 14.871
 14.7117
 13.2848
 13.3752
 13.3345
 13.2693
 12.5346
 12.5689
 12.6956
 12.6283
 15.2004
 15.1942
 15.1553
 15.1117
 14.1315
 14.0357
 14.1408
 12.878
 12.8563
 12.7773
 13.2441
 13.2481
 13.2947
 13.1637
 14.2152
 14.3324
 14.3389
 14.3253
 13.1956
 13.1388
 13.0929
 15.7368
 15.5612
 15.7079
 15.6877
 13.9804
 13.9698
 13.9512
 14.0635
 15.2772
 15.3705
 15.3692
 15.3277
 15.4245
 15.5667
 15.4005
 15.4333
 10.7579
 10.5978
 10.8199
 15.2871
 15.363
 15.2936
 10.823
 12.3038
 12.2868
 12.4528
 12.3879
 15.5251
 12.7828
 14.8065
 14.819
 14.8894
 14.8688
 15.7364
 15.7971
 15.844
 15.7907
 13.0276
 14.1809
 11.1149
 11.149
 11.142
 11.1678
 17.304
 17.2332
 17.2617
 14.825
 14.9086
 14.9295
 15.6412
 15.721
 10.5747
 10.503
 10.6776
 10.6156
 14.4075
 14.5709
 14.4664
 14.4368
 12.1469
 12.0123
 12.0022
 13.1959
 13.2963
 12.9509
 13.0023
 12.8125
 12.9319
 11.4912
 11.5802
 11.6154
 11.5286
 14.1826
 14.1906
 14.0322
 14.0863
 11.7369
 11.6648
 11.7954
 11.7304
 13.9343
 13.8694
 13.7539
 13.9065
 12.4813
 12.4674
 12.4105
 12.5484
 12.3236
 12.4577
 12.3351
 12.0899
 15.0852
 15.2306
 15.0517
 14.9939
 13.8368
 11.3354
 11.1412
 11.2265
 11.1975
 13.5116
 13.4854
 13.6281
 13.4436
 13.3225
 13.3119
 15.3703
 15.428
 15.4625
 15.345
 14.6709
 14.7695
 14.6681
 13.8909
 13.9159
 13.9624
 14.0312
 10.916
 11.0518
 11.0692
 11.0319
 14.9364
 14.9388
 15.0157
 15.0387
 12.7901
 12.9621
 12.9513
 12.8803
 13.984
 13.959
 14.0511
 15.4317
 15.3423
 15.3826
 15.3609
 16.3348
 16.3216
 16.4308
 16.2843
 14.6849
 14.7761
 14.8101
 12.0258
 12.0239
 11.9477
 13.5401
 12.5505
 12.6987
 12.6283
 12.6302
 14.8947
 14.9251
 14.9093
 14.9113
 11.7939
 11.5963
 11.6964
 11.7407
 13.6448
 13.8086
 13.0582
 13.1336
 13.1004
 13.0364
 12.9345
 12.9738
 13.1684
 16.4731
 16.4251
 16.5546
 16.4636
 10.4551
 10.243
 10.3068
 10.4379
 14.6389
 14.5423
 14.5869
 15.1425
 15.0784
 15.2202
 15.0475
 12.939
 13.0773
 13.0158
 17.0183
 17.1009
 17.1474
 17.0712
 12.5783
 12.5768
 12.3801
 12.3436
 12.4601
 12.4339
 15.5818
 15.6431
 15.6101
 15.673
 15.3385
 15.3368
 15.2995
 15.3772
 16.1204
 16.0345
 15.9896
 16.1177
 14.1979
 16.2037
 16.1374
 16.153
 16.1113
 12.4758
 12.6093
 12.632
 12.685
 15.3226
 15.2206
 12.7722
 12.6949
 12.699
 12.8433
 12.0083
 11.933
 12.0081
 11.9471
 10.9467
 10.8619
 10.8759
 10.7199
 17.2883
 17.3212
 17.2137
 13.2818
 13.1589
 13.1991
 13.2217
 12.2714
 12.2399
 12.362
 12.2941
 16.496
 16.4225
 16.3948
 16.5016
 13.3267
 12.483
 12.4304
 12.3929
 12.5225
 11.571
 11.5017
 11.5721
 14.2019
 14.1614
 14.1749
 14.0978
 11.1027
 10.9225
 10.8519
 10.9388
 13.493
 13.4384
 13.5005
 13.5163
 13.3655
 14.9912
 15.1211
 14.9651
 13.6123
 13.7414
 13.6899
 13.5627
 13.7372
 13.6994
 13.6594
 13.8017
 14.6311
 14.7641
 14.7265
 15.6788
 16.2811
 16.1939
 16.368
 13.0804
 12.981
 13.0284
 12.571
 12.5346
 12.6032
 15.0925
 14.9833
 15.0448
 14.8912
 12.7885
 12.8642
 11.7363
 11.7927
 11.8458
 11.7887
 11.371
 11.4068
 11.4122
 11.8743
 11.7827
 13.1761
 13.0838
 13.1638
 12.0507
 12.2054
 12.1047
 15.3067
 17.0752
 17.1182
 17.0421
 17.0593
 13.363
 13.3312
 13.4324
 13.4034
 16.8289
 16.8041
 16.7151
 16.8424
 12.6793
 12.6805
 12.6008
 13.8438
 13.8958
 13.9802
 14.003
 14.9194
 14.8482
 15.0218
 14.961
 13.4405
 13.4088
 13.3025
 12.5936
 12.5146
 14.0765
 13.9534
 14.0485
 14.0154
 14.5997
 14.5249
 14.5753
 15.3069
 15.3025
 15.2966
 13.2408
 13.2198
 13.1284
 13.2831
 12.438
 12.3144
 12.4085
 12.3356
 10.4448
 10.532
 10.4011
 10.52
 13.7046
 13.7143
 10.3857
 10.48
 10.5343
 12.9947
 15.5804
 15.4992
 15.4231
 15.4635
 14.921
 14.8461
 14.9129
 14.8688
 13.0691
 13.1521
 13.1016
 11.757
 11.6543
 15.6642
 15.632
 15.7207
 15.6076
 12.5686
 12.6225
 15.5952
 15.6402
 13.4918
 13.5036
 13.5589
 15.8252
 15.8976
 15.7847
 14.874
 14.8907
 14.9368
 14.9217
 11.7218
 11.717
 11.652
 11.7293
 14.4112
 14.3995
 14.3893
 14.1479
 14.2934
 14.2108
 14.2008
 11.4716
 11.6187
 11.6174
 11.6377
 16.355
 16.3202
 16.3884
 13.869
 13.9883
 13.9309
 12.3711
 12.3011
 12.8551
 12.8859
 13.0063
 12.9873
 16.5489
 16.4788
 16.4995
 16.532
 15.0409
 15.0382
 15.0227
 14.9482
 12.1752
 12.1289
 12.0788
 12.0588
 12.0865
 12.1293
 12.1347
 12.2011
 14.2661
 14.3884
 14.2804
 14.3088
 10.8215
 10.6355
 10.6745
 10.8037
 15.2726
 15.1883
 15.3054
 16.5755
 16.6534
 16.6284
 13.4829
 13.4325
 12.8542
 12.8264
 12.9198
 12.8592
 11.8059
 11.869
 11.6846
 11.6801
 14.5388
 13.7125
 14.2971
 14.2046
 14.156
 14.0915
 17.4141
 17.5247
 17.5086
 17.4009
 12.4491
 12.4963
 15.0458
 14.998
 14.9309
 14.6899
 14.7351
 14.6227
 14.5889
 15.5727
 15.6429
 14.531
 14.5459
 14.6147
 14.485
 15.3795
 15.4553
