 8.52375
 8.31038
 8.36217
 8.22042
 4.14389
 4.09947
 3.95985
 3.88447
 5.38876
 5.55044
 5.34964
 5.55119
 5.20592
 5.35518
 5.42498
 5.49243
 2.33581
 2.13177
 2.44918
 2.51755
 2.49053
 2.67918
 2.34983
 2.60884
 9.3079
 9.45661
 9.40896
 9.31096
 9.24588
 9.18576
 9.18489
 9.28578
 2.39589
 2.48371
 2.69022
 2.47666
 2.57643
 2.54321
 2.61908
 2.29755
 9.81549
 9.90497
 9.76651
 9.7397
 5.3486
 5.3298
 5.4957
 5.387
 7.74016
 7.76344
 7.88802
 7.62356
 4.03091
 4.30054
 4.38662
 4.21769
 6.15214
 6.19332
 6.08751
 5.95715
 8.82681
 8.94034
 8.74524
 8.93306
 3.17247
 3.03099
 3.17048
 2.94484
 4.88845
 5.00248
 4.83906
 4.96446
 6.10639
 6.06213
 6.03466
 5.92696
 3.20387
 3.21541
 3.11396
 2.9604
 9.17591
 9.3502
 9.16483
 9.289
 1.81026
 1.7956
 1.58562
 1.56399
 11.0734
 11.1586
 11.1635
 11.0412
 4.52607
 4.43732
 4.62293
 4.64885
 6.373
 6.48173
 6.33137
 6.27921
 5.86981
 5.83659
 5.93293
 5.9862
 7.10886
 6.93057
 6.84783
 7.08714
 8.87213
 8.98896
 8.8529
 8.86384
 7.83972
 7.88261
 8.02815
 7.93669
 4.2368
 4.26696
 4.35039
 4.47762
 6.28286
 6.00801
 6.33265
 6.24009
 7.72409
 7.5904
 7.59932
 7.71857
 4.93092
 5.13104
 4.91427
 5.09046
 4.09459
 4.18757
 4.1918
 4.16273
 7.73371
 7.90014
 7.71541
 7.97467
 8.65704
 8.67247
 8.69306
 8.68496
 5.02988
 5.27413
 5.07679
 5.12047
 9.5601
 9.49543
 9.46789
 9.44184
 4.63285
 4.61093
 4.28808
 4.37021
 1.23047
 1.44935
 1.30428
 1.49213
 5.65627
 5.70564
 5.61894
 5.85137
 4.37823
 4.21703
 4.28666
 4.37321
 9.39048
 9.39587
 9.27213
 9.49241
 4.94932
 5.10098
 5.03545
 4.85711
 2.43999
 2.50891
 2.31529
 2.43006
 8.15758
 8.02857
 8.08552
 8.14459
 4.9529
 4.68197
 4.75344
 4.71588
 8.64567
 8.50872
 8.62078
 8.76919
 7.68739
 7.79156
 7.84752
 7.89528
 6.0927
 6.22763
 6.25341
 6.39796
 8.8961
 8.95166
 8.99784
 8.88747
 5.81533
 5.97218
 5.95359
 5.84548
 7.40675
 7.58459
 7.3907
 7.65439
 5.62783
 5.52527
 5.63587
 5.53194
 7.90677
 7.77245
 7.86881
 7.67063
 5.4516
 5.47773
 5.32235
 5.59313
 4.49458
 4.48114
 4.36827
 4.2559
 4.33166
 4.45783
 4.36392
 4.62444
 8.04859
 8.07908
 8.26138
 7.98027
 7.06506
 7.1544
 7.13856
 6.93927
 10.8309
 10.9053
 10.9803
 10.8842
 7.89684
 7.94072
 8.08369
 7.92092
 6.33038
 6.09837
 6.21357
 6.17241
 7.37505
 7.38182
 7.14782
 7.49643
 7.52391
 7.35272
 7.54379
 7.38513
 9.03039
 9.1181
 9.00216
 8.99739
 3.08026
 2.84508
 2.75384
 3.09623
 2.41265
 2.3262
 2.23799
 2.17544
 5.95268
 5.74208
 6.1035
 5.98169
 7.83382
 7.87991
 7.76845
 7.96256
 4.59413
 4.5052
 4.406
 4.60532
 9.10725
 9.40518
 9.28802
 9.28289
 9.18474
 9.29995
 9.35817
 9.16014
 11.0838
 11.1747
 11.0563
 11.0815
 5.53637
 5.32552
 5.45502
 5.27971
 8.13803
 7.96536
 7.93173
 8.11714
 8.49797
 8.61089
 8.43811
 8.40438
 2.01163
 1.79334
 1.87599
 1.76649
 8.79536
 8.85899
 8.97804
 8.82256
 8.5099
 8.58805
 8.67932
 8.5212
 8.23708
 8.11885
 8.25543
 8.38004
 6.77175
 6.81192
 6.66451
 6.69037
 8.4143
 8.23939
 8.36604
 8.30998
 7.71772
 7.6305
 7.58148
 7.6685
 7.05768
 7.10508
 7.17187
 7.23211
 8.72894
 8.90906
 8.68474
 8.88362
 11.4087
 11.4339
 11.282
 11.2785
 9.05395
 8.99672
 8.90328
 8.98404
 5.40006
 5.52481
 5.33752
 5.62031
 5.3673
 5.43762
 5.28723
 5.45019
 4.41194
 4.52307
 4.56503
 4.37033
 9.36626
 9.38418
 9.34116
 9.27888
 1.59344
 1.61647
 1.76799
 1.46322
 4.59826
 4.42766
 4.62276
 4.57212
 9.50327
 9.49917
 9.63372
 9.6526
 7.62268
 7.63138
 7.69404
 7.41987
 8.57131
 8.45984
 8.69943
 8.60712
 8.52825
 8.60359
 8.61369
 9.31789
 9.33469
 9.351
 9.40718
 4.98991
 5.10863
 5.2348
 4.92207
 7.0569
 6.82284
 6.90748
 7.02544
 5.28063
 5.09436
 5.24246
 7.8437
 8.05727
 7.91698
 7.98012
 6.63687
 6.49873
 6.54977
 6.74034
 3.42493
 3.71537
 3.69568
 3.31591
 9.08132
 9.05696
 8.86617
 8.93567
 8.63316
 8.73888
 8.81816
 8.72303
 5.52449
 5.72883
 5.76986
 5.69436
 4.66581
 4.78808
 4.47727
 4.50078
 9.35061
 9.32783
 9.38814
 9.49022
 8.71589
 8.67281
 8.43724
 8.50743
 7.21038
 7.02001
 6.91186
 7.1804
 2.57069
 2.43471
 2.51441
 2.4762
 5.46875
 5.26296
 5.185
 5.28428
 6.46774
 6.73306
 6.5107
 6.47079
 10.85
 10.994
 10.8442
 10.8509
 6.8789
 7.01335
 6.81048
 6.70142
 3.42418
 3.64222
 3.42122
 3.71116
 8.2771
 8.50621
 8.17875
 8.24637
 8.72412
 8.69399
 8.84611
 8.75832
 8.78876
 8.93415
 8.89357
 8.85439
 10.0101
 10.0232
 10.0198
 9.95647
 8.37572
 8.60452
 8.58497
 8.59001
 5.45823
 5.4787
 5.45062
 5.59168
 9.39684
 9.34935
 9.30534
 9.25178
 2.93519
 3.11626
 2.96962
 2.91006
 9.16045
 9.34239
 9.32302
 9.17589
 3.51963
 3.82663
 3.49085
 3.68624
 7.0531
 7.19472
 7.18853
 7.07827
 7.46022
 7.30488
 7.25187
 7.40848
 8.06908
 8.06597
 7.85293
 8.01196
 8.37695
 8.37821
 8.50811
 8.54565
 1.8123
 1.62398
 1.56209
 1.59439
 8.24891
 8.34613
 8.24861
 8.32519
 1.27903
 1.46006
 1.33416
 1.59323
 4.62485
 4.68372
 4.44852
 4.62279
 10.4599
 10.3107
 10.3415
 10.4637
 2.18987
 2.23442
 2.07013
 1.99712
 8.81342
 8.65534
 8.79617
 8.92214
 10.4326
 10.5213
 10.5662
 10.443
 3.94275
 4.01069
 4.11333
 4.01594
 2.21862
 1.95732
 2.15684
 2.26425
 6.01268
 5.97395
 6.05755
 6.10589
 4.19824
 4.42907
 4.14238
 4.39256
 8.59756
 8.77781
 8.67781
 8.71581
 5.66414
 5.73747
 5.66996
 5.50211
 7.5788
 7.63648
 7.5067
 7.4915
 9.20503
 9.13225
 9.23782
 9.23918
 9.72606
 9.75612
 9.76565
 9.63564
 6.98646
 7.05346
 6.88624
 7.11141
 6.46136
 6.47266
 6.52733
 6.64433
 8.64102
 8.66423
 8.54766
 8.5154
 8.6682
 8.87711
 8.68291
 8.70864
 5.22456
 5.19567
 5.34071
 5.33459
 2.4369
 2.56696
 2.28704
 2.23081
 2.8189
 2.95033
 2.7799
 2.73256
 2.93129
 3.16425
 3.11293
 2.98302
 4.8025
 4.92134
 4.75263
 4.93458
 8.67402
 8.88579
 8.72665
 8.7868
 8.59822
 8.48396
 8.44341
 8.41672
 6.51917
 6.6092
 6.80851
 6.83968
 4.65331
 4.75547
 4.47431
 4.6073
 4.73641
 4.84786
 4.7726
 4.62947
 6.03436
 6.2021
 6.07352
 6.03813
 5.45609
 5.2921
 5.49938
 5.46415
 9.54802
 9.56477
 9.48545
 9.354
 11.8721
 11.9542
 11.8591
 12.0054
 8.2361
 8.2512
 8.4229
 8.32125
 11.5006
 11.3579
 11.3926
 8.32989
 8.36945
 8.27269
 8.45121
 3.15331
 3.29011
 3.20065
 3.334
 6.21647
 6.12876
 6.07831
 5.9393
 2.64406
 2.73254
 2.50225
 2.7642
 8.71721
 8.69303
 8.86246
 8.72162
 4.81995
 4.84599
 4.54358
 4.62084
 5.98097
 6.00721
 6.21118
 6.09715
 1.92882
 1.80303
 1.74396
 2.10827
 3.87765
 3.91847
 3.82999
 3.64835
 8.20381
 8.04275
 8.15152
 8.21022
 4.77439
 4.79699
 4.97945
 4.75814
 3.54151
 3.85459
 3.68326
 3.80843
 10.4041
 10.5692
 10.5174
 10.5593
 6.26816
 6.19898
 6.08698
 6.06257
 3.56574
 3.48638
 3.44404
 3.61565
 5.29293
 5.12369
 5.41874
 5.01883
 3.59927
 3.81959
 3.57223
 3.58912
 8.53553
 8.39093
 8.30773
 8.32273
 3.81268
 3.43783
 3.84119
 3.51146
 7.07172
 6.9787
 7.2566
 7.08193
 6.73043
 6.65786
 6.54298
 6.77059
 3.90234
 3.972
 4.12188
 3.80116
 1.31639
 1.48015
 1.48967
 1.37153
 9.57691
 9.49264
 9.41307
 9.3646
 7.789
 7.63575
 7.55665
 7.75019
 5.57831
 5.6984
 5.78169
 5.72841
 3.94892
 3.81011
 3.85188
 3.79791
 8.1765
 8.30572
 8.24627
 8.2338
 9.28588
 9.11694
 9.03742
 9.24954
 4.64685
 4.63395
 4.89118
 4.86565
 5.16087
 4.99487
 5.16856
 5.09406
 2.13065
 1.95018
 1.78815
 2.11822
 8.92333
 8.72607
 8.96402
 8.83249
 2.26735
 2.08364
 2.11719
 2.23317
 7.80857
 7.63066
 7.75481
 7.81057
 11.7783
 11.7946
 11.7342
 11.7052
 3.0212
 2.90463
 2.78969
 2.88727
 5.01144
 4.90201
 5.11675
 5.2919
 3.10511
 3.08024
 3.21739
 3.23584
 6.60397
 6.80089
 6.66166
 6.58241
 6.97895
 6.88529
 6.84748
 6.95379
 4.17166
 4.41897
 4.39279
 4.31368
 8.699
 8.62063
 8.77431
 8.66391
 8.98577
 8.89741
 8.88289
 8.95365
 11.013
 11.0813
 11.0935
 11.12
 5.88524
 5.76005
 5.68121
 5.59864
 6.42552
 6.50536
 6.2108
 6.4094
 5.36681
 5.65991
 5.45632
 5.3098
 7.69977
 7.45937
 7.43613
 7.73378
 2.30674
 2.32071
 2.18676
 2.52986
 2.20668
 1.86352
 2.19856
 2.25055
 5.20439
 5.11158
 4.95527
 4.94201
 12.6202
 12.6394
 12.5975
 12.5242
 7.08887
 7.19252
 7.05693
 7.28234
 7.00095
 7.04751
 7.2373
 7.04674
 7.09821
 7.05866
 7.27253
 7.26139
 3.95041
 4.0413
 3.77705
 4.0654
 10.6753
 10.5255
 10.7581
 10.6786
 11.1205
 11.135
 11.232
 11.2836
 3.81093
 3.96624
 3.81038
 4.03587
 7.96134
 7.75444
 8.03751
 7.78551
 7.43323
 7.46899
 7.39788
 7.39025
 5.02199
 5.10824
 5.17856
 5.36821
 8.89081
 8.80257
 8.74452
 8.83008
 3.80319
 3.97978
 3.95611
 3.7918
 7.65614
 7.94278
 7.8104
 8.0324
 7.89819
 7.92433
 8.0619
 7.94234
 9.29521
 9.38074
 9.21986
 9.39633
 7.25083
 7.03128
 7.15936
 7.0054
 3.39915
 3.28867
 3.30845
 3.45691
 4.82942
 4.61247
 4.5376
 4.73833
 8.84648
 8.86782
 8.72835
 8.72737
 8.20145
 7.99949
 7.99877
 8.19335
 2.82579
 2.73823
 2.59214
 2.68702
 3.94743
 4.11134
 4.01921
 4.07296
 6.9391
 7.00926
 7.11854
 7.00373
 9.42983
 9.39476
 9.40506
 9.3435
 10.1327
 9.90928
 9.95761
 10.1021
 5.13665
 5.33567
 5.42462
 5.24258
 9.12541
 9.26867
 9.1335
 9.42304
 3.1054
 3.36601
 3.35439
 3.12693
 5.59205
 5.32845
 5.48147
 5.64181
 3.7265
 3.78712
 3.86596
 3.77212
 4.70107
 4.94649
 4.92567
 4.77529
 7.03951
 7.14405
 7.0297
 6.91265
 8.54913
 8.82032
 8.75724
 8.64175
 9.8876
 9.66643
 9.86021
 9.83864
 9.37054
 9.56441
 9.35406
 9.41639
 8.60191
 8.77342
 8.80547
 8.71266
 6.74931
 6.68516
 6.69492
 6.98777
 6.77403
 6.6838
 6.69766
 6.8629
 6.5754
 6.73111
 6.43371
 6.59708
 5.25041
 5.36303
 5.17333
 5.20954
 10.5607
 10.7071
 10.6442
 10.6573
 6.10568
 6.0556
 6.13948
 5.94846
 8.87712
 9.03994
 8.96951
 8.93043
 7.47326
 7.24182
 7.40995
 7.28509
 2.35614
 2.71065
 2.40995
 2.50449
 6.76176
 6.85288
 6.85908
 6.9379
 9.15875
 9.24395
 9.19519
 9.36343
 7.4141
 7.45593
 7.3161
 7.22398
 8.504
 8.41224
 8.42153
 8.55929
 6.92912
 7.14867
 6.92312
 7.09874
 10.4977
 10.6111
 10.5563
 10.446
 7.46007
 7.44637
 7.30813
 7.28542
 5.09073
 5.14239
 4.99487
 5.14414
 5.40587
 5.38535
 5.30593
 5.37386
 2.66388
 3.07739
 2.75042
 2.90863
 8.17821
 8.20272
 8.04526
 8.15645
 8.5434
 8.4354
 8.56318
 8.27279
 2.67999
 2.96343
 2.68041
 2.73216
 8.48683
 8.4829
 8.31345
 8.4802
 3.48525
 3.56558
 3.34116
 3.58232
 6.15974
 5.88986
 6.05233
 5.93044
 6.77439
 7.03205
 6.79345
 6.73099
 8.64273
 8.47273
 8.49499
 8.64749
 6.92463
 6.92403
 6.70748
 6.9125
 3.39714
 3.4661
 3.37486
 3.34969
 11.8684
 11.8256
 11.7924
 11.9521
 9.49045
 9.52277
 9.52337
 9.47557
 9.35502
 9.3276
 9.3598
 9.46648
 7.95342
 7.87747
 8.04178
 7.80558
 7.48
 7.62063
 7.51445
 7.59807
 8.12169
 8.21365
 8.25378
 8.10432
 2.11918
 2.21884
 1.86569
 2.24416
 8.71176
 8.81813
 8.80671
 8.59238
 5.41932
 5.40137
 5.32913
 5.53646
 6.66479
 3.83886
 4.06554
 4.02718
 4.06944
 5.65908
 5.49347
 5.35373
 5.47968
 9.68427
 9.59543
 9.56113
 9.62751
 7.80026
 7.87349
 7.73939
 7.62861
 8.27233
 8.43571
 8.32338
 8.3042
 3.39909
 3.62655
 3.58969
 3.56508
 7.27986
 7.54367
 7.358
 7.43512
 3.19506
 3.15929
 3.40359
 3.36774
 4.78561
 4.6616
 4.87497
 4.60739
 9.61852
 9.51735
 9.57652
 9.39406
 8.63771
 8.80724
 8.52799
 8.64283
 5.2136
 5.08404
 5.05702
 5.20696
 6.87255
 7.09837
 6.86194
 9.24327
 9.31656
 9.2593
 9.18114
 5.15738
 5.49585
 5.2726
 5.43672
 8.3222
 8.50842
 8.48211
 8.38714
 6.91756
 7.17893
 7.04405
 6.89513
 2.90348
 2.90423
 3.2172
 2.95786
 7.98777
 8.05637
 8.15679
 8.01565
 3.88432
 4.13795
 3.93347
 3.85342
 6.59438
 6.72641
 6.60082
 6.8081
 4.28916
 4.42661
 4.60862
 4.48255
 3.14292
 3.13938
 2.89331
 3.00444
 7.87966
 7.90475
 7.77137
 7.78329
 11.8004
 11.6185
 11.6391
 11.5445
 1.81543
 1.96044
 1.95495
 1.99593
 5.34303
 5.43469
 5.52061
 5.40602
 8.91487
 8.93397
 8.64168
 8.86912
 7.44981
 7.309
 7.28238
 7.45955
 10.2916
 10.2528
 10.2661
 10.3834
 3.15418
 3.02849
 2.7628
 2.97324
 9.31913
 9.41597
 9.3659
 9.34829
 5.99088
 5.81255
 6.07508
 5.94151
 8.74984
 9.04696
 8.81223
 8.82631
 1.58384
 1.62351
 1.60672
 1.84355
 1.83487
 1.89085
 2.03223
 2.18218
 4.63956
 4.83608
 4.89289
 4.59369
 5.87121
 5.79865
 5.85275
 5.99887
 5.81537
 9.05548
 9.02449
 9.20366
 9.08726
 8.8349
 8.89456
 8.94644
 8.78467
 5.10236
 4.9155
 4.9061
 4.88857
 9.11756
 8.98899
 8.98677
 9.12452
 8.48909
 8.54021
 8.56351
 8.41272
 4.72784
 4.65314
 4.68488
 4.87935
 7.77034
 7.56423
 7.76937
 7.57035
 5.07514
 5.05755
 5.03218
 4.88791
 8.41599
 8.45582
 8.58188
 8.4358
 7.99484
 7.88136
 7.84533
 7.82859
 7.14029
 6.95857
 7.20696
 7.02139
 5.91987
 5.70309
 5.82274
 5.61744
 4.08901
 4.19433
 3.8843
 3.9279
 6.13319
 6.18908
 6.29337
 6.26998
 6.17609
 6.0742
 6.02697
 6.06835
 9.68779
 9.69158
 9.61045
 9.5611
 5.38487
 5.35738
 5.26686
 5.33145
 6.6541
 6.61363
 6.52909
 6.66193
 6.44438
 6.46268
 6.59079
 6.48262
 7.73906
 7.69107
 7.87252
 7.75653
 9.25631
 9.27288
 9.19223
 9.39792
 4.46809
 4.51449
 4.40008
 4.34921
 9.20039
 9.3154
 9.27529
 9.08821
 2.09315
 2.1128
 1.82407
 1.99104
 3.98648
 4.1325
 3.86975
 3.96407
 3.87649
 3.84558
 3.83721
 3.91269
 3.63389
 3.71938
 3.74402
 3.51153
 4.8112
 4.71493
 4.90545
 4.71327
 10.2793
 10.3635
 10.5047
 6.24396
 6.50418
 6.2824
 6.31754
 4.113
 4.19874
 4.26414
 4.12446
 7.83536
 8.02539
 7.92378
 7.87943
 8.42773
 8.38067
 8.4902
 8.35903
 4.6947
 4.66006
 4.50389
 4.8738
 7.17169
 7.21917
 7.15186
 6.99541
 8.28043
 8.26805
 8.33192
 8.35486
 2.19224
 1.91594
 5.47753
 5.50577
 5.70942
 5.68298
 7.06805
 7.12534
 7.22958
 6.07448
 6.01264
 6.04579
 6.23056
 9.92111
 9.97363
 9.81492
 9.83392
 3.88105
 3.72784
 3.73027
 3.96212
 6.13972
 6.18886
 6.29829
 6.27346
 7.853
 7.99822
 7.91479
 7.76486
 6.34926
 6.53957
 6.47872
 6.3955
 9.1768
 9.25368
 9.12215
 9.18918
 9.52792
 9.27264
 9.45901
 9.41187
 7.18423
 7.0413
 6.98706
 7.09083
 9.10255
 9.13875
 9.1168
 8.99842
 6.94296
 7.03705
 7.00005
 7.06923
 3.59846
 3.64883
 3.883
 3.90855
 9.01952
 8.9282
 8.86425
 8.96175
 10.9696
 10.8438
 10.9231
 10.8529
 5.60791
 5.95927
 5.75084
 5.67716
 7.39634
 7.27091
 7.42651
 7.27253
 9.18849
 9.21288
 9.06415
 9.09491
 7.05259
 7.14786
 6.95837
 6.98387
 3.00168
 3.07039
 2.93808
 2.98089
 8.5773
 8.5875
 8.66513
 8.5872
 5.69979
 5.82373
 5.81954
 5.87657
 7.48345
 7.2886
 7.42303
 7.17836
 4.88069
 4.73862
 4.75578
 4.606
 3.66839
 3.69429
 3.57892
 3.76651
 8.93878
 8.80875
 8.89317
 8.66778
 8.05876
 7.93441
 7.96665
 8.00355
 5.90354
 5.92406
 6.15949
 6.01049
 9.26708
 9.20814
 9.23087
 9.18369
 11.7881
 11.8966
 11.8879
 11.8222
 6.38897
 6.54926
 6.55132
 6.5719
 12.0533
 12.0845
 12.0305
 11.9457
 11.8289
 11.6941
 11.6988
 11.7644
 9.8489
 9.75509
 9.77291
 9.89127
 5.35156
 5.48962
 5.60845
 5.68134
 5.46788
 5.30575
 5.29813
 5.16583
 5.17113
 5.32681
 5.20714
 5.41715
 5.66881
 5.87603
 5.83341
 5.59697
 10.4639
 10.5674
 10.4938
 10.5149
 8.93243
 9.00938
 8.84092
 8.90519
 8.95356
 9.13311
 9.10237
 9.07847
 7.71372
 7.5248
 7.70268
 7.50708
 6.15585
 6.26846
 6.14851
 6.23559
 4.86799
 4.90226
 4.9913
 4.83139
 8.69762
 8.52149
 8.48386
 8.66027
 5.30721
 7.05705
 6.92114
 6.92118
 7.02679
 1.79235
 1.73686
 1.48364
 1.64121
 7.32748
 7.31524
 7.18856
 7.31123
 3.22167
 2.95795
 3.15111
 9.04196
 8.95698
 8.90017
 9.06892
 11.4895
 11.3691
 11.4176
 11.3425
 6.828
 6.84917
 6.63234
 6.95063
 7.7571
 7.98018
 7.9305
 7.95672
 9.10294
 9.00143
 8.90878
 8.86556
 8.82861
 8.77462
 8.90768
 8.75712
 10.0295
 10.2296
 10.1092
 10.1084
 5.9383
 5.97243
 5.84111
 5.57514
 6.89211
 6.70434
 6.93877
 6.78959
 8.19702
 8.34291
 8.20457
 8.26199
 7.15308
 7.28637
 6.95011
 4.4869
 4.59915
 4.63804
 8.56469
 8.54884
 8.75027
 8.78568
 10.0337
 10.0897
 10.0861
 10.0374
 8.29738
 8.19048
 8.20262
 8.33441
 9.88231
 10.0179
 9.85392
 10.0725
 4.3822
 4.07831
 4.30238
 4.24111
 4.65865
 4.57732
 4.51502
 4.3925
 9.26827
 9.32549
 9.29883
 9.31865
 10.1872
 10.3667
 10.2464
 10.195
 6.32343
 6.56708
 6.36464
 6.46066
 2.41885
 2.61922
 2.32649
 2.57267
 9.98654
 9.9901
 10.0634
 9.97937
 5.32206
 5.52151
 5.53489
 5.28185
 11.0641
 11.1451
 11.056
 11.1151
 4.88618
 4.76509
 4.93308
 4.60801
 7.58713
 7.726
 7.51226
 7.76727
 4.40762
 4.39792
 4.19417
 4.21449
 9.0881
 9.03604
 9.00814
 8.86668
 7.90169
 8.04057
 8.02019
 8.03183
 8.48645
 8.54275
 8.37818
 8.38157
 8.35243
 8.41203
 8.22616
 8.49346
 6.39159
 6.27156
 6.29827
 6.46449
 7.28279
 7.43126
 7.25855
 7.26997
 4.09006
 4.26839
 4.38207
 4.31605
 2.07596
 1.89501
 2.29351
 2.30863
 7.45412
 7.4735
 7.60154
 7.49055
 3.61943
 3.69561
 3.79261
 3.47885
 5.01624
 4.74965
 4.64313
 4.78456
 10.4867
 10.5579
 10.6877
 10.5097
 9.25264
 8.98836
 9.04096
 9.12206
 7.64029
 7.75857
 7.80603
 7.73846
 9.97342
 10.0715
 10.1002
 10.171
 6.21751
 6.01788
 6.04396
 6.12744
 4.39182
 4.03235
 4.23097
 4.19105
 9.88884
 9.68914
 9.87459
 9.89138
 7.09726
 6.94996
 7.0563
 7.02664
 8.30323
 8.32248
 8.31697
 8.39752
 11.7292
 11.6345
 11.6121
 11.7158
 7.92943
 7.95627
 7.96682
 7.81728
 6.90552
 6.78879
 6.81945
 6.76394
 5.14334
 4.95571
 5.08073
 4.89868
 8.47648
 8.43749
 8.40161
 6.88476
 6.9185
 6.96628
 6.92168
 8.03525
 8.09698
 7.83725
 7.99222
 5.47618
 5.65439
 5.49602
 5.57417
 5.40828
 5.19378
 5.24454
 5.27439
 3.24057
 3.40736
 3.29724
 3.54028
 8.82269
 8.816
 8.70851
 8.85054
 2.48793
 2.41866
 2.33047
 2.44142
 8.57366
 8.4319
 8.55718
 8.64021
 6.91275
 6.71425
 6.73925
 6.62953
 6.67975
 6.88154
 6.80366
 6.91402
 11.9372
 12.0434
 11.9417
 11.9698
 8.11436
 8.21581
 8.10049
 8.07395
 6.99056
 7.02981
 6.86443
 6.66636
 7.13761
 7.08787
 7.05625
 7.28873
 1.80296
 1.81686
 2.02558
 1.86031
 8.57995
 8.41369
 8.31791
 8.53387
 8.36366
 8.45964
 8.27999
 8.50176
 4.99155
 4.77776
 4.94769
 4.84717
 8.99039
 9.01965
 9.10732
 9.12258
 9.02632
 9.05811
 8.96106
 9.07023
 5.52254
 5.76339
 5.54464
 5.68445
 5.43065
 5.42635
 5.59362
 5.42348
 6.54591
 6.52549
 6.25555
 6.36406
 8.42899
 8.50888
 5.93314
 6.08367
 5.84478
 6.04142
 8.39171
 8.30337
 8.39343
 8.35128
 7.52615
 7.34474
 7.28323
 7.34218
 3.12474
 3.25363
 3.34879
 3.09641
 7.37127
 7.31794
 7.2299
 7.19606
 4.63582
 4.48695
 4.40161
 4.68916
 8.65577
 8.39603
 8.48699
 8.40926
 7.80035
 7.95517
 7.97797
 7.90559
 7.03693
 6.73336
 6.89572
 6.85975
 8.89061
 9.02666
 9.07988
 8.98298
 10.8856
 10.8346
 10.9029
 10.9712
 2.68021
 2.73046
 2.82351
 2.74016
 9.89611
 9.90635
 9.83948
 9.94714
 6.10053
 6.02603
 6.21604
 6.20436
 10.889
 10.8743
 10.8081
 10.9421
 6.05192
 5.86422
 5.98987
 6.01352
 8.54399
 8.56172
 8.61631
 8.59498
 8.60684
 8.56164
 8.71393
 8.62236
 6.47774
 6.4085
 6.61999
 6.48921
 3.96031
 4.17587
 3.99666
 4.21573
 7.86102
 7.6064
 7.6489
 7.64806
 9.30415
 9.35183
 9.29664
 9.22644
 4.03987
 3.74016
 3.88786
 3.67554
 8.51483
 8.62259
 8.42668
 8.41044
 7.74226
 7.57916
 7.62296
 7.52288
 4.94376
 4.557
 4.64705
 4.77491
 6.65373
 6.48036
 6.43019
 6.42748
 7.23005
 7.30397
 7.20986
 7.11754
 3.14967
 3.00753
 2.89602
 2.81957
 3.93434
 3.85207
 3.86819
 3.97
 6.27497
 6.23847
 6.47847
 6.38276
 7.24647
 7.15029
 7.31875
 6.95913
 8.10098
 8.0463
 8.03741
 7.82454
 9.3042
 9.31586
 9.42746
 4.65674
 4.54036
 4.57256
 4.41842
 10.9717
 11.0536
 11.1719
 11.1415
 5.24373
 5.48552
 5.35582
 5.40455
 8.7909
 8.98657
 8.8804
 8.86642
 9.12078
 9.27149
 9.22772
 9.24582
 3.6002
 3.81393
 3.70905
 3.41895
 6.70142
 6.80634
 6.63487
 6.75685
 7.11675
 7.17671
 8.40867
 7.46944
 7.29354
 7.50155
 7.38557
 10.8898
 10.7845
 5.5614
 5.4852
 5.41371
 9.57312
 9.49452
 9.68113
 9.57076
 5.40147
 5.61307
 5.54891
 5.53942
 7.73793
 7.57354
 7.62176
 7.6376
 8.47137
 8.23136
 8.37407
 8.34689
 3.30631
 3.3035
 3.02111
 3.2281
 9.5381
 9.39904
 9.55056
 9.38401
 5.78617
 5.78625
 5.72583
 5.6113
 2.74513
 2.70158
 2.96527
 2.96515
 6.73285
 6.92764
 6.76747
 6.89241
 5.67725
 5.96493
 5.87041
 5.87589
 7.08302
 6.93502
 7.06419
 7.32238
 1.74807
 2.17741
 1.81558
 2.17851
 2.13563
 2.11949
 2.24012
 2.41997
 2.50996
 2.61349
 2.62127
 2.4869
 7.51583
 7.66289
 7.49433
 7.51517
 6.18918
 6.43007
 6.33601
 6.23208
 7.28947
 7.31277
 7.43648
 7.33973
 7.60863
 7.65669
 7.44991
 7.66969
 5.32422
 5.26747
 5.23795
 5.45657
 4.06249
 3.82917
 3.92827
 3.79612
 4.00038
 3.91639
 4.13136
 3.81909
 6.68425
 6.58845
 6.72325
 6.60579
 7.19632
 7.19061
 7.25203
 7.3334
 8.60025
 8.6879
 8.6346
 8.46481
 4.77716
 4.6012
 4.59266
 4.83866
 9.90474
 9.89169
 10.0248
 9.85072
 4.56502
 4.4451
 4.57161
 4.60655
 6.42989
 6.13088
 6.40928
 6.19896
 6.51366
 6.4538
 6.47986
 6.62397
 9.39846
 9.4143
 9.48475
 9.59899
 12.2409
 12.1566
 12.2741
 12.2605
 8.03873
 7.87714
 8.03609
 8.00184
 4.4993
 4.74704
 4.65935
 4.50702
 9.08302
 9.22372
 9.1227
 9.0176
 6.17045
 6.07061
 6.28914
 6.06623
 5.95041
 5.80903
 5.62378
 5.69404
 4.95834
 4.85401
 5.14612
 5.0581
 10.1831
 10.2616
 10.2644
 10.1602
 10.1459
 10.127
 10.1914
 10.2203
 4.45495
 4.16061
 4.26682
 4.30715
 5.30155
 5.58088
 5.59727
 5.42263
 8.14687
 8.12345
 8.21394
 8.20728
 7.02579
 7.0781
 6.91395
 6.82003
 6.50754
 6.46875
 6.48401
 6.57877
 8.16603
 8.28871
 8.02277
 8.24163
 5.69835
 5.82096
 5.78075
 5.91883
 0.992327
 1.25414
 1.05414
 1.01535
 6.03586
 5.80319
 5.82996
 5.70639
 6.98635
 6.89962
 7.02624
 6.81084
 6.92621
 6.93667
 7.08854
 6.92776
 6.47691
 6.34954
 6.45729
 6.61547
 2.49905
 2.49728
 2.68775
 2.5169
 4.12688
 4.31051
 4.19274
 5.74318
 5.74237
 5.63158
 5.76972
 9.2744
 9.29306
 9.1627
 9.3061
 7.58216
 7.57678
 7.71044
 7.52661
 4.06495
 4.33064
 4.39711
 4.31994
 8.59729
 8.53761
 8.50698
 8.43995
 7.85635
 7.97323
 7.98617
 7.81553
 7.63673
 7.71498
 7.9045
 7.73683
 5.33604
 5.47233
 5.52028
 5.5024
 6.37475
 6.52517
 6.35451
 6.66696
 5.7332
 6.06451
 5.9395
 5.88638
 9.01095
 8.9341
 8.91819
 8.98324
 7.79016
 7.67913
 7.64207
 7.80203
 5.52717
 5.6692
 5.49035
 5.3251
 7.91647
 7.84521
 7.75223
 7.98677
 6.04164
 5.85848
 5.86027
 5.96042
 9.08669
 9.14099
 9.0487
 9.16545
 2.95494
 2.88025
 3.11396
 2.95577
 8.65365
 8.75863
 8.6057
 8.54522
 8.80938
 9.09133
 8.91589
 8.91475
 4.95199
 4.94966
 4.80675
 4.75803
 8.65039
 8.61603
 8.58472
 8.60225
 5.97656
 6.06101
 5.97839
 6.16565
 9.47702
 9.46025
 9.63854
 9.60637
 6.51295
 6.60635
 6.56929
 6.38825
 3.30925
 2.95929
 3.24703
 3.05774
 6.39593
 6.64277
 6.64366
 6.51427
 5.03975
 4.95091
 5.03199
 5.04862
 5.98814
 6.06104
 6.00405
 5.90573
 6.04231
 5.98196
 5.92444
 5.78283
 2.6106
 2.58385
 2.50209
 2.83673
 8.92486
 9.01867
 9.09327
 9.11051
 8.74471
 8.81054
 8.94234
 8.81691
 3.72928
 3.71023
 3.84671
 3.54111
 3.34574
 3.22683
 3.35701
 8.26993
 8.33503
 8.34271
 8.22971
 5.93823
 5.72418
 5.91801
 5.94829
 6.17275
 6.11005
 6.30415
 6.08602
 8.81157
 8.6853
 8.90244
 8.79464
 4.94741
 4.80727
 4.85732
 4.81866
 7.13992
 7.32693
 7.30827
 7.11278
 6.46396
 6.66113
 6.63467
 6.69395
 4.77636
 4.62034
 4.59162
 4.6412
 9.40542
 9.46542
 9.39323
 9.32053
 8.20929
 8.39119
 8.35
 8.34689
 2.45427
 2.76847
 2.51737
 2.60626
 8.92398
 8.94697
 8.89802
 8.68545
 9.39226
 9.45879
 9.43004
 9.41356
 7.09227
 7.01989
 7.10723
 6.87069
 10.8973
 10.8515
 10.9406
 10.7687
 6.69016
 6.65598
 6.74883
 6.67065
 4.59778
 4.6903
 4.74755
 4.78497
 3.96189
 4.09797
 4.03459
 9.55309
 9.53456
 9.4862
 9.53877
 8.59796
 8.42383
 8.63051
 8.46392
 8.82004
 8.87289
 8.94002
 8.98465
 8.34489
 8.46274
 8.38907
 8.42538
 2.24636
 2.10678
 2.01958
 2.07182
 9.32554
 9.31674
 9.36651
 9.46074
 8.46942
 8.58959
 8.49055
 8.31916
 4.11299
 3.99064
 4.12478
 4.20945
 7.86495
 7.92546
 7.81029
 8.32529
 8.48576
 8.35628
 6.32893
 6.48995
 6.63243
 10.6259
 10.4755
 10.4507
 10.5734
 6.64933
 6.54878
 6.62371
 6.48163
 6.71713
 6.62466
 6.87853
 6.82768
 3.66471
 3.53556
 3.75529
 3.7949
 3.10297
 3.18422
 2.79358
 3.1565
 8.93324
 9.05954
 9.07548
 8.82861
 6.25638
 6.05703
 6.04953
 6.10608
 6.25059
 6.10683
 6.0268
 6.08488
 7.11409
 6.89334
 6.98992
 6.84236
 7.96363
 7.88446
 7.86798
 8.07588
 6.30741
 6.48797
 6.3743
 6.28986
 8.97638
 8.93921
 9.00683
 8.89538
 3.44699
 3.5316
 3.4349
 3.38144
 8.35756
 8.38819
 8.31341
 8.22944
 3.97121
 4.16216
 4.04162
 4.02028
 2.88948
 3.02143
 3.15715
 2.93901
 3.16721
 3.23537
 3.24173
 3.29681
 8.6452
 8.75386
 5.21045
 5.25086
 5.38117
 5.28432
 8.84396
 8.64165
 8.74408
 8.80677
 4.6838
 4.33922
 4.45862
 4.38586
 3.94023
 4.12381
 3.86086
 4.10319
 8.09981
 7.99245
 7.96914
 8.05305
 6.40253
 6.41874
 6.25215
 6.33156
 8.38423
 8.3711
 8.25562
 8.36707
 7.46313
 7.46564
 7.43661
 7.2906
 11.5801
 11.3937
 11.6163
 11.4514
 3.38983
 3.50829
 3.21361
 3.4316
 8.27905
 8.41571
 8.2396
 8.16561
 9.54832
 9.65747
 9.65204
 9.50255
 7.26932
 7.34383
 7.17832
 7.12154
 9.42277
 9.61392
 9.65867
 9.42171
 7.39323
 7.57917
 7.62649
 7.4759
 5.15321
 5.21978
 4.99628
 5.29205
 6.99926
 7.11828
 7.11844
 7.04576
 3.63846
 3.30873
 3.6318
 7.237
 7.07036
 7.29238
 7.10345
 11.6322
 11.6935
 11.6858
 11.7395
 2.04052
 1.97096
 1.89028
 2.04612
 6.56697
 6.59019
 6.48474
 6.6214
 4.65582
 4.79272
 4.95256
 4.7401
 9.01722
 8.88166
 9.21173
 9.06822
 7.98516
 7.85655
 8.1139
 7.96216
 7.97806
 7.74298
 7.86936
 7.75371
 3.16748
 3.32287
 3.13261
 2.99664
 7.8006
 7.9311
 8.02488
 7.97556
 2.14494
 2.22302
 2.08211
 2.34415
 5.32425
 5.53925
 5.54391
 5.30681
 8.92692
 8.8925
 8.83326
 8.9159
 10.9691
 10.9306
 10.8233
 11.0072
 7.41704
 7.6536
 7.5114
 7.69822
 6.91291
 6.91329
 6.76136
 6.94691
 4.98284
 4.98655
 5.09532
 5.26856
 11.48
 11.5931
 11.427
 11.508
 7.40048
 7.52902
 7.30893
 7.37172
 2.55633
 2.70341
 2.73867
 2.68988
 4.32542
 4.15226
 4.22416
 4.2945
 4.26643
 4.28735
 4.1003
 4.34851
 4.33754
 4.50287
 4.55536
 4.4688
 4.2041
 3.93414
 4.09153
 4.11283
 6.02143
 5.94564
 6.02497
 6.02853
 8.73031
 8.48551
 8.32138
 8.28917
 8.39868
 5.51255
 5.735
 5.65696
 5.67044
 5.54933
 5.49694
 5.74548
 5.71195
 10.0471
 9.97751
 9.9916
 10.0472
 3.71943
 3.71985
 3.81602
 3.71541
 4.70277
 4.53455
 4.33844
 4.47626
 8.94696
 8.73066
 8.76763
 8.54106
 8.54208
 8.57623
 8.46983
 8.36731
 8.4058
 8.29855
 8.67066
 8.84835
 9.06523
 8.93759
 5.55995
 5.35462
 5.41086
 5.60015
 2.46637
 2.41366
 2.5118
 2.41006
 6.92489
 7.00691
 6.88354
 7.09676
 3.02387
 3.36795
 3.46929
 3.49262
 7.36034
 7.40033
 7.47318
 7.29494
 5.51255
 5.68665
 5.79881
 5.77074
 8.81948
 8.84664
 8.87654
 8.99942
 6.34496
 6.13716
 6.42102
 6.25479
 6.00075
 5.787
 5.67944
 5.97753
 8.68013
 8.74836
 8.88303
 8.81262
 7.85661
 7.96013
 7.64933
 7.75759
 7.2763
 7.29928
 7.43205
 7.52555
 6.2167
 6.1339
 6.20868
 6.11762
 9.77062
 9.75284
 9.7009
 9.59079
 5.75098
 5.94734
 5.83639
 5.70733
 7.82264
 8.01949
 7.7917
 7.70341
 5.23932
 5.28384
 5.2435
 5.3821
 3.62067
 3.81049
 3.65525
 3.7485
 2.98494
 3.12036
 3.12095
 3.05534
 3.06409
 2.92674
 3.29293
 2.07328
 1.94117
 1.84154
 1.75282
 4.21843
 4.43882
 4.64827
 4.37641
 6.96267
 7.00143
 6.87359
 6.90068
 2.88395
 3.02663
 3.16146
 2.9255
 6.70453
 6.69091
 6.79607
 6.82093
 6.11555
 6.01525
 6.06922
 3.38106
 3.19068
 3.30531
 3.32598
 3.50769
 3.71483
 3.63014
 6.33232
 6.39694
 6.24334
 6.19043
 7.91845
 7.8397
 7.9422
 7.72382
 5.38787
 5.53523
 5.58696
 5.61708
 3.1185
 2.96892
 3.0802
 3.16876
 8.43225
 8.47714
 8.40309
 8.55053
 7.06125
 7.11921
 7.23977
 7.28789
 6.78141
 6.53058
 6.78769
 6.77222
 5.12939
 5.3181
 5.18447
 5.1679
 8.50201
 8.60637
 8.38655
 8.57691
 9.04539
 9.16226
 9.03407
 9.05635
 6.88841
 6.88746
 6.91441
 6.74733
 2.25245
 2.38394
 2.40631
 2.3641
 8.28105
 8.46013
 8.25831
 8.36555
 8.91086
 8.78203
 8.95438
 8.79143
 5.79911
 6.04523
 5.79635
 5.82873
 8.34069
 8.27147
 8.3648
 9.03164
 8.9037
 8.95885
 6.16482
 6.30188
 6.0166
 6.23815
 8.81226
 8.87481
 8.98405
 8.82306
 8.89095
 9.05958
 8.92359
 8.9265
 5.72175
 5.66826
 5.76938
 8.66641
 8.69051
 3.81501
 3.77313
 3.4711
 3.4392
 5.3939
 5.11366
 5.12136
 5.21355
 9.80848
 9.69888
 9.90143
 9.65821
 10.6523
 10.6028
 10.7543
 10.6095
 8.25822
 8.53726
 8.37202
 8.3521
 3.41904
 3.42119
 3.3064
 3.39673
 5.428
 5.56262
 5.65088
 5.57087
 9.46091
 9.49468
 9.50269
 9.52267
 8.34927
 8.33652
 8.25309
 8.14493
 8.28629
 8.24984
 8.28685
 8.68497
 8.57498
 8.55608
 8.55893
 8.58632
 8.69829
 8.55037
 8.50857
 8.99295
 9.15755
 9.026
 9.13141
 2.84526
 2.65004
 2.79987
 2.79558
 2.93297
 2.73684
 3.05748
 6.99537
 7.11365
 6.97266
 7.16828
 8.40176
 8.5998
 8.37347
 8.42944
 2.03574
 1.87205
 9.01949
 9.12183
 9.095
 9.18504
 6.43195
 6.1275
 6.32539
 6.18421
 5.85818
 5.92715
 8.81695
 8.8511
 8.7015
 8.80952
 2.8359
 2.68027
 2.92117
 2.53757
 2.26996
 2.43513
 2.30752
 1.9784
 7.32028
 7.24563
 7.30623
 10.0231
 9.90877
 9.96221
 8.55788
 8.36246
 8.57289
 8.52792
 4.72867
 4.92014
 4.59043
 4.88913
 7.9905
 8.10649
 8.14674
 8.24455
 8.22416
 8.31015
 8.16275
 8.33976
 5.50109
 5.50798
 5.42836
 5.20423
 11.3643
 11.2737
 11.3803
 11.4825
 5.0126
 4.97463
 4.79646
 4.82925
 4.87127
 4.89655
 4.73243
 4.65875
 9.06894
 9.06052
 9.26563
 9.11392
 3.55059
 3.42399
 3.39673
 3.60136
 11.5988
 11.7386
 11.7331
 11.8312
 2.9189
 3.32262
 3.311
 3.32941
 4.06852
 4.25542
 8.22536
 8.1181
 8.14695
 8.0332
 9.22624
 9.37173
 9.28542
 9.17314
 3.69314
 3.50824
 3.54513
 3.62701
 8.02276
 7.98203
 7.99312
 8.0945
 2.19695
 2.33505
 2.24057
 8.45165
 8.58391
 8.63906
 9.41264
 9.24414
 9.20472
 3.05825
 2.94787
 3.01322
 3.09435
 8.42345
 8.51548
 8.52013
 8.50874
 3.59219
 3.57123
 9.46653
 9.35951
 9.47194
 9.43498
 6.79771
 6.61504
 6.62087
 6.7665
 8.22507
 8.29804
 7.62039
 7.30498
 7.33779
 7.51752
 8.15354
 8.17717
 8.16228
 8.32361
 2.27915
 2.0701
 2.38927
 2.2963
 9.29793
 9.3653
 9.33296
 4.24885
 11.5343
 11.5724
 11.5617
 11.6107
 3.64687
 3.60086
 3.4836
 3.83266
 8.20571
 8.18836
 7.92074
 7.99337
 4.94955
 5.05176
 5.02166
 4.97702
 8.19096
 8.30385
 8.37197
 8.23019
 5.58407
 10.0318
 10.0691
 10.0701
 10.0143
 5.54661
 5.54766
 5.59885
 5.7472
 4.17588
 4.08086
 3.96709
 4.33769
 4.23807
 4.45829
 4.20761
 3.58797
 3.35332
 3.51304
 3.48487
 8.9858
 8.93262
 8.7593
 8.84905
 3.58752
 3.58659
 3.6175
 3.42079
 9.51196
 9.53706
 9.50784
 9.65931
 3.79377
 3.6691
 3.5964
 3.59088
 7.08674
 7.1832
 7.20623
 7.2505
 5.04233
 4.92163
 4.85713
 4.81056
 6.3416
 6.43199
 6.48845
 6.54085
 2.8083
 3.10767
 6.63382
 6.79352
 6.76205
 6.63893
 9.91106
 9.97203
 9.79879
 9.96888
 9.46979
 9.52905
 9.32439
 9.49987
 6.35939
 6.20762
 6.17968
 6.16643
 4.8819
 4.89236
 4.92066
 4.67601
 4.48151
 4.67252
 4.54955
 4.43132
 3.28117
 3.51466
 3.44454
 3.5964
 4.49222
 4.2271
 4.37312
 4.48474
 9.4421
 9.45242
 9.35756
 9.54459
 8.8541
 8.8703
 8.90051
 8.68038
 1.88639
 2.05813
 2.12396
 2.10391
 6.09927
 6.00359
 6.05547
 5.78267
 8.65775
 8.46725
 8.64202
 8.533
 11.0465
 11.0659
 10.9155
 11.1266
 3.57522
 3.4779
 3.67158
 3.26901
 8.57753
 8.53987
 8.50045
 8.39939
 7.49008
 7.34411
 7.5867
 7.45409
 9.64851
 9.68966
 9.66153
 9.55281
 5.72848
 5.83378
 5.74854
 5.73521
 3.12018
 3.10502
 3.18836
 3.12374
 6.03512
 6.30405
 6.20833
 6.25598
 7.30504
 7.25496
 7.09928
 7.1896
 9.79498
 9.72184
 9.65507
 9.85859
 3.08486
 5.27487
 5.13229
 5.36008
 5.13257
 7.46354
 7.54627
 7.68889
 7.61474
 4.77043
 4.65411
 4.69011
 4.5143
 8.60655
 8.74194
 8.66764
 8.56332
 5.81224
 5.68202
 5.89493
 9.89413
 9.69537
 9.84503
 9.85081
 4.09715
 4.47093
 4.24529
 4.35632
 9.25592
 9.28386
 9.1752
 9.25758
 1.25079
 1.33607
 1.27292
 1.13037
 8.58864
 8.5644
 8.54014
 8.56697
 10.7343
 10.442
 10.4725
 10.5813
 9.93972
 9.95656
 9.84057
 9.8411
 1.95799
 2.08463
 2.1514
 2.22218
 2.76762
 2.78184
 2.6614
 2.63539
 6.99439
 6.83836
 6.90329
 6.81514
 8.39318
 8.44381
 8.34396
 6.48068
 6.50391
 6.73867
 6.65461
 5.35245
 5.45299
 5.22467
 5.2281
 6.39043
 6.04867
 6.16384
 6.20445
 6.72732
 6.68732
 6.38774
 6.532
 1.94549
 2.11286
 2.10576
 2.18994
 8.94277
 9.00705
 8.78302
 8.93968
 9.89753
 10.1264
 10.1019
 4.8718
 4.99423
 4.95992
 5.06309
 3.82491
 3.63001
 3.75582
 3.79766
 8.56873
 8.59575
 8.53776
 8.88335
 8.85427
 8.76462
 8.99017
 3.33259
 3.46075
 3.2531
 3.56993
 7.09681
 7.14047
 6.96609
 7.09249
 8.75605
 8.92416
 8.78697
 8.78939
 7.52658
 7.62095
 7.60483
 7.48657
 4.10727
 4.10452
 4.28624
 4.10244
 8.56866
 8.36169
 8.66501
 8.42494
 7.33913
 7.60108
 7.5421
 7.42989
 8.15429
 7.96604
 8.10264
 2.84859
 2.89047
 3.02972
 3.03414
 6.93624
 6.92663
 7.04122
 6.84343
 1.81861
 1.91881
 1.5138
 6.64664
 6.53845
 6.5921
 6.64501
 9.71594
 9.60498
 9.78804
 9.7271
 6.07715
 6.03561
 5.93632
 5.77033
 6.7732
 6.53986
 6.83589
 8.50911
 8.47114
 8.3278
 8.40033
 9.32946
 9.28097
 9.37394
 9.24515
 8.60855
 8.50997
 8.41405
 8.61863
 10.8135
 10.776
 10.649
 10.6298
 7.74691
 7.787
 7.85968
 7.87753
 8.18489
 8.25533
 8.03382
 8.29095
 3.10507
 3.41092
 3.34926
 2.99969
 9.27934
 9.08666
 9.15172
 9.19516
 5.59666
 5.67341
 5.5494
 5.46874
 2.27778
 2.23253
 2.36281
 2.4704
 2.23314
 2.5321
 2.39597
 2.32023
 4.31589
 4.18483
 4.30882
 4.25767
 2.20428
 1.91313
 1.94246
 2.34323
 3.13751
 3.11745
 3.14561
 1.75906
 2.1098
 2.01273
 2.01135
 9.70798
 9.77891
 9.71454
 9.82513
 7.48783
 7.6845
 7.7235
 7.65264
 8.04769
 7.86031
 8.00565
 7.85043
 7.92339
 8.02621
 8.01972
 8.06832
 2.92576
 3.08367
 2.9142
 2.86607
 7.65082
 7.64302
 7.79331
 7.83732
 8.54801
 8.72623
 8.74773
 8.59912
 5.11552
 5.17061
 4.96967
 5.23705
 8.34247
 8.19856
 8.34609
 8.22013
 4.80221
 4.95744
 5.02874
 6.50977
 6.31928
 6.27763
 3.38159
 3.61501
 3.60395
 3.52627
 7.51355
 7.44722
 7.57367
 7.57443
 5.60695
 5.77718
 5.71833
 5.5662
 7.9771
 8.17773
 8.09007
 7.92384
 1.79144
 1.91523
 2.50579
 2.59307
 2.67827
 2.41331
 9.80567
 9.85981
 9.8583
 9.94651
 5.60219
 5.45205
 5.41433
 5.27045
 8.49539
 8.32679
 8.48005
 8.5706
 12.0126
 12.2008
 12.0237
 12.0808
 8.54393
 8.61581
 8.71225
 8.60431
 4.95708
 5.14496
 4.96782
 9.33716
 9.35648
 9.16253
 9.18337
 2.39766
 2.6131
 2.34884
 2.54858
 8.49474
 8.4288
 8.48089
 8.41058
 5.78441
 5.6
 5.66967
 5.76726
 9.59685
 9.55174
 9.69769
 9.59114
 11.2239
 11.2105
 11.1712
 11.113
 8.76598
 8.64247
 8.76848
 8.8103
 7.70999
 7.77752
 7.65055
 6.28379
 6.56954
 6.27963
 6.4005
 9.01758
 8.9965
 9.14036
 4.67499
 4.75899
 4.62381
 4.4956
 4.29953
 4.01031
 4.3153
 4.0654
 5.05502
 5.28198
 5.10896
 5.07065
 2.63379
 3.10531
 2.94214
 2.87462
 4.41225
 4.53482
 4.40456
 8.14399
 8.02944
 8.05768
 7.97389
 4.66021
 4.84259
 5.38782
 5.56661
 5.63148
 5.48281
 5.02286
 5.09943
 5.06182
 4.94702
 8.63812
 8.56483
 8.59886
 8.73663
 8.62553
 8.50809
 8.62197
 8.50178
 12.0283
 11.9442
 11.9149
 11.9721
 8.64539
 8.5138
 8.64501
 8.03471
 8.09924
 8.13825
 8.08309
 6.74451
 6.74532
 6.8436
 6.88106
 8.05147
 7.89345
 7.88224
 7.99472
 9.7337
 9.65075
 9.75624
 9.75332
 4.08894
 4.36359
 4.15637
 4.29294
 7.04475
 6.91702
 7.04194
 7.16465
 3.1487
 3.1466
 3.2181
 3.08613
 6.27785
 6.43878
 6.29186
 6.40262
 2.82752
 2.71733
 2.79805
 11.0918
 10.9703
 11.0135
 11.0025
 5.10076
 4.79412
 5.03182
 5.0034
 7.27049
 7.41671
 7.23811
 7.31962
 8.89775
 9.00869
 7.98852
 7.95156
 7.86627
 7.9032
 7.42251
 7.62178
 7.58299
 3.27248
 3.20107
 3.39772
 3.25302
 3.07932
 3.20097
 3.36861
 3.28871
 8.98006
 9.01667
 8.92559
 9.00285
 7.17366
 7.22278
 8.37169
 8.21416
 8.31814
 8.44912
 4.52403
 4.68916
 4.36394
 4.35135
 9.7013
 9.67597
 9.72112
 9.63183
 8.76447
 8.71521
 8.84136
 8.85294
 8.4366
 8.26647
 8.18953
 8.27435
 6.52142
 6.54413
 6.54324
 6.29285
 4.84688
 4.87306
 4.99178
 5.00391
 4.4368
 4.57142
 4.72355
 4.53824
 11.5958
 11.6185
 11.6672
 11.7099
 9.29704
 9.1525
 9.09752
 6.20718
 6.5256
 6.33734
 6.03462
 5.88284
 6.05771
 5.83848
 3.0819
 2.92649
 3.04405
 2.85724
 7.01864
 8.49063
 8.49128
 8.6474
 8.62378
 5.45578
 5.56514
 5.72797
 5.64679
 4.21724
 4.44311
 4.42604
 4.18179
 3.94413
 3.91349
 8.97624
 9.03704
 9.10697
 9.12847
 6.67573
 6.52699
 6.58175
 6.50714
 9.42241
 9.46523
 9.4229
 9.36699
 5.93083
 7.74278
 7.84597
 7.59187
 7.53115
 8.0874
 7.97794
 7.91045
 8.01437
 3.06088
 3.29038
 2.67544
 2.50893
 2.41014
 2.58055
 10.3875
 10.5004
 10.4345
 10.3863
 4.45096
 4.41979
 4.66294
 4.34125
 6.01545
 6.24105
 6.14787
 5.94758
 11.3902
 11.3515
 11.3523
 11.4412
 6.79357
 6.78757
 6.70007
 6.87928
 6.9353
 7.12982
 7.2385
 7.22874
 8.93871
 9.08452
 8.88483
 8.94989
 2.03485
 1.83284
 1.81677
 1.78941
 7.10874
 7.28809
 7.26886
 8.18612
 8.02714
 8.02334
 8.16974
 2.49967
 2.21098
 2.42468
 2.38501
 8.23566
 8.3279
 8.45664
 8.19494
 7.32293
 7.20202
 3.98318
 3.98003
 3.81456
 4.15432
 6.26426
 6.23993
 6.02179
 6.03014
 2.62529
 2.75333
 2.52041
 2.63788
 7.20612
 6.93559
 8.70548
 8.64706
 8.61068
 8.62147
 8.28664
 8.25774
 8.14833
 8.09479
 3.76328
 3.73729
 3.98845
 3.90066
 4.39982
 4.49179
 4.32603
 4.32759
 4.55943
 4.78826
 4.58072
 4.62215
 8.25376
 8.05435
 8.13613
 8.23953
 10.4605
 10.5485
 10.506
 10.4617
 2.18363
 1.96357
 2.16951
 2.06737
 9.05481
 9.0432
 9.02325
 8.93952
 6.39991
 6.26179
 6.22438
 6.36838
 7.88536
 7.63326
 7.80887
 7.71766
 6.41384
 6.62643
 6.43836
 5.64575
 5.41968
 5.63601
 5.37031
 6.90324
 6.77503
 6.86693
 7.00763
 4.9631
 4.88001
 4.72493
 5.0055
 4.95327
 5.02767
 4.94074
 5.25639
 11.3687
 11.1847
 11.3576
 9.54741
 9.40169
 9.32628
 9.38497
 6.37205
 6.49814
 6.44574
 6.45896
 4.02764
 3.80847
 3.92991
 3.79624
 8.47086
 8.66323
 8.47349
 8.39053
 8.29681
 8.28355
 5.9519
 6.0518
 5.92306
 5.91795
 6.49824
 6.32978
 6.27245
 6.24763
 0.944666
 0.989651
 1.09822
 0.8796
 9.91498
 9.86236
 9.9572
 10.1257
 4.73878
 4.67878
 7.68909
 7.52057
 7.50179
 7.67122
 5.14522
 5.02642
 5.04733
 4.99731
 6.08534
 6.04651
 5.92244
 5.99111
 7.51415
 7.5051
 7.35082
 7.62436
 5.43887
 5.26233
 5.31615
 5.28367
 8.97224
 8.9077
 8.92542
 8.81079
 9.3932
 9.51587
 9.37406
 9.44351
 4.05605
 3.97161
 3.81761
 3.52943
 6.46239
 6.36646
 6.22675
 10.6517
 10.7139
 10.6043
 3.69122
 3.56184
 3.53349
 3.46399
 3.40752
 3.47146
 3.5757
 3.59693
 6.81617
 6.77462
 6.72964
 6.64106
 3.07132
 2.94041
 2.98382
 2.97028
 2.52697
 2.27663
 2.48929
 2.24091
 7.44538
 7.36557
 7.23345
 7.4053
 4.22852
 4.1297
 4.04815
 4.06848
 1.09187
 1.03593
 1.21752
 0.992171
 4.55727
 4.54425
 4.66029
 4.37303
 6.29895
 6.54807
 6.44108
 6.61749
 3.81792
 3.71507
 3.86921
 3.92436
 5.11855
 5.16618
 5.02435
 5.76666
 5.60347
 10.1721
 10.149
 10.2038
 10.2504
 5.83704
 5.65116
 5.70214
 5.73021
 10.3721
 10.3384
 10.3147
 10.3068
 10.2194
 10.2497
 10.1007
 10.0621
 6.1352
 6.04505
 6.03115
 6.19184
 7.7303
 7.73076
 7.87222
 7.66321
 5.49619
 5.29262
 5.34681
 5.36891
 6.68918
 6.81978
 9.59802
 9.67493
 9.639
 9.51846
 2.35008
 2.26906
 2.16765
 2.31951
 7.6283
 7.74636
 7.48642
 7.59904
 3.64537
 3.72247
 3.88079
 3.74395
 9.56322
 9.67371
 9.56247
 9.62165
 3.29399
 2.97301
 3.06941
 3.02316
 5.78607
 6.0316
 5.83606
 5.86173
 8.40111
 8.55999
 8.67624
 8.58603
 1.41092
 1.50237
 1.48213
 1.6192
 8.12633
 7.9405
 8.08586
 8.12798
 7.38029
 7.61634
 7.45114
 7.55696
 2.2718
 2.23277
 2.42296
 2.21009
 6.81764
 7.06778
 6.99084
 6.99657
 3.8207
 3.67095
 3.77031
 3.83939
 3.90244
 4.05161
 3.98946
 7.31206
 7.59878
 7.47501
 7.52017
 3.98855
 3.81132
 3.93547
 3.8678
 9.09744
 8.93366
 8.95368
 9.10141
 3.46577
 3.33592
 3.34908
 3.43718
 3.56223
 3.63646
 3.52151
 3.60224
 8.79222
 8.82735
 8.5501
 8.69696
 8.68874
 8.74624
 8.59596
 8.81206
 12.4899
 12.4571
 12.557
 12.5302
 4.4455
 4.67467
 4.64688
 10.1327
 9.94588
 9.94072
 10.0271
 2.66618
 2.84599
 2.8009
 2.77177
 8.83714
 3.69274
 3.90646
 3.84971
 3.69318
 3.68286
 3.86348
 3.8526
 11.5775
 11.7137
 11.6737
 11.6102
 11.7651
 11.7617
 11.7873
 11.8246
 2.71783
 2.90492
 2.74299
 2.60691
 8.66561
 8.73435
 8.58825
 8.76221
 5.18771
 5.28202
 5.067
 7.95249
 8.09085
 7.96329
 8.18174
 7.31665
 7.30661
 7.37322
 3.67475
 3.75551
 3.45875
 6.03276
 5.90321
 5.8789
 6.00892
 7.89753
 8.06562
 8.07301
 7.94963
 8.8387
 8.78604
 8.86532
 8.80134
 5.2068
 5.08011
 5.06133
 9.6151
 9.54362
 9.74995
 9.75489
 8.70356
 8.42305
 8.61463
 7.4493
 7.17962
 7.2345
 7.34543
 8.85757
 8.70855
 8.71765
 8.77138
 8.77679
 8.58155
 8.54534
 8.59435
 3.53226
 3.67824
 3.65656
 3.69333
 7.13473
 7.28515
 7.17576
 7.08341
 8.15832
 8.18808
 6.30197
 6.42754
 6.34346
 6.52196
 2.89571
 2.84346
 2.76776
 2.82044
 2.85151
 12.6331
 12.6678
 12.682
 12.6343
 4.20965
 3.9964
 4.11988
 2.02095
 2.07208
 2.18202
 2.06089
 4.6594
 4.93125
 4.87349
 4.91813
 8.87977
 8.82089
 8.73917
 8.88845
 7.27891
 7.40231
 7.44653
 7.43832
 1.8495
 1.85527
 1.91559
 1.95619
 4.42971
 4.58041
 4.70417
 4.55498
 9.7017
 9.82013
 9.82934
 9.6389
 7.52151
 7.48447
 7.44572
 7.70797
 7.77216
 7.69167
 7.60091
 7.73837
 12.6543
 12.6732
 12.6726
 12.6457
 9.11066
 9.14284
 9.18898
 9.05024
 4.461
 4.21346
 4.47056
 4.34396
 5.87169
 5.88918
 5.71255
 5.94654
 7.03973
 6.92806
 6.7842
 6.98466
 4.97083
 4.76969
 4.83391
 4.84012
 5.77037
 5.76662
 5.60577
 5.78638
 4.81766
 4.82075
 4.96664
 4.59838
 1.35309
 1.69156
 1.59337
 1.26513
 4.15575
 4.26299
 4.30741
 4.57439
 4.91869
 5.04551
 5.17342
 4.96888
 5.2447
 6.37113
 6.37877
 6.4956
 6.20137
 2.73303
 2.81208
 2.8576
 2.85015
 7.18516
 7.28697
 7.11962
 7.18313
 6.02621
 5.94372
 5.8463
 6.13719
 6.64825
 6.83659
 6.70642
 6.5562
 7.83225
 8.06547
 7.8895
 8.03804
 10.9504
 10.8867
 10.7296
 10.9606
 1.09526
 1.40805
 5.45798
 5.56907
 5.58422
 12.1878
 12.1851
 12.1942
 8.44988
 8.56314
 8.48948
 8.61971
 10.19
 10.1694
 10.3632
 10.3725
 9.13314
 9.20838
 9.09871
 9.29518
 2.49867
 2.78886
 2.65802
 2.6326
 6.41627
 6.63372
 6.54752
 6.66224
 5.11319
 4.89577
 4.91127
 4.72905
 5.81294
 5.86119
 5.99504
 6.1094
 4.8461
 4.76991
 4.92934
 4.88046
 6.98072
 6.97613
 3.7683
 4.20777
 3.80257
 4.1732
 4.6685
 4.79665
 4.89157
 4.52675
 8.49604
 8.67955
 8.47124
 8.65188
 8.54108
 8.49465
 8.49929
 8.4804
 6.16628
 6.14364
 6.21633
 6.08847
 6.25065
 6.1453
 6.02516
 5.89545
 9.18572
 9.38033
 9.43452
 9.1406
 4.83011
 4.97194
 5.04028
 5.06498
 1.5506
 1.66814
 1.57532
 1.6471
 3.60244
 3.71515
 3.69754
 3.79058
 1.3384
 1.23549
 1.42661
 1.18751
 3.35037
 3.14001
 3.1972
 3.18483
 6.48552
 6.25403
 6.45737
 6.40209
 5.11922
 5.24979
 6.88983
 6.66972
 6.94454
 6.82312
 8.58262
 8.4367
 8.456
 8.39869
 4.34268
 4.07497
 4.06428
 4.26337
 6.95713
 7.00271
 6.95028
 7.14727
 7.41374
 7.54757
 7.59351
 7.51711
 8.82315
 8.81923
 8.74427
 8.61447
 8.22968
 8.2477
 8.32834
 8.08785
 8.67565
 8.5779
 8.55106
 8.62471
 10.8423
 10.8194
 10.911
 10.8805
 4.50548
 4.43507
 4.64925
 4.47889
 5.29157
 5.23807
 10.5272
 10.4854
 10.5005
 10.6397
 8.00127
 7.94259
 5.47139
 5.6216
 5.44266
 3.77298
 3.72432
 9.11864
 9.14338
 9.2152
 9.03586
 10.6732
 10.593
 10.6006
 10.5628
 9.34311
 9.25853
 9.17059
 9.13928
 8.02665
 7.914
 7.87279
 7.84149
 5.7828
 6.01314
 6.01994
 6.00218
 5.09135
 5.17454
 5.20122
 5.23629
 8.10369
 7.94861
 7.93396
 7.97838
 6.08553
 6.10433
 6.01772
 6.28922
 6.51774
 6.64476
 6.68486
 6.59076
 6.33921
 6.2076
 6.11886
 6.20988
 6.16452
 6.43171
 6.15416
 6.89552
 7.03036
 6.75408
 6.87089
 7.68948
 7.61622
 7.8051
 7.71588
 8.69032
 8.56323
 8.77121
 8.57005
 2.70905
 2.77597
 2.6484
 2.51929
 7.14946
 7.15183
 6.97486
 6.98577
 9.4039
 9.40646
 9.62008
 9.45263
 9.70145
 9.6863
 9.72788
 9.77516
 9.32906
 9.42919
 9.42217
 9.35631
 8.71394
 8.72925
 8.55119
 8.51834
 8.73644
 8.83337
 8.87492
 8.80824
 3.15341
 3.03003
 3.02826
 2.98181
 7.33205
 7.33604
 7.37173
 7.20049
 4.70546
 4.54802
 4.70423
 4.78318
 8.65669
 8.46726
 8.69697
 8.55478
 2.51745
 2.43911
 2.45451
 2.2611
 2.18834
 2.22761
 2.01308
 4.75344
 5.13351
 5.00648
 4.99223
 8.42172
 8.34562
 8.51406
 8.38067
 1.66401
 1.94467
 1.88502
 7.55578
 7.69019
 7.59616
 7.81118
 3.38502
 3.35169
 3.80585
 3.73596
 3.56054
 3.79462
 7.8316
 7.93569
 7.86963
 9.47369
 9.41723
 9.58586
 9.52921
 8.62764
 8.71396
 8.56153
 8.55227
 6.60385
 6.40291
 6.65553
 2.26357
 2.64013
 2.60726
 4.78146
 5.00966
 5.08092
 4.95465
 2.25332
 2.31114
 2.57197
 2.07037
 7.43664
 7.25154
 7.16438
 7.27852
 3.17937
 3.12887
 3.0249
 3.33445
 6.45889
 6.41553
 6.54451
 6.63119
 8.26208
 8.41795
 8.33607
 1.83559
 2.02263
 1.91781
 1.6284
 5.3511
 5.99057
 5.76721
 5.84095
 5.94673
 5.63102
 5.6106
 5.7567
 8.35188
 8.44591
 8.43322
 8.43962
 8.445
 8.2456
 7.33719
 7.51236
 7.52138
 7.55543
 7.34942
 7.1426
 7.30185
 7.18034
 4.91969
 1.62914
 1.93995
 1.99614
 1.79441
 11.275
 11.4136
 11.3358
 11.3497
 8.03248
 8.13305
 8.39505
 8.44865
 8.37265
 8.33368
 8.46412
 8.44637
 8.65591
 8.57788
 4.63883
 4.8807
 4.85423
 4.72893
 4.47423
 4.37446
 4.61335
 4.44105
 8.08039
 8.21701
 5.11198
 5.08787
 4.83805
 5.00207
 5.02884
 4.81374
 5.01286
 6.05961
 6.19566
 6.29617
 6.35718
 7.11656
 7.27895
 7.13031
 7.28898
 4.61548
 4.34191
 4.37399
 4.58751
 3.94678
 3.88434
 3.75451
 3.95145
 4.22679
 4.0115
 4.17336
 4.51021
 4.44295
 4.48596
 4.6544
 7.37946
 7.33076
 7.30865
 7.44683
 10.1161
 10.1493
 10.0616
 10.0465
 7.80545
 7.82675
 7.91141
 7.8694
 3.92868
 4.1361
 4.27684
 4.0872
 5.15266
 5.23293
 5.24657
 5.07087
 7.74601
 7.65214
 7.5917
 7.57281
 5.20325
 5.40324
 5.27538
 5.21419
 6.21898
 6.15404
 6.42217
 6.14772
 6.24111
 6.05863
 6.12788
 6.0633
 5.30296
 5.17285
 5.1886
 2.93126
 2.86794
 2.98507
 2.94143
 7.86485
 7.69792
 7.77577
 7.7567
 6.88963
 6.71004
 6.73363
 6.77673
 9.93013
 10.0165
 10.0004
 9.87345
 8.80194
 8.6843
 8.70227
 8.78119
 8.60697
 8.85
 8.73551
 8.88052
 8.89511
 8.80806
 8.82949
 8.76848
 6.26893
 6.37192
 6.33284
 9.47679
 9.50735
 9.4361
 9.40819
 9.06651
 9.00767
 8.89853
 9.04587
 1.79504
 2.01044
 2.02363
 1.87433
 6.17324
 6.27891
 6.3715
 6.44494
 3.96696
 3.94888
 4.05521
 4.14577
 5.83311
 5.74501
 5.87098
 5.98883
 5.35454
 5.20225
 5.35396
 5.30569
 8.35168
 8.4873
 8.42
 8.60859
 6.69953
 6.35839
 6.62352
 6.5865
 3.84628
 3.70454
 3.85973
 3.79484
 5.73182
 5.80568
 5.54832
 5.59534
 8.94051
 9.01778
 8.85286
 8.79482
 2.90134
 2.82859
 2.87168
 2.79537
 7.62211
 7.77323
 9.09629
 6.70453
 6.62054
 6.49607
 6.74566
 7.17102
 7.0085
 7.19908
 7.23659
 10.5605
 10.5834
 10.4441
 7.89314
 8.04908
 8.08609
 8.18063
 5.77031
 5.46507
 5.59279
 5.42619
 6.4761
 6.33479
 6.41839
 6.48056
 3.075
 2.97943
 2.95874
 3.02056
 8.74274
 8.49075
 8.66576
 8.4311
 8.43947
 8.48516
 8.27948
 10.2624
 10.4571
 10.3541
 10.2741
 8.814
 8.63255
 8.75838
 5.85884
 5.48657
 5.79972
 8.92201
 8.94061
 9.06752
 9.00441
 7.11754
 6.95429
 6.91488
 6.92838
 12.6353
 12.6401
 12.6337
 12.5548
 7.36913
 7.42988
 7.42348
 9.43599
 9.46443
 9.43743
 9.43608
 7.36852
 7.45071
 7.59675
 7.46065
 9.02771
 8.89381
 8.90324
 8.83722
 4.92955
 4.84631
 4.96879
 4.79711
 4.4257
 4.59054
 4.45005
 4.35997
 2.19526
 2.19745
 2.08938
 2.34473
 6.06705
 6.30408
 6.11665
 6.05217
 9.08931
 9.24948
 9.10351
 9.19372
 8.22245
 8.28746
 9.99074
 9.98822
 9.94073
 9.94428
 7.00039
 6.93028
 7.87371
 7.61845
 7.67167
 8.57831
 8.48318
 8.40911
 8.49621
 2.56743
 2.47572
 2.77618
 2.73562
 2.90219
 2.95865
 3.04285
 2.93876
 8.37792
 8.31579
 8.41317
 8.54964
 9.48605
 9.44341
 5.84163
 5.77444
 5.82866
 5.64575
 8.54475
 8.60895
 8.47939
 8.49438
 7.61851
 7.82736
 7.47364
 1.14648
 1.06797
 1.26717
 6.56158
 6.32425
 6.41451
 6.40653
 3.3869
 3.13509
 3.43069
 3.54183
 6.24472
 6.0741
 6.03457
 6.26277
 4.6535
 4.49654
 4.46366
 4.75852
 9.14531
 9.00785
 9.12503
 9.18791
 8.53037
 8.32855
 8.59169
 8.38753
 6.19819
 6.38433
 6.03181
 6.26686
 7.79384
 7.61064
 7.56126
 7.81026
 9.12401
 9.06626
 9.01206
 8.87238
 7.09084
 7.00899
 6.9022
 6.81142
 5.22934
 5.19621
 5.32653
 6.35782
 6.16721
 6.29828
 6.19071
 12.0012
 11.8803
 11.8105
 11.8918
 9.48291
 9.48507
 9.45597
 9.47267
 7.90978
 7.91855
 7.92369
 7.7598
 10.666
 10.5454
 10.7258
 10.6167
 3.29385
 3.30943
 3.47827
 1.95468
 2.11642
 2.30781
 2.14018
 4.29608
 3.94423
 4.08071
 4.07858
 6.42797
 5.28874
 5.05104
 4.97616
 5.1487
 6.70064
 6.56399
 6.78678
 6.78718
 9.21238
 9.35822
 9.27708
 8.42682
 8.38366
 8.33666
 8.5576
 11.9679
 12.0936
 11.9839
 12.1416
 10.4072
 10.4154
 10.3594
 10.3886
 7.99292
 7.99579
 7.89065
 7.79204
 1.75915
 2.06283
 1.96357
 1.99115
 11.6466
 11.6325
 11.5155
 11.5479
 4.8806
 4.69376
 5.00953
 4.79781
 6.40451
 6.391
 6.21621
 6.37406
 8.33272
 8.60536
 8.59563
 6.9026
 7.09439
 7.12575
 7.11527
 2.11211
 2.04751
 1.98884
 9.10536
 8.86935
 8.83497
 7.36322
 7.29972
 7.10592
 7.14528
 8.01315
 8.05767
 8.10228
 8.14116
 7.85876
 7.89224
 7.70201
 7.66475
 9.41027
 9.50171
 9.49525
 9.33889
 6.95896
 6.83653
 7.01463
 6.82474
 2.4287
 2.75812
 2.74798
 2.91447
 3.16794
 3.23134
 3.24808
 3.05497
 9.67926
 9.6581
 9.63939
 9.67597
 3.52403
 3.4393
 3.46018
 3.69787
 2.7176
 2.43367
 2.5155
 2.78293
 3.52242
 3.53516
 3.77686
 3.75026
 5.46828
 5.50813
 5.35114
 5.43337
 6.62894
 6.76101
 6.5666
 7.9835
 8.2305
 8.15565
 8.10561
 4.43387
 4.56793
 4.69047
 4.42098
 4.34538
 4.25786
 4.15386
 4.2176
 1.06276
 1.05925
 1.38195
 1.18529
 10.5139
 10.4194
 10.4471
 10.4249
 9.94481
 10.011
 9.97824
 9.87966
 9.34669
 9.3763
 9.18676
 9.3842
 7.83415
 8.06142
 7.90568
 7.91727
 7.65355
 7.63481
 7.64244
 2.61082
 2.46214
 2.251
 2.38091
 4.14073
 4.22971
 4.34132
 4.34215
 6.96106
 7.0887
 7.14274
 7.04035
 3.04556
 2.91258
 5.93153
 5.92659
 5.93264
 6.10569
 3.24477
 3.14789
 2.89308
 3.10215
 6.21595
 5.97517
 6.26578
 5.95007
 8.02807
 7.92382
 8.16091
 8.07512
 9.86889
 9.96913
 9.88392
 9.76948
 12.0891
 11.9682
 12.1391
 12.0339
 3.47886
 3.5605
 3.59281
 3.44099
 2.7639
 2.74079
 2.71919
 2.57741
 7.35836
 7.56438
 7.43507
 7.53872
 6.54739
 6.64568
 6.67376
 6.54012
 8.65543
 8.80705
 8.54993
 5.58074
 5.72879
 5.71085
 5.79084
 8.71035
 8.74313
 8.63377
 8.63545
 6.81887
 6.98813
 7.13012
 7.01969
 5.34987
 5.45258
 5.39783
 5.32378
 6.34372
 6.40467
 6.46854
 3.41789
 3.6224
 3.55205
 3.55636
 5.54182
 5.30947
 10.7577
 10.5522
 10.7774
 10.6852
 4.55091
 4.68512
 4.59867
 8.3292
 8.27749
 8.27846
 8.32535
 5.68646
 5.71627
 5.77767
 6.67434
 6.84997
 6.65654
 6.77434
 5.64805
 5.86281
 5.536
 5.72083
 5.46623
 5.24934
 11.4918
 11.4892
 11.5828
 11.4886
 11.8591
 11.9985
 12.0573
 11.9265
 6.52489
 6.74203
 6.65558
 6.74812
 5.80064
 5.91606
 5.81007
 5.95319
 11.3929
 11.4177
 11.3828
 11.2843
 8.43264
 8.60914
 9.43151
 9.40096
 9.34688
 9.21648
 5.42492
 5.49865
 5.23764
 5.38676
 5.92922
 5.86828
 5.69661
 6.00686
 5.56991
 5.78628
 5.83587
 5.78339
 8.03906
 8.02992
 7.87539
 8.04048
 8.99242
 9.02244
 9.16421
 8.97495
 10.1351
 9.98009
 9.99484
 10.1257
 8.96851
 8.97549
 8.97024
 8.73035
 4.48216
 4.63043
 4.43409
 4.55394
 6.52663
 6.94319
 6.7365
 10.6219
 10.5448
 10.4417
 5.12189
 4.81399
 4.98111
 4.98921
 4.88905
 5.25229
 5.06612
 4.99774
 7.29642
 7.4122
 7.47424
 7.09089
 7.02907
 6.86768
 7.01799
 9.07094
 9.1641
 9.20026
 9.1995
 3.88314
 3.95756
 3.7974
 3.88223
 9.39755
 9.43104
 9.42134
 9.36203
 9.45995
 9.54668
 9.46646
 1.91098
 1.62897
 1.50206
 1.71266
 3.63867
 3.49667
 8.29002
 8.35959
 8.20409
 8.25488
 6.69469
 6.49758
 6.69316
 7.04465
 7.13734
 7.09271
 7.25346
 9.11339
 8.98764
 9.0558
 4.07834
 3.94533
 4.23712
 4.14351
 9.09647
 8.88925
 9.03586
 9.06807
 4.8336
 5.01315
 5.09179
 5.00529
 9.3386
 9.26337
 8.92968
 9.09938
 8.97077
 9.04349
 8.394
 8.47576
 8.43403
 8.38361
 10.3892
 10.4386
 10.5698
 10.4725
 4.44075
 4.22289
 7.91705
 7.81395
 7.79415
 7.81032
 2.14184
 2.23404
 2.17696
 2.0842
 7.97254
 8.06453
 7.85535
 7.7303
 4.07592
 3.86212
 3.79842
 3.78988
 2.91016
 2.66933
 3.05331
 2.72804
 4.85548
 5.06856
 2.82122
 2.6284
 2.69336
 2.764
 9.08958
 9.11453
 9.12018
 8.97271
 2.8738
 2.79852
 2.77436
 2.88799
 1.86689
 1.60675
 1.64504
 1.82552
 5.81296
 5.80243
 5.62449
 5.68112
 6.90353
 6.9767
 6.77476
 6.68554
 3.10203
 3.3737
 3.20606
 3.09306
 10.6031
 10.4493
 10.5405
 10.64
 3.22129
 2.93232
 7.88693
 7.77458
 7.75197
 7.59564
 3.40955
 3.5031
 3.70091
 3.67594
 9.04134
 8.89262
 8.91886
 8.92649
 7.52148
 7.77079
 7.68324
 7.55429
 8.71018
 8.75763
 8.56323
 9.0562
 9.14054
 9.05055
 9.19623
 9.38594
 9.25684
 9.29527
 9.23108
 5.77731
 5.90292
 5.96304
 3.62565
 3.60212
 3.41708
 3.44429
 6.30681
 6.40694
 6.47483
 9.03942
 9.15351
 9.07052
 6.63409
 6.36524
 6.59727
 6.43936
 5.6091
 5.6492
 5.5896
 5.36404
 7.15923
 6.95821
 6.92981
 7.00585
 7.4138
 7.50119
 7.54866
 7.6505
 7.74764
 7.76976
 7.46443
 7.37568
 7.2654
 7.55207
 3.51844
 3.61605
 3.52967
 3.69534
 4.94872
 5.08413
 4.96722
 4.88374
 7.06248
 6.99802
 7.08769
 6.82745
 9.06043
 9.16948
 9.08521
 6.27652
 6.39362
 6.2777
 6.24842
 8.17112
 8.38157
 8.30334
 8.39851
 11.1118
 11.0697
 11.1401
 11.1811
 7.67346
 7.76425
 7.71492
 7.72956
 3.30057
 3.34519
 3.13965
 3.21727
 7.73173
 7.52475
 7.63874
 7.74063
 9.28543
 9.29442
 9.2309
 9.175
 9.07218
 9.16213
 9.15509
 7.00453
 6.97183
 7.01557
 5.48268
 7.80705
 8.06562
 7.91245
 7.91839
 2.94911
 3.00178
 2.86518
 3.33429
 3.28732
 3.19205
 7.79646
 7.62573
 7.75351
 7.65091
 1.76172
 1.67401
 1.61122
 1.58896
 8.97626
 5.99257
 6.16043
 6.02665
 6.08606
 8.87891
 8.81396
 8.83699
 8.80364
 3.01122
 2.89533
 3.20046
 3.01398
 5.18456
 4.89244
 5.0098
 5.12032
 4.30694
 4.18725
 4.43206
 4.38167
 9.37949
 9.33111
 9.26578
 9.3797
 8.17319
 8.03037
 8.18472
 8.17967
 6.29312
 6.4055
 6.24112
 6.42925
 7.93606
 8.11524
 7.86748
 8.04347
 5.32327
 5.24465
 5.05917
 5.10516
 8.8731
 8.93887
 8.78207
 8.78806
 8.25162
 8.1671
 8.02881
 8.11891
 5.87625
 5.85587
 5.88878
 5.65053
 2.81003
 2.56194
 2.70421
 2.55317
 9.34215
 9.31112
 9.17957
 9.2375
 10.2896
 10.4583
 10.2802
 10.2967
 2.88858
 2.70528
 2.78778
 2.72442
 10.2448
 10.3721
 10.0551
 10.1191
 10.1432
 10.004
 6.66403
 6.56314
 6.72656
 6.84633
 8.18405
 8.08353
 8.08672
 8.24805
 1.18878
 1.10083
 1.12055
 1.26188
 3.06776
 3.0882
 2.82096
 5.20527
 5.22375
 5.05596
 5.28916
 9.12059
 9.07784
 9.23187
 9.02946
 8.30127
 8.33149
 8.38781
 8.4537
 8.35081
 8.2358
 5.19615
 4.8801
 4.98088
 5.11123
 5.51698
 5.51201
 5.68253
 5.46963
 4.91958
 4.93925
 5.13734
 4.92588
 1.98985
 1.95006
 2.33697
 1.86426
 4.49939
 4.48947
 4.69128
 7.58645
 6.31514
 6.36007
 6.30322
 6.44768
 6.23607
 6.44111
 6.38039
 6.32948
 3.82628
 3.93403
 3.94807
 4.05939
 4.52261
 4.64706
 4.63904
 4.44744
 5.83197
 5.99992
 6.00226
 7.88752
 7.99171
 7.83992
 8.09257
 6.38448
 6.08118
 6.26486
 6.22242
 7.73722
 7.63148
 7.82284
 11.5817
 11.5838
 11.6636
 11.5234
 3.65685
 3.32407
 3.45635
 3.5503
 3.83798
 3.48447
 3.67626
 11.4853
 6.18252
 6.13592
 6.20722
 5.97192
 5.88672
 5.84569
 10.019
 9.98543
 10.002
 9.95316
 9.29986
 9.2507
 9.10904
 9.31626
 8.48353
 8.39545
 8.4193
 8.58546
 8.75323
 8.6767
 8.57633
 8.75154
 8.77031
 8.63577
 7.51009
 7.63636
 7.68698
 7.70444
 7.37011
 7.19589
 0.926158
 0.91457
 9.01449
 8.77271
 9.027
 8.87394
 7.06046
 7.11504
 6.99773
 7.19416
 9.41769
 9.37617
 9.61546
 9.54108
 3.45246
 3.32203
 3.66435
 3.5258
 3.85632
 4.02827
 3.86599
 4.04477
 5.36114
 5.22373
 5.19403
 5.28921
 6.35829
 6.29374
 6.03155
 6.15006
 6.52975
 6.63297
 9.05148
 4.7454
 4.53316
 4.57885
 4.53365
 2.09693
 2.14217
 1.82987
 2.20193
 3.70044
 3.47078
 3.74658
 3.65273
 12.6264
 12.6274
 12.6082
 12.5698
 2.27492
 2.2348
 2.32586
 2.31573
 8.5618
 8.55718
 8.71106
 8.47328
 7.8882
 8.07362
 8.00004
 8.13332
 5.0477
 5.02232
 4.91495
 4.87773
 5.03786
 5.08701
 5.18764
 5.13854
 9.08429
 8.83686
 8.96341
 8.90436
 2.57418
 2.48478
 2.59801
 2.56535
 3.39708
 3.27335
 3.33316
 3.20482
 4.71176
 4.67431
 4.53039
 4.52763
 3.09779
 3.25338
 3.17876
 3.0972
 8.19807
 8.03203
 8.03281
 7.96829
 9.07738
 9.04205
 8.99912
 8.95011
 3.5957
 3.75733
 3.82522
 3.7746
 7.21425
 7.23407
 7.29767
 7.44795
 6.93926
 7.02464
 7.06118
 6.95307
 11.8933
 11.8287
 11.766
 11.8215
 2.39836
 2.35209
 2.98937
 2.94699
 3.13496
 2.83299
 9.666
 9.80865
 9.85567
 9.63477
 8.14927
 8.36139
 8.36382
 8.44276
 3.32598
 3.46536
 3.23015
 3.18334
 7.53209
 7.47574
 7.57605
 7.39468
 7.70609
 7.65241
 7.84741
 7.83293
 2.0996
 2.04804
 2.16493
 2.22123
 6.3631
 6.41278
 6.35424
 6.27845
 6.78843
 6.72761
 6.77508
 6.89985
 4.30024
 4.19407
 4.13337
 4.24694
 5.30369
 5.36215
 5.42329
 5.53537
 7.4248
 7.39715
 7.61936
 8.1429
 8.00764
 8.09717
 7.86108
 9.97095
 10.0223
 10.0519
 9.83409
 7.8751
 7.77162
 7.73876
 7.70696
 6.55536
 6.66597
 6.57415
 6.71258
 1.9362
 1.86591
 1.89682
 2.15882
 7.8726
 7.57392
 7.73331
 7.73593
 9.55287
 9.55249
 9.66272
 9.74432
 4.80712
 4.62341
 4.71447
 4.8624
 5.64217
 5.67131
 5.76667
 6.43582
 6.18305
 6.15437
 6.08822
 10.0826
 10.0827
 10.0745
 9.96847
 6.15462
 6.32793
 6.25535
 6.39949
 2.71558
 2.69116
 2.69754
 2.66096
 6.34983
 6.33973
 6.29968
 6.21997
 9.42994
 9.52193
 9.46518
 9.41155
 8.85097
 8.74205
 8.86651
 8.99349
 0.798903
 0.868097
 0.781389
 0.773123
 8.22945
 8.19323
 8.21835
 8.42942
 5.71249
 6.00765
 5.92214
 5.84884
 1.05445
 1.03307
 1.18374
 1.18597
 2.9714
 2.69089
 2.83914
 4.79603
 4.8162
 4.58557
 4.51998
 3.39041
 3.37574
 3.10995
 3.46391
 11.2308
 11.1422
 11.0542
 11.0868
 8.69471
 8.53013
 8.75898
 2.35982
 2.12912
 2.17302
 2.14336
 5.80517
 5.85622
 5.66276
 5.92098
 4.19764
 4.25001
 4.00169
 4.37732
 9.27497
 9.29087
 9.41738
 9.48662
 7.57795
 7.38615
 7.60882
 7.46115
 5.27729
 5.58
 5.48418
 9.90682
 9.8511
 9.77395
 9.78655
 8.93647
 9.15325
 9.05847
 9.1165
 7.7417
 2.3359
 2.22013
 2.29716
 2.14276
 10.9704
 10.969
 11.079
 11.0871
 4.34023
 4.01276
 4.17985
 3.96921
 5.58394
 5.72015
 5.65194
 5.85105
 11.6528
 3.77749
 3.93813
 3.68272
 2.44689
 2.17548
 2.33495
 2.30995
 7.02972
 6.98822
 6.72471
 6.91921
 5.3285
 5.33642
 5.18051
 5.44442
 8.60376
 8.76255
 6.69576
 6.78319
 6.77724
 6.58374
 8.60792
 8.7047
 8.79119
 8.65801
 8.01841
 8.09146
 7.85268
 7.85711
 4.88917
 5.02182
 4.88658
 4.82685
 10.5081
 10.5177
 10.5176
 10.3553
 9.12205
 9.21137
 9.14756
 9.25682
 10.2672
 10.1536
 9.55305
 9.5577
 9.53966
 9.54599
 9.70778
 9.81033
 9.64455
 9.78179
 2.16403
 2.25111
 2.44115
 2.43868
 5.8683
 5.86834
 5.94786
 5.66572
 7.59291
 7.35771
 7.51303
 7.49148
 6.32345
 6.39255
 6.43699
 6.26418
 2.11604
 2.14678
 9.97066
 10.0443
 10.0278
 9.96743
 2.16215
 2.09503
 2.266
 10.8077
 10.8562
 10.813
 10.8827
 2.64832
 2.87144
 2.70142
 2.85564
 7.88139
 8.00328
 7.82984
 8.00777
 7.14593
 7.11332
 7.19765
 2.22963
 2.34998
 2.30912
 2.19214
 6.02337
 6.1982
 5.9943
 6.15038
 7.02423
 6.93884
 6.7773
 6.94366
 7.80743
 7.89966
 7.41107
 7.70538
 7.48638
 7.60593
 5.6248
 5.82552
 5.73275
 1.96661
 2.28086
 2.31154
 2.06945
 7.23404
 7.11703
 7.2509
 7.2071
 7.52554
 7.6232
 8.15418
 8.31992
 8.36155
 8.21583
 10.6729
 10.6524
 10.5266
 6.10115
 6.06062
 6.29862
 6.30522
 2.31088
 2.29994
 2.27779
 10.2493
 10.3416
 10.2477
 7.14053
 7.27103
 7.18206
 7.34453
 5.15075
 5.15201
 5.37892
 5.29947
 11.124
 11.1734
 11.135
 11.1128
 3.4903
 3.42865
 3.55112
 3.58177
 5.02685
 5.17184
 5.14672
 5.21566
 3.67216
 3.60964
 3.7474
 2.40568
 2.3592
 2.06061
 2.24224
 6.50787
 6.72259
 6.53361
 6.50972
 2.82913
 2.88681
 2.9561
 2.99458
 7.90863
 7.96588
 7.85351
 8.04367
 2.05989
 5.4941
 6.78954
 6.87113
 6.70601
 6.92299
 5.59996
 5.64428
 5.81009
 5.83838
 4.55432
 4.49892
 4.61943
 4.79317
 5.60571
 5.68925
 5.47366
 5.56653
 4.21293
 4.34594
 4.16721
 4.19866
 6.77783
 6.88838
 6.81295
 6.66336
 7.01205
 6.94953
 6.91714
 6.83845
 7.57423
 7.61373
 7.67657
 7.46868
 6.86601
 6.87383
 7.03226
 9.28586
 9.2558
 9.28565
 9.17015
 6.63922
 5.18664
 4.93995
 4.92123
 5.0539
 2.43327
 2.41554
 2.66845
 8.04039
 8.27823
 8.17887
 8.25086
 6.37825
 6.15114
 6.21266
 5.52563
 5.5515
 5.68893
 5.70692
 5.11411
 5.04631
 4.85335
 4.80252
 3.18239
 3.07259
 2.94302
 3.11495
 8.70339
 8.73738
 8.63286
 8.8755
 6.22175
 6.34713
 6.38662
 6.45118
 6.89605
 7.0009
 7.11428
 6.91497
 7.09701
 7.21145
 7.23295
 7.35022
 6.73042
 6.79892
 6.69339
 6.88705
 4.51344
 4.84882
 4.46334
 4.6941
 7.05739
 7.33822
 7.2321
 7.19878
 10.0114
 10.0068
 10.0132
 9.95795
 10.1393
 10.043
 10.0619
 6.72101
 6.69222
 6.53626
 6.51413
 6.62611
 6.54967
 6.48076
 6.42417
 6.91196
 7.06456
 6.81107
 6.81224
 2.61773
 2.59145
 2.85835
 2.82391
 4.49811
 4.69318
 4.70366
 4.48426
 8.30856
 8.20655
 8.22986
 8.18721
 9.17053
 9.00031
 9.02593
 9.24043
 3.36904
 3.41945
 3.54244
 3.35922
 10.9166
 11.0006
 10.9727
 10.8412
 7.72755
 7.55898
 7.65519
 7.67608
 9.52396
 9.42367
 9.44037
 8.77528
 8.6803
 8.66209
 8.54381
 4.8515
 4.90982
 4.75417
 5.05589
 8.6932
 8.91589
 8.83246
 8.77082
 10.0344
 9.74803
 9.94145
 11.1022
 10.9823
 10.9084
 10.9582
 1.84563
 1.77325
 1.66825
 1.49669
 8.5471
 8.65348
 8.56494
 8.50552
 5.81084
 6.0697
 6.02354
 5.85983
 2.83324
 2.97632
 3.1433
 2.99991
 3.98257
 3.71875
 4.07442
 3.91857
 8.40394
 8.37565
 8.48502
 8.4147
 9.6233
 9.77476
 9.89846
 9.73754
 6.217
 6.10151
 6.29005
 6.18748
 9.56772
 9.37512
 7.39729
 7.65354
 7.60222
 7.4666
 7.18282
 7.19796
 7.30051
 7.12721
 7.39464
 7.37914
 7.46716
 9.24213
 9.18886
 9.24162
 5.71355
 5.70861
 5.64631
 5.58894
 6.0265
 6.04973
 6.18804
 5.87562
 8.39161
 8.20356
 8.2875
 8.37427
 4.41164
 4.19511
 4.49251
 4.39337
 6.77839
 7.00128
 6.88052
 6.70731
 9.4255
 9.42669
 9.45829
 9.43167
 7.75469
 7.63532
 7.74858
 5.93449
 5.93891
 6.10567
 5.95811
 6.57504
 6.46853
 6.35118
 1.86686
 1.95312
 2.00175
 2.05314
 10.3121
 10.3797
 10.298
 10.4887
 7.96676
 7.79241
 7.81625
 7.92537
 8.06114
 8.09995
 8.24019
 8.05598
 1.67765
 1.75075
 1.50381
 1.34047
 4.28152
 4.17358
 4.19365
 8.62726
 8.66204
 8.72721
 8.64626
 4.0106
 4.24765
 4.14688
 8.54209
 8.53106
 8.64824
 8.61434
 12.0792
 11.9983
 12.0674
 11.9974
 2.85663
 2.7794
 2.62872
 2.89371
 9.21499
 9.26099
 9.32967
 9.45709
 2.16859
 2.23578
 2.26809
 2.21248
 8.84135
 8.65396
 8.79691
 8.71842
 12.0244
 12.1689
 12.0482
 12.0481
 9.88214
 10.0318
 9.90414
 9.8307
 9.15647
 9.04058
 8.93991
 9.1828
 6.75299
 7.00926
 9.19818
 9.16901
 9.40677
 9.37195
 5.75502
 5.85278
 5.9133
 6.01904
 6.97221
 6.9692
 7.06723
 6.82759
 2.97221
 3.23076
 2.79802
 2.75542
 3.42501
 3.53886
 3.38142
 3.31777
 3.88892
 4.0338
 3.91514
 4.07698
 3.2675
 3.22435
 3.17585
 3.31354
 5.07957
 5.13911
 4.9546
 5.09927
 3.80094
 3.5834
 3.64722
 3.74459
 10.1709
 10.3534
 10.3768
 10.1518
 3.12758
 3.00252
 3.05763
 3.08799
 7.48058
 7.61656
 7.69931
 7.62732
 4.29024
 4.61277
 4.52288
 3.39155
 3.19797
 3.21314
 3.2848
 9.13809
 9.30759
 9.32347
 9.26063
 9.93924
 9.98781
 10.0617
 10.0223
 4.71235
 4.74834
 4.86114
 4.55858
 7.2338
 7.25731
 7.29864
 7.4008
 5.10843
 5.2441
 5.1227
 5.152
 5.14447
 5.14698
 4.78458
 7.68628
 7.73504
 7.8775
 5.23181
 5.15748
 6.25745
 6.49743
 1.96701
 1.83998
 1.8487
 1.95181
 6.43653
 6.3558
 6.45832
 6.25314
 5.22674
 5.32158
 5.07068
 5.31676
 5.9625
 5.8566
 5.94412
 5.78012
 3.83424
 3.97984
 3.87902
 4.00398
 4.02742
 7.27798
 7.2514
 7.4259
 7.43128
 9.47957
 9.47926
 9.47671
 9.46449
 5.18038
 5.37726
 5.17516
 5.29237
 5.09757
 5.21126
 5.26623
 5.05161
 11.762
 11.6803
 11.6342
 11.5411
 6.71661
 6.56332
 6.64317
 6.75158
 6.80555
 6.96013
 7.0243
 6.87169
 5.3673
 5.51041
 9.19807
 9.15691
 9.09162
 9.17892
 8.02634
 7.93181
 7.98693
 8.08427
 8.95527
 9.02433
 9.08327
 9.06817
 8.21521
 8.09973
 8.12303
 8.24289
 8.88877
 8.90198
 8.97245
 8.87003
 4.2373
 4.32713
 4.25387
 4.12332
 3.10301
 3.12252
 3.32877
 3.19764
 8.46074
 8.53284
 8.62539
 8.45173
 6.72761
 6.88941
 6.74371
 6.80982
 3.89179
 4.12929
 3.95736
 4.07068
 7.43136
 7.5186
 7.53723
 7.33158
 8.4785
 8.36438
 9.77028
 9.70537
 9.66772
 9.78509
 7.08354
 7.14216
 7.23521
 7.31128
 3.73809
 3.83348
 3.82622
 3.58409
 2.43957
 2.58195
 2.53566
 2.41349
 11.3959
 11.3895
 7.42786
 7.2828
 7.22521
 7.18412
 7.68088
 7.92274
 7.76794
 7.76141
 7.89763
 7.95148
 8.81009
 8.72289
 8.74916
 8.66799
 7.00017
 6.84039
 6.76816
 10.1363
 10.0439
 10.0364
 9.96413
 3.26501
 3.10786
 3.40339
 3.24068
 2.62416
 2.63501
 2.62715
 1.73721
 1.90795
 2.08201
 1.9262
 6.08256
 5.80357
 5.91111
 5.87164
 6.75149
 6.53219
 6.84098
 6.64761
 4.30659
 4.01065
 3.9003
 4.08209
 5.33718
 5.36031
 5.17818
 5.34485
 5.69916
 5.52551
 5.61533
 6.45589
 6.42265
 6.52066
 6.29951
 4.81597
 4.4479
 4.57823
 4.77766
 7.3563
 7.43739
 7.33905
 7.31267
 6.59174
 6.64147
 6.4451
 6.69862
 5.30368
 5.3479
 5.44121
 5.25862
 6.73633
 6.86348
 6.91631
 6.71751
 11.9773
 12.0151
 11.8909
 11.8939
 8.71561
 8.78035
 8.7782
 8.88766
 4.83692
 4.83263
 4.62163
 4.59728
 8.72938
 8.69584
 8.88556
 8.94488
 9.16486
 9.36666
 9.15871
 9.03172
 3.52316
 3.55492
 3.41678
 3.68895
 3.73743
 3.94905
 3.75419
 3.80273
 3.04453
 3.23136
 3.03216
 2.9913
 4.36807
 4.37888
 4.1962
 4.26742
 7.53731
 7.56294
 7.67679
 7.56206
 8.68767
 8.74366
 8.61633
 8.77069
 5.12042
 5.41013
 5.10622
 5.33778
 8.61154
 8.56182
 8.542
 8.55024
 9.74658
 9.70886
 9.66675
 9.59449
 6.92856
 6.789
 6.90077
 6.76504
 7.86729
 7.97329
 8.09628
 7.7211
 7.66977
 7.46216
 7.63516
 9.59075
 9.67791
 9.80777
 9.68396
 8.50585
 8.52972
 8.60038
 8.55587
 4.99255
 4.87102
 4.97373
 4.8851
 6.5148
 6.3593
 6.33027
 1.72942
 1.93615
 1.9119
 1.78682
 2.63475
 2.44973
 2.30399
 2.50913
 7.9094
 7.78526
 7.97596
 7.78864
 6.09339
 5.95357
 9.30851
 9.31875
 9.47578
 9.25588
 6.47013
 6.63302
 6.72276
 6.5798
 2.9702
 2.91056
 3.1118
 2.94226
 8.6414
 8.60837
 8.54733
 7.43046
 7.40142
 7.36198
 7.57516
 7.80872
 7.57728
 7.61323
 7.66774
 6.84552
 6.66165
 6.64059
 6.88491
 6.99674
 6.89576
 6.77396
 6.91858
 6.42266
 6.31168
 6.44262
 6.27184
 7.17973
 7.05364
 4.17437
 4.27203
 3.94779
 4.20596
 7.03516
 7.20489
 7.14459
 7.03761
 5.6643
 5.94238
 5.83838
 7.10474
 6.93925
 7.04517
 6.9511
 5.76121
 5.85395
 5.94964
 5.81125
 8.76382
 8.92093
 8.80135
 8.9976
 7.30755
 7.33741
 7.14631
 6.1052
 6.08499
 5.85466
 6.21311
 7.02354
 7.04998
 6.92738
 8.96318
 8.90854
 9.05304
 5.5245
 5.5467
 5.54843
 5.75172
 6.74218
 6.61163
 6.59329
 11.4177
 11.381
 11.3234
 11.5345
 5.36252
 5.49442
 5.58625
 5.34589
 7.73399
 7.93488
 7.91017
 7.95406
 3.99066
 3.99527
 3.92328
 3.78952
 3.61204
 3.74888
 3.50991
 3.54551
 9.10736
 8.90472
 9.15039
 9.11297
 6.25397
 6.38908
 6.48058
 8.13694
 8.31095
 8.19369
 8.1961
 3.32453
 3.63173
 3.46639
 6.65464
 6.50497
 6.61193
 6.4411
 5.09617
 5.01962
 5.02027
 5.0585
 3.02785
 2.93724
 2.88391
 3.0506
 12.4379
 12.5336
 12.5095
 12.4373
 8.34399
 8.31388
 8.21666
 8.35607
 6.23784
 5.92486
 6.04194
 5.97166
 9.77321
 9.88999
 9.91793
 6.72716
 6.57057
 6.62381
 6.76264
 2.5985
 5.3384
 5.46432
 5.69592
 5.50193
 3.75147
 3.75791
 3.7111
 3.63416
 4.38614
 4.47483
 4.51208
 4.37883
 6.211
 6.27855
 6.49575
 6.70799
 6.71216
 6.69357
 11.1233
 11.0008
 11.114
 11.038
 8.071
 8.13994
 8.20571
 8.30901
 8.29067
 8.17196
 8.27904
 2.64872
 2.26174
 2.65097
 2.66584
 6.85339
 6.86849
 6.65767
 6.67371
 6.12965
 6.20639
 6.35092
 6.22794
 3.45665
 3.58734
 3.35607
 3.59224
 6.61167
 6.65543
 6.46349
 6.63752
 10.2346
 10.1807
 10.3149
 10.2687
 7.04119
 7.10355
 7.00325
 7.07236
 8.39049
 8.38542
 8.36051
 8.25371
 8.69933
 8.82012
 8.79344
 8.73176
 9.5818
 9.53059
 9.58833
 9.58853
 10.5018
 10.5657
 10.5946
 10.4168
 1.68174
 1.86957
 1.78213
 1.84081
 10.8776
 10.8274
 10.9509
 10.7494
 6.86462
 6.97368
 6.8514
 7.0143
 1.94189
 1.97479
 2.1067
 2.08068
 7.58888
 7.6159
 7.51547
 7.45458
 9.4955
 3.04968
 3.17065
 3.12855
 2.9204
 8.82734
 10.3006
 10.1372
 10.1109
 10.2606
 5.9523
 5.73274
 4.26424
 4.50749
 4.23538
 4.47352
 3.59858
 3.62577
 3.48875
 3.5119
 1.55395
 1.76613
 1.54644
 4.22793
 3.99081
 4.00169
 4.01773
 7.45914
 2.31202
 5.14769
 5.21742
 5.27995
 2.637
 2.48277
 2.45018
 2.52936
 7.51991
 7.52412
 7.53584
 7.64412
 8.32158
 8.27814
 8.39302
 8.46485
 5.19582
 5.32585
 5.27156
 4.99884
 2.52679
 2.35098
 2.5763
 2.57976
 3.30496
 3.36163
 3.24162
 3.37728
 5.66746
 5.37762
 5.41278
 10.5161
 10.6025
 10.3428
 10.5107
 12.3228
 12.1921
 12.263
 12.1966
 9.57771
 9.7594
 9.7788
 9.68301
 6.33004
 6.17448
 6.36444
 10.1177
 9.98331
 10.0371
 10.1489
 3.92146
 3.98146
 3.74917
 4.04445
 3.99854
 4.12871
 4.04441
 8.75614
 8.82072
 4.9283
 4.75332
 1.06915
 1.22625
 1.02792
 1.78665
 1.71226
 1.74498
 1.63711
 7.19032
 7.34389
 7.09426
 7.21547
 8.12102
 8.15488
 8.23411
 8.05113
 6.99803
 7.00454
 6.83241
 6.86208
 2.2402
 2.25573
 2.20415
 2.25797
 4.99328
 4.90181
 4.96442
 5.08436
 9.56913
 9.57805
 9.57018
 9.4536
 4.87908
 4.81922
 4.96162
 4.74634
 6.16481
 6.12253
 6.28482
 6.08415
 5.2277
 5.08799
 5.11213
 12.6839
 12.6523
 12.6359
 8.09784
 8.18519
 7.4971
 7.49223
 7.64511
 7.41183
 4.51587
 4.31305
 4.44945
 4.51373
 4.87521
 4.78801
 4.55423
 4.75532
 4.7397
 4.84334
 4.52534
 11.2481
 11.2577
 9.668
 9.68589
 9.5998
 9.65556
 6.14017
 11.3535
 11.4786
 11.4261
 11.4188
 8.43814
 8.24952
 8.40001
 8.42287
 7.3165
 7.39416
 10.4619
 10.2235
 10.2449
 10.3675
 1.66038
 1.42309
 1.5236
 1.61058
 2.4448
 2.38408
 2.48198
 2.20316
 8.98784
 8.71309
 8.91493
 8.77058
 8.128
 8.2217
 7.91372
 7.98297
 8.09913
 8.1967
 8.10086
 4.61761
 4.50758
 4.77423
 4.61095
 9.49294
 9.39892
 9.3309
 9.30866
 6.86477
 6.78607
 6.8912
 5.58415
 5.54811
 5.45828
 5.31581
 8.19227
 8.16121
 8.05109
 8.1257
 8.65814
 8.5021
 8.40875
 8.57563
 8.7151
 8.82647
 8.79748
 8.67131
 7.58375
 7.51368
 7.38291
 7.52181
 5.39391
 5.53392
 8.40008
 8.36614
 8.3185
 8.45625
 1.61155
 1.95767
 1.9142
 1.8925
 8.92602
 8.8432
 8.92342
 8.82331
 10.0876
 10.1272
 9.96443
 10.047
 6.0805
 6.03057
 10.8384
 10.8006
 10.93
 10.7668
 7.83145
 7.73159
 7.90519
 2.72332
 2.80044
 2.65192
 2.62246
 10.6638
 10.72
 10.6761
 8.75028
 8.75714
 8.61184
 8.66415
 10.3617
 8.78908
 8.85629
 8.82934
 8.98862
 6.65047
 6.76553
 6.63079
 6.65475
 7.32863
 7.29024
 7.1974
 7.34015
 2.44337
 2.19309
 6.41753
 6.32317
 6.36221
 6.41621
 8.8688
 9.04873
 8.8431
 9.06001
 8.02186
 7.68697
 7.86133
 8.01364
 3.08349
 3.24139
 3.22466
 3.21949
 7.33136
 7.26638
 7.09581
 7.1531
 6.09641
 3.69904
 3.57097
 3.7559
 7.95964
 7.91972
 8.07965
 7.85504
 4.99702
 5.05451
 4.95182
 5.19194
 7.6789
 7.79473
 7.79517
 7.60813
 2.44174
 2.6675
 2.70531
 2.58169
 1.12529
 1.0165
 1.1849
 8.74395
 8.63158
 8.48295
 8.59057
 5.7094
 5.61517
 5.8381
 5.76129
 5.0444
 4.98886
 4.85886
 4.77187
 8.1579
 8.14791
 8.66693
 8.73754
 8.79004
 8.61721
 7.62768
 7.37226
 5.81973
 5.75664
 5.84844
 5.91424
 5.44077
 5.36709
 5.225
 5.44852
 7.44924
 7.38071
 7.24114
 7.3228
 6.00143
 5.98344
 5.97594
 3.29073
 3.54039
 3.60174
 3.48607
 4.30056
 4.36317
 4.24046
 7.49076
 7.23495
 7.48811
 7.3572
 8.52382
 8.71605
 8.81048
 8.60053
 5.036
 5.25132
 5.24097
 5.095
 7.32549
 7.3418
 7.52196
 9.51052
 9.53074
 9.50317
 9.52797
 8.17708
 8.19743
 8.1226
 8.06599
 4.14155
 4.17608
 4.32174
 1.72486
 1.96672
 1.93876
 5.21361
 5.12051
 5.11007
 8.18786
 8.3379
 8.13012
 8.28525
 1.96544
 1.93785
 1.98073
 1.84766
 5.52123
 5.62261
 5.51763
 5.38093
 3.82836
 3.73339
 3.44219
 3.50108
 4.12987
 4.02824
 4.13308
 4.11269
 9.97466
 10.0835
 10.0863
 7.57358
 7.5331
 7.64947
 7.51566
 3.91959
 3.82041
 4.00506
 4.00071
 7.10918
 7.02729
 7.001
 6.81664
 4.85074
 4.84938
 4.89705
 5.11228
 2.78386
 2.64797
 9.60297
 9.49288
 9.51337
 9.44326
 4.50205
 4.61394
 4.3489
 4.55576
 7.60792
 7.68514
 7.73709
 7.56408
 5.22588
 5.4512
 2.11114
 2.11956
 2.29132
 2.02658
 3.84144
 3.59341
 3.91975
 3.48437
 1.76008
 1.74625
 1.58031
 1.46357
 4.65386
 4.69072
 4.58174
 5.18244
 4.93016
 4.97969
 5.04622
 4.89904
 5.04273
 4.98254
 5.18678
 8.43326
 8.388
 8.53883
 8.58056
 10.2714
 10.3376
 10.1774
 6.71815
 6.69035
 6.6842
 3.36174
 3.5573
 3.43637
 3.61076
 7.42116
 7.30944
 7.16524
 7.29973
 8.91534
 9.09375
 9.05942
 8.90675
 6.66338
 6.83378
 6.92331
 6.92288
 7.71164
 7.49
 7.6987
 2.13182
 2.04847
 2.30557
 2.29765
 9.4406
 9.38685
 9.10937
 9.02335
 9.01054
 4.88887
 4.81266
 5.00629
 4.7005
 6.89553
 6.71111
 6.70208
 6.79025
 9.14445
 9.11649
 8.99291
 9.11866
 6.10792
 6.41487
 6.40357
 6.20495
 7.94283
 8.05975
 7.85198
 7.86181
 3.13485
 3.07893
 2.79062
 8.17434
 8.20439
 8.06629
 8.07968
 6.18682
 6.05657
 9.21697
 9.03286
 9.08752
 9.18715
 8.98392
 9.12098
 9.05454
 9.11258
 2.84558
 2.97708
 8.75536
 8.61494
 8.69381
 8.81111
 6.6461
 6.82029
 6.72304
 6.64367
 7.70049
 10.1222
 10.2462
 10.2068
 6.03336
 6.06545
 6.00529
 6.16346
 2.82343
 2.8021
 2.95262
 2.71678
 9.92758
 9.91009
 9.84885
 9.97545
 9.01857
 8.90032
 9.05188
 9.02445
 5.10911
 5.01278
 5.0059
 9.76768
 9.75305
 9.67111
 9.63379
 1.6935
 1.90785
 1.77199
 1.65362
 9.5591
 9.45831
 9.4211
 9.62156
 5.42204
 5.62096
 5.47223
 5.27077
 7.65415
 7.55338
 7.58855
 7.7015
 9.1063
 9.05081
 9.07941
 7.85219
 7.66556
 7.86722
 7.7137
 9.26595
 9.40872
 9.31495
 9.3149
 8.88152
 8.98237
 8.9072
 4.44466
 4.6208
 4.39785
 4.55671
 4.75727
 6.92138
 6.56539
 6.79347
 6.78594
 2.64898
 2.72708
 2.84953
 2.72546
 6.03681
 5.83871
 6.14915
 5.91274
 5.36407
 5.22223
 5.36741
 5.42383
 9.05401
 9.11968
 8.95639
 8.70497
 8.74952
 5.61748
 5.84779
 5.67713
 5.58816
 2.81713
 2.53053
 6.35658
 6.30752
 6.47478
 6.26413
 9.26176
 9.29793
 9.16504
 3.24511
 3.13497
 3.31534
 3.24332
 6.41341
 6.64382
 6.57295
 6.52858
 9.12652
 9.20984
 9.12621
 9.06625
 6.84213
 6.87052
 6.62126
 6.79552
 5.53996
 5.22648
 9.82407
 9.8955
 9.85726
 9.93815
 8.76394
 8.52181
 8.40826
 8.49175
 8.3682
 8.40582
 8.43517
 8.61865
 8.55554
 8.45865
 6.53819
 6.54161
 6.5811
 5.69628
 5.77425
 5.84177
 5.92615
 8.5163
 8.53495
 8.5038
 8.53134
 7.64446
 7.66757
 6.13075
 6.27046
 6.2032
 6.34072
 6.16241
 6.13632
 6.95047
 6.74758
 6.72409
 6.89811
 10.7831
 10.6294
 10.6576
 10.5832
 6.20399
 9.26782
 9.12809
 9.22678
 9.26011
 2.21824
 2.03465
 2.24234
 4.65694
 4.72194
 4.83074
 4.62722
 6.91659
 6.81426
 6.87956
 7.12981
 6.55836
 6.41372
 6.62194
 8.80776
 8.69066
 8.75495
 8.83925
 2.98387
 2.82373
 3.20376
 2.93109
 5.50795
 5.57075
 5.4089
 5.46389
 3.01397
 2.94745
 3.24987
 3.08917
 9.41768
 9.39557
 9.5316
 9.52367
 8.4759
 8.35782
 4.54732
 4.62497
 4.72372
 4.60448
 2.70519
 2.68407
 2.64616
 2.77379
 1.1532
 1.06603
 1.22658
 0.997436
 2.90351
 3.05559
 2.88243
 5.53947
 5.39976
 5.5838
 5.47336
 3.17333
 3.09077
 2.99632
 3.07048
 9.53636
 9.40935
 9.29563
 9.4354
 3.77436
 3.64425
 3.60106
 5.55445
 5.61016
 5.66042
 5.65943
 9.29078
 9.35536
 9.28837
 9.39601
 5.11002
 4.90593
 5.03307
 5.0173
 5.94122
 5.79992
 5.74542
 5.91059
 8.22497
 8.14628
 8.08084
 7.97131
 9.64187
 9.61585
 9.78649
 9.77528
 7.2483
 7.19399
 7.05295
 7.21584
 11.0611
 11.022
 10.8528
 10.9303
 8.93883
 8.84361
 8.95516
 8.62012
 8.77715
 8.77886
 8.81727
 11.5787
 11.5246
 11.6655
 11.5224
 3.32546
 3.47136
 3.45591
 4.05491
 4.02922
 3.86299
 3.90324
 8.49315
 8.25773
 8.3323
 10.2329
 10.1993
 10.2686
 9.56208
 9.70008
 9.55964
 9.54929
 8.41491
 8.43665
 8.30501
 8.54371
 5.44279
 5.1992
 5.33396
 5.36481
 10.7404
 10.7388
 10.64
 10.7826
 5.80079
 6.08499
 6.12164
 5.88992
 4.04876
 3.89384
 4.196
 4.04293
 6.19065
 6.20065
 5.93163
 6.0415
 7.30935
 7.41911
 7.17477
 9.17957
 9.19383
 9.17959
 9.08955
 2.95911
 2.7893
 2.73252
 2.79023
 3.79865
 3.68404
 3.81389
 3.93269
 8.30673
 8.18348
 8.26122
 8.37681
 2.46559
 2.35859
 2.25954
 2.86229
 2.56618
 2.81134
 2.75329
 2.57564
 2.53929
 2.71257
 2.65209
 10.5686
 10.6045
 11.5869
 11.564
 11.642
 11.4804
 5.57621
 5.65669
 5.78107
 6.85772
 6.98077
 6.71708
 6.93666
 6.59844
 6.41088
 6.47136
 6.57501
 12.5891
 7.40823
 5.77905
 5.60553
 3.88139
 3.76216
 3.82291
 3.81915
 10.2395
 7.79662
 7.64968
 7.80046
 0.943287
 1.06148
 1.05513
 1.04977
 6.53288
 6.66296
 6.53503
 6.38713
 2.25519
 2.38013
 2.26741
 2.44264
 7.2987
 7.11639
 7.42669
 7.75732
 7.56906
 7.68515
 3.37943
 3.30589
 3.54609
 3.35643
 5.83481
 5.92327
 6.05117
 6.14573
 9.49285
 9.59672
 9.39293
 9.43644
 3.84042
 3.50956
 3.63507
 2.33622
 2.02912
 2.02684
 2.32308
 3.91419
 3.95574
 4.12185
 3.92658
 8.50191
 8.52525
 8.26261
 8.53958
 8.17115
 8.28261
 8.26026
 8.27307
 3.20337
 3.05241
 3.06673
 3.03633
 7.4481
 7.44593
 7.59662
 4.38707
 4.35693
 4.43966
 4.5448
 9.17345
 9.03809
 9.25119
 9.23721
 5.65363
 5.56438
 5.80814
 5.70792
 9.33004
 9.2298
 9.32374
 9.312
 6.23376
 6.0907
 6.23635
 6.16629
 4.1617
 4.1269
 3.94859
 4.31206
 9.62458
 9.66848
 9.5601
 6.39741
 6.24225
 3.65516
 3.75557
 3.76544
 3.89409
 7.43884
 7.53839
 7.55584
 9.43424
 9.56984
 9.60657
 9.53889
 5.18167
 5.1082
 5.20638
 5.04037
 5.51258
 5.5398
 5.2469
 5.46407
 12.1214
 12.1276
 12.0049
 12.0814
 6.69414
 6.88073
 6.76307
 11.2648
 11.161
 11.1258
 6.541
 6.56408
 6.6597
 6.58779
 6.77922
 9.37653
 9.34948
 9.56219
 9.49655
 7.22582
 7.07764
 7.00509
 3.8708
 3.87075
 3.88154
 3.96195
 6.98826
 6.90465
 6.81271
 6.81565
 6.82107
 6.88885
 6.92752
 1.23591
 1.34164
 1.37389
 1.52804
 8.65291
 8.35679
 8.42886
 8.52555
 9.81419
 9.80702
 9.7488
 9.76002
 7.8163
 7.8746
 7.61807
 7.79104
 3.40741
 3.30054
 3.27284
 3.5559
 12.1989
 12.0907
 12.1751
 12.025
 4.48498
 4.69137
 4.55487
 4.54024
 9.80686
 9.90802
 9.84687
 9.86356
 3.76026
 4.18819
 4.08272
 3.89243
 4.26712
 4.3854
 4.48551
 4.34994
 4.48319
 4.3812
 8.47099
 8.56728
 8.57733
 8.49392
 2.97976
 2.97179
 2.98027
 4.49329
 4.78208
 4.65251
 4.44147
 8.74579
 8.58343
 8.69072
 8.84061
 7.82511
 7.89167
 7.68575
 12.6952
 12.6924
 12.7364
 12.6936
 6.78453
 7.0235
 6.77958
 2.99839
 2.86027
 3.03235
 3.08827
 4.04934
 4.18767
 3.1998
 2.9998
 2.84781
 3.13401
 4.75866
 4.73986
 9.88157
 9.82933
 10.0041
 9.73745
 4.28965
 4.33503
 4.31099
 4.53619
 6.51429
 6.41103
 7.96432
 7.84028
 7.87782
 7.94665
 4.1856
 4.09031
 4.01884
 4.0956
 8.37961
 8.64894
 8.63615
 8.43578
 3.1289
 3.1516
 2.9551
 2.6824
 5.89548
 5.84579
 6.05318
 10.1063
 10.1729
 10.1901
 10.0996
 5.50007
 5.54143
 5.62654
 5.72817
 8.64005
 8.78597
 8.82813
 8.88958
 8.50317
 8.68199
 8.55989
 12.313
 12.3208
 12.3198
 12.2474
 9.6141
 9.39268
 9.33908
 9.53833
 3.99906
 4.10545
 3.90941
 4.11591
 6.87012
 6.82069
 6.98885
 7.65344
 9.15176
 9.07374
 9.1258
 9.02021
 7.58571
 7.71744
 7.59942
 7.54046
 4.90253
 4.63412
 4.60129
 4.84606
 9.20157
 9.19889
 8.93282
 10.2824
 5.94777
 5.86844
 6.0745
 5.78168
 9.0914
 8.88196
 11.3967
 11.4933
 9.12617
 9.01046
 9.1288
 9.29965
 4.81519
 4.6537
 3.6106
 3.6217
 3.54046
 3.65371
 7.98258
 7.84193
 7.82003
 7.85082
 2.3683
 2.32543
 2.16432
 2.32066
 7.92199
 7.90094
 8.21826
 8.19868
 4.45726
 4.43142
 4.53014
 4.77338
 8.74132
 8.73287
 8.65685
 8.64865
 4.26854
 4.15185
 4.39249
 4.23879
 7.35932
 7.21762
 2.72187
 2.83289
 5.21568
 5.08007
 5.27862
 5.03259
 5.1925
 5.28009
 5.26867
 5.06547
 6.27684
 6.38965
 6.22348
 6.21619
 4.286
 4.52447
 4.27077
 4.10736
 8.79639
 8.94797
 8.85725
 8.86628
 2.86686
 2.95888
 2.98218
 2.58796
 2.5149
 2.71662
 2.58178
 9.27197
 9.10391
 9.10727
 9.18217
 4.82503
 5.05155
 5.02003
 4.92374
 9.2789
 9.15067
 9.13745
 9.00886
 6.54579
 6.98749
 6.75314
 6.74938
 6.97625
 3.76528
 3.73392
 3.73087
 3.96376
 11.0386
 11.1376
 11.0684
 10.9507
 4.94048
 4.82621
 4.68784
 4.85832
 6.62727
 6.46637
 6.79809
 6.66738
 4.82772
 4.96794
 4.99531
 5.00376
 5.29466
 1.29166
 1.41566
 1.68675
 1.54689
 4.15203
 4.14202
 4.43636
 4.3616
 11.3598
 11.2945
 11.2002
 11.3797
 7.39745
 7.58236
 7.65905
 7.49837
 8.18951
 6.48164
 6.5043
 6.44805
 6.30973
 3.13376
 3.13734
 3.33123
 3.42977
 3.76634
 3.78825
 3.5774
 3.15164
 3.58776
 3.37876
 3.47007
 12.1531
 12.0922
 4.41655
 4.4405
 4.42558
 8.31643
 8.32476
 8.36879
 8.18671
 4.66028
 4.75329
 4.62818
 4.79684
 6.26936
 5.11779
 5.30422
 5.10964
 5.16526
 2.60801
 2.94813
 2.85
 2.62916
 5.15398
 5.01788
 4.76685
 5.10775
 7.46343
 7.40109
 7.63274
 7.27785
 9.32546
 9.29675
 9.372
 9.26481
 1.57688
 1.82083
 1.51681
 1.60835
 4.7605
 4.84437
 4.68102
 4.91275
 1.86723
 1.96021
 1.92017
 1.76372
 8.28362
 8.50634
 8.28379
 8.2547
 6.30011
 6.39177
 2.68944
 2.40239
 2.71201
 2.56121
 6.29272
 6.24257
 6.2453
 6.0714
 6.92645
 6.72913
 6.40532
 6.32038
 6.20803
 6.40564
 3.64403
 3.6721
 3.73982
 3.5234
 7.92676
 8.12603
 8.21487
 8.03818
 9.95562
 9.84079
 9.93464
 9.93396
 9.50644
 9.55408
 9.56008
 9.56239
 8.08489
 7.99474
 7.98453
 8.13219
 7.28741
 7.5155
 7.3584
 7.16448
 7.41933
 7.29682
 7.22458
 6.59681
 6.7162
 6.77706
 6.63513
 10.022
 10.0571
 9.99657
 7.61026
 7.70744
 7.50768
 7.54368
 6.3117
 6.14608
 6.16375
 6.3811
 8.47162
 8.62425
 8.39588
 8.63999
 8.15017
 8.01071
 8.04587
 8.05958
 6.03384
 6.02648
 5.88991
 5.76287
 6.81873
 6.96821
 6.83215
 6.87458
 5.00802
 5.09467
 5.01145
 5.08221
 9.57645
 9.53567
 9.4836
 3.95343
 4.05725
 3.81426
 4.03449
 8.46531
 8.31799
 8.42491
 8.53555
 7.31487
 7.40681
 7.48518
 7.26074
 6.98604
 6.83513
 6.78904
 5.66778
 5.68039
 5.61209
 5.47223
 5.24836
 5.22611
 5.10338
 5.32567
 4.93135
 4.88634
 4.73109
 3.55021
 3.49114
 3.49208
 5.33379
 5.41786
 5.54423
 5.4145
 3.34554
 3.24804
 3.49319
 2.93419
 2.92297
 2.97884
 3.15335
 6.86821
 7.18686
 7.0067
 7.08522
 8.20038
 8.31584
 8.16886
 8.30272
 8.88576
 3.52574
 3.61642
 3.30055
 3.52207
 3.36848
 3.72752
 12.3949
 12.4558
 12.3866
 12.3409
 4.38626
 4.54766
 7.27641
 7.44583
 7.24404
 1.85983
 1.65743
 5.63134
 5.90382
 5.82508
 5.7786
 7.41013
 7.3224
 7.31835
 4.34401
 3.99018
 4.19606
 4.08342
 8.23112
 8.18951
 8.30379
 8.12931
 11.6073
 11.498
 11.5249
 11.6409
 5.9198
 5.88499
 5.96887
 5.73113
 3.66192
 3.30457
 3.64766
 4.13818
 4.15155
 4.10073
 4.26872
 8.55543
 8.78668
 8.73525
 8.87878
 8.54672
 8.4258
 9.11206
 8.99011
 9.15639
 1.77877
 1.9223
 3.70333
 3.91118
 3.68277
 3.94674
 6.38414
 6.13828
 6.17799
 4.54383
 4.76682
 4.38189
 4.37977
 8.46611
 8.70071
 8.65754
 8.54405
 6.70021
 6.71875
 6.55626
 6.51901
 6.79914
 6.66467
 6.65441
 6.80499
 8.75086
 8.6745
 8.73934
 8.41458
 8.49903
 8.43246
 8.44978
 1.08711
 0.898739
 1.01782
 0.806369
 9.71502
 9.89901
 3.06718
 2.96729
 3.00241
 3.12607
 7.27631
 7.10953
 7.18335
 7.26544
 6.33211
 6.2064
 6.20926
 6.19387
 9.54285
 9.4263
 6.50226
 6.62634
 6.63328
 6.74189
 7.28867
 7.35192
 7.402
 7.23113
 3.81241
 3.84684
 3.91573
 3.79783
 6.96543
 6.83939
 6.80737
 7.05159
 8.33563
 8.32592
 5.66167
 5.65749
 5.76037
 5.6107
 4.78797
 4.86648
 4.70596
 6.37042
 6.18661
 6.24894
 6.15098
 8.99648
 8.91453
 9.0352
 8.82918
 11.789
 11.6703
 11.6868
 11.802
 6.89768
 7.00152
 6.86665
 6.66556
 6.12022
 5.87637
 6.06349
 6.10919
 7.48119
 7.38608
 7.5747
 7.53611
 8.02676
 8.12393
 8.005
 7.92768
 3.74012
 3.54011
 5.59847
 5.69222
 5.76295
 10.7845
 10.8412
 10.9147
 10.7633
 8.71466
 8.84339
 8.62476
 8.89825
 6.42175
 6.36172
 6.47258
 6.53783
 3.76217
 3.67705
 3.68309
 7.18908
 7.25761
 7.45728
 7.46452
 8.43082
 8.21717
 8.29359
 8.44197
 4.53094
 4.76302
 4.77745
 4.638
 5.68514
 5.74189
 5.81294
 5.79811
 3.94981
 3.91431
 3.93184
 4.31775
 4.28707
 4.28994
 4.27904
 7.69868
 7.65867
 7.79034
 7.86355
 7.04085
 7.08498
 6.93157
 11.6043
 11.5836
 11.6047
 11.6825
 8.39304
 8.38344
 9.88838
 9.98599
 9.84203
 9.75282
 8.84316
 9.42623
 3.19182
 8.26684
 8.43834
 8.30618
 8.51351
 1.63995
 5.56998
 5.73904
 5.57168
 5.80992
 8.31226
 8.15137
 8.23719
 7.65706
 7.51642
 7.51248
 3.8621
 3.83678
 4.10197
 3.87229
 4.01597
 4.13425
 3.98156
 4.12873
 9.1736
 9.36924
 9.37597
 9.23496
 2.53606
 2.49559
 2.40786
 2.65612
 6.68586
 6.84829
 6.98658
 4.05245
 3.901
 3.99913
 6.06583
 6.23176
 6.16907
 6.03331
 8.25825
 8.17061
 8.37085
 8.30602
 6.09774
 5.83089
 6.0774
 8.08183
 8.02975
 8.02147
 8.20259
 7.24961
 7.01059
 3.80153
 3.67265
 3.62434
 3.44971
 3.1596
 2.90388
 3.0459
 3.11153
 8.77343
 8.61819
 8.83073
 8.69366
 4.69852
 4.96666
 4.84185
 4.63958
 5.70952
 5.99016
 5.75996
 5.63102
 7.5395
 7.6864
 7.46186
 7.56021
 3.41164
 3.50637
 3.57364
 3.68042
 7.16999
 7.32912
 7.06769
 7.14106
 6.68897
 6.82277
 6.82674
 6.54693
 7.14501
 7.25671
 7.10825
 7.08726
 8.6499
 8.48736
 8.93166
 8.82159
 8.71209
 8.89828
 10.103
 10.2986
 10.1595
 10.1092
 5.60263
 5.61426
 5.64226
 5.43499
 5.84363
 6.02326
 6.01879
 2.4932
 2.45175
 2.41102
 2.43371
 1.75574
 1.64569
 1.83912
 2.87774
 2.78128
 3.07634
 6.09225
 5.88165
 5.74245
 6.01046
 5.0221
 4.89852
 4.78079
 5.11584
 3.91112
 3.73228
 3.87508
 3.70261
 8.11886
 8.28521
 8.24496
 8.14025
 9.81031
 9.69246
 9.61947
 9.62322
 1.75873
 1.73224
 1.91599
 1.54812
 8.46782
 8.52386
 8.59768
 8.43594
 6.28605
 6.29037
 6.19485
 6.33543
 1.57369
 1.6434
 1.90176
 1.42307
 5.43651
 5.62707
 5.37716
 5.4414
 7.40871
 7.48952
 7.41675
 7.48054
 8.41054
 8.54343
 8.52329
 9.4033
 9.2378
 9.3386
 9.4301
 9.00198
 9.06732
 8.98668
 9.08104
 8.93804
 9.02663
 8.55521
 8.46027
 8.73168
 4.05274
 4.17385
 4.2063
 4.23364
 2.77603
 2.91269
 2.86539
 2.89092
 5.27459
 5.33868
 5.30635
 5.56201
 7.02083
 3.24396
 3.1577
 3.18525
 3.3185
 9.45332
 9.46221
 9.4712
 9.50047
 2.17827
 2.04939
 2.22146
 1.94105
 7.6909
 7.82702
 7.58779
 4.86447
 9.3244
 9.33886
 9.44414
 8.7626
 8.84766
 8.9426
 8.69713
 6.44415
 6.4734
 6.71584
 6.54877
 4.50124
 4.49375
 4.64229
 4.3577
 7.0318
 4.93379
 5.02624
 5.06531
 6.95701
 6.99444
 6.95066
 6.77342
 8.09921
 8.05208
 8.18157
 8.18348
 7.62518
 7.83286
 7.68058
 7.65383
 4.8411
 8.6108
 8.58682
 8.51171
 4.16448
 4.2955
 4.11459
 4.24057
 3.53006
 3.60171
 3.36028
 3.66131
 2.78526
 2.66526
 2.81128
 8.10941
 8.09881
 8.21475
 8.09162
 9.60987
 9.70619
 9.61892
 3.82496
 3.85648
 3.44412
 3.52468
 3.62421
 3.63188
 7.0067
 6.98114
 6.86316
 2.11199
 2.18019
 2.00887
 2.20047
 3.70411
 3.77549
 3.69051
 3.61083
 5.4677
 5.43949
 5.34524
 5.30269
 6.29438
 6.23913
 6.34912
 6.49406
 8.46424
 8.48983
 8.53419
 8.40894
 3.53128
 3.52282
 3.62677
 3.36401
 7.99865
 7.95029
 8.15779
 7.6487
 7.50571
 7.48004
 7.43965
 2.79885
 2.84131
 2.56688
 2.70899
 4.96208
 4.93796
 5.00727
 5.07554
 2.00129
 2.14937
 2.3142
 2.10745
 7.67059
 7.55694
 7.48855
 7.511
 6.34043
 6.2771
 6.48158
 6.14141
 3.44744
 3.47739
 3.34613
 3.42455
 6.45225
 6.31726
 6.50958
 6.47459
 2.02845
 1.78353
 1.98848
 8.17568
 8.23241
 8.26158
 8.23645
 5.95021
 5.95535
 6.01213
 6.13347
 5.55619
 5.36267
 5.51762
 5.48648
 6.67686
 6.78029
 6.51058
 6.70674
 3.59242
 3.59928
 3.35456
 3.50621
 6.93054
 7.11851
 6.99937
 7.05944
 5.70121
 5.7503
 5.72627
 5.86045
 9.5406
 9.53209
 9.56083
 9.5397
 4.17628
 4.13684
 4.29689
 4.38915
 9.56983
 9.57265
 9.57515
 8.50247
 8.57913
 8.57757
 8.4856
 9.04112
 8.96497
 8.69181
 8.91139
 4.44398
 4.52144
 4.39071
 4.26475
 5.11658
 4.86395
 5.06783
 5.027
 7.70628
 7.86018
 7.84362
 7.9405
 1.40912
 1.55098
 1.7106
 11.5333
 11.5594
 5.6964
 5.53432
 5.79487
 5.71319
 10.3852
 10.5111
 10.6536
 10.5265
 5.14708
 5.11527
 4.9005
 4.99707
 7.54163
 8.02036
 8.08432
 8.12584
 8.21923
 4.4801
 4.43231
 4.39399
 4.31812
 3.32777
 3.41979
 3.20964
 3.38174
 9.53415
 9.53413
 4.83148
 4.73866
 4.44818
 4.76584
 5.92998
 6.25554
 5.89605
 6.07052
 8.3488
 8.34681
 8.45119
 8.13808
 6.93628
 7.09572
 7.12996
 6.92371
 3.81202
 4.03851
 3.59733
 2.71571
 2.77736
 2.75187
 2.77263
 1.6208
 1.62122
 1.55387
 7.91733
 8.01444
 7.98519
 7.88619
 2.85731
 3.00771
 3.07409
 3.10199
 9.13839
 9.2597
 9.21035
 9.17513
 5.27712
 5.30502
 5.23942
 5.46519
 6.11666
 5.89837
 6.06748
 6.05867
 2.67699
 2.67574
 2.69201
 2.55084
 5.0379
 4.92655
 5.09108
 5.20495
 10.7136
 10.7849
 10.8213
 10.7231
 7.01587
 7.26843
 7.03805
 7.21412
 7.83461
 7.61255
 7.62367
 7.8292
 4.54424
 4.44273
 4.6343
 4.78692
 8.94606
 9.05424
 9.10303
 9.09009
 5.72475
 5.85832
 5.8322
 5.61929
 8.00269
 8.12652
 8.1544
 9.68589
 9.77186
 9.75118
 9.81678
 5.61922
 5.44856
 5.74049
 5.28794
 5.31061
 5.41644
 8.58738
 8.73753
 8.84371
 8.88031
 8.89393
 8.8251
 8.76781
 2.98249
 12.523
 12.4607
 12.477
 12.5752
 3.64976
 3.7907
 3.49405
 3.6692
 9.26464
 7.59603
 7.6294
 7.66828
 7.446
 7.86415
 7.96777
 7.64998
 8.53335
 8.32534
 8.42305
 8.49045
 10.6803
 10.7106
 10.6234
 10.8089
 9.14532
 9.02836
 9.03762
 6.35527
 6.44954
 6.44094
 7.94367
 8.00318
 1.14023
 1.3758
 1.38649
 9.03686
 8.90519
 9.10011
 7.66323
 7.53388
 7.46674
 2.8479
 2.65587
 2.67412
 4.3993
 4.38994
 4.20259
 4.38155
 8.45312
 8.36797
 8.31372
 9.56372
 9.71314
 2.41782
 2.57358
 2.3314
 2.41156
 10.2496
 10.2037
 10.3609
 10.1053
 9.00034
 9.05344
 11.7781
 11.8776
 11.2199
 11.2403
 11.177
 7.64689
 7.55024
 7.73041
 2.5444
 2.75929
 2.86674
 4.91793
 4.89826
 4.71818
 8.35813
 8.25559
 8.10085
 8.00888
 8.1559
 3.31794
 9.64746
 9.64935
 9.58799
 9.58161
 7.80361
 7.51257
 7.71648
 7.70487
 4.61007
 4.65013
 4.51873
 4.8271
 4.80146
 4.91641
 4.86171
 7.67044
 7.72839
 7.57461
 7.45168
 4.84988
 4.79037
 4.63811
 4.64757
 4.24903
 4.41101
 4.31183
 4.09647
 6.7176
 4.8275
 4.76776
 4.73802
 4.67185
 2.14717
 2.04164
 2.14825
 2.27768
 8.68431
 8.94992
 8.9893
 8.79446
 2.55139
 2.41233
 2.51876
 2.5397
 11.8852
 11.8336
 11.9257
 2.46588
 2.59389
 2.26814
 2.35694
 8.63479
 8.66851
 8.81455
 8.79576
 4.14951
 4.33429
 4.19887
 4.0631
 8.98946
 8.97949
 9.29394
 9.2247
 1.90011
 3.85363
 4.12545
 4.01663
 4.20674
 3.25815
 3.071
 3.15013
 9.48971
 9.41601
 9.5385
 9.5926
 4.47816
 4.62198
 4.61694
 4.72271
 5.8709
 5.69407
 5.67984
 5.75334
 6.12204
 6.01518
 6.26406
 6.27775
 1.54299
 1.76351
 7.34312
 7.32523
 7.34589
 7.6404
 7.50294
 7.44187
 7.35782
 4.7058
 4.83483
 4.52336
 4.49279
 4.74631
 4.65469
 4.65904
 4.49818
 5.58888
 5.56023
 5.42498
 5.63979
 8.60623
 8.60656
 8.22053
 8.32519
 8.33343
 7.65937
 7.54298
 7.54036
 7.51931
 9.79281
 9.9093
 9.8879
 9.89078
 7.78864
 7.90233
 8.03849
 10.6236
 10.6256
 10.4933
 7.78779
 7.80663
 7.94869
 7.68842
 8.59146
 8.39328
 8.63958
 6.94633
 4.67626
 4.75266
 4.52192
 7.40608
 7.4539
 7.33945
 7.24534
 9.09183
 9.08171
 8.724
 8.9079
 6.69699
 6.58131
 6.52063
 6.51609
 3.94073
 4.06914
 1.35257
 1.51884
 1.63317
 1.3322
 4.61543
 4.67652
 4.51874
 4.79809
 7.31402
 7.34355
 7.36323
 7.26434
 1.98258
 1.96093
 1.60504
 2.1086
 2.42329
 2.32972
 2.27982
 6.48738
 6.71224
 6.78242
 6.57594
 9.37007
 9.41093
 9.29338
 7.22962
 7.24793
 7.04799
 7.23136
 9.47493
 9.65443
 9.46835
 9.66294
 5.14485
 5.15063
 5.09666
 5.51064
 9.51143
 9.50824
 9.52207
 9.47727
 8.54255
 8.44629
 8.4058
 8.4791
 2.43927
 2.65971
 2.38824
 2.59655
 6.38848
 6.38135
 6.53701
 6.37184
 7.82292
 7.92186
 7.76962
 7.89917
 4.6468
 4.61463
 4.09337
 3.78434
 3.88404
 3.91272
 7.49513
 7.3113
 7.3625
 7.14597
 7.09094
 6.97939
 7.05235
 7.07147
 9.26236
 9.1666
 9.29358
 7.56656
 7.68356
 7.77421
 12.2409
 12.3583
 12.2618
 12.3243
 8.43945
 8.37273
 9.49745
 9.42743
 9.48878
 9.61947
 5.89823
 6.0755
 5.91675
 6.12557
 10.6255
 10.4751
 10.4067
 10.5432
 8.866
 8.90744
 9.06325
 5.16416
 5.11293
 5.14033
 5.23078
 8.80252
 8.67348
 8.85518
 9.03556
 9.02265
 9.1667
 9.13697
 7.69288
 7.78332
 7.76034
 7.58968
 4.25106
 3.76927
 11.2956
 11.239
 8.51687
 8.64261
 7.21713
 7.36372
 7.3027
 7.33092
 5.32161
 5.18049
 5.31708
 5.07583
 6.76569
 6.74959
 6.65522
 6.62366
 9.45235
 9.68505
 9.49903
 9.58366
 5.95398
 6.1664
 6.05439
 9.32592
 9.36752
 9.30441
 9.31084
 3.04629
 3.03772
 2.88283
 3.14363
 5.33341
 5.3386
 5.33546
 5.51561
 9.13951
 9.04006
 9.1868
 7.16436
 7.35785
 7.18484
 7.09897
 9.56643
 9.58415
 9.52857
 8.86713
 8.71241
 8.76179
 8.85142
 8.99806
 9.02784
 8.88144
 8.97818
 7.36369
 7.50349
 7.54213
 7.59951
 2.31841
 2.41852
 2.54545
 2.50216
 5.7043
 5.49099
 5.58686
 5.53378
 7.35719
 7.56901
 7.41421
 6.41259
 6.49784
 6.49142
 3.23442
 3.48955
 3.25481
 3.41367
 5.58279
 5.5435
 5.73602
 5.46748
 7.52755
 7.39724
 7.34578
 7.35446
 9.75421
 9.72014
 9.17714
 9.26791
 9.09736
 9.09389
 11.5305
 11.5706
 11.6835
 11.5284
 4.6028
 4.5722
 4.56279
 4.65895
 8.71501
 8.87832
 8.83016
 8.84239
 6.74094
 6.91117
 6.80197
 6.99953
 9.98929
 10.0557
 10.0289
 10.0835
 6.25777
 6.35115
 6.44712
 6.43217
 7.16866
 4.74157
 4.85915
 4.96811
 4.90925
 7.45973
 7.65046
 7.68698
 7.50649
 7.51726
 7.42849
 7.31454
 7.36868
 7.96083
 8.11274
 8.05691
 8.15415
 9.07431
 9.22821
 8.98629
 3.76333
 3.71784
 3.6599
 4.01891
 7.56406
 7.61846
 7.61928
 7.67834
 3.95549
 3.87572
 3.73026
 5.21247
 5.34965
 5.22784
 5.31809
 4.3124
 4.02011
 4.17865
 4.00076
 9.17562
 9.04685
 9.20212
 12.5898
 12.5354
 12.5207
 4.89668
 4.66175
 4.72373
 6.21091
 5.90787
 6.06096
 5.87937
 7.81092
 7.74218
 7.66729
 7.80193
 7.32617
 7.26337
 7.48803
 7.43638
 10.909
 10.814
 11.0328
 10.8059
 6.68545
 6.77172
 6.79058
 6.81126
 5.86742
 5.85592
 5.70845
 5.92703
 8.76729
 8.75894
 8.38138
 8.67526
 8.52916
 8.50937
 5.06946
 5.21986
 5.11509
 5.12433
 8.92408
 8.76008
 5.71628
 5.80329
 9.38917
 12.3541
 12.379
 12.3583
 12.2706
 9.98701
 9.845
 1.8259
 1.57971
 1.77918
 9.64518
 9.51717
 9.39859
 9.52465
 4.83917
 4.82337
 8.55871
 8.595
 8.57325
 8.56247
 8.04921
 7.7726
 7.88101
 4.69151
 4.60446
 4.65968
 4.4532
 5.52417
 5.33996
 5.50082
 5.43932
 3.64956
 3.63837
 3.42805
 7.39802
 7.55034
 7.38315
 7.6217
 6.9043
 3.52065
 3.86015
 3.60262
 3.68449
 9.55655
 9.59416
 9.50893
 9.44674
 6.51505
 6.66626
 6.46663
 6.6332
 4.52407
 4.81509
 4.60636
 4.76132
 11.7845
 11.7548
 11.7163
 11.7036
 9.1101
 1.97611
 7.68795
 7.4473
 7.60361
 7.76222
 6.48334
 6.32898
 6.53556
 6.5938
 8.58815
 8.78819
 8.68188
 8.6311
 6.33796
 6.42624
 6.35096
 6.31375
 9.26758
 9.23432
 9.09671
 9.29477
 9.17218
 9.0772
 9.18408
 7.32727
 7.17164
 7.41531
 7.31654
 4.43087
 4.26376
 4.63379
 1.27586
 1.04996
 1.24415
 1.35878
 11.022
 11.1502
 11.1679
 7.06401
 7.069
 7.23554
 7.16737
 7.34107
 7.10674
 2.89772
 2.92689
 2.96773
 2.75048
 4.92887
 5.07042
 5.01022
 5.15681
 9.08097
 8.85572
 9.01788
 10.2786
 7.51457
 7.71075
 7.64202
 7.52525
 7.09606
 6.98714
 7.01722
 5.23014
 5.32932
 5.30438
 5.16937
 4.58727
 4.79998
 4.64408
 4.75522
 7.61293
 7.72592
 4.90252
 4.92333
 4.85786
 4.72023
 6.22618
 6.2807
 6.23969
 6.07986
 2.47297
 2.35244
 5.72547
 5.89429
 5.73582
 5.81524
 4.98092
 4.88775
 4.8496
 4.7594
 5.30562
 5.18931
 5.30503
 5.30163
 6.98461
 6.88749
 7.43364
 7.32141
 7.45222
 7.55092
 8.03564
 8.18119
 8.11253
 8.07685
 6.19641
 6.07701
 6.07136
 6.18022
 9.22116
 9.10926
 9.02922
 8.9615
 8.62142
 8.65007
 8.70979
 8.65489
 11.3102
 11.2336
 11.2462
 11.3715
 8.03573
 8.28376
 6.29249
 6.56326
 6.35909
 6.44662
 7.65165
 7.68763
 7.60704
 7.49858
 6.59149
 6.4767
 6.40302
 6.53137
 7.36107
 7.33594
 4.68148
 4.76052
 1.92222
 1.88208
 1.86242
 1.81749
 9.54487
 7.47356
 7.49054
 7.43623
 7.3195
 6.78219
 6.94563
 6.8951
 6.86816
 8.32959
 8.42556
 8.46567
 8.59344
 5.09134
 5.32582
 5.11521
 5.32161
 6.45845
 6.57422
 6.63172
 6.46876
 9.27924
 9.33062
 9.21411
 9.33454
 9.40481
 7.78218
 7.60628
 7.8168
 7.72675
 7.90299
 7.67573
 7.86326
 7.89402
 9.06921
 9.06391
 9.19534
 9.07211
 8.67376
 8.62806
 8.42968
 8.5209
 7.18623
 7.03483
 7.26548
 7.27847
 9.20623
 9.29384
 9.34527
 9.2927
 6.32524
 6.26698
 6.49961
 8.43178
 8.43398
 8.45965
 8.4871
 10.6155
 10.5272
 6.35362
 6.23151
 6.1908
 6.58905
 6.3873
 6.47025
 6.37447
 9.49418
 9.38673
 9.3309
 9.92971
 9.86126
 9.85782
 9.91194
 5.69993
 5.73335
 5.59799
 5.76636
 6.46855
 6.69683
 6.4529
 4.23618
 4.58128
 4.42681
 7.00351
 7.13471
 7.10199
 3.66305
 3.69018
 3.63088
 11.4711
 11.5598
 11.5574
 11.4789
 2.43899
 2.36119
 2.4759
 2.34162
 8.12191
 8.26037
 6.1577
 6.30778
 9.02971
 9.01692
 9.05315
 8.91653
 5.86125
 5.93215
 5.72465
 4.59158
 4.44158
 4.47438
 4.44513
 3.56693
 3.85588
 9.52374
 9.5065
 9.57123
 6.34854
 6.37058
 6.5331
 8.63305
 8.7789
 8.61253
 9.42466
 9.423
 9.46412
 9.52482
 7.50749
 7.43813
 7.60078
 7.37812
 7.71332
 7.89102
 7.85079
 7.73314
 5.2369
 5.2916
 5.31194
 5.1104
 4.71399
 4.86219
 4.77488
 4.99554
 7.83955
 7.82571
 7.70492
 5.74318
 5.80181
 5.9047
 5.14462
 4.98524
 5.08976
 5.03947
 0.834628
 0.955042
 0.779162
 6.93272
 6.97467
 6.9789
 5.12581
 5.01401
 5.24941
 7.10351
 7.00753
 7.21902
 8.17842
 8.36014
 8.3181
 9.51758
 9.45987
 9.48905
 9.45762
 6.98468
 7.29592
 7.12306
 7.2445
 8.46056
 8.51245
 8.62219
 9.14701
 8.98908
 5.36307
 5.48098
 5.20858
 5.38656
 5.34225
 5.18253
 5.42351
 5.53893
 9.0236
 8.86979
 8.79238
 8.74544
 9.19851
 9.35332
 9.26176
 9.36105
 10.1937
 10.2669
 10.1888
 10.3177
 2.73613
 2.64343
 3.8882
 4.1466
 4.00271
 3.86031
 2.32126
 8.26933
 8.09479
 8.27313
 6.80015
 6.74993
 6.88233
 6.93971
 9.11956
 9.13428
 7.19992
 7.24159
 7.08052
 9.63098
 9.57527
 4.14258
 4.12711
 3.92368
 4.28894
 3.41499
 3.47423
 3.13321
 3.33069
 4.60512
 4.57217
 4.76914
 8.14336
 8.02618
 8.03469
 3.49686
 3.52599
 3.45141
 3.40294
 8.54614
 8.73578
 8.59193
 8.5216
 4.45139
 4.5736
 4.61479
 4.4604
 8.44802
 8.61537
 8.65093
 8.38234
 9.23267
 9.17351
 9.28502
 2.32159
 1.98456
 2.14495
 2.23374
 9.46635
 9.40798
 9.43683
 7.55715
 7.49936
 7.32403
 7.43043
 2.48195
 2.27435
 2.38525
 8.45596
 8.57527
 8.41259
 8.51011
 5.58337
 2.94089
 2.81904
 3.24278
 3.00186
 9.72456
 9.68687
 9.61516
 9.69543
 5.28596
 5.56597
 5.35335
 5.27874
 7.00993
 6.95118
 7.1773
 9.21048
 9.30547
 9.19109
 9.47683
 5.56697
 5.62328
 5.47514
 8.68767
 8.74993
 11.3616
 11.4799
 11.3608
 11.2863
 10.056
 10.3643
 10.3783
 3.35936
 3.45228
 3.05096
 3.3322
 3.38206
 3.25682
 9.94122
 9.9014
 10.0434
 9.85879
 7.7704
 7.6972
 7.7121
 7.62801
 7.26593
 7.48773
 7.47476
 7.41389
 6.35403
 6.42117
 6.22116
 6.39999
 6.32528
 6.60154
 6.42598
 6.57721
 2.72781
 9.30874
 9.37103
 9.29951
 9.34553
 2.60895
 2.75434
 2.52564
 6.22033
 6.40305
 6.48864
 6.41498
 9.46245
 9.32094
 9.27503
 6.56018
 6.70579
 6.59486
 6.71369
 7.04374
 5.29525
 5.23824
 5.03336
 5.1077
 8.54889
 8.55473
 8.55151
 7.04984
 6.76963
 6.88145
 2.43731
 2.52463
 2.7389
 2.55011
 7.07992
 7.11989
 7.18355
 11.8425
 11.8007
 11.9206
 7.09271
 7.20786
 7.10546
 7.36205
 5.19789
 5.02057
 5.07354
 6.88957
 6.8499
 3.7325
 3.6324
 3.84257
 3.80903
 4.64408
 4.47461
 4.56525
 4.59804
 2.20206
 2.2695
 2.39973
 2.53172
 6.44734
 6.76945
 6.53742
 6.48085
 4.90322
 4.94846
 5.01834
 5.09128
 3.7362
 3.59077
 3.44846
 8.75921
 8.66669
 8.90259
 8.81449
 7.2581
 7.09442
 8.05525
 8.1726
 8.03877
 8.09917
 5.38631
 5.40946
 5.42034
 5.29542
 7.11694
 6.96155
 7.00693
 7.1723
 5.56108
 5.66151
 5.4343
 5.64075
 6.93581
 6.89444
 6.7353
 6.72872
 7.16342
 7.2997
 7.29228
 3.86094
 4.00442
 3.90312
 3.01383
 3.01827
 3.07849
 2.76337
 3.69853
 3.7122
 3.56945
 4.93687
 4.66917
 4.88967
 11.0391
 11.0456
 11.1482
 7.29736
 7.09092
 7.25276
 4.05632
 3.96507
 4.06863
 4.08274
 7.3031
 7.22537
 7.3169
 6.33859
 6.28238
 6.28357
 6.44611
 5.53962
 5.91483
 5.7874
 5.79992
 7.03968
 6.90538
 6.94652
 6.82615
 8.95045
 8.85413
 8.9329
 9.00737
 7.23827
 6.35031
 6.36685
 6.26554
 6.5882
 9.48085
 9.43276
 9.4144
 9.42201
 9.43945
 9.32255
 9.40055
 9.32587
 9.18367
 9.09065
 9.14761
 9.21659
 5.55656
 5.59338
 5.36338
 5.26468
 8.67506
 8.7693
 8.7068
 8.68559
 1.82619
 2.03451
 1.87122
 2.02613
 10.2697
 10.1996
 10.1047
 10.1138
 8.68336
 8.66732
 8.70265
 9.70834
 9.81185
 9.88327
 9.85808
 9.15531
 9.25328
 9.06098
 9.37207
 9.34991
 6.78406
 6.81228
 6.69468
 6.44691
 3.08486
 3.26653
 3.32695
 3.0101
 3.05002
 2.91457
 3.11265
 9.11322
 9.21566
 2.20544
 2.06398
 2.26487
 3.78621
 3.82764
 3.77636
 3.64133
 9.17869
 9.25211
 9.15916
 2.33822
 2.25158
 2.41097
 2.19873
 7.99954
 7.96382
 7.84875
 8.09925
 9.08442
 9.27236
 9.19017
 9.05437
 9.81009
 9.59402
 9.68247
 9.72627
 10.7315
 10.6833
 10.8037
 10.8009
 5.93298
 5.61753
 5.7853
 5.65096
 7.87521
 7.86824
 7.93356
 8.14273
 2.2762
 2.53299
 2.29487
 11.9338
 11.8018
 11.891
 11.7387
 10.0888
 9.95003
 10.0322
 9.91426
 2.45198
 2.15953
 2.31462
 2.33226
 7.02171
 6.99485
 6.85637
 3.58914
 3.31473
 3.27402
 8.90752
 8.91829
 9.10685
 2.20653
 2.41989
 2.43461
 2.2969
 3.66878
 3.75114
 3.79932
 3.96288
 8.50088
 8.41547
 8.2827
 8.41411
 7.8959
 8.06068
 7.90544
 8.09878
 4.50125
 4.49501
 4.43879
 4.23727
 6.632
 6.73166
 6.84738
 6.76844
 10.3699
 10.2356
 10.2367
 10.2404
 3.56266
 3.96643
 3.70547
 3.80781
 1.98469
 6.71199
 6.66582
 6.55133
 6.55595
 3.0374
 2.91282
 2.95571
 2.74041
 9.45385
 9.45266
 9.43167
 9.42879
 2.32699
 2.16524
 2.39577
 2.48003
 7.14533
 7.18828
 7.83085
 7.91835
 7.80307
 7.74723
 4.55707
 4.75337
 4.77046
 4.76496
 6.31235
 6.11041
 6.14427
 7.9145
 7.94165
 7.87846
 4.56866
 4.58654
 4.80368
 4.80606
 4.83493
 4.9371
 4.741
 4.89026
 8.99596
 9.13176
 9.14496
 7.04549
 6.68316
 6.68369
 6.89047
 10.3965
 10.2938
 10.1581
 10.3466
 10.4608
 2.16044
 2.52735
 2.14456
 2.45061
 6.76325
 6.86335
 6.93788
 6.77245
 3.24499
 3.10476
 7.41705
 7.66024
 7.64869
 8.61656
 8.76225
 8.52116
 8.56295
 2.44391
 2.52289
 2.35977
 2.36508
 9.28553
 9.23571
 9.25711
 8.57773
 8.6401
 8.52048
 8.62687
 7.97408
 7.80301
 7.9307
 8.12704
 5.29385
 4.94552
 5.14922
 5.06684
 8.80187
 8.59713
 8.71199
 8.73087
 4.64519
 5.99356
 5.78194
 5.72394
 6.03096
 3.08196
 3.01189
 3.22442
 2.56506
 2.65268
 2.66768
 2.82022
 5.89055
 5.79744
 6.02973
 5.92129
 1.61829
 1.63027
 1.63291
 1.85506
 8.04705
 6.14576
 6.39067
 6.40038
 6.21504
 6.72239
 6.98357
 6.86822
 6.80563
 10.7117
 10.5742
 10.5388
 10.6786
 7.16595
 7.12147
 7.06109
 7.26264
 7.59927
 7.56707
 7.51273
 7.43942
 7.43003
 7.40303
 7.27529
 3.44249
 3.63852
 3.71852
 7.55083
 7.72689
 7.70034
 7.58906
 3.49891
 3.20744
 3.36624
 6.93849
 7.05426
 6.69272
 6.58056
 6.63409
 6.53236
 6.58512
 6.53196
 6.84686
 6.80587
 6.58511
 6.66181
 3.2789
 3.16841
 3.17703
 7.98947
 2.8272
 6.30524
 6.18218
 6.32164
 6.48781
 9.07045
 9.0442
 9.2097
 8.77156
 8.62264
 8.55931
 6.68198
 6.61865
 6.79288
 7.0353
 7.04391
 6.95976
 6.87019
 6.85757
 6.99158
 6.74232
 6.95887
 11.9752
 11.9511
 12.0671
 4.52
 4.74345
 4.53195
 7.16792
 7.11406
 3.89308
 4.17806
 4.099
 4.17908
 6.05203
 5.90013
 6.04669
 10.599
 10.5913
 10.7335
 10.6775
 7.5057
 7.7048
 7.55255
 7.63659
 8.94109
 9.01504
 9.09043
 9.13681
 5.37114
 5.62773
 5.49363
 5.38998
 8.23365
 8.35424
 8.25758
 8.43906
 10.3301
 10.3518
 10.3611
 7.94884
 8.0096
 8.09654
 8.05652
 5.32142
 5.10815
 5.18006
 5.17556
 6.9563
 6.77534
 6.749
 6.85454
 8.74958
 8.82598
 8.73887
 7.76628
 7.89342
 7.83334
 7.86279
 8.80505
 8.96574
 8.77797
 8.92212
 9.44578
 9.26518
 9.2822
 9.48172
 2.57963
 2.45773
 2.52823
 2.46491
 9.20274
 9.08533
 9.12791
 9.08219
 8.81643
 8.92172
 8.76463
 8.7807
 5.79194
 5.54873
 5.63877
 5.50084
 7.95431
 8.00564
 7.84838
 7.91005
 1.07799
 0.990947
 1.01234
 0.9727
 7.49375
 7.56917
 7.41608
 9.42989
 9.53367
 9.49088
 9.36178
 9.26501
 9.33298
 9.28646
 9.3359
 9.04124
 9.26719
 5.17083
 5.35178
 5.19481
 5.44832
 1.50516
 1.64201
 1.55565
 1.58549
 7.7072
 7.86682
 7.7782
 7.87288
 9.04652
 9.14099
 9.15488
 5.49512
 5.68992
 5.71329
 5.53609
 7.32819
 7.36
 7.26338
 7.14674
 8.63429
 8.62887
 8.64673
 8.51282
 9.50087
 9.28292
 9.41482
 4.28112
 4.08345
 3.9973
 4.23435
 3.96059
 3.95987
 4.1526
 7.65741
 7.65524
 7.54573
 7.46995
 7.54183
 7.62512
 7.43433
 8.64338
 8.49567
 8.42991
 8.46361
 5.55599
 5.60757
 5.74076
 9.07402
 9.07238
 9.23166
 6.75252
 6.56286
 6.64066
 3.89495
 4.13969
 4.00515
 5.22402
 5.27156
 8.02755
 7.91706
 8.04347
 7.91005
 7.85042
 7.9206
 7.19703
 7.40033
 8.48772
 9.65974
 9.6341
 9.75375
 3.39928
 3.42805
 3.72639
 7.67705
 7.54932
 7.59911
 7.70542
 8.54431
 6.91266
 6.78559
 5.45303
 5.39701
 5.49136
 5.32028
 6.959
 7.09837
 6.9215
 7.57025
 7.48262
 7.72861
 7.54142
 7.9543
 7.66852
 7.52412
 7.65083
 7.72028
 7.4444
 3.42921
 3.62024
 3.67017
 3.53124
 3.31475
 3.16406
 2.89697
 2.98711
 9.12011
 8.99274
 6.90841
 6.95241
 7.00672
 7.13691
 6.3619
 6.31378
 6.25015
 6.17413
 5.65644
 5.49224
 5.66999
 5.70119
 7.2514
 7.35028
 7.41289
 7.22677
 7.51477
 7.40355
 7.48465
 7.56711
 3.89542
 4.18056
 3.93044
 3.99547
 8.85936
 8.68171
 8.65643
 8.54124
 8.89804
 8.72245
 8.81717
 4.39527
 4.21581
 3.99952
 3.92694
 8.7083
 8.59315
 8.63391
 8.52163
 3.03766
 3.13561
 2.98781
 3.08075
 3.87624
 3.99038
 3.92388
 4.02852
 7.82588
 7.74153
 7.8887
 7.81267
 5.13661
 5.07161
 5.19104
 5.3738
 8.57444
 8.4874
 8.36781
 8.32588
 4.63288
 4.74261
 4.69949
 9.16567
 9.07217
 9.18816
 9.11755
 6.08785
 6.14905
 6.04222
 5.97084
 7.95034
 7.9026
 4.80985
 4.52099
 4.65346
 4.73369
 4.57111
 4.61027
 4.73581
 7.41948
 7.19324
 7.39804
 4.27697
 4.28958
 4.21209
 4.04587
 10.3053
 10.2525
 10.1594
 10.2055
 8.57326
 8.51935
 8.38258
 8.35177
 5.94079
 6.17886
 6.14796
 5.92121
 3.21081
 3.16976
 3.31205
 3.16675
 3.76938
 3.58466
 3.54923
 3.72831
 2.97615
 2.98656
 2.93833
 3.33015
 3.256
 8.19577
 8.09349
 8.2089
 8.05764
 8.93376
 8.88121
 9.10564
 8.96714
 8.37483
 8.36987
 8.02
 7.84975
 7.97798
 7.97754
 7.57713
 7.55804
 7.37287
 7.55726
 8.96095
 8.95708
 9.07354
 6.61359
 6.72613
 6.6951
 6.76611
 1.05293
 1.11929
 1.29157
 8.13862
 8.16739
 8.11511
 7.96853
 3.94029
 4.19725
 4.03614
 3.97006
 5.29278
 5.06589
 5.13982
 6.86188
 6.96205
 6.77969
 5.234
 5.02234
 5.23496
 3.8967
 4.06604
 5.41008
 5.38292
 5.38165
 8.52795
 8.46603
 8.42493
 8.60279
 3.01529
 2.88334
 3.02205
 3.08779
 6.03993
 5.82124
 5.95026
 10.8823
 11.0243
 11.0684
 10.8965
 9.24892
 9.32465
 6.36025
 7.97883
 7.76702
 7.90904
 7.97701
 6.75312
 6.56748
 6.57687
 4.82461
 4.78248
 4.93492
 4.81554
 2.91132
 2.80126
 7.07008
 7.14121
 7.13297
 7.24428
 9.41404
 9.52455
 9.53628
 9.37117
 3.70351
 3.58156
 3.61135
 3.69931
 5.89196
 5.81336
 5.9249
 11.7148
 11.7699
 11.8714
 11.8718
 9.11732
 9.14443
 9.27419
 8.26865
 8.14495
 8.35641
 8.22514
 6.08372
 6.06341
 6.17465
 5.93944
 6.94279
 6.80383
 9.52892
 9.48413
 9.49857
 9.49261
 5.76147
 5.5637
 8.32771
 8.51396
 8.41478
 8.36365
 7.68956
 7.61885
 7.81456
 7.68092
 6.92276
 6.74724
 6.67156
 6.81303
 8.32552
 8.40364
 8.57483
 5.30356
 5.56366
 5.29971
 5.50272
 4.27309
 4.1044
 3.94017
 4.24386
 4.51843
 4.53419
 4.51512
 4.3251
 9.48371
 9.62876
 9.52485
 9.63646
 6.95274
 7.0635
 11.1832
 11.3173
 11.26
 11.3893
 7.74895
 7.9032
 7.97535
 2.26344
 12.2596
 12.2259
 12.2269
 12.3987
 7.08548
 6.98994
 7.08798
 7.06956
 8.12446
 7.96817
 8.05356
 4.37694
 4.21106
 4.18321
 4.39607
 4.34829
 4.42063
 4.20587
 4.21483
 4.48728
 4.39781
 4.5654
 4.63847
 8.48059
 8.34799
 8.56663
 8.35059
 9.04339
 9.09602
 9.17531
 9.16161
 5.75638
 5.76376
 5.54113
 5.77674
 7.60568
 7.83423
 7.5417
 7.6936
 1.39924
 3.0553
 2.97544
 6.1318
 6.14683
 7.485
 7.62133
 7.58513
 2.90862
 2.59023
 2.79389
 2.85331
 7.19164
 7.26718
 6.28809
 6.43588
 10.5985
 10.4714
 10.6213
 10.4847
 8.50556
 8.56406
 8.677
 8.59617
 5.81295
 5.58474
 5.77881
 5.64214
 10.3195
 10.4633
 10.3536
 10.293
 1.76893
 1.85502
 1.64914
 1.83424
 3.16837
 3.41193
 2.72416
 2.86889
 3.04007
 2.71281
 4.29582
 4.13243
 7.88801
 7.80616
 7.91654
 12.0187
 11.9041
 12.0547
 12.0435
 10.1627
 10.07
 10.0442
 10.1639
 3.07644
 2.91317
 3.07582
 3.18366
 5.0245
 4.74794
 4.89981
 6.59056
 6.75654
 6.87437
 6.68004
 8.30988
 8.11994
 8.27501
 8.33392
 3.68464
 3.49202
 3.62874
 3.03238
 6.7457
 6.53201
 8.36508
 8.30967
 5.44102
 5.23292
 5.49994
 5.42521
 8.96312
 9.14465
 8.90795
 9.16212
 9.23014
 9.38015
 9.32685
 11.8578
 11.6622
 11.6898
 11.754
 8.23499
 8.14476
 8.15913
 8.02004
 3.7593
 3.72869
 4.13396
 3.95707
 4.05226
 3.95707
 8.58015
 8.58836
 8.43809
 8.68854
 4.68813
 4.80253
 4.62124
 5.36081
 5.35777
 5.30218
 5.46124
 4.0116
 3.8422
 4.05529
 3.8198
 8.35818
 8.20805
 8.25947
 8.32889
 2.556
 2.89219
 7.51217
 10.9415
 10.8882
 10.8046
 10.7558
 4.67791
 4.73165
 4.56856
 10.202
 10.2924
 10.2232
 10.3392
 5.29249
 5.3133
 5.31064
 5.13479
 9.36777
 9.37389
 9.52933
 9.32443
 8.89194
 8.91393
 8.77757
 8.74739
 5.6212
 5.47882
 5.46048
 8.00096
 7.92486
 8.04248
 8.13433
 5.99432
 6.02737
 5.90786
 6.18217
 6.27289
 6.41812
 4.07437
 4.00693
 4.0305
 5.29752
 5.2704
 5.4076
 11.0658
 11.047
 10.9264
 11.0257
 9.1091
 8.96692
 9.17756
 8.91856
 3.57569
 3.85039
 3.85395
 3.86866
 4.34286
 4.40579
 8.69376
 8.40505
 8.67217
 5.34141
 5.5664
 5.52645
 5.63157
 5.44877
 5.50218
 5.58021
 8.47814
 8.55628
 8.4598
 8.42546
 2.7283
 2.72681
 7.87471
 7.93587
 7.87122
 7.78192
 8.60102
 8.58964
 8.5352
 5.21989
 5.16215
 7.0272
 7.10318
 7.06874
 6.90498
 9.37497
 9.43233
 5.77438
 5.85372
 7.87318
 8.09183
 8.05365
 7.93145
 6.59551
 6.60066
 6.7232
 6.48522
 6.61873
 6.7274
 6.62718
 9.76571
 9.74395
 9.8111
 9.55904
 10.2116
 10.2088
 10.11
 10.1556
 5.19807
 5.34152
 5.49423
 5.37266
 3.42096
 3.39487
 3.5367
 3.54022
 6.26759
 6.16693
 6.32445
 6.89344
 6.99025
 7.07
 7.00235
 6.91346
 4.52809
 4.48131
 8.23029
 8.07715
 8.21934
 8.26133
 8.85766
 3.40719
 3.4444
 3.59759
 3.52498
 6.83179
 7.11044
 7.03108
 6.88033
 11.6776
 11.5962
 7.39933
 7.60296
 7.40699
 11.0868
 11.0496
 11.1151
 10.9848
 5.91724
 6.05628
 5.94046
 6.00966
 9.37939
 9.22066
 9.18484
 8.53076
 8.39982
 2.38676
 2.42037
 2.42467
 2.81315
 2.81115
 2.92593
 9.10979
 8.89808
 8.53805
 8.54139
 11.3746
 11.4581
 11.47
 11.4888
 3.43172
 3.70026
 3.37306
 8.91548
 8.88981
 8.80775
 9.00331
 8.66492
 8.72644
 8.55889
 8.72893
 5.22637
 5.15844
 5.07126
 5.17676
 5.98812
 5.61467
 5.792
 5.35979
 5.32617
 5.53927
 5.33963
 4.58556
 4.78616
 4.41427
 4.88347
 9.48193
 9.47116
 9.04998
 9.04076
 8.97505
 6.10862
 6.19044
 6.36435
 6.28716
 8.7929
 8.80427
 8.6337
 8.69295
 5.00134
 5.10872
 5.06975
 4.95935
 9.42673
 9.25879
 3.49644
 3.63224
 3.57635
 3.73044
 5.0334
 5.33182
 5.20226
 4.98237
 8.28619
 8.2701
 8.31967
 8.18319
 3.88498
 3.65738
 7.46742
 7.42525
 7.36825
 7.32991
 10.2715
 10.2471
 10.2642
 10.236
 9.39563
 9.31423
 9.40175
 9.28494
 2.24983
 2.1772
 2.11681
 2.14061
 3.1543
 3.23933
 3.31007
 8.357
 8.38272
 8.40616
 2.3837
 2.2721
 7.37111
 7.30416
 7.41852
 7.19916
 3.73422
 3.8703
 3.69553
 3.86736
 8.70172
 8.78272
 8.67954
 8.8035
 9.79171
 9.64911
 9.71339
 4.17629
 3.93984
 3.95751
 3.98324
 7.78375
 7.57155
 7.60802
 7.66327
 9.00728
 8.94995
 8.84959
 9.11249
 9.52026
 9.72835
 9.46406
 6.19545
 6.37485
 6.09409
 6.7415
 6.69843
 6.84248
 6.64523
 6.20554
 6.23209
 6.05384
 6.26707
 7.93284
 7.77686
 7.92661
 7.78672
 8.57465
 8.54018
 8.45498
 8.6461
 9.12304
 9.2497
 5.51763
 5.27149
 5.53362
 5.5353
 6.592
 6.82239
 6.63911
 6.73944
 6.48583
 6.72969
 6.75999
 6.84164
 6.54329
 6.67109
 10.9956
 10.9514
 10.8439
 10.9254
 3.0897
 2.89347
 3.10691
 7.66809
 7.67822
 7.72162
 7.82859
 7.19005
 7.32631
 7.19391
 9.27622
 9.18012
 9.336
 9.29004
 8.89256
 9.02737
 8.93156
 8.96843
 7.7682
 7.72586
 7.59421
 8.70076
 8.78438
 5.04001
 5.14826
 4.90822
 2.02027
 1.99509
 2.15912
 2.05033
 8.90888
 9.07721
 9.06367
 8.89027
 7.18918
 7.04339
 6.98965
 7.15356
 4.52182
 4.4677
 4.65967
 4.6531
 8.79316
 8.72634
 8.84409
 8.62419
 8.38924
 8.29549
 8.2447
 8.11711
 4.16721
 4.33247
 4.55804
 4.50336
 8.437
 8.26679
 3.41251
 3.4853
 3.31165
 6.1934
 6.3518
 9.90459
 9.96623
 10.0078
 10.0342
 7.70711
 7.63553
 7.58367
 7.62106
 9.95888
 10.0188
 9.95204
 7.21734
 7.24609
 5.89597
 5.76972
 5.58373
 5.88258
 7.75243
 7.73969
 5.5438
 5.36315
 7.85128
 7.94951
 7.86195
 7.80625
 5.4919
 5.63136
 5.41467
 5.38248
 4.72609
 4.52653
 4.33642
 4.47016
 2.48759
 2.46472
 2.54759
 2.53805
 7.05898
 6.97329
 8.86378
 8.86685
 9.11442
 9.18559
 4.65669
 4.86712
 9.27048
 9.11806
 9.22595
 10.6944
 10.6701
 10.4661
 10.5548
 10.9303
 10.814
 10.8798
 6.68439
 6.4731
 6.50509
 6.53098
 7.81734
 7.67482
 7.78937
 8.95036
 8.3212
 8.19868
 8.39177
 8.23037
 8.99942
 8.88604
 9.10649
 8.9669
 7.98676
 8.10989
 7.95934
 8.09855
 5.21902
 5.56001
 5.54315
 5.26581
 2.4699
 2.54699
 2.54426
 2.38088
 7.46173
 7.51541
 7.2864
 7.35596
 4.18199
 4.28352
 3.94828
 4.00765
 8.33587
 5.18796
 5.45746
 5.32856
 5.36949
 9.78968
 9.87057
 9.79963
 9.78557
 5.16272
 4.97548
 4.96511
 8.1338
 3.36239
 3.35124
 3.45978
 3.10174
 2.88253
 2.8861
 2.87064
 2.69749
 2.91517
 2.75473
 2.71658
 6.86074
 6.89239
 6.83819
 7.05286
 2.84673
 2.83473
 2.75639
 2.76189
 8.98587
 9.09151
 9.12124
 9.15436
 5.66226
 5.73638
 5.70943
 5.89976
 7.52228
 7.3255
 7.36098
 7.50285
 10.4395
 10.3433
 10.4138
 5.89627
 7.16608
 7.21459
 7.29407
 7.08494
 2.90899
 2.73989
 2.74979
 2.68384
 3.02428
 2.90499
 2.72877
 2.78933
 5.80924
 5.86428
 5.74938
 5.89674
 8.32695
 8.42556
 8.47959
 8.41665
 7.70066
 7.52519
 7.63893
 3.30234
 3.18131
 3.33158
 3.50742
 2.84325
 2.73378
 2.74036
 2.90605
 9.02323
 9.11366
 9.10897
 4.2211
 4.06454
 2.77948
 2.82841
 2.79428
 8.93408
 9.03912
 8.8702
 8.85815
 4.91993
 4.62555
 4.96004
 5.00979
 7.7237
 6.20705
 6.16477
 6.04409
 6.19357
 5.78172
 5.92866
 5.74238
 6.04198
 3.01902
 2.91239
 3.86204
 3.61498
 3.77921
 3.58072
 3.96474
 3.68729
 3.81067
 3.59355
 4.11904
 4.35387
 4.05258
 4.28769
 4.96345
 4.80214
 4.94704
 4.84414
 10.2373
 10.0769
 3.065
 2.98536
 2.85883
 9.4942
 9.51926
 9.48665
 8.58403
 8.77621
 8.82023
 8.63718
 4.84436
 4.95115
 4.79846
 4.63805
 7.3698
 7.53398
 7.46347
 7.45042
 1.92695
 2.08559
 1.94528
 1.79199
 6.29426
 6.33477
 6.20523
 6.25534
 4.08021
 3.92347
 4.12176
 5.53676
 5.53732
 6.33734
 6.61683
 6.39688
 6.40016
 6.69529
 6.91896
 6.75982
 6.87668
 9.2086
 9.15436
 9.12984
 5.65456
 5.50492
 5.57113
 5.42335
 7.8782
 7.81281
 7.68565
 3.49602
 3.54772
 3.28475
 3.6004
 2.74507
 6.05504
 6.3192
 6.33409
 6.17625
 5.59234
 5.4606
 5.43472
 5.50846
 5.73487
 5.82653
 5.90301
 11.9655
 12.0454
 11.9263
 11.9313
 8.67072
 8.53233
 9.36006
 9.47961
 7.2432
 7.51685
 7.43518
 7.32726
 12.6188
 12.5755
 2.15171
 2.09046
 2.01198
 1.86282
 4.8848
 4.54404
 9.16331
 9.18475
 9.09887
 9.10552
 7.17943
 7.16254
 7.02771
 7.08265
 3.94396
 3.75343
 3.82672
 4.04812
 8.44797
 8.50792
 8.37509
 8.43375
 7.40361
 7.55225
 7.3532
 7.44319
 3.80219
 3.71336
 3.6984
 3.50402
 7.4368
 7.37777
 7.38388
 7.58677
 2.53401
 2.68701
 2.64483
 2.70837
 5.7429
 5.58942
 5.64291
 8.63736
 8.63933
 8.84947
 8.6705
 6.01939
 6.16327
 6.05818
 6.19401
 6.55501
 6.69464
 8.04581
 7.80494
 7.76487
 5.60123
 5.63502
 5.42689
 5.3867
 2.36011
 2.38143
 2.21832
 2.22942
 3.38193
 3.22411
 3.08981
 3.4028
 8.84233
 8.8715
 8.99899
 8.95752
 9.46966
 9.48318
 9.51169
 9.49516
 9.14848
 9.34346
 9.21362
 9.28021
 9.68119
 9.66314
 9.72015
 6.79245
 6.82337
 6.79437
 7.03773
 4.25294
 4.14808
 4.90698
 4.65771
 4.80861
 4.83711
 4.53641
 4.41309
 4.63562
 8.65488
 8.77818
 8.73149
 8.82333
 6.84473
 6.8106
 6.69985
 6.72492
 1.87285
 1.84835
 1.79104
 1.70659
 6.48154
 6.58075
 6.65412
 6.46263
 6.2017
 6.40794
 6.18015
 6.37196
 3.18746
 3.07152
 3.25468
 3.24297
 9.29112
 9.51271
 9.41939
 9.34595
 5.03024
 5.01924
 9.36515
 9.47125
 4.13021
 4.3428
 4.16605
 3.99882
 6.48934
 6.52411
 6.42795
 6.66268
 9.97932
 9.84832
 9.94484
 9.39153
 9.43301
 9.524
 9.50659
 8.1969
 8.3743
 6.48447
 6.56398
 6.43905
 6.56268
 5.40931
 5.43495
 5.28398
 7.69678
 7.8385
 7.80521
 7.6659
 7.87565
 7.63424
 7.88449
 7.7268
 4.54838
 4.71519
 4.64015
 4.64386
 9.75376
 9.7643
 9.69233
 2.24876
 2.21186
 2.47721
 2.44833
 5.84365
 5.90619
 5.87879
 8.88225
 8.82983
 8.77445
 2.78979
 2.80621
 2.99003
 2.70829
 4.06198
 8.25881
 8.43917
 8.416
 8.35272
 3.06592
 3.43776
 3.26973
 3.11817
 5.91902
 5.69016
 5.76608
 2.29415
 2.25274
 2.25168
 2.27904
 3.06196
 3.21821
 3.2238
 3.03566
 2.95278
 9.98286
 9.88487
 7.17713
 7.24075
 7.01779
 7.1592
 10.081
 10.1651
 10.1562
 10.114
 8.09231
 5.76358
 5.71034
 5.98439
 4.99664
 4.85198
 4.70013
 5.00548
 8.05525
 8.02696
 8.15026
 8.20765
 8.52977
 8.56466
 6.07861
 5.95952
 5.98325
 8.39343
 8.48897
 8.38499
 8.28868
 8.58695
 8.58237
 8.50187
 8.4623
 2.78918
 2.72067
 8.01108
 7.88419
 8.00371
 8.01973
 9.7506
 9.51842
 9.76031
 9.58096
 8.67458
 8.63882
 8.33136
 8.5928
 9.64928
 9.73476
 9.63991
 4.33027
 4.52224
 4.33475
 5.05387
 5.02821
 3.10073
 3.05268
 3.19959
 9.13911
 9.29702
 9.24507
 9.29048
 8.94636
 8.86819
 8.81079
 12.168
 12.0356
 12.1598
 12.2361
 4.4585
 4.71275
 4.44331
 4.32109
 8.38039
 8.30245
 8.40075
 8.15107
 5.85302
 5.9947
 5.91878
 5.82288
 4.68322
 4.7389
 4.94067
 4.84096
 8.90512
 8.89862
 8.83961
 8.77754
 7.23122
 7.08144
 7.24827
 5.2252
 5.18576
 5.05821
 5.80011
 5.79902
 5.89014
 5.6841
 7.40765
 7.58965
 7.60193
 7.57911
 5.6687
 5.58077
 5.50423
 9.71658
 9.46056
 9.67576
 9.64742
 6.993
 6.97455
 6.95109
 7.12431
 9.02976
 9.17126
 9.17307
 9.09912
 9.24539
 9.45737
 9.2049
 9.2558
 1.6871
 1.44965
 1.7829
 9.03368
 9.13949
 9.04698
 1.87371
 4.27438
 4.25352
 4.51826
 4.40471
 9.36609
 5.05689
 8.3152
 8.33309
 8.44112
 8.40905
 9.70862
 9.79559
 9.86322
 9.78651
 5.46816
 7.32506
 2.20252
 2.24422
 2.24462
 2.28957
 12.0429
 11.9384
 11.976
 8.30732
 8.43439
 8.45952
 9.60146
 9.70501
 1.46665
 1.36742
 1.63228
 1.54551
 7.69379
 7.94186
 7.78524
 7.73408
 3.95962
 3.7398
 3.72466
 5.70622
 5.86587
 5.32225
 5.4059
 5.09333
 5.28024
 2.85658
 2.99754
 3.06365
 2.92476
 7.33603
 7.35405
 7.10455
 7.1886
 3.24005
 3.12601
 3.34549
 3.24407
 6.91719
 6.82568
 6.64044
 6.88693
 4.49726
 4.49017
 4.39466
 4.61218
 4.32097
 4.5461
 4.34154
 3.9348
 8.735
 8.94947
 8.68847
 8.59791
 6.80047
 2.6362
 2.32542
 2.46382
 2.41607
 6.2525
 6.20794
 6.43
 6.14213
 5.9452
 5.93586
 9.20021
 9.27642
 9.33789
 9.16097
 8.09705
 8.25113
 8.09435
 6.86526
 6.89925
 6.97965
 7.08059
 2.01882
 2.22865
 2.2518
 2.20615
 8.49448
 8.49918
 8.6154
 8.65016
 5.04376
 5.31644
 5.29155
 5.1747
 7.04078
 6.99912
 7.14628
 9.22796
 9.10044
 9.15892
 9.12835
 10.632
 10.6151
 10.7773
 10.5614
 8.10929
 8.25355
 8.31007
 3.7227
 3.72412
 3.60871
 6.32207
 4.71059
 4.94926
 4.82745
 4.83098
 8.40557
 8.4524
 8.42527
 8.42709
 3.28029
 2.98658
 3.12953
 3.21369
 6.45817
 6.71683
 5.51468
 5.62907
 5.58487
 5.47942
 5.28212
 5.33873
 5.66077
 10.8288
 10.7552
 10.9434
 10.8096
 1.27214
 0.966016
 1.04826
 1.25051
 8.05494
 7.90697
 7.97531
 8.80193
 8.71205
 8.92133
 8.66453
 5.34042
 5.54555
 5.44959
 11.6121
 11.7322
 11.7955
 11.6934
 4.7554
 4.75716
 4.38651
 4.32348
 4.51964
 4.47659
 9.49356
 9.57778
 9.53316
 9.62836
 9.10096
 9.09743
 9.04626
 9.15758
 10.3123
 10.1835
 10.1223
 10.3136
 7.33463
 10.4436
 10.3564
 10.3807
 10.3119
 4.5273
 4.74366
 4.78968
 4.86927
 9.11914
 8.97008
 5.0801
 4.95022
 4.95839
 5.19453
 3.69355
 3.56605
 3.68216
 3.59411
 1.97264
 1.82946
 1.84813
 1.62193
 12.0299
 12.0758
 11.9247
 5.88064
 5.68561
 5.7451
 5.78836
 4.20101
 4.14927
 4.35597
 4.24111
 10.8691
 10.7559
 10.7163
 10.8733
 5.98301
 4.49124
 4.40241
 4.3426
 4.55881
 3.01302
 2.88937
 3.01487
 7.37299
 7.31037
 7.33247
 7.21003
 2.26129
 1.96203
 1.86617
 2.01445
 6.18542
 6.10347
 6.2016
 6.22413
 6.0197
 8.58802
 8.78208
 8.54892
 6.40618
 6.60496
 6.52481
 6.32421
 6.62391
 6.55585
 6.50978
 6.72045
 8.03325
 8.23445
 8.17796
 9.63079
 10.5446
 10.4167
 10.67
 5.53737
 5.3625
 5.44672
 4.71974
 4.6532
 4.76381
 8.7536
 8.58321
 8.67646
 8.44258
 5.07544
 5.19815
 3.29627
 3.37861
 3.47619
 3.3771
 2.68095
 2.74011
 2.74768
 3.49566
 3.34437
 5.6591
 5.51472
 5.64119
 3.7975
 4.0291
 3.87042
 9.07761
 11.6893
 11.7499
 11.6412
 11.6689
 6.03797
 5.9869
 6.14987
 6.10356
 11.3396
 11.3041
 11.1751
 11.361
 4.86215
 4.87891
 4.73405
 6.76347
 6.85114
 6.98064
 7.01691
 8.48606
 8.37762
 8.64492
 8.54878
 6.12995
 6.08614
 5.90504
 4.65104
 4.53163
 7.13776
 6.94498
 7.10013
 7.038
 7.96266
 7.8484
 7.92912
 9.03681
 9.0337
 9.02395
 5.76241
 5.74428
 5.58744
 5.84414
 4.49093
 4.29628
 4.44781
 4.32521
 1.23909
 1.36
 1.16856
 1.34873
 6.54792
 6.5503
 1.1599
 1.28589
 1.37329
 5.38746
 9.48692
 9.36805
 9.25682
 9.31682
 8.49293
 8.37317
 8.46894
 8.40866
 5.56089
 5.69572
 5.61593
 3.32006
 3.1483
 9.58312
 9.54023
 9.66529
 9.50287
 4.68534
 4.76885
 9.52365
 9.58827
 6.17879
 6.20214
 6.28916
 9.83861
 9.94229
 9.78193
 8.38354
 8.40796
 8.48295
 8.4498
 3.17425
 3.1756
 3.0618
 3.17625
 7.72032
 7.70514
 7.68783
 7.288
 7.51825
 7.38591
 7.37401
 2.90613
 3.13599
 3.137
 3.1742
 10.6665
 10.6193
 10.7124
 6.80446
 6.99186
 6.89889
 4.33838
 4.23233
 5.17302
 5.22906
 5.41086
 5.38968
 10.9683
 10.8682
 10.8925
 10.9423
 8.69986
 8.69721
 8.66845
 8.55799
 3.94854
 3.86852
 3.78535
 3.7454
 3.85087
 3.89723
 3.92844
 4.02328
 7.45654
 7.64509
 7.48106
 7.52672
 1.86281
 1.57832
 1.63781
 1.82104
 8.98718
 8.85902
 9.03427
 10.9893
 11.0943
 11.0536
 6.22385
 6.15543
 5.18357
 5.14375
 5.29854
 5.18851
 3.40204
 3.50058
 3.20498
 3.20382
 7.91372
 6.54272
 7.51016
 7.36329
 7.28781
 7.18262
 12.2002
 12.3555
 12.3288
 12.1875
 4.48933
 4.55556
 8.66631
 8.59676
 8.49418
 8.11702
 8.18405
 8.01856
 7.96362
 9.45468
 9.55083
 7.86709
 7.88538
 7.9959
 7.79358
 9.18433
