 10.7297
 10.5447
 10.5915
 10.467
 6.98087
 6.94485
 6.82375
 6.75933
 8.04432
 8.18177
 8.01038
 8.18517
 7.89031
 8.0139
 8.07992
 8.13379
 5.47629
 5.29498
 5.57214
 5.62898
 5.59476
 5.75708
 5.47294
 5.69653
 11.4112
 11.5426
 11.5005
 11.4132
 11.3607
 11.3069
 11.3062
 11.3962
 5.50443
 5.58084
 5.75735
 5.57203
 5.66606
 5.63775
 5.70359
 5.42583
 11.8553
 11.9349
 11.8119
 11.7881
 7.9991
 7.98422
 8.12538
 8.03235
 10.0456
 10.0669
 10.1742
 9.94547
 6.90638
 7.13441
 7.20607
 7.06482
 8.69194
 8.72513
 8.63535
 8.52362
 10.9897
 11.0886
 10.9188
 11.0828
 6.18387
 6.06095
 6.18012
 5.98489
 7.61002
 7.7068
 7.56788
 7.67475
 8.66108
 8.62561
 8.6019
 8.51056
 6.18538
 6.19696
 6.11023
 5.97602
 11.2922
 11.444
 11.2823
 11.3906
 5.01982
 5.0117
 4.82574
 4.80242
 12.9391
 13.0151
 13.0178
 12.9094
 7.32582
 7.24556
 7.40105
 7.42508
 8.88467
 8.97607
 8.8433
 8.80218
 8.45944
 8.43325
 8.51574
 8.56157
 9.51462
 9.36279
 9.29204
 9.49516
 11.0261
 11.1276
 11.0087
 11.0173
 10.1331
 10.1702
 10.2967
 10.2176
 7.08216
 7.10927
 7.17623
 7.28642
 8.80548
 8.56843
 8.84687
 8.76841
 10.0322
 9.91623
 9.92479
 10.027
 7.67286
 7.84347
 7.66163
 7.80969
 6.93537
 7.01497
 7.01754
 6.99374
 10.044
 10.1898
 10.029
 10.2527
 10.8463
 10.859
 10.8783
 10.8717
 7.75661
 7.96199
 7.79936
 7.83147
 11.6153
 11.5598
 11.5344
 11.5134
 7.40372
 7.38363
 7.10861
 7.17783
 4.50166
 4.69632
 4.56505
 4.73348
 8.27895
 8.32303
 8.24864
 8.44497
 7.19727
 7.06003
 7.11866
 7.19667
 11.4726
 11.477
 11.3669
 11.562
 7.67065
 7.80247
 7.74553
 7.59457
 5.53579
 5.59651
 5.43047
 5.53043
 10.4082
 10.2959
 10.3456
 10.3973
 7.68059
 7.44821
 7.50979
 7.47497
 10.8274
 10.7069
 10.8029
 10.9326
 10.0111
 10.1007
 10.1495
 10.1897
 8.64799
 8.76253
 8.78416
 8.91006
 11.0483
 11.098
 11.1383
 11.0387
 8.39902
 8.53321
 8.5165
 8.42493
 9.76407
 9.9157
 9.74787
 9.9752
 8.25863
 8.17041
 8.26132
 8.17669
 10.1909
 10.0746
 10.1598
 9.98782
 8.09076
 8.11219
 7.98038
 8.21251
 7.28002
 7.27049
 7.17358
 7.07663
 7.15224
 7.26411
 7.18536
 7.40503
 10.312
 10.3411
 10.497
 10.2541
 9.46384
 9.54055
 9.52886
 9.35696
 12.7269
 12.7909
 12.8584
 12.7731
 10.1856
 10.2251
 10.3482
 10.2058
 8.85224
 8.65207
 8.75251
 8.71911
 9.73897
 9.74373
 9.54311
 9.84209
 9.87516
 9.72894
 9.89073
 9.75589
 11.1689
 11.2455
 11.1432
 11.1402
 6.08589
 5.88463
 5.80324
 6.09865
 5.54738
 5.47449
 5.39596
 5.33988
 8.53289
 8.35152
 8.66026
 8.55527
 10.1314
 10.1713
 10.0765
 10.2442
 7.36559
 7.29256
 7.20669
 7.3755
 11.2306
 11.4925
 11.3888
 11.3838
 11.2982
 11.3994
 11.4512
 11.2781
 12.9559
 13.0374
 12.933
 12.955
 8.17359
 7.99082
 8.10463
 7.95508
 10.3902
 10.2411
 10.2127
 10.3717
 10.7016
 10.7993
 10.6467
 10.6226
 5.19682
 5.00406
 5.07634
 4.9799
 10.9666
 11.0243
 11.1283
 10.9923
 10.7166
 10.7847
 10.8631
 10.7261
 10.4779
 10.376
 10.4948
 10.6025
 9.21596
 9.24982
 9.12422
 9.14549
 10.6306
 10.4785
 10.5893
 10.54
 10.0369
 9.96324
 9.92063
 9.99423
 9.45718
 9.49829
 9.55627
 9.60719
 10.9017
 11.0599
 10.8644
 11.0404
 13.2426
 13.2637
 13.1308
 13.1282
 11.1874
 11.138
 11.0557
 11.1261
 8.05222
 8.16239
 8.00188
 8.24154
 8.02628
 8.08921
 7.96172
 8.10402
 7.21382
 7.31646
 7.34649
 7.18906
 11.4694
 11.4858
 11.4474
 11.3923
 4.82216
 4.84448
 4.97878
 4.71125
 7.38885
 7.24306
 7.41227
 7.36621
 11.5672
 11.5628
 11.6807
 11.6998
 9.95481
 9.96384
 10.0159
 9.78215
 10.7673
 10.6699
 10.8791
 10.7982
 10.7312
 10.7959
 10.8055
 11.4253
 11.4402
 11.4548
 11.5051
 7.70422
 7.80563
 7.91442
 7.64725
 9.4669
 9.26607
 9.33707
 9.43762
 7.9582
 7.79868
 7.92931
 10.1404
 10.3256
 10.2029
 10.2568
 9.11259
 8.99082
 9.03524
 9.19996
 6.37217
 6.62787
 6.60979
 6.28163
 11.2126
 11.1925
 11.0274
 11.0872
 10.8185
 10.9103
 10.9813
 10.8965
 8.16748
 8.34308
 8.37647
 8.31139
 7.4378
 7.54275
 7.27989
 7.2984
 11.4397
 11.4172
 11.4699
 11.5592
 10.889
 10.8505
 10.6448
 10.7064
 9.59319
 9.42977
 9.33723
 9.56766
 5.68093
 5.56548
 5.63213
 5.5982
 8.11244
 7.93713
 7.86876
 7.9542
 8.96
 9.18706
 9.00002
 8.96188
 12.7537
 12.8809
 12.7494
 12.7547
 9.31559
 9.42848
 9.25416
 9.16198
 6.37251
 6.56129
 6.3708
 6.61756
 10.5117
 10.7107
 10.4277
 10.4842
 10.9097
 10.8839
 11.0152
 10.9389
 10.9563
 11.0831
 11.0492
 11.0149
 12.0293
 12.0411
 12.038
 11.9812
 10.5912
 10.7906
 10.7732
 10.7778
 8.11537
 8.13085
 8.10656
 8.22845
 11.4896
 11.4467
 11.4081
 11.3619
 5.99456
 6.1512
 6.02011
 5.97037
 11.2763
 11.4349
 11.4191
 11.2892
 6.45743
 6.71988
 6.43041
 6.59825
 9.46961
 9.59025
 9.58492
 9.49118
 9.80177
 9.66625
 9.62214
 9.75593
 10.3336
 10.3315
 10.1464
 10.2837
 10.6024
 10.6032
 10.718
 10.7485
 5.01715
 4.84807
 4.79387
 4.82312
 10.4918
 10.5785
 10.491
 10.5597
 4.54118
 4.7031
 4.59138
 4.82274
 7.39993
 7.45347
 7.25229
 7.4015
 12.4144
 12.2841
 12.3108
 12.4173
 5.32874
 5.36498
 5.22612
 5.16323
 10.979
 10.8436
 10.9662
 11.0755
 12.3804
 12.4602
 12.5005
 12.3892
 6.82439
 6.88383
 6.97251
 6.89054
 5.37286
 5.14309
 5.31936
 5.41527
 8.56575
 8.53554
 8.60402
 8.64798
 7.03788
 7.23539
 6.99203
 7.20788
 10.7958
 10.9523
 10.8643
 10.8998
 8.27361
 8.33721
 8.28023
 8.13816
 9.90916
 9.95473
 9.84311
 9.83017
 11.3246
 11.2601
 11.354
 11.3551
 11.7777
 11.804
 11.8136
 11.6979
 9.40401
 9.46065
 9.31793
 9.51069
 8.95728
 8.9711
 9.01538
 9.11663
 10.8358
 10.8553
 10.7523
 10.7276
 10.8537
 11.0376
 10.8686
 10.8892
 7.91263
 7.88508
 8.00723
 8.00608
 5.5453
 5.66449
 5.41776
 5.36747
 5.88175
 5.99121
 5.84651
 5.80305
 5.9788
 6.17625
 6.13197
 6.02074
 7.53303
 7.63492
 7.4892
 7.64387
 10.8577
 11.0434
 10.9043
 10.9566
 10.7914
 10.6912
 10.6562
 10.6334
 8.99678
 9.07876
 9.24358
 9.27381
 7.43661
 7.52259
 7.28763
 7.40272
 7.50568
 7.59951
 7.53333
 7.41119
 8.59621
 8.74017
 8.62879
 8.59818
 8.09673
 7.95632
 8.1319
 8.10312
 11.6159
 11.6302
 11.5601
 11.4452
 13.6475
 13.7217
 13.6356
 13.7651
 10.478
 10.4908
 10.6388
 10.5507
 13.3237
 13.1981
 13.2282
 10.5648
 10.5994
 10.5143
 10.6676
 6.13693
 6.25421
 6.17667
 6.29075
 8.75089
 8.67782
 8.63302
 8.51357
 5.73565
 5.81332
 5.61818
 5.84252
 10.8981
 10.8774
 11.0259
 10.9043
 7.56226
 7.5793
 7.31732
 7.38471
 8.55157
 8.57838
 8.75145
 8.64934
 5.10896
 4.99786
 4.9492
 5.27072
 6.77939
 6.81526
 6.73924
 6.58619
 10.4467
 10.308
 10.4018
 10.4521
 7.51678
 7.53563
 7.69164
 7.50038
 6.48809
 6.75398
 6.61091
 6.71336
 12.3531
 12.4977
 12.4544
 12.489
 8.79253
 8.73463
 8.63689
 8.61607
 6.49895
 6.43033
 6.40074
 6.55035
 7.96656
 7.82223
 8.07283
 7.73092
 6.51647
 6.70526
 6.4944
 6.50746
 10.7352
 10.6087
 10.5366
 10.553
 6.71545
 6.39971
 6.7426
 6.46204
 9.47535
 9.39609
 9.63254
 9.48237
 9.18599
 9.12546
 9.02741
 9.22091
 6.79498
 6.85889
 6.98414
 6.70861
 4.58363
 4.72837
 4.73654
 4.63251
 11.6447
 11.5712
 11.5008
 11.4578
 10.0966
 9.96278
 9.89576
 10.063
 8.19558
 8.29956
 8.36887
 8.32357
 6.84749
 6.72738
 6.76574
 6.71471
 10.43
 10.5445
 10.4911
 10.4794
 11.3865
 11.2405
 11.171
 11.3551
 7.41437
 7.40326
 7.62372
 7.60067
 7.83937
 7.69846
 7.84679
 7.7827
 5.2803
 5.12086
 4.97919
 5.26796
 11.0717
 10.899
 11.107
 10.994
 5.42437
 5.26112
 5.28995
 5.394
 10.1106
 9.95971
 10.0694
 10.1167
 13.5646
 13.5787
 13.5238
 13.4987
 6.04821
 5.95463
 5.84741
 5.93554
 7.7299
 7.63723
 7.82089
 7.96672
 6.14458
 6.1216
 6.23994
 6.25335
 9.07914
 9.24909
 9.13241
 9.06255
 9.40405
 9.32592
 9.29364
 9.38298
 7.02025
 7.23161
 7.21165
 7.141
 10.8796
 10.8112
 10.9457
 10.849
 11.1347
 11.0587
 11.0448
 11.1086
 12.8945
 12.9539
 12.967
 12.9902
 8.46059
 8.35646
 8.28706
 8.21901
 8.9245
 8.99053
 8.73772
 8.90889
 8.03728
 8.28863
 8.10943
 7.98789
 10.0162
 9.80883
 9.78823
 10.0448
 5.42648
 5.43626
 5.32264
 5.62133
 5.35536
 5.05971
 5.34983
 5.39303
 7.89577
 7.81745
 7.68595
 7.67368
 14.3187
 14.3362
 14.2982
 14.2305
 9.48454
 9.57356
 9.45784
 9.65144
 9.41226
 9.45156
 9.6157
 9.45099
 9.49404
 9.45899
 9.64435
 9.63407
 6.82671
 6.9044
 6.67802
 6.92329
 12.5985
 12.466
 12.6707
 12.6012
 12.9802
 12.9952
 13.0783
 13.1266
 6.69585
 6.82789
 6.69684
 6.88936
 10.2393
 10.0605
 10.3054
 10.0888
 9.7929
 9.82491
 9.76337
 9.75675
 7.71969
 7.79078
 7.85383
 8.01349
 11.0501
 10.9729
 10.9229
 10.9974
 6.71311
 6.85931
 6.84037
 6.69931
 9.9788
 10.2259
 10.1132
 10.3058
 10.1856
 10.2063
 10.3258
 10.2248
 11.3977
 11.4721
 11.3321
 11.4843
 9.6299
 9.44293
 9.54908
 9.41875
 6.37235
 6.27903
 6.2974
 6.42238
 7.56861
 7.38555
 7.32129
 7.49017
 11.0078
 11.0257
 10.9051
 10.9048
 10.4528
 10.2783
 10.278
 10.4457
 5.88814
 5.8117
 5.68483
 5.76985
 6.84111
 6.98338
 6.90423
 6.94751
 9.3557
 9.41611
 9.50949
 9.41081
 11.527
 11.496
 11.5046
 11.4508
 12.1205
 11.9261
 11.9692
 12.0954
 7.83512
 8.00829
 8.08326
 7.92975
 11.2452
 11.3698
 11.2517
 11.5029
 6.10996
 6.33383
 6.32233
 6.12812
 8.21274
 7.98761
 8.11772
 8.2538
 6.67451
 6.72806
 6.79587
 6.70932
 7.46344
 7.67479
 7.65515
 7.52573
 9.44822
 9.53885
 9.43864
 9.33874
 10.7475
 10.9843
 10.9296
 10.8279
 11.9068
 11.714
 11.8824
 11.8639
 11.4563
 11.6251
 11.4421
 11.4959
 10.7914
 10.9394
 10.9667
 10.8836
 9.20567
 9.15027
 9.15556
 9.41022
 9.23069
 9.14566
 9.16508
 9.30242
 9.06285
 9.19505
 8.94285
 9.08096
 7.94704
 8.04191
 7.8792
 7.91017
 12.4945
 12.6242
 12.5652
 12.5768
 8.66269
 8.61843
 8.69047
 8.52605
 11.034
 11.1747
 11.1132
 11.0801
 9.82518
 9.62621
 9.77123
 9.66415
 5.49278
 5.80035
 5.541
 5.62585
 9.20617
 9.28399
 9.28979
 9.35754
 11.2779
 11.3528
 11.31
 11.4564
 9.76673
 9.80452
 9.68317
 9.60458
 10.7092
 10.63
 10.6375
 10.7582
 9.34804
 9.53777
 9.34559
 9.49843
 12.4351
 12.5352
 12.4868
 12.3885
 9.81907
 9.80662
 9.69026
 9.66979
 7.80186
 7.84614
 7.71862
 7.8499
 8.04994
 8.03246
 7.96545
 8.02224
 5.73878
 6.09509
 5.81501
 5.94937
 10.4274
 10.4477
 10.3106
 10.4073
 10.7433
 10.6496
 10.7623
 10.5086
 5.73247
 5.97961
 5.73646
 5.78231
 10.6996
 10.6959
 10.5498
 10.6934
 6.45142
 6.51826
 6.32425
 6.53443
 8.69552
 8.46515
 8.60303
 8.49755
 9.23096
 9.45202
 9.2476
 9.19448
 10.8332
 10.6846
 10.7031
 10.8367
 9.35044
 9.34775
 9.1592
 9.33619
 6.38258
 6.43808
 6.36209
 6.3404
 13.6482
 13.6087
 13.5783
 13.7226
 11.5811
 11.6101
 11.6107
 11.568
 11.4539
 11.4283
 11.458
 11.5517
 10.2325
 10.166
 10.3092
 10.1052
 9.83408
 9.95581
 9.86476
 9.93671
 10.3833
 10.4645
 10.4987
 10.37
 5.26548
 5.35082
 5.04618
 5.37066
 10.8917
 10.9851
 10.976
 10.7878
 8.08343
 8.0715
 8.00991
 8.18824
 9.12548
 6.732
 6.92427
 6.89637
 6.93528
 8.28016
 8.13664
 8.01673
 8.12784
 11.7406
 11.665
 11.6355
 11.6923
 10.1009
 10.1638
 10.047
 9.95219
 10.5053
 10.6481
 10.5514
 10.5378
 6.35585
 6.55179
 6.51835
 6.49701
 9.66382
 9.88981
 9.73057
 9.79579
 6.17596
 6.14718
 6.354
 6.32231
 7.5375
 7.4322
 7.61469
 7.38677
 11.6821
 11.5927
 11.6444
 11.4833
 10.8231
 10.9702
 10.7281
 10.8288
 7.92622
 7.81529
 7.79103
 7.91785
 9.30494
 9.49787
 9.29114
 11.3578
 11.421
 11.3692
 11.3038
 7.84821
 8.14078
 7.94582
 8.08496
 10.5538
 10.7178
 10.6921
 10.6136
 9.34982
 9.5733
 9.45681
 9.32992
 5.94842
 5.94923
 6.22142
 5.99683
 10.2607
 10.3199
 10.4074
 10.2855
 6.77913
 7.00112
 6.82499
 6.75482
 9.07255
 9.18797
 9.07954
 9.25793
 7.11086
 7.22887
 7.38474
 7.27701
 6.15894
 6.15624
 5.94258
 6.03896
 10.1664
 10.1885
 10.0723
 10.0829
 13.5816
 13.4208
 13.4372
 13.3544
 4.99042
 5.11495
 5.11443
 5.14602
 8.00386
 8.08459
 8.15324
 8.05365
 11.0619
 11.079
 10.8235
 11.0219
 9.8013
 9.6776
 9.65716
 9.80885
 12.2598
 12.2256
 12.2395
 12.3416
 6.1511
 6.0397
 5.81212
 5.99076
 11.4299
 11.5164
 11.4715
 11.4555
 8.54643
 8.39353
 8.61799
 8.50366
 10.9214
 11.18
 10.9746
 10.9895
 4.8019
 4.8354
 4.82184
 5.02575
 5.0329
 5.08226
 5.20555
 5.33533
 7.40126
 7.56774
 7.61751
 7.36034
 8.44667
 8.38537
 8.43067
 8.55661
 8.4013
 11.1824
 11.156
 11.3105
 11.2105
 10.9955
 11.0474
 11.0932
 10.9528
 7.79944
 7.64144
 7.63311
 7.61634
 11.2475
 11.1341
 11.1326
 11.2538
 10.6965
 10.743
 10.7618
 10.6319
 7.47218
 7.40761
 7.43333
 7.60148
 10.0735
 9.89519
 10.0724
 9.90092
 7.78517
 7.77037
 7.75128
 7.62655
 10.6337
 10.6678
 10.7772
 10.6537
 10.2724
 10.1764
 10.1427
 10.1286
 9.53638
 9.37886
 9.59252
 9.43436
 8.49268
 8.30706
 8.40761
 8.23226
 6.94478
 7.03499
 6.76771
 6.80909
 8.66813
 8.71602
 8.80502
 8.78473
 8.7093
 8.62004
 8.58158
 8.61583
 11.7491
 11.7523
 11.68
 11.6365
 8.05119
 8.031
 7.9499
 8.00862
 9.12622
 9.09234
 9.0173
 9.13074
 8.94691
 8.9649
 9.07367
 8.98194
 10.057
 10.0171
 10.1722
 10.0717
 11.3648
 11.3798
 11.3083
 11.4901
 7.26894
 7.31409
 7.219
 7.16772
 11.3161
 11.4159
 11.3813
 11.2182
 5.25709
 5.27372
 5.01986
 5.16834
 6.88073
 7.00586
 6.78271
 6.86403
 6.79369
 6.76574
 6.75581
 6.82236
 6.55193
 6.62835
 6.64823
 6.4477
 7.55914
 7.47717
 7.63891
 7.47696
 12.2567
 12.3305
 12.4539
 8.76909
 8.99283
 8.8028
 8.83058
 6.98113
 7.05774
 7.11212
 6.99493
 10.1379
 10.3022
 10.2148
 10.1768
 10.6493
 10.6058
 10.7041
 10.5883
 7.46463
 7.43404
 7.3042
 7.61723
 9.56007
 9.60122
 9.54606
 9.40719
 10.5209
 10.5099
 10.5681
 10.5856
 5.32994
 5.08753
 8.11959
 8.14271
 8.31813
 8.29402
 9.47385
 9.52568
 9.61377
 8.6337
 8.57932
 8.6056
 8.76761
 11.935
 11.9832
 11.8437
 11.8607
 6.77732
 6.64821
 6.64865
 6.85014
 8.69165
 8.73358
 8.82796
 8.80581
 10.1527
 10.2774
 10.2037
 10.074
 8.8542
 9.01618
 8.96486
 8.89305
 11.3037
 11.3719
 11.2538
 11.3134
 11.6044
 11.3806
 11.5442
 11.5023
 9.56768
 9.4455
 9.3976
 9.48707
 11.2278
 11.2589
 11.2421
 11.1387
 9.35905
 9.43995
 9.40803
 9.46721
 6.53307
 6.57782
 6.77803
 6.79951
 11.1604
 11.0805
 11.0236
 11.1104
 12.8547
 12.7439
 12.8095
 12.7488
 8.21964
 8.52136
 8.34465
 8.2765
 9.75061
 9.64252
 9.77702
 9.6445
 11.3094
 11.3307
 11.1994
 11.2263
 9.46459
 9.54481
 9.38158
 9.40545
 6.06123
 6.12023
 6.00771
 6.04349
 10.7787
 10.7882
 10.8562
 10.7897
 8.32185
 8.42312
 8.4192
 8.47141
 9.83066
 9.65983
 9.77564
 9.56596
 7.61921
 7.49571
 7.50889
 7.38303
 6.60875
 6.62716
 6.52973
 6.69178
 11.0835
 10.9703
 11.0439
 10.8478
 10.3228
 10.2149
 10.2428
 10.2755
 8.47405
 8.49145
 8.69363
 8.56463
 11.3784
 11.326
 11.3465
 11.3049
 13.5764
 13.6745
 13.6666
 13.6079
 8.88602
 9.02249
 9.02692
 9.04118
 13.8131
 13.8412
 13.7905
 13.7156
 13.6147
 13.4953
 13.4974
 13.5549
 11.8764
 11.7949
 11.8089
 11.9134
 8.01934
 8.13713
 8.23897
 8.29951
 8.12179
 7.97959
 7.97489
 7.8607
 7.86571
 8.00256
 7.89831
 8.07829
 8.28185
 8.45901
 8.4229
 8.21909
 12.412
 12.5034
 12.4389
 12.4591
 11.0858
 11.1541
 11.0062
 11.0617
 11.095
 11.256
 11.2307
 11.2036
 10.023
 9.86
 10.0135
 9.84451
 8.68677
 8.78348
 8.68112
 8.75469
 7.61382
 7.6391
 7.71579
 7.57689
 10.8817
 10.7288
 10.6986
 10.8513
 7.97945
 9.47751
 9.36247
 9.36149
 9.45349
 4.99127
 4.94497
 4.72286
 4.86082
 9.70039
 9.6928
 9.58124
 9.68755
 6.22325
 5.99851
 6.1629
 11.1852
 11.1091
 11.0609
 11.2092
 13.3155
 13.2091
 13.2504
 13.184
 9.26687
 9.28676
 9.10274
 9.37393
 10.073
 10.2638
 10.2211
 10.2442
 11.2307
 11.1402
 11.0603
 11.0242
 10.9887
 10.9409
 11.0585
 10.9263
 12.0302
 12.2095
 12.1018
 12.1026
 8.50845
 8.53603
 8.42226
 8.19628
 9.32968
 9.17006
 9.36887
 9.24211
 10.4533
 10.5773
 10.4593
 10.5074
 9.54229
 9.6587
 9.3675
 7.27064
 7.36833
 7.40199
 10.7604
 10.7478
 10.9218
 10.9522
 12.0509
 12.1015
 12.0982
 12.0545
 10.5247
 10.4327
 10.4417
 10.557
 11.9091
 12.0275
 11.8847
 12.0759
 7.20929
 6.94569
 7.13993
 7.08844
 7.41499
 7.34672
 7.29299
 7.18912
 11.3811
 11.432
 11.4084
 11.4259
 12.1654
 12.323
 12.2186
 12.1733
 8.83148
 9.04035
 8.86766
 8.95068
 5.52979
 5.69864
 5.44509
 5.65774
 12.0037
 12.0064
 12.0716
 11.9966
 7.98362
 8.15528
 8.165
 7.94943
 12.94
 13.0108
 12.931
 12.9833
 7.62433
 7.51826
 7.66605
 7.38426
 9.91635
 10.0352
 9.85234
 10.0725
 7.23144
 7.224
 7.04652
 7.06638
 11.2229
 11.1774
 11.1517
 11.0276
 10.186
 10.306
 10.2877
 10.2986
 10.6837
 10.7326
 10.5906
 10.5929
 10.5802
 10.6337
 10.4723
 10.7009
 8.89213
 8.78973
 8.81199
 8.95397
 9.65556
 9.78429
 9.6358
 9.64548
 6.95727
 7.11207
 7.20383
 7.14138
 5.23409
 5.07551
 5.42478
 5.44144
 9.79824
 9.81482
 9.92537
 9.82942
 6.5497
 6.61355
 6.69908
 6.4289
 7.72931
 7.49905
 7.41084
 7.52774
 12.4298
 12.4938
 12.6078
 12.4517
 11.3559
 11.1262
 11.1709
 11.2421
 9.96105
 10.0637
 10.1047
 10.0449
 11.9833
 12.0704
 12.0957
 12.1569
 8.74145
 8.57008
 8.59285
 8.66562
 7.21242
 6.90632
 7.07567
 7.03904
 11.9086
 11.7347
 11.8958
 11.9108
 9.49294
 9.36664
 9.45808
 9.43261
 10.5369
 10.5547
 10.5498
 10.6198
 13.5227
 13.4396
 13.4165
 13.5094
 10.2188
 10.2424
 10.2501
 10.1224
 9.34357
 9.244
 9.27139
 9.22157
 7.85574
 7.69812
 7.80352
 7.64934
 10.6914
 10.6581
 10.6286
 9.32238
 9.351
 9.39143
 9.35541
 10.3015
 10.361
 10.1298
 10.266
 8.12816
 8.28089
 8.14304
 8.21424
 8.06195
 7.87658
 7.92622
 7.94573
 6.22038
 6.36087
 6.26772
 6.47787
 10.9877
 10.9864
 10.8908
 11.015
 5.57883
 5.52191
 5.44696
 5.53862
 10.77
 10.6468
 10.7564
 10.8289
 9.34675
 9.17685
 9.19857
 9.10604
 9.15235
 9.32583
 9.25761
 9.35377
 13.7097
 13.8045
 13.7132
 13.7397
 10.3664
 10.4537
 10.354
 10.3307
 9.40519
 9.44115
 9.29755
 9.1277
 9.5338
 9.49182
 9.46283
 9.66507
 4.98358
 4.99625
 5.1787
 5.04029
 10.7758
 10.6305
 10.5469
 10.7355
 10.5906
 10.674
 10.5166
 10.7106
 7.71762
 7.53155
 7.67705
 7.59428
 11.1318
 11.1575
 11.234
 11.2474
 11.1664
 11.1939
 11.1096
 11.2054
 8.15638
 8.3618
 8.17558
 8.29684
 8.09325
 8.0866
 8.23084
 8.08444
 9.03309
 9.01454
 8.78198
 8.87707
 10.6433
 10.7126
 8.51385
 8.64236
 8.43996
 8.60658
 10.6161
 10.539
 10.619
 10.5806
 9.86965
 9.71338
 9.6596
 9.70882
 6.13787
 6.24991
 6.33011
 6.11695
 9.72829
 9.68235
 9.60679
 9.57735
 7.41813
 7.29276
 7.22159
 7.46362
 10.8389
 10.6145
 10.6931
 10.6264
 10.1069
 10.2417
 10.2603
 10.1992
 9.4494
 9.18516
 9.32493
 9.29878
 11.0533
 11.1719
 11.2181
 11.1324
 12.7793
 12.7305
 12.7926
 12.8518
 5.77495
 5.81842
 5.90241
 5.82994
 11.9204
 11.9277
 11.8699
 11.9652
 8.64082
 8.57756
 8.73999
 8.7304
 12.7807
 12.7662
 12.7116
 12.8303
 8.61632
 8.45469
 8.56082
 8.58139
 10.7497
 10.7652
 10.8133
 10.7923
 10.8036
 10.7634
 10.8964
 10.8163
 8.96126
 8.90252
 9.08265
 8.97287
 6.84229
 7.02406
 6.86962
 7.05856
 10.1558
 9.93461
 9.971
 9.97176
 11.4135
 11.4557
 11.4066
 11.3443
 6.90262
 6.64669
 6.77128
 6.5903
 10.716
 10.8044
 10.6365
 10.6215
 10.0478
 9.90705
 9.9455
 9.8587
 7.66466
 7.33294
 7.41138
 7.51916
 9.11903
 8.97093
 8.92649
 8.92418
 9.60791
 9.66833
 9.58957
 9.50862
 6.15151
 6.03303
 5.93367
 5.8669
 6.83659
 6.76401
 6.78034
 6.86628
 8.80281
 8.76982
 8.97613
 8.89559
 9.62598
 9.54322
 9.68914
 9.37929
 10.3591
 10.3118
 10.3051
 10.121
 11.4077
 11.4172
 11.5164
 7.42224
 7.32633
 7.34787
 7.22067
 12.849
 12.9209
 13.0277
 12.9983
 7.91175
 8.11748
 8.00719
 8.05048
 10.9619
 11.1331
 11.0396
 11.0273
 11.253
 11.387
 11.3476
 11.364
 6.52232
 6.70396
 6.61567
 6.3696
 9.17034
 9.25943
 9.11397
 9.21802
 9.50753
 9.5593
 10.6311
 9.81447
 9.6631
 9.84338
 9.74279
 12.786
 12.6917
 8.18687
 8.12328
 8.06437
 11.6344
 11.5679
 11.7295
 11.6334
 8.04499
 8.2255
 8.17063
 8.16178
 10.0393
 9.89796
 9.9396
 9.95443
 10.6836
 10.4748
 10.5985
 10.5737
 6.30394
 6.30188
 6.06266
 6.23778
 11.6075
 11.4854
 11.6182
 11.4722
 8.38771
 8.3899
 8.33504
 8.2381
 5.80633
 5.77105
 5.99697
 5.99808
 9.18919
 9.35738
 9.22229
 9.32877
 8.28638
 8.53443
 8.45456
 8.45794
 9.49013
 9.36452
 9.47644
 9.69901
 4.95851
 5.33187
 5.01509
 5.32981
 5.30047
 5.28351
 5.38821
 5.54822
 5.63479
 5.72714
 5.73526
 5.61527
 9.861
 9.98703
 9.84094
 9.85961
 8.72325
 8.93187
 8.84967
 8.76147
 9.6585
 9.67845
 9.7848
 9.70181
 9.94106
 9.97987
 9.80419
 9.99387
 7.99301
 7.94609
 7.92157
 8.11032
 6.92827
 6.7323
 6.8192
 6.7021
 6.86305
 6.79142
 6.97331
 6.70541
 9.13852
 9.057
 9.1726
 9.07115
 9.58736
 9.58064
 9.63535
 9.70546
 10.7957
 10.8712
 10.8256
 10.6771
 7.524
 7.37474
 7.36565
 7.57706
 11.9178
 11.9055
 12.0239
 11.8743
 7.36428
 7.26443
 7.36758
 7.39451
 8.93479
 8.67738
 8.91399
 8.73532
 9.00138
 8.95576
 8.97142
 9.10223
 11.4828
 11.4956
 11.5557
 11.6565
 13.9766
 13.9006
 14.0082
 13.9955
 10.3047
 10.1647
 10.3024
 10.2731
 7.30242
 7.50947
 7.43248
 7.30702
 11.2181
 11.3424
 11.2527
 11.1615
 8.7015
 8.61468
 8.80398
 8.61388
 8.52081
 8.40088
 8.24276
 8.30141
 7.68453
 7.59531
 7.84525
 7.77149
 12.1668
 12.2333
 12.2377
 12.144
 12.1362
 12.1179
 12.1754
 12.2016
 7.25134
 7.00109
 7.08759
 7.12816
 7.976
 8.21391
 8.23402
 8.08411
 10.4036
 10.383
 10.4617
 10.4571
 9.44116
 9.48464
 9.34312
 9.26346
 9.00611
 8.97292
 8.98385
 9.06911
 10.4129
 10.5213
 10.2887
 10.4792
 8.30996
 8.41782
 8.37794
 8.49752
 4.29156
 4.52717
 4.34862
 4.31374
 8.59036
 8.38747
 8.41239
 8.30738
 9.40848
 9.33481
 9.44252
 9.25915
 9.35235
 9.36049
 9.49081
 9.35547
 8.97674
 8.86577
 8.95872
 9.09433
 5.59604
 5.59649
 5.76048
 5.61365
 6.99252
 7.15105
 7.05183
 8.34709
 8.34352
 8.25247
 8.36936
 11.3894
 11.4064
 11.2895
 11.4166
 9.9098
 9.90662
 10.0214
 9.86201
 6.91853
 7.14601
 7.20938
 7.13594
 10.7932
 10.74
 10.7144
 10.6559
 10.1522
 10.2517
 10.2631
 10.1151
 9.95782
 10.0268
 10.1892
 10.0438
 7.99929
 8.11748
 8.1588
 8.13969
 8.88731
 9.01456
 8.87104
 9.13709
 8.33843
 8.6199
 8.51361
 8.46721
 11.1563
 11.0874
 11.0747
 11.1314
 10.1003
 10.0053
 9.97337
 10.1121
 8.16236
 8.28281
 8.13035
 7.98696
 10.1961
 10.135
 10.0544
 10.2569
 8.5949
 8.43578
 8.43897
 8.52279
 11.2211
 11.2694
 11.1878
 11.2911
 6.00061
 5.93838
 6.13796
 6.00167
 10.8423
 10.9318
 10.799
 10.7472
 10.9717
 11.2186
 11.065
 11.0639
 7.66656
 7.66313
 7.54094
 7.50056
 10.8454
 10.8161
 10.7887
 10.8028
 8.54755
 8.62292
 8.55052
 8.7112
 11.5486
 11.536
 11.691
 11.6631
 8.99836
 9.07929
 9.04827
 8.89186
 6.28346
 5.98268
 6.22831
 6.06677
 8.89624
 9.10901
 9.10886
 9.00053
 7.76292
 7.68852
 7.75441
 7.77138
 8.55389
 8.61492
 8.56487
 8.4838
 8.5939
 8.54403
 8.49285
 8.37324
 5.70322
 5.6745
 5.60522
 5.89322
 11.0773
 11.1598
 11.2264
 11.2404
 10.9164
 10.9743
 11.0905
 10.9804
 6.63989
 6.62045
 6.73893
 6.47727
 6.33247
 6.23066
 6.34134
 10.5069
 10.5648
 10.5711
 10.4716
 8.53013
 8.34686
 8.50909
 8.53563
 8.7011
 8.6483
 8.81366
 8.62742
 10.9711
 10.8604
 11.0488
 10.9545
 7.67966
 7.56078
 7.60269
 7.56671
 9.53947
 9.69896
 9.6841
 9.51414
 8.95315
 9.12303
 9.09917
 9.15215
 7.53445
 7.40261
 7.37498
 7.41683
 11.5025
 11.5557
 11.4919
 11.4274
 10.4542
 10.6124
 10.5787
 10.5727
 5.57263
 5.8486
 5.6304
 5.70624
 11.0771
 11.0977
 11.0544
 10.868
 11.4945
 11.554
 11.528
 11.5137
 9.50157
 9.43787
 9.51346
 9.31017
 12.7931
 12.7534
 12.8307
 12.6802
 9.15663
 9.12715
 9.20631
 9.14043
 7.38687
 7.46893
 7.51728
 7.54833
 6.8442
 6.95922
 6.90671
 11.6229
 11.6062
 11.5666
 11.612
 10.7916
 10.6397
 10.8193
 10.6738
 10.9761
 11.0225
 11.0777
 11.1206
 10.5748
 10.6777
 10.6131
 10.6467
 5.39849
 5.27478
 5.20019
 5.24592
 11.423
 11.4146
 11.4582
 11.5401
 10.6735
 10.7791
 10.6923
 10.5445
 6.98118
 6.88115
 6.99297
 7.0665
 10.1583
 10.2126
 10.1133
 10.547
 10.6898
 10.5785
 8.83049
 8.97561
 9.09561
 12.5521
 12.4212
 12.3994
 12.5062
 9.12457
 9.04054
 9.10679
 8.98233
 9.17567
 9.09832
 9.31597
 9.2694
 6.5807
 6.47179
 6.66054
 6.69536
 6.11307
 6.18546
 5.84889
 6.15993
 11.077
 11.1851
 11.1993
 10.986
 8.7848
 8.61169
 8.60862
 8.65052
 8.76874
 8.64629
 8.57716
 8.62793
 9.50784
 9.31948
 9.40205
 9.27428
 10.2397
 10.1699
 10.1575
 10.3358
 8.82823
 8.98009
 8.88817
 8.81057
 11.1242
 11.0922
 11.1519
 11.054
 6.42199
 6.49339
 6.41101
 6.36386
 10.5924
 10.6176
 10.5514
 10.4816
 6.84648
 7.0111
 6.91047
 6.8799
 5.93586
 6.05118
 6.16184
 5.97544
 6.19694
 6.25718
 6.25898
 6.30629
 10.8318
 10.9268
 7.90789
 7.94013
 8.05393
 7.97237
 11.0028
 10.8271
 10.9169
 10.9709
 7.45159
 7.15714
 7.26062
 7.19793
 6.81224
 6.97508
 6.74729
 6.95609
 10.3512
 10.2606
 10.2389
 10.3123
 8.91552
 8.92894
 8.78609
 8.85668
 10.606
 10.5938
 10.4949
 10.5907
 9.80851
 9.80904
 9.78522
 9.65894
 13.3895
 13.2237
 13.4205
 13.2738
 6.34461
 6.44553
 6.19526
 6.38289
 10.515
 10.6379
 10.4825
 10.4231
 11.6165
 11.7128
 11.7079
 11.5762
 9.64409
 9.70682
 9.56562
 9.5134
 11.5012
 11.6691
 11.7063
 11.5018
 9.75783
 9.91969
 9.95681
 9.83042
 7.85021
 7.90783
 7.71517
 7.96771
 9.40765
 9.50982
 9.51029
 9.44739
 6.56168
 6.27751
 6.55754
 9.61753
 9.47326
 9.67114
 9.50502
 13.44
 13.4933
 13.4873
 13.5354
 5.21548
 5.15224
 5.08337
 5.22225
 9.05957
 9.0773
 8.98698
 9.10314
 7.44183
 7.55943
 7.69401
 7.51505
 11.1512
 11.0327
 11.3208
 11.1951
 10.2543
 10.1442
 10.3684
 10.2387
 10.2536
 10.0506
 10.1576
 10.0591
 6.18344
 6.31592
 6.15473
 6.03907
 10.0995
 10.2129
 10.2929
 10.2512
 5.29608
 5.36288
 5.24189
 5.4674
 7.98864
 8.17123
 8.17591
 7.97351
 11.0794
 11.0493
 10.9974
 11.0691
 12.8552
 12.8226
 12.7279
 12.8897
 9.7686
 9.97237
 9.85016
 10.01
 9.33516
 9.33687
 9.20561
 9.36591
 7.69696
 7.70368
 7.79478
 7.9442
 13.301
 13.3992
 13.2529
 13.3265
 9.75463
 9.86604
 9.67588
 9.7293
 5.66085
 5.78401
 5.81641
 5.7731
 7.16226
 7.01178
 7.07325
 7.13273
 7.09321
 7.11697
 6.95441
 7.16749
 7.14253
 7.28498
 7.32836
 7.25518
 7.04756
 6.81887
 6.95481
 6.97159
 8.59233
 8.52678
 8.59672
 8.60005
 10.9119
 10.6956
 10.5531
 10.5241
 10.6208
 8.16018
 8.35406
 8.28625
 8.2933
 8.19336
 8.14767
 8.3586
 8.33222
 12.0631
 12.0007
 12.0124
 12.0629
 6.64999
 6.65143
 6.73472
 6.64976
 7.47286
 7.32983
 7.16463
 7.28166
 11.0994
 10.9086
 10.9424
 10.7363
 10.7379
 10.7672
 10.6811
 10.592
 10.6244
 10.5332
 10.8486
 11.0028
 11.1914
 11.0809
 8.19678
 8.02118
 8.06844
 8.23448
 5.59906
 5.55183
 5.6398
 5.55018
 9.35369
 9.42289
 9.31629
 9.50058
 6.04484
 6.33994
 6.42257
 6.44507
 9.72182
 9.75758
 9.81882
 9.66463
 8.14745
 8.29766
 8.39298
 8.36856
 10.972
 10.9952
 11.0223
 11.1273
 8.86604
 8.68499
 8.93004
 8.78465
 8.56841
 8.38736
 8.29448
 8.551
 10.8625
 10.9224
 11.0405
 10.9793
 10.1499
 10.2396
 9.97035
 10.062
 9.64753
 9.66744
 9.78114
 9.86225
 8.74618
 8.67727
 8.74133
 8.66171
 11.8002
 11.7871
 11.7413
 11.6454
 8.34352
 8.5122
 8.41902
 8.30659
 10.1229
 10.2942
 10.0957
 10.0213
 7.93038
 7.9663
 7.93346
 8.05001
 6.53216
 6.69522
 6.56269
 6.64076
 6.03321
 6.15206
 6.14736
 6.09274
 6.07492
 5.95738
 6.27116
 5.24245
 5.12366
 5.03914
 4.95823
 7.04987
 7.23971
 7.4173
 7.1834
 9.37713
 9.41032
 9.30083
 9.32426
 5.91658
 6.03611
 6.15026
 5.95094
 9.17073
 9.16075
 9.25059
 9.27139
 8.65514
 8.5695
 8.61513
 6.38622
 6.21924
 6.31881
 6.33522
 6.46531
 6.6469
 6.57237
 8.84041
 8.89118
 8.76201
 8.71835
 10.2058
 10.1387
 10.2268
 10.0389
 8.05294
 8.18016
 8.22447
 8.24974
 6.14
 6.0118
 6.10837
 6.18394
 10.6412
 10.6821
 10.6201
 10.7472
 9.46751
 9.51826
 9.62079
 9.66344
 9.22349
 9.00605
 9.22577
 9.21637
 7.82458
 7.98606
 7.87363
 7.8614
 10.7109
 10.8024
 10.6122
 10.7764
 11.1826
 11.2858
 11.1725
 11.1888
 9.32954
 9.32941
 9.35221
 9.20983
 5.3766
 5.48896
 5.50838
 5.47435
 10.5198
 10.6752
 10.4999
 10.5941
 11.0601
 10.9496
 11.1003
 10.9563
 8.39016
 8.59927
 8.38671
 8.41673
 10.5672
 10.5041
 10.5855
 11.1732
 11.0605
 11.1096
 8.70532
 8.82594
 8.58011
 8.77015
 10.9779
 11.0337
 11.1279
 10.9871
 11.0543
 11.2014
 11.0812
 11.0857
 8.31836
 8.27353
 8.35842
 10.8397
 10.8602
 6.70782
 6.66937
 6.41715
 6.3886
 8.05508
 7.81725
 7.82479
 7.90049
 11.8383
 11.7439
 11.9187
 11.7076
 12.5762
 12.5291
 12.6655
 12.5375
 10.489
 10.7319
 10.5886
 10.5706
 6.39804
 6.39986
 6.29994
 6.3771
 8.06752
 8.18291
 8.25783
 8.19045
 11.5539
 11.5839
 11.5914
 11.6093
 10.5769
 10.5672
 10.4933
 10.4039
 10.5261
 10.4917
 10.5237
 10.8745
 10.7794
 10.7633
 10.7665
 10.7882
 10.8862
 10.7599
 10.7216
 11.1355
 11.2817
 11.1661
 11.2573
 5.92527
 5.75134
 5.88608
 5.87756
 5.96035
 5.79284
 6.0694
 9.4198
 9.52176
 9.39968
 9.56664
 10.6181
 10.7903
 10.5934
 10.641
 5.21736
 5.07239
 11.1619
 11.2529
 11.2286
 11.308
 8.92896
 8.67016
 8.83783
 8.71557
 8.45049
 8.51047
 10.9845
 11.0137
 10.8843
 10.9774
 5.88995
 5.75349
 5.96278
 5.63148
 5.41236
 5.55571
 5.44186
 5.15685
 9.69096
 9.6271
 9.67793
 12.0351
 11.9339
 11.9801
 10.7497
 10.5798
 10.7629
 10.724
 7.48215
 7.64598
 7.3651
 7.61776
 10.2592
 10.3572
 10.3955
 10.4779
 10.4679
 10.5423
 10.4153
 10.5668
 8.14319
 8.14495
 8.08085
 7.888
 13.1992
 13.1154
 13.2118
 13.3021
 7.73028
 7.69989
 7.54607
 7.57238
 7.61673
 7.63768
 7.49722
 7.43733
 11.2017
 11.1933
 11.3738
 11.2408
 6.50745
 6.3949
 6.3722
 6.54955
 13.4073
 13.5302
 13.5285
 13.6145
 5.97376
 6.31595
 6.30791
 6.31777
 6.92203
 7.08569
 10.4633
 10.3694
 10.393
 10.2955
 11.3394
 11.4678
 11.3912
 11.293
 6.62958
 6.46912
 6.49799
 6.5707
 10.2977
 10.2642
 10.2739
 10.3609
 5.32174
 5.43961
 5.36038
 10.6668
 10.7825
 10.8283
 11.5037
 11.355
 11.3202
 6.10072
 6.00221
 6.05936
 6.12996
 10.6439
 10.7252
 10.7299
 10.7177
 6.54349
 6.52563
 11.5552
 11.4598
 11.5585
 11.526
 9.25041
 9.09197
 9.09931
 9.22027
 10.4763
 10.5372
 9.94813
 9.67687
 9.70342
 9.85741
 10.3975
 10.4175
 10.4047
 10.5455
 5.41449
 5.23957
 5.51414
 5.43656
 11.4105
 11.4708
 11.4423
 7.09599
 13.3487
 13.3851
 13.3747
 13.4178
 6.58174
 6.53837
 6.44104
 6.73772
 10.4522
 10.437
 10.2044
 10.2684
 7.66564
 7.75456
 7.72807
 7.68869
 10.4301
 10.5291
 10.5882
 10.4651
 8.21604
 12.0489
 12.0828
 12.0837
 12.0334
 8.17614
 8.17938
 8.22112
 8.34775
 7.01223
 6.9332
 6.8335
 7.1514
 7.07466
 7.26435
 7.05198
 6.53142
 6.32587
 6.47038
 6.44122
 11.1276
 11.082
 10.9302
 11.0094
 6.50658
 6.50534
 6.53284
 6.36442
 11.5833
 11.6055
 11.5805
 11.7128
 6.68119
 6.57453
 6.51378
 6.50891
 9.49845
 9.58111
 9.60067
 9.63769
 7.74748
 7.64595
 7.59036
 7.55079
 8.84597
 8.92367
 8.97158
 9.01603
 5.86915
 6.12426
 9.11728
 9.25425
 9.22538
 9.12097
 11.9342
 11.9882
 11.8356
 11.9847
 11.5445
 11.5965
 11.4191
 11.5712
 8.86262
 8.73364
 8.70839
 8.69781
 7.62129
 7.63114
 7.65256
 7.44493
 7.27411
 7.43801
 7.33213
 7.23238
 6.28549
 6.48334
 6.42558
 6.55533
 7.28759
 7.06176
 7.18667
 7.28075
 11.5165
 11.5286
 11.4449
 11.6092
 11.0117
 11.0266
 11.0525
 10.8625
 5.08205
 5.23367
 5.29247
 5.27392
 8.64657
 8.5622
 8.60902
 8.37505
 10.8371
 10.6705
 10.8217
 10.7307
 12.9153
 12.9315
 12.8002
 12.9881
 6.518
 6.43551
 6.59857
 6.25931
 10.7756
 10.7401
 10.7064
 10.6194
 9.83488
 9.7107
 9.91766
 9.80421
 11.7082
 11.7429
 11.7192
 11.6226
 8.34184
 8.43313
 8.36061
 8.35021
 6.13817
 6.12466
 6.19752
 6.14156
 8.59642
 8.82908
 8.7452
 8.78548
 9.68206
 9.63509
 9.50477
 9.58267
 11.8355
 11.7705
 11.7114
 11.8892
 6.09835
 7.9447
 7.82389
 8.01845
 7.82238
 9.80512
 9.8769
 10
 9.93328
 7.51265
 7.41474
 7.44607
 7.29389
 10.7901
 10.9129
 10.8439
 10.756
 8.42141
 8.30841
 8.4896
 11.9172
 11.74
 11.8729
 11.8756
 6.95501
 7.27217
 7.08169
 7.17542
 11.37
 11.395
 11.2988
 11.3718
 4.5211
 4.59774
 4.54086
 4.41564
 10.7925
 10.7721
 10.7498
 10.7745
 12.6461
 12.389
 12.4167
 12.513
 11.9566
 11.9714
 11.8709
 11.8681
 5.14707
 5.26097
 5.31752
 5.38231
 5.84327
 5.85572
 5.75484
 5.73195
 9.41921
 9.28622
 9.3419
 9.26444
 10.6179
 10.6645
 10.5779
 8.97852
 8.99936
 9.1991
 9.12813
 8.01534
 8.1024
 7.90518
 7.91184
 8.88794
 8.59547
 8.69417
 8.72972
 9.18379
 9.15076
 8.89233
 9.01601
 5.11354
 5.2571
 5.2529
 5.32585
 11.0936
 11.1505
 10.9532
 11.091
 11.9154
 12.1145
 12.0937
 7.60586
 7.70819
 7.68397
 7.77516
 6.74573
 6.58
 6.68436
 6.71928
 10.7656
 10.7862
 10.7387
 11.0407
 11.0151
 10.9361
 11.1342
 6.31212
 6.42172
 6.24161
 6.51266
 9.49794
 9.53632
 9.3851
 9.49304
 10.9307
 11.0767
 10.9578
 10.962
 9.86187
 9.94309
 9.92956
 9.82714
 6.97167
 6.96586
 7.12216
 6.96542
 10.7604
 10.5808
 10.8433
 10.6374
 9.69961
 9.92678
 9.8778
 9.77726
 10.406
 10.2403
 10.3595
 5.91614
 5.95214
 6.06855
 6.0797
 9.35096
 9.34529
 9.44227
 9.2712
 5.01946
 5.10869
 4.75421
 9.11976
 9.02512
 9.07398
 9.1183
 11.7602
 11.6636
 11.8232
 11.7691
 8.63978
 8.60476
 8.52127
 8.37942
 9.22159
 9.02029
 9.27517
 10.7142
 10.6828
 10.5566
 10.6157
 11.4357
 11.3932
 11.476
 11.3606
 10.7998
 10.7135
 10.6305
 10.8076
 12.7163
 12.6816
 12.5718
 12.5546
 10.0472
 10.0809
 10.1435
 10.1602
 10.4363
 10.4976
 10.3065
 10.5285
 6.10474
 6.36961
 6.31598
 6.01579
 11.381
 11.2132
 11.269
 11.3076
 8.23153
 8.29495
 8.19118
 8.11971
 5.3908
 5.35029
 5.46172
 5.55579
 5.35374
 5.61406
 5.49575
 5.43325
 7.146
 7.03635
 7.13727
 7.10035
 5.3376
 5.0861
 5.11168
 5.45612
 6.1504
 6.13597
 6.16007
 4.96517
 5.26796
 5.18583
 5.18478
 11.7643
 11.8267
 11.7694
 11.8683
 9.82612
 9.99967
 10.0309
 9.97173
 10.3118
 10.1503
 10.2759
 10.1429
 10.2114
 10.3008
 10.2944
 10.3363
 5.96739
 6.09916
 5.95038
 5.91042
 9.97534
 9.96879
 10.0999
 10.1349
 10.7466
 10.9012
 10.9207
 10.7906
 7.80384
 7.8505
 7.68037
 7.90855
 10.5656
 10.4424
 10.5693
 10.4567
 7.54995
 7.68246
 7.74717
 9.0009
 8.83821
 8.80023
 6.3428
 6.54318
 6.53906
 6.46899
 9.85038
 9.7929
 9.90244
 9.90282
 8.22882
 8.37439
 8.3234
 8.19252
 10.2567
 10.4302
 10.355
 10.21
 4.99653
 5.10672
 5.61918
 5.69279
 5.76491
 5.53421
 11.8469
 11.8954
 11.8936
 11.9726
 8.22776
 8.10078
 8.06703
 7.94443
 10.7015
 10.5583
 10.6929
 10.768
 13.7755
 13.9416
 13.7849
 13.8354
 10.7484
 10.8117
 10.8956
 10.8004
 7.68808
 7.84916
 7.69632
 11.4356
 11.4528
 11.2824
 11.2997
 5.49348
 5.68149
 5.45416
 5.6279
 10.7113
 10.6529
 10.6979
 10.6354
 8.38902
 8.23026
 8.28737
 8.37429
 11.6535
 11.6166
 11.7434
 11.65
 13.0799
 13.0643
 13.0333
 12.9804
 10.9398
 10.8316
 10.9413
 10.9786
 10.019
 10.0776
 9.96761
 8.80424
 9.05228
 8.80447
 8.90886
 11.1576
 11.1383
 11.2619
 7.43557
 7.5085
 7.39165
 7.28268
 7.13532
 6.89122
 7.15059
 6.94001
 7.76384
 7.95942
 7.81129
 7.7774
 5.70467
 6.10992
 5.97255
 5.91176
 7.21933
 7.31805
 7.20068
 10.3925
 10.2928
 10.3183
 10.2452
 7.43054
 7.58663
 8.05025
 8.20088
 8.25619
 8.13326
 7.74804
 7.81243
 7.77793
 7.68163
 10.8314
 10.769
 10.7986
 10.9169
 10.8232
 10.7201
 10.8183
 10.7125
 13.7928
 13.7181
 13.6914
 13.7425
 10.8362
 10.7204
 10.8358
 10.295
 10.3504
 10.3851
 10.3366
 9.18885
 9.18926
 9.27356
 9.30568
 10.3123
 10.1763
 10.1661
 10.2636
 11.7791
 11.7068
 11.7998
 11.7965
 6.93842
 7.17738
 7.00003
 7.11242
 9.46492
 9.35484
 9.46029
 9.56678
 6.18442
 6.18457
 6.24388
 6.12691
 8.81199
 8.94763
 8.82273
 8.91805
 5.86385
 5.76567
 5.83868
 12.9642
 12.8575
 12.8941
 12.8858
 7.80711
 7.54523
 7.74731
 7.72251
 9.64027
 9.76591
 9.61222
 9.68228
 11.0522
 11.148
 10.2631
 10.2301
 10.1564
 10.1881
 9.77691
 9.94865
 9.91651
 6.25231
 6.19086
 6.36137
 6.23741
 6.07634
 6.1807
 6.32358
 6.25806
 11.1269
 11.1586
 11.0789
 11.1465
 9.57027
 9.61086
 10.5913
 10.4552
 10.5453
 10.6593
 7.31024
 7.45433
 7.17536
 7.16325
 11.7432
 11.7175
 11.7602
 11.6786
 10.94
 10.8991
 11.0088
 11.0196
 10.6497
 10.5015
 10.4345
 10.5087
 9.00541
 9.02374
 9.02771
 8.80892
 7.5991
 7.61946
 7.72122
 7.73449
 7.24666
 7.35359
 7.48506
 7.33006
 13.4109
 13.4309
 13.475
 13.5127
 11.4026
 11.2763
 11.2267
 8.7346
 9.00865
 8.8464
 8.59162
 8.4643
 8.61352
 8.4224
 6.10594
 5.97022
 6.07273
 5.91132
 9.4245
 10.6993
 10.6992
 10.834
 10.815
 8.09647
 8.18874
 8.32744
 8.25966
 7.05099
 7.24522
 7.23248
 7.02196
 6.85968
 6.83636
 11.127
 11.182
 11.242
 11.2603
 9.1304
 9.00216
 9.04825
 8.9862
 11.519
 11.5581
 11.5206
 11.4698
 8.50133
 10.0527
 10.1404
 9.92074
 9.86864
 10.3472
 10.2528
 10.1939
 10.2847
 6.0937
 6.2878
 5.75925
 5.6167
 5.52645
 5.67616
 12.3384
 12.4396
 12.3799
 12.3381
 7.25147
 7.22678
 7.43531
 7.16172
 8.5837
 8.77366
 8.69068
 8.51891
 13.2298
 13.1953
 13.1966
 13.2755
 9.23388
 9.22925
 9.15379
 9.30718
 9.35782
 9.52465
 9.61879
 9.61218
 11.0884
 11.2145
 11.038
 11.0956
 5.21235
 5.03219
 5.01827
 4.9904
 9.50381
 9.65886
 9.64303
 10.4276
 10.2904
 10.2859
 10.4136
 5.61756
 5.37112
 5.55501
 5.5215
 10.4753
 10.5564
 10.667
 10.4436
 9.68526
 9.58118
 6.86129
 6.86301
 6.7208
 7.0102
 8.78643
 8.76369
 8.5773
 8.58212
 5.70545
 5.81361
 5.60668
 5.71408
 9.59063
 9.35766
 10.893
 10.8433
 10.8115
 10.8198
 10.5208
 10.495
 10.3998
 10.354
 6.6763
 6.65019
 6.86522
 6.78933
 7.22177
 7.3035
 7.15653
 7.1615
 7.3428
 7.53583
 7.36158
 7.39056
 10.4989
 10.3262
 10.3966
 10.4854
 12.4112
 12.4897
 12.4533
 12.4138
 5.3181
 5.12488
 5.30354
 5.21385
 11.1842
 11.175
 11.1578
 11.0858
 8.90235
 8.78024
 8.75289
 8.87216
 10.1763
 9.95991
 10.1107
 10.0322
 8.9125
 9.09536
 8.93108
 8.26114
 8.06847
 8.25196
 8.02271
 9.33638
 9.2274
 9.30457
 9.42718
 7.68519
 7.61362
 7.48412
 7.72163
 7.67412
 7.73896
 7.66471
 7.93402
 13.2074
 13.0461
 13.1981
 11.6073
 11.481
 11.4127
 11.4641
 8.87101
 8.97861
 8.9339
 8.94548
 6.90663
 6.71617
 6.82041
 6.70821
 10.6745
 10.843
 10.6769
 10.6132
 10.5304
 10.5184
 8.52742
 8.61522
 8.50609
 8.50061
 8.98557
 8.839
 8.79242
 8.77041
 4.24317
 4.28572
 4.38352
 4.18422
 11.931
 11.8835
 11.9674
 12.1141
 7.49909
 7.4543
 10.0045
 9.86107
 9.84367
 9.99052
 7.84076
 7.74142
 7.75905
 7.71626
 8.63056
 8.59892
 8.49319
 8.54891
 9.85838
 9.84923
 9.71644
 9.95199
 8.09818
 7.94706
 7.9906
 7.96506
 11.1201
 11.0631
 11.0797
 10.9791
 11.4854
 11.5961
 11.4685
 11.5307
 6.90812
 6.8351
 6.70848
 6.45964
 8.95254
 8.87245
 8.75193
 12.5704
 12.6264
 12.5287
 6.61057
 6.50396
 6.47854
 6.41689
 6.38389
 6.44004
 6.52626
 6.54222
 9.26232
 9.22764
 9.19188
 9.1114
 6.09651
 5.98336
 6.02326
 6.00939
 5.60927
 5.38882
 5.57788
 5.36109
 9.7934
 9.72491
 9.61087
 9.75968
 7.04861
 6.96394
 6.89555
 6.91278
 4.37202
 4.3184
 4.48591
 4.28147
 7.35361
 7.33875
 7.43943
 7.19209
 8.81206
 9.02822
 8.93497
 9.08598
 6.72258
 6.62929
 6.76246
 6.80926
 7.82545
 7.86495
 7.74635
 8.36171
 8.22219
 12.1469
 12.1285
 12.1747
 12.2162
 8.41785
 8.26
 8.3015
 8.3281
 12.3387
 12.3095
 12.2885
 12.2821
 12.1987
 12.2239
 12.0951
 12.0579
 8.66958
 8.59386
 8.58095
 8.71912
 10.0413
 10.0419
 10.1639
 9.98207
 8.12577
 7.95274
 7.99819
 8.01774
 9.1553
 9.26655
 11.6621
 11.73
 11.6984
 11.5923
 5.4705
 5.40184
 5.31303
 5.45001
 9.95331
 10.058
 9.8335
 9.92952
 6.55754
 6.6224
 6.75871
 6.64335
 11.632
 11.7294
 11.6311
 11.6819
 6.28184
 6.0034
 6.08835
 6.04669
 8.37195
 8.58284
 8.41584
 8.43898
 10.6167
 10.7534
 10.8539
 10.776
 4.67089
 4.75486
 4.73562
 4.86063
 10.3854
 10.2234
 10.3494
 10.3873
 9.73237
 9.93867
 9.79615
 9.88349
 5.41623
 5.38261
 5.54824
 5.36634
 9.26226
 9.47787
 9.41387
 9.41928
 6.73814
 6.60805
 6.69139
 6.75428
 6.79041
 6.91674
 6.86333
 9.68091
 9.93113
 9.82065
 9.86446
 6.87705
 6.72232
 6.82871
 6.77203
 11.2317
 11.0881
 11.1048
 11.2364
 6.43674
 6.32447
 6.33641
 6.41399
 6.51791
 6.58109
 6.48079
 6.55212
 10.9587
 10.9889
 10.746
 10.8744
 10.8718
 10.9233
 10.7918
 10.9807
 14.2017
 14.172
 14.2625
 14.2387
 7.23504
 7.43128
 7.40664
 12.1197
 11.9546
 11.9525
 12.0263
 5.76016
 5.91215
 5.8745
 5.84638
 10.9966
 6.61268
 6.79344
 6.74064
 6.60679
 6.60609
 6.75426
 6.75201
 13.3891
 13.5121
 13.4771
 13.42
 13.5522
 13.553
 13.5739
 13.6073
 5.78411
 5.94216
 5.80258
 5.68731
 10.8501
 10.9104
 10.7823
 10.9344
 7.88182
 7.96437
 7.77841
 10.2321
 10.3518
 10.2415
 10.4317
 9.6847
 9.67576
 9.73562
 6.58759
 6.65911
 6.40287
 8.60144
 8.49207
 8.46863
 8.5787
 10.1877
 10.3326
 10.3406
 10.234
 11.0045
 10.9594
 11.0282
 10.9725
 7.90569
 7.79898
 7.78253
 11.6746
 11.6128
 11.7919
 11.7962
 10.8843
 10.6369
 10.8022
 9.79818
 9.56651
 9.61108
 9.71111
 11.0056
 10.8756
 10.8849
 10.9317
 10.9489
 10.7777
 10.7464
 10.7888
 6.46645
 6.58842
 6.57273
 6.60326
 9.53448
 9.66431
 9.56669
 9.49004
 10.4029
 10.4326
 8.81163
 8.9204
 8.84684
 9.00011
 5.91776
 5.93231
 5.86459
 5.91236
 5.93956
 14.3292
 14.3611
 14.3748
 14.3305
 7.05505
 6.87337
 6.97592
 5.21098
 5.26047
 5.35056
 5.24733
 7.43814
 7.67066
 7.62517
 7.65977
 11.0386
 10.9868
 10.9156
 11.0468
 9.65572
 9.76102
 9.80277
 9.78686
 5.06236
 5.07107
 5.12564
 5.15884
 7.21999
 7.34771
 7.45438
 7.32731
 11.7492
 11.8516
 11.8598
 11.6949
 9.86401
 9.82878
 9.79608
 10.0214
 10.0844
 10.015
 9.93509
 10.0529
 14.3503
 14.3678
 14.367
 14.3424
 11.2437
 11.2713
 11.3126
 11.1896
 7.25242
 7.04289
 7.26384
 7.15397
 8.45921
 8.47399
 8.32447
 8.52331
 9.44592
 9.34747
 9.22518
 9.40313
 7.70087
 7.53098
 7.58508
 7.59098
 8.36155
 8.36209
 8.2228
 8.37774
 7.56076
 7.56098
 7.68723
 7.37259
 4.61702
 4.91561
 4.82677
 4.53726
 6.99854
 7.08701
 7.12591
 7.35383
 7.64191
 7.74708
 7.86113
 7.68824
 7.92812
 8.87694
 8.88207
 8.98268
 8.73209
 5.82474
 5.89465
 5.93237
 5.92493
 9.57737
 9.66335
 9.51919
 9.57387
 8.59352
 8.5234
 8.4401
 8.68751
 9.11353
 9.27458
 9.16457
 9.03631
 10.1258
 10.3274
 10.176
 10.3049
 12.8348
 12.7787
 12.6421
 12.8468
 4.38636
 4.66218
 8.1162
 8.20976
 8.22389
 13.9274
 13.9258
 13.9348
 10.6621
 10.7598
 10.6961
 10.8093
 12.1669
 12.151
 12.3204
 12.3272
 11.2526
 11.3181
 11.2224
 11.3921
 5.60096
 5.84772
 5.73925
 5.71369
 8.92326
 9.11103
 9.03454
 9.13609
 7.80914
 7.62547
 7.63591
 7.48083
 8.39676
 8.44458
 8.55343
 8.65774
 7.59951
 7.53076
 7.66919
 7.62496
 9.40159
 9.39626
 6.67902
 7.05113
 6.71119
 7.02485
 7.43119
 7.53991
 7.62089
 7.30716
 10.701
 10.8613
 10.6794
 10.8376
 10.7526
 10.7131
 10.7171
 10.6999
 8.71784
 8.69649
 8.75978
 8.65178
 8.77219
 8.67917
 8.57718
 8.46543
 11.3007
 11.4706
 11.5188
 11.2597
 7.56404
 7.68749
 7.74617
 7.76591
 4.78145
 4.88351
 4.79961
 4.86719
 6.54504
 6.64125
 6.62889
 6.70881
 4.60298
 4.51168
 4.68354
 4.46747
 6.33894
 6.15622
 6.20492
 6.19501
 8.97794
 8.77858
 8.95168
 8.9039
 7.82447
 7.93357
 9.32387
 9.1352
 9.3714
 9.2683
 10.7822
 10.6542
 10.6724
 10.6222
 7.16781
 6.93397
 6.92569
 7.09442
 9.38087
 9.41872
 9.37504
 9.54453
 9.76496
 9.88017
 9.91995
 9.85393
 10.9875
 10.9848
 10.9197
 10.8051
 10.4728
 10.4837
 10.557
 10.348
 10.8611
 10.7739
 10.7537
 10.8165
 12.7465
 12.7274
 12.809
 12.7805
 7.30376
 7.24353
 7.4244
 7.27962
 7.96605
 7.92149
 12.4608
 12.4287
 12.4412
 12.5623
 10.2747
 10.2228
 8.11597
 8.24543
 8.09142
 6.70473
 6.65962
 11.2489
 11.2707
 11.3344
 11.1756
 12.594
 12.5247
 12.5307
 12.4975
 11.4389
 11.3644
 11.2883
 11.2616
 10.2976
 10.1954
 10.1609
 10.1357
 8.38271
 8.57868
 8.58498
 8.5703
 7.78096
 7.85185
 7.87517
 7.90426
 10.3626
 10.2306
 10.2163
 10.254
 8.65211
 8.66627
 8.59246
 8.82477
 8.99689
 9.10537
 9.14014
 9.05944
 8.85709
 8.74475
 8.66963
 8.74562
 8.69891
 8.93098
 8.69248
 9.32785
 9.44443
 9.20746
 9.30769
 10.0029
 9.93918
 10.1066
 10.0229
 10.8727
 10.7622
 10.9439
 10.7673
 5.78921
 5.84702
 5.73739
 5.62593
 9.54907
 9.55041
 9.39606
 9.40767
 11.4922
 11.4931
 11.6843
 11.5351
 11.7513
 11.7346
 11.774
 11.8139
 11.4348
 11.5247
 11.5183
 11.4595
 10.889
 10.9021
 10.7479
 10.7191
 10.9201
 11.0041
 11.0403
 10.9817
 6.19581
 6.0903
 6.0855
 6.04314
 9.6936
 9.697
 9.72754
 9.58017
 7.47529
 7.33275
 7.46797
 7.53866
 10.8449
 10.6802
 10.8788
 10.7568
 5.6242
 5.55809
 5.57101
 5.41297
 5.34765
 5.38375
 5.19182
 7.50023
 7.82329
 7.71615
 7.70352
 10.6433
 10.5759
 10.7224
 10.6059
 4.88787
 5.13608
 5.08403
 9.89099
 10.0068
 9.92318
 10.1092
 6.36928
 6.34036
 6.72941
 6.67024
 6.52186
 6.72216
 10.1277
 10.2169
 10.1595
 11.5387
 11.4893
 11.6363
 11.5877
 10.8188
 10.8905
 10.7572
 10.751
 9.07873
 8.90647
 9.12489
 5.3984
 5.72271
 5.69447
 7.53218
 7.7303
 7.78867
 7.68001
 5.39212
 5.44765
 5.66873
 5.23761
 9.79448
 9.63499
 9.56007
 9.6567
 6.16732
 6.12644
 6.0383
 6.30001
 8.94821
 8.91088
 9.02089
 9.09699
 10.5024
 10.6393
 10.5683
 5.04026
 5.2027
 5.11151
 4.86039
 8.02459
 8.56564
 8.37444
 8.44075
 8.52966
 8.245
 8.22631
 8.35147
 10.5779
 10.6613
 10.6471
 10.6526
 10.6574
 10.4834
 9.71477
 9.86499
 9.87071
 9.89804
 9.70616
 9.52792
 9.66436
 9.5592
 7.649
 4.85795
 5.13063
 5.17647
 4.99974
 13.1179
 13.241
 13.1749
 13.1875
 10.3124
 10.3972
 10.623
 10.6693
 10.6019
 10.5679
 10.6749
 10.66
 10.8428
 10.7749
 7.41084
 7.61884
 7.59805
 7.48989
 7.2743
 7.19312
 7.39656
 7.24477
 10.3338
 10.4531
 7.81122
 7.78673
 7.5745
 7.71369
 7.74821
 7.56379
 7.73362
 8.60994
 8.7279
 8.81404
 8.86564
 9.51321
 9.65224
 9.52343
 9.66195
 7.3961
 7.16026
 7.18859
 7.37391
 6.82746
 6.77982
 6.66476
 6.83763
 7.05482
 6.87223
 7.00835
 7.31148
 7.25657
 7.28859
 7.43149
 9.74933
 9.70803
 9.68735
 9.80728
 12.1111
 12.1435
 12.065
 12.0512
 10.1119
 10.1294
 10.2029
 10.1665
 6.80688
 6.98457
 7.10504
 6.9442
 7.84836
 7.92192
 7.93169
 7.78506
 10.0604
 9.98029
 9.92603
 9.91176
 7.89833
 8.06814
 7.95766
 7.90712
 8.75308
 8.69761
 8.9238
 8.68917
 8.77822
 8.62228
 8.68201
 8.62426
 7.9817
 7.86679
 7.88291
 6.01003
 5.95368
 6.05692
 6.01948
 10.163
 10.0183
 10.0852
 10.0705
 9.3312
 9.17838
 9.19724
 9.23288
 11.9423
 12.0169
 12.0018
 11.8914
 10.9704
 10.8694
 10.8837
 10.9533
 10.8052
 11.0147
 10.9144
 11.0407
 11.0508
 10.9748
 10.9938
 10.9398
 8.79455
 8.88129
 8.84921
 11.5651
 11.5925
 11.5286
 11.5036
 11.1996
 11.1485
 11.0549
 11.1819
 4.99545
 5.18703
 5.19701
 5.06317
 8.71197
 8.80108
 8.88426
 8.94717
 6.85473
 6.84095
 6.93479
 7.0056
 8.42555
 8.35005
 8.45729
 8.55801
 8.02433
 7.8956
 8.02635
 7.98627
 10.5742
 10.6914
 10.634
 10.7971
 9.1566
 8.86381
 9.09257
 9.05872
 6.73469
 6.6113
 6.74102
 6.68475
 8.34178
 8.40532
 8.18356
 8.22201
 11.0876
 11.1572
 11.0149
 10.9619
 5.97335
 5.91067
 5.94997
 5.88098
 9.94482
 10.0748
 11.2283
 9.16265
 9.0912
 8.98255
 9.19726
 9.56221
 9.42079
 9.58466
 9.61797
 12.5026
 12.5225
 12.4009
 10.1791
 10.3148
 10.3465
 10.4288
 8.36834
 8.10906
 8.21858
 8.07455
 8.95964
 8.84054
 8.91061
 8.9648
 6.09857
 6.01538
 5.99721
 6.05112
 10.9179
 10.6978
 10.8508
 10.6431
 10.6506
 10.6895
 10.5121
 12.2353
 12.4067
 12.3144
 12.2474
 10.9811
 10.8224
 10.9333
 8.4377
 8.12202
 8.38746
 11.0768
 11.0939
 11.2049
 11.1493
 9.51303
 9.37275
 9.33986
 9.34953
 14.3328
 14.3375
 14.3309
 14.2581
 9.73449
 9.78565
 9.78224
 11.5238
 11.5496
 11.5253
 11.5244
 9.73732
 9.80777
 9.93257
 9.81672
 11.1732
 11.0572
 11.0658
 11.0066
 7.64502
 7.57347
 7.67763
 7.53204
 7.22039
 7.3626
 7.24392
 7.16522
 5.35603
 5.35699
 5.26179
 5.48802
 8.62366
 8.82689
 8.66787
 8.61295
 11.2219
 11.3642
 11.2343
 11.3145
 10.4626
 10.5184
 12.0124
 12.0094
 11.9682
 11.971
 9.42223
 9.3617
 10.1611
 9.94024
 9.98687
 10.777
 10.6937
 10.63
 10.7042
 5.65266
 5.56984
 5.83084
 5.79634
 5.95238
 5.99923
 6.07115
 5.98324
 10.5999
 10.5476
 10.6336
 10.7496
 11.5764
 11.538
 8.43402
 8.37439
 8.42028
 8.26518
 10.7513
 10.8057
 10.6943
 10.7055
 9.94191
 10.1233
 9.81872
 4.42312
 4.35359
 4.53272
 9.0394
 8.83546
 8.91129
 8.90597
 6.35026
 6.13612
 6.3885
 6.48429
 8.76412
 8.61965
 8.58521
 8.78087
 7.42988
 7.2976
 7.27031
 7.51964
 11.272
 11.1509
 11.2541
 11.3101
 10.7255
 10.5496
 10.7791
 10.6013
 8.72872
 8.88793
 8.58431
 8.78638
 10.0932
 9.93583
 9.89344
 10.1068
 11.2486
 11.1987
 11.1513
 11.031
 9.49004
 9.42017
 9.32892
 9.25045
 7.89737
 7.87026
 7.98165
 8.86758
 8.70362
 8.81619
 8.72482
 13.7616
 13.6551
 13.5908
 13.6631
 11.5733
 11.5758
 11.5491
 11.5644
 10.1954
 10.2011
 10.2085
 10.066
 12.5896
 12.4824
 12.6402
 12.5465
 6.26147
 6.27241
 6.41852
 5.14287
 5.28611
 5.45414
 5.30739
 7.11998
 6.81994
 6.93545
 6.9332
 8.92899
 7.95216
 7.74619
 7.68432
 7.83218
 9.15877
 9.04102
 9.2327
 9.23531
 11.3169
 11.4418
 11.3729
 10.6371
 10.6004
 10.5591
 10.751
 13.7365
 13.8481
 13.7505
 13.8899
 12.3642
 12.3704
 12.3229
 12.3436
 10.265
 10.2671
 10.1771
 10.0924
 4.97255
 5.23981
 5.15114
 5.17653
 13.4493
 13.4338
 13.3312
 13.3579
 7.61918
 7.45728
 7.72807
 7.5452
 8.91803
 8.90554
 8.75717
 8.89192
 10.5593
 10.7974
 10.7866
 9.32449
 9.48987
 9.51533
 9.50567
 5.28984
 5.22805
 5.17864
 11.2244
 11.0192
 10.9899
 9.73986
 9.68859
 9.5211
 9.55515
 10.2842
 10.323
 10.3625
 10.3949
 10.1542
 10.1833
 10.0187
 9.98708
 11.4936
 11.5739
 11.5664
 11.4305
 9.37816
 9.2727
 9.42556
 9.26486
 5.52728
 5.80808
 5.80046
 5.94242
 6.18571
 6.2369
 6.24767
 6.08749
 11.7338
 11.7127
 11.6995
 11.729
 6.46188
 6.38685
 6.4035
 6.60919
 5.78455
 5.53822
 5.60762
 5.83826
 6.45085
 6.4641
 6.66991
 6.64794
 8.12212
 8.15284
 8.01924
 8.08888
 9.09794
 9.21113
 9.04603
 10.2556
 10.4692
 10.406
 10.3609
 7.22579
 7.33988
 7.44116
 7.20902
 7.17612
 7.09654
 7.00995
 7.06369
 4.35685
 4.3544
 4.64369
 4.46752
 12.4644
 12.3812
 12.4052
 12.3853
 11.9711
 12.0305
 12.0012
 11.9133
 11.4377
 11.4665
 11.3018
 11.4733
 10.1221
 10.32
 10.1848
 10.1958
 9.98192
 9.9657
 9.97174
 5.69463
 5.56856
 5.38692
 5.49853
 7.00299
 7.08109
 7.17642
 7.17289
 9.38949
 9.49976
 9.5468
 9.45929
 6.07934
 5.96701
 8.5142
 8.5116
 8.51744
 8.66422
 6.2548
 6.1723
 5.94888
 6.12826
 8.75421
 8.54812
 8.79634
 8.52786
 10.2947
 10.2064
 10.4116
 10.3405
 11.895
 11.9813
 11.908
 11.807
 13.8438
 13.7347
 13.8872
 13.7948
 6.44562
 6.51288
 6.54055
 6.41316
 5.80398
 5.78257
 5.76543
 5.64284
 9.72511
 9.9018
 9.79259
 9.88267
 9.03756
 9.12172
 9.14608
 9.03262
 10.8398
 10.9725
 10.7478
 8.19595
 8.32347
 8.30711
 8.37465
 10.8922
 10.9203
 10.8243
 10.8277
 9.26942
 9.41321
 9.53566
 9.44049
 8.02132
 8.10836
 8.06382
 7.99779
 8.85882
 8.91066
 8.96795
 6.35979
 6.53379
 6.47554
 6.47922
 8.17296
 7.9754
 12.6639
 12.4804
 12.6784
 12.598
 7.34776
 7.46507
 7.39213
 10.5611
 10.5151
 10.5178
 10.5555
 8.31329
 8.34134
 8.39236
 9.12994
 9.28152
 9.11635
 9.21563
 8.26291
 8.4445
 8.1653
 8.32509
 8.10715
 7.92284
 13.317
 13.3152
 13.399
 13.3129
 13.6316
 13.7572
 13.8081
 13.6915
 9.0077
 9.19242
 9.11847
 9.19808
 8.40449
 8.50298
 8.41105
 8.53145
 13.2265
 13.249
 13.2158
 13.1301
 10.6461
 10.7996
 11.5095
 11.4836
 11.4334
 11.3192
 8.06892
 8.13436
 7.91077
 8.03774
 8.50942
 8.45433
 8.30853
 8.5748
 8.19295
 8.37896
 8.42222
 8.37549
 10.3109
 10.3043
 10.1685
 10.3119
 11.136
 11.1572
 11.284
 11.1198
 12.1168
 11.9813
 11.9935
 12.1074
 11.1179
 11.1258
 11.1213
 10.9117
 7.27584
 7.40654
 7.24017
 7.3453
 9.00821
 9.3659
 9.18921
 12.5545
 12.4859
 12.3967
 7.82039
 7.55711
 7.7009
 7.70897
 7.61813
 7.93164
 7.76919
 7.71322
 9.66442
 9.76424
 9.81744
 9.49873
 9.44659
 9.30745
 9.43498
 11.2061
 11.2884
 11.3207
 11.3204
 6.79138
 6.85457
 6.71722
 6.79239
 11.4998
 11.53
 11.521
 11.4677
 11.5459
 11.6229
 11.5526
 5.08739
 4.84429
 4.73158
 4.91627
 6.54917
 6.42823
 10.5286
 10.5882
 10.4539
 10.4997
 9.15473
 8.98608
 9.15528
 9.45149
 9.53278
 9.49322
 9.63089
 11.2389
 11.1303
 11.1877
 6.95641
 6.84359
 7.09
 7.01028
 11.2234
 11.0431
 11.1701
 11.1975
 7.5782
 7.73309
 7.79658
 7.7184
 11.447
 11.3795
 11.0783
 11.2269
 11.1138
 11.1786
 10.6203
 10.6909
 10.6552
 10.61
 12.351
 12.3925
 12.5083
 12.4257
 7.25221
 7.06369
 10.2089
 10.1197
 10.1035
 10.1171
 5.30219
 5.38297
 5.33137
 5.25463
 10.2498
 10.3267
 10.1436
 10.0375
 6.93618
 6.75397
 6.69888
 6.68957
 5.94726
 5.74141
 6.07191
 5.78905
 7.59644
 7.77744
 5.90584
 5.74071
 5.79702
 5.85482
 11.216
 11.2389
 11.2412
 11.1139
 5.95993
 5.89203
 5.87001
 5.97228
 5.06918
 4.83907
 4.86792
 5.02968
 8.39478
 8.38514
 8.2342
 8.28174
 9.32584
 9.3879
 9.21411
 9.13859
 6.10375
 6.33734
 6.19456
 6.09526
 12.5285
 12.3916
 12.4703
 12.5619
 6.2043
 5.95474
 10.1795
 10.0829
 10.0636
 9.9294
 6.38164
 6.45683
 6.63081
 6.60891
 11.1814
 11.0515
 11.0744
 11.0805
 9.85654
 10.0716
 9.99667
 9.88463
 10.8835
 10.9252
 10.7569
 11.1926
 11.2673
 11.1888
 11.3175
 11.4832
 11.3683
 11.402
 11.3452
 8.37752
 8.48324
 8.53462
 6.56682
 6.54566
 6.38685
 6.41399
 8.83148
 8.91684
 8.97173
 11.1801
 11.2803
 11.2088
 9.09756
 8.86543
 9.06507
 8.93034
 8.23693
 8.2727
 8.2184
 8.02675
 9.54625
 9.37276
 9.34844
 9.41457
 9.77602
 9.85269
 9.892
 9.97549
 10.0582
 10.0755
 9.80695
 9.73289
 9.63651
 9.88367
 6.46589
 6.55764
 6.47933
 6.61843
 7.66018
 7.77611
 7.6775
 7.60521
 9.47802
 9.41734
 9.49354
 9.2708
 11.1838
 11.2786
 11.2071
 8.80788
 8.90777
 8.80713
 8.78434
 10.4153
 10.5978
 10.5319
 10.6135
 12.9788
 12.9436
 13.005
 13.0415
 9.9999
 10.0779
 10.0369
 10.0493
 6.28753
 6.32286
 6.1494
 6.21487
 10.0426
 9.86227
 9.96079
 10.049
 11.3958
 11.404
 11.3471
 11.2976
 11.2061
 11.2838
 11.2765
 9.41086
 9.38263
 9.41805
 8.13274
 10.1132
 10.3351
 10.2028
 10.2082
 5.98984
 6.03474
 5.91717
 6.32403
 6.28381
 6.20051
 10.0955
 9.94758
 10.0576
 9.96888
 4.95795
 4.88376
 4.8292
 4.80873
 11.1269
 8.57037
 8.7125
 8.59856
 8.649
 11.0375
 10.9809
 11.001
 10.9709
 6.03431
 5.93933
 6.2033
 6.03871
 7.86573
 7.61536
 7.71744
 7.81009
 7.13609
 7.03506
 7.24133
 7.20024
 11.4785
 11.435
 11.3763
 11.478
 10.4238
 10.3
 10.4338
 10.4307
 8.82778
 8.92279
 8.77928
 8.93942
 10.2109
 10.3659
 10.1503
 10.3034
 7.98434
 7.91935
 7.76123
 7.80026
 11.0352
 11.0948
 10.9582
 10.9616
 10.489
 10.4125
 10.2939
 10.3733
 8.45816
 8.44091
 8.47051
 8.26477
 5.84864
 5.63196
 5.75665
 5.62839
 11.4283
 11.4049
 11.2858
 11.3408
 12.2589
 12.406
 12.2502
 12.2639
 5.93659
 5.78383
 5.85189
 5.79067
 12.2261
 12.3378
 12.0494
 12.1047
 12.1237
 12.0018
 9.12956
 9.04045
 9.18111
 9.28634
 10.4301
 10.3434
 10.3459
 10.4868
 4.47071
 4.38906
 4.40796
 4.53597
 6.08869
 6.10576
 5.87513
 7.87925
 7.89468
 7.75288
 7.95192
 11.2545
 11.2164
 11.3516
 11.1744
 10.5321
 10.5581
 10.6077
 10.6666
 10.5779
 10.4769
 7.87794
 7.61032
 7.69515
 7.80401
 8.14293
 8.13731
 8.28355
 8.1025
 7.63722
 7.65237
 7.82336
 7.64208
 5.16989
 5.13358
 5.47115
 5.06165
 7.27781
 7.26741
 7.44045
 9.91766
 8.82677
 8.86303
 8.8132
 8.93816
 8.7597
 8.93429
 8.88369
 8.8453
 6.73454
 6.83081
 6.84121
 6.93627
 7.30645
 7.41102
 7.40592
 7.2407
 8.43273
 8.57694
 8.57607
 10.1787
 10.2644
 10.1341
 10.3559
 8.88687
 8.6262
 8.78547
 8.74604
 10.0534
 9.96328
 10.1274
 13.3869
 13.3882
 13.4587
 13.3343
 6.59069
 6.31011
 6.41971
 6.48371
 6.72745
 6.42705
 6.59051
 13.3071
 8.71782
 8.67687
 8.73862
 8.53675
 8.48118
 8.44424
 12.0352
 12.0045
 12.0187
 11.976
 11.3979
 11.3556
 11.2343
 11.4143
 10.692
 10.6151
 10.6308
 10.7817
 10.9282
 10.8621
 10.7725
 10.9253
 10.9421
 10.8238
 9.84698
 9.95336
 9.99662
 10.015
 9.7322
 9.58333
 4.22623
 4.21611
 11.1535
 10.9413
 11.1617
 11.0285
 9.46623
 9.51263
 9.41495
 9.58224
 11.4922
 11.4574
 11.6675
 11.5999
 6.41698
 6.30565
 6.60246
 6.48296
 6.73502
 6.88163
 6.74255
 6.89574
 8.01633
 7.90079
 7.87479
 7.95468
 8.88695
 8.83277
 8.60823
 8.71175
 9.01214
 9.10315
 11.1838
 7.49724
 7.31526
 7.35685
 7.31663
 5.25367
 5.28945
 5.01879
 5.34263
 6.60763
 6.41326
 6.64628
 6.56707
 14.3247
 14.3251
 14.3078
 14.2727
 5.42688
 5.39325
 5.47497
 5.46557
 10.7601
 10.7558
 10.8899
 10.6827
 10.1814
 10.3418
 10.278
 10.3932
 7.76691
 7.74507
 7.65245
 7.62266
 7.76198
 7.80133
 7.88856
 7.84723
 11.2172
 10.999
 11.1102
 11.059
 5.68944
 5.60887
 5.70935
 5.6817
 6.37501
 6.26576
 6.31873
 6.20773
 7.46258
 7.42989
 7.30756
 7.30581
 6.09509
 6.22714
 6.16683
 6.0936
 10.4409
 10.2976
 10.2986
 10.2415
 11.2157
 11.1831
 11.1476
 11.102
 6.53422
 6.67628
 6.73146
 6.68833
 9.60194
 9.61444
 9.6725
 9.80156
 9.35625
 9.42957
 9.46052
 9.36769
 13.6687
 13.6134
 13.5539
 13.6071
 5.52185
 5.48188
 6.0141
 5.97615
 6.13965
 5.88004
 11.721
 11.8481
 11.8898
 11.6936
 10.4056
 10.589
 10.5899
 10.6596
 6.31094
 6.4312
 6.23372
 6.18879
 9.88271
 9.83359
 9.9203
 9.76437
 10.0165
 9.97027
 10.1388
 10.1261
 5.26461
 5.22122
 5.32326
 5.37787
 8.88162
 8.92253
 8.87263
 8.80799
 9.24354
 9.19093
 9.23265
 9.33874
 7.1393
 7.04613
 6.99411
 7.0857
 7.97207
 8.01977
 8.0732
 8.1683
 9.7816
 9.7566
 9.94916
 10.3999
 10.2832
 10.3608
 10.1583
 11.9794
 12.0212
 12.0503
 11.8576
 10.1632
 10.0731
 10.0449
 10.0173
 9.04595
 9.14136
 9.06043
 9.18122
 5.1026
 5.04328
 5.07156
 5.29865
 10.1671
 9.90888
 10.0467
 10.0477
 11.62
 11.6187
 11.7155
 11.785
 7.54066
 7.38694
 7.46383
 7.59092
 8.25696
 8.27961
 8.36149
 8.93729
 8.71766
 8.69723
 8.6391
 12.0701
 12.0688
 12.0616
 11.969
 8.69606
 8.84512
 8.78146
 8.90824
 5.81811
 5.79693
 5.80071
 5.76955
 8.86481
 8.85032
 8.82167
 8.74647
 11.52
 11.6018
 11.5517
 11.5037
 11.0171
 10.9236
 11.0324
 11.1421
 4.10859
 4.16911
 4.0905
 4.08242
 10.4713
 10.4404
 10.462
 10.6437
 8.32045
 8.57462
 8.49945
 8.43916
 4.34612
 4.32723
 4.46238
 4.46192
 6.01155
 5.77269
 5.89638
 7.53546
 7.55255
 7.35703
 7.30138
 6.34799
 6.34121
 6.11007
 6.41138
 13.089
 13.0111
 12.9324
 12.9615
 10.8707
 10.7282
 10.9247
 5.4704
 5.26772
 5.30559
 5.28355
 8.40189
 8.4439
 8.27756
 8.49762
 7.03063
 7.07315
 6.86334
 7.18137
 11.3688
 11.3829
 11.4927
 11.5546
 9.92255
 9.75954
 9.95059
 9.82329
 7.94315
 8.20037
 8.12073
 11.9376
 11.8881
 11.8191
 11.8303
 11.0893
 11.2703
 11.1875
 11.2383
 10.0544
 5.44579
 5.34776
 5.41003
 5.27662
 12.8556
 12.8538
 12.9506
 12.9587
 7.16653
 6.89004
 7.03184
 6.85314
 8.20699
 8.32332
 8.26113
 8.43262
 13.4574
 6.67889
 6.81786
 6.59883
 5.54588
 5.31313
 5.45072
 5.42759
 9.44893
 9.40813
 9.18315
 9.3518
 8.00993
 8.0175
 7.88411
 8.10926
 10.7968
 10.9354
 9.16003
 9.2351
 9.22835
 9.06209
 10.8038
 10.8874
 10.9608
 10.8441
 10.2862
 10.3502
 10.1433
 10.1481
 7.62817
 7.73966
 7.62458
 7.57251
 12.4439
 12.451
 12.4505
 12.3083
 11.2537
 11.333
 11.2766
 11.3735
 12.2376
 12.1356
 11.6323
 11.6369
 11.6203
 11.6253
 11.7641
 11.854
 11.7077
 11.8291
 5.32257
 5.39961
 5.56148
 5.56078
 8.44996
 8.44808
 8.51623
 8.27486
 9.93004
 9.72878
 9.86157
 9.84291
 8.83035
 8.88917
 8.92694
 8.77918
 5.26394
 5.28766
 11.9952
 12.0612
 12.0465
 11.9919
 5.29933
 5.24235
 5.38804
 12.7097
 12.7544
 12.7139
 12.7763
 5.71088
 5.89883
 5.75581
 5.89022
 10.1632
 10.2698
 10.1183
 10.2722
 9.54664
 9.51543
 9.58949
 5.34725
 5.45031
 5.41706
 5.31505
 8.58763
 8.73643
 8.5608
 8.69651
 9.43615
 9.36388
 9.22286
 9.36682
 10.0992
 10.1799
 9.7613
 10.0153
 9.82457
 9.92934
 8.24573
 8.41649
 8.33809
 5.13539
 5.41054
 5.43723
 5.22963
 9.62392
 9.52265
 9.63792
 9.60201
 9.87078
 9.9538
 10.4068
 10.5531
 10.5885
 10.4642
 12.6009
 12.5827
 12.473
 8.66276
 8.62828
 8.83113
 8.83746
 5.45267
 5.44329
 5.42275
 12.2186
 12.3038
 12.2171
 9.53013
 9.64372
 9.56633
 9.70644
 7.84109
 7.84409
 8.03808
 7.97011
 12.9888
 13.0319
 12.998
 12.9795
 6.45141
 6.39995
 6.50674
 6.53201
 7.73665
 7.86369
 7.84154
 7.89717
 6.57838
 6.52468
 6.6426
 5.50563
 5.46725
 5.20459
 5.36125
 8.99629
 9.17908
 9.0175
 8.99933
 5.9041
 5.95161
 6.01528
 6.04493
 10.1955
 10.246
 10.1488
 10.3123
 5.21849
 8.14445
 9.24059
 9.31212
 9.17026
 9.35714
 8.22271
 8.25919
 8.40326
 8.42641
 7.33841
 7.29037
 7.39261
 7.54344
 8.2324
 8.30571
 8.11983
 8.19878
 7.03891
 7.15231
 6.99887
 7.02629
 9.22973
 9.32444
 9.25754
 9.12994
 9.42716
 9.3719
 9.34453
 9.27759
 9.91371
 9.94626
 10.0013
 9.82111
 9.29673
 9.30353
 9.43956
 11.3987
 11.3718
 11.3991
 11.2976
 9.11694
 7.87237
 7.65657
 7.64146
 7.76206
 5.54875
 5.53403
 5.74999
 10.3023
 10.5086
 10.4209
 10.4841
 8.88977
 8.69524
 8.74619
 8.15473
 8.17226
 8.2952
 8.30648
 7.8096
 7.75404
 7.58804
 7.547
 6.18903
 6.09496
 5.98451
 6.12978
 10.883
 10.9128
 10.8216
 11.0334
 8.74308
 8.85259
 8.88861
 8.94051
 9.32788
 9.42114
 9.5167
 9.34869
 9.50359
 9.60462
 9.621
 9.72249
 9.19145
 9.25175
 9.1614
 9.32638
 7.29669
 7.58088
 7.25447
 7.44994
 9.46598
 9.70844
 9.6167
 9.58939
 12.0312
 12.0272
 12.0326
 11.9828
 12.1274
 12.0418
 12.0572
 9.18095
 9.15687
 9.02233
 9.00503
 9.10258
 9.03118
 8.9757
 8.92946
 9.33722
 9.46848
 9.25109
 9.25107
 5.69714
 5.67708
 5.90463
 5.87638
 7.28699
 7.45559
 7.4616
 7.27338
 10.5403
 10.4525
 10.4717
 10.435
 11.2841
 11.1368
 11.1579
 11.3439
 6.35612
 6.397
 6.50198
 6.34696
 12.8106
 12.8815
 12.8567
 12.742
 10.0339
 9.88837
 9.97141
 9.98964
 11.5961
 11.5072
 11.5217
 10.9478
 10.8625
 10.8481
 10.7474
 7.59127
 7.64449
 7.51138
 7.76628
 10.8664
 11.063
 10.9878
 10.9362
 12.0355
 11.7857
 11.9545
 12.9707
 12.8638
 12.7981
 12.8402
 5.04516
 4.98256
 4.88594
 4.73835
 10.7516
 10.8438
 10.7664
 10.7158
 8.39803
 8.61962
 8.58094
 8.4386
 5.88247
 6.00782
 6.14936
 6.02807
 6.86411
 6.63467
 6.9434
 6.80551
 10.6241
 10.6016
 10.6956
 10.6345
 11.6772
 11.8092
 11.9167
 11.7769
 8.75908
 8.65942
 8.81936
 8.73113
 11.63
 11.4604
 9.75851
 9.97857
 9.93588
 9.81784
 9.56694
 9.57989
 9.66806
 9.51913
 9.74704
 9.73346
 9.80923
 11.3519
 11.3049
 11.3514
 8.31314
 8.30884
 8.25679
 8.20708
 8.58683
 8.60627
 8.7264
 8.45776
 10.6134
 10.4495
 10.522
 10.5991
 7.2181
 7.03049
 7.28642
 7.19943
 9.22892
 9.41997
 9.31649
 9.16739
 11.5242
 11.5254
 11.5538
 11.5297
 10.0721
 9.97245
 10.0684
 8.51554
 8.51798
 8.66213
 8.53205
 9.05825
 8.96881
 8.86577
 5.05635
 5.13712
 5.17598
 5.22214
 12.2803
 12.3385
 12.2683
 12.4353
 10.2514
 10.0991
 10.1213
 10.2147
 10.3251
 10.3593
 10.4808
 10.3215
 4.88766
 4.95368
 4.73864
 4.59428
 7.12617
 7.03251
 7.04984
 10.8154
 10.8488
 10.9027
 10.8352
 6.86664
 7.06997
 6.9832
 10.746
 10.7376
 10.8393
 10.8097
 13.8307
 13.7576
 13.8218
 13.7587
 5.91299
 5.84593
 5.7194
 5.94505
 11.3284
 11.3683
 11.4285
 11.5417
 5.33491
 5.39734
 5.42527
 5.3761
 11.0024
 10.8375
 10.962
 10.8953
 13.7868
 13.915
 13.8064
 13.8078
 11.903
 12.0371
 11.9251
 11.8574
 11.2802
 11.1774
 11.0907
 11.3031
 9.20098
 9.42267
 11.3046
 11.2806
 11.4871
 11.4565
 8.36301
 8.44478
 8.49747
 8.58748
 9.39329
 9.39054
 9.47882
 9.27229
 6.00724
 6.23004
 5.85592
 5.81924
 6.38955
 6.49139
 6.36051
 6.29684
 6.7864
 6.90274
 6.80669
 6.94857
 6.26711
 6.23108
 6.1888
 6.30737
 7.77629
 7.8294
 7.6706
 7.79518
 6.71083
 6.52382
 6.5798
 6.66548
 12.1553
 12.3151
 12.3363
 12.1379
 6.11668
 6.01118
 6.05853
 6.08497
 9.83152
 9.94877
 10.0175
 9.95475
 7.12249
 7.39852
 7.31894
 6.36248
 6.19577
 6.21058
 6.27517
 11.2601
 11.4078
 11.422
 11.3675
 11.959
 12.0029
 12.0689
 12.0332
 7.45823
 7.48993
 7.5881
 7.32844
 9.60627
 9.62757
 9.6648
 9.75088
 7.80915
 7.92764
 7.82079
 7.84265
 7.83615
 7.83712
 7.52886
 10.0021
 10.0445
 10.1686
 7.909
 7.8484
 8.78287
 8.99028
 5.13318
 5.02548
 5.03089
 5.11951
 8.93211
 8.86156
 8.94874
 8.77328
 7.90115
 7.98459
 7.76935
 7.97937
 8.54172
 8.45018
 8.52246
 8.38235
 6.74399
 6.84285
 6.7551
 6.86193
 6.88042
 9.65733
 9.63734
 9.78751
 9.7927
 11.5633
 11.5631
 11.5606
 11.5491
 7.86033
 8.03023
 7.85762
 7.95792
 7.80516
 7.90807
 7.95107
 7.77067
 13.5515
 13.4801
 13.4383
 13.3542
 9.17828
 9.04787
 9.11471
 9.20749
 9.24459
 9.37761
 9.43229
 9.30056
 8.02657
 8.14882
 11.3191
 11.2824
 11.2244
 11.3017
 10.2991
 10.2165
 10.2663
 10.3511
 11.1048
 11.1654
 11.2182
 11.2048
 10.4581
 10.3577
 10.3782
 10.4821
 11.0455
 11.0567
 11.1185
 11.0281
 7.0951
 7.16911
 7.1049
 6.99449
 6.09712
 6.111
 6.2886
 6.17602
 10.6768
 10.7385
 10.8189
 10.6667
 9.18995
 9.3324
 9.20584
 9.25911
 6.78737
 6.99391
 6.84744
 6.94587
 9.79924
 9.87121
 9.88748
 9.71183
 10.69
 10.5919
 11.814
 11.7565
 11.723
 11.8264
 9.50236
 9.55279
 9.62797
 9.69556
 6.64589
 6.72856
 6.72476
 6.51624
 5.56948
 5.69163
 5.65315
 5.54456
 13.2251
 13.2176
 9.77681
 9.65342
 9.60104
 9.56918
 9.99415
 10.2033
 10.0692
 10.064
 10.1851
 10.2336
 10.9753
 10.8981
 10.9223
 10.8494
 9.42072
 9.28188
 9.22166
 12.1234
 12.0429
 12.0362
 11.9726
 6.25015
 6.11492
 6.3669
 6.23038
 5.73262
 5.74023
 5.73162
 4.94616
 5.09688
 5.24574
 5.11301
 8.64454
 8.40443
 8.49959
 8.46355
 9.20541
 9.01797
 9.28369
 9.11779
 7.12606
 6.87398
 6.77914
 6.93501
 7.99505
 8.01266
 7.85783
 8.00017
 8.3084
 8.1587
 8.23452
 8.95781
 8.9288
 9.01383
 8.8256
 7.56698
 7.25627
 7.36551
 7.53444
 9.7277
 9.79389
 9.70908
 9.68722
 9.06901
 9.11174
 8.94519
 9.16326
 7.98627
 8.02366
 8.10242
 7.94411
 9.19447
 9.30609
 9.35179
 9.17958
 13.744
 13.7778
 13.6685
 13.6706
 10.8962
 10.9527
 10.9496
 11.0462
 7.58316
 7.57731
 7.39973
 7.37932
 10.8983
 10.8678
 11.032
 11.084
 11.2786
 11.4549
 11.273
 11.1628
 6.45829
 6.48322
 6.36432
 6.59824
 6.63382
 6.81391
 6.64831
 6.68822
 6.04969
 6.21013
 6.03623
 6.00531
 7.16727
 7.17707
 7.02143
 7.08082
 9.87937
 9.89756
 9.99845
 9.89655
 10.8792
 10.9276
 10.8167
 10.9499
 7.82321
 8.07037
 7.81263
 8.00837
 10.8126
 10.7699
 10.7519
 10.7596
 11.7976
 11.7641
 11.7277
 11.6627
 9.36347
 9.24394
 9.33874
 9.22168
 10.161
 10.2525
 10.3592
 10.034
 9.99132
 9.81292
 9.96322
 11.6528
 11.7285
 11.8434
 11.7343
 10.714
 10.7345
 10.797
 10.7566
 7.72261
 7.6184
 7.70588
 7.62699
 9.00962
 8.87554
 8.85236
 4.94986
 5.12996
 5.11279
 5.00054
 5.70263
 5.54474
 5.42057
 5.59559
 10.1993
 10.0931
 10.2567
 10.0948
 8.63552
 8.51653
 11.4023
 11.4106
 11.5476
 11.3568
 8.96816
 9.10481
 9.18585
 9.06456
 5.97889
 5.92875
 6.10165
 5.95683
 10.8329
 10.8049
 10.7498
 9.78926
 9.76727
 9.73018
 9.91384
 10.1084
 9.90606
 9.93943
 9.98805
 9.28734
 9.1288
 9.1117
 9.32303
 9.4056
 9.31916
 9.21493
 9.33906
 8.91306
 8.8163
 8.92804
 8.78388
 9.56417
 9.45601
 7.01052
 7.08903
 6.81086
 7.03495
 9.43775
 9.58476
 9.53253
 9.4405
 8.27507
 8.51396
 8.42718
 9.49991
 9.3577
 9.4479
 9.36742
 8.37236
 8.45096
 8.53242
 8.41329
 10.9311
 11.068
 10.9638
 11.1344
 9.68869
 9.71416
 9.55055
 8.6558
 8.64058
 8.43969
 8.74835
 9.44583
 9.46725
 9.36172
 11.1115
 11.0635
 11.1907
 8.16546
 8.18323
 8.18328
 8.35743
 9.18995
 9.07807
 9.0631
 13.2516
 13.22
 13.1681
 13.3563
 8.0167
 8.129
 8.20695
 8.00458
 10.0444
 10.2197
 10.1986
 10.2351
 6.87804
 6.88363
 6.82274
 6.70329
 6.56158
 6.67756
 6.47503
 6.50446
 11.2271
 11.0501
 11.2632
 11.2311
 8.78685
 8.90468
 8.98054
 10.3856
 10.5373
 10.436
 10.4374
 6.28852
 6.55215
 6.41137
 9.12749
 9.00075
 9.09195
 8.94348
 7.80929
 7.74504
 7.74525
 7.7746
 6.06601
 5.98318
 5.94478
 6.08652
 14.1513
 14.2392
 14.2166
 14.1508
 10.5754
 10.5502
 10.4654
 10.5853
 8.76144
 8.49483
 8.59433
 8.53474
 11.8113
 11.9154
 11.9372
 9.17358
 9.03852
 9.08545
 9.20315
 5.68571
 8.00823
 8.11329
 8.31474
 8.14982
 6.68035
 6.6858
 6.64309
 6.57813
 7.19806
 7.28011
 7.31103
 7.20048
 8.74636
 8.80491
 8.98385
 9.16609
 9.17116
 9.15319
 12.9839
 12.8765
 12.9753
 12.9079
 10.3404
 10.4009
 10.4576
 10.5457
 10.5276
 10.4252
 10.5189
 5.74259
 5.40187
 5.74811
 5.75764
 9.29488
 9.30869
 9.12589
 9.14143
 8.66516
 8.73078
 8.85409
 8.74888
 6.42224
 6.53011
 6.33752
 6.537
 9.08427
 9.12151
 8.95882
 9.11176
 12.2116
 12.1617
 12.2799
 12.2393
 9.45654
 9.51098
 9.42611
 9.48499
 10.6144
 10.6104
 10.5889
 10.496
 10.8855
 10.9901
 10.9647
 10.9121
 11.6555
 11.6103
 11.6614
 11.6605
 12.4429
 12.4993
 12.5236
 12.3681
 4.88341
 5.05288
 4.97482
 5.02456
 12.773
 12.7284
 12.8362
 12.6567
 9.3072
 9.39997
 9.29454
 9.43566
 5.10762
 5.14102
 5.25101
 5.23105
 9.92323
 9.9442
 9.85883
 9.80489
 11.576
 6.07538
 6.17995
 6.14336
 5.96897
 10.9913
 12.269
 12.1264
 12.1016
 12.2314
 8.52528
 8.33916
 7.09727
 7.3062
 7.07842
 7.28001
 6.51924
 6.54445
 6.42696
 6.44637
 4.7794
 4.96572
 4.7759
 7.06654
 6.86585
 6.87286
 6.8839
 9.80622
 5.43779
 7.84689
 7.90937
 7.96142
 5.74612
 5.61334
 5.584
 5.65537
 9.86735
 9.86883
 9.88112
 9.97325
 10.5537
 10.5181
 10.6131
 10.6795
 7.87665
 7.9877
 7.94274
 7.70997
 5.61349
 5.45856
 5.65397
 5.65255
 6.29988
 6.34886
 6.24397
 6.36186
 8.27934
 8.03371
 8.06347
 12.45
 12.5252
 12.2983
 12.4437
 14.05
 13.9339
 13.9971
 13.9362
 11.629
 11.7887
 11.804
 11.7207
 8.83834
 8.70598
 8.86933
 12.1015
 11.9831
 12.0306
 12.1301
 6.79247
 6.84365
 6.64524
 6.9282
 6.88489
 6.99841
 6.92728
 10.9222
 10.9787
 7.65782
 7.49823
 4.36045
 4.50343
 4.32492
 4.98203
 4.92059
 4.94772
 4.85322
 9.57712
 9.71018
 9.49529
 9.59983
 10.3828
 10.412
 10.4807
 10.3231
 9.42364
 9.4304
 9.28336
 9.30497
 5.39818
 5.41039
 5.36728
 5.4142
 7.71737
 7.64243
 7.69544
 7.79782
 11.6382
 11.6452
 11.6393
 11.5352
 7.61851
 7.56993
 7.69038
 7.50489
 8.71235
 8.67484
 8.81338
 8.64336
 7.91052
 7.78898
 7.81135
 14.3771
 14.3478
 14.3327
 10.3571
 10.4323
 9.84604
 9.84192
 9.97409
 9.77402
 7.32326
 7.15122
 7.26577
 7.32039
 7.61362
 7.53758
 7.33782
 7.51583
 7.50095
 7.58958
 7.31968
 13.1021
 13.1111
 11.7308
 11.7457
 11.6694
 11.7199
 8.68417
 13.1967
 13.3073
 13.2604
 13.2538
 10.6553
 10.4913
 10.6237
 10.643
 9.69516
 9.75994
 12.4083
 12.2002
 12.2188
 12.3253
 4.86141
 4.65225
 4.74525
 4.81824
 5.53521
 5.4863
 5.57206
 5.32686
 11.1255
 10.8879
 11.0613
 10.9358
 10.3858
 10.4681
 10.2003
 10.262
 10.3601
 10.4465
 10.3621
 7.39576
 7.30539
 7.52923
 7.38973
 11.5719
 11.4912
 11.4316
 11.4111
 9.30168
 9.2306
 9.32448
 8.22581
 8.19819
 8.11899
 7.99907
 10.4406
 10.4144
 10.3176
 10.3831
 10.8414
 10.7045
 10.6243
 10.7687
 10.8971
 10.9946
 10.9697
 10.8597
 9.91727
 9.85367
 9.74496
 9.86593
 8.0429
 8.16276
 10.6231
 10.5926
 10.55
 10.6697
 4.83518
 5.13474
 5.09855
 5.07925
 11.0797
 11.0078
 11.0781
 10.9905
 12.0915
 12.126
 11.9816
 12.0559
 8.63554
 8.58672
 12.7436
 12.7082
 12.8245
 12.6789
 10.128
 10.0462
 10.192
 5.81168
 5.88162
 5.75138
 5.72604
 12.5896
 12.637
 12.5992
 10.9243
 10.9295
 10.8026
 10.8478
 12.3174
 10.9599
 11.0176
 10.9956
 11.1345
 9.11684
 9.21468
 9.10055
 9.12264
 9.69121
 9.65816
 9.57832
 9.70124
 5.56775
 5.35013
 8.92753
 8.84929
 8.88324
 8.92792
 11.0232
 11.1798
 11.0011
 11.1893
 10.2921
 10.0023
 10.1526
 10.286
 6.09759
 6.23492
 6.21927
 6.21817
 9.70276
 9.6493
 9.5012
 9.5487
 8.65415
 6.61228
 6.49971
 6.65824
 10.2374
 10.2032
 10.3408
 10.146
 7.71846
 7.7666
 7.67741
 7.88596
 9.99274
 10.0905
 10.0937
 9.92964
 5.55621
 5.75347
 5.7826
 5.68029
 4.40362
 4.3061
 4.45946
 10.9206
 10.8213
 10.692
 10.7864
 8.32558
 8.24072
 8.43303
 8.36847
 7.74836
 7.70231
 7.58991
 7.51519
 10.4038
 10.397
 10.848
 10.9116
 10.9569
 10.8062
 9.95745
 9.73769
 8.40024
 8.34762
 8.42553
 8.48194
 8.07962
 8.01604
 7.89605
 8.0873
 9.79475
 9.73949
 9.61735
 9.68592
 8.555
 8.5393
 8.53253
 6.26382
 6.4796
 6.53057
 6.43279
 7.12172
 7.17442
 7.06925
 9.83194
 9.60774
 9.82515
 9.71511
 10.7219
 10.8883
 10.9711
 10.7902
 7.74664
 7.9286
 7.92175
 7.79531
 9.69389
 9.70777
 9.86197
 11.5984
 11.6166
 11.5918
 11.6143
 10.4264
 10.445
 10.3791
 10.3298
 6.99789
 7.01897
 7.15122
 4.93411
 5.14618
 5.1256
 7.8982
 7.81842
 7.81068
 10.4357
 10.5662
 10.3859
 10.5214
 5.16363
 5.14488
 5.1791
 5.06138
 8.16587
 8.251
 8.15997
 8.04349
 6.72982
 6.64833
 6.39709
 6.45017
 6.993
 6.90808
 6.99819
 6.98075
 11.9851
 12.0765
 12.0822
 9.903
 9.86829
 9.96883
 9.85294
 6.82277
 6.73427
 6.89458
 6.89101
 9.51093
 9.43989
 9.41635
 9.25797
 7.58904
 7.58767
 7.62976
 7.81397
 5.82318
 5.70823
 11.6673
 11.5712
 11.5889
 11.527
 7.29638
 7.39022
 7.16757
 7.3425
 9.94091
 10.0098
 10.0536
 9.90379
 7.91362
 8.10138
 5.27732
 5.28464
 5.43014
 5.20025
 6.73904
 6.52857
 6.80474
 6.43156
 4.97877
 4.97107
 4.82498
 4.71659
 7.43285
 7.46755
 7.37387
 7.87321
 7.65708
 7.70246
 7.75658
 7.62502
 7.74946
 7.6995
 7.87256
 10.6486
 10.6094
 10.7413
 10.7774
 12.2448
 12.3045
 12.1622
 9.17687
 9.15028
 9.14766
 6.32795
 6.49275
 6.38916
 6.53999
 9.77147
 9.67507
 9.55135
 9.66675
 11.0701
 11.2244
 11.1947
 11.063
 9.13381
 9.28111
 9.35605
 9.358
 10.018
 9.82633
 10.0061
 5.30401
 5.22987
 5.45199
 5.44276
 11.5254
 11.4775
 11.2413
 11.166
 11.1544
 7.63069
 7.56613
 7.73034
 7.47124
 9.3321
 9.17739
 9.16407
 9.24623
 11.2699
 11.2459
 11.1369
 11.2472
 8.64819
 8.90958
 8.90215
 8.72892
 10.2256
 10.3261
 10.1469
 10.1559
 6.14001
 6.09551
 5.84959
 10.4255
 10.4534
 10.3318
 10.3435
 8.71703
 8.60658
 11.3296
 11.1677
 11.2139
 11.3038
 11.1274
 11.2462
 11.1885
 11.2394
 5.88537
 6.00115
 10.9257
 10.8041
 10.8722
 10.9736
 9.11821
 9.26896
 9.18385
 9.11763
 10.0193
 12.1201
 12.2282
 12.194
 8.59446
 8.6192
 8.5661
 8.70414
 5.88059
 5.86179
 5.99192
 5.78859
 11.9367
 11.9243
 11.8674
 11.9778
 11.1605
 11.0561
 11.1895
 11.1657
 7.79816
 7.71444
 7.70834
 11.7977
 11.7828
 11.7128
 11.6791
 4.91055
 5.10081
 4.97627
 4.87674
 11.628
 11.5384
 11.5056
 11.6828
 8.07484
 8.24498
 8.11689
 7.94356
 9.98036
 9.89554
 9.92443
 10.0224
 11.2331
 11.1848
 11.2088
 10.1437
 9.98214
 10.1577
 10.0244
 11.3805
 11.5078
 11.4249
 11.4245
 11.0361
 11.1238
 11.0568
 7.25735
 7.40455
 7.21643
 7.33794
 7.50973
 9.3472
 9.04073
 9.23599
 9.23002
 5.74487
 5.81476
 5.91647
 5.81381
 8.60048
 8.4329
 8.69683
 8.49675
 8.01494
 7.89371
 8.01711
 8.06673
 11.1918
 11.2498
 11.1057
 10.8843
 10.9219
 8.25286
 8.44888
 8.30291
 8.22931
 5.88572
 5.64013
 8.86021
 8.81831
 8.96021
 8.78026
 11.373
 11.4052
 11.2869
 6.23858
 6.15075
 6.30256
 6.24091
 8.91592
 9.11159
 9.05321
 9.01472
 11.2564
 11.3305
 11.2567
 11.2037
 9.28068
 9.30562
 9.09231
 9.24037
 8.17034
 7.90393
 11.8627
 11.9257
 11.8914
 11.9643
 10.9312
 10.722
 10.6208
 10.6944
 10.5867
 10.6188
 10.6417
 10.8009
 10.744
 10.6605
 9.02903
 9.02775
 9.06367
 8.29672
 8.36362
 8.42064
 8.4932
 10.7313
 10.7469
 10.7196
 10.7445
 9.97679
 9.99481
 8.66731
 8.7891
 8.73505
 8.85378
 8.7016
 8.67811
 9.37881
 9.20243
 9.1833
 9.33197
 12.689
 12.5552
 12.5798
 12.5134
 8.73154
 11.3827
 11.2584
 11.3461
 11.3751
 5.37243
 5.21624
 5.39486
 7.42441
 7.48408
 7.57291
 7.39922
 9.33902
 9.24868
 9.30452
 9.52026
 9.04985
 8.92472
 9.10203
 10.9769
 10.8747
 10.9319
 11.0055
 6.00337
 5.86689
 6.1951
 5.95864
 8.15934
 8.21217
 8.07256
 8.11801
 6.03558
 5.98126
 6.23739
 6.10201
 11.4949
 11.4743
 11.5956
 11.5886
 10.6837
 10.5811
 7.34695
 7.41376
 7.49882
 7.39823
 5.78108
 5.76305
 5.73204
 5.84123
 4.43749
 4.36139
 4.49928
 4.29677
 5.95315
 6.08141
 5.93104
 8.17678
 8.06276
 8.2174
 8.12472
 6.21545
 6.14614
 6.05915
 6.12693
 11.6094
 11.4968
 11.3995
 11.5203
 6.68294
 6.57614
 6.53712
 8.19612
 8.24329
 8.28553
 8.28311
 11.4017
 11.4599
 11.3996
 11.4957
 7.80052
 7.62537
 7.73601
 7.72184
 8.51116
 8.39078
 8.34518
 8.48351
 10.4608
 10.3899
 10.3382
 10.2408
 11.6999
 11.677
 11.8279
 11.8178
 9.62144
 9.57426
 9.45311
 9.59331
 12.9342
 12.897
 12.7511
 12.8158
 11.0883
 11.0059
 11.103
 10.8101
 10.9471
 10.9475
 10.9802
 13.3917
 13.3408
 13.468
 13.3425
 6.31512
 6.44173
 6.42976
 6.92058
 6.8998
 6.75857
 6.79364
 10.7014
 10.4971
 10.5616
 12.2113
 12.1843
 12.2438
 11.6237
 11.7472
 11.6219
 11.6141
 10.6316
 10.6508
 10.5359
 10.7442
 8.09597
 7.8923
 8.00796
 8.03315
 12.6527
 12.6486
 12.5595
 12.6858
 8.39855
 8.64012
 8.67261
 8.47713
 6.9125
 6.77702
 7.03683
 6.90679
 8.73335
 8.74001
 8.51213
 8.60117
 9.68814
 9.78062
 9.5704
 11.3049
 11.3171
 11.3057
 11.2253
 5.98933
 5.84186
 5.79561
 5.84113
 6.7115
 6.61305
 6.72283
 6.82248
 10.5304
 10.4232
 10.4907
 10.592
 5.56036
 5.46797
 5.38494
 5.92264
 5.66978
 5.882
 5.82936
 5.68514
 5.64891
 5.80095
 5.74743
 12.5087
 12.5403
 13.3966
 13.3771
 13.4471
 13.3022
 8.19529
 8.26386
 8.3696
 9.28886
 9.39529
 9.16855
 9.3566
 9.07816
 8.91817
 8.97033
 9.05807
 14.2898
 9.76436
 8.37047
 8.22265
 6.79056
 6.68638
 6.74176
 6.73434
 12.2192
 10.0939
 9.96639
 10.0972
 4.25054
 4.35691
 4.35157
 4.34647
 9.01691
 9.12887
 9.02001
 8.89403
 5.36948
 5.48063
 5.38547
 5.53228
 9.67526
 9.51821
 9.78279
 10.0712
 9.91017
 10.0088
 6.3734
 6.30568
 6.51342
 6.35437
 8.43106
 8.50332
 8.61255
 8.69677
 11.5732
 11.6653
 11.4849
 11.5239
 6.73035
 6.44782
 6.55523
 5.46156
 5.19681
 5.19498
 5.45038
 6.80441
 6.83805
 6.98333
 6.81137
 10.7107
 10.7322
 10.5056
 10.7445
 10.4213
 10.5181
 10.4986
 10.5111
 6.21159
 6.08035
 6.09315
 6.06641
 9.79651
 9.80035
 9.92743
 7.20743
 7.17967
 7.25339
 7.34133
 11.2888
 11.171
 11.3572
 11.3461
 8.27673
 8.20231
 8.40814
 8.32361
 11.4319
 11.3441
 11.4255
 11.4151
 8.76063
 8.63298
 8.75618
 8.7006
 7.0145
 6.98092
 6.82901
 7.14598
 11.6908
 11.7291
 11.6332
 8.89512
 8.76288
 6.60015
 6.68848
 6.69453
 6.80472
 9.78782
 9.87301
 9.88838
 11.5183
 11.6376
 11.6703
 11.6104
 7.87982
 7.81667
 7.90308
 7.7594
 8.14723
 8.17173
 7.92191
 8.10689
 13.8708
 13.8776
 13.7677
 13.8342
 9.16492
 9.32286
 9.22192
 13.1193
 13.0275
 12.997
 9.02127
 9.03735
 9.11972
 9.06303
 9.22705
 11.4572
 11.4361
 11.6212
 11.5661
 9.61077
 9.48617
 9.42111
 6.77828
 6.78029
 6.78966
 6.8571
 9.40561
 9.3333
 9.25554
 9.25814
 9.26589
 9.32427
 9.35803
 4.50296
 4.5983
 4.62776
 4.76457
 10.8324
 10.5745
 10.6382
 10.7238
 11.8541
 11.8475
 11.7958
 11.807
 10.1188
 10.17
 9.94733
 10.0961
 6.37552
 6.27993
 6.25992
 6.50096
 13.9407
 13.8434
 13.9174
 13.7832
 7.30519
 7.48024
 7.36186
 7.34867
 11.8404
 11.9307
 11.8787
 11.8927
 6.67415
 7.03649
 6.95072
 6.79035
 7.08232
 7.18517
 7.26979
 7.1522
 7.29947
 7.21078
 10.6886
 10.771
 10.7797
 10.7076
 6.01221
 6.01017
 6.01543
 7.28157
 7.52923
 7.41653
 7.23715
 10.9212
 10.7792
 10.8729
 11.0044
 10.1182
 10.1761
 9.99754
 14.3876
 14.3853
 14.4252
 14.3863
 9.22675
 9.43647
 9.22713
 6.04002
 5.92044
 6.06321
 6.11235
 6.90702
 7.02411
 6.1887
 6.02009
 5.88675
 6.13616
 7.50062
 7.48426
 11.9034
 11.8529
 12.0096
 11.7731
 7.11611
 7.15694
 7.13501
 7.32905
 8.99589
 8.90629
 10.2457
 10.1369
 10.1683
 10.229
 7.06227
 6.98329
 6.91649
 6.98631
 10.6054
 10.8385
 10.8281
 10.6542
 6.1417
 6.16355
 5.99685
 5.75594
 8.46651
 8.42308
 8.60196
 12.1109
 12.1705
 12.1851
 12.1041
 8.14465
 8.18231
 8.25575
 8.3407
 10.8187
 10.9452
 10.9848
 11.0374
 10.7061
 10.8604
 10.7545
 14.0421
 14.0485
 14.0497
 13.9839
 11.6755
 11.4794
 11.4323
 11.609
 6.85575
 6.94895
 6.78152
 6.95695
 9.31628
 9.27545
 9.41759
 9.97057
 11.2754
 11.2072
 11.2529
 11.1595
 9.92282
 10.0353
 9.93543
 9.88548
 7.64631
 7.42013
 7.39139
 7.59726
 11.3121
 11.3103
 11.0785
 12.2584
 8.51113
 8.44281
 8.61938
 8.3696
 11.2232
 11.0388
 13.2314
 13.3171
 11.2492
 11.1487
 11.2522
 11.4029
 7.55898
 7.42121
 6.56269
 6.5714
 6.49981
 6.59909
 10.2681
 10.1472
 10.1255
 10.1556
 5.50567
 5.46924
 5.32677
 5.46757
 10.2
 10.1832
 10.4585
 10.4396
 7.26568
 7.24398
 7.32461
 7.53633
 10.9198
 10.9125
 10.8465
 10.8384
 7.08948
 6.9886
 7.19362
 7.06226
 9.71567
 9.59663
 5.7952
 5.89088
 7.91653
 7.80269
 7.97
 7.76238
 7.88744
 7.96151
 7.95245
 7.78031
 8.79858
 8.89581
 8.75364
 8.74625
 7.09952
 7.30656
 7.09201
 6.94735
 10.9664
 11.099
 11.0193
 11.0271
 5.91775
 5.99562
 6.01858
 5.66864
 5.6109
 5.78585
 5.66866
 11.3786
 11.2307
 11.2332
 11.2983
 7.55637
 7.75146
 7.72412
 7.64313
 11.3778
 11.2675
 11.2554
 11.1436
 9.03753
 9.40243
 9.20102
 9.19766
 9.39451
 6.66984
 6.64263
 6.63834
 6.83845
 12.9177
 13.0048
 12.9426
 12.8399
 7.65629
 7.55807
 7.43929
 7.58495
 9.09601
 8.9571
 9.24093
 9.12875
 7.58969
 7.70884
 7.7318
 7.73768
 7.95374
 4.55795
 4.67047
 4.90817
 4.78306
 6.99562
 6.9892
 7.24236
 7.17579
 13.1921
 13.1327
 13.0491
 13.21
 9.75367
 9.91354
 9.97959
 9.8399
 10.4366
 8.96527
 8.98919
 8.93964
 8.8208
 6.14169
 6.1457
 6.31029
 6.39661
 6.68053
 6.69492
 6.51953
 6.15477
 6.53108
 6.34979
 6.42912
 13.897
 13.8416
 7.22415
 7.23925
 7.2218
 10.5411
 10.5489
 10.5864
 10.4282
 7.42403
 7.50328
 7.39293
 7.53723
 8.78991
 7.82191
 7.9794
 7.81373
 7.86362
 5.67973
 5.96919
 5.8877
 5.69745
 7.84745
 7.7318
 7.51517
 7.80787
 9.81007
 9.75731
 9.95602
 9.65131
 11.432
 11.4065
 11.4735
 11.3779
 4.80818
 5.02346
 4.75201
 4.83458
 7.51463
 7.58726
 7.44507
 7.6439
 5.06554
 5.14838
 5.1116
 4.97082
 10.515
 10.7083
 10.515
 10.4899
 8.81015
 8.88896
 5.75995
 5.51426
 5.78107
 5.64992
 8.80806
 8.76342
 8.76558
 8.61761
 9.35447
 9.18383
 8.91629
 8.83577
 8.74514
 8.9149
 6.57646
 6.60464
 6.66131
 6.47859
 10.2077
 10.3804
 10.4579
 10.3045
 11.9596
 11.8579
 11.94
 11.9389
 11.585
 11.6268
 11.633
 11.6334
 10.3477
 10.2716
 10.2634
 10.3923
 9.65575
 9.8532
 9.71636
 9.56202
 9.78252
 9.67793
 9.61361
 9.07657
 9.18164
 9.23153
 9.11211
 12.0211
 12.0552
 12.0005
 9.94239
 10.0211
 9.84963
 9.8797
 8.83672
 8.69791
 8.71125
 8.89665
 10.6779
 10.8082
 10.6099
 10.8235
 10.4089
 10.2878
 10.3192
 10.3305
 8.58991
 8.58269
 8.46552
 8.35731
 9.27794
 9.40541
 9.28964
 9.32755
 7.73171
 7.8044
 7.72868
 7.78766
 11.6426
 11.6073
 11.5612
 6.83498
 6.92107
 6.7147
 6.90433
 10.6732
 10.5451
 10.6354
 10.7329
 9.68992
 9.77201
 9.8379
 9.64405
 9.40209
 9.27355
 9.23255
 8.27298
 8.28545
 8.22647
 8.10609
 7.92985
 7.90885
 7.80565
 7.99374
 7.65377
 7.61945
 7.48337
 6.50038
 6.44419
 6.45203
 8.01333
 8.08519
 8.19287
 8.07691
 6.3064
 6.22118
 6.43235
 5.97401
 5.96442
 6.01366
 6.16436
 9.29847
 9.57324
 9.41992
 9.48471
 10.4388
 10.54
 10.4143
 10.5297
 11.0455
 6.47081
 6.55073
 6.28077
 6.46087
 6.32924
 6.6367
 14.1154
 14.171
 14.1079
 14.0681
 7.2017
 7.33967
 9.64482
 9.79851
 9.62418
 5.05415
 4.87338
 8.24535
 8.47897
 8.41205
 8.37343
 9.76142
 9.68596
 9.68244
 7.16932
 6.86704
 7.04749
 6.94731
 10.4753
 10.4394
 10.5389
 10.3891
 13.4095
 13.3123
 13.3359
 13.4388
 8.4969
 8.46711
 8.54087
 8.33565
 6.58338
 6.28051
 6.57518
 6.9948
 7.00338
 6.96178
 7.1063
 10.7505
 10.9534
 10.9056
 11.0338
 10.7564
 10.6491
 11.2325
 11.1268
 11.2714
 4.97171
 5.0941
 6.61103
 6.78744
 6.59213
 6.82087
 8.88871
 8.67431
 8.70824
 7.34091
 7.53139
 7.20609
 7.20012
 10.6749
 10.8773
 10.8401
 10.7417
 9.15466
 9.17
 9.03174
 8.99957
 9.24439
 9.12845
 9.12094
 9.2499
 10.9221
 10.8545
 10.9073
 10.6402
 10.7122
 10.6564
 10.6706
 4.36822
 4.19671
 4.3074
 4.1152
 11.7582
 11.9194
 6.08316
 6.00552
 6.03359
 6.14203
 9.65831
 9.51536
 9.57856
 9.64806
 8.85614
 8.74898
 8.75014
 8.73936
 11.6197
 11.5152
 8.98297
 9.08941
 9.0955
 9.18782
 9.66053
 9.71358
 9.75745
 9.61062
 6.7275
 6.75984
 6.81869
 6.71919
 9.38223
 9.27628
 9.24723
 9.45899
 10.5658
 10.5586
 8.28757
 8.28422
 8.37131
 8.24251
 7.53941
 7.6089
 7.47097
 8.87796
 8.72071
 8.77279
 8.69106
 11.1367
 11.0667
 11.1699
 10.991
 13.5789
 13.4739
 13.4882
 13.59
 9.32887
 9.41951
 9.30679
 9.13212
 8.67047
 8.46023
 8.61968
 8.66226
 9.82317
 9.74172
 9.90454
 9.87106
 10.2856
 10.3706
 10.2679
 10.2004
 6.66443
 6.48922
 8.22972
 8.30901
 8.36835
 12.6923
 12.7425
 12.8075
 12.6749
 10.8929
 11.0051
 10.8128
 11.0515
 8.92687
 8.87351
 8.97084
 9.02504
 6.68801
 6.61552
 6.61793
 9.57909
 9.63638
 9.80931
 9.81624
 10.6456
 10.4595
 10.526
 10.6555
 7.31753
 7.51376
 7.52729
 7.40676
 8.28667
 8.33561
 8.39587
 8.38286
 6.81263
 6.78212
 6.79584
 7.14848
 7.12152
 7.12663
 7.11285
 10.0174
 9.98495
 10.096
 10.1627
 9.4539
 9.4876
 9.35515
 13.4163
 13.3981
 13.4179
 13.4869
 10.6217
 10.6144
 11.9111
 11.9963
 11.8702
 11.7939
 11.0039
 11.5161
 6.18143
 10.5047
 10.6535
 10.5383
 10.7192
 4.86854
 8.19906
 8.34597
 8.1998
 8.40422
 10.5477
 10.405
 10.4805
 9.97878
 9.85861
 9.85536
 6.74628
 6.72551
 6.95375
 6.75732
 6.89918
 7.00234
 6.86865
 6.99459
 11.2913
 11.4622
 11.4682
 11.3451
 5.62965
 5.59278
 5.52301
 5.73603
 9.14614
 9.28668
 9.40328
 6.9261
 6.79429
 6.88205
 8.61053
 8.75384
 8.69983
 8.58307
 10.4974
 10.4212
 10.5959
 10.5384
 8.65449
 8.42557
 8.63438
 10.3476
 10.3041
 10.2959
 10.4536
 9.63165
 9.42637
 6.70693
 6.59936
 6.55734
 6.40839
 6.15364
 5.9339
 6.05475
 6.11307
 10.9341
 10.7982
 10.9857
 10.8677
 7.45421
 7.68383
 7.58085
 7.40516
 8.32232
 8.56314
 8.36354
 8.25706
 9.886
 10.0106
 9.8182
 9.9012
 6.3678
 6.44609
 6.50549
 6.59428
 9.56837
 9.70342
 9.48051
 9.53996
 9.1493
 9.26593
 9.26912
 9.02884
 9.53379
 9.62977
 9.50224
 9.48428
 10.8336
 10.6935
 11.0693
 10.9739
 10.8783
 11.04
 12.0986
 12.272
 12.1511
 12.1062
 8.23094
 8.2401
 8.25833
 8.08372
 8.42003
 8.5778
 8.56952
 5.62144
 5.5838
 5.54706
 5.56552
 4.93899
 4.84585
 5.01103
 5.91069
 5.82881
 6.0825
 8.64081
 8.46107
 8.33997
 8.5696
 7.73106
 7.62396
 7.52295
 7.81005
 6.80666
 6.65242
 6.77873
 6.62726
 10.3741
 10.519
 10.4837
 10.3923
 11.8463
 11.7418
 11.6791
 11.6819
 4.96533
 4.9466
 5.09898
 4.77888
 10.676
 10.7258
 10.788
 10.6473
 8.79876
 8.80149
 8.71977
 8.8405
 4.8026
 4.87096
 5.09336
 4.67601
 8.07375
 8.23663
 8.02394
 8.07848
 9.76976
 9.84038
 9.77885
 9.83249
 10.6276
 10.7431
 10.7263
 11.4921
 11.348
 11.436
 11.516
 11.1477
 11.2059
 11.1349
 11.2176
 11.0785
 11.163
 10.7524
 10.6709
 10.906
 6.90021
 7.00243
 7.03146
 7.05509
 5.86894
 5.99144
 5.94737
 5.9722
 7.95471
 8.00656
 7.98405
 8.20012
 9.42519
 6.21159
 6.13799
 6.16306
 6.27489
 11.5475
 11.5553
 11.5636
 11.5897
 5.31583
 5.19933
 5.35471
 5.10766
 9.99935
 10.1215
 9.9126
 7.60789
 11.4185
 11.4295
 11.5211
 10.9417
 11.0145
 11.097
 10.883
 8.93815
 8.96433
 9.17176
 9.03114
 7.29603
 7.28789
 7.41621
 7.17452
 9.43653
 7.67132
 7.74894
 7.78547
 9.3749
 9.40914
 9.37025
 9.2184
 10.3651
 10.3243
 10.4368
 10.4377
 9.95082
 10.1309
 9.99873
 9.97688
 7.58961
 10.8068
 10.7877
 10.7203
 7.00042
 7.11239
 6.96091
 7.06645
 6.47995
 6.54045
 6.33511
 6.59077
 5.85532
 5.75432
 5.87869
 10.3695
 10.3605
 10.4619
 10.3531
 11.6697
 11.7541
 11.6774
 6.70799
 6.73835
 6.38482
 6.45372
 6.53991
 6.54547
 9.41963
 9.40133
 9.29847
 5.26572
 5.32785
 5.1791
 5.34791
 6.63576
 6.69985
 6.62786
 6.55586
 8.11186
 8.09485
 8.0107
 7.97608
 8.81903
 8.7717
 8.86448
 8.98917
 10.6791
 10.7033
 10.7409
 10.6306
 6.46234
 6.45396
 6.54225
 6.31646
 10.2753
 10.2338
 10.4129
 9.97864
 9.85499
 9.83435
 9.79792
 5.88178
 5.91436
 5.67926
 5.80475
 7.68865
 7.66921
 7.73069
 7.7867
 5.18052
 5.30905
 5.45034
 5.27525
 9.98735
 9.88814
 9.8297
 9.8489
 8.85223
 8.79641
 8.97305
 8.68066
 6.43182
 6.45615
 6.34526
 6.41385
 8.94054
 8.82352
 8.9866
 8.95702
 5.20409
 4.98416
 5.16721
 10.4232
 10.4717
 10.4987
 10.4767
 8.5252
 8.53004
 8.57484
 8.68248
 8.18278
 8.01574
 8.14835
 8.12323
 9.13292
 9.22353
 8.99163
 9.15913
 6.53412
 6.54109
 6.33011
 6.45763
 9.36399
 9.52418
 9.42365
 9.47569
 8.31589
 8.358
 8.33508
 8.45432
 11.6252
 11.6177
 11.6435
 11.6242
 7.03502
 7.00056
 7.13766
 7.21559
 11.6444
 11.6468
 11.6487
 10.7188
 10.7848
 10.783
 10.7036
 11.1759
 11.1116
 10.8742
 11.0639
 7.23515
 7.30433
 7.19168
 7.08347
 7.80827
 7.59079
 7.7647
 7.73199
 10.0091
 10.1421
 10.1291
 10.2123
 4.66472
 4.78907
 4.93101
 13.354
 13.3774
 8.30735
 8.16659
 8.39053
 8.32344
 12.3377
 12.4467
 12.5708
 12.4584
 7.83498
 7.81043
 7.62562
 7.70598
 9.88502
 10.2977
 10.3518
 10.3882
 10.4688
 7.29076
 7.24661
 7.21454
 7.15096
 6.33243
 6.40604
 6.22932
 6.3786
 11.6196
 11.6196
 7.57607
 7.49825
 7.2498
 7.52181
 8.49591
 8.77479
 8.46911
 8.61748
 10.569
 10.5665
 10.6586
 10.3852
 9.3708
 9.50539
 9.53551
 9.35855
 6.71421
 6.90806
 6.5356
 5.81713
 5.87158
 5.84861
 5.86859
 4.83984
 4.83863
 4.78224
 10.2082
 10.2933
 10.2675
 10.1829
 5.89244
 6.02566
 6.07985
 6.10586
 11.2657
 11.3733
 11.3295
 11.2978
 7.95104
 7.9662
 7.91627
 8.10699
 8.67131
 8.48466
 8.62792
 8.61989
 5.77515
 5.77705
 5.79111
 5.6646
 7.75044
 7.65315
 7.79812
 7.89426
 12.6205
 12.6831
 12.7163
 12.6304
 9.42046
 9.63688
 9.43845
 9.59267
 10.1317
 9.93495
 9.94817
 10.1234
 7.33343
 7.24364
 7.40797
 7.54234
 11.0972
 11.1927
 11.2371
 11.2242
 8.32985
 8.44495
 8.41646
 8.23425
 10.2679
 10.3778
 10.3993
 11.7277
 11.8049
 11.7824
 11.8449
 8.22504
 8.07972
 8.33084
 7.95112
 7.97213
 8.06367
 10.7823
 10.9149
 11.0071
 11.0363
 11.0491
 10.9884
 10.9389
 6.00116
 14.2302
 14.1735
 14.187
 14.2767
 6.58347
 6.70818
 6.44968
 6.60042
 11.3692
 9.92629
 9.95463
 9.9898
 9.79586
 10.1609
 10.249
 9.9755
 10.7242
 10.5445
 10.6291
 10.6884
 12.5984
 12.627
 12.5507
 12.7126
 11.2711
 11.168
 11.1756
 8.87473
 8.95602
 8.94683
 10.2321
 10.2832
 4.42825
 4.63584
 4.64645
 11.1712
 11.0581
 11.2273
 9.97805
 9.86625
 9.80869
 5.88092
 5.71529
 5.73317
 7.21234
 7.20405
 7.04208
 7.19939
 10.663
 10.587
 10.5412
 11.6327
 11.7645
 5.53153
 5.67153
 5.4602
 5.52926
 12.2215
 12.1808
 12.3176
 12.0945
 11.1376
 11.1839
 13.567
 13.6565
 13.0762
 13.0947
 13.037
 9.97046
 9.88907
 10.044
 5.63166
 5.8203
 5.90624
 7.64738
 7.62779
 7.47397
 10.5824
 10.4883
 10.3532
 10.2737
 10.4016
 6.29938
 11.7134
 11.7153
 11.6606
 11.6546
 10.109
 9.85717
 10.0313
 10.0251
 7.39434
 7.43463
 7.32187
 7.55566
 7.53518
 7.6329
 7.58564
 9.99347
 10.0432
 9.91142
 9.80661
 7.60629
 7.55179
 7.42711
 7.43462
 7.0821
 7.22256
 7.13808
 6.95308
 9.17691
 7.5698
 7.52726
 7.497
 7.44086
 5.30949
 5.2175
 5.30845
 5.42479
 10.8623
 11.0933
 11.1265
 10.9561
 5.65559
 5.5412
 5.63426
 5.65195
 13.6603
 13.6177
 13.6993
 5.5571
 5.6669
 5.38339
 5.46539
 10.8186
 10.8486
 10.9754
 10.9582
 7.01603
 7.17291
 7.05833
 6.94321
 11.1323
 11.1242
 11.3962
 11.3363
 5.07477
 6.73976
 6.97339
 6.88161
 7.04418
 6.2582
 6.09446
 6.16555
 11.5657
 11.5
 11.6088
 11.6566
 7.26275
 7.38711
 7.38051
 7.47115
 8.45794
 8.31006
 8.29668
 8.35808
 8.66899
 8.57736
 8.79289
 8.80315
 4.78891
 4.98252
 9.70588
 9.69
 9.70716
 9.97065
 9.85276
 9.80087
 9.72609
 7.47113
 7.57922
 7.31089
 7.28867
 7.49091
 7.41114
 7.41373
 7.27831
 8.2061
 8.18462
 8.06481
 8.24854
 10.8041
 10.8011
 10.4681
 10.5596
 10.5662
 9.97557
 9.87548
 9.87262
 9.85394
 11.8263
 11.9284
 11.9116
 11.9138
 10.0973
 10.1908
 10.3098
 12.5461
 12.5488
 12.4306
 10.0911
 10.108
 10.2309
 10.0063
 10.7831
 10.6088
 10.8222
 9.37736
 7.45002
 7.51016
 7.31528
 9.76785
 9.81133
 9.7134
 9.63018
 11.2174
 11.2075
 10.8963
 11.0574
 9.16873
 9.07148
 9.01889
 9.01439
 6.81203
 6.92121
 4.60983
 4.75704
 4.85836
 4.59165
 7.38372
 7.44442
 7.3047
 7.54712
 9.6906
 9.71715
 9.7335
 9.64937
 5.1552
 5.13696
 4.82692
 5.26451
 5.55639
 5.47308
 5.43169
 8.98346
 9.17798
 9.23629
 9.05791
 11.4718
 11.5087
 11.4035
 9.60432
 9.62049
 9.4479
 9.6046
 11.5442
 11.7048
 11.5425
 11.7107
 7.83129
 7.8383
 7.79252
 8.14383
 11.5997
 11.5966
 11.609
 11.5689
 10.7498
 10.6641
 10.6292
 10.6948
 5.53529
 5.72543
 5.49465
 5.67067
 8.8851
 8.87961
 9.01273
 8.8715
 10.1198
 10.2065
 10.074
 10.1859
 7.44579
 7.41531
 6.94074
 6.67648
 6.75976
 6.78399
 9.8396
 9.68116
 9.72457
 9.5396
 9.49102
 9.39546
 9.45884
 9.47613
 11.3749
 11.2925
 11.4028
 9.89425
 9.99534
 10.0734
 13.9776
 14.0846
 13.9979
 14.0542
 10.6592
 10.5994
 11.5735
 11.5115
 11.5642
 11.6774
 8.46816
 8.61869
 8.48361
 8.66201
 12.5526
 12.422
 12.3607
 12.4811
 11.0256
 11.0622
 11.1999
 7.86856
 7.8227
 7.84455
 7.92239
 10.9633
 10.8519
 11.0098
 11.1597
 11.1492
 11.2729
 11.2496
 10.0007
 10.0803
 10.0599
 9.91209
 7.07322
 6.66128
 13.1457
 13.0961
 10.7206
 10.831
 9.60998
 9.73518
 9.68331
 9.70645
 7.9917
 7.8733
 7.9892
 7.78176
 9.20939
 9.19646
 9.11519
 9.08764
 11.5242
 11.7284
 11.5633
 11.6413
 8.52732
 8.71002
 8.61218
 11.4347
 11.4706
 11.414
 11.4194
 6.06646
 6.05259
 5.92256
 6.14503
 8.01009
 8.01534
 8.01601
 8.16773
 11.2712
 11.1826
 11.3126
 9.55581
 9.72194
 9.5736
 9.49823
 11.6342
 11.6479
 11.5988
 11.0203
 10.8876
 10.9299
 11.0082
 11.1482
 11.1741
 11.0463
 11.1302
 9.73965
 9.85868
 9.89403
 9.94171
 5.46146
 5.55042
 5.66583
 5.62431
 8.31942
 8.13503
 8.21525
 8.17651
 9.72135
 9.90361
 9.76926
 8.9174
 8.99073
 8.98368
 6.23152
 6.44622
 6.24882
 6.38204
 8.20736
 8.17127
 8.33821
 8.10778
 9.87523
 9.76404
 9.71469
 9.72745
 11.7966
 11.7642
 11.3044
 11.385
 11.2344
 11.2315
 13.3503
 13.3856
 13.4848
 13.346
 7.39214
 7.3644
 7.35694
 7.43711
 10.8946
 11.0383
 10.9945
 11.0054
 9.19097
 9.33881
 9.2433
 9.41332
 12.0008
 12.0583
 12.0354
 12.0843
 8.78276
 8.86404
 8.94698
 8.93289
 9.55541
 7.48501
 7.59553
 7.67878
 7.62874
 9.81194
 9.97565
 10.0082
 9.84933
 9.85167
 9.77625
 9.67847
 9.72389
 10.234
 10.3649
 10.3158
 10.4027
 11.2054
 11.3405
 11.1291
 6.66496
 6.62494
 6.5737
 6.88086
 9.89507
 9.9424
 9.94323
 9.994
 6.83153
 6.76053
 6.63917
 7.90828
 8.02336
 7.91869
 7.99963
 7.13599
 6.88758
 7.02377
 6.87226
 11.2793
 11.1673
 11.3023
 14.2908
 14.2413
 14.2278
 7.62064
 7.42177
 7.47382
 8.74249
 8.48275
 8.61585
 8.46299
 10.1117
 10.0506
 9.98526
 10.0992
 9.69556
 9.63937
 9.83358
 9.78895
 12.801
 12.7167
 12.9098
 12.7103
 9.13905
 9.21341
 9.229
 9.24714
 8.45995
 8.45351
 8.32032
 8.50428
 10.9362
 10.9307
 10.6006
 10.857
 10.7294
 10.7122
 7.78594
 7.91522
 7.82692
 7.83069
 11.0766
 10.9328
 8.33334
 8.40669
 11.472
 14.0777
 14.1005
 14.0823
 14.0039
 11.9918
 11.8676
 5.02751
 4.81492
 4.9885
 11.6971
 11.5848
 11.4817
 11.5928
 7.58822
 7.56892
 10.7676
 10.7989
 10.7797
 10.7711
 10.3166
 10.0774
 10.1732
 7.44519
 7.37645
 7.42001
 7.24243
 8.16377
 8.00761
 8.14345
 8.09276
 6.58312
 6.57525
 6.39713
 9.75975
 9.89019
 9.74749
 9.9537
 9.33642
 6.46278
 6.75593
 6.53414
 6.60593
 11.6301
 11.6644
 11.5871
 11.5323
 9.00612
 9.13312
 8.95699
 9.09974
 7.31919
 7.57068
 7.39001
 7.52176
 13.5668
 13.5414
 13.507
 13.4971
 11.24
 5.14348
 10.0039
 9.79514
 9.93045
 10.0671
 8.97264
 8.83859
 9.0154
 9.06679
 10.7803
 10.9561
 10.8621
 10.8188
 8.85928
 8.93574
 8.87225
 8.84022
 11.3806
 11.3513
 11.2289
 11.3992
 11.2912
 11.2081
 11.3019
 9.69178
 9.55564
 9.76548
 9.68178
 7.23786
 7.09045
 7.40889
 4.53061
 4.33124
 4.50409
 4.60803
 12.8995
 13.0152
 13.0293
 9.47693
 9.48286
 9.61364
 9.55428
 9.70446
 9.5032
 5.95232
 5.97259
 6.01621
 5.81955
 7.65214
 7.7725
 7.7236
 7.84856
 11.2097
 11.0132
 11.1558
 12.2513
 9.85699
 10.0284
 9.96756
 9.86783
 9.49558
 9.40081
 9.42623
 7.92054
 8.00674
 7.9816
 7.86862
 7.38644
 7.56626
 7.4344
 7.52825
 9.93766
 10.0361
 7.64119
 7.65792
 7.60911
 7.49059
 8.76576
 8.81218
 8.7752
 8.63912
 5.59937
 5.49258
 8.32379
 8.4683
 8.33583
 8.40247
 7.71079
 7.63117
 7.60089
 7.5191
 7.9887
 7.89005
 7.9869
 7.98734
 9.40576
 9.3212
 9.79096
 9.69242
 9.80449
 9.89043
 10.3
 10.4265
 10.3676
 10.3353
 8.73288
 8.62945
 8.62631
 8.71579
 11.3343
 11.2373
 11.1648
 11.1061
 10.8108
 10.8364
 10.8884
 10.8411
 13.1553
 13.0847
 13.0956
 13.2075
 10.2984
 10.5141
 8.80764
 9.0412
 8.86559
 8.9398
 9.9725
 10.0028
 9.93676
 9.8411
 9.06296
 8.96427
 8.90013
 9.01214
 9.72944
 9.70631
 7.43675
 7.5029
 5.12551
 5.09132
 5.07101
 5.03584
 11.6111
 9.82645
 9.8417
 9.79527
 9.69444
 9.24387
 9.38244
 9.33769
 9.31179
 10.5547
 10.6384
 10.6723
 10.7848
 7.78476
 7.98509
 7.80683
 7.9831
 8.94625
 9.04521
 9.09424
 8.95484
 11.3908
 11.4365
 11.333
 11.4394
 11.5013
 10.0806
 9.93077
 10.1132
 10.0415
 10.1948
 10
 10.1586
 10.1847
 11.2015
 11.1965
 11.3122
 11.2033
 10.8572
 10.8182
 10.6453
 10.7253
 9.56884
 9.43755
 9.63501
 9.64606
 11.3293
 11.4065
 11.4529
 11.4066
 8.8448
 8.79685
 8.99463
 10.6574
 10.6589
 10.6826
 10.705
 12.5507
 12.4736
 8.86369
 8.75903
 8.72491
 9.07562
 8.90399
 8.97391
 8.89236
 11.5698
 11.4756
 11.4276
 11.9565
 11.8958
 11.8935
 11.9398
 8.31031
 8.34177
 8.2212
 8.36157
 8.95898
 9.15512
 8.94699
 7.08451
 7.38209
 7.24741
 9.41705
 9.5297
 9.50191
 6.59066
 6.61847
 6.56138
 13.2881
 13.3673
 13.3662
 13.2953
 5.57629
 5.50754
 5.60843
 5.49029
 10.3807
 10.502
 8.70038
 8.82289
 11.1599
 11.1505
 11.1827
 11.0631
 8.44488
 8.5084
 8.33073
 7.36073
 7.23333
 7.26229
 7.23741
 6.4965
 6.74301
 11.6031
 11.588
 11.646
 8.86117
 8.87834
 9.01806
 10.8289
 10.953
 10.8083
 11.5098
 11.5081
 11.5434
 11.5961
 9.85162
 9.79123
 9.93142
 9.73874
 10.028
 10.1807
 10.1479
 10.0442
 7.90612
 7.95174
 7.97007
 7.7983
 7.47203
 7.60183
 7.5261
 7.71573
 10.1348
 10.1187
 10.018
 8.35508
 8.4076
 8.49458
 7.85263
 7.71381
 7.80029
 7.75325
 4.13633
 4.24479
 4.08813
 9.36326
 9.40173
 9.40475
 7.81817
 7.72264
 7.92277
 9.5065
 9.42516
 9.60624
 10.4248
 10.5818
 10.5453
 11.598
 11.5484
 11.5725
 11.5436
 9.39757
 9.68327
 9.53434
 9.63753
 10.6749
 10.7185
 10.8135
 11.2692
 11.1309
 8.03321
 8.13367
 7.90278
 8.0537
 8.01257
 7.87536
 8.08406
 8.18037
 11.1611
 11.0257
 10.9581
 10.9189
 11.3162
 11.454
 11.3716
 11.4612
 12.1826
 12.2477
 12.1787
 12.293
 5.78817
 5.7091
 6.77703
 6.99975
 6.87433
 6.75227
 5.45272
 10.505
 10.3525
 10.5056
 9.2496
 9.20765
 9.31993
 9.37186
 11.2525
 11.2633
 9.58817
 9.62589
 9.48194
 11.6936
 11.645
 6.99053
 6.9784
 6.80395
 7.11814
 6.36645
 6.41946
 6.12389
 6.29909
 7.39262
 7.36545
 7.53102
 10.3962
 10.2946
 10.3019
 6.42958
 6.45607
 6.39189
 6.35156
 10.7489
 10.9123
 10.7886
 10.7274
 7.26091
 7.36474
 7.4034
 7.26941
 10.6592
 10.8035
 10.8338
 10.6026
 11.3395
 11.2878
 11.384
 5.45651
 5.16571
 5.30313
 5.38333
 11.5604
 11.5073
 11.5335
 9.89719
 9.84942
 9.69199
 9.78917
 5.57261
 5.39419
 5.4887
 10.6626
 10.7656
 10.6207
 10.7058
 8.20019
 5.96987
 5.86427
 6.22831
 6.02309
 11.7798
 11.7464
 11.683
 11.7545
 7.97497
 8.21276
 8.03082
 7.96931
 9.43632
 9.38652
 9.57766
 11.317
 11.3999
 11.3008
 11.5492
 8.19947
 8.25186
 8.12116
 10.8661
 10.9214
 13.193
 13.2989
 13.1948
 13.127
 12.0538
 12.3245
 12.3362
 6.31149
 6.39084
 6.05625
 6.29589
 6.34149
 6.23303
 11.9618
 11.9286
 12.0516
 11.8897
 10.0802
 10.0182
 10.032
 9.95601
 9.6462
 9.83687
 9.82676
 9.77583
 8.85779
 8.91595
 8.74449
 8.89654
 8.83965
 9.07635
 8.92642
 9.05717
 5.79432
 11.4175
 11.4732
 11.4092
 11.4501
 5.70317
 5.83144
 5.63302
 8.75736
 8.91235
 8.98763
 8.92416
 11.5438
 11.4203
 11.3796
 9.03448
 9.15934
 9.06487
 9.16549
 9.45481
 7.95707
 7.90929
 7.73258
 7.79699
 10.7556
 10.7626
 10.7579
 9.46019
 9.22165
 9.31998
 5.54836
 5.62245
 5.80873
 5.64526
 9.47921
 9.51041
 9.56812
 13.6255
 13.5895
 13.6953
 9.49094
 9.58991
 9.50079
 9.72302
 7.8763
 7.72391
 7.77141
 9.32329
 9.2865
 6.65917
 6.56886
 6.75306
 6.7213
 7.42893
 7.28234
 7.3584
 7.38926
 5.35541
 5.41526
 5.52863
 5.64653
 8.9491
 9.22494
 9.02613
 8.97915
 7.63104
 7.6718
 7.72943
 7.78919
 6.66421
 6.53849
 6.4145
 10.9394
 10.8593
 11.0644
 10.9864
 9.63091
 9.49068
 10.3258
 10.428
 10.3127
 10.3642
 8.0493
 8.06649
 8.07936
 7.9705
 9.51296
 9.38059
 9.41747
 9.56203
 8.20549
 8.29223
 8.10043
 8.27691
 9.36237
 9.32781
 9.18868
 9.18489
 9.56359
 9.67951
 9.67519
 6.75797
 6.88071
 6.79693
 6.05056
 6.05064
 6.10277
 5.83577
 6.65735
 6.66683
 6.54502
 7.67168
 7.43881
 7.62906
 12.9151
 12.9168
 13.01
 9.66488
 9.48721
 9.6262
 6.92979
 6.85294
 6.94441
 6.95252
 9.66966
 9.60277
 9.68141
 8.85039
 8.80608
 8.79919
 8.94465
 8.1614
 8.48139
 8.37393
 8.38251
 9.45504
 9.33832
 9.37662
 9.27319
 11.099
 11.0154
 11.0834
 11.15
 9.61409
 8.86404
 8.88045
 8.79313
 9.06996
 11.5717
 11.5284
 11.5119
 11.5188
 11.5208
 11.4178
 11.4861
 11.4204
 11.3035
 11.2189
 11.2721
 11.3306
 8.18267
 8.21798
 8.01789
 7.93371
 10.8654
 10.9461
 10.8927
 10.875
 4.9996
 5.18119
 5.04197
 5.17499
 12.238
 12.1756
 12.0927
 12.1
 10.8634
 10.8492
 10.8809
 11.7592
 11.8519
 11.9158
 11.8931
 11.2707
 11.3576
 11.1886
 11.4776
 11.4573
 9.23494
 9.25848
 9.15608
 8.94604
 6.12195
 6.27504
 6.32495
 6.0435
 6.07847
 5.96112
 6.13296
 11.2439
 11.3348
 5.33621
 5.2174
 5.38739
 6.69579
 6.7306
 6.68374
 6.5742
 11.292
 11.3567
 11.274
 5.48462
 5.4073
 5.54992
 5.36145
 10.2681
 10.2378
 10.1383
 10.355
 11.2177
 11.3806
 11.3069
 11.1899
 11.8498
 11.6589
 11.7371
 11.7754
 12.6473
 12.6031
 12.7101
 12.7085
 8.50225
 8.23301
 8.37901
 8.25972
 10.1636
 10.1588
 10.2144
 10.3962
 5.41619
 5.64354
 5.43276
 13.7003
 13.5834
 13.6626
 13.5268
 12.0858
 11.9653
 12.0352
 11.9329
 5.58518
 5.32685
 5.46524
 5.47901
 9.44544
 9.42226
 9.30438
 6.54344
 6.31112
 6.27594
 11.0543
 11.0631
 11.2278
 5.35263
 5.54554
 5.55407
 5.43168
 6.57738
 6.6459
 6.6868
 6.82788
 10.7064
 10.6331
 10.5171
 10.6304
 10.1848
 10.3285
 10.1918
 10.359
 7.30068
 7.2947
 7.24393
 7.07308
 9.10784
 9.19367
 9.29193
 9.22518
 12.3242
 12.2059
 12.2084
 12.2088
 6.49888
 6.8455
 6.62156
 6.70776
 5.16197
 9.16316
 9.12354
 9.02587
 9.02946
 6.05995
 5.9553
 5.98892
 5.80611
 11.5498
 11.5489
 11.5296
 11.5274
 5.45201
 5.3107
 5.5094
 5.58201
 9.54498
 9.58054
 10.1276
 10.2033
 10.105
 10.0555
 7.3391
 7.50577
 7.52164
 7.51726
 8.82813
 8.65445
 8.6814
 10.197
 10.2209
 10.1657
 7.35778
 7.36989
 7.5574
 7.56253
 7.56435
 7.6516
 7.48401
 7.6108
 11.1369
 11.2579
 11.2686
 9.45858
 9.14813
 9.15012
 9.32514
 12.3586
 12.2615
 12.1429
 12.3078
 12.4076
 5.30811
 5.61992
 5.2931
 5.5617
 9.21819
 9.30439
 9.36825
 9.22683
 6.21803
 6.09813
 9.77426
 9.98458
 9.97624
 10.8079
 10.9348
 10.724
 10.7606
 5.56002
 5.62479
 5.48974
 5.49069
 11.399
 11.3544
 11.3737
 10.7783
 10.8333
 10.7299
 10.822
 10.2538
 10.1072
 10.216
 10.3864
 7.96135
 7.66064
 7.83196
 7.76193
 10.9708
 10.792
 10.893
 10.9085
 7.41103
 8.5658
 8.38535
 8.33566
 8.59583
 6.10567
 6.04478
 6.22526
 5.65684
 5.73196
 5.74571
 5.8771
 8.47707
 8.40009
 8.59887
 8.50648
 4.83595
 4.84469
 4.84456
 5.03964
 10.3187
 8.68141
 8.89073
 8.90081
 8.74142
 9.1826
 9.40646
 9.31
 9.25206
 12.6305
 12.5099
 12.4788
 12.6018
 9.55176
 9.51378
 9.46184
 9.63497
 9.93641
 9.90682
 9.85984
 9.79884
 9.79376
 9.76935
 9.66165
 6.4068
 6.57759
 6.64693
 9.89515
 10.0453
 10.0239
 9.92498
 6.43459
 6.18327
 6.32045
 9.35775
 9.4552
 9.16151
 9.06615
 9.11203
 9.01062
 9.0552
 9.00942
 9.29146
 9.256
 9.06589
 9.1319
 6.27642
 6.17904
 6.1874
 10.2672
 5.89777
 8.81819
 8.71206
 8.83029
 8.97516
 11.1926
 11.1669
 11.3132
 10.9363
 10.8067
 10.7528
 9.14678
 9.09415
 9.24122
 9.44126
 9.44864
 9.37529
 9.29918
 9.30251
 9.41674
 9.20405
 9.38958
 13.7449
 13.7241
 13.8271
 7.31214
 7.50529
 7.32014
 9.5681
 9.51959
 6.76804
 7.01344
 6.94678
 7.01268
 8.60141
 8.47202
 8.5961
 12.5265
 12.5245
 12.6481
 12.5988
 9.85035
 10.0248
 9.89492
 9.9561
 11.0916
 11.1564
 11.2233
 11.2642
 8.03153
 8.25097
 8.13846
 8.04931
 10.4793
 10.5817
 10.5005
 10.6567
 12.2968
 12.3166
 12.3263
 10.2264
 10.2793
 10.3548
 10.3206
 7.98333
 7.80183
 7.86209
 7.86028
 9.38493
 9.23065
 9.20675
 9.29733
 10.9265
 10.9939
 10.9182
 10.0788
 10.1883
 10.1359
 10.1623
 10.9673
 11.1071
 10.9431
 11.0697
 11.5224
 11.3631
 11.3746
 11.5519
 5.69576
 5.58793
 5.64738
 5.59199
 11.3234
 11.22
 11.2577
 11.2174
 10.984
 11.0759
 10.9377
 10.953
 8.39625
 8.18589
 8.26654
 8.14834
 10.2269
 10.2731
 10.1368
 10.1883
 4.3628
 4.28144
 4.30049
 4.26893
 9.85017
 9.91588
 9.7837
 11.5188
 11.6106
 11.5721
 11.46
 11.3785
 11.4389
 11.3975
 11.4415
 11.1751
 11.3716
 7.87675
 8.02712
 7.8951
 8.11165
 4.75795
 4.88327
 4.80658
 4.83149
 10.0205
 10.1583
 10.0814
 10.1634
 11.1864
 11.27
 11.2826
 8.13842
 8.30392
 8.32684
 8.1728
 9.69466
 9.72557
 9.63619
 9.54072
 10.8254
 10.8219
 10.8371
 10.7201
 11.5809
 11.3888
 11.5053
 7.10549
 6.93838
 6.86576
 7.06407
 6.86199
 6.8568
 7.02359
 9.97695
 9.97114
 9.8772
 9.81602
 9.8809
 9.95581
 9.78952
 10.8324
 10.7056
 10.6498
 10.6749
 8.18802
 8.22857
 8.34472
 11.2054
 11.2029
 11.3431
 9.20084
 9.03628
 9.1046
 6.79814
 7.0073
 6.8964
 7.90504
 7.94676
 10.297
 10.2011
 10.3085
 10.1933
 10.1414
 10.2022
 9.59268
 9.76779
 10.6938
 11.72
 11.6967
 11.8026
 6.35229
 6.37653
 6.63
 9.99062
 9.8813
 9.92429
 10.0168
 10.7538
 9.34169
 9.23102
 8.10266
 8.05879
 8.13448
 7.98995
 9.38265
 9.50541
 9.35259
 9.89867
 9.82335
 10.0367
 9.87225
 10.2313
 9.9835
 9.86741
 9.97622
 10.0346
 9.79651
 6.40358
 6.56564
 6.60869
 6.49179
 6.3077
 6.17735
 5.9443
 6.02522
 11.2485
 11.1362
 9.3293
 9.37266
 9.41706
 9.52764
 8.88081
 8.83936
 8.7869
 8.72116
 8.26454
 8.12467
 8.2776
 8.30357
 9.63939
 9.7221
 9.77711
 9.6165
 9.86085
 9.766
 9.83501
 9.90795
 6.7929
 7.03782
 6.8267
 6.88469
 11.0094
 10.8543
 10.8345
 10.7343
 11.0495
 10.8959
 10.9791
 7.20108
 7.04749
 6.86367
 6.80426
 10.8893
 10.7892
 10.8242
 10.7261
 6.09325
 6.17503
 6.04739
 6.12947
 6.79313
 6.89111
 6.83611
 6.92122
 10.1212
 10.0487
 10.1761
 10.1097
 7.83039
 7.77562
 7.87935
 8.03429
 10.7723
 10.6961
 10.5926
 10.5557
 7.42078
 7.51284
 7.47427
 11.2915
 11.21
 11.3113
 11.2481
 8.64834
 8.6983
 8.60876
 8.54712
 10.2271
 10.1857
 7.55866
 7.31606
 7.42684
 7.49857
 7.36812
 7.40057
 7.50614
 9.7801
 9.58565
 9.76272
 7.11609
 7.12963
 7.06398
 6.9184
 12.2775
 12.229
 12.1474
 12.1897
 10.7683
 10.7223
 10.6015
 10.5773
 8.51223
 8.7161
 8.68955
 8.49464
 6.20662
 6.1744
 6.29543
 6.17469
 6.68956
 6.53186
 6.49962
 6.65675
 5.98788
 5.99298
 5.95388
 6.31676
 6.25585
 10.4359
 10.3462
 10.4466
 10.3153
 11.0833
 11.036
 11.2326
 11.113
 10.6008
 10.5963
 10.2962
 10.1487
 10.2599
 10.2568
 9.91044
 9.89306
 9.73327
 9.89192
 11.1163
 11.1128
 11.2143
 9.07884
 9.17515
 9.14842
 9.20961
 4.34729
 4.40582
 4.55944
 10.3906
 10.4151
 10.3702
 10.2443
 6.80441
 7.02268
 6.88544
 6.82892
 7.96026
 7.76542
 7.82767
 9.29162
 9.37763
 9.2209
 7.91977
 7.73871
 7.92427
 6.79252
 6.94254
 8.06766
 8.04359
 8.04195
 10.7306
 10.6769
 10.6409
 10.7959
 6.04896
 5.93476
 6.05604
 6.11237
 8.60619
 8.4171
 8.53072
 12.7741
 12.8983
 12.9368
 12.7858
 11.3506
 11.4171
 8.86812
 10.2602
 10.0786
 10.1997
 10.2586
 9.21281
 9.05511
 9.06343
 7.58861
 7.54894
 7.6799
 7.58222
 5.99325
 5.89483
 9.48097
 9.54355
 9.53619
 9.63109
 11.493
 11.5877
 11.5986
 11.4515
 6.64038
 6.53382
 6.56203
 6.63668
 8.46308
 8.39612
 8.491
 13.5088
 13.5564
 13.6486
 13.6495
 11.2464
 11.2702
 11.3857
 10.5078
 10.4014
 10.5835
 10.4702
 8.63964
 8.62328
 8.72019
 8.51809
 9.36562
 9.24562
 11.6151
 11.5752
 11.5879
 11.5829
 8.35322
 8.18392
 10.5652
 10.7249
 10.6353
 10.5927
 10.0032
 9.94215
 10.1115
 9.99601
 9.35254
 9.20311
 9.1357
 9.25749
 10.548
 10.6157
 10.7646
 7.96528
 8.18962
 7.96335
 8.13571
 7.09423
 6.95176
 6.81176
 7.07141
 7.29998
 7.31554
 7.30093
 7.1349
 11.5496
 11.678
 11.5842
 11.6814
 9.38464
 9.47926
 13.0377
 13.1588
 13.1047
 13.2204
 10.0624
 10.1971
 10.2585
 5.38719
 13.9941
 13.9644
 13.9663
 14.1205
 9.48151
 9.39829
 9.48292
 9.4663
 10.3839
 10.2488
 10.3206
 7.17882
 7.03852
 7.01216
 7.19563
 7.16035
 7.22198
 7.04044
 7.0499
 7.26851
 7.19328
 7.33583
 7.39835
 10.6904
 10.5751
 10.7655
 10.5768
 11.1761
 11.2229
 11.2895
 11.2786
 8.35563
 8.36353
 8.17237
 8.3743
 9.9331
 10.1317
 9.88051
 10.0119
 4.64861
 6.06908
 5.99635
 8.67539
 8.68889
 9.82452
 9.94203
 9.91104
 5.94835
 5.67534
 5.85143
 5.90025
 9.57208
 9.63752
 8.81758
 8.94378
 12.5245
 12.4136
 12.5456
 12.4268
 10.7124
 10.7628
 10.8615
 10.7905
 8.3961
 8.20159
 8.36827
 8.24943
 12.2773
 12.4047
 12.308
 12.2549
 4.95354
 5.03146
 4.85081
 5.0152
 6.1772
 6.38942
 5.80842
 5.93145
 6.07648
 5.80009
 7.1219
 6.98296
 10.1757
 10.103
 10.1975
 13.774
 13.6718
 13.8061
 13.7969
 12.1399
 12.0588
 12.037
 12.142
 6.10141
 5.95965
 6.10068
 6.1944
 7.73072
 7.49392
 7.62236
 9.06894
 9.21032
 9.31212
 9.14343
 10.5445
 10.3812
 10.513
 10.5649
 6.58933
 6.42534
 6.54768
 6.06365
 9.19468
 9.01222
 10.5833
 10.5351
 8.09395
 7.91976
 8.14683
 8.08353
 11.1025
 11.2614
 11.0548
 11.2775
 11.3439
 11.4769
 11.4286
 13.6347
 13.4594
 13.4827
 13.5419
 10.4738
 10.3961
 10.4089
 10.2885
 6.67846
 6.65119
 6.99397
 6.84025
 6.92663
 6.84022
 10.7758
 10.7823
 10.652
 10.8711
 7.45803
 7.5558
 7.40113
 8.03022
 8.03045
 7.9795
 8.11487
 6.88589
 6.73391
 6.91648
 6.71766
 10.5881
 10.4586
 10.5028
 10.5621
 5.65248
 5.94288
 9.85804
 12.8282
 12.7831
 12.7072
 12.6658
 7.44355
 7.49153
 7.35167
 12.1825
 12.2612
 12.1972
 12.3029
 7.95441
 7.97171
 7.96787
 7.81821
 11.4654
 11.4708
 11.608
 11.4264
 11.0504
 11.0687
 10.9491
 10.9225
 8.2406
 8.1182
 8.10107
 10.2767
 10.2098
 10.3133
 10.3919
 8.57084
 8.59715
 8.49557
 8.72951
 8.78798
 8.91757
 6.91774
 6.86015
 6.88148
 7.97079
 7.9467
 8.05969
 12.944
 12.9279
 12.8214
 12.9086
 11.2396
 11.1141
 11.2989
 11.072
 6.49943
 6.73361
 6.73868
 6.75151
 7.17897
 7.2352
 10.8764
 10.6267
 10.8587
 8.00936
 8.20386
 8.1723
 8.26359
 8.10669
 8.15417
 8.21995
 10.6917
 10.7598
 10.6762
 10.6456
 5.78431
 5.78529
 10.1692
 10.2227
 10.1656
 10.0904
 10.803
 10.7934
 10.7466
 7.91506
 7.86603
 9.43615
 9.49946
 9.47677
 9.33205
 11.4769
 11.5281
 8.37702
 8.44941
 10.1667
 10.3541
 10.3205
 10.216
 9.06382
 9.0683
 9.17373
 8.97013
 9.0837
 9.17721
 9.09213
 11.7976
 11.7769
 11.8366
 11.6162
 12.1835
 12.1819
 12.0947
 12.1366
 7.87655
 7.99463
 8.1246
 8.02294
 6.36962
 6.34904
 6.46912
 6.47088
 8.78653
 8.70122
 8.83656
 9.33037
 9.41583
 9.48291
 9.41415
 9.33385
 7.31754
 7.27731
 10.4723
 10.3391
 10.4625
 10.4998
 11.0124
 6.36348
 6.39783
 6.52761
 6.46397
 9.27912
 9.51684
 9.44986
 9.32096
 13.472
 13.4007
 9.75945
 9.9346
 9.76384
 12.9579
 12.9256
 12.9845
 12.87
 8.50253
 8.62031
 8.52179
 8.58279
 11.483
 11.3419
 11.311
 10.7288
 10.6145
 5.51844
 5.5454
 5.54819
 5.88726
 5.88224
 5.98019
 11.2339
 11.0496
 10.7445
 10.7488
 13.2073
 13.2808
 13.2927
 13.3109
 6.37834
 6.61064
 6.33031
 11.071
 11.0494
 10.9757
 11.1485
 10.8436
 10.8972
 10.7506
 10.8988
 7.91877
 7.85763
 7.7863
 7.87588
 8.55513
 8.23399
 8.38922
 8.00766
 7.98074
 8.16051
 7.99119
 7.36081
 7.53527
 7.21453
 7.6153
 11.5655
 11.5556
 11.1929
 11.1854
 11.1255
 8.6655
 8.73754
 8.88467
 8.81986
 10.9613
 10.972
 10.8229
 10.8741
 7.72689
 7.82073
 7.78786
 7.69492
 11.5159
 11.3661
 6.45328
 6.56885
 6.51668
 6.65299
 7.73993
 7.99629
 7.88421
 7.69665
 10.5203
 10.5061
 10.5499
 10.431
 6.79225
 6.59834
 9.82385
 9.78801
 9.73802
 9.70622
 12.2529
 12.2299
 12.246
 12.2219
 11.4963
 11.4244
 11.5015
 11.3977
 5.41039
 5.34469
 5.28774
 5.31086
 6.16772
 6.24095
 6.30325
 10.5835
 10.6068
 10.6264
 5.52207
 5.42092
 9.7343
 9.67352
 9.77129
 9.58044
 6.66035
 6.77543
 6.62809
 6.77477
 10.8872
 10.9572
 10.8674
 10.974
 11.8204
 11.6962
 11.7559
 7.02479
 6.82542
 6.83995
 6.87072
 10.0838
 9.90004
 9.93132
 9.98
 11.142
 11.0931
 11.0057
 11.233
 11.5815
 11.7681
 11.5348
 8.71777
 8.87368
 8.63254
 9.19879
 9.16322
 9.28541
 9.11445
 8.7488
 8.76991
 8.61588
 8.79981
 10.2144
 10.0785
 10.2088
 10.0885
 10.7717
 10.7412
 10.6667
 10.8337
 11.2538
 11.3668
 8.15796
 7.94517
 8.16973
 8.17011
 9.06537
 9.26412
 9.10644
 9.19401
 8.98256
 9.1918
 9.21917
 9.29084
 9.0339
 9.13852
 12.8761
 12.8341
 12.7421
 12.8116
 6.11831
 5.94557
 6.12601
 9.99626
 10.0067
 10.0393
 10.1366
 9.57065
 9.68788
 9.57411
 11.3883
 11.3026
 11.4416
 11.4004
 11.0507
 11.1697
 11.0849
 11.1176
 10.0775
 10.0398
 9.9267
 10.8818
 10.9543
 7.73727
 7.83094
 7.62146
 5.21091
 5.18355
 5.32991
 5.23759
 11.0594
 11.2024
 11.1927
 11.0377
 9.57301
 9.44777
 9.40299
 9.54558
 7.3116
 7.26607
 7.42693
 7.42288
 10.957
 10.9008
 11.0028
 10.8116
 10.6102
 10.5296
 10.4852
 10.3736
 7.00974
 7.15242
 7.34328
 7.29998
 10.6511
 10.5027
 6.39121
 6.4533
 6.30273
 8.74286
 8.87699
 11.9231
 11.9793
 12.0123
 12.0385
 10.0294
 9.96736
 9.92359
 9.95571
 11.9834
 12.0376
 11.9777
 9.60866
 9.63407
 8.4735
 8.36822
 8.20762
 8.46172
 10.0557
 10.045
 8.17229
 8.01884
 10.1512
 10.2364
 10.1613
 10.1134
 8.13876
 8.25913
 8.07612
 8.04606
 7.48191
 7.30973
 7.14888
 7.26441
 5.61498
 5.59357
 5.66835
 5.65913
 9.46625
 9.39097
 11.0164
 11.0192
 11.2341
 11.2954
 7.41241
 7.59144
 11.3672
 11.2354
 11.3272
 12.6159
 12.5946
 12.4152
 12.4927
 12.822
 12.7219
 12.7792
 9.1551
 8.97517
 8.99977
 9.02298
 10.1239
 10.0007
 10.1001
 11.0997
 10.5516
 10.4453
 10.6124
 10.4717
 11.1391
 11.0416
 11.2323
 11.1097
 10.2609
 10.3679
 10.2372
 10.3588
 7.9175
 8.20737
 8.19465
 7.95866
 5.59825
 5.66637
 5.66556
 5.51844
 9.81075
 9.85622
 9.65838
 9.71797
 7.0224
 7.10883
 6.8223
 6.87417
 10.5643
 7.88118
 8.10972
 8.00087
 8.03587
 11.8356
 11.9073
 11.8437
 11.8336
 7.85422
 7.69387
 7.68389
 10.3835
 6.32467
 6.31324
 6.40705
 6.10851
 5.9212
 5.92039
 5.90795
 5.79789
 5.99101
 5.84939
 5.81178
 9.29684
 9.3235
 9.27945
 9.46375
 5.93471
 5.92347
 5.85384
 5.85923
 11.1287
 11.22
 11.2453
 11.2748
 8.27853
 8.34272
 8.32141
 8.48402
 9.85919
 9.68999
 9.7202
 9.84291
 12.3876
 12.3017
 12.3672
 8.48116
 9.56567
 9.60664
 9.6743
 9.4955
 5.96436
 5.82039
 5.82661
 5.77227
 6.03359
 5.92801
 5.77767
 5.83108
 8.39234
 8.43971
 8.34108
 8.46654
 10.5507
 10.6371
 10.684
 10.6303
 10.0118
 9.86013
 9.95852
 6.271
 6.16938
 6.29472
 6.44915
 5.89774
 5.80269
 5.81275
 5.95047
 11.1613
 11.2378
 11.2346
 7.07502
 6.93879
 5.87532
 5.91868
 5.8889
 11.0831
 11.1741
 11.0251
 11.0147
 7.65147
 7.40232
 7.68752
 7.72848
 10.0391
 8.74508
 8.70867
 8.60761
 8.73458
 8.37502
 8.50141
 8.34214
 8.59726
 6.02872
 5.93659
 6.75549
 6.54552
 6.68602
 6.51763
 6.83414
 6.59568
 6.70102
 6.51618
 6.97034
 7.16607
 6.91283
 7.1157
 7.68333
 7.54777
 7.66771
 7.58147
 12.2055
 12.0639
 6.08948
 6.02033
 5.9101
 11.5838
 11.6067
 11.5772
 10.7798
 10.949
 10.987
 10.8273
 7.57503
 7.66889
 7.53959
 7.39901
 9.73862
 9.88026
 9.81885
 9.8063
 5.12174
 5.26244
 5.13188
 4.99927
 8.82311
 8.8587
 8.74862
 8.79139
 6.93532
 6.803
 6.96866
 8.1607
 8.16184
 8.86025
 9.09833
 8.9121
 8.91502
 9.15236
 9.34947
 9.20299
 9.30786
 11.3138
 11.2632
 11.2425
 8.27544
 8.14522
 8.20452
 8.07686
 10.1752
 10.1179
 10.0092
 6.44479
 6.48778
 6.26295
 6.53297
 5.82342
 8.61644
 8.84171
 8.85698
 8.71947
 8.20861
 8.09608
 8.075
 8.13656
 8.3488
 8.42957
 8.49376
 13.7375
 13.8099
 13.704
 13.7079
 10.8478
 10.7294
 11.4571
 11.5631
 9.6215
 9.85507
 9.78705
 9.69261
 14.3165
 14.2772
 5.29854
 5.24478
 5.17978
 5.04846
 7.61972
 7.32432
 11.2903
 11.3093
 11.2333
 11.2387
 9.57669
 9.56123
 9.44626
 9.49436
 6.8188
 6.65466
 6.71963
 6.90811
 10.665
 10.7168
 10.6022
 10.6523
 9.75853
 9.88225
 9.71285
 9.78882
 6.69271
 6.61364
 6.60229
 6.43668
 9.78371
 9.73321
 9.73554
 9.91416
 5.65598
 5.79354
 5.75514
 5.81163
 8.33847
 8.20789
 8.25278
 10.8271
 10.8285
 11.0121
 10.8552
 8.5773
 8.70504
 8.6132
 8.72731
 9.03622
 9.15493
 10.3114
 10.1024
 10.068
 8.22516
 8.2561
 8.07651
 8.0427
 5.50304
 5.52109
 5.37635
 5.38405
 6.34478
 6.21075
 6.09655
 6.36563
 10.995
 11.0198
 11.1318
 11.0943
 11.5611
 11.5732
 11.5991
 11.5842
 11.2661
 11.4353
 11.32
 11.3802
 11.7334
 11.7174
 11.7675
 9.24413
 9.27159
 9.2443
 9.45494
 7.10041
 7.01275
 7.65364
 7.44147
 7.57064
 7.59125
 7.31772
 7.21105
 7.40214
 10.8425
 10.9497
 10.9092
 10.9891
 9.29064
 9.26191
 9.16587
 9.18859
 5.08274
 5.06195
 5.01234
 4.93374
 8.96573
 9.05069
 9.11455
 8.95063
 8.72887
 8.90577
 8.71036
 8.87262
 6.20141
 6.1021
 6.25794
 6.24811
 11.3902
 11.5822
 11.5031
 11.4383
 7.73212
 7.7292
 11.4585
 11.5512
 6.97263
 7.15175
 7.00052
 6.85806
 8.98971
 9.01802
 8.93826
 9.13839
 11.9845
 11.8682
 11.9525
 11.4831
 11.5212
 11.5958
 11.5836
 10.4448
 10.5996
 8.98493
 9.05362
 8.94541
 9.05004
 8.0746
 8.09643
 7.96867
 10.0153
 10.1375
 10.1129
 9.98993
 10.1639
 9.95506
 10.1714
 10.0347
 7.34469
 7.49118
 7.42824
 7.42846
 11.7928
 11.8015
 11.74
 5.39305
 5.359
 5.59063
 5.56179
 8.43818
 8.49026
 8.46599
 11.0431
 10.9967
 10.9487
 5.85899
 5.86988
 6.02865
 5.78604
 6.9392
 10.4966
 10.6532
 10.6327
 10.5781
 6.08104
 6.39521
 6.25695
 6.12589
 8.48268
 8.28734
 8.35225
 5.44595
 5.41103
 5.40996
 5.43291
 6.08624
 6.21899
 6.22055
 6.05751
 5.98798
 11.9827
 11.8974
 9.57424
 9.62791
 9.43626
 9.55632
 12.0896
 12.1643
 12.157
 12.1194
 10.3546
 8.37527
 8.32558
 8.56199
 7.71218
 7.58644
 7.45525
 7.71663
 10.326
 10.3027
 10.4089
 10.4572
 10.741
 10.7716
 8.62429
 8.52671
 8.54303
 10.6185
 10.7009
 10.6092
 10.5263
 10.7865
 10.7817
 10.7123
 10.6779
 5.87855
 5.81641
 10.2842
 10.1749
 10.2775
 10.2927
 11.7832
 11.5809
 11.7902
 11.6337
 10.8492
 10.8201
 10.5522
 10.7794
 11.7066
 11.7835
 11.6994
 7.14965
 7.31195
 7.14416
 7.76656
 7.74565
 6.11209
 6.07015
 6.19936
 11.2614
 11.4005
 11.3552
 11.3928
 11.0943
 11.0256
 10.9747
 13.9139
 13.7932
 13.9063
 13.9747
 7.25618
 7.47822
 7.24558
 7.14005
 10.6041
 10.5371
 10.6212
 10.4066
 8.44756
 8.56956
 8.50782
 8.42328
 7.43594
 7.48337
 7.65668
 7.56877
 11.0576
 11.0512
 10.9999
 10.9447
 9.61888
 9.48988
 9.6328
 7.90311
 7.87079
 7.76188
 8.39826
 8.39945
 8.47267
 8.29547
 9.75666
 9.91382
 9.92377
 9.90459
 8.30276
 8.22673
 8.16215
 11.7641
 11.5384
 11.7277
 11.7023
 9.41408
 9.39882
 9.37682
 9.52685
 11.1637
 11.2866
 11.2871
 11.226
 11.3537
 11.5391
 11.3197
 11.3636
 4.90617
 4.6955
 4.99022
 11.1715
 11.2662
 11.182
 5.04183
 7.09741
 7.07756
 7.305
 7.21059
 11.469
 7.76387
 10.5433
 10.5592
 10.6527
 10.6251
 11.7597
 11.8368
 11.8966
 11.8287
 8.10995
 9.69429
 5.36897
 5.40867
 5.40581
 5.44349
 13.7995
 13.7078
 13.742
 10.547
 10.6573
 10.6811
 11.6549
 11.7498
 4.69281
 4.60268
 4.83549
 4.75697
 10.0075
 10.2234
 10.0865
 10.0439
 6.84678
 6.65931
 6.64607
 8.32341
 8.46029
 7.99159
 8.06273
 7.79779
 7.95914
 5.91604
 6.03762
 6.0914
 5.9723
 9.70116
 9.71509
 9.50076
 9.57329
 6.24877
 6.15043
 6.33586
 6.24793
 9.34935
 9.26772
 9.10948
 9.31937
 7.30752
 7.29703
 7.21645
 7.40383
 7.13264
 7.32255
 7.14956
 6.8048
 10.909
 11.0972
 10.8673
 10.7894
 9.23857
 5.71743
 5.44955
 5.56837
 5.52744
 8.77792
 8.74062
 8.9322
 8.68391
 8.51648
 8.5063
 11.3035
 11.3729
 11.4238
 11.2696
 10.3573
 10.4899
 10.3544
 9.30018
 9.33101
 9.39789
 9.48698
 5.16789
 5.35118
 5.37249
 5.32883
 10.7049
 10.7087
 10.8099
 10.8401
 7.76004
 7.99432
 7.97525
 7.87619
 9.44236
 9.4072
 9.53307
 11.3479
 11.2347
 11.2864
 11.259
 12.5567
 12.5412
 12.6831
 12.4937
 10.3705
 10.4942
 10.542
 6.6568
 6.65675
 6.5558
 8.83029
 7.45895
 7.663
 7.56148
 7.5644
 10.6347
 10.6752
 10.6525
 10.6544
 6.29973
 6.04011
 6.16836
 6.23679
 8.95595
 9.1781
 8.15043
 8.25043
 8.20974
 8.12045
 7.96188
 8.01224
 8.28464
 12.7312
 12.6675
 12.8333
 12.7159
 4.52585
 4.25206
 4.32873
 4.50538
 10.3189
 10.1905
 10.2498
 10.9735
 10.8932
 11.0769
 10.8521
 7.99681
 8.17705
 8.09418
 13.4243
 13.5302
 13.5872
 13.4947
 7.49709
 7.49734
 7.19714
 7.14445
 7.30976
 7.27314
 11.5662
 11.6419
 11.6016
 11.6843
 11.2333
 11.2305
 11.1844
 11.2831
 12.2772
 12.1648
 12.1096
 12.2768
 9.70806
 12.3897
 12.3102
 12.3312
 12.2729
 7.32126
 7.5061
 7.54236
 7.61235
 11.2355
 11.1044
 7.77098
 7.66157
 7.66805
 7.86884
 6.63258
 6.52529
 6.62622
 6.54783
 5.15763
 5.03646
 5.05372
 4.85133
 13.7851
 13.8262
 13.6915
 8.46097
 8.29343
 8.34592
 8.38071
 7.0414
 6.99749
 7.17138
 7.07467
 12.7645
 12.6666
 12.6315
 12.7694
 8.53953
 7.30558
 7.23063
 7.17964
 7.36242
 6.04138
 5.93894
 6.04295
 9.73112
 9.67703
 9.69579
 9.59086
 5.39538
 5.14054
 5.05248
 5.17756
 8.73212
 8.66047
 8.74475
 8.76484
 8.57837
 10.7828
 10.9526
 10.7487
 8.91181
 9.08426
 9.01504
 8.84257
 9.09246
 9.03658
 8.99195
 9.17698
 10.3029
 10.4782
 10.4289
 11.6891
 12.4823
 12.3699
 12.593
 8.17365
 8.02858
 8.09822
 7.47382
 7.41925
 7.5138
 10.9224
 10.7758
 10.8569
 10.6537
 7.7765
 7.88097
 6.27969
 6.35261
 6.43281
 6.34994
 5.75923
 5.80981
 5.81654
 6.45732
 6.32874
 8.28743
 8.16303
 8.27169
 6.71077
 6.91422
 6.77729
 11.2042
 13.494
 13.5479
 13.4516
 13.4752
 8.58749
 8.54382
 8.68296
 8.64333
 13.1834
 13.152
 13.0382
 13.2017
 7.60551
 7.61555
 7.49653
 9.22044
 9.29403
 9.40634
 9.43731
 10.6914
 10.5971
 10.8284
 10.746
 8.67575
 8.63618
 8.48462
 7.4475
 7.3432
 9.54003
 9.37422
 9.50602
 9.45523
 10.2488
 10.1496
 10.2185
 11.1819
 11.1782
 11.1699
 8.37524
 8.35559
 8.22426
 8.44121
 7.28285
 7.11478
 7.24448
 7.14119
 4.50299
 4.61297
 4.44227
 4.60061
 9.03484
 9.04071
 4.43036
 4.54632
 4.6219
 8.04959
 11.5624
 11.4578
 11.3598
 11.4122
 10.6967
 10.5943
 10.6792
 10.6248
 8.18121
 8.29603
 8.22741
 6.30201
 6.15655
 11.6554
 11.6164
 11.7277
 11.584
 7.45423
 7.52684
 11.5899
 11.6471
 8.72799
 8.74655
 8.82144
 11.8739
 11.9657
 11.8232
 10.6128
 10.6342
 10.6979
 10.672
 6.20532
 6.2038
 6.10893
 6.21004
 10.0242
 10.0102
 9.99571
 9.65781
 9.85528
 9.74224
 9.73101
 5.93231
 6.13202
 6.13179
 6.16243
 12.5857
 12.5432
 12.627
 9.25624
 9.41739
 9.33825
 7.16628
 7.07357
 7.86285
 7.90885
 8.06795
 8.04704
 12.8456
 12.7568
 12.7799
 12.823
 10.8686
 10.8658
 10.8424
 10.7456
 6.85533
 6.78841
 6.71806
 6.68611
 6.75853
 6.80518
 6.82508
 6.90996
 9.80837
 9.97153
 9.82875
 9.86775
 5.03429
 4.78518
 4.83726
 5.0022
 11.1379
 11.0266
 11.1796
 12.8692
 12.9641
 12.9295
 8.74831
 8.68625
 7.8688
 7.83325
 7.96425
 7.87383
 6.37198
 6.45748
 6.20336
 6.20044
 10.1925
 9.03566
 9.85215
 9.72625
 9.66124
 9.57182
 13.9389
 14.0775
 14.0548
 13.9259
 7.28747
 7.3473
 10.8525
 10.7911
 10.7021
 10.3776
 10.4365
 10.2908
 10.2442
 11.5405
 11.627
 10.1623
