 30.4704
 30.8709
 30.8444
 31.171
 32.2209
 32.2734
 32.1429
 32.0979
 32.7092
 32.7194
 32.6985
 32.7354
 32.6098
 32.5805
 32.7567
 32.6787
 31.8105
 31.6514
 31.8431
 31.8545
 31.8469
 31.9062
 31.7782
 31.8823
 28.4746
 27.8989
 28.1436
 28.3873
 28.2104
 28.4666
 28.5131
 28.0947
 31.7862
 31.842
 31.938
 31.8171
 31.8674
 31.8621
 31.8911
 31.7605
 26.4636
 26.0868
 26.6188
 26.7396
 32.4364
 32.4485
 32.4693
 32.4362
 31.7137
 31.7347
 31.5665
 31.8687
 32.5161
 32.552
 32.6167
 32.5593
 32.6471
 32.6239
 32.6433
 32.6633
 29.8597
 29.6414
 30.0739
 29.6577
 32.1939
 32.1245
 32.1936
 32.0911
 32.3751
 32.405
 32.3696
 32.4134
 32.8714
 32.894
 32.9073
 32.9322
 31.9916
 32.0444
 31.9803
 31.8683
 28.6422
 28.156
 28.8103
 28.3407
 31.5362
 31.5601
 31.421
 31.386
 22.9642
 22.7527
 22.7348
 23.0489
 32.6019
 32.5103
 32.558
 32.6027
 32.8291
 32.7733
 32.6719
 32.7467
 32.699
 32.7356
 32.7191
 32.7291
 32.3266
 32.4721
 32.4861
 32.3279
 29.789
 29.4416
 29.7369
 29.7907
 31.4211
 31.3856
 31.2002
 31.277
 32.5727
 32.5903
 32.5864
 32.6672
 32.6862
 32.654
 32.6999
 32.697
 31.5924
 31.6929
 31.7296
 31.5996
 32.6701
 32.7042
 32.6856
 32.7113
 32.1682
 32.202
 32.2019
 32.2056
 31.6793
 31.4445
 31.704
 31.327
 30.2897
 30.2681
 30.2988
 30.3108
 32.9234
 32.9434
 32.963
 32.8852
 27.6898
 27.9451
 27.9961
 28.0751
 32.5359
 32.5117
 32.4089
 32.4289
 31.2349
 31.3477
 31.229
 31.3775
 32.8244
 32.8398
 32.8406
 32.8334
 32.5412
 32.4857
 32.5063
 32.5793
 28.3248
 28.321
 28.7167
 27.9632
 32.7752
 32.7983
 32.7936
 32.729
 31.646
 31.685
 31.6066
 31.656
 31.0588
 31.2268
 31.1933
 31.1146
 32.629
 32.5568
 32.5792
 32.5479
 30.4843
 30.7002
 30.4243
 30.0854
 31.7466
 31.5892
 31.5043
 31.4631
 32.8238
 32.7868
 32.7988
 32.7047
 29.8151
 29.7258
 29.6055
 29.7916
 32.5129
 32.548
 32.5068
 32.5208
 32.2837
 32.0953
 32.1913
 31.9834
 32.9582
 32.9063
 32.8215
 32.9166
 31.719
 31.8463
 31.7506
 31.9712
 32.5143
 32.5237
 32.501
 32.5898
 32.3865
 32.44
 32.3653
 32.2864
 32.5429
 32.6159
 32.5887
 32.6781
 31.5228
 31.4848
 31.2213
 31.6506
 32.2474
 32.1798
 32.2405
 32.3122
 23.8199
 23.5293
 23.3962
 23.6539
 31.5434
 31.4032
 31.1958
 31.5206
 32.8423
 32.7967
 32.8367
 32.8529
 32.0737
 32.0847
 32.3692
 31.9982
 32.1192
 32.2741
 32.0307
 32.1517
 28.9925
 28.728
 29.0294
 29.0755
 32.0414
 31.9411
 31.8453
 32.0347
 31.802
 31.786
 31.711
 31.6777
 32.9547
 32.9034
 32.8949
 32.9095
 31.6032
 31.5279
 31.668
 31.3685
 32.4421
 32.4462
 32.3833
 32.4585
 29.1453
 28.0438
 28.6309
 28.7051
 28.6842
 28.4645
 28.0543
 28.95
 22.9748
 22.7818
 23.074
 22.8799
 32.7137
 32.6098
 32.6921
 32.6511
 31.2909
 31.6615
 31.6814
 31.4166
 30.3909
 30.1941
 30.5155
 30.6228
 31.6755
 31.5361
 31.5732
 31.5163
 29.7664
 29.6179
 29.3048
 29.6933
 30.407
 30.1506
 30.0616
 30.3647
 31.0257
 31.2256
 30.9701
 30.7182
 32.3881
 32.2989
 32.3723
 32.3263
 30.5754
 30.8932
 30.6358
 30.7522
 31.6553
 31.7271
 31.8002
 31.6989
 32.1471
 32.1092
 32.0855
 32.0034
 30.0379
 29.5478
 30.1457
 29.6099
 22.4351
 22.325
 22.4413
 22.5185
 29.1122
 29.4259
 29.6204
 29.3215
 32.5412
 32.6609
 32.6003
 32.6371
 32.6058
 32.7058
 32.6595
 32.8006
 32.3854
 32.5504
 32.4827
 32.5029
 28.0549
 28.0385
 28.2644
 28.4674
 31.3695
 31.4182
 31.5255
 31.3445
 32.693
 32.6165
 32.7358
 32.6629
 27.9063
 27.8831
 27.4492
 27.4003
 31.8736
 31.864
 31.7407
 32.1263
 30.2557
 30.5613
 29.9579
 30.2064
 30.365
 30.2126
 30.1137
 27.9354
 27.9171
 27.8018
 27.6387
 32.5626
 32.6153
 32.6327
 32.5848
 32.5314
 32.6839
 32.5952
 32.5251
 32.696
 32.6058
 32.7663
 31.883
 31.5625
 31.7673
 31.6941
 32.53
 32.5734
 32.5535
 32.4713
 32.0965
 32.285
 32.2588
 32.0721
 29.368
 29.4681
 29.8494
 29.8255
 30.3066
 30.1735
 29.9846
 30.138
 32.6907
 32.7108
 32.6788
 32.6823
 32.7275
 32.7512
 32.6877
 32.6996
 28.4204
 28.4178
 28.2791
 27.9466
 30.2732
 30.4551
 30.7987
 30.5938
 32.2493
 32.3526
 32.406
 32.3249
 32.0268
 31.9568
 31.9884
 31.9423
 32.6496
 32.6438
 32.6227
 32.6403
 32.7518
 32.6554
 32.774
 32.7553
 23.2507
 23.1057
 23.3057
 23.3833
 32.411
 32.262
 32.3327
 32.4521
 32.0694
 32.2222
 32.0727
 32.2083
 31.1039
 30.6799
 31.2829
 31.1173
 30.0927
 30.1322
 29.781
 29.9489
 29.5594
 29.1583
 29.3346
 29.4404
 25.8324
 25.8171
 25.8155
 26.0232
 31.0347
 30.6312
 30.6755
 30.5913
 32.7658
 32.7278
 32.7213
 32.7556
 27.9326
 27.8971
 28.0635
 28.3047
 32.1672
 32.2743
 32.155
 32.142
 28.9503
 28.4394
 28.5164
 28.9139
 32.1579
 32.2945
 32.1342
 32.2196
 32.1854
 32.0892
 32.0702
 32.2016
 31.9223
 32.0071
 32.0735
 31.9366
 31.1683
 31.1672
 31.5183
 31.277
 30.6111
 30.6015
 30.364
 30.246
 31.5625
 31.4081
 31.3798
 31.3834
 30.7712
 30.6294
 30.7717
 30.6634
 31.1767
 31.2846
 31.2266
 31.3983
 32.4143
 32.5174
 32.3856
 32.4834
 24.5085
 24.9673
 24.9015
 24.553
 31.5791
 31.5846
 31.5282
 31.4897
 29.8865
 30.2449
 29.9146
 29.6654
 24.4641
 24.3143
 24.0899
 24.4663
 32.3776
 32.4147
 32.4548
 32.4353
 31.6845
 31.577
 31.6418
 31.6941
 32.5121
 32.5529
 32.4924
 32.5509
 32.4441
 32.5241
 32.4432
 32.5444
 30.1813
 29.7517
 29.9859
 29.961
 32.5109
 32.5683
 32.5481
 32.5517
 31.9058
 31.7471
 31.8668
 31.9044
 28.4382
 28.6723
 28.2896
 28.3041
 26.9816
 26.7302
 26.8285
 27.2785
 32.3329
 32.2249
 32.3544
 32.205
 32.8145
 32.9159
 32.8296
 32.8476
 30.4574
 30.3904
 30.5666
 30.7401
 30.0363
 29.5543
 30.0016
 29.9479
 32.6553
 32.532
 32.5398
 32.6851
 31.8006
 31.9434
 31.7272
 31.6942
 31.9649
 31.9993
 31.9524
 31.8904
 32.028
 32.1298
 32.0835
 32.0599
 32.5453
 32.5405
 32.4285
 32.4984
 30.0109
 29.4503
 29.8914
 29.715
 30.1234
 30.4237
 30.4944
 30.5255
 32.3715
 32.438
 32.2889
 32.3157
 32.823
 32.8743
 32.7947
 32.8647
 32.7204
 32.7389
 32.6784
 32.6259
 32.678
 32.6536
 32.6647
 32.669
 32.5313
 32.4829
 32.5082
 32.5321
 27.6194
 27.6979
 28.0168
 28.3728
 23.7635
 24.8233
 23.4982
 22.9047
 31.2229
 31.2659
 30.9029
 31.1579
 22.4093
 22.5358
 22.4666
 30.7968
 30.6541
 30.8118
 30.3805
 31.8544
 31.9267
 31.8613
 31.9271
 32.5858
 32.6112
 32.6005
 32.6051
 31.8799
 31.9529
 31.878
 32.0007
 29.9441
 29.9817
 29.608
 29.9923
 32.7104
 32.6523
 32.4906
 32.5347
 32.752
 32.8753
 32.834
 32.708
 31.5677
 31.4765
 31.4766
 31.7137
 32.3579
 32.3981
 32.3714
 32.2746
 31.1387
 31.4289
 31.2512
 31.0912
 32.4915
 32.4845
 32.5617
 32.4194
 32.3008
 32.3997
 32.4052
 32.3846
 24.8702
 24.3272
 24.4709
 24.3793
 32.607
 32.6268
 32.6415
 32.6464
 32.0521
 32.0405
 32.0726
 32.2071
 32.8377
 32.8098
 32.875
 32.7911
 32.0275
 32.1419
 32.0403
 32.0165
 30.5047
 30.7761
 30.9168
 31.0319
 32.4092
 32.294
 32.4369
 32.312
 32.5734
 32.6146
 32.4307
 32.5623
 32.6262
 32.5878
 32.6669
 32.5272
 32.3807
 32.4538
 32.4873
 32.341
 31.2828
 31.3661
 31.3595
 31.2943
 27.7699
 28.1253
 28.3601
 28.5778
 31.5467
 31.7752
 31.8308
 31.6002
 32.4731
 32.5345
 32.4871
 32.4803
 32.5844
 32.4932
 32.5584
 32.47
 30.9851
 30.8705
 30.9309
 30.9302
 28.6044
 29.2561
 29.4899
 28.808
 32.5273
 32.5185
 32.6157
 32.5936
 32.4201
 32.3938
 32.4442
 32.4046
 31.6989
 31.5838
 31.4863
 31.6846
 29.5857
 30.1121
 29.4671
 29.7621
 31.8773
 31.7179
 31.7308
 31.8612
 31.7925
 32.0764
 32.0202
 31.9393
 23.4433
 23.4998
 22.7967
 22.8941
 32.0534
 32.0541
 31.9405
 32.0307
 32.7734
 32.7441
 32.7976
 32.8426
 32.2208
 32.1956
 32.2778
 32.2648
 32.5186
 32.5419
 32.688
 32.5727
 32.6044
 32.7206
 32.7384
 32.668
 32.4304
 32.5127
 32.5286
 32.4853
 29.9728
 30.2435
 29.8113
 30.0669
 29.3541
 29.6109
 29.6314
 29.4902
 23.1
 22.9196
 22.9934
 23.01
 32.6594
 32.6681
 32.6403
 32.6585
 32.7438
 32.7164
 32.7041
 32.7522
 32.8382
 32.9292
 32.766
 32.8142
 31.7597
 32.0618
 32.0848
 31.746
 31.7061
 31.6571
 31.6193
 31.8489
 31.6674
 31.5154
 31.6605
 31.6859
 32.6556
 32.7171
 32.6197
 32.5952
 -86.1252
 -86.0591
 -87.6552
 -84.7881
 32.1849
 32.0874
 32.2178
 32.1208
 32.2027
 32.1372
 32.0956
 32.1498
 32.1674
 32.1547
 32.1103
 32.0742
 32.4644
 32.4742
 32.3688
 32.4953
 24.2551
 24.583
 23.9236
 24.1872
 22.7008
 22.4599
 22.4474
 22.3872
 32.0875
 32.1446
 32.1228
 32.2199
 31.5947
 31.8685
 31.491
 31.8911
 31.9749
 31.9167
 32.0075
 32.0028
 32.4691
 32.4868
 32.5414
 32.4878
 29.321
 29.5658
 29.6945
 29.4471
 32.3632
 32.4322
 32.3708
 32.3203
 31.936
 31.6072
 31.6928
 31.3887
 31.494
 31.2833
 31.1597
 31.4742
 28.4146
 28.2031
 28.7919
 28.2949
 32.0769
 32.2806
 32.1002
 32.2139
 32.3225
 32.2909
 32.2975
 32.3426
 32.6579
 32.6006
 32.5502
 32.6094
 29.5183
 29.4666
 29.8149
 29.9981
 31.3833
 31.7157
 31.7185
 31.3975
 32.0204
 31.9789
 31.9033
 31.9565
 32.4913
 32.5942
 32.5388
 32.5367
 32.2356
 32.1777
 32.1223
 32.2011
 27.8134
 27.9354
 27.8596
 28.1603
 25.5215
 26.6538
 26.5691
 25.9912
 32.723
 32.8307
 32.8398
 32.8116
 29.3061
 28.8818
 29.3149
 28.3913
 32.0981
 32.2124
 32.1919
 32.1141
 32.7921
 32.7095
 32.7212
 32.7137
 32.5946
 32.6455
 32.6952
 32.5779
 32.5507
 32.6092
 32.6053
 32.569
 32.3549
 32.2596
 32.363
 32.4115
 30.3838
 29.7147
 29.886
 30.1528
 26.6459
 27.3682
 26.5861
 26.9696
 28.4358
 27.856
 28.5113
 28.0916
 30.192
 29.7902
 29.6946
 29.8825
 32.7429
 32.7588
 32.7059
 32.6781
 32.6634
 32.4952
 32.6747
 32.4599
 32.742
 32.7301
 32.8818
 32.8809
 32.8458
 32.8557
 32.8007
 32.8017
 24.4292
 24.0197
 24.0283
 23.9134
 32.7289
 32.7176
 32.7187
 32.7198
 29.6255
 29.2196
 29.4204
 29.3902
 31.9085
 32.2159
 31.9609
 32.105
 31.8827
 32.0749
 31.9269
 32.0062
 32.3825
 32.3358
 32.2851
 32.327
 28.7663
 28.4547
 28.6019
 28.1487
 32.0892
 32.0675
 32.1956
 32.22
 30.4299
 30.4922
 30.5413
 30.2203
 32.5117
 32.3935
 32.5483
 32.4469
 24.3263
 24.0066
 24.3325
 24.7241
 31.8702
 31.8649
 32.0283
 32.0649
 32.6683
 32.7138
 32.6574
 32.7188
 32.4719
 32.4566
 32.4598
 32.4513
 31.9439
 32.1135
 31.9856
 32.0462
 30.8682
 30.8325
 31.0962
 30.9312
 30.5417
 30.7513
 30.5158
 31.0779
 31.6707
 31.8732
 31.731
 31.7688
 30.5656
 30.6907
 31.0401
 30.6
 32.3625
 32.3806
 32.2775
 32.4186
 32.6328
 32.654
 32.63
 32.5979
 32.7266
 32.6313
 32.6599
 32.8471
 29.9894
 30.3852
 30.3571
 29.9695
 32.4751
 32.4276
 32.5044
 32.4602
 32.3719
 32.3813
 32.3291
 32.3417
 24.7215
 23.8324
 23.4422
 26.2055
 27.5238
 27.3807
 27.374
 27.6385
 28.2343
 28.2444
 28.2021
 27.8592
 31.4752
 31.5777
 31.3489
 31.6908
 31.9328
 31.7544
 31.8752
 31.7764
 31.4067
 31.3714
 31.3181
 31.4945
 31.608
 31.6492
 31.4944
 31.6807
 29.8605
 29.5668
 29.5685
 30.182
 32.7828
 32.8592
 32.8275
 32.8951
 32.5979
 32.2943
 32.3894
 32.4015
 32.4492
 32.7489
 32.7279
 32.7063
 32.7437
 27.0024
 27.3847
 27.5036
 27.2606
 31.6077
 31.5149
 31.7027
 31.8308
 30.9922
 30.8036
 30.9953
 31.1026
 32.1479
 32.2596
 32.2241
 32.2061
 32.3306
 32.0618
 32.2753
 32.1045
 31.879
 31.8661
 31.9379
 31.9552
 32.6394
 32.6128
 32.6218
 32.575
 27.4718
 27.9305
 27.6996
 28.463
 30.3047
 29.8463
 30.4886
 30.2841
 33.0405
 32.9815
 32.9776
 32.9837
 32.6052
 32.4403
 32.5361
 28.75
 28.5748
 28.6852
 28.9468
 32.7598
 32.8314
 32.751
 32.7938
 31.0411
 30.8416
 30.7883
 31.0815
 32.5382
 32.4268
 32.4675
 32.604
 32.0337
 32.0395
 32.2053
 32.0676
 31.3901
 31.314
 31.1082
 31.3523
 32.394
 32.5639
 32.4612
 32.3962
 32.4894
 32.434
 32.4884
 32.4157
 32.4401
 32.4659
 32.5074
 32.4869
 32.187
 32.1841
 32.0588
 32.1331
 31.3446
 31.3038
 31.4774
 31.4505
 23.7685
 22.6938
 22.4979
 22.4012
 31.3508
 31.4044
 31.4464
 31.4216
 32.5084
 32.6076
 32.5211
 32.4622
 29.8248
 29.7014
 30.4859
 29.9126
 32.0395
 32.1955
 32.2
 32.0495
 25.4563
 25.5597
 25.5965
 25.1708
 32.076
 31.9457
 31.8307
 31.9044
 28.1558
 27.7774
 27.9368
 27.9808
 32.5168
 32.5029
 32.4986
 32.4911
 30.0142
 29.1383
 29.8643
 29.6787
 31.3126
 31.3555
 31.3382
 31.4663
 31.5257
 31.5125
 31.6247
 31.6322
 32.4182
 32.4604
 32.5308
 32.3425
 32.5075
 32.5917
 32.6026
 32.6602
 32.636
 29.3673
 29.5284
 28.9996
 29.3459
 29.7535
 29.609
 29.5137
 29.9183
 32.6476
 32.6003
 32.5935
 32.5808
 28.7352
 29.144
 29.2035
 28.7049
 30.6179
 30.5542
 30.4625
 30.6926
 32.5345
 32.4901
 32.4785
 32.5999
 31.6273
 31.8138
 31.5982
 31.8381
 32.6326
 32.6292
 32.684
 32.5818
 30.4436
 30.3019
 30.0461
 30.4952
 31.2743
 31.4442
 31.5166
 31.5178
 32.2528
 32.4051
 32.2075
 32.3438
 32.6622
 32.6449
 32.6402
 32.6144
 32.4581
 32.505
 32.3488
 32.3983
 32.4624
 32.4393
 32.4378
 32.4287
 32.5812
 32.5201
 32.5967
 32.5422
 27.101
 27.0591
 27.3094
 27.4254
 32.7406
 32.7903
 32.7179
 32.7853
 32.8558
 32.8876
 32.8267
 32.7826
 32.5715
 32.6018
 32.5311
 32.5854
 31.8936
 32.0319
 31.7309
 31.891
 28.6406
 28.647
 28.8054
 28.2006
 32.568
 32.631
 32.5968
 32.5347
 28.7372
 28.3735
 28.4421
 29.1573
 31.7054
 31.7073
 31.5354
 31.6477
 32.5302
 32.6368
 32.5102
 32.5622
 32.6047
 32.5799
 32.5313
 32.6008
 32.1147
 32.2007
 32.198
 32.056
 32.5241
 32.537
 32.5921
 32.5471
 25.1518
 24.8341
 24.3683
 32.5916
 32.5238
 32.5797
 32.5567
 32.5692
 32.6434
 32.6552
 32.6313
 31.5194
 31.1958
 31.3794
 31.3973
 30.5836
 30.6177
 30.47
 30.6459
 32.7383
 32.713
 32.6939
 32.7667
 32.2224
 32.2436
 32.2673
 32.3208
 30.8314
 30.8228
 30.7753
 30.7262
 31.7011
 31.5221
 32.6617
 32.6689
 32.6857
 32.696
 32.3087
 32.2509
 32.1661
 32.7065
 32.7151
 32.695
 32.6899
 26.4265
 26.2845
 26.8403
 26.7266
 32.4057
 32.3519
 32.3437
 32.4752
 32.6544
 32.6478
 32.6373
 32.6388
 31.5225
 31.3033
 31.3936
 31.6272
 32.4706
 32.4278
 32.4367
 32.4347
 28.8415
 28.4963
 29.0497
 28.6609
 27.6407
 28.6375
 27.9166
 28.0485
 32.1243
 32.2311
 32.1727
 32.1532
 28.7764
 28.5932
 28.8107
 29.0377
 32.202
 32.1608
 32.1586
 32.138
 32.2756
 32.3108
 32.4013
 32.4188
 28.9781
 29.3365
 29.4539
 29.1504
 23.3299
 23.6171
 23.2327
 23.4574
 32.6807
 32.7354
 32.7359
 32.6087
 31.9127
 32.0275
 31.95
 32.0253
 28.4196
 28.4633
 28.8818
 28.8609
 32.2718
 32.2342
 32.3628
 32.3166
 32.2973
 32.3534
 32.3041
 32.3165
 30.2244
 30.2491
 30.087
 30.2909
 33.0521
 32.9619
 32.9816
 33.0587
 32.2194
 32.3073
 32.2125
 32.4008
 32.617
 32.5692
 32.5572
 32.5308
 32.4651
 32.4298
 32.3923
 32.4982
 29.6028
 30.0006
 29.7951
 30.2129
 31.0447
 31.2296
 31.1963
 31.1471
 32.5346
 32.5414
 32.6011
 32.5289
 28.1386
 28.4242
 28.2676
 28.4214
 23.7381
 25.2499
 25.1639
 24.1617
 32.5112
 32.4593
 32.5454
 32.4646
 29.0514
 29.6442
 27.5211
 25.1688
 24.3988
 22.9928
 22.912
 23.3219
 26.8807
 27.1812
 27.103
 26.7239
 32.8165
 32.8064
 32.8433
 32.8094
 32.7921
 32.7226
 32.7398
 32.6898
 32.6598
 32.7421
 32.6765
 32.7288
 32.65
 32.6357
 32.6339
 32.6438
 24.5051
 24.2561
 24.3213
 24.5038
 29.4474
 29.2446
 29.6699
 29.5154
 29.4545
 29.1352
 29.1529
 29.1801
 31.6291
 31.8185
 31.658
 31.7782
 32.4418
 32.4463
 32.4532
 32.4207
 32.7383
 32.6917
 32.7358
 32.6515
 30.1712
 30.6115
 30.6689
 30.2189
 32.7483
 32.3847
 32.5764
 32.467
 32.3939
 31.5689
 31.5707
 31.4296
 31.5087
 32.0179
 32.0409
 32.142
 32.0528
 32.1486
 32.0712
 32.1445
 29.2022
 29.3652
 29.5384
 29.1805
 22.3771
 22.509
 22.4083
 22.5656
 32.6837
 32.66
 32.7642
 32.6011
 31.8179
 31.4482
 31.6944
 31.5178
 29.0902
 29.3037
 29.5776
 29.7264
 29.9705
 30.0646
 29.7604
 30.1063
 26.0351
 25.2973
 25.6632
 25.8335
 32.7332
 32.7064
 32.6837
 32.6827
 32.7049
 32.783
 32.5988
 32.7632
 31.0839
 30.6452
 30.9399
 30.8173
 32.36
 32.314
 32.4313
 32.3618
 32.445
 32.4663
 30.6132
 30.6178
 30.1166
 29.9912
 25.6888
 25.5464
 25.5509
 25.7123
 30.7276
 30.9583
 30.8653
 30.6673
 26.5825
 26.1261
 26.554
 25.9048
 32.66
 32.5132
 32.6099
 32.6068
 32.3114
 32.3105
 32.2729
 32.2423
 28.1561
 27.9501
 28.0286
 27.9727
 25.498
 25.1092
 25.3805
 25.6102
 32.7394
 32.6581
 32.731
 32.7586
 31.8124
 31.8899
 31.7006
 31.8601
 26.2059
 26.1941
 26.0077
 26.2612
 32.6187
 32.6351
 32.6268
 32.6159
 23.0596
 22.7432
 22.8222
 22.7119
 32.6122
 32.5057
 32.6514
 32.4537
 31.9296
 31.7899
 31.9971
 31.8572
 32.5976
 32.6028
 32.4919
 32.5296
 28.9082
 29.0726
 29.1278
 29.514
 31.4456
 31.2459
 31.255
 31.3053
 30.7534
 30.656
 30.9848
 30.9386
 30.9808
 30.9643
 31.3096
 30.5995
 32.5734
 32.6036
 32.6906
 32.6347
 32.1523
 32.0236
 32.1858
 32.1577
 32.5662
 32.7024
 32.6653
 32.5399
 31.6173
 31.5103
 31.7558
 31.8001
 31.8439
 31.8229
 31.6958
 31.8103
 32.3076
 32.3388
 32.3633
 32.2568
 32.6868
 32.5542
 32.5569
 32.5924
 24.6238
 24.4692
 24.2244
 24.5787
 28.7029
 29.3648
 29.3228
 29.1042
 31.8345
 31.7452
 31.6739
 31.7158
 26.4879
 26.1679
 26.0382
 25.775
 32.5119
 32.4833
 32.4983
 32.5528
 32.6507
 32.4988
 32.5766
 32.5368
 26.4435
 27.2039
 26.6685
 26.3971
 32.1641
 32.2525
 32.2357
 32.2041
 30.6735
 30.662
 30.6886
 30.5475
 22.9893
 22.5385
 22.4815
 22.9064
 31.3349
 31.2936
 31.3016
 31.4874
 32.3735
 32.451
 32.4364
 32.4405
 32.7468
 32.7547
 32.7759
 32.6984
 30.5661
 30.5989
 30.6764
 32.371
 32.3446
 32.3236
 32.3529
 31.3475
 31.3424
 31.555
 31.4005
 32.6676
 32.7144
 32.6659
 32.7193
 32.6373
 32.4952
 32.6778
 32.5547
 32.0769
 32.1155
 32.0837
 32.2256
 29.63
 29.7438
 29.9265
 29.5703
 31.7061
 31.6931
 31.6403
 31.6986
 30.2202
 30.5606
 30.2371
 30.0053
 32.6982
 32.7871
 32.7656
 32.8089
 32.7239
 32.5475
 32.724
 32.613
 25.5454
 27.4937
 25.5507
 25.6192
 30.9486
 30.8064
 30.9879
 31.0131
 32.5049
 32.5587
 32.5776
 32.6296
 32.2521
 32.2805
 32.3102
 32.1199
 31.3706
 31.3926
 31.5158
 31.4923
 30.2569
 30.5986
 30.7981
 30.3293
 30.653
 30.4914
 30.8797
 30.3778
 32.6897
 32.5988
 32.6476
 32.6553
 29.0727
 29.0355
 28.8044
 28.8115
 29.3855
 29.3016
 29.6399
 29.3171
 32.6113
 32.6785
 32.5976
 32.7172
 32.756
 32.7179
 32.7664
 32.7295
 32.5457
 32.5446
 32.6328
 32.5776
 30.5715
 30.4423
 32.8581
 32.7836
 32.8249
 32.7763
 30.5212
 30.6647
 30.5496
 30.5712
 31.867
 32.0404
 32.0765
 32.0348
 32.2152
 32.2802
 32.3008
 32.2287
 31.9067
 31.9551
 32.0127
 32.0462
 32.6578
 32.6772
 32.6564
 32.7125
 30.3039
 30.8669
 30.6643
 30.9136
 31.5773
 31.3353
 31.3223
 31.4464
 32.5178
 32.5562
 32.4973
 32.6366
 29.6671
 29.2158
 29.0454
 29.2605
 23.2842
 23.2207
 23.1623
 22.98
 32.0205
 32.0292
 32.1061
 32.0587
 26.4495
 26.3937
 26.7328
 26.2616
 32.4488
 32.467
 32.4738
 32.4965
 23.2802
 23.2565
 23.6005
 23.3393
 32.6622
 32.6782
 32.6607
 32.6507
 30.2854
 30.2783
 30.1678
 30.1669
 30.0548
 30.2125
 29.7972
 30.0362
 32.4786
 32.4996
 32.4241
 32.5504
 32.4834
 32.5484
 32.4484
 32.5674
 31.512
 31.8928
 31.8353
 31.81
 27.9855
 27.8837
 28.038
 28.289
 32.3723
 32.2456
 32.3035
 32.2127
 30.5803
 30.1622
 30.671
 30.6307
 31.7134
 31.8051
 31.8923
 31.8921
 32.5296
 32.3953
 32.4558
 32.4567
 32.5449
 32.5943
 32.5912
 32.5815
 32.0729
 31.977
 32.062
 32.101
 32.0619
 32.0347
 31.9443
 31.9268
 32.5742
 32.5004
 32.5508
 32.5809
 32.6304
 32.6368
 32.573
 32.5989
 32.3278
 32.4123
 32.3069
 32.5294
 31.4901
 31.5696
 31.6312
 31.834
 28.4042
 28.3506
 28.0332
 32.3053
 32.3402
 32.2635
 32.2601
 23.05
 22.9851
 22.7155
 22.7076
 32.4786
 32.5251
 32.5077
 32.5652
 29.7688
 29.2623
 29.5652
 29.5795
 28.7917
 28.2096
 28.3095
 28.2553
 32.1873
 32.2801
 32.2019
 32.108
 32.4122
 32.3767
 32.5011
 32.4635
 32.1372
 32.0884
 30.6208
 31.9449
 32.0843
 32.0359
 32.0522
 23.5125
 23.7739
 32.5603
 32.5835
 32.5896
 27.3828
 27.6616
 27.0847
 27.4604
 32.4837
 32.5286
 32.5018
 32.4805
 31.5745
 31.7808
 31.7007
 31.7222
 30.4051
 30.9047
 30.621
 30.7152
 32.28
 32.2846
 32.1976
 32.2182
 27.6181
 28.1358
 27.6519
 28.2805
 32.7148
 32.7253
 32.7014
 32.7111
 31.9561
 31.9413
 32.0823
 32.06
 32.7182
 32.5943
 32.7261
 32.6468
 32.6709
 32.7042
 32.6993
 32.7039
 32.4374
 32.5845
 32.5024
 32.3129
 31.5634
 31.7372
 31.6005
 31.742
 31.7714
 31.7238
 31.786
 31.9128
 31.9377
 32.0347
 32.0906
 31.9434
 31.8544
 31.6976
 31.9095
 31.8942
 32.6086
 32.5438
 32.5736
 32.5991
 32.056
 31.9972
 31.9364
 31.986
 32.2251
 32.0707
 32.3176
 32.1462
 32.6978
 32.6955
 32.6852
 32.7519
 32.4462
 32.3654
 32.4239
 32.333
 32.3133
 32.2765
 32.3355
 32.169
 32.3351
 32.3874
 32.3652
 32.3446
 32.1726
 32.2089
 32.1206
 32.0601
 30.2596
 30.004
 30.1693
 30.5248
 32.5616
 32.5116
 32.4894
 32.5917
 26.6092
 26.6611
 26.2934
 27.0274
 32.6599
 32.6299
 32.6543
 32.647
 32.7471
 32.8407
 32.7932
 32.8139
 32.7064
 32.8474
 32.673
 32.8537
 28.5106
 28.3137
 28.0317
 27.837
 25.8486
 20.8827
 21.3693
 18.4764
 31.0949
 31.3359
 31.1291
 31.1387
 32.5838
 32.5703
 32.4455
 32.5419
 28.9331
 28.4963
 28.7823
 29.2289
 32.5933
 32.5725
 32.6003
 32.6191
 32.8078
 32.8059
 32.7992
 32.7796
 32.6811
 32.6525
 32.7119
 32.7093
 25.7041
 25.4482
 25.3601
 25.8265
 25.6937
 25.7889
 25.5785
 25.3981
 32.4758
 32.3572
 32.3285
 32.4265
 32.7313
 32.7484
 32.9439
 32.8613
 31.0159
 31.0335
 30.9118
 30.9194
 32.2819
 32.2563
 32.3745
 32.4294
 32.8205
 32.7014
 32.7475
 32.742
 31.0639
 30.8734
 31.318
 30.9909
 32.7593
 32.8448
 32.7056
 32.7627
 31.0299
 31.2091
 31.0955
 31.0697
 32.7753
 32.7205
 32.7456
 32.7429
 32.44
 32.5926
 32.5061
 32.5655
 32.5488
 32.5449
 32.4385
 32.6198
 32.5774
 32.6107
 32.5694
 32.5187
 31.7839
 31.7601
 31.8269
 31.795
 32.5814
 32.6735
 32.6463
 32.9193
 32.8567
 32.911
 32.8864
 28.3439
 28.3029
 28.5824
 28.1577
 31.8468
 31.8888
 31.7419
 31.8815
 32.3742
 32.5264
 32.6348
 32.507
 30.2542
 30.3604
 30.4526
 30.5567
 31.8373
 31.651
 31.6317
 31.8396
 31.9551
 31.9399
 31.6798
 31.8038
 32.8199
 32.8925
 32.9013
 32.8448
 32.7888
 32.7765
 32.8138
 32.7731
 32.8829
 32.8763
 32.9024
 32.8922
 28.9484
 29.1707
 29.2267
 29.0268
 31.5446
 31.6864
 31.7208
 31.5086
 32.7138
 32.7146
 32.7022
 32.6739
 31.386
 31.5031
 31.5807
 31.318
 32.5835
 32.5095
 32.5413
 32.5259
 28.7319
 28.516
 28.8499
 28.4207
 32.0092
 32.0189
 32.1194
 32.0083
 30.0239
 29.7861
 30.1509
 30.2426
 29.7998
 28.979
 29.5588
 29.5791
 32.5165
 32.4513
 32.409
 32.413
 30.2727
 30.3662
 30.4041
 30.323
 32.6107
 32.6538
 32.62
 32.6232
 28.1138
 28.2084
 27.5166
 27.7025
 32.5263
 32.473
 32.4713
 32.5788
 32.1487
 31.9919
 32.0973
 32.0234
 32.5371
 32.5445
 32.537
 32.6236
 32.7757
 32.7718
 32.7387
 32.7843
 32.6959
 32.6881
 32.6181
 32.6923
 32.5803
 32.616
 32.5372
 32.554
 31.8615
 31.7998
 31.7612
 31.9168
 29.518
 29.0715
 28.9811
 28.7895
 29.9185
 29.8169
 29.4748
 29.7612
 32.2983
 32.2719
 32.3474
 32.2162
 32.2797
 32.2196
 32.2921
 30.6911
 30.5906
 30.565
 30.7668
 32.8741
 32.8904
 32.8132
 32.8051
 32.4079
 32.433
 32.4013
 32.431
 30.0604
 30.2588
 29.8097
 30.0075
 32.716
 32.6881
 32.6901
 32.6607
 32.2609
 32.1358
 32.1186
 32.3134
 32.6549
 32.6529
 32.5883
 32.6704
 32.6495
 32.618
 32.5785
 32.5786
 27.9359
 27.6759
 27.9825
 28.2539
 31.2559
 30.974
 31.1002
 30.9895
 31.8244
 31.9997
 31.8675
 31.9136
 29.434
 29.356
 29.5366
 30.0818
 27.8623
 27.6066
 27.6637
 27.8021
 32.2532
 32.3032
 32.2479
 32.39
 23.2452
 23.5636
 23.1896
 23.6353
 32.781
 32.7764
 32.7345
 32.7907
 32.6614
 32.752
 32.766
 32.7668
 32.4229
 32.4662
 32.4524
 27.7093
 27.8188
 27.9463
 27.8216
 30.2243
 30.5829
 30.1923
 30.5259
 29.7045
 29.5311
 29.4255
 29.3017
 30.8286
 30.702
 30.7086
 30.7406
 31.7678
 31.662
 31.6324
 31.6736
 28.3543
 28.3845
 28.2236
 27.978
 30.8788
 30.6488
 30.8461
 31.1766
 32.5404
 32.5199
 32.5408
 32.5736
 31.5197
 31.4024
 31.5622
 30.836
 30.6849
 30.9043
 32.4162
 32.442
 32.3658
 24.3926
 24.6753
 24.8103
 24.4519
 32.8255
 32.8652
 32.9151
 32.8748
 32.5669
 32.601
 32.4667
 32.4828
 32.1976
 32.1539
 32.2646
 32.2819
 32.1185
 32.1577
 31.9971
 32.1494
 29.5075
 29.0397
 28.9545
 29.6396
 32.896
 32.8473
 32.9296
 32.7684
 32.4383
 32.4536
 32.4498
 32.4665
 32.3418
 32.4376
 32.4113
 32.4442
 31.5542
 31.6916
 31.7142
 31.4375
 32.7462
 32.6473
 32.7881
 32.651
 29.0673
 29.1419
 28.938
 29.2831
 32.3742
 32.415
 32.3639
 32.3225
 31.0591
 30.994
 31.0624
 31.29
 32.3137
 32.4361
 32.4239
 32.2151
 32.0958
 32.159
 32.2079
 32.1087
 32.3371
 32.3874
 32.3567
 32.3898
 30.0539
 29.7469
 32.788
 32.7529
 32.8298
 32.8302
 29.8523
 30.4309
 30.0668
 29.971
 32.5599
 32.4558
 32.5013
 32.4689
 32.2161
 32.3884
 32.212
 32.3362
 31.2213
 31.4018
 31.4084
 31.2879
 32.6824
 32.5979
 32.688
 32.679
 30.5832
 30.6467
 30.7942
 30.6483
 32.0381
 31.9544
 32.0262
 32.0657
 22.6545
 22.5631
 22.7411
 22.4284
 32.0743
 32.1238
 32.0006
 32.1301
 30.8641
 30.7977
 31.0063
 31.2659
 27.4011
 27.0644
 27.1095
 27.5939
 32.1894
 32.1041
 32.241
 32.2068
 28.2701
 27.8897
 27.5554
 28.4212
 32.3497
 32.1411
 32.1224
 32.3015
 32.8325
 32.8501
 32.7749
 32.8521
 32.1671
 32.0856
 32.0998
 32.1502
 32.2368
 32.0474
 32.2493
 32.2813
 32.3231
 32.4155
 32.4239
 22.7223
 23.0105
 23.031
 23.1757
 31.6351
 31.5781
 31.5498
 31.6809
 32.6099
 32.6245
 32.6462
 32.5896
 32.8446
 32.8939
 32.9694
 32.9078
 29.3711
 29.7707
 28.7104
 29.2828
 31.2688
 31.477
 31.1785
 31.4183
 31.5994
 31.8401
 31.6654
 31.8077
 32.2051
 32.2292
 32.1295
 32.1006
 31.4453
 31.2748
 31.1765
 31.2163
 31.7172
 31.7343
 31.7091
 31.8018
 32.5919
 32.5978
 32.5894
 32.5874
 29.2191
 29.3031
 29.5055
 29.296
 22.8681
 23.253
 23.4241
 22.8085
 32.1854
 32.0036
 32.1955
 31.8843
 32.2742
 32.2975
 32.3525
 32.3305
 32.5788
 32.6195
 32.6117
 32.6648
 22.4448
 22.4383
 22.4756
 22.4274
 32.0524
 31.9655
 32.118
 32.0314
 31.8422
 31.8666
 31.9262
 31.8901
 32.6465
 32.5278
 32.5628
 32.5812
 32.2889
 32.3853
 32.2879
 32.4135
 32.25
 32.3543
 32.3432
 32.3284
 32.5423
 32.447
 32.5252
 32.5161
 32.7007
 32.7399
 32.7072
 32.6825
 29.9463
 30.4021
 30.7505
 30.8553
 30.5651
 32.8653
 33.004
 32.9545
 32.8734
 32.8761
 32.8532
 32.8687
 32.9335
 25.6083
 25.8686
 25.7069
 25.5925
 32.4653
 32.487
 32.5471
 32.5098
 32.6272
 32.6267
 32.5134
 32.5435
 29.3639
 29.9662
 29.8279
 30.4526
 30.4162
 30.4226
 30.391
 30.5855
 30.5258
 30.6877
 30.3125
 29.8319
 29.2731
 29.7033
 32.7372
 32.7025
 32.7027
 32.7651
 31.9871
 31.9838
 32.052
 31.9657
 32.3675
 32.3431
 32.4292
 32.26
 32.121
 32.2894
 32.3178
 32.3481
 32.125
 32.1139
 32.0181
 32.1551
 32.6705
 32.6966
 32.6806
 32.6745
 29.6455
 29.5838
 29.5258
 29.2397
 32.6465
 32.6534
 32.6194
 32.604
 32.9215
 32.8871
 32.8732
 32.9448
 29.9908
 29.8346
 29.3993
 29.6584
 31.5692
 31.4319
 31.821
 31.6954
 32.1722
 32.1593
 32.0872
 32.0952
 32.6182
 32.6288
 32.6294
 32.6618
 27.128
 27.1666
 27.4425
 27.4726
 32.475
 32.5098
 32.5489
 32.4799
 31.8624
 31.6119
 31.9069
 31.9819
 32.7964
 32.7794
 32.7847
 32.7945
 32.0173
 32.1157
 32.0564
 32.0661
 32.0676
 32.1709
 32.1197
 32.0975
 32.1082
 32.0471
 32.2008
 31.707
 31.6443
 31.5937
 31.5164
 32.4193
 32.5089
 32.5527
 32.4564
 32.2147
 32.1924
 32.2572
 32.2461
 31.8774
 31.9355
 31.9956
 31.8969
 32.4823
 32.5095
 32.4459
 32.4313
 32.5463
 32.5251
 32.5192
 32.5038
 32.3723
 32.4387
 32.4398
 32.3137
 32.4562
 32.3894
 32.6049
 32.5262
 32.5945
 32.6275
 31.7248
 31.6675
 31.6353
 31.8992
 32.7238
 32.7478
 32.7601
 32.7515
 32.0781
 32.0007
 32.0859
 32.127
 30.6752
 30.6367
 30.8252
 30.5338
 32.3336
 32.2683
 32.1975
 32.1162
 32.5499
 32.5745
 32.4653
 32.5443
 32.5491
 32.6483
 32.6369
 32.6721
 30.6871
 30.5208
 31.0135
 30.5719
 29.2191
 28.9226
 29.2757
 29.1113
 32.72
 32.7245
 32.6912
 32.7781
 31.5768
 31.6332
 31.6437
 31.6604
 30.8017
 30.4178
 30.829
 30.61
 29.4132
 29.9155
 29.4818
 29.7666
 32.6623
 32.6385
 32.6427
 32.6884
 30.7739
 30.8451
 30.6911
 28.9195
 29.3044
 29.1212
 32.6138
 32.6053
 32.648
 32.5989
 29.8751
 29.8419
 29.335
 29.7693
 29.599
 29.1122
 29.4595
 29.5095
 32.5349
 32.5619
 32.5358
 30.0331
 29.924
 32.2402
 32.237
 32.1263
 32.1049
 32.7397
 32.735
 32.7274
 32.6884
 27.1867
 27.4439
 26.8936
 27.6768
 24.0484
 24.051
 23.6509
 24.0983
 31.0884
 30.6524
 30.9971
 30.9199
 32.3779
 32.3887
 32.3139
 32.3555
 32.4361
 32.4848
 32.4584
 32.4778
 27.6939
 27.4534
 27.4845
 27.3879
 30.6318
 30.6553
 30.7897
 31.3415
 31.0964
 31.1112
 31.0035
 30.187
 30.4126
 30.5065
 30.4982
 30.2993
 30.1256
 30.5205
 30.512
 29.3255
 28.8012
 29.28
 29.0404
 32.1379
 32.0153
 32.1101
 32.0576
 31.9965
 31.9108
 32.0987
 32.3297
 32.252
 32.3399
 32.2037
 30.6431
 30.2637
 30.7219
 30.5937
 31.6791
 31.5693
 29.0521
 28.7681
 28.8192
 28.4838
 32.8192
 32.8818
 32.8323
 32.8349
 32.6572
 32.6814
 29.9342
 29.681
 30.0686
 29.947
 32.0832
 32.0035
 32.1171
 31.946
 31.8059
 31.8929
 31.8243
 31.6808
 32.0902
 32.144
 32.1022
 26.0869
 26.4433
 26.334
 30.5894
 30.9215
 30.5856
 30.7247
 32.6319
 32.6811
 32.5724
 32.639
 31.3017
 31.1294
 31.0652
 30.8986
 30.7977
 30.6826
 30.9284
 30.5703
 32.8598
 32.8332
 32.8302
 32.7838
 22.5477
 22.5709
 22.607
 22.6263
 32.5949
 32.6345
 32.511
 32.5029
 32.7556
 32.7508
 32.7255
 32.7164
 29.2178
 29.1125
 28.4809
 29.027
 32.3941
 32.2992
 32.2877
 32.4063
 22.7766
 23.5221
 23.4312
 24.0047
 32.1472
 32.2805
 32.294
 32.246
 32.2531
 32.4242
 31.2258
 31.3282
 31.2694
 31.4527
 28.6026
 28.1484
 28.5136
 28.776
 32.4608
 32.3517
 32.3375
 32.3961
 31.2387
 31.3012
 31.2664
 31.0959
 31.5409
 31.5929
 31.5729
 30.5128
 30.3033
 30.0406
 28.0982
 28.6874
 28.7386
 32.1835
 32.0836
 32.1479
 32.1929
 30.4848
 30.3357
 30.3273
 30.2742
 32.4214
 32.4078
 27.737
 28.1276
 27.7594
 27.7806
 32.5774
 32.6172
 32.6496
 32.4859
 31.2903
 31.0762
 31.9863
 32.3069
 32.216
 32.0623
 31.2442
 31.1319
 31.1387
 30.9898
 31.7666
 31.6578
 31.8372
 31.801
 28.1772
 28.004
 28.1415
 32.6168
 22.4591
 22.6001
 22.5822
 22.6647
 32.361
 32.2424
 32.2566
 32.4153
 30.9235
 30.962
 31.4403
 31.2983
 32.5009
 32.5983
 32.552
 32.4866
 30.986
 30.8155
 30.6979
 30.886
 32.7172
 25.7359
 25.6672
 25.6783
 25.8084
 32.6055
 32.68
 32.6501
 32.6772
 32.3587
 32.3771
 32.2475
 32.4397
 32.5535
 32.6772
 32.5633
 32.2885
 32.1145
 32.2821
 32.2054
 29.6677
 29.8438
 30.3112
 30.085
 32.0177
 32.0014
 32.0356
 31.9402
 27.6971
 27.7154
 27.742
 27.2362
 32.0943
 32.0364
 32.0404
 32.0373
 32.2872
 32.2102
 32.1999
 32.1566
 32.6832
 32.66
 32.6291
 32.6207
 32.4169
 32.4002
 32.3895
 32.3623
 32.0918
 32.2106
 32.7338
 32.699
 32.7279
 32.7766
 26.4592
 26.119
 26.8126
 26.1591
 28.2682
 28.0219
 28.5711
 28.1216
 32.4868
 32.5153
 32.4528
 32.4944
 32.6526
 32.6478
 32.6445
 32.5674
 32.5031
 32.5636
 32.5233
 32.4962
 32.2578
 32.3666
 32.3708
 32.4455
 32.5207
 32.5213
 32.5304
 32.5962
 28.1048
 28.1745
 28.4218
 27.8046
 29.8133
 29.6384
 29.6058
 30.1257
 31.6163
 31.7249
 31.7912
 31.7692
 32.8323
 32.751
 32.8239
 32.77
 30.0558
 30.4045
 30.0576
 30.2877
 22.9245
 22.9403
 23.1738
 22.8666
 32.3657
 32.3064
 32.3819
 32.2444
 30.1901
 30.3074
 30.355
 30.5242
 32.1307
 32.2557
 32.0024
 32.219
 27.1
 26.9194
 27.0332
 27.4867
 32.7721
 32.7908
 32.7946
 32.8083
 32.1566
 32.1517
 32.1961
 32.1497
 32.6565
 32.6201
 32.6195
 32.6135
 32.4972
 32.4275
 32.5723
 32.5313
 26.862
 27.1368
 27.4206
 26.7289
 32.1004
 32.6703
 32.6509
 32.708
 32.6229
 31.9774
 31.8832
 31.7444
 31.7338
 32.4754
 32.4286
 32.4791
 32.3586
 30.1981
 29.9177
 30.0921
 30.2903
 32.9976
 32.9462
 32.9789
 26.5228
 27.2706
 26.6854
 26.5845
 32.4169
 32.5263
 32.4648
 32.5003
 28.2326
 28.1241
 28.4948
 28.1945
 31.2496
 31.3213
 31.2803
 31.192
 30.331
 30.4367
 30.4113
 30.4302
 23.9593
 24.9512
 24.8195
 24.3583
 26.6656
 26.6124
 26.8927
 26.8554
 31.6177
 31.7349
 31.753
 31.8438
 32.0114
 32.0582
 32.0206
 31.9846
 32.4036
 32.5028
 32.4322
 32.5021
 30.8845
 30.8826
 31.0894
 32.8747
 32.781
 32.6946
 32.7204
 32.7054
 32.7907
 32.6154
 32.7443
 32.5447
 32.6176
 32.5964
 32.6179
 32.519
 32.5159
 32.6223
 32.5743
 31.4549
 31.5222
 31.5413
 31.5875
 29.2656
 28.9623
 29.7628
 29.2538
 26.7407
 25.7688
 26.1116
 32.5091
 32.5507
 32.6226
 32.7001
 32.5389
 32.4459
 32.4496
 32.4927
 30.5139
 30.5108
 30.5652
 29.4792
 29.5293
 29.8426
 29.1383
 32.2408
 32.2758
 32.1421
 32.2886
 32.2812
 32.2357
 32.3586
 32.2737
 29.9591
 29.5645
 29.9389
 30.0223
 31.7726
 31.6655
 31.7094
 31.8106
 32.4854
 32.4655
 32.529
 32.5003
 30.5775
 31.0275
 30.3974
 30.8378
 32.0195
 31.7993
 31.9131
 31.9189
 31.1129
 31.4011
 31.2229
 32.1089
 32.1286
 32.1579
 32.2348
 32.3266
 32.4089
 32.2893
 32.3673
 31.5902
 31.6284
 31.4579
 32.4639
 32.4789
 32.4967
 32.4666
 27.4595
 27.8401
 27.1495
 27.4383
 32.9082
 32.8794
 32.8203
 32.8652
 32.6589
 32.6844
 32.6391
 30.7204
 30.8376
 30.996
 30.7396
 27.9245
 28.1343
 27.7912
 28.2075
 30.079
 30.3781
 30.54
 30.0814
 23.5218
 23.8448
 23.9408
 24.1037
 31.5669
 31.4985
 31.3891
 31.402
 31.1226
 30.9111
 31.3961
 30.8213
 32.0181
 32.2108
 32.1671
 31.992
 28.5048
 29.1099
 28.8291
 28.7646
 32.7339
 32.7151
 32.724
 32.6797
 31.5513
 31.5065
 31.554
 31.6241
 31.5266
 31.6984
 31.6109
 31.6127
 32.5867
 32.5509
 32.5265
 32.5869
 31.655
 31.5356
 31.56
 31.729
 32.232
 32.2418
 32.2445
 31.5349
 31.706
 31.6676
 31.6743
 26.8907
 26.597
 26.765
 26.523
 32.0648
 31.9661
 31.9021
 32.0139
 31.3499
 31.6494
 31.3797
 31.6609
 31.395
 31.1382
 31.2342
 31.1423
 31.9904
 32.0408
 31.9389
 31.9284
 31.8714
 31.8464
 31.7707
 31.6005
 30.3951
 29.9478
 29.8322
 30.3319
 32.4313
 32.4372
 32.4139
 32.5002
 30.8889
 31.1765
 30.9447
 31.0323
 32.5803
 32.6109
 32.6665
 32.6182
 32.6583
 32.6947
 32.1
 32.2051
 32.273
 32.2001
 31.771
 31.8052
 31.7001
 31.6752
 32.6652
 32.668
 32.664
 32.5985
 31.3168
 31.051
 31.1478
 31.4244
 31.5342
 31.6496
 32.0218
 32.0667
 32.0792
 31.9152
 26.7987
 26.5704
 26.4857
 26.1569
 32.6565
 32.6561
 32.6164
 32.6484
 30.7408
 31.1177
 30.8894
 30.6041
 26.3708
 30.5397
 26.8212
 28.9074
 30.1764
 29.9573
 29.7144
 30.0209
 32.701
 32.7739
 32.6949
 28.2527
 28.2286
 28.8572
 28.6835
 31.5828
 31.7406
 31.6088
 31.7504
 30.5237
 30.5831
 30.5169
 30.5704
 32.6794
 32.6553
 32.6453
 32.6718
 27.6361
 27.9036
 27.3145
 27.7022
 22.7261
 22.5018
 22.7549
 22.8521
 29.7999
 30.0585
 29.8323
 29.7136
 31.5611
 31.4787
 31.6299
 32.6635
 32.6471
 32.7309
 32.7102
 29.3063
 29.4848
 29.1117
 32.5367
 32.584
 32.4988
 32.4685
 32.665
 32.5606
 32.6279
 32.563
 32.6457
 32.6754
 32.6451
 32.6433
 31.8502
 32.0882
 32.0297
 31.9741
 32.4645
 32.4354
 32.2921
 31.1338
 31.2301
 31.2622
 31.3061
 32.5492
 32.6021
 32.7942
 32.8316
 32.8104
 32.8702
 32.7366
 32.7343
 32.6947
 32.6871
 30.3787
 30.5733
 30.4836
 30.1688
 30.1997
 30.3652
 30.153
 30.3317
 28.2077
 26.4403
 25.8878
 27.0061
 30.0191
 30.3852
 30.037
 31.2287
 31.1228
 31.0467
 31.0951
 32.2982
 32.3181
 32.2798
 32.255
 31.3538
 31.5672
 31.4894
 31.3772
 26.9961
 27.311
 26.9127
 26.9448
 32.3834
 32.5488
 32.4519
 32.4684
 32.5887
 32.691
 32.6037
 32.4753
 32.3449
 32.3572
 32.3739
 32.2649
 32.6507
 32.5739
 32.6176
 32.5851
 31.8403
 31.7248
 31.8445
 22.7508
 23.2644
 22.9679
 23.0241
 32.6808
 32.6003
 32.6595
 32.6465
 31.9725
 31.8547
 32.0066
 31.926
 29.5835
 29.0791
 31.1763
 31.2397
 31.3398
 31.3312
 32.0915
 31.8523
 31.8798
 32.1454
 32.107
 32.2082
 32.1548
 31.8951
 31.9601
 32.0236
 32.0408
 29.011
 28.9865
 29.2915
 28.9276
 32.172
 32.1657
 30.8925
 31.1779
 30.9842
 30.7545
 32.5138
 32.5995
 32.4791
 32.4634
 27.3129
 27.3192
 27.2891
 27.5279
 29.8131
 29.9379
 29.6542
 29.6549
 30.6107
 30.9513
 31.1068
 30.9463
 32.7
 32.7252
 32.7671
 32.7522
 32.729
 32.7005
 32.7475
 32.7928
 32.6457
 32.6502
 32.7103
 32.6645
 22.4506
 22.6571
 22.7745
 23.0144
 28.4021
 28.9157
 28.9481
 32.5843
 32.5401
 32.5724
 32.6721
 32.6844
 32.7357
 32.6011
 32.128
 32.0557
 32.1118
 32.0015
 32.1435
 30.6812
 30.6501
 30.3278
 30.3292
 32.8047
 32.7925
 32.8011
 32.823
 32.4045
 32.5075
 32.514
 32.4025
 32.7014
 32.7194
 29.2101
 29.1012
 28.8484
 28.7839
 32.3815
 32.348
 32.335
 32.4093
 27.6549
 27.6166
 27.7942
 27.9268
 32.6523
 31.9002
 31.7089
 31.9208
 31.9806
 31.0636
 31.2248
 31.3574
 31.1895
 32.1114
 32.2576
 31.9917
 31.9299
 31.8552
 31.9394
 24.8219
 24.2287
 24.4906
 24.6773
 32.5218
 32.5251
 32.6457
 32.5306
 32.9202
 32.8374
 32.7621
 32.7838
 22.458
 22.483
 22.4997
 22.3983
 32.2818
 32.3162
 32.3374
 32.2544
 32.4009
 32.3203
 32.2095
 32.2091
 29.7294
 29.3547
 29.8104
 29.6838
 31.6862
 31.5409
 31.5241
 31.4607
 32.169
 32.0438
 32.1504
 30.9747
 31.1914
 31.1675
 31.0062
 31.9006
 31.7618
 31.8567
 31.8359
 31.0581
 30.9709
 30.7044
 31.3076
 31.9664
 32.0718
 32.4552
 32.5015
 32.4283
 32.5531
 32.6737
 32.6355
 32.6802
 32.6563
 31.8782
 31.9293
 31.711
 31.8603
 32.2062
 32.3586
 30.1023
 30.2966
 30.3497
 30.2759
 30.8151
 30.921
 31.1213
 31.2422
 32.4692
 32.4352
 32.5371
 32.5006
 32.6129
 32.6905
 32.5498
 32.5939
 32.6258
 32.6916
 32.6255
 32.5664
 30.8252
 31.1897
 31.0612
 30.8574
 24.6275
 24.4443
 24.5322
 24.698
 31.6331
 31.4814
 31.5844
 31.5149
 28.9104
 28.9289
 28.9922
 29.2434
 32.7226
 32.6202
 32.7213
 32.6155
 31.8204
 32.0671
 31.9023
 31.9965
 32.7108
 32.69
 32.638
 32.6654
 32.6545
 32.6514
 32.5752
 32.3824
 32.4509
 32.3897
 32.3102
 32.7422
 32.7143
 32.7229
 32.7778
 32.632
 32.652
 32.646
 32.6858
 22.4305
 22.6745
 22.4114
 27.829
 28.298
 28.4892
 28.3163
 32.4068
 32.38
 32.3848
 32.4013
 32.4883
 32.3843
 32.454
 32.396
 30.6044
 30.2872
 30.6114
 30.5198
 30.6731
 30.7164
 32.6962
 32.7102
 32.734
 32.7197
 32.5834
 32.5452
 32.6218
 32.6146
 31.0527
 31.1111
 31.1874
 31.0253
 26.7195
 26.7628
 26.5438
 25.8557
 32.6171
 32.6631
 31.6466
 31.8332
 31.8729
 31.6642
 32.6691
 32.7458
 32.71
 32.6739
 32.5409
 32.5769
 32.5817
 32.5548
 31.9086
 31.9385
 32.0853
 31.8002
 32.7743
 32.7439
 32.7101
 32.727
 29.118
 29.3174
 29.2404
 29.574
 28.1571
 27.7428
 28.1494
 28.0075
 32.3668
 32.3178
 32.2747
 32.1301
 32.5515
 32.5929
 32.6156
 24.0332
 23.7823
 24.1949
 32.0933
 32.0957
 32.0556
 32.0047
 32.2639
 32.3334
 32.3376
 32.3375
 32.7072
 32.7514
 32.8466
 32.7394
 32.1224
 32.0571
 32.0784
 32.0638
 31.7328
 31.5114
 31.7303
 31.549
 31.9685
 32.0693
 32.1132
 32.0316
 32.2152
 32.1548
 32.158
 32.1557
 31.1066
 31.0532
 31.1831
 31.0243
 32.6449
 32.5926
 32.6561
 32.5386
 32.5277
 32.542
 32.5286
 32.4913
 32.4359
 32.3858
 32.4617
 32.4691
 32.7038
 32.7072
 32.7228
 32.6561
 32.6499
 25.6367
 25.6503
 25.4799
 25.3554
 32.543
 32.5435
 32.4865
 32.5748
 24.8166
 24.9701
 25.0408
 25.1033
 25.4747
 25.2967
 25.941
 25.9999
 32.4533
 32.5041
 32.4606
 32.4923
 31.7481
 31.7321
 31.5346
 31.8274
 32.4374
 32.427
 32.4149
 32.4351
 32.7023
 32.6049
 27.4379
 27.059
 27.2045
 27.7389
 31.7198
 31.6663
 31.6256
 31.7485
 32.0716
 32.0394
 32.2943
 32.1701
 32.1177
 32.1197
 32.2204
 32.1748
 27.3456
 27.0787
 27.447
 27.1526
 32.2078
 32.061
 32.1091
 32.0845
 32.6594
 32.6398
 32.662
 32.6663
 30.8295
 30.5076
 30.1179
 30.4431
 31.3065
 31.3816
 31.3605
 31.4691
 31.1056
 31.4224
 31.1755
 31.0844
 32.0695
 32.0249
 32.1402
 31.9064
 31.7746
 31.7503
 31.851
 31.734
 32.6739
 32.5894
 32.6918
 32.6928
 32.5064
 32.4082
 32.4335
 32.5152
 32.3703
 32.4114
 32.3999
 32.2729
 32.0636
 32.1418
 32.1333
 32.5443
 32.4165
 32.4706
 32.4637
 28.8198
 29.3791
 29.3066
 28.874
 32.3904
 32.3186
 32.3149
 32.391
 32.3968
 32.43
 32.3508
 32.4254
 29.8163
 29.7258
 30.2725
 29.9564
 29.8613
 29.6866
 30.0629
 29.5259
 -87.2575
 -81.7104
 -86.0642
 -85.9077
 32.312
 32.4286
 32.3822
 25.9782
 26.6626
 26.6116
 26.2268
 32.0543
 32.1154
 32.1145
 32.0684
 29.7545
 32.3645
 32.4372
 32.3582
 32.2878
 32.3706
 32.3819
 32.479
 22.5343
 22.8959
 22.6909
 22.4999
 23.2914
 23.4909
 23.4016
 23.4987
 31.9852
 32.0619
 31.9733
 31.9154
 30.0927
 29.8866
 30.2875
 29.8378
 32.6841
 32.7106
 32.6502
 31.4409
 31.2077
 31.4058
 31.0279
 32.1614
 32.1406
 32.0735
 32.2041
 32.2927
 32.0968
 32.9042
 32.8385
 32.8206
 32.8374
 31.4912
 31.2457
 31.2468
 31.4067
 29.3981
 29.5298
 29.3063
 29.4982
 32.8083
 32.8075
 32.7867
 27.6798
 27.7742
 27.05
 27.1361
 30.107
 30.6234
 30.1644
 32.1922
 32.3846
 32.2737
 32.3242
 29.7779
 30.1308
 30.1261
 29.9626
 29.67
 30.1747
 30.2746
 30.1651
 32.1291
 32.186
 32.1629
 32.1523
 32.5934
 32.481
 32.5015
 32.6058
 31.0972
 31.13
 32.4304
 32.4402
 32.4187
 32.4065
 31.7823
 32.2743
 32.216
 32.2484
 32.281
 -86.3247
 -85.9737
 -85.7324
 -88.3494
 32.4619
 32.3883
 32.4581
 31.6496
 31.7347
 31.7237
 31.6766
 32.6165
 32.7047
 32.7266
 32.6943
 29.362
 29.5097
 29.7227
 29.3393
 32.2582
 32.1361
 32.231
 32.0195
 31.5712
 31.6257
 31.6656
 31.6662
 32.2838
 32.3241
 32.3934
 32.3347
 27.1243
 26.5862
 26.5268
 27.1809
 31.9817
 32.0024
 32.074
 31.7537
 31.632
 31.7347
 31.8354
 31.6647
 -86.4592
 -86.1288
 -86.1304
 -85.6222
 28.8036
 28.6922
 28.4926
 28.9423
 32.4339
 32.3423
 32.4654
 32.4116
 32.817
 32.8168
 32.8122
 32.7736
 32.2844
 32.2798
 32.3151
 32.4085
 32.6638
 32.6176
 32.6968
 32.6467
 32.5723
 32.6575
 32.5592
 32.6467
 32.5473
 32.5426
 32.5654
 32.5111
 31.2674
 31.4463
 31.3872
 31.2251
 32.4387
 32.4676
 32.4748
 32.6164
 32.7169
 32.7123
 32.8075
 32.7719
 32.7073
 32.6262
 32.6074
 32.6194
 32.6663
 31.9881
 32.0493
 32.0546
 32.0502
 32.186
 32.1101
 32.2595
 32.2051
 32.7414
 32.7892
 32.8021
 32.7242
 32.5125
 32.4608
 32.5214
 32.5711
 31.7051
 31.3999
 31.611
 31.4836
 23.0085
 23.283
 23.9025
 23.2023
 31.1398
 31.2905
 32.8107
 32.8136
 32.8175
 27.1287
 26.5704
 25.1961
 30.3836
 30.2161
 30.3845
 30.0845
 25.609
 25.6632
 25.1146
 25.099
 29.2728
 29.06
 29.3853
 28.8303
 31.8994
 32.0459
 31.9813
 31.9623
 32.6483
 32.5722
 32.5944
 32.5927
 32.6954
 32.6541
 32.5994
 32.5448
 32.5528
 32.6795
 32.5581
 32.7684
 32.7682
 32.6719
 32.7679
 32.7161
 32.3532
 32.3789
 32.4595
 32.6085
 32.4718
 32.5821
 32.4892
 32.5276
 32.5715
 32.3909
 30.4327
 30.0691
 30.4673
 30.1598
 30.4818
 30.6076
 30.5916
 30.5843
 32.7891
 32.7613
 32.7635
 32.795
 32.7034
 32.657
 32.6742
 32.6757
 28.7597
 28.2385
 27.9181
 29.0805
 32.4408
 32.564
 32.5875
 32.5613
 31.3287
 31.3865
 31.3089
 31.3802
 32.3541
 32.402
 32.4211
 32.4593
 31.2502
 31.188
 31.3165
 31.1582
 32.3107
 32.1801
 32.2143
 32.2046
 32.7776
 32.787
 32.7478
 32.741
 32.6413
 32.6727
 32.3895
 32.5106
 32.3531
 32.4251
 30.1192
 30.487
 30.3989
 30.5315
 32.5359
 32.397
 32.4014
 32.448
 32.3381
 32.3387
 32.3258
 32.2132
 31.8581
 31.7442
 31.6885
 31.7565
 29.6389
 29.5753
 29.7556
 30.2059
 31.0583
 30.9114
 30.8149
 31.1828
 30.3718
 30.5104
 30.6813
 30.5073
 23.3903
 23.4633
 23.2842
 23.2633
 32.6133
 32.5616
 32.6122
 32.5546
 32.7399
 32.7821
 24.3662
 24.4252
 24.4304
 24.0006
 31.4175
 31.492
 32.6443
 32.6491
 32.6489
 32.5387
 32.4856
 28.6866
 28.5192
 28.2975
 28.9192
 23.7071
 24.1092
 23.9832
 24.0805
 28.11
 28.4884
 28.7639
 28.8119
 31.3449
 31.3067
 31.3864
 31.5054
 32.8839
 32.8083
 32.841
 32.8109
 32.3844
 32.4057
 32.4167
 32.4062
 31.0838
 31.3453
 31.3587
 31.2662
 32.9485
 32.8769
 32.9422
 32.8977
 32.3725
 32.322
 32.3147
 32.3277
 32.8306
 32.8098
 32.8398
 32.7277
 32.5898
 32.5853
 32.6373
 32.5076
 32.4052
 32.6056
 32.5021
 31.7845
 31.8706
 31.8746
 31.6737
 30.0124
 30.2386
 29.7861
 30.2727
 31.8933
 31.9335
 31.8623
 31.7999
 32.6468
 32.6411
 32.6315
 32.6896
 27.9625
 28.0267
 27.3103
 27.9073
 27.2692
 27.1899
 27.159
 26.8923
 27.982
 27.6603
 27.6672
 28.0211
 30.1759
 30.0734
 30.5102
 30.5798
 30.1092
 29.8184
 29.7121
 29.8686
 32.4099
 32.3424
 32.3159
 32.2719
 31.9182
 31.9071
 31.8754
 32.015
 32.6669
 32.5721
 32.6108
 32.6838
 30.2374
 30.7664
 30.195
 30.4724
 31.8228
 31.7877
 31.8087
 31.8384
 31.8092
 31.8346
 31.6617
 32.5662
 32.7002
 32.7073
 32.6787
 30.483
 30.6264
 30.2848
 30.6082
 31.4395
 31.6119
 31.5824
 31.9477
 31.8771
 31.7818
 31.6322
 32.3677
 32.3506
 32.4747
 32.4521
 32.3711
 32.5175
 31.4355
 31.334
 31.4246
 28.0004
 28.195
 27.6574
 27.7903
 30.5648
 30.2933
 30.5413
 30.649
 32.7642
 32.7867
 32.7915
 31.804
 31.9495
 31.9259
 32.6342
 32.7169
 32.7068
 32.6612
 31.7803
 31.7885
 31.9385
 31.6761
 31.9687
 32.1478
 32.2011
 32.1571
 32.03
 32.0119
 31.9804
 32.086
 32.5111
 32.5479
 32.5025
 32.5386
 30.827
 30.634
 30.7243
 31.556
 31.6534
 31.6128
 31.4775
 32.7504
 32.7688
 32.7672
 32.8144
 32.7951
 32.5543
 32.5277
 32.57
 30.5643
 30.3976
 30.5167
 30.5059
 30.5083
 30.8259
 32.3682
 32.2148
 32.1359
 32.0294
 32.0099
 32.1436
 31.9937
 32.0971
 32.605
 31.4236
 31.602
 31.603
 31.4755
 22.4681
 22.3914
 22.5043
 22.4275
 31.3456
 31.1344
 30.6036
 30.521
 30.6054
 30.6598
 30.4803
 30.5578
 30.0389
 30.2873
 32.5578
 32.6328
 32.6496
 32.5885
 32.4455
 32.4845
 32.5935
 32.4207
 31.2528
 31.2158
 32.5851
 32.5085
 32.4377
 32.478
 32.6775
 32.6231
 32.6724
 32.6285
 32.6583
 32.6466
 32.6248
 32.3783
 32.2491
 32.3568
 32.247
 32.5985
 32.4772
 32.5128
 32.5911
 32.4071
 32.4829
 32.3105
 32.4949
 32.376
 32.3051
 32.3168
 32.6005
 32.6447
 32.5278
 32.5866
 32.0648
 32.1024
 32.1247
 31.9969
 25.4526
 25.3472
 25.6647
 25.6767
 31.4999
 31.4951
 31.3481
 31.4198
 32.361
 32.42
 32.4655
 32.4187
 32.8973
 33.003
 33.004
 32.9635
 32.0213
 32.1124
 32.2025
 32.2141
 32.8786
 32.923
 32.8433
 32.8824
 32.7933
 32.7961
 32.7492
 32.7858
 32.677
 32.6955
 32.7012
 32.6907
 32.7345
 32.6701
 32.6803
 32.2685
 32.2518
 32.3321
 32.3171
 31.4602
 31.6843
 31.5809
 31.6057
 32.4843
 32.5692
 32.5566
 32.5376
 26.5975
 26.2223
 26.0792
 26.4938
 29.9926
 30.3626
 30.2103
 30.1329
 30.4838
 29.9238
 30.1738
 29.7878
 29.4721
 29.7955
 29.7321
 29.8562
 32.802
 32.796
 32.7704
 27.4087
 27.3074
 27.5309
 27.647
 29.0053
 29.1767
 29.5172
 29.3096
 31.506
 31.6618
 31.6635
 31.5292
 32.6125
 32.5846
 32.5809
 32.5687
 32.3792
 32.4216
 32.5209
 32.441
 32.8479
 32.8547
 32.8914
 32.8582
 32.7114
 32.707
 32.7487
 32.7614
 30.802
 30.5652
 30.6572
 30.3119
 32.7258
 32.7832
 32.7566
 32.7273
 32.1498
 32.0746
 32.0946
 32.0563
 32.7006
 32.7038
 32.6671
 32.6744
 29.6481
 29.4627
 29.8578
 29.9695
 32.1812
 32.1328
 32.2057
 32.1172
 31.9149
 31.7213
 29.2094
 32.5129
 32.5378
 32.564
 32.5006
 32.2694
 32.3284
 32.2535
 32.2064
 24.1301
 24.0538
 24.4853
 31.4161
 31.2003
 31.1685
 31.0095
 32.8102
 32.7586
 32.7991
 32.7169
 32.4599
 32.5654
 32.4953
 32.5167
 32.1222
 32.0613
 32.0609
 32.0926
 29.8247
 30.4963
 30.0745
 30.7528
 30.746
 30.5122
 30.9731
 25.4807
 24.8501
 25.1264
 25.4322
 29.6953
 30.0904
 29.8519
 32.6658
 32.6489
 32.6603
 29.2523
 29.1733
 28.8001
 28.985
 32.3085
 32.36
 32.4211
 32.3598
 -85.7472
 -84.4349
 -84.8272
 -88.576
 32.0363
 31.9744
 31.97
 28.1066
 28.0108
 28.0823
 28.0433
 32.4351
 32.3229
 32.2551
 32.3746
 29.1538
 29.5616
 29.5345
 29.6221
 32.3875
 32.3563
 32.3784
 32.3352
 32.3594
 32.4571
 32.4205
 32.3476
 31.8611
 31.852
 31.7773
 31.9431
 32.8928
 32.8503
 32.8574
 32.884
 28.7712
 28.2125
 28.7691
 28.4242
 31.151
 31.0964
 25.9566
 26.0043
 26.0034
 26.072
 32.6767
 32.7124
 31.5709
 31.7847
 31.774
 30.1357
 30.372
 30.5325
 30.3658
 31.8067
 31.7347
 31.9442
 31.91
 31.9872
 31.9879
 32.0407
 32.0239
 30.9269
 31.0872
 30.9648
 30.5827
 27.5763
 27.7299
 32.6562
 32.6512
 32.6413
 32.6504
 30.6737
 30.4891
 30.7472
 30.6646
 31.9535
 31.8089
 32.1818
 31.1181
 31.0893
 31.2159
 32.5196
 32.5952
 32.556
 32.5878
 32.1664
 32.096
 32.2148
 32.2464
 32.6187
 32.6619
 32.6597
 32.6451
 32.7157
 32.6482
 32.6926
 32.7236
 28.5198
 29.006
 28.5895
 28.414
 30.6915
 30.9272
 30.5815
 30.929
 32.6188
 32.5779
 32.6173
 32.5932
 31.713
 31.8955
 31.9474
 31.6952
 28.8134
 29.1062
 29.0953
 29.6463
 32.3311
 32.463
 32.4027
 32.45
 32.4201
 32.4337
 32.4728
 32.5788
 32.6345
 32.5924
 32.6213
 25.4702
 24.8402
 23.1824
 23.9549
 27.4361
 27.5326
 27.5511
 27.5032
 31.4991
 31.4952
 31.5147
 31.6753
 24.1128
 24.4676
 23.7825
 24.2977
 32.0237
 31.9758
 32.1127
 31.6841
 31.8046
 31.9106
 31.8277
 32.5145
 32.3981
 32.4768
 32.4506
 32.6081
 32.7645
 32.624
 32.6413
 32.6998
 32.7208
 32.7572
 32.6971
 32.7461
 28.8682
 28.3969
 28.6658
 30.7137
 30.7306
 30.7536
 30.4395
 26.1188
 29.2853
 26.4045
 27.8001
 24.8697
 24.7897
 25.0314
 24.7507
 31.4308
 31.4375
 31.5867
 31.6894
 31.502
 31.676
 31.6025
 31.636
 22.7899
 22.5061
 22.448
 22.4009
 32.609
 32.5392
 32.6151
 32.5647
 32.9015
 32.843
 32.9029
 32.8957
 30.9563
 30.4695
 30.4277
 32.2856
 32.2636
 32.1649
 32.1812
 31.698
 31.5983
 31.5925
 29.2863
 29.8009
 29.8805
 32.3092
 32.3546
 32.5239
 32.4798
 31.1476
 31.0799
 30.9913
 30.9832
 31.4773
 31.4034
 31.6932
 31.7303
 27.9135
 27.6845
 27.6381
 28.1074
 32.4268
 32.4671
 32.4211
 32.5109
 31.7599
 31.8938
 31.9076
 31.9641
 32.1839
 32.1398
 32.1493
 32.1134
 27.3561
 27.3544
 27.5009
 27.3511
 32.1877
 32.1249
 32.1086
 32.2472
 31.9957
 31.8305
 31.8643
 31.9968
 31.9779
 32.0374
 32.1382
 32.1396
 32.7706
 32.725
 32.7184
 32.7212
 32.7119
 32.673
 32.77
 31.4645
 31.0684
 31.2574
 31.2451
 32.3091
 32.3535
 32.3588
 32.264
 32.5977
 32.5192
 32.4966
 32.5153
 31.0968
 31.1226
 31.2729
 31.2017
 24.4664
 24.7251
 24.619
 24.6677
 26.0622
 25.8781
 26.0348
 26.4753
 28.4339
 28.3703
 28.9904
 28.3607
 31.3821
 31.1569
 31.3317
 31.3611
 32.1905
 32.2278
 32.2302
 31.9423
 31.8848
 31.7741
 31.8383
 32.5054
 32.5402
 32.6066
 32.5584
 32.3653
 32.2667
 32.2461
 32.3353
 32.1372
 32.0595
 32.6671
 32.6818
 32.7036
 32.6701
 32.302
 32.2597
 32.0958
 32.1887
 32.732
 32.8024
 32.713
 32.7819
 31.2966
 31.455
 31.1968
 31.4147
 26.7209
 26.4004
 26.7118
 26.8797
 31.3735
 27.0681
 30.8233
 30.5286
 32.2933
 32.3508
 32.3197
 32.2766
 31.6862
 31.6536
 31.6663
 31.5959
 32.3361
 32.199
 32.3198
 32.2878
 32.561
 32.5217
 32.5183
 32.5865
 30.1081
 29.7675
 30.3023
 32.4332
 32.4532
 32.3973
 32.4431
 29.9093
 29.7943
 30.1049
 30.0784
 32.6519
 32.5641
 32.4315
 32.5022
 32.7514
 32.757
 32.7848
 32.7305
 32.6094
 32.5866
 32.7151
 31.9244
 32.0023
 32.0012
 32.0087
 32.6601
 32.5905
 23.4863
 24.3413
 23.6233
 23.7544
 32.6427
 32.7299
 32.7079
 31.1348
 31.1868
 31.2617
 31.0559
 32.9844
 33.0188
 33.0179
 32.3711
 32.3822
 32.4302
 32.3329
 32.7743
 32.7868
 32.7479
 32.8105
 32.6771
 32.6435
 22.4691
 22.4495
 22.723
 22.4106
 23.463
 24.0531
 23.6581
 23.8592
 32.6936
 32.5693
 32.6209
 32.6019
 32.9092
 32.9322
 32.8349
 32.7572
 22.4722
 22.4669
 22.4977
 22.62
 30.5065
 30.1732
 28.3136
 28.4283
 28.518
 28.9819
 32.5497
 32.5989
 32.5391
 32.5171
 32.6782
 32.6433
 32.6667
 32.6613
 32.6303
 32.672
 32.6747
 32.668
 31.1416
 31.1325
 31.4154
 31.161
 29.3322
 29.1998
 28.9063
 29.3404
 25.6496
 26.3243
 26.1829
 25.7402
 29.2472
 29.2759
 29.2704
 29.8768
 32.4581
 32.6189
 32.5359
 32.6117
 32.6654
 32.5572
 32.637
 24.2526
 24.3466
 24.7231
 32.605
 32.5032
 32.5886
 32.6007
 32.5888
 32.6959
 32.6293
 32.6246
 31.9829
 31.8941
 31.8804
 32.529
 32.6218
 32.6457
 32.5576
 28.7093
 28.3983
 28.2656
 28.2933
 32.5596
 32.5775
 32.4949
 32.5514
 27.7437
 27.6844
 27.7076
 27.8885
 27.9023
 27.6204
 27.893
 31.5018
 31.3556
 31.2835
 31.4155
 32.0351
 31.9848
 30.7887
 30.6464
 30.9371
 30.859
 32.6064
 32.6357
 32.6643
 32.2252
 32.1214
 32.2152
 32.0724
 28.7454
 29.1076
 28.8094
 32.5181
 32.4704
 32.5163
 32.519
 29.2479
 29.7208
 29.3207
 29.2506
 32.6025
 32.6878
 32.6553
 32.5604
 27.9169
 28.1679
 29.4976
 29.1552
 29.5588
 29.2134
 30.8399
 30.7345
 30.8327
 30.8438
 24.9113
 24.7689
 24.3699
 24.6308
 32.6489
 32.5252
 31.3594
 31.5063
 31.5197
 31.4825
 31.6408
 31.6988
 31.6672
 31.6264
 31.6135
 31.4404
 31.7051
 31.8928
 32.4331
 32.3558
 32.3273
 32.301
 32.0158
 31.9084
 32.0736
 31.9187
 32.5884
 32.6315
 32.2107
 32.1378
 32.1831
 32.1618
 28.8383
 28.6893
 28.7865
 29.1765
 32.276
 32.2373
 32.2042
 32.2999
 31.6545
 31.458
 31.4597
 31.6061
 32.498
 32.4812
 32.4828
 32.473
 32.6114
 32.5453
 32.6205
 32.6518
 32.0411
 32.1961
 32.1251
 32.0211
 24.3445
 24.6732
 24.4904
 24.1488
 32.0747
 31.8934
 31.6551
 31.7194
 31.8914
 32.002
 32.2921
 32.2593
 32.443
 32.4301
 28.8296
 29.2789
 29.2217
 29.2203
 31.9342
 31.7498
 31.8573
 31.9038
 29.9556
 30.0134
 30.2688
 28.9746
 28.8158
 29.1256
 28.6381
 27.8417
 28.3039
 28.1943
 28.4037
 32.8694
 32.8777
 32.8526
 32.339
 32.3269
 32.277
 32.2958
 32.7733
 32.7695
 32.6384
 29.1573
 28.7243
 29.1123
 32.4096
 32.4351
 32.3943
 32.435
 32.6949
 32.7237
 32.6904
 32.663
 32.1022
 32.2017
 32.2299
 32.194
 31.9926
 31.8925
 31.8456
 31.9883
 31.8227
 31.7264
 32.2394
 32.3893
 32.4431
 32.1968
 32.1314
 32.3373
 32.1893
 32.2648
 32.4095
 32.4626
 32.4551
 32.3933
 32.6325
 32.5236
 32.4421
 32.538
 29.3023
 29.0207
 29.3678
 32.6518
 32.6173
 32.6425
 32.6782
 31.3304
 31.0196
 31.0736
 30.97
 22.9864
 23.0882
 22.9814
 22.9413
 31.743
 31.6467
 31.6994
 31.6681
 32.1025
 32.117
 32.0569
 32.062
 31.6893
 31.8895
 31.7615
 31.6519
 28.1351
 28.0674
 28.379
 28.5348
 28.962
 28.6105
 28.527
 32.2515
 32.2451
 32.191
 32.7846
 31.8419
 31.474
 31.5978
 31.5985
 32.0832
 32.0956
 32.0312
 32.2794
 32.2622
 32.1924
 31.5638
 31.6854
 31.5138
 31.6179
 31.3784
 31.3235
 31.3036
 31.2909
 29.3218
 32.8652
 32.918
 32.9641
 32.8916
 29.784
 30.0673
 29.9164
 29.9001
 32.0176
 31.9908
 32.1554
 32.0165
 32.5185
 32.379
 32.4775
 32.4977
 32.476
 32.4224
 32.4855
 32.5178
 27.9399
 28.091
 28.3124
 27.8753
 31.1291
 31.3355
 31.1396
 31.0962
 32.9519
 32.9264
 32.8823
 32.8613
 31.443
 31.2342
 31.4122
 31.3538
 32.6929
 32.708
 32.6519
 32.6677
 29.5848
 29.5277
 29.862
 29.7985
 30.9909
 31.1433
 31.3116
 31.1766
 32.647
 32.6474
 32.6375
 32.6419
 31.8066
 31.6281
 31.7443
 31.6977
 28.4181
 28.5725
 28.8493
 28.7977
 25.137
 24.6525
 25.2769
 25.3179
 31.9486
 31.8977
 31.9396
 31.8389
 25.2253
 24.7681
 26.1587
 26
 25.7932
 26.2628
 32.5467
 32.5903
 32.5289
 32.4423
 30.9927
 31.2102
 31.2003
 30.9595
 31.1562
 31.1056
 31.1129
 31.217
 32.1169
 32.1228
 32.0073
 32.4996
 32.4918
 32.4909
 32.5595
 28.935
 29.034
 28.5133
 29.1906
 30.8847
 30.8037
 30.6678
 30.4813
 30.6979
 30.9717
 32.61
 32.5522
 32.5675
 32.5731
 32.506
 32.5016
 32.5291
 32.5139
 32.449
 32.3995
 32.5245
 32.4474
 31.6518
 31.6185
 31.8175
 31.5999
 32.4548
 32.4161
 32.508
 31.8944
 32.6545
 32.5794
 32.5529
 32.5494
 32.5894
 32.5757
 32.6254
 32.7198
 32.3904
 32.4824
 32.4529
 32.5224
 32.4811
 32.4935
 32.5151
 32.4164
 32.8011
 32.8095
 32.7776
 31.7899
 31.4831
 31.6981
 31.538
 32.5211
 32.5163
 32.567
 32.4815
 31.5966
 31.724
 31.4955
 22.4024
 22.3746
 22.4845
 22.3205
 32.398
 32.3068
 32.3371
 32.1712
 32.282
 32.1322
 32.2107
 22.5329
 32.6523
 32.6541
 32.628
 32.6529
 32.8408
 32.8164
 25.7961
 26.0447
 25.9726
 25.9804
 28.7006
 28.7792
 29.0587
 28.4453
 30.7434
 30.8502
 30.6374
 30.1258
 29.7045
 29.8929
 30.3241
 29.8383
 29.7902
 30.1509
 31.9941
 31.8187
 31.7321
 31.8145
 32.2681
 32.4574
 31.0251
 31.0483
 29.5013
 29.9594
 29.3044
 29.7016
 32.2004
 32.1351
 32.3197
 32.1978
 28.0535
 28.2236
 27.5294
 27.6153
 32.2934
 32.2635
 32.4257
 32.375
 32.0875
 32.1588
 32.079
 32.1602
 32.4681
 32.479
 32.4451
 32.4524
 32.8234
 32.9242
 32.932
 32.943
 32.8003
 32.7487
 29.1959
 32.5526
 32.4811
 32.5198
 32.4926
 31.6948
 31.6924
 31.5273
 31.7368
 32.2053
 32.0826
 32.218
 32.1586
 -85.3169
 -86.3726
 -86.1798
 -85.209
 31.8473
 31.8351
 31.9237
 31.8994
 30.3123
 30.2884
 29.886
 30.5935
 31.8604
 31.4809
 31.6674
 31.4578
 32.8364
 32.8486
 32.7313
 32.8123
 32.7923
 32.7686
 32.8134
 32.8142
 28.7522
 29.6488
 29.2452
 29.338
 31.9484
 31.8653
 31.9475
 31.9349
 32.3017
 32.2099
 32.2516
 32.1859
 32.3467
 32.3286
 32.2911
 32.2879
 31.8568
 31.9228
 31.9535
 31.866
 31.1953
 31.463
 31.457
 31.5511
 29.1632
 29.1646
 29.3553
 29.4188
 32.2894
 32.3853
 32.3874
 32.3688
 32.5403
 32.371
 32.4557
 32.3232
 32.1839
 32.1282
 32.0965
 32.1626
 25.1137
 24.2783
 23.3372
 24.2204
 31.7722
 31.7653
 32.0743
 32.0499
 32.1475
 32.0231
 27.0123
 26.4548
 26.2623
 27.2631
 31.221
 30.7765
 30.8138
 30.5538
 32.2292
 32.3189
 32.2273
 32.1729
 32.1735
 32.2208
 32.0342
 32.2189
 31.5604
 31.6064
 31.3971
 31.3913
 31.6349
 31.6374
 31.6911
 31.7935
 32.6566
 32.6284
 32.649
 32.6662
 32.4518
 32.4797
 32.4662
 32.3887
 32.5972
 32.5707
 32.5219
 32.4995
 32.5457
 32.5103
 32.5764
 32.592
 31.9795
 32.0388
 31.767
 31.053
 31.3122
 31.1695
 31.5078
 26.4346
 26.2097
 26.0879
 26.8148
 31.4164
 31.4792
 31.5451
 31.5754
 32.6266
 32.562
 32.5846
 32.5663
 31.4995
 31.4806
 31.5179
 31.6647
 31.4507
 31.8719
 31.6463
 31.6954
 27.9204
 27.9188
 27.5774
 27.2637
 32.5569
 32.5592
 32.5897
 32.6438
 32.5793
 32.536
 32.5678
 32.7848
 32.8007
 32.8278
 32.8241
 25.9832
 25.9827
 26.0298
 26.4392
 32.6263
 32.5763
 32.597
 32.5763
 32.1234
 32.1545
 32.0738
 32.0998
 32.6519
 32.4767
 32.6503
 32.4558
 27.7702
 27.48
 27.6091
 27.8105
 29.6973
 30.053
 29.7508
 29.374
 30.9539
 30.9795
 30.9241
 30.9218
 31.2488
 31.3406
 31.2943
 30.891
 32.6799
 32.6949
 32.6732
 32.7064
 31.0919
 31.0575
 31.1428
 31.1434
 32.1951
 32.0857
 32.118
 32.5151
 32.5731
 32.4588
 32.442
 32.1374
 32.2107
 32.031
 32.1877
 22.7304
 22.898
 23.1177
 22.9448
 30.2128
 30.3755
 29.9438
 31.7479
 31.5595
 31.587
 31.6283
 32.8011
 32.8179
 32.7886
 32.768
 32.3535
 32.4056
 32.2973
 32.4198
 28.7587
 28.6792
 28.2041
 28.0336
 32.1739
 32.352
 32.1326
 32.3229
 32.56
 32.5986
 32.6284
 26.2649
 26.6322
 26.9356
 26.7861
 29.4446
 28.8997
 29.3103
 29.0771
 31.6318
 31.5834
 31.5525
 31.5298
 31.4645
 23.275
 23.2226
 22.9088
 22.8449
 32.5509
 32.4546
 32.4742
 32.4674
 32.5592
 32.5442
 32.4854
 32.5504
 22.5848
 32.2364
 32.3245
 32.1908
 31.7828
 31.6827
 31.7686
 31.7437
 32.6162
 32.5414
 32.6386
 32.6702
 32.749
 32.7609
 32.7642
 32.7479
 30.1372
 29.6937
 32.4748
 32.4202
 32.4515
 32.526
 30.2432
 30.0435
 29.7998
 30.0535
 31.4083
 31.2725
 31.5957
 31.5016
 32.6328
 32.6415
 32.6201
 32.5774
 24.3355
 24.4586
 24.383
 24.8412
 28.5782
 28.268
 28.4799
 28.1228
 25.4853
 25.7471
 27.4091
 27.3302
 27.373
 27.429
 27.0429
 26.5246
 27.2729
 26.7192
 31.6718
 31.7755
 31.8041
 31.8381
 32.8275
 32.7901
 32.8
 32.7546
 31.8467
 32.1035
 31.8317
 31.9673
 32.4455
 32.4239
 32.4009
 32.4453
 31.558
 31.5637
 25.9554
 25.7506
 25.8063
 25.9495
 31.6455
 31.5678
 31.6592
 23.4232
 23.2228
 23.4897
 23.1677
 31.6653
 31.7634
 31.7225
 31.7827
 31.489
 31.3039
 31.6149
 31.3408
 32.237
 32.2986
 32.1983
 31.5138
 31.5533
 31.5644
 31.4934
 32.6892
 32.6737
 32.6901
 32.6872
 32.3594
 32.3799
 32.4602
 32.4102
 31.4536
 31.3886
 32.0747
 31.9102
 32.0599
 31.9116
 32.7444
 32.7682
 32.7231
 31.5078
 31.6775
 31.7045
 31.5941
 32.1195
 32.1994
 32.0989
 32.1414
 31.8721
 31.7731
 31.0992
 30.9853
 30.8653
 31.2618
 23.8349
 23.89
 24.2648
 32.9075
 32.8538
 32.8189
 32.8392
 31.7844
 31.7715
 31.754
 25.5729
 25.1569
 25.4156
 32.1076
 32.136
 32.1965
 32.0265
 32.6018
 32.6164
 32.6532
 32.6516
 22.6625
 22.64
 22.7026
 22.6297
 32.3113
 32.2999
 32.3824
 32.383
 32.4738
 32.5921
 32.5837
 32.5322
 32.0475
 32.0147
 32.0779
 31.6713
 31.6766
 31.448
 31.5292
 32.4988
 32.403
 32.4544
 32.5086
 32.0227
 32.0482
 32.1294
 32.1117
 31.5067
 31.3554
 31.5358
 31.2557
 31.5709
 32.7715
 32.4171
 32.3822
 32.4619
 32.3624
 32.6752
 32.6538
 32.7007
 32.703
 32.5163
 32.4951
 32.5343
 32.6089
 32.6256
 32.647
 32.6278
 32.631
 32.2666
 32.2991
 32.2098
 32.2304
 32.4853
 32.4188
 32.4705
 32.5421
 32.3292
 32.3824
 32.3904
 32.4379
 31.8045
 31.7405
 31.6478
 31.9151
 32.4035
 32.3727
 32.341
 28.3154
 28.3907
 28.3689
 28.8184
 32.5363
 32.8562
 32.6678
 32.667
 32.8115
 31.8604
 31.8488
 31.9843
 31.5177
 31.1802
 31.3423
 31.2553
 32.6569
 32.6869
 32.6743
 32.5811
 32.5046
 32.6105
 32.5341
 32.6865
 32.7161
 32.621
 32.6414
 32.0363
 31.9988
 31.9254
 32.005
 30.0808
 29.8688
 30.2072
 29.5144
 32.6521
 32.729
 32.7319
 32.6538
 32.4632
 32.4297
 32.3508
 32.5567
 32.2942
 32.2375
 32.2021
 32.1385
 32.4739
 32.4512
 32.5055
 32.3903
 32.4247
 32.5182
 32.4112
 32.4728
 32.3229
 32.0721
 32.1716
 32.1869
 25.7843
 25.8236
 25.7555
 25.9313
 25.5678
 26.0656
 25.9984
 32.5604
 32.6061
 32.6759
 32.6701
 32.6864
 32.5438
 32.6299
 32.7034
 32.4007
 32.3863
 32.4846
 32.3956
 31.9052
 31.9091
 32.0118
 32.048
 32.5175
 32.5806
 32.57
 32.4972
 30.686
 30.908
 30.8303
 30.9127
 29.0983
 29.5757
 29.3781
 28.8344
 32.2506
 32.301
 32.3431
 32.2567
 23.2657
 22.8372
 22.9385
 23.3439
 31.5586
 31.7455
 31.6146
 31.6195
 27.7697
 28.28
 28.2021
 30.0814
 30.1278
 30.255
 30.632
 32.5187
 32.6133
 32.5547
 32.5854
 30.1162
 29.4423
 29.77
 29.8151
 26.1245
 27.24
 26.3801
 22.9534
 23.0829
 23.2891
 23.1187
 31.5038
 31.4685
 31.4152
 31.3492
 30.184
 29.9433
 30.1926
 30.2836
 32.6521
 32.648
 32.6652
 32.6358
 32.0199
 32.103
 32.1617
 32.115
 32.4346
 32.3347
 32.4795
 32.4088
 30.4477
 30.4908
 30.2641
 30.4123
 27.8658
 27.3439
 26.9319
 27.46
 32.732
 32.7328
 32.6986
 32.7044
 27.704
 28.4903
 32.2455
 32.0805
 32.1766
 32.1696
 32.0593
 32.0544
 31.9737
 32.0893
 31.8737
 31.9012
 31.8102
 28.5699
 28.697
 28.5518
 32.502
 32.519
 32.5175
 32.4955
 32.6085
 32.6067
 32.5853
 32.6203
 30.6097
 31.0035
 30.8312
 30.6371
 32.5219
 32.4105
 32.5398
 32.4817
 32.4729
 32.32
 32.4035
 32.523
 27.7688
 27.7799
 27.6277
 27.7347
 31.9301
 32.142
 31.994
 32.6714
 32.662
 32.6733
 32.6118
 32.5288
 32.5817
 32.5876
 31.4939
 31.6093
 31.5795
 31.6436
 25.1418
 24.8714
 25.2308
 24.6704
 31.2957
 31.5844
 31.5205
 31.3882
 31.2329
 31.1825
 30.974
 31.2714
 31.392
 31.4344
 31.2842
 31.1856
 32.6574
 32.5835
 32.6108
 30.4474
 30.4492
 30.2335
 30.5016
 32.2086
 32.3343
 32.2582
 30.2085
 30.2207
 29.9258
 30.0109
 25.6803
 24.6413
 26.6907
 25.1797
 31.9176
 31.8994
 31.9061
 32.0072
 28.6862
 28.5109
 28.2008
 27.8101
 31.7751
 31.8855
 31.9011
 31.8641
 29.6805
 30.1117
 29.7737
 29.9581
 27.3773
 30.253
 28.383
 28.4282
 26.5732
 26.1383
 26.5909
 26.743
 28.9778
 29.2091
 29.6633
 28.8774
 32.4305
 32.34
 28.8487
 29.0527
 28.3866
 28.4718
 32.8422
 32.9266
 32.9232
 32.8841
 32.5263
 32.5311
 32.5531
 32.6637
 32.0988
 32.1874
 31.9852
 31.987
 32.1322
 32.2451
 32.2173
 32.1011
 32.4303
 32.3591
 32.4149
 32.553
 32.1361
 32.128
 32.1053
 32.1863
 32.5661
 32.6108
 32.5432
 32.5918
 32.3819
 32.3063
 32.3332
 32.3966
 25.6389
 25.1483
 25.0397
 25.7696
 31.8602
 31.8272
 31.8343
 31.852
 32.1431
 32.0988
 31.8241
 31.8576
 32.6395
 32.6763
 32.7027
 32.198
 32.1042
 32.0996
 32.2189
 28.9013
 28.3038
 28.2921
 28.4135
 26.3268
 26.1545
 25.9596
 26.1142
 32.4092
 32.4058
 32.52
 32.3691
 32.0302
 32.0316
 32.1025
 31.9027
 32.6831
 32.7185
 32.6763
 32.5772
 32.5848
 32.5871
 32.5493
 31.882
 31.7942
 31.6619
 32.7679
 32.7873
 32.6948
 32.7045
 31.4765
 31.4166
 31.4356
 31.4841
 32.6471
 32.6123
 32.6068
 32.5919
 32.6184
 32.7064
 32.5998
 32.6644
 32.9566
 32.9493
 32.8653
 32.8722
 32.4584
 32.3257
 32.2713
 32.3526
 32.3436
 32.0966
 32.1347
 31.9857
 31.9758
 27.9812
 27.9846
 27.9997
 28.0344
 32.4519
 32.5099
 32.4635
 32.5283
 32.7087
 32.8831
 32.8173
 32.7951
 23.2026
 22.7009
 22.5561
 22.4605
 32.598
 32.6742
 32.7057
 32.5808
 32.4872
 32.4482
 32.3912
 32.4376
 32.657
 32.6946
 28.3535
 28.5285
 28.7796
 28.4589
 31.2684
 31.4084
 31.3275
 31.1712
 29.2582
 29.0743
 28.8304
 28.8261
 30.8797
 31.0601
 31.0144
 30.8699
 29.8305
 29.8116
 29.5216
 29.8154
 32.6689
 32.6562
 32.5962
 32.5429
 31.8979
 31.8541
 31.965
 31.9086
 30.4629
 30.3007
 30.0649
 30.4147
 32.6743
 32.7055
 32.7218
 32.6099
 32.4157
 32.5424
 32.4924
 32.5382
 32.1272
 32.0011
 31.8574
 32.1071
 30.4393
 30.6163
 26.8055
 27.0934
 27.2667
 26.7639
 32.7529
 32.7051
 32.5381
 32.5844
 32.2377
 32.2727
 32.274
 32.1886
 31.9409
 32.0249
 32.0307
 31.881
 22.323
 22.5744
 32.1522
 32.27
 32.2595
 32.3572
 31.6462
 31.4198
 31.5646
 31.6342
 31.4958
 31.5166
 29.7369
 29.9923
 29.89
 30.12
 32.5099
 32.4559
 32.5971
 25.9105
 26.3959
 26.3319
 26.5865
 32.0471
 31.9958
 32.0901
 32.0419
 31.9505
 31.9243
 31.9224
 31.4804
 31.5341
 31.6108
 31.578
 32.8823
 32.7924
 32.8823
 32.829
 32.3904
 32.4755
 32.3545
 32.435
 32.4538
 32.3722
 32.3168
 32.3941
 32.5503
 32.5005
 32.4627
 32.5307
 32.6441
 32.5505
 32.5603
 32.7332
 32.7618
 32.6775
 32.7283
 32.7277
 32.6288
 32.6731
 32.7345
 32.0201
 31.9494
 32.0482
 32.0773
 32.7312
 32.6613
 32.7766
 32.7714
 32.7602
 32.7701
 32.7621
 32.6987
 32.4906
 32.452
 32.4382
 32.5267
 26.3438
 26.7057
 25.5759
 24.9648
 29.8028
 29.659
 29.6609
 29.35
 32.6829
 32.6361
 32.6355
 32.6304
 30.2854
 30.3914
 30.0472
 29.9018
 28.8931
 28.2671
 28.9189
 29.2991
 32.1217
 32.0947
 32.0232
 32.1717
 32.037
 32.1225
 32.0715
 32.0617
 31.8149
 31.9305
 31.8052
 31.8193
 32.2537
 32.266
 32.1986
 32.2061
 32.0876
 31.895
 31.8985
 31.8973
 30.1795
 30.0625
 30.3091
 29.9022
 32.8034
 32.8183
 32.8238
 32.8499
 30.3691
 30.4747
 30.4811
 30.5117
 26.9106
 26.9886
 27.1831
 27.5207
 32.3855
 32.4649
 32.4
 32.4567
 31.4488
 31.3296
 31.0864
 31.9165
 32.0236
 32.2282
 32.0727
 27.6658
 27.3443
 26.8807
 27.3789
 30.33
 30.314
 30.0944
 30.2347
 32.756
 32.7117
 32.7497
 32.6704
 32.8496
 32.8608
 32.8689
 31.5055
 31.6179
 31.6494
 31.5558
 31.8047
 31.6862
 31.6516
 31.729
 31.7536
 31.9101
 31.6593
 31.9155
 32.5038
 32.5275
 28.5768
 28.5668
 28.1346
 28.8111
 32.8797
 32.7559
 32.8298
 32.9039
 31.7597
 31.7544
 31.8575
 31.7863
 30.076
 30.1122
 30.2194
 32.2363
 32.3319
 32.2442
 32.0983
 31.8198
 32.0358
 32.0442
 31.9866
 32.4117
 32.5197
 32.5073
 32.383
 32.1564
 32.219
 32.2765
 32.2133
 32.6248
 32.5773
 32.5414
 32.6447
 32.091
 32.1415
 32.259
 32.2475
 32.1084
 32.2362
 32.1858
 32.0843
 32.1031
 32.1864
 32.6787
 32.6819
 32.7103
 32.1695
 32.2538
 32.1681
 32.2204
 32.7607
 32.7588
 32.7608
 32.7434
 30.0313
 29.5658
 29.9167
 29.4076
 32.1072
 32.0791
 32.2358
 32.8431
 32.881
 32.7859
 32.8375
 32.3097
 32.2859
 32.3551
 29.1353
 29.3544
 28.8921
 32.8601
 32.8618
 32.873
 32.8554
 32.3984
 32.3839
 32.4399
 22.4902
 22.529
 22.635
 22.5708
 32.619
 32.6667
 32.6589
 32.6373
 31.6923
 31.3791
 31.4197
 31.3609
 32.5044
 32.5266
 32.5037
 32.3884
 32.2892
 32.399
 32.2654
 32.294
 29.2573
 29.7644
 29.0773
 29.2448
 32.8047
 32.8616
 32.8039
 31.0997
 30.8893
 31.0615
 31.0229
 32.049
 32.2092
 32.145
 32.489
 32.559
 32.5174
 32.5373
 32.7452
 32.7468
 32.7457
 32.7038
 32.1674
 32.071
 32.1067
 32.1728
 -47.1649
 -87.9532
 -81.6975
 -52.929
 30.6423
 30.7047
 30.8831
 30.6374
 32.6784
 32.6737
 32.6534
 32.7019
 27.01
 26.6308
 26.5253
 32.301
 32.3601
 32.3221
 32.2886
 31.9033
 32.6902
 32.6805
 32.8124
 32.7767
 32.5094
 32.5049
 32.4502
 32.421
 32.605
 32.748
 32.7554
 32.7175
 32.6864
 32.7246
 32.5435
 32.4818
 32.4644
 32.491
 22.9786
 23.2915
 22.7619
 23.111
 31.1303
 31.0074
 30.8953
 30.7081
 30.7729
 31.0025
 30.7905
 32.0357
 31.778
 32.0497
 32.0439
 32.4046
 32.4021
 32.5208
 32.4959
 32.4509
 32.4406
 32.4247
 32.4295
 32.3328
 32.3633
 32.3044
 32.376
 32.6497
 32.6515
 32.6917
 32.7732
 25.6585
 25.7352
 25.2861
 25.4607
 32.2648
 32.2289
 32.3015
 32.2504
 30.5439
 30.514
 30.5777
 30.8136
 29.9827
 29.6482
 29.6799
 29.8573
 27.3584
 27.5203
 27.3661
 27.3461
 24.4787
 24.2876
 23.9732
 24.5525
 31.3713
 31.5561
 31.4931
 31.4899
 23.5189
 23.6365
 23.2061
 23.8919
 32.4094
 32.3394
 32.4047
 32.3168
 31.4196
 31.4675
 31.4935
 31.4895
 31.9048
 31.8979
 32.01
 32.0694
 27.939
 32.1651
 32.2157
 32.19
 32.1113
 30.04
 25.2229
 25.8806
 26.0431
 25.4716
 32.8847
 32.8563
 32.539
 32.6603
 32.5724
 32.65
 31.9938
 32.0254
 31.9563
 31.9841
 31.3192
 31.441
 31.3152
 32.4294
 32.3581
 32.3278
 32.3041
 31.9973
 31.7076
 32.6877
 32.7435
 32.7332
 32.0796
 32.0269
 31.9752
 32.0953
 31.8299
 31.8322
 31.8117
 31.6971
 31.0532
 31.1846
 30.8624
 30.8303
 32.7041
 32.7738
 32.7846
 32.686
 31.6442
 31.5406
 31.6644
 31.6214
 32.2832
 32.3231
 32.2549
 32.3246
 32.7145
 32.6972
 32.6903
 24.7348
 24.4708
 25.2075
 24.6356
 11.3675
 22.379
 25.7079
 25.0754
 27.7807
 27.0652
 27.0393
 27.3442
 32.5294
 32.569
 32.5958
 25.7966
 26.3143
 26.075
 25.597
 32.191
 32.1998
 32.1076
 32.6182
 32.5273
 32.6266
 32.5998
 30.209
 30.0572
 32.8093
 32.5497
 31.072
 31.1837
 31.076
 31.4478
 31.4423
 31.4341
 31.3938
 32.2802
 32.1217
 32.3409
 32.2381
 31.0459
 30.9713
 30.8352
 31.1427
 32.4281
 32.5339
 32.6549
 32.5845
 31.8634
 31.8518
 31.848
 31.8802
 32.6566
 32.6736
 32.6971
 32.7261
 27.3445
 27.3928
 27.5243
 27.9178
 32.7992
 32.7953
 32.8174
 32.7407
 32.8702
 32.8155
 32.8595
 32.8718
 32.5848
 32.4863
 32.5352
 -85.5175
 -85.0654
 -87.5954
 31.0372
 30.957
 31.8852
 31.9213
 31.6683
 31.973
 32.6927
 32.6047
 32.7133
 32.6624
 32.6924
 32.6852
 32.6018
 32.7596
 32.7645
 32.7523
 32.6844
 22.4343
 22.3958
 27.1038
 27.0277
 27.2822
 27.1588
 32.6227
 22.5371
 22.4272
 22.4688
 22.3617
 30.5023
 30.8866
 30.5598
 30.5715
 32.0713
 31.9465
 24.5403
 25.4571
 25.1847
 24.7387
 31.3236
 31.1869
 31.2863
 31.3047
 31.6417
 31.6577
 31.7341
 31.5115
 29.4587
 30.1319
 29.7254
 30.0713
 31.4026
 31.2947
 31.735
 31.6814
 30.9816
 30.8296
 30.9796
 32.5838
 32.6261
 32.6346
 32.5643
 27.8531
 28.004
 28.3021
 28.3881
 32.6462
 32.6235
 32.623
 32.9918
 33.0345
 32.9916
 32.9601
 30.9039
 30.9382
 31.1079
 30.9941
 30.4272
 30.8108
 30.98
 30.5688
 29.7914
 29.468
 29.548
 29.8825
 31.9671
 31.8954
 32.1446
 32.134
 32.599
 32.6285
 30.5011
 30.579
 30.6486
 30.3767
 31.5046
 31.674
 31.6522
 31.6429
 29.2177
 29.4519
 29.2177
 29.4992
 25.7379
 25.688
 26.2956
 25.8994
 32.8499
 32.7255
 23.4836
 23.5672
 23.2328
 23.785
 31.7014
 31.982
 31.575
 31.9771
 32.0634
 31.9329
 31.9464
 23.8461
 23.5023
 23.8333
 29.8606
 29.834
 30.2396
 30.1104
 25.2211
 30.0836
 29.8514
 30.0167
 29.5347
 32.5064
 32.4433
 32.5001
 32.6051
 31.9662
 31.9888
 32.0645
 31.9583
 31.8619
 31.7339
 32.804
 32.8885
 32.9164
 32.867
 29.7424
 29.1868
 29.7084
 29.2716
 31.3142
 31.8241
 31.5852
 31.2988
 32.1352
 32.2017
 32.1817
 32.2035
 32.2976
 32.3876
 32.5045
 32.431
 32.8486
 32.2652
 32.1912
 32.2725
 31.4708
 31.5317
 31.2954
 31.5898
 32.6732
 32.6674
 32.6435
 32.7158
 31.9855
 31.8328
 31.8174
 32.0281
 31.8671
 31.968
 31.9765
 31.9267
 31.1112
 31.0563
 31.1895
 29.8206
 30.1437
 30.4888
 30.1706
 32.9053
 32.7632
 32.852
 32.8693
 32.5605
 32.5752
 32.5155
 32.4813
 31.0011
 31.0969
 30.3246
 30.3303
 30.1296
 30.5501
 32.0476
 32.2468
 32.4561
 32.4723
 32.4797
 32.4644
 32.4845
 32.4652
 32.4415
 32.5341
 32.0148
 32.1295
 32.1632
 32.0582
 32.4744
 32.4791
 32.458
 32.111
 32.275
 32.2737
 32.2491
 32.4268
 32.4468
 32.3999
 32.042
 32.2371
 31.9998
 32.1081
 30.5384
 30.1555
 29.8991
 30.291
 32.539
 32.5743
 32.6069
 32.5453
 31.9828
 31.9955
 31.8433
 27.435
 27.3966
 27.4995
 27.4112
 30.9259
 30.9265
 31.022
 31.1266
 32.5574
 32.4855
 32.6561
 31.4134
 31.5585
 31.5956
 32.6544
 32.6229
 32.6451
 30.9495
 30.7008
 31.086
 30.7647
 31.6457
 31.687
 31.6586
 31.5809
 32.7173
 32.7095
 32.6929
 32.6802
 32.4027
 32.3596
 32.2073
 32.2662
 32.543
 32.5253
 32.5806
 32.5687
 26.462
 26.1674
 26.0603
 31.7166
 31.7276
 31.6083
 31.7628
 32.5706
 32.4643
 32.5961
 32.5996
 32.2897
 32.3355
 32.4113
 32.5014
 32.5838
 32.5722
 32.5892
 32.6295
 31.7326
 31.705
 27.294
 27.7591
 27.609
 27.9373
 32.3828
 32.4202
 32.3461
 32.4346
 31.771
 31.7025
 31.6226
 31.8217
 32.634
 32.5769
 31.7202
 31.7125
 31.7862
 31.6379
 32.3922
 32.3114
 32.4198
 32.2101
 31.5723
 31.5905
 31.461
 31.3753
 32.6407
 32.6928
 32.6496
 32.6008
 32.4858
 32.5677
 32.5505
 32.5582
 32.6339
 32.6248
 32.6443
 30.6164
 30.7238
 30.3477
 30.3003
 25.3098
 25.1761
 25.6674
 32.6756
 32.6994
 32.717
 32.1673
 32.2445
 32.1702
 32.281
 31.9122
 31.9977
 32.0977
 31.9888
 29.5252
 28.9608
 28.9167
 29.4931
 32.744
 32.7901
 32.5824
 32.7113
 31.9205
 32.118
 31.9007
 31.7547
 31.6987
 31.8208
 31.8244
 28.0949
 28.3403
 28.6675
 28.927
 29.001
 32.6389
 32.6745
 32.6719
 32.5966
 32.6516
 32.7859
 32.6475
 32.7712
 28.9947
 29.155
 29.4073
 29.0911
 32.8243
 32.7882
 32.8117
 32.7806
 31.3413
 31.1172
 31.5432
 31.441
 32.1802
 32.1724
 32.0401
 30.9136
 30.8823
 31.0693
 31.0608
 32.5652
 32.6058
 28.6863
 29.1894
 28.955
 28.7956
 29.5241
 28.9945
 29.245
 29.1038
 31.9249
 32.0217
 29.7814
 30.2103
 29.9036
 29.6975
 32.4934
 32.4319
 32.4734
 32.5328
 31.9119
 25.7802
 25.2754
 25.4534
 32.9137
 32.8386
 32.8346
 32.8991
 32.0277
 32.0265
 32.0781
 31.9765
 26.4662
 26.6043
 26.7475
 26.2729
 28.9576
 29.2923
 28.8789
 28.9512
 32.5066
 32.4222
 32.4061
 27.0603
 27.1195
 27.4064
 27.5596
 31.4618
 31.6357
 31.5014
 31.4583
 27.6004
 28.0111
 28.1649
 27.3379
 32.6892
 32.7005
 32.6891
 32.6698
 31.8411
 31.9249
 31.9009
 31.7567
 28.8365
 29.0055
 29.0354
 31.5756
 31.7539
 31.5721
 31.739
 28.2817
 27.8113
 28.2182
 28.1489
 29.4
 29.1015
 29.3366
 32.6084
 32.608
 32.5665
 32.5032
 32.5511
 32.5781
 32.5987
 32.556
 32.5745
 31.9697
 32.0779
 32.0678
 32.0869
 32.8052
 32.8405
 32.757
 32.8113
 32.4776
 32.4487
 32.4628
 32.5204
 29.0215
 28.7564
 29.3014
 30.258
 30.1624
 32.849
 32.7613
 32.8769
 32.8079
 32.0604
 31.9421
 32.5013
 32.4788
 32.4337
 32.4985
 28.2469
 28.1243
 28.6788
 32.1339
 32.1339
 32.211
 32.1436
 32.5292
 32.4155
 32.5051
 32.4619
 28.5734
 28.2878
 28.553
 28.7703
 32.6126
 32.614
 32.7173
 32.6154
 32.8046
 32.7284
 26.4338
 26.2039
 26.3432
 25.9497
 30.0301
 30.5183
 30.8167
 30.6927
 30.9242
 30.8284
 30.6517
 30.2814
 30.369
 30.5768
 32.7579
 32.6445
 32.7117
 32.492
 32.5311
 32.4963
 32.5307
 30.5386
 30.4955
 30.5012
 30.5032
 31.7006
 31.6633
 32.4943
 32.4997
 32.6732
 32.6243
 32.6735
 32.6859
 32.2993
 32.4284
 32.431
 32.3348
 23.7894
 24.1247
 24.0074
 24.3771
 32.5175
 28.3221
 28.7908
 28.4749
 28.3287
 31.7142
 31.6923
 31.7637
 32.6459
 32.7617
 32.7475
 32.6529
 32.3516
 32.3982
 32.3849
 32.2527
 32.6434
 32.6603
 32.5979
 29.5977
 29.9077
 29.7119
 29.4515
 31.9901
 31.9237
 32.1227
 31.9722
 32.7854
 32.7889
 32.7387
 32.7227
 32.0826
 32.0775
 32.1913
 32.1358
 28.2674
 28.3682
 27.8239
 27.8615
 30.5538
 30.7524
 32.656
 32.6978
 32.7341
 32.7188
 31.9019
 31.9833
 31.9775
 31.9753
 31.184
 31.1481
 31.2147
 31.079
 32.1517
 32.2091
 32.1114
 32.7857
 32.8136
 32.8427
 32.8218
 32.4298
 32.3689
 32.3041
 32.37
 27.6198
 27.9892
 28.522
 27.9665
 32.3116
 32.2858
 32.2564
 32.745
 32.7425
 32.7199
 32.7007
 28.1097
 27.9602
 28.1977
 27.7187
 32.4639
 32.3603
 32.4777
 32.4459
 32.5867
 32.6056
 32.6001
 32.5795
 31.1384
 31.1515
 31.357
 31.4292
 27.1415
 27.2537
 26.5421
 26.5555
 32.1008
 32.0726
 32.1463
 32.0731
 23.1077
 23.0759
 23.7923
 23.4827
 29.6461
 29.9184
 29.6392
 30.3587
 30.0454
 29.9522
 29.8043
 22.521
 22.4891
 22.8603
 22.443
 32.2649
 32.36
 32.3595
 32.3083
 32.3486
 32.2546
 32.2836
 30.7917
 31.1804
 31.0555
 25.4986
 25.5687
 25.3169
 27.7579
 27.3085
 27.7354
 27.8217
 30.5651
 30.5328
 30.8031
 30.3133
 32.7778
 32.7537
 32.7992
 32.7968
 23.7216
 23.6428
 23.9382
 23.4286
 32.8814
 32.8617
 32.8403
 32.8432
 32.4147
 32.3421
 32.4592
 32.409
 32.851
 32.7665
 32.8244
 32.6756
 32.0682
 31.9796
 32.1825
 28.6792
 28.5917
 28.7761
 29.0147
 32.0767
 31.9745
 31.9785
 31.966
 32.3708
 32.2639
 32.3615
 32.3587
 30.8819
 31.0661
 30.897
 30.8041
 31.667
 31.6335
 31.592
 32.0469
 31.9215
 32.037
 32.004
 32.0141
 31.9262
 32.0816
 31.9902
 24.2086
 24.2269
 22.663
 22.517
 22.8589
 22.4341
 32.527
 32.5377
 32.5187
 32.4049
 32.3694
 32.431
 32.3546
 32.7682
 32.8141
 32.8156
 32.7691
 -86.0498
 32.0878
 32.6805
 32.6376
 32.5616
 32.4762
 32.5494
 32.4918
 25.4927
 31.4647
 31.6457
 31.4504
 31.0475
 31.1352
 31.1319
 31.1336
 32.75
 32.7337
 32.7865
 32.8327
 31.491
 31.6173
 31.5316
 31.5991
 32.1817
 32.2637
 31.9973
 31.6864
 31.9728
 31.8175
 32.3931
 32.312
 32.4526
 32.3841
 32.9162
 32.894
 32.8634
 32.9413
 27.6789
 27.353
 28.0585
 27.9263
 32.3679
 32.1809
 32.2426
 31.7918
 31.6817
 31.6669
 31.8066
 32.4039
 32.4055
 32.4909
 32.4041
 30.798
 30.7706
 31.261
 30.7236
 30.9381
 30.7712
 30.7916
 30.7681
 32.2196
 32.1317
 32.1401
 32.1428
 31.9179
 32.1551
 31.9041
 32.5673
 32.536
 32.6019
 32.6179
 29.0777
 29.437
 28.7898
 28.8294
 32.7503
 32.8344
 32.7596
 32.7903
 28.2681
 28.5303
 28.2295
 28.3465
 32.5491
 32.4303
 32.408
 32.4731
 32.4801
 32.4313
 32.3748
 32.5769
 27.2466
 27.1397
 27.3753
 32.4974
 32.5396
 32.3919
 32.4923
 32.4691
 32.5573
 32.0651
 31.987
 31.9397
 27.8392
 27.2064
 27.1777
 27.4328
 32.7379
 32.7066
 32.7846
 32.7073
 32.7675
 32.8118
 32.7352
 32.7862
 27.4685
 31.5537
 27.223
 26.058
 32.8895
 32.7799
 32.8268
 22.6589
 22.8709
 22.9358
 32.5242
 32.5561
 32.6373
 32.7173
 32.6371
 28.3231
 28.4771
 27.8478
 28.0765
 32.1555
 32.2663
 32.3466
 32.4927
 32.526
 32.5251
 32.5511
 32.4165
 32.428
 32.4792
 32.4727
 32.5764
 32.4756
 32.4048
 31.1855
 31.2502
 31.3047
 31.3903
 30.4617
 31.0475
 30.9265
 30.7873
 26.5614
 26.6782
 26.7553
 26.7481
 31.5452
 31.4523
 31.8081
 31.579
 32.2667
 32.1696
 32.2078
 32.2968
 28.2357
 29.1143
 27.3273
 26.7278
 32.7849
 32.8703
 32.7593
 32.759
 26.5092
 26.1142
 26.3191
 26.2679
 32.4653
 32.5977
 32.6045
 32.547
 32.2122
 32.308
 32.327
 32.2449
 32.6802
 32.6211
 30.8305
 30.6237
 30.6197
 30.756
 31.9494
 31.9842
 31.9635
 32.4699
 32.5872
 32.5246
 32.4683
 29.9146
 30.3492
 30.0377
 29.6518
 31.5338
 31.4773
 31.7012
 -85.8028
 -85.9261
 -86.3162
 -85.9475
 32.5563
 32.5456
 32.648
 32.1446
 32.0327
 32.0549
 32.1033
 32.3577
 32.3931
 32.0187
 31.9596
 31.8572
 32.0226
 32.3926
 32.3562
 26.6134
 26.6204
 26.0672
 27.0302
 32.4617
 32.4904
 32.4682
 32.5569
 32.5749
 32.5295
 31.3496
 31.5639
 31.533
 31.4073
 32.7909
 32.7656
 32.6589
 32.7507
 31.0342
 30.31
 30.2733
 30.8246
 32.1339
 32.1574
 32.0918
 31.8795
 32.5284
 32.504
 32.5692
 25.6409
 25.3859
 25.3419
 25.703
 32.6787
 32.7173
 32.7212
 32.6911
 30.4931
 30.1352
 30.1198
 29.9757
 30.8317
 30.4497
 30.6992
 4.10896
 20.8202
 -38.8538
 21.7518
 27.3989
 28.2198
 28.4661
 27.7942
 32.1867
 32.2781
 32.1984
 32.2643
 32.806
 32.8366
 32.7589
 31.7264
 28.7199
 28.9181
 28.791
 29.1955
 31.6966
 31.5529
 31.7414
 31.7744
 32.7355
 32.6428
 32.6227
 32.68
 28.865
 28.8355
 29.6656
 25.1451
 32.5685
 32.5346
 32.5684
 32.5616
 28.9519
 29.5945
 22.2238
 22.4373
 28.8539
 29.1818
 28.7992
 28.2552
 32.6191
 32.5771
 32.4521
 32.4562
 32.3882
 32.4725
 31.7293
 31.9495
 31.88
 31.9352
 31.9131
 31.8908
 31.7704
 31.9091
 31.6624
 31.6846
 31.2421
 31.2462
 32.5323
 32.5141
 32.5351
 32.6335
 29.716
 29.7277
 29.9235
 29.9837
 32.3643
 32.3041
 32.4087
 32.3194
 32.1058
 32.1712
 31.9979
 32.0214
 32.7534
 32.7367
 32.745
 32.7554
 32.7947
 32.7317
 32.7207
 32.6859
 32.6169
 32.5647
 32.6149
 32.6235
 32.4258
 32.5551
 32.4721
 32.3536
 29.5642
 29.1393
 29.4297
 29.3708
 31.9848
 31.9385
 32.0075
 31.7645
 31.7892
 31.8983
 31.8164
 28.5956
 29.1235
 29.0653
 28.7773
 32.3809
 32.523
 32.4724
 32.4993
 28.8014
 28.9479
 29.1273
 29.412
 32.5808
 32.3655
 32.4064
 32.4483
 32.4524
 32.3083
 32.2987
 32.2867
 32.3725
 23.0632
 22.8661
 22.8737
 23.2857
 32.4506
 32.3967
 32.33
 32.3894
 32.6266
 32.5308
 32.5419
 32.4798
 32.7158
 32.7898
 32.7806
 32.7477
 32.4845
 31.2583
 31.3099
 31.4514
 31.371
 32.4073
 32.4119
 32.5102
 32.4672
 22.5013
 22.4412
 22.5745
 22.4295
 32.1493
 31.9382
 31.8381
 32.0486
 31.3943
 32.3375
 32.401
 32.3945
 32.3743
 32.1371
 32.1401
 32.2035
 32.2748
 32.2227
 32.1637
 32.1346
 32.1425
 32.332
 32.2209
 32.2873
 24.3487
 24.33
 32.5896
 32.5495
 32.4572
 30.6877
 30.7121
 30.5248
 30.9207
 32.6611
 32.6944
 32.6045
 32.674
 32.6131
 32.6853
 32.6987
 32.6413
 32.7656
 31.7294
 31.8921
 31.8741
 31.7353
 32.6566
 32.6369
 32.5645
 32.6423
 32.126
 32.231
 32.049
 32.3021
 27.9416
 28.0364
 27.7965
 28.1659
 31.4207
 31.5843
 31.3566
 31.432
 32.5526
 32.5739
 32.5138
 32.5701
 31.5538
 31.6233
 31.574
 31.4422
 31.0477
 30.6991
 31.0724
 31.0823
 32.4201
 32.4101
 31.9419
 31.8274
 31.9637
 31.8906
 32.5512
 32.5394
 32.5113
 32.5349
 32.3788
 32.483
 32.7831
 32.5463
 32.7028
 32.7273
 32.1733
 32.2495
 32.2585
 32.1825
 31.4078
 31.0958
 30.9806
 31.2624
 26.5268
 26.8708
 26.541
 26.5804
 27.4956
 27.5348
 27.4949
 27.4029
 31.4347
 31.6234
 31.6289
 31.5037
 32.0603
 31.9381
 31.9722
 32.2124
 31.9941
 32.1027
 32.1775
 32.5313
 32.5092
 32.4464
 32.5754
 26.2012
 26.1871
 26.3264
 32.1053
 31.8194
 32.0363
 31.9761
 32.6991
 32.883
 32.7916
 32.7314
 30.7507
 30.4655
 30.9298
 30.3344
 30.9265
 31.2103
 31.1036
 31.1158
 32.6401
 32.6318
 32.6275
 32.6318
 32.5428
 32.4503
 32.6055
 32.6264
 32.7682
 32.772
 32.6891
 32.6852
 27.466
 27.5989
 27.7746
 32.3833
 32.3896
 32.3164
 32.4019
 30.6081
 30.8163
 30.6321
 30.4073
 32.3963
 32.3937
 32.3049
 32.4456
 32.4523
 32.5667
 32.5247
 32.4891
 32.539
 32.5059
 32.4641
 32.7145
 32.6915
 32.6786
 32.7116
 32.705
 32.7366
 32.6248
 32.3362
 32.1832
 32.2889
 32.9093
 32.9495
 32.9665
 32.8291
 32.0372
 31.9524
 32.0833
 32.0564
 32.0558
 32.0781
 32.1703
 32.67
 32.511
 32.6243
 32.584
 31.1742
 30.9802
 31.2194
 30.915
 29.4555
 32.2105
 32.2744
 32.1646
 32.18
 32.1019
 32.2733
 -81.515
 -90.527
 -73.0861
 -51.7767
 32.5266
 32.5939
 32.2342
 32.1319
 32.2756
 31.5311
 31.3806
 32.6357
 32.656
 32.6802
 32.6968
 31.8821
 31.9574
 31.95
 32.6511
 32.501
 32.6425
 32.5239
 31.0037
 31.0285
 30.8369
 31.133
 22.5101
 22.4037
 22.4608
 22.5654
 32.6831
 32.6939
 32.6876
 32.6913
 32.2929
 32.1722
 32.3425
 32.4983
 32.4773
 32.4746
 32.5516
 30.6766
 30.0501
 30.2129
 29.8032
 30.4375
 30.5357
 29.291
 29.602
 29.1657
 31.4243
 31.5304
 32.2047
 32.287
 32.1666
 32.3439
 32.804
 32.7237
 32.7719
 32.5756
 32.6238
 32.5443
 32.5267
 30.8736
 30.3882
 30.412
 30.6448
 32.4017
 32.3671
 32.4291
 32.4311
 32.4884
 32.5886
 32.5515
 32.4767
 30.128
 30.2776
 30.063
 30.8401
 30.7319
 30.8487
 30.85
 31.1036
 30.985
 31.0858
 30.943
 27.4525
 26.8724
 31.9636
 32.0243
 31.9946
 32.1138
 32.2896
 32.422
 32.3752
 32.3332
 32.623
 32.6514
 32.6266
 32.6699
 27.5728
 27.9078
 32.3951
 32.3715
 32.3812
 32.31
 32.2034
 32.1347
 32.1053
 32.2446
 32.4703
 32.5288
 32.5608
 32.5204
 32.3597
 32.4453
 32.4365
 32.3326
 30.7084
 30.7378
 32.758
 32.7674
 32.7606
 32.7329
 32.6163
 32.6606
 32.5924
 32.6189
 32.6321
 32.609
 32.6599
 29.3165
 29.5512
 29.2644
 29.739
 23.9273
 23.0355
 23.124
 23.7222
 32.6136
 32.5336
 32.5944
 32.7051
 32.6332
 32.6466
 32.6352
 32.641
 31.8059
 31.8958
 31.7455
 31.7839
 31.3328
 31.2241
 31.4188
 31.4843
 32.4161
 32.3007
 32.8377
 32.8116
 32.8594
 23.3388
 23.1508
 23.153
 23.5583
 30.1204
 29.7466
 30.3956
 29.6657
 32.5593
 32.5631
 32.5395
 32.5353
 32.4836
 32.4574
 32.425
 32.3676
 32.28
 32.1382
 32.1525
 30.5787
 30.8446
 30.8468
 30.5431
 32.6121
 32.6646
 32.6848
 32.6306
 32.4394
 32.4632
 32.4566
 32.4425
 32.1346
 32.1182
 32.094
 32.5583
 32.5573
 32.5682
 32.5311
 31.8479
 31.9875
 31.7156
 31.7971
 32.3905
 32.3568
 32.3942
 22.6043
 22.5289
 22.6767
 23.0885
 30.6422
 30.7284
 26.4597
 26.144
 26.5898
 26.9571
 29.8568
 28.0221
 32.071
 30.8401
 30.4338
 30.7833
 30.2613
 31.4482
 32.6413
 32.6458
 32.6441
 32.6535
 31.0688
 31.3802
 31.251
 31.8013
 31.9146
 31.92
 32.2253
 32.2223
 32.3736
 32.2536
 32.5096
 32.5971
 32.4871
 32.5481
 28.5852
 27.9987
 27.9189
 28.414
 31.7168
 31.6911
 31.7134
 31.8386
 32.7186
 32.5512
 32.5334
 32.5231
 32.4529
 32.4936
 32.5828
 32.655
 32.6495
 32.6052
 30.8449
 30.9672
 30.59
 30.729
 32.9462
 32.925
 32.9434
 31.1107
 31.1738
 31.168
 30.8654
 32.1351
 32.3264
 32.4327
 32.3805
 32.3474
 32.2807
 32.0798
 31.9354
 31.9961
 32.0695
 29.9354
 30.2726
 29.8522
 30.1859
 32.496
 32.5802
 32.5961
 32.4787
 32.897
 32.9267
 32.8787
 32.8875
 32.0968
 31.8383
 32.074
 32.0424
 32.0704
 32.0922
 32.1238
 32.1396
 32.5779
 32.4411
 32.6123
 32.4224
 32.5282
 32.4494
 32.4614
 32.5796
 32.0757
 32.0045
 32.1178
 32.1081
 30.2198
 30.6182
 29.6739
 29.985
 30.2181
 29.7927
 25.7792
 25.1297
 25.4749
 25.7433
 33.0225
 33.0131
 32.8737
 32.9161
 32.6579
 32.7407
 32.6587
 32.0163
 31.9859
 31.9498
 31.947
 31.3182
 31.2824
 31.3525
 31.902
 31.8836
 32.0204
 32.6636
 32.674
 32.6487
 32.6665
 32.5366
 32.4751
 32.4495
 32.5617
 32.4859
 32.3912
 32.4918
 32.3902
 30.9529
 30.7036
 30.7539
 30.9291
 26.7212
 27.1762
 27.4426
 27.424
 31.4549
 31.4613
 31.5399
 31.3189
 30.3412
 30.2751
 30.1197
 30.4155
 32.4495
 32.4414
 32.4415
 32.4252
 31.3457
 31.4573
 31.5562
 31.3237
 32.433
 32.4564
 32.4466
 32.4598
 31.9757
 31.8937
 31.9587
 31.8825
 30.6149
 30.386
 30.3273
 28.1007
 28.5888
 28.2998
 27.9224
 28.9809
 28.7519
 29.0022
 28.7173
 29.4385
 29.2343
 30.4937
 30.7447
 30.1632
 32.149
 32.1895
 32.2026
 32.2472
 32.1877
 32.2877
 32.2296
 32.2746
 32.7403
 32.7076
 32.7375
 32.7037
 32.3056
 31.8365
 31.8011
 31.8326
 31.8607
 27.7341
 27.5818
 27.685
 27.4792
 31.598
 31.4708
 31.6313
 31.4452
 31.82
 31.8237
 31.9959
 32.6196
 28.1147
 28.0365
 27.7624
 30.1338
 29.8833
 29.6099
 30.2846
 32.592
 32.6041
 32.5748
 32.65
 32.3905
 32.362
 32.4557
 32.3516
 32.1781
 32.7252
 32.7374
 32.7874
 32.36
 32.3916
 32.4075
 32.4605
 31.1334
 31.2204
 30.9671
 30.9861
 31.8754
 31.5542
 31.7926
 31.7966
 32.6485
 30.153
 30.2128
 30.3048
 32.3227
 32.3593
 32.3098
 32.3324
 32.3505
 32.3531
 32.2552
 32.3999
 31.9329
 31.9156
 31.9594
 31.0628
 31.0595
 30.9262
 31.0966
 27.6524
 27.1299
 27.5261
 32.0959
 32.1643
 31.9741
 32.0162
 32.0973
 32.0693
 32.5454
 32.5922
 32.6635
 31.551
 31.5969
 31.5301
 31.6482
 32.4343
 32.5064
 32.4762
 32.394
 32.4821
 32.7345
 32.5763
 32.5871
 32.8583
 32.8635
 32.7772
 32.8062
 30.3835
 30.3828
 30.2608
 30.4652
 32.0686
 32.0289
 32.084
 31.9326
 31.4828
 31.5989
 31.2249
 31.7404
 31.8834
 31.9139
 31.9662
 32.1825
 32.1591
 32.037
 32.1381
 32.7138
 32.7667
 32.7987
 32.8002
 31.6685
 31.7322
 31.8432
 31.6988
 31.7624
 31.8035
 31.868
 31.8784
 32.6171
 32.611
 32.5935
 32.6312
 32.4086
 32.4132
 32.3484
 32.4241
 32.5029
 32.4419
 32.4262
 32.4038
 31.6401
 31.4526
 31.6035
 30.949
 30.9377
 30.7822
 30.8289
 32.96
 32.9665
 32.898
 32.9719
 32.6043
 32.5356
 32.5909
 32.6235
 32.3698
 32.4098
 32.4346
 32.3932
 32.3017
 32.3173
 32.2059
 32.2596
 32.5433
 32.3943
 32.5839
 32.5091
 32.6926
 32.691
 32.6745
 32.7127
 27.2112
 27.2888
 27.1524
 27.1601
 32.4933
 32.4603
 32.5653
 32.5912
 27.5793
 27.5911
 27.5266
 30.6038
 30.4452
 30.4209
 30.6102
 29.4693
 29.6965
 30.2765
 29.7817
 32.331
 32.4312
 32.3567
 32.2897
 32.5543
 32.433
 32.5008
 32.5489
 31.6362
 31.4548
 31.5796
 31.4167
 31.3075
 31.3643
 31.4681
 22.445
 22.3949
 32.7248
 32.7111
 32.7205
 32.7333
 24.8561
 24.5309
 24.0905
 24.4387
 32.5749
 32.6089
 32.5009
 32.4838
 32.0288
 31.1577
 31.0517
 30.9807
 30.8132
 32.5965
 32.525
 32.5314
 32.4874
 32.3933
 32.3969
 32.3055
 32.4241
 27.3171
 27.3293
 32.7577
 32.7457
 32.6456
 32.7123
 32.7897
 32.802
 32.8355
 32.8365
 31.082
 31.0256
 30.8936
 31.2851
 32.7211
 32.5802
 32.5075
 32.716
 32.4223
 32.4971
 32.3425
 32.0758
 32.1313
 32.123
 32.1757
 31.4075
 31.3804
 31.367
 31.3955
 31.2687
 31.2976
 31.4434
 31.8838
 32.0175
 32.0194
 32.0467
 28.5825
 28.1722
 28.352
 28.5074
 32.6826
 32.5309
 32.6293
 32.6331
 32.9532
 32.9483
 32.9348
 32.9227
 32.007
 32.0498
 32.0765
 31.9178
 32.5975
 32.5548
 32.6556
 32.6653
 23.9378
 23.6591
 23.4603
 23.7027
 32.2891
 32.1947
 32.2909
 32.2729
 31.8856
 31.9952
 32.0595
 31.8391
 32.5293
 32.4761
 32.5303
 32.6233
 29.2583
 28.9213
 28.8005
 28.7773
 32.8744
 32.9082
 32.7603
 32.7488
 31.4572
 31.2461
 31.2123
 27.2618
 27.058
 27.0086
 26.9097
 32.5595
 32.5141
 32.5523
 32.5232
 32.5649
 32.6231
 30.1759
 29.7286
 29.4466
 29.8739
 29.8741
 30.0552
 30.2581
 31.9699
 -90.9513
 -80.7142
 -69.187
 -88.3482
 32.3521
 32.4531
 32.2843
 32.369
 28.7625
 31.8698
 31.8366
 31.7645
 32.0359
 31.8127
 31.6639
 32.04
 30.4888
 30.8781
 30.679
 30.6374
 23.6184
 23.6481
 23.8199
 23.1539
 28.5504
 28.9553
 28.9903
 32.659
 32.639
 32.6198
 31.3602
 31.2711
 31.1662
 31.2983
 31.3178
 29.2721
 29.6081
 28.9818
 31.656
 31.758
 31.8633
 31.835
 31.7177
 31.7747
 32.5152
 32.5106
 32.4292
 32.5359
 30.6733
 30.7784
 30.8786
 27.3007
 26.8017
 31.8161
 31.9634
 31.7985
 31.833
 25.2828
 25.2143
 24.8748
 25.6132
 29.5465
 29.3951
 23.4616
 25.0491
 22.5036
 22.5668
 22.5306
 31.8356
 31.8657
 31.6901
 31.7636
 31.932
 31.9302
 32.6594
 32.6204
 32.5802
 30.698
 30.8473
 31.0004
 31.1647
 30.9974
 32.2303
 27.1989
 27.243
 27.3757
 27.4327
 31.9922
 32.2746
 32.0346
 32.1561
 32.628
 32.6987
 32.6397
 32.3433
 32.3587
 32.3927
 32.3568
 31.7556
 31.7876
 31.9612
 32.0384
 32.8998
 32.8207
 32.8116
 32.8225
 32.4826
 32.5597
 32.5186
 32.4381
 32.6866
 32.4796
 32.6409
 32.5257
 32.4857
 31.7442
 31.679
 31.7346
 31.8394
 30.2671
 29.6182
 29.56
 30.1332
 31.8068
 31.7693
 31.8207
 31.8467
 24.3852
 24.3563
 26.6184
 31.7231
 31.7794
 31.566
 31.7005
 30.2032
 30.0509
 29.7497
 29.7923
 32.4844
 32.5626
 32.5245
 32.4571
 29.5909
 29.6624
 28.7091
 28.916
 31.4999
 32.2711
 32.3842
 32.352
 32.4265
 32.2346
 32.14
 32.179
 27.9526
 28.1716
 27.6773
 27.4658
 32.3495
 32.4588
 32.3945
 32.4422
 32.6683
 32.7198
 32.7009
 32.6684
 32.653
 32.6859
 32.6432
 32.6485
 31.404
 31.531
 32.0817
 32.0872
 32.0077
 32.2334
 32.37
 32.4267
 32.4102
 32.7551
 32.7921
 32.6244
 32.6494
 32.6172
 32.5604
 32.5668
 32.5376
 32.6684
 32.7014
 32.6043
 32.6251
 30.3193
 30.2093
 30.9242
 30.7062
 30.7254
 31.7407
 31.8667
 31.8
 31.8038
 26.6587
 26.24
 26.2448
 26.2398
 32.0235
 31.7869
 31.6134
 24.2345
 24.2011
 24.5185
 31.6848
 31.6142
 31.3531
 31.7757
 30.4201
 30.8951
 30.4155
 32.4055
 32.7219
 32.6796
 32.6045
 32.3589
 32.3843
 32.4961
 32.4988
 29.106
 29.1309
 30.2275
 29.6933
 32.8184
 32.8238
 32.8951
 32.8844
 32.2638
 32.3212
 31.2934
 31.3858
 31.457
 31.2924
 32.5662
 32.6628
 32.5796
 32.7246
 32.0492
 32.0534
 32.0151
 32.1213
 31.6381
 31.6265
 31.4554
 31.6959
 31.7951
 31.7354
 31.7196
 32.7042
 32.5482
 32.5638
 32.6205
 27.765
 27.6416
 28.0564
 32.3963
 32.3991
 32.4943
 32.3704
 27.9657
 27.4642
 28.0469
 27.391
 32.643
 32.6649
 32.6531
 32.7694
 27.4197
 27.4452
 27.3319
 27.5202
 30.3567
 30.5044
 30.5935
 30.4991
 31.648
 31.7815
 31.663
 31.7315
 32.396
 32.414
 32.3804
 32.4148
 31.4283
 31.3215
 31.488
 31.3699
 32.9028
 32.8537
 32.3066
 32.1522
 32.1546
 32.1687
 32.1524
 32.3218
 32.3197
 32.4724
 32.3071
 32.3539
 32.3502
 32.3146
 28.3685
 28.7042
 28.3147
 31.7656
 31.6602
 31.5853
 22.7039
 -66.9344
 20.5783
 -47.5649
 30.4494
 30.5418
 27.8804
 27.9308
 27.7935
 27.3848
 32.4989
 32.4799
 32.4958
 32.4944
 24.1572
 24.6035
 24.8498
 24.4094
 29.58
 29.4304
 28.8823
 32.7882
 32.7379
 32.7322
 32.7495
 29.8183
 30.0607
 29.6555
 29.2272
 29.1845
 28.8495
 28.9029
 31.7069
 31.6428
 31.6753
 31.8251
 32.4449
 32.2186
 22.6755
 22.761
 30.33
 30.0421
 32.1363
 31.9979
 32.0553
 32.0342
 32.6703
 32.6782
 32.6908
 32.6232
 32.2597
 32.306
 32.3247
 32.3138
 28.1105
 27.2774
 27.9312
 27.6656
 32.7106
 32.6805
 32.7138
 27.9317
 27.877
 28.0502
 28.044
 31.9452
 31.9033
 31.8463
 31.9328
 32.7635
 32.7609
 32.809
 32.825
 28.7707
 28.9927
 28.637
 32.4418
 32.3057
 32.4356
 32.4439
 27.7472
 27.674
 27.8486
 29.349
 29.7767
 29.6176
 29.4626
 29.3945
 29.305
 29.6744
 29.4318
 32.4377
 32.3167
 32.3295
 32.2161
 31.7488
 31.8407
 31.9974
 31.8949
 32.8113
 32.6646
 32.6094
 32.8432
 32.1533
 31.9232
 32.0849
 32.5862
 32.5636
 32.5467
 32.0698
 32.1333
 32.0666
 32.0986
 32.6923
 32.6412
 32.6985
 32.6436
 32.2312
 32.3174
 32.2488
 32.3864
 27.0391
 27.0446
 28.6292
 28.2973
 29.0034
 29.0232
 22.4092
 22.4578
 23.2494
 22.4821
 32.6289
 32.5781
 32.6251
 32.6129
 30.1258
 29.7734
 29.798
 29.7919
 32.4156
 32.3824
 32.4014
 32.3443
 26.3459
 25.9814
 26.1885
 25.8928
 32.6515
 32.6334
 32.6064
 32.6191
 32.0569
 32.3749
 32.5553
 32.4428
 32.448
 32.2163
 32.0857
 32.087
 32.1387
 31.9208
 31.9783
 32.1157
 32.0393
 31.2789
 31.0475
 31.1548
 31.022
 29.1866
 28.8077
 29.5067
 32.2619
 32.2397
 32.1858
 32.3589
 31.7457
 31.6438
 31.6694
 31.6163
 32.398
 32.3343
 32.3014
 32.7799
 32.7855
 32.7426
 32.8197
 32.408
 32.3617
 32.3829
 32.3246
 28.9396
 29.1735
 28.7906
 -85.4285
 -89.5554
 -90.3859
 32.5647
 32.4706
 32.5071
 32.806
 32.8023
 32.8308
 32.8398
 31.6818
 31.674
 31.7625
 31.5253
 32.3921
 32.3498
 32.1914
 32.2474
 23.2429
 23.6047
 22.9201
 23.4943
 32.3118
 32.2782
 32.2632
 32.2524
 32.9206
 32.9642
 32.7287
 32.7215
 29.6964
 29.7515
 30.7379
 30.0946
 30.4265
 30.4729
 32.7446
 32.7952
 32.79
 32.7277
 29.2942
 29.8815
 32.7355
 32.7038
 28.4438
 -34.0527
 -48.3672
 -62.7624
 16.2991
 26.1146
 26.6623
 31.4997
 31.4032
 31.493
 27.4633
 28.0553
 28.5344
 27.9303
 32.683
 32.6437
 30.4873
 30.3723
 30.4063
 30.4629
 31.1845
 31.5695
 31.4822
 32.4544
 32.5374
 32.5125
 32.398
 32.7164
 32.7269
 32.8345
 32.7682
 32.3523
 32.3281
 32.2603
 32.0021
 31.8583
 32.0426
 31.7645
 32.3643
 32.2302
 32.3694
 32.2742
 32.3045
 27.5171
 27.412
 27.6832
 27.951
 32.6747
 32.5925
 32.5365
 32.5217
 32.5564
 32.6759
 32.5873
 32.6236
 22.5431
 22.6767
 22.3989
 22.5892
 28.7211
 31.5033
 31.7897
 32.0147
 31.8628
 31.7114
 32.597
 32.5593
 32.5638
 32.5585
 30.5286
 30.1619
 30.2748
 30.5197
 32.6371
 32.6294
 32.667
 32.6689
 28.0408
 28.2041
 28.6451
 28.5566
 28.9548
 29.1377
 28.8907
 32.3
 32.2999
 32.1828
 32.2808
 32.6436
 32.5166
 32.719
 31.1452
 31.0486
 31.1555
 31.2144
 22.7184
 22.6234
 22.6822
 32.2314
 32.2377
 32.2388
 32.2104
 32.1828
 32.2984
 32.1358
 32.1097
 32.1937
 32.0103
 32.574
 32.5956
 32.587
 32.6231
 29.3193
 29.9077
 29.4305
 25.3805
 31.959
 31.673
 31.7771
 31.9101
 32.272
 32.3182
 32.2772
 32.7733
 32.8158
 32.7538
 32.7647
 32.6201
 32.7009
 32.6509
 32.6683
 31.8763
 31.7575
 32.8762
 32.8545
 32.9447
 32.8623
 32.7037
 32.6894
 32.6779
 32.7085
 32.0015
 31.9126
 32.5
 32.5435
 32.602
 32.581
 32.7217
 32.7074
 32.7121
 32.6131
 32.8062
 32.7861
 32.7846
 32.8361
 32.3152
 32.3751
 32.1802
 32.3237
 32.2252
 32.1129
 31.1884
 30.9647
 31.0729
 31.1318
 32.6001
 32.5247
 32.6131
 32.4896
 28.6523
 29.0734
 29.173
 29.4178
 30.4436
 30.4859
 30.3103
 30.468
 22.4444
 22.4359
 22.5039
 22.3659
 31.2967
 30.9537
 32.5278
 32.5255
 32.5408
 32.5178
 31.8845
 31.9056
 31.9303
 32.0475
 32.5172
 32.5098
 32.4703
 32.5454
 32.0283
 32.0887
 32.4281
 32.4228
 31.6836
 31.6502
 31.6259
 31.6304
 27.9405
 31.9167
 31.9014
 31.9411
 32.0613
 32.8646
 32.7971
 32.7455
 32.7045
 30.7039
 30.5751
 30.4637
 30.3058
 32.5415
 32.6054
 32.5995
 32.6632
 32.4075
 32.3892
 32.3507
 32.3827
 28.1392
 27.9204
 28.3524
 28.1766
 27.8533
 31.7256
 31.8827
 31.6219
 31.7042
 31.6163
 31.8992
 31.52
 31.7626
 29.1323
 29.1252
 28.7951
 29.1205
 30.2172
 30.3617
 30.7781
 30.5889
 32.1892
 32.2304
 32.0955
 32.07
 28.5482
 28.1698
 28.0705
 28.3055
 32.8811
 32.8996
 32.8799
 30.6313
 30.6591
 30.649
 30.545
 23.9898
 24.2539
 32.7315
 32.7962
 32.7652
 32.8598
 32.882
 32.8622
 32.8802
 27.7057
 28.0923
 28.273
 26.0398
 26.2799
 26.4406
 26.1493
 32.7156
 32.7862
 32.658
 32.5966
 32.6789
 32.649
 32.7256
 32.5548
 32.7154
 32.6267
 32.3945
 32.3344
 32.3406
 32.2616
 32.3132
 32.2113
 22.2704
 22.3722
 22.4665
 22.3126
 32.012
 31.9612
 32.044
 31.9584
 31.2253
 30.95
 32.761
 32.6054
 29.497
 29.5032
 29.3018
 29.7408
 32.6769
 32.7784
 32.7174
 32.2999
 32.2615
 32.2815
 32.261
 32.1907
 32.314
 27.7328
 27.829
 27.5822
 32.5852
 32.5419
 32.4836
 30.055
 29.7256
 30.0576
 27.8998
 28.0045
 27.9538
 27.5479
 31.9267
 32.0228
 31.8357
 32.0773
 31.7135
 31.4422
 31.4879
 31.7074
 32.4733
 32.4497
 32.506
 32.4718
 32.5634
 32.6362
 32.6042
 32.6723
 31.8567
 31.7892
 31.9871
 32.786
 32.8153
 32.807
 32.9525
 32.8356
 32.8377
 32.7139
 30.9392
 31.004
 30.9268
 32.388
 32.513
 32.5073
 32.621
 32.5859
 32.6239
 32.4094
 32.4896
 32.2182
 31.1458
 30.7799
 30.8853
 27.6174
 27.7634
 27.6602
 27.6827
 32.2806
 32.1155
 32.2327
 32.1485
 30.8739
 30.7762
 30.536
 29.0022
 29.4531
 32.8
 32.8474
 32.7982
 32.7772
 32.7115
 32.6727
 32.7482
 32.7429
 29.3249
 29.7012
 29.9151
 30.0932
 28.5455
 27.9984
 28.3162
 28.0324
 25.6216
 25.3875
 25.5316
 25.2353
 31.8272
 31.7928
 32.3339
 32.442
 32.3741
 32.3071
 31.7703
 31.0063
 31.2443
 30.9852
 32.4537
 32.4758
 32.4043
 32.3917
 28.9178
 28.8122
 32.4577
 32.3856
 32.3858
 27.4492
 27.6826
 32.4014
 32.4189
 32.3259
 32.491
 32.0438
 32.1081
 31.8986
 32.0644
 32.6575
 32.5904
 32.6261
 31.1079
 31.2583
 31.2788
 31.9563
 31.9901
 31.9431
 31.942
 30.6469
 30.1433
 30.4784
 30.6058
 32.6039
 32.6468
 32.7064
 32.6228
 30.9021
 30.523
 30.4306
 30.9522
 28.7945
 29.0011
 28.7977
 31.8212
 31.6558
 31.7449
 31.7998
 27.5629
 27.6643
 27.5462
 32.0078
 32.0809
 32.0561
 32.3743
 31.7584
 31.6539
 31.6993
 30.6897
 30.4692
 30.7133
 30.5401
 32.5357
 32.0406
 31.9617
 32.1552
 32.0716
 26.9456
 27.0195
 27.3143
 26.9716
 32.8712
 32.9304
 32.8969
 32.8855
 32.3109
 32.3789
 32.1628
 28.9379
 28.4571
 28.8276
 28.0659
 32.7639
 32.8463
 32.7349
 30.0107
 29.8214
 22.2872
 22.3503
 22.3467
 22.5854
 25.9026
 24.6771
 24.7357
 31.9278
 31.964
 31.9589
 32.0765
 32.1376
 32.0698
 26.2137
 26.2609
 25.8362
 26.5235
 31.5778
 31.6404
 31.6306
 31.7532
 32.1737
 32.0059
 32.0084
 32.0592
 32.4955
 32.5163
 32.4893
 32.4414
 32.6265
 32.5696
 32.6073
 32.5486
 31.8493
 28.0261
 27.8086
 28.0598
 27.896
 31.96
 32.0245
 31.9119
 32.9018
 32.8143
 32.8374
 32.9226
 28.0545
 28.447
 28.608
 32.3806
 32.3777
 32.4334
 32.3304
 32.4341
 32.4898
 32.4955
 32.3998
 32.4473
 30.3546
 30.4435
 30.3634
 32.2586
 32.467
 32.4844
 31.8955
 31.9485
 32.038
 31.9556
 32.2676
 32.1867
 32.1975
 24.0642
 23.9969
 24.9907
 32.2813
 32.2162
 32.2289
 32.1186
 32.5781
 32.4659
 32.5759
 32.4198
 32.45
 32.4319
 32.3375
 32.4762
 32.4185
 32.6976
 32.6071
 32.6395
 32.6777
 31.6615
 31.7067
 31.7916
 31.878
 32.802
 32.6743
 32.791
 32.7393
 32.4338
 32.5168
 32.4898
 32.4681
 32.4598
 32.3779
 32.299
 29.8483
 30.1681
 29.533
 29.738
 32.1572
 32.2396
 31.1653
 30.9504
 31.1758
 31.0814
 32.6749
 32.6419
 32.6789
 32.6504
 32.2759
 32.3865
 32.3302
 32.2473
 32.8093
 32.8274
 32.8197
 32.8655
 32.3943
 32.3996
 32.5044
 32.5085
 32.2161
 32.1066
 32.1133
 32.3926
 32.4365
 32.4235
 32.1362
 32.154
 32.1585
 32.0362
 32.6636
 32.6459
 32.5645
 32.7101
 32.585
 32.6676
 23.1548
 22.754
 22.8739
 31.9911
 32.1009
 31.9936
 32.4995
 32.4728
 32.5579
 32.506
 32.0039
 32.0637
 32.0333
 32.7708
 32.8175
 32.586
 32.7663
 32.7217
 32.7576
 32.7883
 32.7498
 32.6611
 32.6896
 32.692
 32.7353
 29.3802
 29.5592
 29.4573
 29.1729
 32.0655
 32.8276
 32.8768
 32.8742
 32.8381
 27.4232
 27.6135
 27.6333
 27.6344
 27.7058
 28.11
 27.8493
 28.118
 28.4535
 28.7642
 28.5773
 28.3737
 32.6882
 32.7683
 32.6495
 32.6112
 30.2193
 29.9711
 30.1686
 30.1793
 31.3158
 31.425
 31.3847
 31.4414
 25.3598
 25.6068
 25.8928
 25.8548
 30.4465
 30.5104
 30.4778
 26.9908
 26.6261
 26.2693
 26.4284
 28.9695
 28.6757
 29.2615
 27.8697
 27.8758
 32.656
 32.6273
 32.6712
 32.7724
 32.2603
 32.314
 32.3319
 32.0707
 32.0974
 32.0351
 32.1434
 28.6466
 28.3338
 31.594
 31.5117
 31.6102
 32.4497
 32.4503
 32.3932
 32.41
 28.9063
 28.6393
 29.0468
 31.8579
 31.7952
 31.9674
 31.7506
 31.266
 31.2557
 31.4274
 31.0992
 29.1731
 28.6445
 28.8578
 29.2726
 26.352
 27.2575
 26.8963
 26.7037
 23.9035
 23.9585
 23.5877
 23.6061
 32.6775
 32.7075
 32.7317
 32.6664
 31.5425
 31.5438
 31.4462
 31.117
 31.8156
 31.9787
 31.8165
 24.8225
 23.5712
 24.1089
 23.0462
 26.0603
 26.5505
 26.2758
 26.6149
 32.0258
 31.7956
 31.9313
 31.9264
 32.5239
 32.5961
 32.6101
 32.3391
 32.2717
 32.2188
 29.849
 29.8889
 29.3768
 31.7397
 31.9084
 31.9006
 31.7707
 32.0765
 32.0872
 32.0825
 32.2065
 30.4127
 30.5459
 30.8114
 30.6198
 31.719
 31.5339
 31.6906
 31.4123
 32.5605
 32.5439
 32.5199
 32.4454
 32.537
 32.462
 32.3922
 32.4729
 25.1364
 25.6244
 25.5832
 25.5014
 32.2216
 32.3837
 32.2918
 32.3107
 31.5945
 32.3065
 32.3462
 32.354
 32.3692
 32.1282
 32.0856
 32.0916
 32.0075
 27.6528
 27.663
 27.6821
 27.7038
 31.8026
 31.7098
 31.8263
 31.8708
 32.433
 32.3598
 31.6046
 31.4614
 31.6162
 31.6766
 32.6316
 32.6974
 32.6928
 32.7304
 32.609
 32.6138
 32.5887
 31.3335
 31.3671
 31.3787
 32.575
 32.5425
 32.6363
 32.6805
 32.3515
 32.3825
 32.3234
 32.3597
 29.2618
 28.7233
 28.7449
 32.4675
 32.7252
 32.6988
 32.6057
 24.7366
 25.419
 25.9384
 25.2251
 24.8243
 31.6751
 31.8584
 31.6502
 31.8726
 32.7602
 32.6499
 32.6735
 32.7414
 31.9373
 31.8946
 32.1677
 32.0384
 32.0703
 30.0528
 29.6651
 30.2945
 30.2131
 31.7781
 31.7525
 31.7625
 31.7
 28.1199
 28.3619
 28.2295
 30.1634
 29.9767
 30.2615
 30.0073
 31.6552
 31.8191
 31.6654
 31.3713
 32.7473
 32.5932
 32.6221
 32.5651
 29.7085
 30.1856
 29.9445
 29.9156
 32.4942
 32.8406
 32.8396
 32.7976
 32.8043
 32.0551
 32.0086
 32.1055
 31.8697
 31.9004
 31.9312
 31.9825
 32.6521
 32.6866
 32.6581
 32.6714
 31.3566
 31.3453
 31.318
 31.4522
 31.1859
 32.5537
 32.5394
 32.5753
 32.558
 32.7617
 32.6256
 32.7435
 32.66
 23.916
 24.1602
 24.3241
 23.7035
 32.077
 32.0795
 32.1287
 31.9917
 31.7963
 31.8293
 31.8662
 31.9509
 32.2846
 32.2804
 32.4136
 32.2575
 32.3765
 32.427
 32.1233
 31.9405
 31.8941
 32.1067
 32.0326
 31.8748
 31.9526
 32.3402
 32.222
 32.4788
 32.535
 32.5181
 32.5154
 32.4493
 32.458
 32.7551
 32.7509
 32.7926
 32.7903
 32.2947
 32.2196
 32.2139
 31.3137
 32.074
 32.5621
 32.5231
 32.497
 32.5877
 29.2184
 29.3146
 28.8218
 30.1525
 30.4055
 30.6152
 32.4565
 32.5351
 32.4442
 32.2195
 32.2455
 32.204
 32.2613
 32.3518
 32.3042
 32.4661
 32.4055
 27.095
 26.3403
 29.4279
 32.532
 32.6342
 32.5164
 32.4874
 32.444
 32.1785
 32.3586
 32.3414
 32.3198
 32.5175
 32.5071
 32.5031
 24.1135
 24.2698
 23.905
 24.0991
 32.1119
 32.038
 32.2499
 31.7936
 29.2313
 28.9447
 28.7416
 28.5626
 32.821
 32.8557
 32.8486
 32.8443
 31.2126
 30.9222
 31.1682
 30.8382
 24.9954
 25.0666
 24.9714
 31.2626
 31.1993
 31.0304
 31.1175
 32.6153
 32.5659
 32.5709
 32.5853
 32.6238
 32.7278
 32.7038
 32.6725
 29.6625
 29.4331
 29.7014
 31.5895
 31.4075
 31.5112
 31.4565
 30.0301
 29.6502
 30.1292
 29.7227
 28.0159
 28.533
 28.5202
 27.8493
 32.0639
 31.9708
 32.0005
 31.9585
 28.3395
 28.7106
 28.5524
 28.7247
 29.5373
 29.2292
 29.6685
 29.6517
 32.814
 32.7557
 32.8095
 32.7942
 31.4605
 31.4317
 31.6034
 31.4858
 31.145
 31.0696
 31.0739
 31.0936
 32.1523
 32.1203
 32.3121
 28.0183
 27.562
 27.7922
 28.328
 28.1418
 27.9025
 28.0387
 27.8789
 29.4015
 28.6548
 32.8308
 32.7972
 32.7681
 32.7848
 31.3637
 31.4887
 31.4373
 31.4422
 31.7329
 31.5315
 31.627
 31.5014
 29.1141
 28.7147
 28.711
 32.7184
 32.7181
 32.7424
 32.7107
 32.1927
 32.3173
 32.1447
 32.4094
 30.0138
 30.0179
 30.0163
 30.3244
 27.8577
 28.5938
 28.1605
 32.4392
 32.3659
 32.3274
 32.3895
 32.6199
 32.5311
 32.655
 31.8633
 31.7783
 31.8601
 32.0503
 32.087
 32.1317
 32.1862
 30.2674
 30.6024
 30.7398
 30.5268
 32.6543
 32.5873
 32.6933
 29.1888
 29.1177
 28.6968
 32.5797
 32.5749
 32.6196
 32.4375
 32.5586
 32.5517
 32.5869
 32.6339
 31.3012
 31.4197
 31.2553
 31.4672
 31.4503
 31.4141
 32.491
 32.3497
 30.864
 27.0491
 27.167
 26.673
 32.0782
 32.1034
 32.241
 31.5622
 31.7277
 31.6595
 31.6026
 30.4184
 32.4418
 32.5158
 32.9434
 33.0265
 32.9569
 32.934
 32.4076
 32.5093
 32.5529
 32.0192
 32.1117
 31.9193
 31.9784
 31.4159
 31.7307
 32.2036
 32.059
 31.9335
 32.1542
 32.2655
 32.3424
 32.3514
 32.2709
 32.2732
 32.2026
 32.0692
 32.1096
 29.0573
 29.469
 32.3762
 32.4845
 32.4227
 32.3658
 32.6297
 32.6278
 32.6501
 32.6585
 32.5306
 32.5064
 32.5672
 32.562
 32.2312
 32.129
 32.0599
 32.2324
 31.8556
 31.9671
 31.8699
 31.8039
 32.4329
 32.5441
 32.456
 32.4762
 29.8603
 30.2077
 30.2924
 30.4554
 29.6345
 30.0552
 29.7575
 32.5171
 32.4339
 32.3334
 32.3341
 29.8177
 30.1045
 30.0336
 30.3064
 32.2485
 32.3126
 32.2241
 32.257
 32.59
 32.6633
 32.648
 32.6606
 31.4814
 31.5946
 31.437
 31.4837
 32.6718
 32.6623
 32.7015
 32.7304
 30.2847
 30.4866
 30.6365
 30.756
 32.7306
 32.747
 32.6963
 28.5945
 28.9287
 28.4954
 28.7125
 32.7447
 32.7248
 32.7576
 32.7448
 31.2867
 31.3665
 32.6666
 32.6668
 32.6734
 32.7319
 32.6072
 32.6061
 32.6341
 32.0181
 32.258
 32.039
 32.6038
 32.6422
 32.6055
 32.5037
 24.8528
 25.0261
 25.3545
 25.2152
 30.3795
 30.473
 30.7583
 30.8154
 32.6383
 32.6199
 32.6366
 32.6409
 32.0845
 32.1058
 32.1576
 32.1318
 32.4231
 32.3479
 32.3291
 32.4392
 31.8216
 31.7712
 31.7847
 32.2062
 32.2092
 30.8955
 31.0239
 30.8218
 31.0929
 29.4967
 29.6221
 29.0089
 29.4071
 30.5471
 30.5239
 31.5594
 31.8293
 31.6528
 31.6717
 31.872
 31.9301
 32.0851
 31.9256
 29.4341
 29.4583
 29.0814
 32.3666
 32.3463
 32.3218
 32.3574
 31.1438
 31.1793
 31.2848
 31.3101
 31.2374
 31.2528
 31.4897
 32.1431
 32.2245
 32.1591
 32.1401
 32.6291
 32.5405
 32.5216
 32.3336
 32.3029
 32.3107
 32.8169
 32.7568
 32.9184
 32.4111
 32.5404
 32.6695
 32.6497
 32.6565
 30.3141
 30.5109
 30.623
 30.1763
 32.1378
 32.0668
 32.1496
 32.1901
 32.7818
 32.7958
 32.8574
 23.5514
 23.0522
 23.0119
 23.4681
 28.8628
 28.6987
 32.5944
 31.6471
 31.9603
 31.7344
 31.6051
 32.7647
 32.843
 32.8481
 32.8704
 32.7931
 32.8487
 32.8666
 32.2773
 32.209
 32.2397
 32.1926
 32.191
 32.1024
 28.1424
 27.7442
 27.7271
 28.2662
 32.5133
 32.4327
 32.481
 32.5156
 32.4655
 32.4637
 32.4499
 22.9995
 23.2293
 23.772
 23.9718
 28.6862
 28.63
 28.0912
 30.9705
 31.2918
 30.8436
 31.1362
 32.6864
 32.6898
 32.6803
 32.6985
 32.4168
 32.456
 27.3709
 27.5683
 27.4867
 27.5456
 32.5294
 32.4825
 31.056
 30.6829
 30.7084
 30.8649
 31.6008
 31.6855
 31.4771
 31.5922
 32.6367
 32.7575
 32.7005
 32.6917
 30.8298
 30.6958
 30.3605
 32.5756
 32.6685
 32.6182
 32.6209
 32.468
 32.4104
 32.3127
 32.4985
 32.371
 32.3793
 32.4227
 32.2807
 27.8499
 27.3779
 27.7276
 27.4442
 32.2722
 32.2202
 22.6118
 22.6101
 22.537
 22.497
 31.876
 31.7803
 31.6202
 31.6023
 26.7927
 18.915
 16.3337
 -75.1012
 32.1613
 32.1686
 32.121
 32.1324
 31.0342
 31.293
 31.1649
 32.3206
 32.3002
 32.218
 32.3735
 32.4006
 32.4226
 32.3517
 32.377
 32.2641
 32.2555
 32.3094
 32.3337
 30.4863
 30.7352
 30.2178
 30.7804
 29.0037
 28.9406
 28.6052
 28.7677
 32.6884
 32.6874
 32.6847
 32.6842
 32.0789
 31.7782
 32.1482
 31.9657
 31.2602
 32.0696
 31.973
 32.65
 32.6529
 31.8327
 31.6355
 31.7148
 32.0919
 31.9518
 32.04
 32.0558
 32.0893
 32.0444
 32.681
 32.6312
 24.2446
 24.5526
 24.2493
 24.5955
 30.3052
 30.1638
 29.9153
 30.1539
 32.5505
 32.5349
 32.5808
 32.4799
 25.0787
 24.5214
 24.9396
 25.077
 31.3301
 31.4254
 31.2864
 31.3979
 32.1682
 32.3259
 31.9928
 32.0387
 32.1106
 31.9804
 32.4901
 32.4409
 31.5201
 31.5663
 31.4266
 24.4768
 23.3624
 25.3058
 24.8597
 25.6861
 26.0126
 26.0633
 25.6151
 32.1349
 32.0356
 32.1338
 32.1939
 32.5643
 32.4253
 32.4517
 32.6929
 32.6334
 32.6004
 32.6124
 30.7569
 31.0667
 30.7354
 30.6236
 32.0404
 31.985
 32.0812
 32.0074
 32.622
 32.6775
 30.6902
 30.7516
 32.6876
 32.6898
 32.7611
 32.7654
 29.6508
 29.0185
 29.7195
 29.0444
 28.5129
 28.1008
 28.116
 23.6845
 22.7417
 22.713
 23.2646
 31.023
 31.1597
 31.1784
 31.3713
 32.4058
 32.3536
 32.4857
 32.3888
 32.4883
 32.3848
 30.2489
 30.2757
 30.6601
 29.9689
 32.5951
 32.6381
 32.5783
 32.8207
 32.8854
 32.7864
 32.8376
 32.4395
 32.3116
 32.4146
 32.3204
 30.5859
 30.8752
 30.7901
 30.6634
 31.9217
 32.0649
 31.8667
 22.9959
 23.2064
 23.3686
 23.5122
 32.5474
 32.5799
 32.5297
 25.4801
 25.1502
 25.3336
 25.084
 32.5347
 32.5323
 32.4771
 32.442
 28.2007
 28.1994
 27.6235
 28.3696
 29.3078
 29.2075
 29.6292
 29.7214
 32.6655
 32.6399
 32.6336
 31.2893
 31.4259
 31.2084
 31.0418
 32.7789
 32.7563
 32.7736
 32.7413
 32.4367
 32.5448
 32.1241
 32.1062
 32.13
 32.8268
 32.7907
 32.753
 23.033
 23.088
 23.3881
 23.1162
 29.1517
 29.4861
 28.8757
 29.627
 32.1064
 32.2257
 32.2727
 32.2912
 32.6262
 32.6839
 30.2472
 30.9607
 30.3855
 32.6565
 32.7118
 32.7367
 32.8256
 32.8035
 32.8349
 32.8299
 30.3562
 30.1741
 30.3933
 30.48
 31.8808
 31.9366
 31.8278
 31.7281
 31.8353
 31.9827
 30.4274
 30.4458
 30.5697
 32.8237
 32.812
 32.323
 32.2152
 32.3695
 32.3545
 27.8235
 27.5906
 32.712
 32.7647
 31.4763
 31.0852
 31.1311
 31.4307
 32.4507
 32.3622
 32.4488
 32.4516
 32.4097
 32.3852
 32.4385
 27.1772
 27.2269
 27.027
 27.8533
 25.6072
 25.5692
 25.9419
 25.7627
 32.6387
 32.6098
 32.6478
 32.6271
 32.0903
 32.0767
 32.1254
 32.1302
 32.5929
 32.6148
 32.6469
 32.3349
 32.3104
 32.2446
 32.3359
 32.3111
 32.3681
 32.3463
 30.9298
 31.1942
 30.9901
 30.8649
 29.5773
 32.0784
 32.109
 32.1796
 32.1186
 32.523
 32.3565
 32.435
 32.5219
 22.4098
 22.4075
 32.0611
 31.8821
 32.0625
 22.7735
 22.8397
 22.8396
 23.1204
 32.771
 32.7457
 32.7709
 32.7784
 27.9101
 28.4788
 28.6712
 30.3363
 30.5362
 31.8467
 31.8335
 31.8597
 32.0551
 32.0479
 32.0817
 28.9035
 29.6027
 30.5868
 30.622
 22.5058
 22.4788
 22.4412
 22.4816
 32.0312
 32.2093
 32.0428
 29.3208
 29.3786
 29.6728
 29.0923
 30.343
 30.2634
 30.5636
 30.2837
 32.7381
 32.6856
 32.713
 32.7403
 32.8824
 32.7742
 32.8605
 32.6727
 32.7044
 32.7096
 32.6861
 32.5638
 32.6457
 32.4901
 32.6657
 27.955
 28.0106
 29.1245
 29.1519
 29.2823
 32.739
 32.7428
 32.6923
 32.7151
 29.7046
 29.6448
 30.155
 30.0346
 32.7076
 32.7797
 32.7727
 32.7603
 28.001
 28.4402
 32.2844
 32.3284
 32.2724
 32.3489
 32.5813
 32.6488
 32.6192
 32.5718
 30.7629
 30.7839
 30.6872
 30.927
 32.4587
 32.3382
 31.9362
 31.9863
 32.0373
 32.0667
 25.2234
 25.3276
 25.2635
 25.3387
 28.0134
 28.3124
 27.9251
 28.3827
 31.9114
 31.8442
 31.7394
 31.7817
 32.1724
 32.2216
 32.2607
 30.7338
 30.6391
 30.6258
 31.9344
 31.8439
 32.3273
 32.2858
 32.1628
 32.2619
 32.3079
 32.3988
 32.3277
 32.4042
 30.1737
 30.0147
 30.1798
 29.8782
 26.9984
 27.4023
 27.2862
 32.5287
 32.4436
 32.4354
 32.5853
 31.5448
 31.7102
 31.698
 31.6882
 29.5313
 29.6258
 29.8314
 29.1719
 27.8041
 27.1381
 28.0415
 32.5988
 32.6948
 32.6864
 32.4302
 32.4502
 32.3842
 32.4772
 32.7471
 32.7304
 32.7158
 32.7135
 31.6138
 31.6949
 31.5654
 31.7409
 30.1797
 30.2545
 30.4934
 29.99
 28.6884
 28.2578
 32.6912
 32.6448
 32.6809
 32.673
 32.5513
 32.472
 32.5231
 32.4898
 32.5488
 32.4735
 32.4792
 32.6361
 32.7631
 32.5897
 23.0679
 23.2951
 23.501
 23.3692
 32.2086
 32.0051
 32.0949
 32.0016
 31.9683
 31.8534
 31.8271
 32.0194
 31.9155
 32.0155
 28.1815
 28.5316
 27.9692
 28.1362
 29.3135
 28.891
 29.2127
 29.1274
 31.5668
 31.6325
 31.8099
 30.0201
 29.7863
 32.4588
 32.4768
 32.3964
 31.7308
 31.6547
 31.7961
 31.7236
 29.6487
 29.129
 29.2378
 29.5315
 32.0899
 32.1789
 32.223
 32.202
 32.3984
 32.4083
 32.4165
 32.4626
 29.7246
 29.8565
 29.5929
 30.1046
 30.6491
 30.8662
 30.9939
 31.221
 32.4581
 32.5253
 32.587
 32.5853
 30.5593
 30.8414
 32.3158
 32.3481
 32.2795
 32.9427
 32.8884
 26.5586
 26.385
 26.1358
 26.0964
 31.6116
 31.7081
 31.7621
 31.7182
 25.9729
 25.8376
 26.1164
 32.1336
 32.1223
 32.8098
 32.8282
 32.7445
 32.8148
 31.5211
 31.5143
 32.6208
 32.6307
 31.4802
 31.3232
 31.4613
 31.5354
 32.7923
 32.8847
 32.8462
 32.7579
 32.5449
 32.4747
 32.4232
 32.4676
 31.8627
 31.8291
 31.8974
 31.8924
 32.3908
 32.4586
 29.8608
 29.7782
 29.1638
 28.9431
 32.3277
 32.379
 28.679
 29.1158
 28.758
 23.6854
 23.7149
 24.4339
 24.2328
 23.2691
 23.5297
 23.3648
 32.8849
 32.9262
 32.9025
 32.9091
 31.4713
 31.6606
 31.5123
 29.6401
 30.7762
 30.9562
 30.6338
 30.9098
 29.5955
 29.9137
 29.244
 29.6421
 31.1555
 30.9661
 31.1954
 30.9873
 32.8938
 32.9719
 32.9871
 32.8988
 31.9834
 32.0273
 32.0442
 31.9261
 32.014
 31.9789
 32.1743
 32.0982
 32.4017
 32.4417
 32.3259
 32.3529
 30.7602
 32.6895
 32.7395
 32.7246
 32.7689
 26.6863
 26.4849
 26.6924
 26.6888
 32.6306
 32.6013
 32.6035
 31.0758
 32.1273
 32.0872
 32.1651
 32.0979
 31.9826
 31.9295
 31.9299
 32.1147
 32.2708
 32.1537
 32.1034
 32.4594
 32.4488
 32.4757
 32.3302
 32.1826
 32.1196
 32.0864
 32.0613
 29.3855
 29.0202
 28.9865
 28.7305
 32.6959
 32.6955
 32.7101
 32.7097
 31.8378
 31.9486
 31.9429
 31.8247
 24.7304
 25.1488
 24.8683
 32.7342
 32.1889
 32.1503
 32.0745
 32.2564
 32.0227
 31.9416
 31.939
 31.9155
 31.9184
 31.8109
 31.7413
 31.7896
 32.4632
 32.4685
 32.4523
 32.4538
 30.6361
 30.5275
 30.4261
 30.5021
 31.5935
 31.7498
 31.6994
 31.9255
 31.9258
 31.9546
 32.056
 31.8647
 31.8038
 31.8694
 31.8858
 29.4485
 29.2415
 29.1802
 32.6328
 32.5461
 32.1814
 32.2317
 32.2351
 29.6926
 29.3647
 29.9002
 29.9428
 32.6336
 32.6174
 32.7397
 32.7094
 31.6671
 32.907
 32.9
 32.9357
 32.9358
 32.765
 32.8109
 32.7882
 32.8033
 31.8324
 31.7917
 32.2728
 32.17
 32.2324
 32.1844
 32.3112
 32.1863
 32.2312
 32.1639
 32.4781
 32.5399
 32.4616
 32.5659
 32.4763
 32.4596
 32.4281
 32.4106
 25.4979
 25.9634
 32.1282
 32.0923
 32.0322
 27.488
 27.4403
 27.5731
 30.1814
 29.7339
 29.6362
 30.0162
 32.5846
 32.6147
 32.583
 32.509
 32.0047
 31.8461
 31.9318
 31.9431
 31.559
 31.6709
 31.5423
 31.4746
 32.6674
 32.6578
 32.695
 32.6931
 32.3694
 32.3084
 32.3527
 32.4788
 32.4776
 32.8565
 32.7985
 32.8362
 32.7651
 32.4675
 32.4905
 32.3521
 32.4389
 28.8749
 28.9904
 29.0424
 32.7465
 32.6832
 32.7273
 32.6808
 31.5532
 31.6122
 31.7558
 32.2612
 32.2769
 32.1791
 32.2924
 32.0099
 32.7983
 32.6842
 32.6784
 32.7057
 32.4693
 32.451
 32.4671
 32.4574
 32.7973
 32.8386
 32.8204
 28.1987
 31.1158
 27.412
 27.5461
 30.1526
 30.4194
 28.256
 27.8048
 32.1461
 31.9619
 32.1208
 32.1395
 -88.37
 -88.2349
 31.6693
 31.6218
 31.5865
 31.4963
 32.6806
 32.5196
 28.4439
 28.3902
 28.6535
 28.6619
 32.1581
 32.1712
 32.2777
 32.2441
 32.3178
 32.2096
 32.2598
 32.3615
 30.3545
 30.2251
 30.5113
 30.3991
 31.9934
 31.8047
 31.9701
 31.9323
 32.1657
 32.0707
 32.0931
 32.0148
 32.1644
 32.1973
 32.1257
 32.0865
 32.0482
 32.1545
 32.1268
 32.1711
 32.5881
 32.5865
 32.5578
 30.1618
 30.1226
 29.5173
 30.0432
 32.6943
 32.7056
 32.7427
 32.6956
 32.5362
 32.5085
 31.2897
 31.6084
 31.715
 32.6847
 32.6783
 32.6395
 32.6379
 31.9249
 31.9238
 31.7762
 31.7536
 32.1111
 32.039
 31.9995
 32.1176
 30.0964
 29.9297
 29.6148
 29.7226
 27.5319
 27.4184
 27.3759
 27.4403
 29.2724
 28.7425
 29.0491
 28.9123
 27.0667
 27.1162
 26.9427
 32.3961
 32.3737
 32.3749
 32.2509
 32.5748
 32.5266
 32.7069
 32.6232
 32.706
 32.6716
 32.4691
 32.3984
 32.5066
 30.3944
 30.1453
 30.2094
 30.048
 32.389
 32.4109
 32.4565
 32.4535
 31.6161
 31.6104
 31.5846
 31.4889
 32.3874
 32.3592
 32.3939
 32.4217
 32.4879
 32.4789
 32.4851
 32.4249
 32.1108
 32.0362
 32.1229
 32.1641
 28.4731
 27.6445
 28.1064
 28.3072
 32.6035
 32.7336
 28.095
 27.7813
 32.2903
 32.3255
 32.2364
 32.1801
 32.6118
 32.6401
 32.7366
 32.6312
 26.3529
 26.7449
 26.4357
 28.4052
 28.2866
 28.061
 28.1108
 31.2726
 31.0328
 32.5907
 32.5549
 32.5996
 32.5427
 32.7343
 32.7502
 32.7349
 31.9198
 31.7333
 31.946
 32.0024
 31.4597
 31.7083
 31.4116
 31.5772
 32.6371
 32.7679
 32.7552
 32.7093
 26.8011
 26.7791
 27.0857
 31.7757
 31.7429
 31.8447
 31.8423
 32.7349
 32.7289
 32.7109
 29.2759
 29.4546
 29.5921
 32.1041
 32.0825
 32.1807
 32.0261
 32.4724
 30.9262
 30.5365
 30.5362
 30.6735
 32.0356
 32.1536
 32.1549
 32.0842
 32.5796
 32.6074
 32.5995
 31.8961
 31.8965
 31.892
 31.8751
 32.1332
 32.2281
 32.1895
 32.0459
 32.066
 26.284
 26.6193
 32.1715
 32.127
 32.2961
 32.1942
 25.6966
 25.3912
 25.4131
 25.5125
 31.1711
 32.8233
 32.7789
 32.8043
 32.6526
 32.6035
 32.519
 32.6265
 31.1776
 31.1796
 31.0306
 30.8569
 30.5124
 30.4707
 32.7497
 32.7673
 32.7318
 30.53
 30.3074
 30.5726
 30.7893
 30.0466
 30.1071
 30.2741
 30.3624
 32.1822
 32.062
 31.3411
 31.516
 31.3568
 31.2808
 27.2948
 28.0709
 27.138
 27.77
 30.5116
 30.5023
 31.073
 30.5419
 27.2702
 27.0222
 27.411
 32.435
 32.504
 32.2886
 32.5939
 32.6745
 32.1476
 32.1331
 32.2032
 28.9245
 28.4917
 28.6447
 28.3381
 29.4983
 29.7773
 29.8641
 41.7138
 25.4487
 25.8699
 17.1972
 32.4972
 32.6033
 32.5147
 32.4672
 30.7607
 31.0215
 30.709
 31.1675
 32.7685
 32.7834
 32.8219
 32.7972
 32.359
 32.3816
 32.4801
 32.3827
 29.8656
 29.8317
 30.0156
 30.1455
 32.1221
 32.2164
 32.0974
 32.4904
 32.5217
 32.4652
 32.772
 32.8467
 32.6953
 32.6466
 31.9048
 31.7742
 31.7416
 31.7526
 32.8841
 32.8654
 32.8653
 27.0469
 28.1135
 27.3171
 27.4514
 32.3783
 32.3889
 32.4062
 32.2756
 29.3784
 28.9949
 28.9701
 29.2463
 28.8938
 28.1735
 29.0176
 28.8682
 31.4801
 31.3206
 31.5371
 28.9118
 28.601
 28.917
 31.3701
 32.4035
 32.376
 32.4632
 32.4522
 27.769
 32.5642
 30.8739
 30.8202
 30.6499
 30.7041
 26.9897
 26.6381
 26.3345
 26.6185
 32.6506
 32.1429
 31.7337
 31.7887
 31.7504
 31.7585
 26.4532
 25.0085
 25.601
 31.0916
 30.8704
 30.8546
 27.5485
 27.3256
 31.2344
 31.1573
 31.2905
 31.2203
 31.7787
 31.4275
 31.6539
 31.721
 32.4954
 32.4258
 32.4148
 32.7227
 32.7202
 32.8302
 32.8507
 32.7816
 32.8455
 31.9374
 32.0245
 32.0153
 31.9349
 32.1108
 32.0228
 32.1868
 32.1641
 32.2158
 32.1339
 32.2179
 32.136
 32.6265
 32.5927
 32.6495
 32.5755
 32.7079
 32.6401
 32.6186
 32.7203
 32.3518
 32.4227
 32.3753
 32.1922
 30.0159
 29.4542
 30.2144
 30.3472
 32.3026
 31.8743
 31.759
 31.7956
 31.7839
 32.6586
 32.6997
 32.7291
 32.7723
 32.7509
 32.6908
 28.6405
 28.5497
 28.2503
 28.7629
 31.1167
 30.9314
 31.1659
 32.4266
 32.4142
 32.3952
 32.2719
 31.4037
 31.5074
 31.5401
 31.4705
 30.3607
 30.3529
 30.0707
 30.0045
 32.7079
 32.7741
 32.7969
 32.7805
 32.1541
 32.2081
 32.0896
 28.2635
 28.6564
 28.463
 28.6506
 24.0048
 23.869
 23.3726
 24.0597
 31.236
 30.891
 30.7055
 32.4918
 32.4819
 32.3986
 32.4811
 32.3485
 32.4522
 32.4603
 32.4363
 30.7874
 30.7132
 30.7888
 30.7786
 32.4502
 32.2477
 32.3545
 32.3638
 32.8294
 32.7431
 32.645
 32.6734
 32.6487
 32.6324
 32.8217
 32.8461
 32.882
 23.6098
 23.7569
 23.3134
 23.6065
 31.1694
 31.0004
 31.0674
 31.1489
 31.1219
 31.3206
 31.2439
 29.6716
 29.874
 29.3508
 30.006
 32.445
 32.6134
 32.5882
 22.7315
 23.3798
 24.0765
 23.0526
 32.4008
 32.3514
 32.3427
 32.3842
 32.4026
 32.3969
 27.9499
 27.7238
 27.8341
 27.4955
 28.7164
 28.7113
 28.9018
 28.5334
 25.2429
 25.7587
 25.9535
 25.2329
 32.0321
 24.7011
 24.9058
 24.7625
 25.0991
 32.6761
 32.6934
 32.7502
 32.733
 29.0833
 29.3862
 32.4132
 32.4001
 32.386
 32.4466
 32.4789
 32.4373
 32.5078
 32.4261
 31.62
 31.5683
 31.5716
 31.4166
 24.288
 25.5106
 23.3063
 32.7044
 32.6862
 32.7004
 32.6903
 32.3235
 32.3245
 32.343
 32.3637
 23.6724
 23.924
 24.1181
 23.5983
 32.4312
 32.6206
 32.6241
 32.5604
 32.6242
 32.1255
 32.0797
 32.124
 31.9719
 31.934
 31.9368
 32.0409
 31.695
 31.5691
 31.5266
 31.5747
 32.6881
 32.6722
 32.6758
 32.6645
 32.7054
 30.2724
 29.807
 30.3335
 32.6113
 32.5185
 32.5527
 32.6193
 32.6346
 32.6476
 32.5889
 32.6045
 31.3052
 30.9327
 31.0246
 27.217
 24.4739
 24.8301
 24.0567
 32.7595
 32.8048
 32.7811
 32.5221
 32.5334
 32.5894
 30.1783
 30.5087
 30.174
 30.8168
 32.7353
 32.7955
 31.9998
 32.0811
 32.0778
 32.06
 31.9311
 31.9439
 31.9551
 32.3039
 32.2361
 32.8197
 32.7742
 32.7907
 32.4022
 32.5688
 32.4767
 29.3287
 23.1731
 23.2994
 22.8929
 22.9133
 32.4463
 32.4448
 32.4431
 32.4215
 22.4522
 22.4651
 22.6345
 22.4051
 32.6329
 32.5566
 32.5926
 32.7936
 32.6933
 32.7325
 32.7024
 30.5062
 30.9041
 30.25
 30.3615
 32.8001
 32.8303
 32.8107
 32.8538
 32.7549
 32.4237
 32.4895
 32.3277
 32.593
 31.3035
 31.4981
 31.4083
 29.1578
 29.1269
 29.1692
 32.9707
 32.828
 32.8812
 32.9001
 32.4772
 32.3684
 32.4603
 32.4339
 31.1501
 31.239
 31.1215
 31.2281
 32.6049
 32.6579
 31.0993
 31.2081
 31.2297
 32.6912
 27.7731
 28.1787
 28.6342
 28.4871
 30.3907
 30.63
 30.4485
 30.5415
 32.4574
 32.4659
 32.4478
 32.2779
 32.2115
 27.3256
 27.4727
 27.0516
 27.5755
 32.5787
 32.6178
 27.8362
 27.5847
 32.7686
 32.7416
 32.7353
 26.3583
 26.0666
 26.6213
 30.7295
 30.7637
 30.6172
 30.738
 32.359
 32.3301
 32.3023
 32.3822
 31.5304
 31.5251
 31.5815
 32.1632
 32.0529
 32.1756
 32.0421
 31.876
 32.0493
 32.029
 32.0281
 23.9874
 23.9137
 23.6764
 32.4385
 32.3353
 32.3978
 32.5656
 32.522
 32.6861
 32.6829
 32.7289
 32.7179
 23.1272
 23.4438
 23.3344
 23.2911
 29.9908
 30.0427
 30.1469
 30.3819
 32.6602
 32.6436
 32.5971
 32.6042
 32.4526
 32.5326
 32.4754
 32.5496
 31.9742
 31.7414
 31.9406
 31.8845
 31.378
 31.2167
 31.246
 31.4243
 29.396
 29.7377
 29.3039
 23.0542
 23.04
 23.1915
 32.6782
 32.5927
 32.4845
 32.4568
 32.4777
 32.5105
 32.2381
 32.2862
 32.1656
 32.146
 31.4027
 32.7357
 32.0946
 32.2377
 32.2424
 32.3393
 25.7159
 25.5245
 15.8326
 26.7006
 32.5322
 32.5793
 29.9885
 30.2166
 30.4693
 31.1181
 30.9976
 31.2964
