 -4.83977
 -5.2667
 -5.18222
 -5.44383
 -14.4025
 -14.5391
 -14.8333
 -15.0086
 -11.5915
 -11.2217
 -11.6701
 -11.2701
 -12.0407
 -11.6497
 -11.5746
 -11.3732
 -19.5749
 -19.9659
 -19.2845
 -19.1038
 -18.8748
 -18.4498
 -19.1979
 -18.6062
 -3.30716
 -3.04207
 -3.1266
 -3.29406
 -3.49042
 -3.58908
 -3.5917
 -3.42191
 -18.9074
 -18.7136
 -18.2139
 -18.6779
 -18.644
 -18.7205
 -18.5551
 -19.2858
 -2.34896
 -2.19255
 -2.43522
 -2.48215
 -11.4862
 -11.5468
 -11.1681
 -11.4081
 -6.33223
 -6.30004
 -6.04547
 -6.57282
 -15.094
 -14.4276
 -14.1879
 -14.6387
 -9.821
 -9.69868
 -9.937
 -10.2186
 -4.20169
 -3.98385
 -4.36083
 -4.00302
 -17.3758
 -17.6808
 -17.3294
 -17.8338
 -12.5824
 -12.3135
 -12.6944
 -12.4087
 -10.0325
 -10.1624
 -10.2202
 -10.4676
 -16.7561
 -16.7663
 -17.005
 -17.3209
 -3.52278
 -3.18649
 -3.54135
 -3.30383
 -20.6959
 -20.813
 -21.2314
 -21.1965
 0.309841
 0.45815
 0.486915
 0.264417
 -13.8724
 -14.0147
 -13.5375
 -13.4996
 -9.38313
 -9.12461
 -9.40218
 -9.56241
 -10.5921
 -10.6985
 -10.4881
 -10.3722
 -7.81706
 -8.20819
 -8.38928
 -7.8501
 -4.0768
 -3.8496
 -4.10944
 -4.07414
 -6.15897
 -6.07256
 -5.79094
 -5.97455
 -14.583
 -14.5402
 -14.2769
 -13.9941
 -9.55907
 -10.1239
 -9.43212
 -9.64621
 -6.36876
 -6.63167
 -6.62365
 -6.37473
 -12.9832
 -12.5267
 -13.0778
 -12.6283
 -14.46
 -14.2484
 -14.2201
 -14.3064
 -6.40299
 -6.0999
 -6.45443
 -5.93041
 -4.57739
 -4.53808
 -4.51183
 -4.53309
 -12.6978
 -12.0901
 -12.6303
 -12.4572
 -2.60353
 -2.73902
 -2.77589
 -2.84836
 -13.3896
 -13.4139
 -14.164
 -13.954
 -21.7333
 -21.3198
 -21.5642
 -21.2122
 -11.0822
 -10.9962
 -11.1857
 -10.6342
 -14.1834
 -14.5711
 -14.3876
 -14.2586
 -3.01211
 -2.99476
 -3.20855
 -2.82281
 -12.6001
 -12.294
 -12.4257
 -12.8552
 -18.7248
 -18.5916
 -19.0615
 -18.826
 -5.52568
 -5.77665
 -5.66657
 -5.55483
 -12.7284
 -13.3327
 -13.1763
 -13.2112
 -4.47769
 -4.72912
 -4.49275
 -4.2111
 -6.60049
 -6.38485
 -6.2779
 -6.16622
 -10.0654
 -9.75929
 -9.69184
 -9.41998
 -4.02859
 -3.93522
 -3.84566
 -4.02257
 -10.4786
 -10.14
 -10.1624
 -10.4155
 -7.09459
 -6.708
 -7.09655
 -6.55975
 -11.187
 -11.4113
 -11.119
 -11.4072
 -6.01385
 -6.28165
 -6.11023
 -6.50075
 -11.3154
 -11.2453
 -11.6063
 -11.0142
 -13.5969
 -13.6647
 -13.9133
 -14.1531
 -14.1737
 -13.942
 -14.1826
 -13.5321
 -5.69787
 -5.67552
 -5.28623
 -5.85188
 -7.72594
 -7.5418
 -7.59992
 -8.01169
 -0.155255
 0.000364026
 0.126036
 -0.0461621
 -6.08746
 -6.02248
 -5.73007
 -6.02982
 -9.54694
 -10.0352
 -9.81243
 -9.92248
 -7.20153
 -7.16772
 -7.65941
 -6.92719
 -6.99065
 -7.36375
 -6.93469
 -7.291
 -3.84953
 -3.68258
 -3.89886
 -3.9147
 -17.1737
 -17.7298
 -17.8866
 -17.117
 -19.5312
 -19.7477
 -19.9074
 -20.0198
 -10.4192
 -10.8785
 -10.0714
 -10.3288
 -6.21247
 -6.12344
 -6.36835
 -5.98219
 -13.3815
 -13.6168
 -13.8408
 -13.3561
 -3.62104
 -3.07922
 -3.2825
 -3.28448
 -3.48187
 -3.26401
 -3.16964
 -3.54075
 0.246904
 0.402466
 0.18083
 0.229951
 -11.3226
 -11.7531
 -11.5127
 -11.9124
 -5.52672
 -5.87529
 -5.95094
 -5.56249
 -4.82695
 -4.59768
 -4.90694
 -5.03909
 -20.2995
 -20.7327
 -20.5462
 -20.7923
 -4.33838
 -4.23959
 -4.01407
 -4.30719
 -4.86525
 -4.71355
 -4.52282
 -4.83889
 -5.3758
 -5.61589
 -5.35471
 -5.10647
 -8.38996
 -8.29508
 -8.61976
 -8.55198
 -5.01751
 -5.35464
 -5.11912
 -5.21953
 -6.53451
 -6.7347
 -6.83005
 -6.63218
 -7.72115
 -7.62792
 -7.49732
 -7.36071
 -4.36597
 -4.03475
 -4.46554
 -4.11242
 0.851959
 0.909971
 0.612091
 0.602423
 -3.76922
 -3.88171
 -4.0527
 -3.89959
 -11.5473
 -11.3196
 -11.7344
 -11.0669
 -11.6545
 -11.5305
 -11.8878
 -11.5549
 -13.918
 -13.77
 -13.5917
 -14.1781
 -3.29567
 -3.268
 -3.3409
 -3.45138
 -20.9912
 -20.986
 -20.6902
 -21.326
 -13.7212
 -14.1214
 -13.7013
 -13.7798
 -2.7363
 -2.73427
 -2.48282
 -2.47478
 -6.72271
 -6.72082
 -6.5714
 -7.16614
 -4.71984
 -4.92744
 -4.47657
 -4.64667
 -4.81786
 -4.66252
 -4.65564
 -3.37484
 -3.34413
 -3.31834
 -3.22333
 -12.5036
 -12.235
 -11.9734
 -12.6728
 -7.88242
 -8.37717
 -8.17794
 -7.9185
 -11.9316
 -12.3544
 -12.0648
 -6.18656
 -5.76544
 -6.02775
 -5.89191
 -8.86746
 -9.11506
 -9.01587
 -8.62781
 -16.2732
 -15.7168
 -15.7375
 -16.5837
 -3.71442
 -3.77241
 -4.15448
 -4.01009
 -4.53339
 -4.32615
 -4.19492
 -4.35788
 -11.4199
 -10.9724
 -10.8586
 -11.0172
 -13.4112
 -13.1376
 -13.8929
 -13.8133
 -3.09282
 -3.10836
 -2.99204
 -2.79821
 -4.35653
 -4.42928
 -4.87716
 -4.74671
 -7.46922
 -7.87206
 -8.10253
 -7.53571
 -18.9772
 -19.3314
 -19.1043
 -19.1849
 -11.4066
 -11.8698
 -12.0083
 -11.8048
 -9.1008
 -8.52557
 -9.0475
 -9.08307
 -0.252063
 0.0189025
 -0.270937
 -0.251466
 -8.27928
 -7.95914
 -8.39209
 -8.63859
 -16.2136
 -15.7441
 -16.2318
 -15.5302
 -5.26936
 -4.81966
 -5.48039
 -5.32109
 -4.51904
 -4.58141
 -4.27669
 -4.44785
 -4.30389
 -4.02189
 -4.1106
 -4.18698
 -2.01141
 -1.98897
 -1.99272
 -2.09953
 -4.99534
 -4.55832
 -4.58989
 -4.58264
 -11.6263
 -11.5515
 -11.6129
 -11.3116
 -3.15059
 -3.23094
 -3.3168
 -3.42118
 -18.24
 -17.8287
 -18.0774
 -18.2473
 -3.50552
 -3.1571
 -3.20431
 -3.4693
 -16.0925
 -15.3706
 -16.1123
 -15.6642
 -7.99616
 -7.6827
 -7.69614
 -7.93542
 -6.86855
 -7.16561
 -7.2952
 -6.9579
 -5.72862
 -5.74423
 -6.1546
 -5.83456
 -5.14023
 -5.13467
 -4.90339
 -4.80734
 -20.6287
 -20.9586
 -21.0844
 -21.037
 -5.40137
 -5.23632
 -5.39479
 -5.26977
 -21.6146
 -21.2828
 -21.5189
 -21.0445
 -13.4863
 -13.395
 -13.9426
 -13.5385
 -1.03448
 -1.32524
 -1.263
 -1.01957
 -19.3892
 -19.2581
 -19.6803
 -19.8601
 -4.2353
 -4.56704
 -4.29197
 -4.04329
 -0.963908
 -0.815684
 -0.74202
 -0.93835
 -15.194
 -15.0635
 -14.8354
 -15.0847
 -19.7909
 -20.2991
 -19.937
 -19.7634
 -10.0388
 -10.1624
 -9.93981
 -9.86541
 -14.4979
 -13.9714
 -14.6494
 -14.1156
 -4.73201
 -4.38085
 -4.56377
 -4.51529
 -10.8978
 -10.7446
 -10.9079
 -11.3025
 -6.69191
 -6.52384
 -6.79612
 -6.82575
 -3.5662
 -3.69453
 -3.51239
 -3.50784
 -2.52369
 -2.46809
 -2.46117
 -2.68808
 -7.9937
 -7.84591
 -8.20687
 -7.72746
 -9.13391
 -9.15971
 -9.01219
 -8.77198
 -4.65602
 -4.60172
 -4.81218
 -4.91536
 -4.55574
 -4.17551
 -4.54921
 -4.48105
 -12.103
 -12.1444
 -11.7884
 -11.8466
 -18.9649
 -18.8023
 -19.344
 -19.4362
 -18.1907
 -17.8224
 -18.2576
 -18.333
 -17.9393
 -17.3397
 -17.4593
 -17.7626
 -12.7492
 -12.4925
 -12.8605
 -12.4279
 -4.52926
 -4.14009
 -4.43848
 -4.32299
 -4.6717
 -4.88069
 -4.962
 -5.02111
 -8.90703
 -8.77664
 -8.27134
 -8.25243
 -13.5883
 -13.3249
 -14.0683
 -13.7776
 -13.3885
 -13.1107
 -13.2533
 -13.5885
 -10.1716
 -9.81141
 -10.0657
 -10.1363
 -11.3595
 -11.7175
 -11.2278
 -11.3312
 -2.78253
 -2.74578
 -2.88702
 -3.13644
 1.76704
 1.90472
 1.74663
 2.01685
 -5.37786
 -5.34238
 -4.99181
 -5.19395
 1.02458
 0.751583
 0.822792
 -5.26955
 -5.20006
 -5.37935
 -5.00826
 -16.7772
 -16.4576
 -16.6562
 -16.335
 -9.758
 -9.97852
 -10.0622
 -10.3641
 -18.743
 -18.5438
 -19.132
 -18.5048
 -4.4789
 -4.53006
 -4.21343
 -4.49531
 -12.9407
 -12.8026
 -13.4536
 -13.2958
 -10.2804
 -10.2838
 -9.81413
 -10.0034
 -20.1702
 -20.4177
 -20.5954
 -19.8968
 -15.5237
 -15.4421
 -15.6431
 -16.1186
 -5.40123
 -5.72994
 -5.50773
 -5.38749
 -12.9182
 -12.8577
 -12.4485
 -12.9128
 -16.2675
 -15.4867
 -15.9529
 -15.5816
 -0.98743
 -0.669945
 -0.794259
 -0.688896
 -9.5982
 -9.77251
 -9.98364
 -10.0361
 -16.0695
 -16.2286
 -16.4592
 -16.088
 -11.8577
 -12.245
 -11.555
 -12.457
 -15.6998
 -15.1913
 -15.7822
 -15.7143
 -4.76129
 -5.03667
 -5.20029
 -5.2056
 -15.5145
 -16.4848
 -15.4957
 -16.3033
 -7.76465
 -7.96976
 -7.3576
 -7.71942
 -8.54518
 -8.7275
 -8.97663
 -8.46828
 -15.3778
 -15.2972
 -14.8954
 -15.6157
 -21.6822
 -21.3578
 -21.3506
 -21.5918
 -2.77306
 -2.93444
 -3.07444
 -3.16033
 -6.36188
 -6.65025
 -6.83006
 -6.44154
 -10.9798
 -10.7352
 -10.5235
 -10.6439
 -15.4706
 -15.7819
 -15.722
 -15.781
 -5.55057
 -5.32054
 -5.41696
 -5.43333
 -3.27396
 -3.61119
 -3.76304
 -3.34648
 -13.3078
 -13.3331
 -12.7734
 -12.8005
 -11.9173
 -12.3041
 -11.9137
 -12.0733
 -19.5953
 -19.9399
 -20.2857
 -19.5957
 -3.98787
 -4.35677
 -3.90802
 -4.1805
 -19.8325
 -20.1897
 -20.107
 -19.8886
 -6.2618
 -6.65752
 -6.43339
 -6.30977
 1.5928
 1.62836
 1.53172
 1.47048
 -17.5879
 -17.9664
 -18.112
 -17.9448
 -12.5581
 -12.8235
 -12.3366
 -11.8766
 -17.8802
 -17.9048
 -17.5949
 -17.5075
 -8.85449
 -8.44092
 -8.76882
 -8.92497
 -8.07665
 -8.30546
 -8.3869
 -8.13963
 -14.6735
 -14.1006
 -14.208
 -14.3272
 -4.48701
 -4.63257
 -4.34632
 -4.55225
 -3.9928
 -4.17306
 -4.1882
 -4.07343
 0.0981327
 0.231761
 0.230877
 0.285556
 -10.3535
 -10.6596
 -10.8159
 -11.0267
 -9.20383
 -9
 -9.62597
 -9.21263
 -11.8327
 -11.1803
 -11.5699
 -11.9523
 -6.49303
 -6.97291
 -7.01461
 -6.41072
 -19.0939
 -19.0197
 -19.368
 -18.6326
 -19.7345
 -20.5053
 -19.7752
 -19.6207
 -12.1557
 -12.3738
 -12.7714
 -12.7867
 3.06264
 3.09283
 3.02525
 2.91523
 -7.66105
 -7.44496
 -7.73752
 -7.26876
 -7.89253
 -7.78585
 -7.40334
 -7.7882
 -7.66494
 -7.7321
 -7.30979
 -7.32184
 -15.0707
 -14.8576
 -15.4675
 -14.7691
 -0.55657
 -0.829536
 -0.391405
 -0.546498
 0.406259
 0.409466
 0.618284
 0.685324
 -15.1717
 -14.7985
 -15.2001
 -14.6715
 -5.92421
 -6.33769
 -5.77178
 -6.29391
 -7.13121
 -7.07895
 -7.21932
 -7.23476
 -12.261
 -12.0174
 -11.9057
 -11.451
 -4.16436
 -4.32907
 -4.44862
 -4.28389
 -15.6688
 -15.1553
 -15.2534
 -15.6205
 -6.58015
 -5.99021
 -6.28285
 -5.84132
 -6.05525
 -5.98249
 -5.71064
 -5.97856
 -3.28939
 -3.11903
 -3.4333
 -3.07176
 -7.43545
 -7.9186
 -7.59917
 -7.95099
 -16.6647
 -16.951
 -16.9274
 -16.541
 -12.8703
 -13.4047
 -13.5722
 -13.0752
 -4.18808
 -4.13838
 -4.41989
 -4.42256
 -5.50546
 -5.911
 -5.91579
 -5.51741
 -18.2329
 -18.4139
 -18.7287
 -18.5891
 -15.4184
 -15.0633
 -15.2873
 -15.1057
 -7.97231
 -7.8286
 -7.59393
 -7.83142
 -3.1984
 -3.26037
 -3.23828
 -3.35335
 -1.57233
 -2.01153
 -1.92833
 -1.64613
 -12.249
 -11.8363
 -11.6218
 -12.0653
 -3.55775
 -3.27705
 -3.53679
 -2.95913
 -17.1761
 -16.5871
 -16.5775
 -17.1191
 -11.0512
 -11.6404
 -11.2903
 -10.918
 -16.3676
 -16.2454
 -16.0623
 -16.1842
 -13.2675
 -12.7412
 -12.7546
 -13.0706
 -7.84964
 -7.64757
 -7.85251
 -8.10772
 -4.75167
 -4.24083
 -4.36405
 -4.57255
 -2.04174
 -2.47192
 -2.08919
 -2.13343
 -3.04813
 -2.66806
 -3.08042
 -2.95638
 -4.61749
 -4.26528
 -4.19745
 -4.35117
 -8.55419
 -8.68567
 -8.62843
 -8.04587
 -8.56962
 -8.66319
 -8.73657
 -8.32402
 -9.02514
 -8.67196
 -9.34317
 -8.96401
 -12.2679
 -11.9889
 -12.4119
 -12.3339
 -0.721094
 -0.454823
 -0.535436
 -0.512019
 -10.0909
 -10.1817
 -9.99895
 -10.4043
 -4.12307
 -3.79568
 -3.93029
 -4.01672
 -7.03108
 -7.50795
 -7.16957
 -7.43407
 -19.4834
 -18.7123
 -19.4006
 -19.2378
 -8.38584
 -8.18798
 -8.1795
 -8.01777
 -3.54969
 -3.39566
 -3.48548
 -3.15919
 -7.02607
 -6.96794
 -7.23865
 -7.43698
 -4.85081
 -5.03664
 -5.01084
 -4.75548
 -8.01054
 -7.56619
 -8.06095
 -7.72012
 -0.810067
 -0.600335
 -0.701406
 -0.892067
 -7.13398
 -7.1572
 -7.48015
 -7.51133
 -12.4966
 -12.3712
 -12.6913
 -12.4069
 -11.3911
 -11.436
 -11.6273
 -11.4552
 -18.3535
 -17.4237
 -18.1935
 -17.794
 -5.50211
 -5.44258
 -5.7441
 -5.52958
 -4.7525
 -4.96754
 -4.73546
 -5.28911
 -17.9318
 -17.3258
 -17.9905
 -17.8875
 -4.93961
 -4.94148
 -5.28869
 -4.94778
 -16.5766
 -16.3563
 -16.858
 -16.3442
 -9.75908
 -10.351
 -9.97892
 -10.2252
 -8.56289
 -8.01315
 -8.52892
 -8.66104
 -4.62891
 -4.94767
 -4.89345
 -4.61233
 -8.11412
 -8.08904
 -8.50775
 -8.08649
 -16.8765
 -16.6506
 -16.9131
 -16.9613
 1.71856
 1.65635
 1.60536
 1.86999
 -3.09627
 -3.0426
 -3.04252
 -3.12224
 -3.23596
 -3.27219
 -3.22729
 -3.0289
 -5.94109
 -6.08154
 -5.77154
 -6.24388
 -7.05017
 -6.76836
 -6.99333
 -6.81965
 -5.657
 -5.49124
 -5.40099
 -5.71245
 -19.6047
 -19.3541
 -20.166
 -19.252
 -4.47583
 -4.2801
 -4.31421
 -4.70387
 -11.7578
 -11.8426
 -12.0162
 -11.5648
 -8.63747
 -15.3613
 -14.8058
 -14.9683
 -14.9171
 -11.0701
 -11.4049
 -11.7077
 -11.4835
 -2.58986
 -2.7845
 -2.85672
 -2.71337
 -6.2614
 -6.10913
 -6.36521
 -6.60075
 -5.24667
 -4.93405
 -5.16425
 -5.23711
 -16.3603
 -15.868
 -15.91
 -15.9599
 -7.48065
 -6.91482
 -7.31092
 -7.1398
 -16.8345
 -16.9566
 -16.3418
 -16.3825
 -13.0902
 -13.3868
 -12.9051
 -13.5285
 -2.71029
 -2.89204
 -2.77831
 -3.10712
 -4.54744
 -4.21273
 -4.76971
 -4.55108
 -12.5043
 -12.8055
 -12.8385
 -12.4835
 -8.20595
 -7.71795
 -8.16403
 -3.4512
 -3.29817
 -3.38968
 -3.57313
 -12.1339
 -11.4207
 -11.8622
 -11.4737
 -5.21974
 -4.87675
 -4.8965
 -5.12881
 -8.20996
 -7.64386
 -7.92083
 -8.24461
 -17.8827
 -17.8814
 -17.2119
 -17.7896
 -5.85371
 -5.71565
 -5.52608
 -5.80851
 -15.4039
 -14.8861
 -15.3494
 -15.5131
 -8.90489
 -8.65723
 -8.91538
 -8.47983
 -14.1951
 -13.8985
 -13.4918
 -13.7765
 -17.4068
 -17.4208
 -17.955
 -17.7065
 -6.05862
 -6.01338
 -6.26767
 -6.24814
 1.664
 1.32623
 1.38364
 1.20057
 -20.0155
 -19.6645
 -19.7434
 -19.5865
 -11.6997
 -11.524
 -11.2617
 -11.4959
 -3.97247
 -3.94416
 -4.49222
 -4.06075
 -7.00559
 -7.25949
 -7.34864
 -6.9728
 -1.24887
 -1.32237
 -1.32037
 -1.0886
 -17.0642
 -17.2929
 -17.9257
 -17.3834
 -3.40764
 -3.24485
 -3.32796
 -3.35491
 -10.0542
 -10.4353
 -9.86462
 -10.1554
 -4.33285
 -3.75871
 -4.19971
 -4.20534
 -20.7831
 -20.6849
 -20.7455
 -20.1673
 -20.4878
 -20.3921
 -20.0718
 -19.7546
 -13.2172
 -12.7487
 -12.64
 -13.2902
 -10.3799
 -10.5505
 -10.4143
 -10.1023
 -10.5328
 -3.66558
 -3.73119
 -3.36571
 -3.60746
 -4.17503
 -4.05713
 -3.96362
 -4.28436
 -12.2246
 -12.6707
 -12.693
 -12.6958
 -3.72301
 -3.95326
 -3.96098
 -3.7121
 -4.8685
 -4.79157
 -4.73141
 -5.03952
 -12.9748
 -13.1394
 -13.0402
 -12.6239
 -6.29629
 -6.70628
 -6.29476
 -6.69956
 -12.446
 -12.491
 -12.5843
 -12.8992
 -5.03643
 -4.95733
 -4.7045
 -5.02618
 -5.92004
 -6.1778
 -6.21466
 -6.2545
 -7.67411
 -8.02754
 -7.51778
 -7.92329
 -10.314
 -10.7858
 -10.4925
 -10.9452
 -14.7299
 -14.4879
 -15.1811
 -15.1448
 -9.73731
 -9.61701
 -9.38897
 -9.43501
 -9.71819
 -9.90126
 -10.0398
 -9.92768
 -2.64855
 -2.64117
 -2.78177
 -2.87361
 -11.7748
 -11.8829
 -12.0347
 -11.9382
 -8.76829
 -8.86595
 -9.01483
 -8.72514
 -9.27241
 -9.26737
 -8.97859
 -9.22418
 -6.49611
 -6.60871
 -6.2211
 -6.45198
 -3.39077
 -3.36349
 -3.50871
 -3.13986
 -13.9057
 -13.8823
 -14.1928
 -14.1893
 -3.49878
 -3.27167
 -3.35462
 -3.71049
 -19.9107
 -19.8655
 -20.432
 -20.1382
 -15.4564
 -15.107
 -15.7638
 -15.5528
 -15.8283
 -15.8677
 -15.8497
 -15.6974
 -15.74
 -15.6115
 -15.53
 -16.0367
 -13.0457
 -13.2644
 -12.8109
 -13.2883
 -1.38852
 -1.22715
 -0.949205
 -9.59875
 -9.05357
 -9.52848
 -9.41225
 -14.9851
 -14.8268
 -14.6524
 -15.0163
 -6.28655
 -5.90503
 -6.11583
 -6.21001
 -5.07263
 -5.13729
 -4.95659
 -5.19312
 -13.395
 -13.4628
 -13.8808
 -12.979
 -7.56515
 -7.46466
 -7.64246
 -7.91592
 -5.3602
 -5.3808
 -5.28629
 -5.21429
 -19.3916
 -19.9543
 -11.3802
 -11.2936
 -10.8751
 -10.8989
 -7.81774
 -7.73918
 -7.49979
 -10.1281
 -10.2412
 -10.138
 -9.79022
 -1.9734
 -1.89813
 -2.19665
 -2.16473
 -15.4308
 -15.827
 -15.7914
 -15.3001
 -10.0157
 -9.90717
 -9.67822
 -9.71845
 -6.24471
 -5.94029
 -6.0906
 -6.38879
 -9.29131
 -8.86819
 -9.00931
 -9.17778
 -3.64879
 -3.51756
 -3.72592
 -3.61466
 -2.89769
 -3.37173
 -3.02817
 -3.11153
 -7.48204
 -7.7876
 -7.88248
 -7.67159
 -3.64828
 -3.57427
 -3.63678
 -3.86904
 -7.96344
 -7.76808
 -7.84398
 -7.69596
 -16.0713
 -15.9816
 -15.4327
 -15.3587
 -3.89365
 -4.06281
 -4.17409
 -4.00829
 0.0402957
 -0.197373
 -0.00245518
 -0.146983
 -10.9136
 -10.1607
 -10.6429
 -10.7328
 -7.05625
 -7.31244
 -6.99965
 -7.31709
 -3.58479
 -3.53666
 -3.80386
 -3.74379
 -7.91294
 -7.68716
 -8.07533
 -8.0536
 -18.2171
 -18.0445
 -18.3798
 -18.2592
 -4.77644
 -4.76383
 -4.61759
 -4.78213
 -11.0558
 -10.7143
 -10.7137
 -10.6354
 -6.9364
 -7.30172
 -7.02579
 -7.54383
 -12.9014
 -13.1851
 -13.1197
 -13.5032
 -16.1417
 -16.0257
 -16.3193
 -15.8951
 -3.94879
 -4.19682
 -4.03456
 -4.47301
 -5.72575
 -5.96735
 -5.9046
 -5.8393
 -10.2721
 -10.2261
 -9.7261
 -10.0254
 -3.44128
 -3.54178
 -3.50676
 -3.59293
 1.57663
 1.7566
 1.74113
 1.62562
 -9.19237
 -8.83829
 -8.86248
 -8.7758
 2.04929
 2.10045
 2.03024
 1.87126
 1.6325
 1.38239
 1.41197
 1.53973
 -2.14428
 -2.3313
 -2.28011
 -2.06207
 -11.7833
 -11.4683
 -11.2055
 -11.0201
 -11.5754
 -11.881
 -11.9305
 -12.2084
 -12.2115
 -11.9138
 -12.1568
 -11.6875
 -10.9399
 -10.4833
 -10.5841
 -11.0695
 -0.96067
 -0.768284
 -0.912527
 -0.88472
 -4.0693
 -3.93513
 -4.24665
 -4.11835
 -3.89373
 -3.59426
 -3.67382
 -3.64784
 -6.39008
 -6.7719
 -6.41283
 -6.80544
 -9.67369
 -9.43483
 -9.69857
 -9.49642
 -12.9943
 -12.8589
 -12.6673
 -13.0072
 -4.50649
 -4.85667
 -4.96181
 -4.60885
 -11.8417
 -8.03817
 -8.34168
 -8.33808
 -8.13319
 -20.4462
 -20.611
 -21.1289
 -20.798
 -7.33412
 -7.39974
 -7.6282
 -7.38227
 -17.1585
 -17.8001
 -17.3228
 -3.90044
 -4.0423
 -4.16351
 -3.85296
 0.987367
 0.763926
 0.867796
 0.732106
 -8.28978
 -8.26823
 -8.75355
 -8.05406
 -6.46458
 -5.99121
 -6.0874
 -6.04519
 -3.68112
 -3.85503
 -4.04227
 -4.14226
 -4.16355
 -4.26149
 -4.02318
 -4.30069
 -1.76849
 -1.43389
 -1.63885
 -1.65221
 -10.2852
 -10.1867
 -10.4537
 -11.0594
 -8.26707
 -8.68658
 -8.16038
 -8.49047
 -5.5821
 -5.26886
 -5.5678
 -5.43182
 -7.56859
 -7.31671
 -7.98951
 -13.5624
 -13.3349
 -13.2542
 -4.68976
 -4.73466
 -4.32933
 -4.25683
 -1.98089
 -1.88997
 -1.89574
 -1.97615
 -5.18282
 -5.40409
 -5.36305
 -5.11361
 -2.14654
 -1.88302
 -2.20777
 -1.78615
 -14.3254
 -14.9732
 -14.491
 -14.6559
 -13.1279
 -13.3357
 -13.4671
 -13.7617
 -3.46115
 -3.36175
 -3.40997
 -3.37236
 -1.4251
 -1.08256
 -1.3241
 -1.4178
 -9.33325
 -8.8107
 -9.25715
 -9.05846
 -18.9841
 -18.4483
 -19.1068
 -18.546
 -1.98329
 -1.971
 -1.84015
 -1.98724
 -11.6696
 -11.2508
 -11.1892
 -11.7635
 0.190076
 0.347132
 0.192996
 0.303092
 -12.8963
 -13.1263
 -12.815
 -13.4926
 -6.67233
 -6.38011
 -6.83074
 -6.30752
 -14.3064
 -14.3437
 -14.7578
 -14.7629
 -3.78988
 -3.887
 -3.92723
 -4.18746
 -6.01606
 -5.73923
 -5.7727
 -5.75832
 -4.73348
 -4.62362
 -4.95781
 -4.94133
 -5.16762
 -5.06601
 -5.4335
 -4.87131
 -9.224
 -9.48981
 -9.42803
 -9.06552
 -7.3308
 -7.03877
 -7.39657
 -7.37352
 -14.9542
 -14.5635
 -14.2143
 -14.2822
 -19.7945
 -20.1633
 -19.348
 -19.386
 -6.90294
 -6.86217
 -6.60442
 -6.82672
 -15.9707
 -15.766
 -15.5976
 -16.2849
 -12.4817
 -13.0541
 -13.3427
 -12.9543
 -0.867343
 -0.747533
 -0.500454
 -0.841242
 -3.32154
 -3.83563
 -3.72055
 -3.57018
 -6.55529
 -6.32483
 -6.23139
 -6.34689
 -1.88735
 -1.71197
 -1.65946
 -1.51436
 -9.56963
 -9.99422
 -9.94375
 -9.78427
 -14.1751
 -15.0403
 -14.5694
 -14.6175
 -2.04318
 -2.43451
 -2.06502
 -2.0382
 -7.66307
 -7.97295
 -7.75459
 -7.81411
 -5.26435
 -5.23973
 -5.2495
 -5.09202
 1.48786
 1.30752
 1.29783
 1.47841
 -6.09272
 -6.04374
 -6.0027
 -6.32517
 -8.30014
 -8.55758
 -8.50747
 -8.59524
 -12.5312
 -13.009
 -12.6961
 -13.1384
 -4.97803
 -5.05998
 -5.14859
 -8.29401
 -8.21811
 -8.1066
 -8.23661
 -5.7557
 -5.70551
 -6.15096
 -5.86256
 -11.5744
 -11.1724
 -11.4939
 -11.3862
 -11.5641
 -12.0272
 -11.9911
 -11.8415
 -16.7331
 -16.302
 -16.5818
 -16.06
 -4.24133
 -4.30079
 -4.48783
 -4.22123
 -18.5974
 -18.7983
 -19.0171
 -18.7071
 -4.7205
 -4.99535
 -4.76223
 -4.60759
 -8.2151
 -8.64397
 -8.59494
 -8.84774
 -8.81023
 -8.39218
 -8.52581
 -8.31595
 1.83929
 2.02807
 1.85326
 1.88679
 -5.5454
 -5.3382
 -5.56835
 -5.61635
 -7.94791
 -7.89479
 -8.22323
 -8.64445
 -7.66828
 -7.78515
 -7.82191
 -7.37737
 -20.1219
 -20.1091
 -19.6508
 -20.1081
 -4.70984
 -5.02285
 -5.20387
 -4.79852
 -5.17066
 -4.98242
 -5.31452
 -4.90137
 -12.7063
 -13.142
 -12.7577
 -13.0377
 -3.8924
 -3.83667
 -3.66757
 -3.63796
 -3.84752
 -3.78297
 -3.97128
 -3.76905
 -11.2637
 -10.7196
 -11.2171
 -10.9344
 -11.7081
 -11.6745
 -11.3153
 -11.6858
 -9.03768
 -9.06351
 -9.62042
 -9.42566
 -4.98883
 -4.8339
 -10.4444
 -10.1135
 -10.6679
 -10.2097
 -5.12369
 -5.29137
 -5.13527
 -5.19822
 -6.8984
 -7.27041
 -7.38838
 -7.24341
 -17.3406
 -17.0612
 -16.8167
 -17.4687
 -7.09342
 -7.202
 -7.38526
 -7.4518
 -13.5687
 -13.9318
 -14.1605
 -13.4361
 -4.50093
 -5.02807
 -4.84305
 -5.00394
 -6.34809
 -6.04987
 -5.98806
 -6.15296
 -7.89696
 -8.49625
 -8.15795
 -8.29352
 -4.19004
 -3.93088
 -3.82653
 -4.00016
 -0.0997076
 -0.155295
 -0.0483663
 0.08998
 -18.8429
 -18.7392
 -18.5926
 -18.7751
 -2.10294
 -2.06481
 -2.19868
 -2.00654
 -9.81401
 -9.9845
 -9.57077
 -9.60176
 -0.0744135
 -0.087223
 -0.249502
 -0.00476894
 -10.2068
 -10.6017
 -10.3033
 -10.2572
 -4.83062
 -4.79422
 -4.69631
 -4.71129
 -4.72014
 -4.79799
 -4.50828
 -4.67993
 -8.97529
 -9.13363
 -8.66434
 -8.97629
 -15.1523
 -14.6002
 -15.0092
 -14.5131
 -6.17618
 -6.66876
 -6.57659
 -6.60388
 -3.40468
 -3.31944
 -3.41624
 -3.53795
 -14.8561
 -15.5522
 -15.1803
 -15.6856
 -4.76662
 -4.49524
 -4.90672
 -4.92713
 -6.32519
 -6.65953
 -6.57636
 -6.77522
 -12.598
 -13.4448
 -13.2705
 -12.9535
 -8.69639
 -9.0734
 -9.1563
 -9.16145
 -7.41215
 -7.2197
 -7.44646
 -7.61628
 -17.172
 -17.5674
 -17.7758
 -17.9372
 -15.5244
 -15.688
 -15.6899
 -15.4305
 -9.65342
 -9.70408
 -9.19762
 -9.42754
 -7.42366
 -7.62681
 -7.29135
 -8.02908
 -5.62502
 -5.73522
 -5.76392
 -6.19464
 -3.31444
 -3.28438
 -3.09028
 -13.3451
 -13.6629
 -13.496
 -13.9309
 0.125749
 0.282082
 0.476878
 0.447252
 -11.7589
 -11.2071
 -11.5021
 -11.4211
 -4.33739
 -3.9703
 -4.16262
 -4.18742
 -3.74434
 -3.48715
 -3.55871
 -3.53081
 -15.8081
 -15.2901
 -15.5548
 -16.2697
 -8.77529
 -8.53208
 -8.91916
 -8.64619
 -7.59146
 -7.47026
 -5.09238
 -6.91668
 -7.28047
 -6.86603
 -7.09582
 -0.120474
 -0.302269
 -11.1405
 -11.3322
 -11.5246
 -2.69667
 -2.86836
 -2.49483
 -2.71131
 -11.3782
 -10.9061
 -11.0444
 -11.0564
 -6.284
 -6.62332
 -6.52949
 -6.50869
 -4.95283
 -5.41394
 -5.1348
 -5.17133
 -17.135
 -17.1553
 -17.8557
 -17.3496
 -2.80236
 -3.06113
 -2.77649
 -3.08759
 -10.7732
 -10.8074
 -10.889
 -11.1602
 -18.1356
 -18.2759
 -17.6546
 -17.6797
 -8.57521
 -8.17863
 -8.54959
 -8.27254
 -10.8678
 -10.2732
 -10.4979
 -10.4634
 -7.84391
 -8.17559
 -7.91448
 -7.37934
 -20.6896
 -19.7842
 -20.4905
 -19.7028
 -19.9664
 -19.9433
 -19.6857
 -19.3628
 -19.3392
 -19.1451
 -19.1389
 -19.3866
 -6.9222
 -6.61064
 -6.94094
 -6.90782
 -9.73763
 -9.26035
 -9.43412
 -9.67298
 -7.27425
 -7.22358
 -6.96902
 -7.16912
 -6.71292
 -6.58621
 -7.04101
 -6.59063
 -11.7984
 -11.9562
 -12.0323
 -11.5723
 -14.9289
 -15.5478
 -15.3427
 -15.591
 -14.8311
 -15.03
 -14.4999
 -15.2022
 -8.52861
 -8.74221
 -8.45739
 -8.69259
 -7.60317
 -7.58701
 -7.48821
 -7.32042
 -4.7011
 -4.52137
 -4.63283
 -4.95264
 -12.989
 -13.4074
 -13.3955
 -12.8615
 -1.95711
 -1.97111
 -1.73836
 -2.10167
 -13.879
 -14.1999
 -13.8183
 -13.6942
 -9.29647
 -9.92526
 -9.29374
 -9.77125
 -9.03143
 -9.23654
 -9.09474
 -8.87601
 -3.02402
 -2.98583
 -2.8326
 -2.62223
 2.42131
 2.27976
 2.46212
 2.4427
 -5.75375
 -6.07133
 -5.75766
 -5.8315
 -13.9152
 -13.274
 -13.4626
 -13.8669
 -3.79406
 -3.54348
 -3.71904
 -3.92178
 -9.6913
 -9.89139
 -9.44839
 -9.94471
 -10.2836
 -10.6137
 -11.0206
 -10.8481
 -12.7018
 -12.9399
 -12.2828
 -12.5055
 -1.48085
 -1.30706
 -1.3214
 -1.4955
 -1.58772
 -1.6065
 -1.49415
 -1.45045
 -13.827
 -14.543
 -14.2289
 -14.2245
 -11.8969
 -11.2552
 -11.2965
 -11.687
 -5.60629
 -5.64843
 -5.47376
 -5.49928
 -7.96356
 -7.83074
 -8.16595
 -8.37448
 -9.19783
 -9.29851
 -9.22628
 -9.08109
 -5.46822
 -5.25633
 -5.74967
 -5.3319
 -10.9104
 -10.6746
 -10.692
 -10.4047
 -22.2874
 -21.824
 -22.1885
 -22.259
 -10.0355
 -10.4994
 -10.4663
 -10.7525
 -8.05916
 -8.2472
 -7.96532
 -8.44808
 -8.12311
 -8.08739
 -7.76906
 -8.13884
 -9.22917
 -9.475
 -9.25231
 -8.91376
 -18.7703
 -18.8238
 -18.3751
 -18.7648
 -14.9508
 -14.5364
 -14.8367
 -10.7708
 -10.7378
 -11.0348
 -10.7106
 -3.47352
 -3.44444
 -3.66179
 -3.41027
 -6.65836
 -6.68648
 -6.41044
 -6.77285
 -14.7525
 -14.1251
 -14.0698
 -14.1347
 -4.70898
 -4.80916
 -4.88011
 -5.00791
 -6.16892
 -5.91522
 -5.89135
 -6.23088
 -6.56598
 -6.42383
 -6.02456
 -6.35502
 -11.6966
 -11.4114
 -11.3119
 -11.2959
 -9.39547
 -9.04851
 -9.45369
 -8.7549
 -10.795
 -10.0393
 -10.3187
 -10.4226
 -3.95021
 -4.07261
 -4.11929
 -3.99364
 -6.39669
 -6.63414
 -6.71122
 -6.39447
 -11.2801
 -10.9509
 -11.35
 -11.675
 -5.95118
 -6.09971
 -6.28186
 -5.81127
 -10.0125
 -10.3768
 -10.3978
 -10.151
 -3.79253
 -3.6992
 -3.86262
 -3.65687
 -17.9612
 -18.1475
 -17.5765
 -17.9594
 -4.58817
 -4.3655
 -4.66425
 -4.79002
 -4.2096
 -3.68445
 -4.01077
 -4.01224
 -12.4779
 -12.4598
 -12.7824
 -12.9121
 -4.6597
 -4.73254
 -4.79205
 -4.74677
 -10.3153
 -10.1719
 -10.3342
 -9.92529
 -2.83434
 -2.88808
 -2.53982
 -2.60501
 -9.00908
 -8.82896
 -8.91978
 -9.2831
 -16.6926
 -17.4788
 -16.7887
 -17.2435
 -9.23199
 -8.71626
 -8.70167
 -9.01596
 -12.653
 -12.8797
 -12.6438
 -12.645
 -10.219
 -10.0389
 -10.1456
 -10.4084
 -10.0013
 -10.1627
 -10.2504
 -10.5871
 -18.7041
 -18.6827
 -18.8969
 -18.0951
 -4.05394
 -3.88557
 -3.75748
 -3.7141
 -4.34574
 -4.22478
 -3.98431
 -4.21677
 -15.64
 -15.6208
 -15.339
 -16.0393
 -16.9542
 -17.2393
 -16.8982
 -5.31793
 -5.20697
 -5.18785
 -5.39264
 -10.6442
 -11.1128
 -10.6304
 -10.5776
 -9.6335
 -9.78282
 -9.35113
 -9.83135
 -4.15231
 -4.39116
 -3.9596
 -4.16653
 -12.7983
 -13.1333
 -13.0059
 -13.0404
 -7.72666
 -7.31833
 -7.37525
 -7.75146
 -9.06098
 -8.65325
 -8.69331
 -8.5971
 -13.2114
 -13.594
 -13.6089
 -13.4917
 -3.20092
 -3.09656
 -3.22515
 -3.35327
 -5.41571
 -5.05898
 -5.16507
 -5.13301
 -19.2341
 -18.5954
 -19.1501
 -18.9262
 -4.07548
 -4.03663
 -4.12249
 -4.5142
 -3.2744
 -3.1635
 -3.20915
 -3.23983
 -7.87986
 -8.00971
 -7.83479
 -8.33124
 -0.128414
 -0.218337
 -0.0400952
 -0.37258
 -8.7017
 -8.77479
 -8.56954
 -8.75035
 -13.6987
 -13.5258
 -13.3833
 -13.2832
 -15.2097
 -14.8651
 -15.0422
 -2.80401
 -2.83207
 -2.95641
 -2.84764
 -4.6764
 -5.00432
 -4.60296
 -4.91697
 -4.12628
 -4.02882
 -3.85755
 -3.81951
 -5.19455
 -4.96695
 -5.10845
 -5.05821
 -19.7238
 -20.0107
 -20.221
 -20.0916
 -3.21761
 -3.22895
 -3.13311
 -2.95033
 -4.8185
 -4.59673
 -4.78512
 -5.13316
 -14.9711
 -15.3411
 -14.9819
 -14.8049
 -6.15731
 -6.06245
 -6.29579
 -5.08944
 -4.81439
 -5.08186
 -9.26834
 -9.02854
 -8.6913
 -0.603018
 -0.903227
 -0.948524
 -0.705745
 -8.83652
 -9.0868
 -8.94847
 -9.22065
 -8.59752
 -8.82326
 -8.28187
 -8.35156
 -15.7119
 -16.0444
 -15.5465
 -15.4756
 -17.2856
 -17.1481
 -18.0243
 -17.1798
 -3.91925
 -3.65193
 -3.62474
 -4.12577
 -9.61795
 -10.0235
 -10.0808
 -9.87379
 -9.48248
 -9.80318
 -9.9664
 -9.85564
 -7.63431
 -8.11078
 -7.89918
 -8.20204
 -5.88738
 -6.02654
 -6.08462
 -5.64647
 -9.54174
 -9.11367
 -9.43359
 -9.54818
 -3.9932
 -4.06904
 -3.9481
 -4.15304
 -16.7177
 -16.5013
 -16.7384
 -16.8441
 -5.25095
 -5.17229
 -5.30692
 -5.51055
 -15.0951
 -14.6582
 -14.975
 -14.849
 -17.9132
 -17.6408
 -17.2186
 -17.7496
 -17.7417
 -17.6094
 -17.5248
 -17.3927
 -4.58089
 -4.37817
 -12.2611
 -12.1349
 -11.8726
 -12.1098
 -4.1421
 -4.53728
 -4.34868
 -4.21953
 -13.3717
 -14.158
 -13.9168
 -14.0693
 -15.0042
 -14.6883
 -15.248
 -14.7101
 -5.53379
 -5.77748
 -5.805
 -5.64848
 -9.42324
 -9.39404
 -9.74125
 -9.61313
 -5.09808
 -5.11301
 -5.3561
 -5.12644
 -6.91335
 -6.88751
 -6.96249
 -7.25855
 1.22514
 0.889614
 1.30138
 1.00814
 -16.3658
 -16.08
 -16.8114
 -16.3078
 -5.30049
 -5.07718
 -5.39757
 -5.60255
 -2.78935
 -2.59015
 -2.59868
 -2.87184
 -7.35537
 -7.18093
 -7.5408
 -7.6121
 -2.94051
 -2.57972
 -2.47366
 -2.95763
 -7.18648
 -6.82708
 -6.68041
 -7.03503
 -12.2188
 -12.0792
 -12.5601
 -11.8864
 -7.85171
 -7.60317
 -7.60686
 -7.75112
 -15.8357
 -16.5695
 -15.8834
 -7.42567
 -7.76238
 -7.3829
 -7.7329
 1.27456
 1.39656
 1.37585
 1.46563
 -20.1183
 -20.23
 -20.4294
 -20.1365
 -9.1361
 -9.04914
 -9.28016
 -8.97088
 -13.6324
 -13.3258
 -12.918
 -13.45
 -3.78445
 -4.03998
 -3.40851
 -3.68098
 -5.79803
 -6.0687
 -5.5739
 -5.8967
 -5.87394
 -6.35115
 -6.06692
 -6.32288
 -17.4309
 -17.0586
 -17.5468
 -17.8797
 -6.23768
 -5.98492
 -5.78527
 -5.89418
 -19.6526
 -19.4582
 -19.7971
 -19.189
 -11.7388
 -11.2402
 -11.2488
 -11.781
 -4.06529
 -4.13048
 -4.2394
 -4.07647
 0.0194402
 -0.0648586
 -0.26677
 0.0813286
 -7.00329
 -6.51769
 -6.81082
 -6.41637
 -8.05535
 -8.07293
 -8.38203
 -8.00633
 -12.4778
 -12.5274
 -12.2536
 -11.893
 1.03086
 1.26139
 0.94611
 1.077
 -7.04938
 -6.79724
 -7.23919
 -7.10029
 -18.9137
 -18.5098
 -18.448
 -18.5406
 -14.4665
 -14.84
 -14.6706
 -14.4944
 -14.3013
 -14.3529
 -14.742
 -14.1806
 -13.8952
 -13.5388
 -13.392
 -13.6032
 -14.5303
 -15.2025
 -14.8528
 -14.7797
 -10.3079
 -10.4549
 -10.3203
 -10.3255
 -4.46929
 -4.92421
 -5.2444
 -5.29162
 -5.10223
 -11.4813
 -11.032
 -11.1925
 -11.0975
 -11.4112
 -11.5206
 -10.9349
 -11.0449
 -1.96051
 -2.07623
 -2.04619
 -1.95869
 -16.0168
 -16.0259
 -15.8132
 -16.0706
 -13.4014
 -13.7954
 -14.297
 -13.9654
 -4.05505
 -4.44414
 -4.39049
 -4.6896
 -4.69542
 -4.62423
 -4.93951
 -5.13888
 -5.05128
 -5.28288
 -4.43763
 -4.09079
 -3.66916
 -3.92006
 -11.3108
 -11.7683
 -11.6304
 -11.2742
 -19.4315
 -19.5081
 -19.3538
 -19.5588
 -8.16482
 -7.97092
 -8.21806
 -7.79262
 -17.4817
 -16.6688
 -16.3567
 -16.3463
 -7.15655
 -7.09608
 -6.92603
 -7.27944
 -11.2666
 -10.912
 -10.6546
 -10.7056
 -4.07153
 -4.01308
 -3.96829
 -3.70438
 -9.54741
 -9.95645
 -9.36671
 -9.68386
 -10.2544
 -10.7545
 -10.9784
 -10.339
 -4.51466
 -4.38991
 -4.14218
 -4.27678
 -6.14987
 -5.94711
 -6.5581
 -6.31453
 -7.30256
 -7.25792
 -6.97509
 -6.7895
 -9.66167
 -9.87528
 -9.7124
 -9.87882
 -2.21231
 -2.27266
 -2.36806
 -2.58548
 -10.6055
 -10.1862
 -10.4537
 -10.7073
 -6.2371
 -5.85548
 -6.2943
 -6.49881
 -12.1541
 -12.02
 -12.1383
 -11.7941
 -15.6004
 -15.1697
 -15.5362
 -15.2893
 -18.0086
 -17.7402
 -17.6371
 -17.8285
 -17.2791
 -17.6005
 -16.7584
 -20.0119
 -20.1972
 -20.4606
 -20.5805
 -14.3422
 -13.8753
 -13.3711
 -13.9539
 -7.94075
 -7.85849
 -8.12938
 -8.07416
 -17.6361
 -17.2674
 -16.9357
 -17.5398
 -8.72663
 -8.77967
 -8.54955
 -8.4893
 -9.81644
 -10.0342
 -9.9068
 -17.3338
 -17.725
 -17.4742
 -17.3995
 -16.4402
 -16.0166
 -16.186
 -9.32981
 -9.14365
 -9.50392
 -9.63385
 -6.04934
 -6.22762
 -6.01134
 -6.46184
 -11.752
 -11.4373
 -11.3211
 -11.2467
 -17.5733
 -17.9228
 -17.6943
 -17.4753
 -4.89722
 -4.83204
 -5.00542
 -4.70334
 -7.81865
 -7.71277
 -7.44345
 -7.36882
 -8.3479
 -8.85227
 -8.29411
 -8.37734
 -12.2156
 -11.7864
 -12.1131
 -12.1787
 -4.8855
 -4.68539
 -5.12431
 -4.739
 -3.80835
 -3.59562
 -3.82913
 -3.7484
 -8.30978
 -8.3229
 -8.25937
 -8.62828
 -19.1901
 -18.8626
 -18.816
 -18.9535
 -5.34609
 -4.99491
 -5.38906
 -5.19267
 -4.0157
 -4.27971
 -3.9541
 -4.2482
 -10.5801
 -10.0209
 -10.5755
 -10.526
 -5.15407
 -5.25771
 -5.07741
 -3.89752
 -4.12846
 -4.03568
 -9.83741
 -9.59325
 -10.1837
 -9.71329
 -4.23943
 -4.13256
 -3.91681
 -4.21742
 -4.20001
 -3.87787
 -4.12177
 -4.13559
 -10.6685
 -10.8032
 -10.5554
 -4.38087
 -4.32811
 -15.3177
 -15.3848
 -16.1821
 -16.241
 -11.6966
 -12.355
 -12.3551
 -12.098
 -2.19386
 -2.42152
 -2.00491
 -2.49021
 -0.570616
 -0.62543
 -0.374939
 -0.637319
 -5.2211
 -4.6833
 -5.01088
 -5.03865
 -16.8191
 -16.8026
 -17.0545
 -16.8373
 -11.3188
 -11.0262
 -10.8217
 -11.015
 -3.13442
 -3.07727
 -3.06587
 -3.03335
 -5.17559
 -5.21564
 -5.3624
 -5.6322
 -5.34547
 -5.38602
 -5.31002
 -4.58636
 -4.80495
 -4.84404
 -4.846
 -4.77871
 -4.56729
 -4.87793
 -4.93933
 -3.90874
 -3.62333
 -3.86473
 -3.64958
 -18.5877
 -18.9421
 -18.6962
 -18.6266
 -17.5297
 -18.006
 -17.3008
 -8.0957
 -7.85076
 -8.1354
 -7.70818
 -5.00182
 -4.61598
 -5.05542
 -4.93317
 -20.2349
 -20.5609
 -3.90859
 -3.73201
 -3.77403
 -3.6123
 -9.15902
 -9.84523
 -9.3935
 -9.67792
 -10.6343
 -10.4967
 -4.25592
 -4.18652
 -4.48848
 -4.26215
 -18.0192
 -18.3246
 -17.8146
 -18.6627
 -19.5741
 -19.2164
 -19.4129
 -20.1303
 -7.29464
 -7.45568
 -7.30863
 -1.90502
 -2.11327
 -2.00313
 -4.64108
 -5.01905
 -4.61282
 -4.70302
 -13.129
 -12.6927
 -13.4587
 -12.7355
 -5.79851
 -5.53325
 -5.50103
 -5.27506
 -5.42984
 -5.25222
 -5.55653
 -5.18091
 -11.3867
 -11.3119
 -11.5468
 -12.0357
 0.820129
 0.692358
 0.867676
 1.05675
 -12.5681
 -12.6911
 -13.0728
 -12.9701
 -12.9938
 -12.9267
 -13.2988
 -13.5159
 -3.75105
 -3.75867
 -3.38392
 -3.665
 -16.4184
 -16.6519
 -16.7284
 -16.2761
 1.24644
 1.51337
 1.47049
 1.66032
 -18.0828
 -17.0806
 -17.1367
 -16.9921
 -14.7095
 -14.3443
 -5.33392
 -5.53898
 -5.46377
 -5.70272
 -3.45815
 -3.19587
 -3.34606
 -3.55802
 -16.0937
 -16.5037
 -16.3836
 -16.2333
 -5.87989
 -5.98474
 -5.96295
 -5.75141
 -19.1511
 -18.8066
 -19.0636
 -4.98307
 -4.72739
 -4.59881
 -3.11777
 -3.42141
 -3.49359
 -17.9473
 -18.1547
 -18.0083
 -17.8279
 -5.06369
 -4.89846
 -4.8963
 -4.89407
 -16.3318
 -16.3917
 -3.07233
 -3.25701
 -3.04697
 -3.11667
 -8.51928
 -8.88982
 -8.90731
 -8.54456
 -5.50043
 -5.32688
 -6.66046
 -7.31594
 -7.2272
 -6.84615
 -5.42094
 -5.36969
 -5.40102
 -5.09233
 -19.4174
 -20.0013
 -19.2406
 -19.5044
 -3.43668
 -3.32298
 -3.3813
 -14.6486
 1.14079
 1.1826
 1.17009
 1.26498
 -16.0391
 -16.1012
 -16.416
 -15.55
 -5.46118
 -5.49356
 -6.01025
 -5.88258
 -12.5042
 -12.3012
 -12.3527
 -12.4329
 -5.3509
 -5.14077
 -5.00796
 -5.2859
 -11.2369
 -1.98089
 -1.92107
 -1.91907
 -2.01052
 -11.2069
 -11.2308
 -11.0892
 -10.7535
 -14.4097
 -14.6689
 -14.8802
 -14.0515
 -14.4158
 -13.9221
 -14.5407
 -16.2131
 -16.6838
 -16.4458
 -16.4228
 -3.8745
 -3.98332
 -4.30549
 -4.14438
 -15.7246
 -15.7188
 -15.6643
 -16.1244
 -2.83644
 -2.79129
 -2.85404
 -2.56247
 -15.2114
 -15.5
 -15.6955
 -15.7068
 -7.90736
 -7.7004
 -7.64981
 -7.54228
 -12.343
 -12.6373
 -12.7793
 -12.8921
 -9.27766
 -9.08876
 -8.96028
 -8.84353
 -18.1412
 -17.4033
 -8.97436
 -8.62795
 -8.66924
 -8.9507
 -2.09428
 -1.98535
 -2.30666
 -1.98387
 -2.87217
 -2.76037
 -3.17101
 -2.81969
 -9.26015
 -9.6005
 -9.64076
 -9.68172
 -12.9082
 -12.9034
 -12.7909
 -13.3755
 -13.7165
 -13.3033
 -13.555
 -13.8602
 -17.2897
 -16.6918
 -16.8952
 -16.5319
 -13.7795
 -14.3993
 -14.0647
 -13.781
 -2.88325
 -2.89688
 -3.06922
 -2.72119
 -4.1256
 -4.10612
 -4.0416
 -4.48666
 -20.4748
 -20.1444
 -20.0282
 -20.0511
 -9.92678
 -10.1023
 -10.0209
 -10.6113
 -4.47054
 -4.83284
 -4.48108
 -4.74215
 0.264984
 0.31057
 0.0146877
 0.391515
 -16.1593
 -16.4077
 -15.9053
 -16.9393
 -4.73326
 -4.77351
 -4.85794
 -5.06176
 -6.89519
 -7.21555
 -6.69175
 -6.97166
 -2.64922
 -2.55725
 -2.62041
 -2.80896
 -10.951
 -10.7351
 -10.9308
 -10.9723
 -17.4367
 -17.4676
 -17.2905
 -17.4369
 -10.1573
 -9.61037
 -9.78756
 -9.67879
 -7.36564
 -7.42234
 -7.79212
 -7.60683
 -2.33722
 -2.46751
 -2.58854
 -2.19287
 -17.3427
 -11.8022
 -12.1354
 -11.6261
 -12.1034
 -6.86351
 -6.70003
 -6.41074
 -6.52571
 -12.9129
 -13.2
 -13.1292
 -13.4963
 -4.53529
 -4.33188
 -4.42149
 -4.66407
 -10.8807
 -11.1447
 -10.6538
 -2.09026
 -2.43608
 -2.16849
 -2.13096
 -14.8129
 -13.9144
 -14.4804
 -14.2017
 -3.48168
 -3.43486
 -3.62626
 -3.48335
 -21.7337
 -21.5719
 -21.6818
 -21.9861
 -4.79262
 -4.8459
 -4.88217
 -4.84253
 -0.386878
 -0.937155
 -0.888357
 -0.691521
 -1.98142
 -1.95091
 -2.18468
 -2.14765
 -20.3677
 -20.1435
 -19.9557
 -19.8559
 -18.4011
 -18.3634
 -18.6947
 -18.7498
 -8.1029
 -8.44659
 -8.31087
 -8.46932
 -5.11436
 -5.04348
 -5.24268
 -9.19197
 -9.16047
 -8.63366
 -8.8322
 -11.7031
 -11.4876
 -11.9858
 -12.02
 -9.17933
 -9.92189
 -9.67344
 -9.59603
 -8.56888
 -8.67678
 -9.2851
 -8.97846
 -19.9397
 -19.5304
 -19.5832
 -19.3929
 -4.04048
 -3.92808
 -4.33089
 -4.04639
 -2.01858
 -1.56876
 -1.62185
 -12.8099
 -12.4916
 -12.6546
 -12.4629
 -15.8646
 -16.3424
 -15.984
 -15.872
 -4.70222
 -4.61713
 -4.76411
 -4.1384
 -4.19162
 -4.34968
 -3.93906
 -16.7695
 -16.4653
 -16.9292
 -16.1671
 -7.74188
 -7.66641
 -8.00502
 -7.73227
 -4.37065
 -4.04401
 -4.3121
 -4.32786
 -6.77439
 -6.5819
 -6.61796
 -6.85282
 -14.8979
 -14.8488
 -14.4381
 -14.8695
 -4.63445
 -5.0427
 -4.43764
 -4.93838
 -7.14528
 -6.62686
 -6.7735
 -6.9521
 -5.53777
 -5.87255
 -5.61608
 -18.3372
 -18.236
 -17.8554
 -17.9743
 -7.94926
 -8.00383
 -7.74355
 -8.14341
 -20.5447
 -20.3626
 -21.1826
 -8.83601
 -9.04088
 -8.96495
 -8.83538
 -2.41516
 -2.63261
 -2.27606
 -2.38425
 -10.1752
 -10.2756
 -10.5223
 -10.888
 -8.44606
 -8.92875
 -8.31148
 -4.82478
 -4.91807
 -5.1798
 -4.99065
 -3.35538
 -3.44376
 -3.2841
 -3.49888
 -4.64346
 -4.82298
 -5.01607
 -4.6099
 -0.239633
 -0.290063
 -0.551858
 -0.584913
 -6.26266
 -6.17123
 -6.02239
 -6.00252
 -5.52719
 -5.39105
 -5.84129
 -5.32061
 -17.063
 -16.4155
 -16.5378
 -17.3382
 -3.29043
 -3.66284
 -3.53032
 -3.4526
 -11.2827
 -11.0794
 -11.3902
 -11.5331
 -18.9515
 -19.0311
 -18.7106
 -18.4817
 -19.0981
 -18.4543
 -18.7585
 -18.9847
 -14.3557
 -14.7012
 -14.3355
 -14.5626
 -19.3843
 -20.0302
 -19.9731
 -19.0278
 -17.3225
 -17.4198
 -17.3477
 -20.6057
 -19.7884
 -20.0508
 -20.0457
 -2.58943
 -2.45611
 -2.56954
 -2.37757
 -6.81222
 -6.46415
 -6.34986
 -6.52132
 -5.71162
 -6.09445
 -5.80498
 -6.12502
 -6.07591
 -5.8793
 -5.8775
 -5.7812
 -17.8391
 -17.4021
 -17.7437
 -17.8838
 -6.61867
 -6.63689
 -6.34546
 -6.21933
 -4.74913
 -4.39926
 -4.36961
 -4.64633
 -12.0704
 -11.941
 -12.4166
 -11.8141
 -5.10345
 -5.4091
 -5.102
 -5.31211
 -13.0372
 -12.6803
 -12.5824
 -9.09288
 -9.50876
 -9.55665
 -16.4762
 -15.9433
 -16.0779
 -16.1835
 -6.7972
 -6.92913
 -6.67785
 -6.67399
 -11.0709
 -10.6961
 -10.8121
 -11.1352
 -5.94967
 -5.54671
 -5.73313
 -6.04526
 -20.6303
 -20.4002
 -19.0213
 -18.7907
 -18.5665
 -19.1489
 -2.35583
 -2.26627
 -2.26645
 -2.11744
 -11.1557
 -11.5133
 -11.5735
 -11.8903
 -4.83357
 -5.20057
 -4.91537
 -4.69755
 1.99075
 2.34486
 2.01698
 2.12336
 -4.83761
 -4.70849
 -4.52147
 -4.7141
 -12.7657
 -12.3447
 -12.7181
 -3.2405
 -3.20526
 -3.56163
 -3.51696
 -18.6651
 -18.2021
 -18.8261
 -18.3937
 -4.98353
 -5.10142
 -4.99626
 -5.11896
 -10.8385
 -11.2351
 -11.0398
 -10.8799
 -2.6046
 -2.71901
 -2.42915
 -2.63173
 0.504454
 0.518407
 0.40566
 0.314548
 -4.37778
 -4.60781
 -4.36452
 -4.29443
 -6.38651
 -6.25424
 -6.50572
 -9.53488
 -8.95809
 -9.59381
 -9.34376
 -3.84858
 -3.87705
 -3.57777
 -13.2062
 -13.0383
 -13.3168
 -13.6206
 -14.4558
 -15.1869
 -14.454
 -15.0897
 -12.416
 -11.9456
 -12.3262
 -12.389
 -18.2643
 -17.1765
 -17.6047
 -17.7111
 -13.9907
 -13.6145
 -13.8307
 -5.4955
 -5.71384
 -5.67328
 -5.82982
 -13.4065
 -12.9913
 -11.7122
 -11.2757
 -11.1288
 -11.5245
 -12.6838
 -12.493
 -12.5472
 -12.8365
 -4.63019
 -4.78796
 -4.71882
 -4.43418
 -4.70969
 -4.92775
 -4.69824
 -4.91809
 1.98035
 1.82794
 1.78076
 1.8837
 -4.63158
 -4.86887
 -4.63173
 -5.66224
 -5.52921
 -5.46243
 -5.56434
 -8.38333
 -8.37649
 -8.17066
 -8.09223
 -5.66692
 -5.99191
 -6.00892
 -5.78605
 -2.43508
 -2.59716
 -2.40339
 -2.39747
 -14.6392
 -14.0592
 -14.5489
 -14.1557
 -8.01536
 -8.28184
 -7.99114
 -7.75002
 -17.8081
 -17.8434
 -17.6372
 -17.8969
 -9.75916
 -9.3812
 -9.71511
 -9.48328
 -17.6662
 -17.8612
 -17.7349
 0.23332
 -0.000771491
 0.0969978
 0.0615813
 -12.411
 -13.1017
 -12.5436
 -12.6023
 -7.27961
 -6.9765
 -7.34285
 -7.17482
 -4.08078
 -3.86102
 -5.87608
 -5.93774
 -6.10842
 -6.03135
 -7.0512
 -6.64887
 -6.74648
 -16.7702
 -16.9331
 -16.5225
 -16.855
 -17.0172
 -16.7337
 -16.3289
 -16.5702
 -3.97711
 -3.89967
 -4.07134
 -3.92932
 -7.68371
 -7.55619
 -5.0676
 -5.38417
 -5.17915
 -4.92231
 -13.6285
 -13.3094
 -14.0268
 -14.0318
 -2.39021
 -2.39734
 -2.349
 -2.47924
 -4.39267
 -4.50836
 -4.26412
 -4.2481
 -4.96933
 -5.2933
 -5.44107
 -5.28207
 -8.97416
 -8.90644
 -8.96655
 -9.45807
 -13.1159
 -13.0248
 -12.7558
 -12.7718
 -14.0143
 -13.5775
 -13.2501
 -13.7256
 1.16714
 1.21002
 1.28974
 1.37084
 -3.33819
 -3.60924
 -3.69923
 -9.63671
 -8.97457
 -9.36092
 -10.0838
 -10.4553
 -10.0615
 -10.4999
 -17.5447
 -17.8733
 -17.6229
 -18.047
 -7.81261
 -4.88296
 -4.87258
 -4.55517
 -4.62397
 -11.3741
 -11.1116
 -10.744
 -10.9457
 -14.3947
 -13.8948
 -13.9704
 -14.5004
 -15.8231
 -15.9423
 -4.01823
 -3.92099
 -3.77843
 -3.7331
 -8.54023
 -8.83971
 -8.71251
 -8.90276
 -3.19999
 -3.13366
 -3.2082
 -3.29594
 -10.27
 -6.3807
 -6.15565
 -6.67239
 -6.80163
 -5.66326
 -5.88384
 -6.01067
 -5.81597
 -17.72
 -17.1204
 -18.5897
 -18.9807
 -19.0946
 -18.7737
 -1.0196
 -0.832355
 -0.933341
 -1.03074
 -13.8603
 -13.9629
 -13.4082
 -14.1771
 -10.2347
 -9.70055
 -9.86516
 -10.2979
 0.775157
 0.70457
 0.701019
 0.862415
 -8.32674
 -8.34861
 -8.52548
 -8.14364
 -8.06178
 -7.65271
 -7.43848
 -7.48402
 -3.98917
 -3.69489
 -4.05458
 -3.93739
 -20.1754
 -20.5389
 -20.5803
 -20.5712
 -7.65427
 -7.29066
 -7.34301
 -5.38357
 -5.70651
 -5.69853
 -5.41836
 -19.1327
 -19.8524
 -19.3489
 -19.4557
 -5.34934
 -5.17775
 -4.91227
 -5.47078
 -7.17232
 -7.42084
 -15.1041
 -15.1845
 -15.5618
 -14.7433
 -9.55951
 -9.58804
 -10.0666
 -10.0132
 -18.4639
 -18.1276
 -18.5458
 -18.395
 -7.49473
 -8.0495
 -4.55089
 -4.67473
 -4.74404
 -4.71207
 -5.27908
 -5.32255
 -5.531
 -5.64434
 -15.7013
 -15.6988
 -15.1123
 -15.3023
 -14.236
 -14.0657
 -14.375
 -14.4263
 -13.6011
 -13.0255
 -13.5629
 -13.364
 -5.43522
 -5.83287
 -5.66502
 -5.44868
 -0.979038
 -0.823908
 -0.915197
 -0.991049
 -19.3285
 -19.7795
 -19.318
 -19.5243
 -3.72702
 -3.7619
 -3.80271
 -3.97553
 -9.25646
 -9.50741
 -9.65066
 -9.2839
 -6.09413
 -6.62318
 -6.25686
 -6.4447
 -9.20238
 -8.75296
 -9.11653
 -10.975
 -11.4832
 -10.9782
 -11.529
 -8.22677
 -8.51556
 -8.29755
 -8.02739
 -12.6194
 -12.7955
 -13.1891
 -12.5214
 -12.5907
 -12.4517
 -12.6478
 -11.9347
 0.774435
 0.418437
 0.74938
 -2.66478
 -2.95743
 -3.07407
 -2.96131
 -9.19429
 -8.91808
 -9.03327
 -9.00872
 -15.182
 -15.6368
 -15.355
 -15.7213
 -4.82005
 -4.45891
 -4.81484
 -5.09722
 -5.26426
 -5.28282
 -10.3772
 -10.1915
 -10.4886
 -10.4865
 -9.02424
 -9.34904
 -9.50865
 -9.5519
 -22.2043
 -22.1544
 -21.9585
 -22.3047
 -1.98645
 -2.07143
 -1.89998
 -1.56806
 -13.2426
 -13.4792
 -6.47564
 -6.84704
 -6.86668
 -6.53366
 -12.2123
 -12.5022
 -12.4566
 -12.5708
 -9.90769
 -10.0168
 -10.2954
 -10.0933
 -6.90288
 -6.89885
 -7.22076
 -6.65754
 -11.6567
 -12.0546
 -11.8932
 -12.0001
 -3.9946
 -4.10829
 -4.08927
 -4.30015
 -3.14116
 -2.94324
 -3.17641
 -3.06036
 -14.7178
 -14.906
 -15.3576
 -15.9847
 -9.06555
 -9.2936
 -9.58657
 -0.517087
 -0.417358
 -0.60669
 -15.823
 -16.1907
 -16.2455
 -16.3734
 -16.7497
 -16.6048
 -16.3229
 -16.2271
 -8.38744
 -8.48949
 -8.62005
 -8.75305
 -17.5937
 -17.8998
 -17.8478
 -17.8321
 -18.4314
 -18.9368
 -18.5372
 -19.0725
 -6.96268
 -7.13091
 -7.39813
 -7.05547
 -14.1346
 -14.3592
 -14.57
 -14.5206
 -21.8857
 -21.9352
 -21.6822
 -22.0678
 -13.8216
 -13.7895
 -13.5455
 -14.1805
 -9.40754
 -8.91629
 -9.12027
 -8.74005
 -15.5558
 -15.7104
 -15.3677
 -15.2313
 -12.4056
 -12.2781
 -12.6392
 -10.6435
 -11.008
 -1.38693
 -1.45356
 -1.32711
 -1.24657
 -10.4256
 -10.851
 -10.7075
 -10.6842
 -1.21765
 -1.28639
 -1.32863
 -1.35041
 -1.41981
 -1.34711
 -1.65395
 -1.68862
 -9.72624
 -9.94456
 -9.95794
 -9.62047
 -6.41459
 -6.41965
 -6.13095
 -6.53316
 -11.1671
 -11.6361
 -11.5006
 -11.4615
 -8.70641
 -8.41977
 -2.73101
 -2.59159
 -2.65893
 -2.87824
 -19.1676
 -19.3823
 -19.5917
 -19.3471
 -6.61561
 -6.4078
 -6.93615
 -6.69214
 -15.6172
 -15.4147
 -15.0672
 -15.4137
 -2.79444
 -2.58773
 -2.79071
 -2.66724
 -16.9412
 -17.6299
 -17.4501
 -17.5209
 -10.5229
 -10.0058
 -10.4325
 -10.3977
 -4.98492
 -4.65777
 -4.42495
 -4.60639
 -21.5872
 -21.4559
 -21.469
 -21.2555
 -5.64723
 -5.99865
 -5.71443
 -5.65106
 -7.0253
 -6.57479
 -6.91058
 -6.64608
 -19.5879
 -19.6789
 -19.2651
 -19.7937
 -8.36734
 -7.84887
 -8.03606
 -8.03074
 -15.7748
 -16.1035
 -15.8404
 -15.7306
 -15.288
 -14.9195
 -15.0597
 -7.26322
 -6.71287
 -6.91725
 -6.88974
 -15.2974
 -15.6756
 -15.3833
 -15.5601
 -3.78075
 -4.08379
 -4.0378
 -3.78451
 -16.6657
 -16.9636
 -16.9371
 -16.7601
 -16.4032
 -16.2205
 -16.4665
 -16.3071
 -4.27501
 -4.20212
 -4.71674
 -4.4422
 -4.52381
 -4.43187
 -4.71301
 -4.30559
 2.83736
 2.78317
 2.94743
 2.89887
 -13.6519
 -13.1403
 -13.1879
 -1.54609
 -1.88556
 -1.92335
 -1.73661
 -18.702
 -18.2342
 -18.3578
 -18.3794
 -4.16141
 -15.7813
 -15.2403
 -15.31
 -15.6797
 -15.8396
 -15.3124
 -15.444
 1.19667
 1.4226
 1.34341
 1.23709
 1.57627
 1.53115
 1.5968
 1.66241
 -18.2415
 -17.7552
 -18.1277
 -18.4806
 -4.54709
 -4.41988
 -4.68847
 -4.36241
 -12.2193
 -12.0395
 -12.4977
 -5.95212
 -5.67574
 -5.93137
 -5.5141
 -7.25825
 -7.2745
 -7.17419
 -15.6363
 -15.4954
 -16.1434
 -10.2446
 -10.5618
 -10.5774
 -10.2707
 -6.09643
 -5.75074
 -5.7565
 -6.0058
 -4.26337
 -4.37426
 -4.21798
 -4.34208
 -12.2754
 -12.5866
 -12.6259
 -2.64158
 -2.79125
 -2.37906
 -2.36619
 -4.46369
 -4.97389
 -4.58368
 -6.95631
 -7.5239
 -7.37546
 -7.19851
 -3.99364
 -4.27729
 -4.27911
 -4.17326
 -4.3588
 -4.71747
 -4.79088
 -4.69269
 -15.9909
 -15.6081
 -15.6906
 -15.5949
 -7.70911
 -7.40082
 -7.5863
 -7.81309
 -5.43202
 -5.42176
 -9.35465
 -9.10462
 -9.25967
 -8.88444
 -17.426
 -18.7179
 -18.8613
 -18.7785
 -18.71
 3.09655
 3.14826
 3.16481
 3.09612
 -14.5952
 -15.1085
 -14.7628
 -20.416
 -20.3757
 -20.0679
 -20.3486
 -13.5567
 -12.9383
 -13.1378
 -12.9788
 -4.15998
 -4.2664
 -4.42452
 -4.15334
 -7.38022
 -7.11584
 -7.06437
 -6.97816
 -20.7828
 -20.8233
 -20.7252
 -20.6059
 -13.6596
 -13.2976
 -13.0323
 -13.3784
 -2.46566
 -2.22901
 -2.21037
 -2.59571
 -6.87495
 -6.90951
 -6.99752
 -6.45014
 -6.42867
 -6.59422
 -6.7595
 -6.46894
 3.11397
 3.14275
 3.14364
 3.10026
 -3.7591
 -3.69537
 -3.61851
 -3.86014
 -13.7142
 -14.3164
 -13.7473
 -14.0104
 -10.5364
 -10.4983
 -10.9155
 -10.3774
 -7.8196
 -8.02212
 -8.34537
 -7.9925
 -12.7608
 -13.2534
 -13.0843
 -13.0901
 -10.6203
 -10.6766
 -11.0168
 -10.6144
 -12.9684
 -12.9165
 -12.6224
 -13.4461
 -21.6592
 -21.0002
 -21.1607
 -21.797
 -14.5275
 -14.2361
 -14.1396
 -13.5171
 -12.6227
 -12.2882
 -12.0686
 -12.56
 -12.0197
 -9.29502
 -9.26559
 -9.01612
 -9.67055
 -18.7676
 -18.6162
 -18.4885
 -18.4798
 -7.61974
 -7.38458
 -7.72744
 -7.59675
 -10.2417
 -10.4298
 -10.6434
 -9.98387
 -8.68894
 -8.28051
 -8.57475
 -8.90249
 -6.14715
 -5.67599
 -6.04227
 -5.74524
 0.0302105
 -0.0871427
 -0.400917
 0.0187093
 -22.1195
 -21.5011
 -11.6377
 -11.3673
 -11.3492
 2.34695
 2.33534
 2.34241
 -4.94907
 -4.71862
 -4.86459
 -4.61017
 -1.4037
 -1.46689
 -1.08937
 -1.05779
 -3.55178
 -3.40432
 -3.61636
 -3.21686
 -18.8628
 -18.1281
 -18.5045
 -18.5004
 -9.33662
 -8.88963
 -9.03704
 -8.83546
 -12.2122
 -12.74
 -12.6652
 -13.0903
 -10.5181
 -10.5067
 -10.1316
 -9.96667
 -13.1268
 -13.2525
 -12.914
 -12.9922
 -8.03946
 -8.02653
 -15.653
 -14.5612
 -15.6246
 -14.7016
 -13.2482
 -12.9436
 -12.7252
 -13.5185
 -4.84486
 -4.4996
 -4.89395
 -4.55766
 -4.9032
 -5.00325
 -4.99339
 -5.02317
 -10.0028
 -10.0263
 -9.88227
 -10.1827
 -9.53325
 -9.72473
 -9.99768
 -10.2711
 -3.49127
 -3.11905
 -3.02818
 -3.55572
 -12.7807
 -12.5022
 -12.355
 -12.2718
 -21.0827
 -20.8205
 -20.9806
 -20.9007
 -16.2025
 -15.9263
 -16.0069
 -15.7997
 -21.6705
 -21.8746
 -21.5417
 -21.9444
 -16.9501
 -17.4112
 -17.2684
 -17.3121
 -9.10001
 -9.58741
 -9.13369
 -9.24568
 -12.4058
 -12.0631
 -8.23973
 -8.70411
 -8.13039
 -8.4055
 -4.76305
 -5.03014
 -5.01241
 -5.11853
 -14.2791
 -14.8153
 -14.8515
 -14.3698
 -8.08757
 -7.97054
 -8.1027
 -7.69431
 -7.00881
 -6.73568
 -6.64465
 -6.79871
 -4.24357
 -4.26158
 -4.4095
 -4.63586
 -5.39163
 -5.30294
 -5.18192
 -5.65306
 -4.50725
 -4.67456
 -4.76289
 -4.60298
 -0.254752
 -0.310421
 -0.14857
 -0.187417
 -13.8275
 -13.9923
 -13.4591
 -13.8675
 -11.8996
 -12.0374
 -0.746464
 -0.878643
 -0.842595
 -0.564791
 -5.86065
 -5.96011
 -11.4274
 -11.1114
 -11.485
 -16.0764
 -16.1223
 -3.72451
 -3.68183
 -3.55574
 -3.87087
 -0.541195
 -0.70651
 -0.68678
 -0.75532
 -3.20667
 -3.35644
 -3.5328
 -3.60228
 -5.80915
 -5.98424
 -6.08156
 -6.16351
 -10.7341
 -10.2156
 -10.2053
 -10.254
 -12.089
 -11.9001
 -11.8486
 -11.7557
 -5.64559
 -5.98222
 -5.99125
 -5.89839
 -10.2334
 -10.1704
 -10.3601
 -9.76252
 -8.89913
 -8.62361
 -8.54503
 -8.74317
 -9.47935
 -9.77232
 -9.97777
 -9.76054
 -9.74212
 -9.21905
 -9.80201
 -8.2133
 -7.94456
 -8.52755
 -8.27953
 -6.43347
 -6.57585
 -6.24079
 -6.34559
 -4.51387
 -4.76039
 -4.36704
 -4.73616
 -18.5555
 -18.4179
 -18.715
 -18.9991
 -7.68525
 -7.67041
 -8.01716
 -8.02067
 -3.08964
 -3.06909
 -2.71464
 -3.00041
 -2.49152
 -2.48199
 -2.43429
 -2.33046
 -3.34856
 -3.18351
 -3.19384
 -3.30379
 -4.38706
 -4.35861
 -4.70819
 -4.76819
 -4.49858
 -4.30832
 -4.22849
 -4.35232
 -17.9563
 -18.2537
 -18.2014
 -18.2712
 -7.16023
 -7.15154
 -7.07571
 -7.4277
 -13.4062
 -13.6462
 -13.3144
 -13.1705
 -4.57857
 -4.9445
 -4.48419
 -4.7824
 -19.0242
 -19.244
 -19.1979
 -19.7473
 -19.8734
 -19.8228
 -20.1917
 -12.9975
 -12.107
 -12.4162
 -12.4447
 -5.08881
 -5.22269
 -4.89565
 -5.14531
 -20.9482
 -20.4056
 -20.5403
 -6.77143
 -6.49188
 -6.66125
 -6.22324
 -16.8886
 -16.9697
 -15.9508
 -16.1211
 -16.5786
 -16.0108
 -6.19207
 -5.96941
 -6.09736
 -2.76039
 -2.8674
 -2.542
 -2.66042
 -4.59968
 -4.39344
 -4.68478
 -4.72305
 -8.83945
 -9.27132
 -8.75383
 -19.3788
 -18.5141
 -18.5978
 -13.0761
 -12.6124
 -12.4093
 -12.6847
 -19.4837
 -19.451
 -18.7759
 -19.9699
 -7.10662
 -7.48637
 -7.66802
 -7.40677
 -16.8921
 -17.0372
 -17.3035
 -16.5205
 -9.05625
 -9.1476
 -8.86406
 -8.70838
 -5.36608
 -5.07921
 -5.23994
 -20.6123
 -20.181
 -20.4053
 -21.0593
 -11.892
 -10.3646
 -10.8564
 -10.7397
 -10.4834
 -10.949
 -10.9708
 -10.6558
 -5.15527
 -4.99085
 -4.98152
 -4.96749
 -4.95777
 -5.33674
 -7.38506
 -7.01201
 -6.96809
 -6.87328
 -7.09306
 -7.51559
 -7.17862
 -7.42181
 -12.7443
 -21.0764
 -20.435
 -20.269
 -20.6954
 0.676601
 0.928606
 0.75581
 0.775878
 -5.93451
 -5.70432
 -5.1615
 -5.05424
 -5.18785
 -5.26265
 -4.9356
 -4.97524
 -4.57767
 -4.728
 -13.4217
 -12.8862
 -12.9833
 -13.248
 -13.8627
 -14.1532
 -13.5808
 -13.919
 -5.5644
 -5.30298
 -12.2724
 -12.2594
 -12.8478
 -12.464
 -12.6216
 -13.0962
 -12.6399
 -9.97328
 -9.70382
 -9.48782
 -9.34398
 -7.68074
 -7.33738
 -7.62895
 -7.33185
 -13.5579
 -14.1561
 -14.0914
 -13.6562
 -15.1638
 -15.391
 -15.6492
 -15.2496
 -14.2809
 -14.8044
 -14.385
 -13.8681
 -14.0606
 -13.9054
 -13.4913
 -7.28286
 -7.39211
 -7.41443
 -7.14161
 -1.67527
 -1.64757
 -1.79832
 -1.82074
 -6.34627
 -6.28956
 -6.1245
 -6.2091
 -15.1018
 -14.6348
 -14.3203
 -14.78
 -12.1942
 -12.0808
 -12.0182
 -12.4737
 -6.43621
 -6.63923
 -6.739
 -6.80056
 -12.187
 -11.7181
 -11.9912
 -12.154
 -9.72547
 -9.87092
 -9.24039
 -9.8419
 -9.78958
 -10.1949
 -10.0488
 -10.1519
 -11.9644
 -12.2014
 -12.2105
 -18.5651
 -18.6758
 -18.4452
 -18.5477
 -6.22126
 -6.55327
 -6.38968
 -6.4536
 -8.35037
 -8.75134
 -8.68194
 -8.57181
 -1.93534
 -1.75798
 -1.77988
 -2.03059
 -4.28369
 -4.52171
 -4.47782
 -4.32908
 -4.71418
 -4.2191
 -4.4341
 -4.15628
 -4.11812
 -4.28017
 -4.24184
 -4.35182
 -9.59238
 -9.34818
 -9.45447
 -3.07703
 -3.02639
 -3.14719
 -3.19243
 -3.74939
 -3.86497
 -4.09468
 -3.78676
 -20.5338
 -20.1434
 -20.0821
 -20.3326
 -9.81091
 -9.56181
 -9.4258
 -9.26444
 -15.3297
 -15.3992
 -15.1933
 -14.8666
 -10.6111
 -10.805
 -10.5163
 -10.2559
 -11.8329
 -12.1969
 -11.8693
 -11.9891
 -5.10256
 -4.83102
 -4.97838
 -4.60013
 -8.56374
 -9.29088
 -8.7437
 -8.79586
 -15.2974
 -15.5908
 -15.1701
 -15.3159
 -10.8998
 -10.7442
 -11.2873
 -11.1528
 -3.96095
 -3.83766
 -4.17662
 -4.2607
 -18.4443
 -18.6191
 -18.5453
 -18.6776
 -6.58286
 -6.27276
 -3.72193
 -8.59032
 -8.77443
 -9.01124
 -8.49072
 -7.59682
 -7.90591
 -7.5106
 -7.45418
 -0.839893
 -0.794169
 -1.07036
 -6.04355
 -5.74479
 -5.66604
 -5.48485
 -10.6992
 -11.4032
 -11.1234
 -11.4747
 -8.97363
 -9.30568
 -9.10413
 -8.98465
 -17.5383
 -17.7501
 -17.7919
 -17.6589
 -4.40479
 -4.87758
 -4.5495
 -4.94206
 -4.92702
 -4.83434
 -5.24768
 -1.3212
 -0.957976
 -1.13365
 -1.31875
 -4.27498
 -4.61724
 -4.39087
 -10.4081
 -11.2644
 -10.5393
 -4.09797
 -4.07137
 -3.83222
 -3.94771
 -7.65735
 -8.00259
 -8.09823
 -8.04304
 3.08578
 3.09032
 3.08642
 2.96846
 -7.22044
 -7.07961
 -7.12337
 -3.06311
 -3.01972
 -3.06339
 -3.07055
 -7.24235
 -7.06779
 -6.75392
 -7.05175
 -3.93439
 -4.19763
 -4.18291
 -4.294
 -12.4882
 -12.6696
 -12.3857
 -12.7912
 -13.7414
 -13.3907
 -13.7368
 -13.91
 -19.9006
 -19.8833
 -20.0922
 -19.618
 -10.0658
 -9.55521
 -9.98529
 -10.1295
 -3.7664
 -3.48988
 -3.73927
 -3.58309
 -5.34989
 -5.21308
 -2.04603
 -2.04178
 -2.14003
 -2.12943
 -8.03302
 -8.17888
 -6.06581
 -6.5728
 -6.4734
 -4.75196
 -4.92887
 -5.07959
 -4.89196
 -18.543
 -18.6783
 -18.0232
 -18.1231
 -17.9766
 -17.8171
 -17.6067
 -17.8778
 -5.08823
 -5.22852
 -5.05039
 -4.75673
 -3.09146
 -3.16152
 -10.6307
 -10.7402
 -10.6177
 -11.0386
 -4.82805
 -4.6859
 -4.95391
 -4.90615
 -6.58892
 -6.17506
 -6.90453
 -21.8539
 -22.0066
 -21.6541
 -8.8904
 -9.38886
 -9.17051
 -9.21124
 -16.5265
 -17.1354
 -16.4305
 -16.1908
 -9.52364
 -9.9073
 -9.98555
 -9.50147
 -13.4782
 -13.8706
 -13.9538
 -13.2352
 -3.67542
 -3.92236
 -3.71254
 -3.60389
 -4.69262
 -5.07916
 -4.57588
 -4.96886
 -9.67947
 -9.27646
 -10.0057
 -9.51009
 -6.2383
 -6.61786
 -6.72382
 -6.19864
 -3.63952
 -3.7531
 -3.85863
 -4.14098
 -7.71364
 -7.89513
 -8.1207
 -8.30602
 -11.756
 -11.8481
 -11.5571
 -9.37442
 -9.77023
 -9.4991
 -9.74046
 2.00928
 1.7793
 1.67683
 1.82334
 -3.10177
 -3.10106
 -3.14522
 -3.12018
 -6.03083
 -5.98669
 -6.01516
 -6.33512
 -0.55586
 -0.769449
 -0.420924
 -0.649086
 -16.5305
 -16.4474
 -16.0876
 -20.3351
 -20.0423
 -19.6718
 -20.0023
 -14.2305
 -15.0664
 -14.7183
 -14.7208
 -9.24154
 -11.7049
 -12.2053
 -12.4052
 -12.0236
 -8.57866
 -8.86322
 -8.39307
 -8.41939
 -3.33379
 -3.02676
 -3.20339
 -4.91645
 -5.01264
 -5.09745
 -4.66527
 1.90311
 2.13239
 1.93227
 2.22872
 -1.07047
 -1.04703
 -1.17134
 -1.06018
 -5.83207
 -5.82406
 -6.04067
 -6.24709
 -20.7875
 -20.1653
 -20.3542
 -20.2838
 1.33458
 1.33976
 1.11274
 1.19518
 -12.8935
 -13.2759
 -12.5801
 -13.0228
 -9.40391
 -9.42552
 -9.81876
 -9.4676
 -5.15333
 -4.63169
 -4.62487
 -8.05796
 -7.66146
 -7.57651
 -7.58918
 -20.2203
 -20.2723
 -20.4272
 -3.55115
 -4.01647
 -4.09008
 -7.36281
 -7.54587
 -7.9389
 -7.86043
 -5.82585
 -5.74115
 -5.66317
 -5.57051
 -6.18337
 -6.11904
 -6.49875
 -6.58135
 -3.02493
 -2.85378
 -2.84865
 -3.15655
 -8.02114
 -8.27455
 -7.89488
 -8.32868
 -18.7607
 -17.9386
 -17.9863
 -17.5873
 -17.4537
 -17.2505
 -17.1366
 -17.6898
 -2.56699
 -2.58016
 -2.64961
 -2.54841
 -16.0694
 -16.2147
 -16.1465
 -15.638
 -18.2165
 -18.8276
 -18.6173
 -18.0195
 -15.878
 -15.8867
 -15.305
 -15.3831
 -11.5787
 -11.4406
 -11.8032
 -11.6079
 -8.76697
 -8.48347
 -8.91993
 -5.84265
 -5.34808
 -5.51557
 -5.59288
 -13.7681
 -13.454
 -13.1123
 -13.6948
 -14.368
 -14.4958
 -14.7802
 -14.6218
 -22.1792
 -22.1799
 -21.6191
 -21.9515
 -0.954034
 -1.13022
 -1.0744
 -1.11268
 -2.12424
 -2.01364
 -2.06796
 -2.23579
 -3.13597
 -3.10848
 -3.48191
 -3.09245
 -6.07863
 -5.64292
 -5.94746
 -5.93497
 -6.64076
 -6.67953
 -6.65876
 -18.5176
 -18.8995
 -19.3926
 -19.097
 -14.8934
 -14.7152
 -14.458
 -14.3834
 -8.166
 -7.90139
 -7.79618
 -8.02046
 -17.7221
 -18.0739
 -10.4853
 -10.5221
 -10.515
 -10.1155
 -17.3821
 -17.6253
 -18.1377
 -17.6384
 -9.80126
 -10.3284
 -9.68628
 -10.4021
 -5.75126
 -5.987
 -5.50866
 -5.71817
 -2.1367
 -1.92751
 -2.10493
 -2.31739
 2.12882
 1.92503
 2.23059
 2.02724
 -16.6113
 -16.364
 -16.295
 -16.6996
 -17.7242
 -17.755
 -17.8301
 -18.1529
 -7.22183
 -6.78545
 -7.07982
 -6.87416
 -9.0834
 -8.87233
 -8.81519
 -9.11713
 -4.5395
 -4.2564
 -4.74053
 -10.9642
 -10.6545
 -10.685
 -10.485
 -4.50195
 -4.43432
 -4.63435
 -4.65478
 -8.48774
 -8.1055
 -7.81569
 -8.04401
 -11.8501
 -11.6072
 -11.7637
 -11.891
 -9.45123
 -9.31759
 -9.20175
 -16.1044
 -15.6039
 -15.8028
 -15.7936
 -11.2229
 -11.7638
 -0.311847
 -0.667073
 -0.244362
 -0.424216
 -13.8269
 -13.5546
 -13.7706
 -5.20072
 -5.29117
 -5.31121
 -5.18281
 -11.1498
 -11.1273
 -10.9649
 -8.56289
 -8.19902
 -8.62389
 -8.3484
 -10.9728
 -10.4655
 -11.1992
 -10.8087
 -11.3357
 -11.8389
 0.994827
 0.987159
 1.14797
 1.00367
 1.79269
 2.02652
 2.14688
 1.91422
 -8.95813
 -8.48476
 -8.66476
 -8.46936
 -10.7844
 -10.5238
 -10.7492
 -10.4065
 0.849183
 0.887888
 0.846829
 0.652188
 -4.97274
 -4.63135
 -2.93421
 -3.0026
 -3.07544
 -3.31805
 -11.422
 -11.2956
 -11.8768
 -11.5404
 -10.4464
 -10.5351
 -10.9292
 -10.2617
 -11.0758
 -10.6182
 -10.5261
 -10.6052
 -5.83318
 -5.87156
 -6.14846
 -5.82855
 -3.90403
 -3.78888
 -3.54891
 -3.92819
 -1.48714
 -1.78386
 -1.74812
 -1.49045
 -4.00158
 -4.00703
 -4.0168
 -4.47286
 -13.7929
 -13.4974
 -13.9785
 -13.745
 -8.94974
 -8.06878
 -8.51729
 -0.694773
 -0.836378
 -1.04209
 -12.2664
 -12.959
 -12.5996
 -12.5992
 -12.726
 -11.9676
 -12.3263
 -12.5256
 -7.25847
 -7.02169
 -6.89256
 -7.82848
 -7.96982
 -8.30741
 -7.96861
 -3.80697
 -3.64022
 -3.57946
 -3.5847
 -15.6452
 -15.4649
 -15.8427
 -15.6861
 -3.27737
 -3.22278
 -3.23628
 -3.33284
 -3.03992
 -2.88703
 -3.03809
 -20.0531
 -20.7211
 -20.9795
 -20.526
 -15.582
 -15.9251
 -5.33781
 -5.19029
 -5.50341
 -5.42572
 -8.62215
 -9.05096
 -8.65332
 -7.83654
 -7.66749
 -7.74415
 -7.39755
 -3.64675
 -3.9022
 -3.75044
 -15.1658
 -15.5
 -14.7849
 -14.9868
 -3.6596
 -4.06614
 -3.77441
 -3.7037
 -13.006
 -12.614
 -12.3753
 -12.5151
 -3.37649
 -3.50146
 -3.99669
 -3.67699
 -3.91215
 -3.78945
 -5.12795
 -4.96126
 -5.04844
 -5.13404
 -1.13857
 -1.02504
 -0.780726
 -0.996991
 -14.0296
 -14.5033
 -6.12959
 -6.33553
 -6.38773
 -6.35128
 -19.8848
 -19.6963
 -19.8001
 -20.0484
 -5.89845
 -5.67787
 -6.07031
 -6.34799
 -14.8204
 -15.3287
 -15.462
 -15.441
 -17.7406
 -18.3131
 -17.4345
 -18.1205
 -12.9364
 -12.4298
 -18.6401
 -19.0929
 -18.9447
 -18.7424
 -3.67724
 -3.64585
 -3.59847
 -3.89979
 -18.6838
 -18.8082
 -18.8438
 -18.6534
 -20.5587
 -21.0828
 -20.9091
 -20.5863
 -10.4391
 -10.4533
 -10.8609
 -10.7255
 -8.05302
 -7.88777
 -8.30958
 -8.51186
 -17.1009
 -16.4887
 -16.8975
 -17.109
 -0.608286
 -0.881608
 -0.692564
 -0.55079
 -16.7903
 -17.4361
 -6.13482
 -6.37209
 -6.41452
 -6.74569
 -16.6867
 -16.3864
 -15.9836
 -16.0341
 -3.87474
 -4.15643
 -4.10718
 -4.08576
 -6.763
 -6.25397
 -6.43995
 -6.69483
 -4.36335
 -4.27422
 -4.66632
 -3.82198
 -3.67285
 -3.8426
 -3.58277
 -3.21685
 -3.44041
 -3.3677
 -3.48147
 -10.7197
 -10.4157
 -10.2866
 -16.1532
 -16.1928
 -16.6256
 -16.6224
 -9.60467
 -9.38102
 -9.19217
 -3.87697
 -3.66772
 -3.8334
 -8.66484
 -9.21412
 -8.73013
 -9.07686
 -11.1842
 -11.12
 -11.1951
 -11.7153
 -7.53534
 -7.94214
 -8.00239
 -7.85568
 -7.17214
 -7.01098
 -6.89108
 -6.59837
 -6.38689
 -6.32123
 -6.86973
 -7.08357
 -7.29121
 -6.70725
 -16.2799
 -16.159
 -16.3125
 -15.866
 -12.427
 -12.1255
 -12.409
 -12.5813
 -7.94882
 -8.0182
 -7.81951
 -8.38282
 -3.62422
 -3.40904
 -3.59383
 -9.70493
 -9.44413
 -9.67578
 -9.77229
 -5.41621
 -5.00267
 -5.18306
 -4.98241
 0.324692
 0.225713
 0.364013
 0.438113
 -6.63881
 -6.44898
 -6.5705
 -6.53869
 -16.9174
 -16.7654
 -17.302
 -17.1024
 -6.4114
 -6.80484
 -6.57575
 -6.3729
 -3.42187
 -3.40973
 -3.51249
 -3.61217
 -3.77421
 -3.59579
 -3.6035
 -7.82631
 -7.89452
 -7.77167
 -11.5097
 -6.31863
 -5.77604
 -6.09308
 -6.08114
 -17.8126
 -17.6941
 -18.0054
 -16.9737
 -17.0828
 -17.2891
 -6.23628
 -6.57437
 -6.315
 -6.51939
 -20.3999
 -20.6334
 -20.7831
 -20.7998
 -4.01905
 -10.3929
 -9.99053
 -10.2859
 -10.1606
 -4.12646
 -4.2493
 -4.20583
 -4.26011
 -17.529
 -17.8774
 -17.1938
 -17.5547
 -11.9583
 -12.6049
 -12.3696
 -12.0901
 -14.3383
 -14.6448
 -14.0215
 -14.1695
 -3.23684
 -3.31888
 -3.42476
 -3.23219
 -5.51989
 -5.80112
 -5.49734
 -5.52535
 -9.74057
 -9.47576
 -9.7942
 -9.37305
 -5.87395
 -5.51583
 -5.9977
 -5.65474
 -11.6629
 -11.863
 -12.2914
 -12.1844
 -4.19052
 -4.08695
 -4.38739
 -4.35803
 -5.32047
 -5.44673
 -5.73538
 -5.57621
 -10.4611
 -10.509
 -10.4673
 -10.9487
 -17.7032
 -18.2286
 -17.9317
 -18.314
 -3.0643
 -3.16616
 -3.37116
 -3.30936
 -1.26886
 -0.9378
 -1.28184
 -1.24068
 -17.972
 -18.4856
 -18.2335
 -18.2707
 -1.44864
 -1.20739
 -1.6706
 -1.538
 -1.46871
 -1.73462
 -8.70733
 -8.88031
 -8.54154
 -8.32916
 -5.45802
 -5.66062
 -5.65173
 -5.34823
 -21.9799
 -22.0794
 -22.0714
 -21.8299
 -17.4871
 -17.4281
 -18.0317
 -11.8501
 -11.8031
 -12.2051
 -11.6832
 -3.75748
 -3.8308
 -3.54619
 -3.92422
 -5.2341
 -5.17309
 -5.07224
 -4.96507
 -5.17382
 -5.37985
 -11.9702
 -12.7228
 -12.4751
 -12.1509
 -11.1402
 -11.1249
 -10.7492
 -11.2396
 -12.5287
 -12.455
 -12.0406
 -12.5057
 -20.2143
 -20.2614
 -19.4591
 -20.4981
 -13.5242
 -13.5127
 -13.0571
 -6.71477
 -9.38753
 -9.26173
 -9.36797
 -9.07296
 -9.58899
 -9.12949
 -9.27726
 -9.46294
 -15.6728
 -15.4893
 -15.4299
 -15.1572
 -13.5739
 -13.2607
 -13.3127
 -13.7194
 -10.756
 -10.3911
 -10.3461
 -6.09226
 -5.829
 -6.14635
 -5.67488
 -9.24642
 -9.88507
 -9.51814
 -9.56366
 -6.48976
 -6.7217
 -6.31757
 1.27048
 1.28157
 1.42871
 1.17401
 -16.025
 -16.8845
 -16.5066
 -15.9891
 -15.275
 -16.1383
 -15.6733
 1.03577
 -9.75552
 -9.83298
 -9.6958
 -10.1954
 -10.6562
 -10.7231
 -1.96838
 -2.0164
 -1.98192
 -2.07766
 -3.2319
 -3.33229
 -3.63562
 -3.22596
 -4.85987
 -5.03137
 -4.92767
 -4.71923
 -4.40153
 -4.55673
 -4.71812
 -4.38665
 -4.35544
 -4.59967
 -6.79115
 -6.50156
 -6.39344
 -6.40012
 -7.14966
 -7.52243
 -22.2507
 -22.2501
 -3.83072
 -4.28186
 -3.78122
 -4.07603
 -7.8312
 -7.71086
 -7.99163
 -7.55769
 -2.89406
 -2.99116
 -2.5435
 -2.65674
 -16.5538
 -16.8674
 -16.1168
 -16.4311
 -15.0792
 -14.6727
 -15.0449
 -14.636
 -11.589
 -11.9281
 -11.9854
 -11.7449
 -9.6677
 -9.81505
 -10.3927
 -10.165
 -8.93855
 -8.75314
 -3.75052
 -13.0803
 -13.5473
 -13.4927
 -13.5646
 -19.7219
 -19.5519
 -20.2527
 -19.4475
 -15.569
 -16.1366
 -15.4439
 -15.6821
 3.07162
 3.07715
 3.0448
 2.98357
 -19.724
 -19.8424
 -19.6853
 -19.6998
 -4.74592
 -4.75
 -4.45702
 -4.90915
 -6.12785
 -5.75339
 -5.90003
 -5.63046
 -12.5629
 -12.6197
 -12.8581
 -12.9689
 -12.675
 -12.5207
 -12.309
 -12.4302
 -3.76908
 -4.21133
 -3.98002
 -4.09652
 -19.1928
 -19.346
 -19.1263
 -19.2117
 -16.7749
 -17.0164
 -16.9024
 -17.1909
 -13.0579
 -13.13
 -13.468
 -13.4894
 -17.055
 -16.6598
 -16.908
 -17.0291
 -5.39645
 -5.73199
 -5.73623
 -5.8464
 -3.8249
 -3.87581
 -3.97596
 -4.0404
 -16.1228
 -15.8061
 -15.5996
 -15.7204
 -7.53093
 -7.43387
 -7.34322
 -7.02718
 -7.97689
 -7.79829
 -7.71672
 -7.94299
 1.78368
 1.64406
 1.56983
 1.62966
 -19.2863
 -19.4019
 -17.5313
 -17.5909
 -17.2068
 -17.891
 -2.58426
 -2.33934
 -2.2554
 -2.63969
 -5.59793
 -5.17151
 -5.15153
 -5.01058
 -16.9062
 -16.5836
 -17.2159
 -17.249
 -6.98523
 -7.09506
 -6.8947
 -7.2771
 -6.40599
 -6.51508
 -6.12484
 -6.1535
 -19.9532
 -20.0965
 -19.8384
 -19.8136
 -9.50701
 -9.37725
 -9.50745
 -9.67586
 -8.55765
 -8.68046
 -8.59327
 -8.31445
 -14.5055
 -14.6921
 -14.8454
 -14.4851
 -11.8049
 -11.6399
 -11.5176
 -11.2537
 -7.09463
 -7.13159
 -6.69226
 -5.61307
 -5.88824
 -5.71173
 -6.20781
 -1.87403
 -1.73987
 -1.71966
 -2.11447
 -6.07701
 -6.27795
 -6.34518
 -6.40748
 -9.09368
 -8.86117
 -9.03014
 -8.76071
 -19.8599
 -20.044
 -20.0002
 -19.4099
 -6.17387
 -6.77237
 -6.45424
 -6.42673
 -2.75858
 -2.74857
 -2.53917
 -2.36565
 -12.7904
 -13.2582
 -13.0335
 -12.7078
 -10.9731
 -10.875
 -10.6671
 -9.23048
 -9.73989
 -9.85479
 -9.98168
 -1.57891
 -1.56173
 -1.57877
 -1.78337
 -9.84928
 -9.48832
 -9.61884
 -9.36219
 -18.9647
 -19.0069
 -18.9815
 -19.0602
 -9.43562
 -9.38843
 -9.54454
 -9.63019
 -3.11117
 -2.94876
 -3.05443
 -3.14332
 -4.24618
 -4.46746
 -4.23287
 -3.97989
 -22.413
 -22.2565
 -22.4176
 -22.4154
 -5.36944
 -5.44802
 -5.39495
 -4.96069
 -10.8621
 -10.2462
 -10.401
 -10.5992
 -22.1132
 -22.1731
 -21.8992
 -21.8403
 -17.7948
 -18.4916
 -18.0739
 -12.8845
 -12.8403
 -13.3891
 -13.5454
 -16.4035
 -16.5286
 -17.1021
 -16.2339
 0.476543
 0.306637
 0.153571
 0.212067
 -4.39923
 -4.73043
 -4.25313
 -18.9149
 -19.3864
 -19.2831
 -19.4122
 -10.6793
 -10.5389
 -10.961
 -10.3791
 -14.3586
 -14.2114
 -14.8229
 -13.9028
 -3.18663
 -3.15676
 -2.91078
 -2.79581
 -6.89066
 -7.3208
 -6.8458
 -7.15002
 -11.7255
 -11.0337
 -11.2792
 -2.19785
 -2.29404
 -2.42393
 -2.4034
 -4.06169
 -3.53977
 -3.71525
 -3.60854
 -6.44064
 -18.9545
 -19.2636
 -19.0023
 -19.358
 0.0363657
 0.0417468
 0.249185
 0.250889
 -14.2944
 -15.1184
 -14.7183
 -15.2262
 -11.1082
 -10.8078
 -10.9007
 -10.4756
 1.32018
 -15.4963
 -15.15
 -15.7371
 -18.7926
 -19.4366
 -19.0466
 -19.0903
 -8.00701
 -8.02413
 -8.60389
 -8.20899
 -12.0264
 -12.0203
 -12.3638
 -11.7752
 -4.66862
 -4.36921
 -8.69348
 -8.50943
 -8.49449
 -8.89913
 -4.68301
 -4.48828
 -4.3038
 -4.55134
 -5.78019
 -5.64372
 -6.11712
 -6.12054
 -12.9209
 -12.5897
 -12.9122
 -13.0224
 -0.779066
 -0.746632
 -0.741414
 -1.05101
 -3.74503
 -3.59019
 -3.70475
 -3.51323
 -1.2899
 -1.48075
 -2.92763
 -2.92831
 -2.95369
 -2.93436
 -2.58454
 -2.38985
 -2.69053
 -2.44495
 -19.8394
 -19.6466
 -19.1953
 -19.2124
 -10.4471
 -10.4212
 -10.2484
 -10.8676
 -6.78744
 -7.29077
 -6.96918
 -7.00233
 -9.31387
 -9.15823
 -9.05944
 -9.4327
 -19.5496
 -19.4413
 -2.09569
 -1.97124
 -1.99955
 -2.09722
 -19.4083
 -19.5593
 -19.1429
 -0.247294
 -0.178791
 -0.233706
 -0.114255
 -18.1622
 -17.557
 -18.0118
 -17.6926
 -5.9997
 -5.76753
 -6.09688
 -5.73993
 -7.74485
 -7.76392
 -7.61337
 -19.0288
 -18.7344
 -18.8639
 -19.1181
 -10.2026
 -9.80574
 -10.2343
 -9.92969
 -7.90681
 -8.10515
 -8.40412
 -8.07282
 -6.13506
 -5.9637
 -7.00251
 -6.39734
 -6.82314
 -6.60524
 -11.0569
 -10.5969
 -10.8244
 -19.9663
 -19.3201
 -19.2385
 -19.8359
 -7.58179
 -7.81687
 -7.54021
 -7.65724
 -6.9213
 -6.7051
 -5.54069
 -5.23781
 -5.14757
 -5.45984
 -0.619799
 -0.65802
 -0.906923
 -10.1619
 -10.2602
 -9.72177
 -9.71585
 -19.5475
 -19.5912
 -19.6062
 -1.28733
 -1.1582
 -1.29006
 -7.57507
 -7.32156
 -7.49561
 -7.16309
 -12.1217
 -12.1555
 -11.651
 -11.825
 0.341246
 0.440336
 0.369792
 0.316257
 -16.4998
 -16.6657
 -16.4047
 -16.317
 -12.4468
 -12.1633
 -12.2091
 -12.002
 -15.5164
 -15.657
 -15.3388
 -18.7358
 -18.8735
 -19.4784
 -19.0535
 -9.049
 -8.57703
 -8.98762
 -9.06713
 -18.4708
 -18.2901
 -18.2013
 -18.0518
 -6.05235
 -5.95464
 -6.17852
 -5.78755
 -19.792
 -11.5162
 -8.49594
 -8.34802
 -8.69503
 -8.24248
 -11.0747
 -10.9515
 -10.6303
 -10.5486
 -13.6142
 -13.7189
 -13.4279
 -13.0815
 -11.1732
 -11.0197
 -11.4767
 -11.2625
 -14.2336
 -13.922
 -14.3189
 -14.258
 -8.50934
 -8.27312
 -8.3965
 -8.72644
 -7.95269
 -8.05555
 -8.13165
 -8.30482
 -6.83503
 -6.73425
 -6.61766
 -7.0289
 -8.1848
 -8.16848
 -7.83782
 -3.44532
 -3.49561
 -3.45019
 -3.66211
 -8.89567
 -12.0385
 -12.5382
 -12.5932
 -12.3918
 -19.0906
 -19.1374
 -18.515
 -5.68207
 -5.21141
 -5.38953
 -5.25523
 -9.40336
 -9.89357
 -9.73447
 -11.1908
 -11.0654
 -10.84
 -10.7389
 -12.2126
 -12.4049
 -12.8254
 -12.9752
 -17.2606
 -17.5205
 -17.8511
 -17.4007
 -4.47344
 -4.41257
 -4.60922
 -4.15215
 -9.54991
 -9.30319
 -9.25481
 -9.06635
 -8.20565
 -8.02658
 -7.76394
 -8.21975
 -7.83132
 -7.62857
 -7.5546
 -7.31901
 -8.64675
 -8.523
 -8.75051
 -8.32225
 -13.5722
 -12.7807
 -13.7014
 -13.1451
 -7.85933
 -7.29327
 -7.50554
 -7.59555
 -2.02181
 -2.03167
 -2.01732
 -2.10792
 -1.5734
 -1.7412
 -1.69057
 -8.63132
 -8.7017
 -9.0198
 -9.09701
 -8.85081
 -8.9374
 -9.13231
 -9.28535
 -8.1042
 -7.78608
 -8.3271
 -8.30859
 -18.4425
 -18.5459
 -17.8872
 -17.981
 -13.7028
 -13.2784
 -13.2061
 -13.6917
 -5.24236
 -5.45016
 -5.39268
 -5.47944
 -3.45915
 -3.80372
 -3.74022
 -3.31201
 -16.9542
 -16.7756
 -16.4858
 -16.9588
 -0.0954346
 0.0957493
 0.0444237
 -0.214762
 -6.34994
 -6.68779
 -6.49504
 -6.45503
 -2.84898
 -3.02264
 -2.99057
 -4.33809
 -4.49838
 -4.54763
 -4.80097
 -12.9096
 -12.8269
 -13.1799
 -12.444
 -4.37705
 -3.9825
 -4.1104
 -4.25588
 -1.75672
 -2.31509
 -1.94062
 0.297272
 0.0825262
 -0.0479521
 0.0641818
 -20.5552
 -20.7207
 -20.8533
 -21.2581
 -4.83557
 -4.62412
 -4.79114
 -4.92021
 -10.5311
 -9.97045
 -10.0848
 -10.4029
 -17.9385
 -17.6701
 -17.246
 -17.6138
 -15.1945
 -15.741
 -14.9914
 -15.2699
 -5.08546
 -5.1622
 -4.93509
 -5.07338
 -2.56282
 -2.2683
 -2.02107
 -2.34106
 -9.86144
 -10.1031
 -9.67066
 -9.88892
 -2.70347
 -3.05218
 -7.13847
 -6.60011
 -6.72289
 -6.99158
 -7.49352
 -7.46193
 -7.24968
 -7.6087
 -7.02485
 -7.05415
 -6.87404
 -3.41301
 -3.51154
 -3.41389
 -10.7204
 -10.7321
 -10.8903
 -11.0035
 -10.1367
 -10.0773
 -9.80835
 -10.4673
 -5.09891
 -5.45701
 -5.28636
 -5.14048
 -13.955
 -14.403
 -13.7576
 -13.9407
 -8.48504
 -8.00995
 -8.26448
 -8.62259
 -3.22013
 -3.2182
 -3.16696
 -3.2091
 -6.48963
 -6.77625
 -6.52008
 -10.4589
 -10.4269
 -10.0826
 -10.3527
 -8.9776
 -9.23414
 -9.44824
 -20.3623
 -20.2714
 -20.1063
 -20.0102
 -1.25379
 -1.11371
 -1.28534
 -0.916887
 -6.0202
 -6.34922
 -6.32322
 -6.09066
 -5.72039
 -5.64826
 -5.37422
 -5.73934
 -20.6963
 -20.577
 -21.1376
 -21.4707
 -14.6125
 -14.8515
 -14.7999
 -4.57081
 -4.53934
 -4.38007
 -4.57106
 -14.7129
 -14.1811
 -14.3998
 -4.83265
 -4.86902
 -4.63857
 -4.70327
 2.15329
 2.01918
 2.11673
 1.99984
 -18.1059
 -18.2683
 -18.663
 -17.9972
 -3.46622
 -3.37677
 -3.24878
 -3.02711
 -19.9764
 -19.8924
 -19.8137
 -19.9121
 -4.17969
 -4.51989
 -4.24688
 -4.41528
 2.00706
 2.27035
 2.06598
 2.05074
 -2.06542
 -1.81456
 -2.05204
 -2.156
 -3.60864
 -3.81056
 -4.0115
 -3.55772
 -8.43258
 -7.92292
 -3.37426
 -3.44439
 -2.9737
 -3.03786
 -10.8691
 -10.6176
 -10.4997
 -10.2627
 -8.0311
 -8.0344
 -7.88008
 -8.37755
 -17.7232
 -17.1321
 -18.0914
 -18.1912
 -16.5564
 -16.3608
 -16.8008
 -16.7972
 -15.4316
 -14.9706
 -15.3363
 -15.0032
 -17.1957
 -17.3012
 -17.4226
 -17.0842
 -12.2104
 -12.1175
 -12.5103
 -12.1993
 -15.6604
 -16.1568
 -16.0286
 -15.8443
 -1.51076
 -1.1601
 -1.12256
 -1.53901
 -16.949
 -17.2646
 -17.1599
 -17.087
 -6.98116
 -6.70026
 -6.50426
 -6.64331
 -14.3879
 -13.6521
 -13.8061
 -16.6585
 -17.0952
 -17.1111
 -16.9692
 -3.59089
 -3.26717
 -3.24145
 -3.36701
 -2.0353
 -1.95735
 -1.83066
 -1.89282
 -13.0106
 -12.9464
 -12.7063
 -13.3964
 -7.32163
 -7.28715
 -7.22192
 -6.98787
 -12.2977
 -12.0373
 -12.2601
 -12.15
 -12.1564
 -12.1345
 -12.9657
 -6.49021
 -6.39554
 -6.11855
 -11.9188
 -12.1327
 -9.60655
 -9.10801
 -19.8837
 -20.2011
 -20.1673
 -19.908
 -9.14867
 -9.30028
 -9.07062
 -9.51583
 -11.8745
 -11.7014
 -12.2584
 -11.6967
 -10.4219
 -10.6387
 -10.4162
 -10.7779
 -15.6611
 -14.8466
 -15.0528
 -14.7551
 -14.6792
 -7.43055
 -7.52401
 -7.16125
 -7.15801
 -2.99524
 -2.99614
 -2.99779
 -3.01275
 -11.9523
 -11.5422
 -11.996
 -11.7358
 -12.3884
 -12.202
 -12.0238
 -12.5568
 1.54345
 1.38454
 1.30916
 1.15559
 -8.64123
 -8.98206
 -8.78288
 -8.55611
 -8.30755
 -7.98887
 -7.84798
 -8.15616
 -11.6558
 -11.3383
 -3.58578
 -3.65457
 -3.76877
 -3.61528
 -5.85124
 -6.03253
 -5.94756
 -5.7606
 -4.02265
 -3.89357
 -3.7979
 -3.82449
 -5.41068
 -5.63401
 -5.59261
 -5.3554
 -4.10161
 -4.07348
 -3.94386
 -4.1275
 -14.8323
 -14.5699
 -14.7137
 -15.0405
 -16.9651
 -16.8687
 -16.3992
 -16.7045
 -4.9936
 -4.84419
 -4.66439
 -4.98765
 -8.64031
 -8.34017
 -8.62942
 -8.4449
 -15.4286
 -14.9249
 -15.3423
 -15.0971
 -7.24093
 -7.01912
 -6.99358
 -7.43885
 -4.93489
 -5.17271
 -2.40061
 -2.51882
 -2.58321
 -2.36667
 -7.98613
 -7.86385
 -7.60746
 -7.47241
 -15.6088
 -15.4014
 -15.4575
 -16.0112
 -19.3282
 -18.9843
 -19.1073
 -19.3622
 0.9008
 0.907949
 -6.96816
 -7.29092
 -7.37092
 -7.5059
 -6.44732
 -5.96524
 -6.27074
 -6.28881
 -6.07383
 -5.98807
 -4.25629
 -4.4065
 -4.37526
 -4.50035
 -8.02283
 -8.3497
 -8.52134
 -1.55451
 -1.73389
 -1.74727
 -1.88348
 -16.9014
 -17.2631
 -16.5388
 -16.9771
 -19.0491
 -19.0016
 -18.9732
 -20.6834
 -20.3588
 -19.9213
 -20.3013
 -10.1468
 -10.7479
 -10.553
 -10.6068
 -8.54478
 -9.0255
 -8.37927
 -8.79163
 -14.1561
 -14.8491
 -15.0871
 -14.6892
 -11.6009
 -11.5149
 -11.9353
 -11.5596
 -10.8862
 -11.2606
 -11.0433
 -9.25498
 -9.31695
 -9.12275
 -9.61986
 -13.0918
 -14.0007
 -13.6645
 -13.1777
 -7.30779
 -7.09199
 -7.29366
 -7.35735
 -8.8821
 -8.78104
 -9.22312
 -8.68454
 -12.0201
 -11.9139
 -11.688
 -12.0678
 -8.60536
 -8.36986
 -8.26325
 -8.66407
 1.9296
 1.99678
 1.75862
 1.77022
 -4.48556
 -4.36219
 -4.35076
 -4.15661
 -13.0296
 -13.0058
 -13.5362
 -13.5987
 -4.30844
 -4.35687
 -3.9777
 -3.86802
 -3.48401
 -3.10061
 -3.49345
 -3.74412
 -16.0097
 -15.8974
 -16.2039
 -15.5867
 -15.3557
 -14.8475
 -15.322
 -15.1818
 -17.2184
 -16.769
 -17.1819
 -17.3556
 -13.8064
 -13.7935
 -14.2241
 -14.0338
 -6.85635
 -6.76249
 -6.55603
 -6.76146
 -4.60977
 -4.49792
 -4.7442
 -4.43485
 -12.3267
 -11.6641
 -12.3791
 -11.8237
 -4.74915
 -4.85105
 -4.88256
 -4.87116
 -2.50484
 -2.57183
 -2.65627
 -2.77417
 -8.2533
 -8.55441
 -8.30052
 -8.57919
 -6.15697
 -5.94055
 -5.70191
 -6.44219
 -6.5676
 -7.00119
 -6.66056
 -2.6935
 -2.52179
 -2.288
 -2.51568
 -4.89249
 -4.84306
 -4.72019
 -4.7846
 -12.7633
 -13.0387
 -12.7981
 -12.9516
 -9.11991
 -9.44806
 -9.53151
 -20.9287
 -20.4827
 -20.5871
 -20.807
 -18.2428
 -18.6848
 -19.0434
 -18.5336
 -6.0785
 -6.33945
 -5.94123
 -6.3214
 -9.84431
 -10.1567
 -3.16871
 -3.14184
 -2.83841
 -3.27379
 -9.16758
 -8.78389
 -8.63959
 -8.96345
 -17.1988
 -17.3535
 -16.8877
 -17.2986
 -4.63152
 -4.70184
 -4.79858
 -7.10141
 -7.19571
 -7.24597
 -6.80263
 -6.23337
 -6.66969
 -6.62778
 -6.53844
 -8.35715
 -8.73245
 -8.79274
 -8.30281
 -7.85592
 -8.07062
 -8.33103
 -8.02738
 -9.07981
 -9.29452
 -9.00656
 -9.40449
 -7.49998
 -7.76328
 -14.4734
 -14.1699
 -14.9099
 -14.3658
 -7.76589
 -7.43003
 -7.54954
 -7.77075
 -10.8976
 -10.3096
 -10.5691
 -7.65287
 -7.99708
 -7.76365
 -7.96499
 -10.918
 -10.7003
 -10.4806
 -10.7773
 -4.28584
 -3.98757
 -4.21447
 -3.83389
 -7.44795
 -7.38195
 -7.79481
 -9.97446
 -10.0471
 -10.5045
 -9.74188
 -8.06298
 -7.98884
 -8.24581
 -4.00214
 -4.10026
 -3.83929
 -11.3429
 -11.2745
 -11.246
 -10.8031
 -8.44116
 -8.71525
 -8.76879
 0.853475
 0.777272
 0.682806
 1.05702
 -11.5572
 -11.2553
 -11.0418
 -11.6168
 -6.40904
 -6.0302
 -6.08345
 -5.97534
 -15.2958
 -15.302
 -15.4879
 -15.7221
 -16.3419
 -15.9852
 -16.5965
 -16.4907
 -3.55895
 -3.94858
 -3.46171
 -3.53975
 -9.71769
 -9.45
 -9.21707
 -5.49475
 -5.16246
 -5.39884
 -5.38442
 -16.464
 -15.7668
 -16.1615
 -8.82449
 -9.16796
 -8.93047
 -9.26906
 -12.5105
 -12.6995
 -12.6876
 -12.5583
 -17.7979
 -17.9223
 -18.1743
 -17.7576
 2.78253
 2.93042
 2.89735
 2.78289
 -5.23527
 -5.30661
 -5.49232
 -5.20468
 -9.57617
 -10.2742
 -10.0092
 -10.1722
 -2.32034
 -2.11549
 -2.03149
 -8.43298
 -8.75419
 -8.66408
 -8.35037
 -18.5797
 -11.8183
 -11.4961
 -11.0218
 -11.4746
 -15.9555
 -15.9406
 -16.01
 -16.2095
 -14.0638
 -13.9435
 -13.8419
 -14.2135
 -9.74544
 -9.60839
 -9.03889
 -8.5947
 -8.60998
 -8.61432
 0.399836
 0.163215
 0.384503
 0.247568
 -5.79688
 -5.66969
 -5.53456
 -5.31315
 -5.32069
 -5.5623
 -5.3628
 -18.7685
 -19.5141
 -18.8363
 -18.7336
 -8.35441
 -8.33313
 -8.74946
 -8.7439
 -9.74428
 -9.57634
 -9.26029
 -9.52608
 -16.5359
 -16.1592
 -16.7996
 -16.1954
 -8.80318
 -8.7061
 -9.14376
 -8.81635
 -1.37787
 -1.45288
 -1.20197
 -1.28911
 -7.96445
 -7.84472
 -8.07432
 -7.92196
 -5.12637
 -5.14322
 -5.19332
 -5.39989
 -4.54053
 -4.30111
 -4.33029
 -4.45941
 -2.84751
 -2.94138
 -2.83676
 -2.82529
 -0.846305
 -0.730415
 -0.664718
 -1.00737
 -20.4808
 -20.1706
 -20.3238
 -20.1772
 -0.121189
 -0.211378
 0.0304922
 -0.325191
 -8.37191
 -8.12851
 -8.3814
 -8.05378
 -19.9254
 -19.9429
 -19.5652
 -19.677
 -6.76176
 -6.67596
 -6.89642
 -6.99745
 -2.95231
 -17.5658
 -17.2955
 -17.3878
 -17.9538
 -4.20096
 -1.24732
 -1.56677
 -1.59873
 -1.29728
 -10.3154
 -10.8284
 -14.3721
 -13.8218
 -14.5321
 -13.9449
 -15.7898
 -15.7654
 -16.0833
 -16.0161
 -20.9602
 -20.5146
 -21.0382
 -14.498
 -15.0862
 -15.0132
 -14.9312
 -6.94258
 -19.2652
 -12.2826
 -12.1687
 -12.0056
 -19.0609
 -19.3971
 -19.4629
 -19.3167
 -6.95297
 -6.91551
 -6.92174
 -6.68143
 -5.22385
 -5.33278
 -5.05427
 -4.95755
 -11.978
 -11.6847
 -11.8285
 -12.4511
 -18.6007
 -18.9392
 -18.4319
 -18.3455
 -17.0547
 -16.9241
 -17.1756
 -16.8815
 -10.8874
 -11.5607
 -11.4804
 -0.747138
 -0.576229
 -1.08222
 -0.741765
 2.56441
 2.32679
 2.45523
 2.35068
 -2.55177
 -2.21403
 -2.15692
 -2.34605
 -9.33921
 -9.68722
 -9.288
 -1.52755
 -1.77353
 -1.67627
 -1.48384
 -14.952
 -14.8092
 -15.3529
 -15.2125
 -15.2647
 -14.9867
 -15.202
 -4.25883
 -4.13815
 -12.7305
 -12.9884
 -22.1381
 -21.877
 -22.218
 -20.4362
 -20.6564
 -20.5629
 -20.7864
 -7.52809
 -7.22843
 -7.74024
 -7.49576
 -5.68464
 -5.61732
 -5.46018
 -5.835
 -8.10392
 -8.0942
 -8.47048
 -8.35399
 -19.8015
 -19.7463
 -19.8926
 -19.7712
 -12.6794
 -12.9347
 -12.787
 -12.507
 -2.79776
 -2.77283
 -2.7963
 -2.9946
 -12.8751
 -13.0511
 -12.7113
 -13.1773
 -9.92672
 -10.0058
 -9.63944
 -10.1031
 -12.026
 -12.3161
 -12.2853
 3.16314
 3.11824
 3.09218
 -5.64501
 -5.46156
 -6.98129
 -6.98851
 -6.68717
 -7.17613
 -14.0047
 -14.505
 -14.1437
 -13.9973
 -12.8757
 -13.0475
 -13.5864
 -13.2216
 -13.235
 -12.9932
 -13.7573
 0.536081
 0.548627
 -2.6767
 -2.63358
 -2.78763
 -2.70062
 -9.89439
 0.712173
 0.944694
 0.852404
 0.838448
 -5.02654
 -5.39306
 -5.12138
 -5.07036
 -7.42339
 -7.23826
 -0.929449
 -1.39357
 -1.35227
 -1.10847
 -20.48
 -20.9733
 -20.8271
 -20.5839
 -18.576
 -18.7776
 -18.5788
 -19.1402
 -3.83975
 -4.38735
 -3.97211
 -4.25215
 -5.60945
 -5.43557
 -6.03952
 -5.91906
 -5.67362
 -5.50249
 -5.67611
 -13.534
 -13.8432
 -13.1677
 -13.5431
 -2.92665
 -3.12698
 -3.25452
 -3.28539
 -8.26992
 -8.38867
 -8.21572
 -11.3703
 -11.4983
 -11.6645
 -12.019
 -5.48944
 -5.55922
 -5.75965
 -5.62337
 -4.51109
 -4.79979
 -4.99428
 -4.66201
 -4.50388
 -4.29668
 -4.35655
 -4.5978
 -6.73352
 -6.8423
 -7.15818
 -6.88252
 -11.466
 -11.1647
 -5.10726
 -5.16241
 -5.24158
 -4.97444
 -20.8589
 -20.0785
 -20.2129
 -20.2509
 -4.08325
 -4.24664
 -4.097
 -4.28417
 -1.78886
 -1.70856
 -1.99982
 -1.86533
 -10.0425
 -10.0694
 -0.268213
 -0.314796
 -0.0979348
 -0.381563
 -6.19021
 -6.44196
 -6.04365
 -18.6756
 -18.5735
 -18.88
 -18.9252
 -0.592146
 -0.46641
 -0.554748
 -4.38883
 -4.36498
 -4.63834
 -4.53455
 -1.07405
 -4.30451
 -4.16838
 -4.23331
 -3.93304
 -8.73094
 -8.47499
 -8.78294
 -8.74244
 -7.176
 -7.25529
 -7.44659
 -7.15412
 -19.2397
 -19.7917
 -9.35724
 -9.5937
 -9.50931
 -9.37294
 -4.07199
 -3.71917
 -4.1258
 -3.69307
 -5.81536
 -6.4781
 -6.123
 -5.84724
 -17.3679
 -17.0357
 -17.0528
 -17.1207
 -7.29246
 -7.45894
 -7.79725
 -7.65401
 -10.0844
 -15.6748
 -15.9118
 -15.4911
 -5.91801
 -6.00407
 -5.67505
 -6.11457
 -12.6301
 -12.4816
 -12.689
 -12.2028
 -6.44947
 -6.18371
 -6.22487
 -6.56818
 -19.0954
 -18.6376
 -18.481
 -18.853
 -21.8742
 -22.0687
 -21.7879
 -4.42623
 -4.62191
 -4.90846
 -4.71267
 -10.9703
 -11.125
 -10.648
 -10.8349
 -12.3235
 -12.4761
 -12.7455
 -12.9323
 -5.45346
 -5.49711
 -4.46673
 -4.34996
 -4.2458
 -4.57578
 -6.67109
 -7.20385
 -10.4208
 -10.5794
 -10.3692
 -10.2275
 -11.3074
 -11.4629
 -11.802
 -11.3064
 -6.91698
 -7.10716
 -7.37044
 -7.17964
 -10.015
 -10.0478
 -10.0616
 -16.6285
 -16.0924
 -15.9157
 -16.2104
 -14.1973
 -14.0355
 -14.3053
 -6.86908
 -7.34444
 -6.81457
 -7.12307
 -4.73713
 -4.3543
 -4.17978
 -4.60631
 -12.4495
 -11.9304
 -11.9781
 -12.2843
 -7.26524
 -7.22413
 -6.8413
 -3.05482
 -3.02179
 -3.06591
 -3.02815
 -5.50275
 -5.47343
 -5.60939
 -5.71632
 -14.7921
 -14.5768
 -14.3491
 -20.7126
 -20.1993
 -20.3227
 -12.0374
 -12.2486
 -12.292
 -5.4813
 -5.19094
 -5.59803
 -5.31055
 -20.5499
 -20.6779
 -20.5421
 -20.8013
 -11.4352
 -11.1839
 -11.3984
 -11.7123
 -15.5118
 -15.7272
 -16.3571
 -16.2781
 -14.8923
 -15.1637
 -14.9237
 -14.9718
 -1.88812
 -1.63857
 -1.66784
 -6.68581
 -6.77074
 -6.53797
 -6.8026
 -15.538
 -15.7201
 -15.3153
 -15.3292
 -7.75784
 -7.91841
 -7.95694
 -8.34164
 -12.8734
 -12.8808
 -12.7978
 -12.3215
 -17.7137
 -18.0639
 -2.73061
 -2.93735
 -2.89836
 -3.02619
 -13.7927
 -13.5036
 -14.1808
 -13.6665
 -6.73974
 -6.6108
 -6.49137
 -6.84013
 -12.1102
 -11.5338
 -19.9388
 -19.9187
 -19.4753
 -20.0611
 -15.4237
 -16.0403
 -15.2197
 -16.2395
 -20.8517
 -20.9556
 -21.3068
 -21.451
 -13.541
 -13.5092
 -13.752
 -12.1497
 -12.7222
 -12.651
 -12.459
 -12.6632
 -12.3669
 -12.5249
 -12.0457
 -5.00096
 -5.08776
 -4.80952
 -4.72435
 -1.32766
 -1.21749
 -1.50659
 -8.58559
 -8.60833
 -8.65413
 -16.5233
 -16.0266
 -16.3088
 -15.9174
 -6.99318
 -7.22036
 -7.52069
 -7.23996
 -4.06885
 -3.70899
 -3.78276
 -4.0917
 -8.77405
 -8.41907
 -8.21295
 -8.23872
 -6.34179
 -6.79202
 -6.36252
 -20.0561
 -20.213
 -19.6182
 -19.5912
 -3.0338
 -3.12532
 -3.75166
 -3.91257
 -3.93279
 -12.9633
 -13.1378
 -12.6789
 -13.4201
 -8.26745
 -8.70502
 -8.65417
 -8.55034
 -3.63232
 -3.68871
 -3.91132
 -3.67965
 -9.81416
 -9.1306
 -9.18577
 -9.57293
 -5.99736
 -5.7563
 -6.17661
 -6.16749
 -17.2211
 -17.4114
 -18.1208
 -5.5297
 -5.49141
 -5.74061
 -5.71617
 -9.66651
 -9.96088
 -3.45279
 -3.78805
 -3.66966
 -3.50935
 -3.90734
 -3.63892
 -3.76933
 -3.65981
 -17.7416
 -17.4951
 -4.33216
 -4.60774
 -4.45077
 -4.21357
 -8.81465
 -8.46238
 -8.64453
 -8.84099
 -6.51089
 -1.70204
 -1.45809
 -1.53673
 -10.1354
 -10.0335
 -10.1348
 -9.82474
 -18.0969
 -18.1467
 -17.8153
 -18.3545
 -1.90526
 -1.97401
 -2.05264
 -1.80417
 -3.90571
 -4.11626
 -3.84108
 -3.89554
 -12.0853
 -12.2757
 -12.2886
 -2.22332
 -2.22615
 -2.4042
 -2.46074
 -20.8107
 -20.3923
 -20.5823
 -20.9146
 -2.79401
 -2.96802
 -3.03493
 -2.67848
 -11.5501
 -11.1133
 -11.4258
 -11.848
 -6.62822
 -6.86207
 -6.76916
 -6.5466
 -3.66521
 -3.77019
 -3.70284
 -6.12642
 -6.49612
 -6.10872
 -6.40872
 -3.47713
 -3.23388
 -3.39949
 -3.39703
 -4.09745
 -3.90178
 -4.02634
 -14.0726
 -13.6225
 -14.1767
 -13.5449
 -13.1068
 -8.11144
 -8.85246
 -8.36292
 -8.38439
 -18.772
 -18.6192
 -18.2818
 -18.6185
 -10.1824
 -10.645
 -9.94068
 -10.4915
 -11.4935
 -11.8104
 -11.4764
 -11.3734
 -3.84343
 -3.72666
 -4.01884
 -4.44
 -4.33948
 -11.2793
 -10.7739
 -11.1259
 -11.382
 -18.3531
 -19.033
 -9.27289
 -9.38542
 -9.0021
 -9.46146
 -3.43807
 -3.37645
 -3.60187
 -17.0227
 -17.3876
 -16.9104
 -17.0864
 -9.27135
 -8.75073
 -8.93576
 -9.02461
 -3.72206
 -3.57901
 -3.72978
 -3.83493
 -8.29469
 -8.24469
 -8.77897
 -8.39454
 -11.2004
 -11.9257
 -2.33202
 -2.20348
 -2.26775
 -2.13505
 -4.2673
 -4.75909
 -4.94845
 -4.80213
 -5.03828
 -4.95641
 -4.86558
 -4.50373
 -4.60058
 -4.79877
 -9.0665
 -9.00221
 -8.94785
 -10.7254
 -10.5596
 -10.3987
 -10.2218
 -4.95333
 -4.91
 -4.9694
 -4.92526
 -6.72559
 -6.65172
 -9.77815
 -9.50855
 -9.69321
 -9.41755
 -9.80992
 -9.84184
 -8.15919
 -8.54899
 -8.62086
 -8.23921
 -0.291349
 -0.597655
 -0.542571
 -0.671222
 -9.64037
 -3.48106
 -3.72129
 -3.55008
 -3.48816
 -19.8407
 -20.2686
 -19.7971
 -13.327
 -13.2306
 -12.9184
 -13.3905
 -8.07798
 -8.25848
 -8.11677
 -7.60444
 -9.11341
 -9.41057
 -8.94382
 -4.31512
 -4.53721
 -4.42768
 -4.26721
 -17.4093
 -17.8012
 -16.9701
 -17.5463
 -11.5416
 -11.3864
 -11.7355
 -11.5883
 -17.4537
 -17.6541
 -16.8851
 -17.302
 -2.9418
 -2.96612
 -2.73811
 -2.75314
 -4.89125
 -5.12009
 -13.894
 -13.7141
 -13.4966
 -13.7943
 -18.41
 -18.4365
 -18.5537
 -18.2583
 -21.9588
 -22.1599
 -21.7634
 -22.2398
 -17.9404
 -17.5434
 -17.9201
 -11.3065
 -11.6981
 -11.2419
 -11.5197
 -17.948
 -18.1718
 -18.2882
 -18.1876
 -2.85952
 -3.08462
 -3.31877
 -3.04297
 -15.6302
 -16.014
 -16.0889
 -11.3927
 -11.2609
 -11.1386
 -11.1193
 -3.42564
 -3.32016
 -3.42956
 -3.24778
 -12.1067
 -12.5556
 -12.3013
 -12.3261
 -10.2848
 -10.5975
 -10.7378
 -10.3289
 -5.29394
 -5.41782
 -5.60861
 -5.79708
 -2.63401
 -2.68181
 -2.37765
 -2.39494
 -7.32892
 -7.43397
 -7.72743
 -7.39262
 0.22571
 0.182443
 -0.168302
 0.0169114
 -3.99704
 -4.18575
 -3.97024
 -4.60932
 -4.30793
 -4.29349
 -4.21205
 1.18571
 1.1149
 1.35164
 1.07268
 -16.9737
 -16.6484
 -16.7077
 -14.9337
 -15.0091
 -15.4218
 -15.3391
 -4.86275
 -5.3309
 -5.18
 -1.40811
 -1.49761
 -1.35621
 -2.69432
 -2.46497
 -2.70628
 -2.73689
 -5.02445
 -4.98484
 -5.23315
 -4.78186
 -11.5545
 -12.1759
 -11.8729
 -11.7888
 -0.384566
 -0.360308
 -0.521991
 -0.263886
 -10.7025
 -10.0556
 -9.99406
 -10.5423
 -14.8865
 -15.177
 -14.5187
 -14.8868
 -9.84745
 -9.80752
 -10.4275
 -10.1255
 -7.41714
 -7.1635
 -7.67086
 -3.64076
 -3.61302
 -3.64751
 -3.80032
 -17.6385
 -18.0087
 -18.1869
 -17.98
 -15.6966
 -15.9723
 -15.6326
 -15.3275
 -5.13107
 -5.37013
 -5.21669
 -5.00008
 -18.6625
 -18.9217
 -19.1764
 -18.2266
 -18.9614
 -18.4215
 -18.4909
 -18.9721
 -18.9803
 -18.6095
 -18.7397
 -0.806795
 -0.741072
 1.21499
 1.16479
 1.29889
 1.01887
 -11.013
 -10.8307
 -10.5482
 -8.19008
 -7.94628
 -8.49146
 -8.0234
 -8.90269
 -9.31871
 -9.19209
 -8.95086
 3.01867
 -7.07856
 -10.5976
 -10.9898
 -15.6343
 -15.8879
 -15.7917
 -15.7404
 -1.41703
 -6.21545
 -6.5031
 -6.20811
 -22.3929
 -22.1791
 -22.1957
 -22.1953
 -8.99576
 -8.72129
 -9.008
 -9.33516
 -19.0271
 -18.7816
 -19.0966
 -18.6038
 -7.38729
 -7.76757
 -7.08771
 -6.44883
 -6.85037
 -6.59485
 -17.1037
 -17.1971
 -16.6608
 -17.1727
 -10.6881
 -10.4442
 -10.1609
 -9.99766
 -2.96518
 -2.77884
 -3.14199
 -3.07185
 -15.2874
 -16.0812
 -15.7836
 -19.2226
 -19.9212
 -19.9267
 -19.2471
 -15.336
 -15.2026
 -14.8721
 -15.2412
 -4.87437
 -4.84226
 -5.37612
 -4.81317
 -5.51157
 -5.2962
 -5.33818
 -5.32784
 -17.2751
 -17.6032
 -17.5795
 -17.6341
 -6.97361
 -7.04109
 -6.69838
 -14.2224
 -14.2564
 -14.1064
 -13.8345
 -3.5043
 -3.76489
 -3.36176
 -3.40073
 -11.0921
 -11.3168
 -10.739
 -10.9761
 -3.2839
 -3.47374
 -3.28867
 -3.304
 -9.62308
 -9.86377
 -9.52524
 -9.74216
 -14.7254
 -14.7431
 -15.1703
 -14.4173
 -2.73556
 -2.65155
 -2.84679
 -9.18058
 -9.52343
 -16.2686
 -16.0724
 -15.9998
 -15.7062
 -6.97455
 -6.76493
 -6.72946
 -3.02958
 -2.78535
 -2.7189
 -2.8387
 -12.2647
 -12.428
 -12.2384
 -12.5928
 -11.2564
 -11.2094
 -11.8767
 -11.3809
 2.20385
 2.20382
 1.98779
 2.14096
 -8.75869
 -8.3317
 -8.58126
 0.535883
 0.342586
 0.271348
 -8.93046
 -8.8337
 -8.62541
 -8.85241
 -8.44227
 -2.98394
 -3.06613
 -2.64837
 -2.80057
 -7.51363
 -7.862
 -7.97286
 -15.6406
 -15.6599
 -15.6524
 -15.43
 -7.96623
 -8.13888
 -8.34536
 -8.33922
 -8.40018
 -8.26559
 -8.19831
 -21.686
 -21.5082
 -21.4449
 -21.151
 -4.45136
 -5.02483
 -4.89405
 -4.72351
 -2.33685
 -2.34653
 -2.45194
 -2.44488
 -6.28897
 -6.1842
 -6.68433
 -6.32927
 -16.6425
 -16.8
 -16.9433
 -16.2624
 2.33529
 2.14998
 2.31437
 2.04808
 -14.2152
 -13.7074
 -13.9971
 -14.0218
 -2.27071
 -2.09592
 -2.23139
 -2.19161
 -15.7243
 -14.6592
 -14.9761
 -15.4621
 -14.056
 -13.8134
 -13.5678
 -13.8511
 -14.1923
 -14.4026
 -4.98801
 -4.78617
 -4.76464
 -4.93432
 -17.6942
 -17.7828
 -17.7356
 -13.6526
 -13.0203
 -13.2713
 -13.7679
 -4.40839
 -4.7108
 -4.50877
 -4.23437
 -6.14892
 -6.02209
 -6.42364
 3.17783
 3.17114
 3.24373
 3.17476
 -8.35724
 -7.91223
 -8.42992
 -17.8282
 -18.152
 -17.6663
 -17.5484
 -14.7643
 -14.4237
 -16.9424
 -17.4759
 -17.7684
 -17.1755
 -12.9048
 -12.9429
 -2.07303
 -2.12174
 -1.82974
 -2.30163
 -14.2827
 -14.2181
 -14.2527
 -13.7612
 -8.94397
 -9.14438
 -5.97455
 -6.20018
 -6.11018
 -5.99095
 -15.1721
 -15.4425
 -15.5235
 -15.4065
 -5.13055
 -4.5957
 -4.63133
 -5.02235
 -17.3704
 -17.3597
 -17.8522
 -18.388
 -10.2818
 -10.3743
 -9.94791
 -1.78862
 -1.67354
 -1.63364
 -1.78987
 -11.4371
 -11.3808
 -11.2023
 -10.9455
 -4.45414
 -4.16698
 -4.11707
 -3.98375
 -4.78804
 -4.42549
 -4.66925
 2.54009
 2.56069
 2.53925
 2.4219
 -2.67953
 -3.06906
 -3.1674
 -2.8168
 -14.7204
 -14.5105
 -14.9707
 -14.4741
 -8.39603
 -8.52542
 -8.13659
 -6.50711
 -3.63053
 -3.77969
 -3.68203
 -3.8655
 -6.81717
 -6.53122
 -6.79061
 -6.9243
 -12.9738
 -13.6492
 -13.714
 -13.095
 -3.43322
 -3.444
 -3.95619
 -1.36779
 -10.1672
 -10.3291
 -9.88924
 -10.5341
 -3.75063
 -4.12849
 0.833459
 1.01264
 -3.62809
 -3.85403
 -3.63246
 -3.32289
 -12.9753
 -13.3399
 -16.3431
 -16.3042
 -16.4656
 -16.2319
 -6.00951
 -6.3024
 -6.31396
 -6.29472
 -19.4751
 -19.5938
 -19.9055
 -19.6372
 -5.91872
 -5.98033
 -5.35685
 -5.37182
 -14.0332
 -14.1031
 -13.8041
 -13.3178
 -4.44999
 -4.46682
 -4.61625
 -4.61911
 -14.1658
 -14.4108
 -13.8479
 -14.1969
 -7.09913
 -7.43172
 -18.3466
 -18.1026
 -12.3357
 -12.6867
 -12.1988
 -12.7856
 -12.2101
 -12.0088
 -12.0464
 -12.532
 -9.54396
 -9.31706
 -9.67639
 -9.6678
 -14.091
 -13.587
 -14.222
 -14.5194
 -4.32618
 -4.04222
 -4.20768
 -4.18888
 -17.9815
 -17.7673
 -17.7489
 -18.4847
 -18.7521
 -18.3051
 -18.6001
 -3.36184
 -3.66741
 -3.65735
 -3.51258
 -12.7367
 -12.2499
 -12.3126
 -12.5517
 -3.23947
 -3.50556
 -3.52353
 -3.77769
 -9.1065
 -7.95106
 -8.44246
 -8.4509
 -7.99929
 -15.5379
 -15.593
 -15.5655
 -15.0543
 0.138415
 0.327537
 0.208594
 -0.0230751
 -12.498
 -12.7475
 -13.0506
 -12.6636
 -8.75268
 -9.08343
 -8.36749
 -8.64413
 -13.319
 -12.976
 -12.9115
 -12.8669
 -11.6525
 -21.6714
 -21.4873
 -20.9209
 -21.1682
 -14.5497
 -14.6205
 -13.9732
 -14.0949
 0.841183
 0.739037
 0.567115
 0.874867
 -7.08623
 -6.71761
 -6.56143
 -6.86898
 -5.45623
 -8.99503
 -9.00619
 -9.1075
 -9.41088
 -17.2947
 -17.3119
 -16.8234
 -16.6098
 -15.727
 -15.6109
 -16.1884
 -17.1917
 -16.2259
 -16.6706
 -16.4826
 2.27848
 2.18293
 -13.994
 -13.8526
 -13.8171
 -5.14287
 -5.13256
 -5.0383
 -5.3929
 -13.2554
 -13.0393
 -13.2756
 -12.8903
 -9.53628
 -12.3458
 -11.8958
 -12.3476
 -12.252
 -18.2967
 -17.4459
 -17.7275
 -18.2377
 -12.1883
 -12.5096
 -13.0317
 -12.2862
 -6.93541
 -7.07302
 -6.5856
 -7.32805
 -3.36064
 -3.41092
 -3.28071
 -3.46377
 -21.0481
 -20.5657
 -21.107
 -20.9635
 -13.1451
 -12.9717
 -13.2982
 -12.7856
 -20.519
 -20.3438
 -20.4039
 -20.6775
 -5.23664
 -4.79794
 -5.23665
 -5.29586
 -9.36351
 -9.17138
 -18.2825
 -18.9644
 -18.2649
 -18.5847
 -9.45089
 -9.53493
 -9.52326
 -9.91497
 -8.14675
 -8.53707
 -9.36228
 -9.44856
 -9.76706
 -9.34098
 -16.0264
 -16.0272
 -15.8454
 -16.3999
 -5.977
 -5.5847
 -5.41398
 -5.75893
 -1.82822
 -2.03269
 -1.8533
 -1.84896
 -2.93442
 -2.8413
 -2.84179
 -2.81882
 -5.68093
 -5.88404
 -5.91335
 -5.62722
 -7.26013
 -6.80486
 -7.10724
 -7.70211
 -7.18424
 -7.45173
 -7.57201
 -8.93545
 -8.71633
 -8.55544
 -8.89305
 -1.73856
 -1.70766
 -1.80525
 -6.70329
 -6.44233
 -6.86228
 -6.77574
 -9.6
 -9.99285
 -9.93754
 -9.45286
 -4.85438
 -4.52795
 -4.97544
 -4.51869
 -5.64
 -5.91072
 -5.85601
 -5.82011
 -10.067
 -10.0615
 -10.3564
 -10.6427
 -8.62164
 -8.28819
 -8.58826
 -8.51376
 -12.6351
 -12.4227
 -12.5532
 -12.3669
 -2.75742
 -2.83769
 -2.93042
 -15.2032
 -14.9165
 -15.5086
 -15.0269
 -4.87929
 -5.16882
 -4.92915
 -4.72695
 -7.33453
 -7.18133
 -6.99887
 -7.45666
 -7.95305
 -8.2845
 -8.36308
 -10.7958
 -10.7944
 -10.9365
 -11.233
 -12.0064
 -12.0292
 -12.3334
 -11.7987
 -12.6167
 -12.7829
 -13.0891
 -16.3049
 -16.3739
 -16.481
 -11.9672
 -11.7729
 -11.4838
 -11.7073
 -16.4226
 -16.6174
 -16.0672
 -17.7969
 -17.8252
 -17.7191
 -17.3234
 -8.16717
 -7.51102
 -7.90792
 -7.70871
 -5.34889
 -5.13328
 -5.44876
 -5.17784
 -4.15565
 -16.2497
 -16.0661
 -16.833
 -16.1018
 -16.4651
 -15.6157
 2.68497
 2.78153
 2.67131
 2.58052
 -14.1177
 -13.7422
 -7.27524
 -7.03043
 -7.44092
 -20.452
 -20.8207
 -10.9414
 -10.3584
 -10.536
 -10.6605
 -7.01048
 -7.19073
 -7.19904
 -14.2864
 -15.1243
 -14.7063
 -14.9113
 -5.41051
 -5.49671
 -5.2748
 -5.63988
 1.31865
 1.12318
 1.17412
 1.38606
 -10.393
 -10.4687
 -10.3192
 -10.808
 -15.8169
 -16.7128
 -15.918
 -14.7928
 -14.7103
 -14.8659
 -14.486
 -4.68882
 -4.26297
 -4.32271
 -4.08753
 -4.882
 -5.09619
 -3.57143
 -3.81393
 -3.48671
 -20.3378
 -19.9865
 -15.5534
 -15.0444
 -15.5724
 -15.0212
 -9.28537
 -9.76917
 -9.67328
 -13.8665
 -13.35
 -14.296
 -14.227
 -4.88626
 -4.40798
 -4.49575
 -4.72385
 -8.5423
 -8.49461
 -8.85701
 -8.93514
 -8.40216
 -8.67537
 -8.72383
 -8.40186
 -4.31642
 -4.45295
 -4.28417
 -5.11038
 -4.9273
 -5.0809
 -5.03661
 -21.9128
 -22.2172
 -22.0487
 -22.4215
 -2.40239
 -2.05276
 -17.4179
 -17.7804
 -17.6726
 -17.4044
 -7.46052
 -7.81448
 -7.65513
 -7.46991
 -9.60237
 -9.8812
 -9.86332
 -9.92812
 -2.89598
 -3.08924
 -8.92318
 -8.66032
 -8.64866
 -8.40662
 -7.30422
 -7.16093
 -7.06155
 -7.42198
 -15.7375
 -15.6984
 -15.532
 -15.8336
 -7.97562
 -8.27397
 -8.31753
 -7.83804
 -5.21381
 -5.2469
 -11.1439
 -11.1566
 -10.9138
 -11.2363
 -13.0968
 -12.9608
 -13.3186
 -9.31292
 -9.71495
 -9.56612
 -9.80142
 -3.87821
 -4.05169
 -3.79734
 -4.20238
 1.56159
 1.34056
 1.37483
 1.59153
 -8.19694
 -7.99771
 -8.32527
 -8.72221
 -9.98826
 -10.4924
 -10.0738
 -10.0317
 -6.87467
 -7.07332
 -6.69119
 -6.76824
 -5.64407
 -5.46201
 -5.702
 -5.85039
 -15.914
 -16.3202
 -11.2096
 -10.9936
 -10.8127
 -0.324969
 -0.222091
 -0.0856626
 -0.378987
 -4.42965
 -4.18261
 -4.57686
 -4.05911
 -9.30571
 -9.40223
 -9.20308
 -9.0336
 -15.9248
 -16.1194
 -16.0698
 -7.57247
 -7.40689
 -7.00681
 -7.00285
 -4.99235
 -5.40399
 -5.25479
 -4.97376
 -13.6387
 -13.0715
 -13.0583
 -13.359
 -10.7394
 -10.6218
 -10.4579
 -10.4849
 -14.8186
 -14.8974
 -14.8355
 -14.3672
 -14.4287
 -14.4669
 -14.4144
 -6.51015
 -6.61566
 -6.3161
 -6.20787
 -7.91319
 -7.76624
 -8.0863
 1.20306
 1.16149
 1.18959
 1.33237
 -5.17079
 -5.20063
 -2.09681
 -1.90867
 -2.18461
 -2.37072
 -4.16893
 -3.10068
 -16.9171
 -5.33637
 -5.00216
 -5.25023
 -4.86156
 -21.0292
 -11.1814
 -10.8509
 -11.1634
 -10.6509
 -5.27473
 -5.55098
 -5.39526
 -6.57704
 -6.88022
 -6.88718
 -15.191
 -15.2728
 -14.686
 -15.2184
 -15.2232
 -14.9733
 -15.2895
 -14.9407
 -3.53668
 -3.16222
 -3.15264
 -3.41989
 -18.7279
 -18.7803
 -19.0892
 -18.4858
 -8.61644
 -8.28756
 -7.96597
 -15.0858
 -15.3946
 -15.2408
 -9.9106
 -9.56113
 -9.6944
 -9.9865
 -5.35327
 -5.52559
 -5.14482
 -5.25539
 -10.0828
 -10.6615
 -10.0877
 -5.74334
 -5.87178
 -5.87291
 -5.52573
 -7.46346
 -7.96111
 -15.5479
 -15.8974
 -16.0049
 -16.4232
 -16.9819
 -17.5679
 -17.2153
 -17.102
 -4.18363
 -4.47645
 -4.09422
 -4.37706
 -13.1533
 -12.5518
 -12.8886
 -13.306
 -10.9166
 -10.307
 -10.7791
 -11.1189
 -6.91506
 -6.59293
 -7.07085
 -6.84082
 -16.3347
 -16.0742
 -15.936
 -15.6508
 -7.67567
 -7.32003
 -7.89224
 -7.69315
 -8.62606
 -8.37584
 -8.36231
 -8.9481
 -7.56118
 -7.32938
 -7.63807
 -7.6822
 -4.51728
 -4.84758
 -3.85198
 -4.06683
 -4.27518
 -3.91052
 -1.67172
 -1.31713
 -1.59592
 -1.68379
 -11.1396
 -11.1011
 -10.9627
 -11.4637
 -10.3715
 -10.0318
 -9.98325
 -19.3456
 -19.416
 -19.4643
 -19.4028
 -20.1856
 -20.4916
 -19.9947
 -17.6211
 -17.8739
 -17.2015
 -9.95501
 -10.423
 -10.6905
 -10.1098
 -12.4107
 -12.6561
 -12.9138
 -12.1771
 -15.4367
 -15.8366
 -15.5701
 -15.9158
 -5.59152
 -5.27058
 -5.34596
 -5.54237
 -2.29141
 -2.50157
 -2.65372
 -2.6418
 -20.6404
 -20.7749
 -20.236
 -21.0679
 -4.88816
 -4.7898
 -4.62566
 -4.93765
 -9.40054
 -9.37644
 -9.58274
 -9.28627
 -20.9921
 -20.9755
 -20.3664
 -21.4081
 -11.2848
 -10.8616
 -11.4307
 -11.2826
 -7.16399
 -7.00936
 -7.17645
 -7.02728
 -5.0267
 -4.77098
 -4.8174
 -3.10197
 -3.42261
 -3.22891
 -3.05507
 -3.96066
 -3.85091
 -3.99788
 -3.82037
 -3.89128
 -3.80335
 -4.71469
 -4.91085
 -4.36945
 -14.5718
 -14.2699
 -14.2164
 -14.1571
 -18.8076
 -18.5702
 -18.6274
 -18.6104
 -11.9712
 -11.7898
 -11.9471
 -11.3501
 -7.81241
 -16.5224
 -16.7321
 -16.6901
 -16.3383
 -3.1543
 -3.13951
 -3.12471
 -3.07635
 -19.4348
 -19.6378
 -19.356
 -19.9235
 -6.3732
 -6.15691
 -6.61143
 -12.9803
 -3.19039
 -3.14833
 -2.9407
 -4.42303
 -4.24089
 -4.05352
 -4.53104
 -9.13399
 -9.08795
 -8.5601
 -8.95489
 -13.7989
 -13.7884
 -13.4629
 -14.1486
 -7.79657
 -12.8889
 -12.6549
 -12.6128
 -7.99319
 -7.94318
 -8.01681
 -8.39289
 -5.74416
 -5.83731
 -5.58504
 -5.57144
 -6.63161
 -6.22595
 -6.52078
 -6.59489
 -13.0742
 -4.70128
 -4.76592
 -4.88979
 -14.4058
 -14.0967
 -14.5601
 -14.239
 -16.2736
 -16.096
 -16.6884
 -15.9384
 -18.3706
 -18.6676
 -18.3183
 -5.66091
 -5.68395
 -5.46601
 -5.68355
 -2.65564
 -2.47688
 -2.63831
 -15.1418
 -15.1236
 -16.0769
 -15.8894
 -15.6766
 -15.6393
 -7.92103
 -8.02583
 -8.24991
 -19.7421
 -19.6454
 -20.0282
 -19.6391
 -16.0081
 -15.8847
 -16.0974
 -16.2267
 -11.4434
 -11.5827
 -11.7576
 -11.8814
 -9.57836
 -9.69814
 -9.44329
 -9.13285
 -4.97796
 -4.94876
 -4.85228
 -5.08075
 -15.9419
 -15.9398
 -15.6838
 -16.2804
 -5.90194
 -6.00125
 -5.58069
 -6.69034
 -6.97937
 -7.0517
 -7.11314
 -18.5921
 -18.4294
 -19.0821
 -18.8095
 -12.7142
 -12.7753
 -12.6588
 -12.4614
 -20.167
 -19.8404
 -19.4374
 -19.9807
 -6.4961
 -6.71157
 -6.85753
 -6.80994
 -9.39571
 -9.50333
 -9.09309
 -9.80553
 -16.9513
 -16.8605
 -17.2024
 -17.0313
 -9.05404
 -9.33182
 -8.88986
 -8.9727
 -20.1389
 -20.5516
 -20.1836
 -5.478
 -5.35841
 -5.32153
 -5.3701
 -10.3197
 -10.3153
 -10.1384
 -9.92121
 -11.1351
 -11.5317
 -11.1917
 -11.286
 -8.55461
 -8.36249
 -8.92693
 -8.50028
 -16.1786
 -16.1848
 -16.7344
 -16.3351
 -8.2128
 -7.80225
 -8.06927
 -7.95103
 -10.9745
 -10.8661
 -10.8828
 -10.6554
 -3.00337
 -3.0176
 -2.97137
 -3.0037
 -14.8261
 -14.9041
 -14.5295
 -14.2987
 -2.85586
 -2.84832
 -2.84225
 -4.97748
 -4.82158
 -4.81995
 -5.00425
 -3.78369
 -3.95065
 -4.48658
 -4.04251
 -13.6796
 -13.5574
 -13.8418
 -14.117
 -12.1267
 -12.671
 -12.2056
 -12.3351
 -6.29841
 -5.98929
 -6.03675
 -5.83564
 -21.51
 -21.2221
 -20.9179
 1.06858
 1.11608
 -10.9096
 -11.2306
 -10.6787
 -10.9031
 -1.03001
 -0.772391
 -0.49278
 -0.725364
 -12.0667
 -12.1826
 -12.6428
 -12.3897
 -6.88851
 -5.91465
 -5.77002
 -5.69425
 -5.50417
 -14.046
 -14.1074
 -14.2129
 -14.4053
 -17.2806
 -16.9657
 -17.5367
 -17.1448
 -3.01497
 -3.01398
 -12.9689
 -13.2054
 -13.8722
 -13.144
 -10.205
 -9.49813
 -10.3089
 -9.91386
 -5.06091
 -5.05447
 -4.8703
 -5.46243
 -8.22801
 -7.85835
 -7.79877
 -8.23313
 -15.5122
 -14.9838
 -16.1057
 -18.9563
 -18.8257
 -18.8669
 -18.8481
 -20.8093
 -20.7923
 -20.9792
 -6.11094
 -5.92838
 -5.97983
 -6.19395
 -17.6584
 -17.3918
 -17.1812
 -17.1546
 -3.68657
 -3.47368
 -3.55978
 -3.61619
 -11.8769
 -11.6899
 -11.9282
 -11.3833
 -10.0295
 -10.5115
 -10.121
 -10.1308
 -18.8972
 -18.9416
 -18.8957
 -19.162
 -12.4855
 -12.6961
 -12.4026
 -12.126
 -0.34235
 -0.208006
 -0.153887
 -0.342311
 -7.80034
 -7.26258
 -7.74294
 -7.41093
 -6.19274
 -6.58275
 -6.60498
 -6.15872
 -13.7056
 -13.8772
 -13.4515
 -13.1737
 -4.03994
 -3.84558
 -3.77133
 -3.78069
 -10.7971
 -10.5078
 -10.4832
 -10.9549
 -5.74662
 -5.53733
 -5.44721
 -2.39202
 -2.25005
 -2.23819
 -2.1705
 -10.8323
 -11.2236
 -10.6066
 -11.6872
 -11.661
 -11.4471
 -4.7022
 -4.43779
 -4.22972
 -4.08349
 -4.06572
 -4.18999
 -4.30312
 -17.3841
 2.90836
 2.80812
 2.84584
 3.00093
 -16.0484
 -15.7804
 -16.4059
 -16.0053
 -3.32475
 -6.69384
 -6.62109
 -6.56606
 -6.9827
 -6.1787
 -5.95079
 -6.60903
 -4.63202
 -5.05113
 -4.85482
 -4.73298
 -0.500927
 -0.462498
 -0.631442
 -0.268408
 -3.66041
 -3.87137
 -3.84644
 -9.52419
 -9.327
 -9.32089
 -6.07762
 -5.95274
 -22.0487
 -21.5769
 -21.567
 -3.78081
 -4.0545
 -3.67317
 -6.46886
 -6.72679
 -6.86841
 -17.6152
 -18.0554
 -18.0523
 -14.0853
 -14.1041
 -14.506
 -14.1626
 -4.91217
 -5.05247
 -5.17541
 -2.80088
 -2.52903
 -19.0215
 -18.757
 -19.2861
 -19.0995
 -1.3208
 -1.40619
 -1.09342
 -1.59245
 -3.82036
 -3.71937
 1.56499
 1.73499
 0.492563
 0.526688
 0.427147
 -6.59443
 -6.8228
 -6.44776
 -18.5729
 -18.1374
 -17.7684
 -12.7466
 -12.7433
 -13.1434
 -5.13672
 -5.25918
 -5.55341
 -5.73625
 -5.45255
 -16.849
 -2.72165
 -2.7184
 -2.82679
 -2.83403
 -6.30639
 -6.89095
 -6.45273
 -6.52417
 -13.6407
 -13.6384
 -13.9397
 -12.694
 -12.7738
 -12.5057
 -12.6208
 -6.585
 -6.45975
 -6.78592
 -7.05562
 -13.165
 -13.2525
 -13.6915
 -13.6552
 -14.3796
 -14.0487
 -14.2827
 -14.7564
 -8.59866
 -12.9515
 -13.204
 -13.205
 -13.3701
 -19.9075
 -20.1365
 -19.8645
 -19.6479
 -4.4318
 -3.91742
 -3.82836
 -4.19274
 -18.9388
 -19.3724
 -19.1531
 -19.0889
 1.77892
 1.6535
 1.82426
 -18.5821
 -18.2813
 -18.9909
 -18.8731
 -4.52995
 -4.471
 -4.1848
 -4.21145
 -15.0082
 -14.5537
 -14.8968
 -15.2284
 -3.88512
 -3.90985
 -3.28487
 -3.42359
 -20.0544
 -15.2268
 -14.6295
 -14.9057
 -14.4639
 -17.1676
 -17.5564
 -17.4383
 -2.90325
 -3.03164
 -2.81826
 -2.72131
 -13.5741
 -13.2737
 -13.2442
 -13.0063
 -10.5452
 -10.985
 -10.9995
 -10.812
 -9.93316
 -10.1587
 -9.66627
 -9.60993
 -21.3553
 -20.9037
 -7.17934
 -7.20685
 -7.15539
 -6.66985
 -6.96053
 -7.09626
 -7.23936
 -13.2753
 -12.9467
 -13.6334
 -13.7629
 -12.9584
 -13.1451
 -13.1182
 -13.5166
 -10.9945
 -11.1062
 -11.3437
 -10.8657
 -4.70264
 -4.66845
 -5.4762
 -5.27913
 -5.25708
 -6.4934
 -6.73256
 -6.73027
 -6.76678
 -2.27574
 -2.05375
 -2.11817
 -2.10769
 -6.35129
 -6.06382
 -5.805
 -0.567458
 -0.572645
 -0.804544
 -6.29918
 -6.27142
 -5.9875
 -6.51357
 -4.63257
 -4.99522
 -4.50498
 -8.19782
 -13.449
 -13.1947
 -13.769
 -7.14768
 -7.07804
 -7.32202
 -7.49269
 -3.65095
 -3.65909
 -4.35337
 -4.00799
 -8.78573
 -9.06836
 -9.1827
 -9.18486
 -14.9642
 -14.6621
 -21.5039
 -21.1824
 -20.9631
 -21.5335
 -13.3693
 -13.3632
 -13.6514
 -13.0514
 -7.398
 -7.3478
 -7.30311
 -7.52196
 -19.9961
 -20.057
 -20.8195
 -19.7112
 -19.4747
 -19.6373
 -19.788
 -9.15667
 -8.71479
 -8.52936
 -8.95269
 -3.28671
 -3.21982
 -3.41746
 -7.34765
 -7.31783
 -7.72437
 -7.33199
 -2.80927
 -2.50599
 -2.86534
 -2.47252
 -12.0654
 -12.0803
 -12.2038
 -11.2385
 -3.0599
 -3.06352
 -3.04053
 -3.11517
 -4.85518
 -5.02136
 -5.10277
 -4.97958
 -18.7078
 -18.1992
 -18.8886
 -18.3406
 -9.15973
 -9.18399
 -8.84735
 -9.20487
 -6.20615
 -6.02149
 -6.31398
 -6.05447
 -13.8738
 -13.8967
 -14.5718
 -15.2875
 -15.0246
 -14.9509
 -6.88882
 -7.26785
 -7.15113
 -7.61862
 -7.72263
 -7.95975
 -7.81841
 -7.79429
 -3.4475
 -3.64042
 -3.3954
 -6.65755
 -6.42336
 -6.2378
 2.41412
 2.60166
 2.43482
 2.54115
 -5.04806
 -5.15833
 -2.88791
 -3.01768
 -2.89097
 -2.62943
 -10.2603
 -9.85669
 -10.2135
 -9.75762
 -0.621874
 -0.924336
 -1.03977
 -0.787466
 -4.17473
 -4.10193
 -3.82467
 -12.3576
 -12.4451
 -12.3593
 -12.16
 -4.1887
 -4.44933
 -4.09347
 -3.64199
 -3.67607
 -3.37552
 -3.46355
 -6.37348
 -6.20919
 -6.24811
 -6.58854
 -14.236
 -15.3506
 0.60142
 0.492004
 -4.82997
 -4.59962
 -7.62669
 -7.30863
 -7.44391
 -7.36917
 -11.8226
 -12.1824
 -11.8596
 -12.3778
 -8.37433
 -8.42144
 -8.61625
 -8.67636
 -2.85827
 -2.41961
 -2.74641
 -2.63323
 -10.3347
 -9.88837
 -10.0952
 -3.38085
 -3.28985
 -3.39548
 -3.38026
 -17.4841
 -17.3875
 -17.8083
 -17.1689
 -11.9592
 -11.9632
 -12.0199
 -11.5749
 -3.7251
 -3.89614
 -3.63628
 -7.60039
 -7.19279
 -7.55961
 -7.72204
 -2.77125
 -2.71436
 -2.81765
 -4.08864
 -4.4123
 -4.30764
 -4.13608
 -3.99687
 -3.93954
 -4.21828
 -4.0285
 -7.35484
 -7.04552
 -6.99122
 -6.85044
 -19.6635
 -19.4669
 -19.2558
 -19.3069
 -10.9564
 -11.4154
 -11.1838
 -11.3756
 -7.19805
 -6.76133
 -7.06551
 -9.30263
 -9.12552
 -9.1118
 -17.0908
 -16.4222
 -17.041
 -16.6182
 -11.0961
 -11.1385
 -10.7595
 -11.3356
 -6.92409
 -7.20863
 -7.25275
 -7.29832
 -2.37749
 -2.41644
 -3.66021
 -3.5031
 -3.80636
 -3.81332
 1.08127
 1.1585
 1.3761
 1.10423
 -13.7003
 -13.7488
 -13.7742
 -13.522
 -4.44072
 -4.14336
 -4.21807
 -4.19662
 -8.46468
 -8.13384
 -8.33725
 -7.92575
 -1.90695
 -1.77402
 -1.83054
 -1.73885
 -9.59387
 -9.41898
 -9.22649
 -9.2347
 -7.53007
 -12.9986
 -12.884
 -12.4805
 -12.6156
 -7.00418
 -6.60334
 -6.53926
 -6.87309
 -6.75566
 -6.95269
 -7.19245
 -7.06452
 -5.86941
 -5.55889
 -5.65646
 -5.49943
 -3.72948
 -3.44331
 -3.9014
 -15.4932
 -15.582
 -15.6953
 -14.8482
 -6.71215
 -6.60769
 -6.60744
 -6.48584
 -15.0543
 -15.21
 -15.5919
 -12.2299
 -11.8836
 -12.1503
 -12.0056
 -14.2461
 -14.9499
 -14.5943
 -15.0206
 -3.34066
 -3.59392
 -3.28858
 3.01787
 2.93085
 2.90703
 -12.6488
 -13.2065
 -13.0628
 -9.6894
 -10.3491
 -10.0383
 -10.4717
 -6.24798
 -6.36921
 -6.5127
 -6.21309
 -7.2648
 -7.36825
 -6.91323
 -7.01849
 -0.0668789
 -0.237168
 0.168293
 -0.262348
 -8.52272
 -8.34553
 -8.29773
 -8.26005
 -10.6156
 -10.6922
 -10.9294
 -10.3998
 -4.31203
 -4.35017
 -5.06364
 -4.50717
 -4.78258
 -4.82033
 -12.5525
 -12.2194
 -12.4763
 -12.3974
 -4.07003
 -4.36997
 -11.0132
 -10.8053
 -3.00539
 2.62467
 2.66335
 2.62574
 2.47086
 -1.83696
 -2.11107
 -20.5913
 -21.1432
 -20.7051
 -2.52686
 -2.76825
 -3.00163
 -2.76954
 -13.0742
 -13.017
 -4.86389
 -4.79011
 -4.8306
 -4.85882
 -5.76926
 -6.32823
 -6.13256
 -13.1393
 -13.4281
 -13.2396
 -13.7095
 -11.3476
 -11.7777
 -11.384
 -11.5562
 -16.0197
 -16.0848
 -16.6104
 -7.16478
 -6.84028
 -7.20301
 -6.7232
 -8.22379
 -16.1488
 -15.4214
 -15.9891
 -15.8363
 -2.85124
 -2.79424
 -2.92589
 -3.03999
 -9.09661
 -8.73619
 -9.09796
 -8.73738
 -13.7905
 -13.1685
 -13.6138
 -13.2451
 1.63841
 1.57404
 1.50417
 1.46796
 -3.72425
 -19.9332
 -6.48588
 -6.95453
 -6.64303
 -6.32161
 -9.05077
 -9.35466
 -8.91198
 -8.80785
 -4.62736
 -4.25744
 -4.44952
 -4.55426
 -9.55211
 -9.3729
 -9.54926
 -9.62829
 -3.46308
 -3.52159
 -3.75943
 -3.32693
 -3.54724
 -3.72705
 -3.52899
 -7.19413
 -7.48979
 -6.98443
 -7.20947
 -13.9377
 -14.2593
 -13.4299
 -21.4633
 -21.9261
 -21.5347
 -21.3651
 0.144049
 0.356483
 0.404133
 -7.92689
 -7.94045
 -7.40217
 -7.53757
 -7.18551
 -7.67868
 -18.0939
 -17.9377
 -18.0027
 -18.3194
 -12.6331
 -12.3045
 -12.4897
 -12.1543
 -3.69862
 -4.12784
 -3.83129
 -1.32116
 -6.88171
 -6.51474
 -6.63296
 -6.88408
 -7.71635
 -7.92388
 -7.85544
 -12.1431
 -11.9374
 -11.9411
 -12.2814
 -13.9078
 -13.3696
 -13.7544
 -13.4921
 -6.61491
 -6.40219
 -12.8693
 -12.8092
 -13.062
 -13.374
 -9.82434
 -9.703
 -9.76563
 -10.1262
 -19.3545
 -19.5723
 -10.7316
 -10.3552
 -10.7504
 -10.5559
 -12.7667
 -12.9793
 -13.1039
 -13.2414
 -12.0475
 -12.3237
 -12.0251
 -12.0811
 -8.04902
 -8.23386
 -7.09379
 -7.29881
 -7.02131
 -6.8293
 -5.72231
 -5.44148
 -5.58455
 -5.63635
 -9.78203
 -10.0363
 -10.0601
 -9.78163
 -3.45976
 -3.67828
 -3.80573
 -3.93745
 -4.58041
 -4.53029
 -4.41564
 -4.527
 0.669396
 0.556876
 0.583801
 0.805849
 -5.70409
 -5.22688
 -9.43913
 -8.88497
 -9.31436
 -9.11184
 -6.55525
 -6.46904
 -6.67845
 -6.87464
 -8.78918
 -9.02737
 -9.17066
 -8.9275
 -7.2635
 -7.29129
 -13.1162
 -12.9124
 -20.5851
 -20.6908
 -20.6795
 -20.8457
 -2.73872
 -7.03744
 -7.01192
 -7.12795
 -7.36446
 -8.62943
 -8.25604
 -8.34929
 -8.36925
 -5.14677
 -4.96104
 -4.87404
 -4.6373
 -12.1542
 -11.6326
 -12.1305
 -11.6689
 -9.02825
 -8.77733
 -8.65154
 -9.00195
 -3.44075
 -3.35314
 -3.55567
 -3.32321
 -3.19689
 -6.2348
 -6.62072
 -6.20102
 -6.4583
 -6.10957
 -6.59135
 -6.17251
 -6.09147
 -3.74861
 -3.75366
 -3.51483
 -3.73429
 -4.50818
 -4.60726
 -4.99177
 -4.8225
 -7.47343
 -7.77361
 -7.28202
 -7.25352
 -3.60008
 -3.4435
 -3.35951
 -3.45409
 -9.5055
 -9.65764
 -9.13564
 -5.11607
 -5.10791
 -5.07112
 -5.00281
 -0.732409
 -0.905957
 -9.36396
 -9.62178
 -9.72479
 -9.00551
 -9.46092
 -9.26392
 -9.47775
 -2.90274
 -3.10173
 -3.21688
 -2.13875
 -2.26138
 -2.27315
 -2.15869
 -10.9167
 -10.8759
 -11.113
 -10.6859
 -9.08037
 -8.59183
 -9.12709
 -14.672
 -13.9122
 -14.2305
 -7.91885
 -7.64087
 -7.71305
 -15.9463
 -15.9653
 -15.9932
 1.07685
 1.2339
 1.21538
 1.08781
 -19.509
 -19.6504
 -19.4269
 -19.6846
 -5.62991
 -5.36989
 -9.87136
 -9.46382
 -3.72993
 -3.77144
 -3.71214
 -3.96959
 -10.4919
 -10.373
 -10.8338
 -13.353
 -13.7087
 -13.6516
 -13.7239
 -15.9198
 -15.2453
 -2.92853
 -2.95957
 -2.85458
 -9.42325
 -9.35198
 -9.01239
 -4.68861
 -4.37807
 -4.70012
 -3.03129
 -3.03147
 -2.94246
 -2.82668
 -6.90187
 -7.03024
 -6.70219
 -7.14347
 -6.47055
 -6.10395
 -6.2115
 -6.41844
 -11.7785
 -11.6361
 -11.6092
 -12.0656
 -13.1882
 -12.908
 -13.0885
 -12.609
 -6.16818
 -6.14226
 -6.4348
 -10.9244
 -10.8283
 -10.5855
 -12.4003
 -12.732
 -12.4472
 -12.5101
 -22.2721
 -22.0389
 -22.4081
 -8.18936
 -8.12757
 -8.10892
 -12.1466
 -12.3938
 -11.8492
 -7.77588
 -7.99398
 -7.54932
 -5.45345
 -5.09235
 -5.16929
 -2.94821
 -3.07139
 -2.99865
 -3.04436
 -7.92303
 -7.54692
 -7.91113
 -7.63523
 -4.93794
 -4.81878
 -4.59904
 -3.59375
 -3.88802
 -11.8368
 -11.5638
 -12.2123
 -11.7986
 -11.8497
 -12.1882
 -11.7059
 -11.403
 -3.8252
 -4.1074
 -4.25378
 -4.36026
 -3.53646
 -3.26991
 -3.41587
 -3.25634
 -1.55585
 -1.4254
 -1.5686
 -1.3378
 -17.9332
 -18.1641
 -15.2988
 -14.7304
 -15.0165
 -15.343
 -19.3478
 -5.29165
 -5.62141
 -5.25165
 -8.47133
 -8.59561
 -8.29443
 -8.21155
 -3.74145
 -3.69343
 -7.55081
 -7.49289
 -7.75843
 -2.6848
 -2.79081
 -14.6222
 -14.6839
 -15.1396
 -14.3346
 -16.3022
 -16.2034
 -16.9459
 -16.5912
 -13.6589
 -13.7611
 -13.267
 -5.5559
 -5.78705
 -5.76904
 -15.957
 -15.9191
 -16.0929
 -16.2269
 -4.78568
 -4.39989
 -4.69441
 -4.83075
 -14.0257
 -13.7321
 -13.6903
 -14.0187
 -4.92205
 -4.57899
 -4.5037
 -5.05697
 -3.3538
 -3.4677
 -3.2378
 -19.4486
 -20.215
 -19.8184
 -19.6895
 -3.14769
 -3.2392
 -3.19452
 -6.83961
 -6.98547
 -7.26917
 -7.09595
 -18.5836
 -19.077
 -18.8048
 -4.86004
 -4.61812
 -4.89427
 -4.70613
 -10.9909
 -17.5729
 -17.8297
 -16.8697
 -17.4512
 -2.56234
 -2.6309
 -2.75947
 -2.62149
 -12.1239
 -11.4628
 -11.9388
 -12.1458
 -8.14102
 -8.27165
 -7.75371
 -3.3633
 -3.18086
 -3.41141
 -2.84662
 -11.2544
 -11.1894
 -11.4632
 -4.44884
 -4.34155
 0.855308
 1.06001
 0.827883
 0.71129
 -1.7261
 -1.15276
 -1.11802
 -16.2619
 -16.0395
 -17.1611
 -16.4813
 -16.4214
 -16.6854
 -2.05024
 -2.14679
 -1.85681
 -2.20883
 -6.39673
 -6.56156
 -6.54438
 -6.6666
 -7.43952
 -6.97981
 -7.01982
 -7.16573
 -9.26734
 -9.13315
 -9.55956
 -9.15876
 -9.43813
 -8.84439
 -9.23272
 -8.92666
 -18.2718
 -3.39398
 -3.28911
 -3.4104
 -3.32841
 -18.7241
 -18.4429
 -18.9532
 -9.77201
 -9.35853
 -9.19819
 -9.347
 -2.98268
 -3.25376
 -3.33324
 -8.84166
 -8.5293
 -8.77582
 -8.50385
 -7.89626
 -11.6639
 -11.8061
 -12.2397
 -12.0867
 -4.84304
 -4.85137
 -4.83752
 -7.89969
 -8.52164
 -8.31166
 -18.9552
 -18.7302
 -18.279
 -18.6893
 -7.71846
 -7.59299
 -7.50026
 1.67075
 1.58149
 1.80785
 -7.70199
 -7.46162
 -7.65899
 -7.15097
 -11.9266
 -12.3087
 -12.2287
 -8.23444
 -8.27783
 -15.9261
 -16.0935
 -15.6611
 -15.6958
 -13.6324
 -14.0003
 -13.7644
 -13.7342
 -19.8365
 -19.7122
 -19.4238
 -19.1889
 -9.25077
 -8.55582
 -9.05455
 -9.20209
 -12.7353
 -12.6529
 -12.4675
 -12.2673
 -15.9449
 -16.2709
 -16.5724
 -4.45172
 -4.63404
 -4.17685
 -4.33331
 -7.32464
 -7.66939
 -5.81362
 -5.58912
 -5.86335
 -5.73172
 -11.7366
 -11.6448
 -11.6787
 -11.9293
 -7.67021
 -8.01036
 -7.88541
 -7.57719
 -11.4577
 -11.2459
 -11.7993
 -11.3281
 -8.12692
 -8.23024
 -8.52117
 -8.5668
 -7.73377
 -7.43166
 -7.47531
 -15.4379
 -15.1029
 -15.3907
 -17.7608
 -17.6803
 -17.5492
 -18.3531
 -16.5457
 -16.4784
 -16.8298
 -12.8415
 -13.3866
 -12.9131
 0.183931
 0.237761
 0.402604
 -7.24907
 -7.67477
 -7.33743
 -15.0614
 -15.296
 -15.0923
 -15.0014
 -7.23371
 -7.39404
 -7.20458
 -9.40592
 -9.58716
 -9.48132
 -9.2083
 -11.0579
 -10.2176
 -10.5183
 -10.4605
 -7.93662
 -8.20405
 -8.15433
 -8.41054
 -4.00079
 -4.1901
 -4.03129
 -3.9078
 -7.37068
 -9.42277
 -9.4147
 -9.62636
 -8.93265
 -3.10755
 -3.185
 -3.21687
 -3.20387
 -2.99823
 -3.21294
 -3.0651
 -3.2019
 -3.56607
 -3.70167
 -3.63627
 -3.48145
 -11.1361
 -11.1083
 -11.5703
 -11.7971
 -4.58619
 -4.39181
 -4.52076
 -4.57232
 -19.9915
 -19.5277
 -19.9402
 -19.567
 -1.27785
 -1.40252
 -1.58625
 -1.55979
 -4.44554
 -4.47398
 -4.4151
 -2.5197
 -2.34678
 -2.22937
 -2.2682
 -3.50323
 -3.33226
 -3.68493
 -3.32483
 -3.35911
 -8.48225
 -8.41576
 -8.64539
 -9.20807
 -17.819
 -17.3457
 -17.1674
 -17.7113
 -17.6247
 -17.9241
 -17.4868
 -3.73442
 -3.55439
 -19.2892
 -19.6568
 -19.1528
 -15.6042
 -15.4977
 -15.5729
 -15.9869
 -3.47215
 -3.34064
 -3.49708
 -19.6621
 -19.8136
 -19.5172
 -19.948
 -5.7895
 -5.86819
 -6.09679
 -5.59995
 -3.75242
 -3.38397
 -3.52137
 -3.79218
 -2.3528
 -2.74024
 -2.58173
 -2.5002
 -0.440023
 -0.510454
 -0.299442
 -0.308998
 -10.2792
 -10.9826
 -10.6482
 -10.8791
 -6.07868
 -6.1074
 -5.9664
 -5.56425
 -19.5114
 -19.0506
 -19.4848
 1.9013
 1.6594
 1.81868
 1.55012
 -1.69445
 -1.97143
 -1.79378
 -2.0315
 -19.4209
 -19.9892
 -19.7103
 -19.6507
 -8.06107
 -8.11171
 -8.42581
 -16.4432
 -17.1119
 -17.2168
 -3.97501
 -3.94491
 -3.58549
 -19.612
 -19.2892
 -19.1783
 -19.4228
 -15.5686
 -15.3404
 -15.2209
 -14.8653
 -4.85978
 -5.03632
 -5.28535
 -5.02041
 -6.08097
 -5.76162
 -6.04521
 -5.65697
 -13.877
 -13.883
 -13.9584
 -14.446
 -8.87047
 -8.6634
 -8.40219
 -8.58305
 -1.05299
 -1.30373
 -1.31936
 -1.27919
 -16.0616
 -15.1442
 -15.7366
 -15.4746
 -20.1499
 -8.48091
 -8.57957
 -8.82915
 -8.81454
 -17.5114
 -17.8334
 -17.6833
 -18.2255
 -3.17487
 -3.17895
 -3.20925
 -3.21828
 -19.1961
 -19.5373
 -18.9996
 -18.8142
 -7.70945
 -7.60402
 -6.19921
 -6.02545
 -6.27565
 -6.37005
 -13.5705
 -13.1001
 -13.0829
 -13.0975
 -9.44961
 -9.87244
 -9.76883
 -5.99604
 -5.94532
 -6.06642
 -13.7025
 -13.6096
 -13.1435
 -13.1878
 -12.7062
 -12.4749
 -12.9177
 -12.5673
 -3.8932
 -3.66652
 -3.62921
 -7.91336
 -8.68388
 -8.70581
 -8.23283
 -1.15292
 -1.25169
 -1.51516
 -1.15222
 -0.932074
 -19.6234
 -18.6852
 -19.6381
 -19.0008
 -8.53063
 -8.32566
 -8.16204
 -8.52222
 -16.6115
 -16.9462
 -7.08367
 -6.59089
 -6.63549
 -4.6449
 -4.36747
 -4.81797
 -4.73845
 -19.1152
 -18.8823
 -19.3504
 -19.2859
 -3.4602
 -3.54178
 -3.50842
 -4.77592
 -4.66618
 -4.90594
 -4.69302
 -5.9311
 -6.29392
 -6.01521
 -5.62717
 -11.7721
 -12.5183
 -12.0122
 -12.2143
 -4.30622
 -4.69419
 -4.48447
 -4.43681
 -13.2818
 -10.325
 -10.8012
 -10.9307
 -10.2153
 -17.5515
 -17.7088
 -17.1698
 -18.6859
 -18.4885
 -18.46
 -18.1072
 -10.5627
 -10.8092
 -10.3004
 -10.5456
 -20.8066
 -20.7481
 -20.6996
 -20.2289
 -5.83164
 -9.75099
 -9.21621
 -9.22295
 -9.61027
 -8.60253
 -8.04156
 -8.31946
 -8.4026
 -0.484408
 -0.74746
 -0.816693
 -0.552614
 -7.51709
 -7.61179
 -7.73717
 -7.31776
 -6.79756
 -6.83877
 -6.94859
 -7.12865
 -7.16211
 -7.20399
 -7.49779
 -16.5507
 -16.1362
 -15.9583
 -6.88474
 -6.50059
 -6.57719
 -6.76324
 -16.0308
 -16.6865
 -16.3421
 -8.03401
 -7.76461
 -8.76129
 -9.01323
 -8.89816
 -8.88785
 -8.76514
 -8.87545
 -8.37241
 -8.45554
 -8.91977
 -8.75938
 -17.1126
 -17.3311
 -17.3242
 -5.92223
 -18.3486
 -9.42214
 -9.68248
 -9.36218
 -9.03183
 -3.60262
 -3.62018
 -3.32443
 -4.23022
 -4.52221
 -4.65833
 -8.70922
 -8.8653
 -8.46047
 -7.81133
 -7.79575
 -7.95718
 -8.15454
 -8.40625
 -8.10674
 -8.65188
 -8.18039
 1.89182
 1.84218
 2.05383
 -13.7469
 -13.269
 -13.6781
 -7.70821
 -7.7984
 -15.0206
 -14.4009
 -14.5993
 -14.3657
 -9.96166
 -10.2995
 -9.95831
 -0.637866
 -0.703715
 -0.418676
 -0.522796
 -6.89233
 -6.51723
 -6.8463
 -6.53947
 -4.03523
 -3.90099
 -3.76801
 -3.68613
 -11.6464
 -11.0723
 -11.4061
 -11.6263
 -5.43769
 -5.17127
 -5.39492
 -5.01944
 -1.23178
 -1.19486
 -1.19472
 -5.92374
 -5.80755
 -5.63834
 -5.72248
 -11.6748
 -12.1624
 -11.976
 -12.0238
 -8.13774
 -8.53659
 -8.5766
 -8.35353
 -4.4311
 -4.29468
 -4.46375
 -6.43471
 -6.17244
 -6.28804
 -6.24192
 -4.19881
 -3.88858
 -4.2421
 -3.97707
 -2.90708
 -3.23812
 -3.16517
 -2.81703
 -19.1348
 -19.3596
 -19.1663
 -19.3124
 -3.58212
 -3.79551
 -3.72201
 -3.80258
 -4.29202
 -4.09114
 -4.37711
 -4.36179
 -10.82
 -11.3233
 -11.1804
 -11.4832
 -5.84132
 -5.76415
 -6.07486
 -5.9289
 -21.9457
 -22.0412
 -22.0065
 -22.1447
 -7.07423
 -6.92398
 -7.23701
 -3.09471
 -2.90884
 -2.97864
 -3.23041
 -3.47172
 -3.35457
 -3.43326
 -3.3485
 -3.77449
 -3.33395
 -12.3792
 -11.9098
 -12.3064
 -11.7346
 -21.4657
 -21.2558
 -21.4213
 -21.3415
 -6.44394
 -6.12505
 -6.29402
 -6.10752
 -3.86925
 -3.70296
 -3.68052
 -11.4073
 -10.959
 -10.9537
 -11.3049
 -7.22926
 -7.20615
 -7.32746
 -7.63327
 -4.63541
 -4.66242
 -4.61962
 -4.87475
 -2.95096
 -3.34625
 -3.10896
 -14.202
 -14.691
 -14.9067
 -14.2954
 -15.5509
 -15.468
 -15.0516
 -6.53223
 -6.48671
 -6.71668
 -6.92033
 -6.80827
 -6.67218
 -7.04429
 -4.59284
 -4.90256
 -5.04874
 -4.93298
 -11.2375
 -11.0705
 -10.8041
 -3.73057
 -3.72225
 -3.43332
 -8.44591
 -8.82805
 -8.6824
 -15.5595
 -14.9855
 -15.3748
 -11.9958
 -11.9097
 -5.79801
 -6.0127
 -5.73912
 -6.00464
 -6.12258
 -5.98225
 -7.6357
 -7.21563
 -4.8472
 -2.65454
 -2.69394
 -2.47974
 -16.3108
 -16.2424
 -15.5137
 -6.46976
 -6.74222
 -6.64152
 -6.42785
 -4.87708
 -8.15949
 -8.39943
 -11.4801
 -11.6581
 -11.3765
 -11.7891
 -8.08238
 -7.81639
 -8.18268
 -6.66614
 -6.84619
 -6.35951
 -6.70215
 -5.90892
 -6.47001
 -6.88819
 -6.62217
 -6.46038
 -7.02542
 -16.7425
 -16.2623
 -16.1549
 -16.5287
 -17.0811
 -17.4126
 -17.9534
 -17.8216
 -3.67503
 -3.90478
 -8.04286
 -8.02442
 -7.87999
 -7.58892
 -9.515
 -9.61649
 -9.78592
 -9.94181
 -10.8433
 -11.2131
 -10.8358
 -10.7538
 -7.55232
 -7.31558
 -7.20073
 -7.58187
 -6.93391
 -7.17697
 -6.99918
 -6.85465
 -15.4698
 -14.8135
 -15.452
 -15.3408
 -4.03627
 -4.37305
 -4.45255
 -4.67228
 -4.04483
 -4.37396
 -4.20167
 -13.9445
 -14.3603
 -14.8856
 -15.0961
 -4.49022
 -4.71543
 -4.62788
 -4.83815
 -18.1734
 -17.8914
 -18.2262
 -18.0589
 -15.8119
 -15.5468
 -15.7374
 -15.4119
 -6.18365
 -6.35507
 -6.06355
 -6.2107
 -12.1794
 -12.339
 -12.1052
 -11.6752
 -4.74143
 -4.9038
 -5.14148
 -5.2163
 -13.6753
 -13.3947
 -13.4718
 -3.65139
 -3.82881
 -3.60981
 -3.7282
 -10.1427
 -9.97389
 -10.2343
 -10.3855
 -5.91164
 -6.00419
 -13.0689
 -13.8026
 -13.4561
 -13.322
 -13.8683
 -13.7613
 -13.4397
 -7.15181
 -7.62389
 -7.21034
 -14.5009
 -14.5159
 -14.7104
 -15.0425
 -1.31757
 -1.39478
 -1.57485
 -1.50645
 -4.69904
 -4.81653
 -5.05519
 -5.14635
 -10.297
 -9.77947
 -9.84562
 -10.322
 -17.0741
 -17.2235
 -16.8694
 -17.2853
 -15.8274
 -16.2719
 -16.3259
 -15.9586
 -17.2544
 -17.1678
 -17.3217
 -16.9198
 -17.1343
 -5.37304
 -5.56249
 -5.33974
 -5.63641
 -4.00485
 -4.09005
 -3.67292
 -3.94765
 -5.14498
 -5.15269
 -5.87587
 -6.21277
 -5.96075
 -5.9247
 -6.74541
 -6.76501
 -7.14096
 -6.76251
 -4.07526
 -4.08102
 -3.85806
 -8.69219
 -8.45277
 -8.51471
 -8.37117
 -22.1486
 -22.0161
 -21.6837
 -5.52448
 -5.46246
 -5.57304
 -5.87763
 -14.8369
 -14.2181
 -14.5961
 -14.7512
 -11.7567
 -12.2481
 -12.0653
 -8.16745
 -7.95834
 -8.33589
 -12.061
 -12.5419
 -12.1052
 -15.4287
 -15.1092
 -11.639
 -11.6839
 -11.6724
 -4.8139
 -4.93402
 -5.00911
 -4.67112
 -17.7247
 -18.0312
 -17.7416
 -17.5834
 -10.2412
 -10.6875
 -10.4493
 -0.0828475
 0.192704
 0.28005
 -0.0464027
 -3.2901
 -3.14889
 -9.34203
 -5.94809
 -6.39425
 -6.08927
 -5.95136
 -8.5933
 -9.0111
 -8.99451
 -13.306
 -13.3489
 -13.0079
 -13.3513
 -18.6162
 -18.8073
 -7.89933
 -7.76854
 -7.78308
 -7.53903
 -2.95172
 -2.71649
 -2.70252
 -2.986
 -16.0989
 -16.3619
 -16.3322
 -16.1139
 -10.2791
 -10.4553
 -10.2015
 1.4751
 1.58781
 1.75091
 1.74588
 -3.71063
 -3.6599
 -3.43876
 -5.3324
 -5.58553
 -5.15066
 -5.41626
 -10.0758
 -10.1359
 -9.92038
 -10.4239
 -8.06311
 -8.345
 -3.02831
 -3.10452
 -3.07875
 -3.0908
 -10.5918
 -11.0237
 -5.29883
 -4.90381
 -5.06258
 -5.18308
 -6.4574
 -6.59864
 -6.20995
 -6.47815
 -8.17136
 -8.55975
 -8.68599
 -8.39018
 -5.11245
 -4.95717
 -4.62381
 -11.6639
 -11.125
 -11.6976
 -11.2268
 -14.183
 -14.6063
 -14.9931
 -14.2814
 -13.5497
 -13.5535
 -13.6241
 -13.9996
 -2.7666
 -2.50751
 -2.67208
 -2.45437
 -8.2202
 -7.97404
 0.499931
 0.72251
 0.650557
 0.873955
 -6.42483
 -6.1288
 -5.97113
 -19.154
 2.44927
 2.38442
 2.37785
 2.67523
 -7.66593
 -7.84659
 -7.64878
 -7.67591
 -5.65429
 -5.96772
 -5.76938
 -13.8453
 -14.2536
 -14.2752
 -13.813
 -14.0128
 -13.8396
 -14.3688
 -14.368
 -13.5175
 -13.7445
 -13.3507
 -13.1816
 -4.91759
 -5.17302
 -4.75735
 -5.16007
 -3.76128
 -3.66579
 -3.48906
 -3.52508
 -10.7197
 -10.7361
 -11.2033
 -10.6982
 -6.64902
 -6.19961
 -6.8141
 -6.51064
 -21.3923
 -17.3483
 -17.4518
 -9.87696
 -9.86021
 -6.83304
 -6.55677
 -6.63324
 -17.7805
 -18.52
 -18.0752
 -17.8987
 -7.43656
 -7.28671
 -9.69239
 -9.36713
 -0.622329
 -0.873532
 -0.591964
 -0.861347
 -4.87528
 -4.75578
 -4.54254
 -4.68819
 -10.4634
 -10.9755
 -10.559
 -10.8281
 -1.1258
 -0.868919
 -1.07113
 -1.18508
 -20.2287
 -20.0709
 -20.5258
 -20.1677
 -17.2859
 -16.7659
 -18.5692
 -18.2086
 -17.7724
 -18.625
 -14.2881
 -14.6766
 -6.05874
 -6.19973
 -5.96566
 2.07269
 1.86971
 2.13736
 2.10874
 -1.42915
 -1.60644
 -1.66455
 -1.44038
 -17.5624
 -17.9224
 -17.5593
 -17.3267
 -12.3559
 -12.9681
 -12.6063
 -8.8918
 -8.52198
 -8.27999
 -8.66959
 -5.27603
 -5.67752
 -5.33793
 -5.23056
 -15.5765
 -16.0326
 -15.8094
 -17.6806
 -8.45701
 -8.92611
 -5.0329
 -5.14104
 -11.5558
 -12.0812
 -11.4562
 -11.6308
 -3.86298
 -3.52357
 -3.97337
 -3.49971
 -3.47267
 -3.20645
 -3.2922
 1.74514
 1.40707
 1.47033
 1.56252
 -5.34131
 -5.52562
 -5.50197
 -5.7775
 -15.7917
 -15.8604
 -14.8458
 -15.2259
 -15.0769
 -15.2236
 -4.70877
 -4.6852
 -4.97851
 -4.51516
 -13.3946
 -13.1347
 -13.5557
 -11.7866
 -11.8286
 -11.913
 -11.5433
 -15.0756
 -15.3588
 -14.8622
 -15.4658
 -5.21243
 -5.51823
 -5.41138
 -5.26141
 -18.7806
 -18.0346
 -6.93008
 -0.00564093
 -0.123888
 -0.259455
 -0.366031
 -13.3078
 -13.2248
 -13.5834
 -1.44007
 -1.26123
 -1.35529
 -1.17727
 -11.6644
 -11.612
 -11.5907
 -11.9917
 -3.217
 -3.20568
 -2.92524
 -3.28639
 -4.15269
 -4.09847
 -4.35014
 -4.40286
 -11.0316
 -11.3326
 -11.3468
 -5.89426
 -6.03106
 -5.82155
 -5.62733
 -10.4111
 -10.303
 -10.5791
 -9.96338
 -9.47253
 -9.2243
 -14.507
 -14.6655
 -14.629
 -11.8562
 -11.9105
 -11.5371
 0.158843
 0.119738
 -0.105747
 0.0856793
 -3.70317
 -3.9578
 -3.57021
 -4.05028
 -15.812
 -15.1571
 -15.1951
 -15.1598
 -14.4803
 -14.3668
 -4.49212
 -5.06916
 -4.54334
 -11.8049
 -11.3313
 -11.4602
 -11.2369
 -11.6386
 -11.5451
 -11.3564
 -4.97158
 -4.82019
 -5.01213
 -5.06845
 -17.9945
 -18.055
 -6.14572
 -6.02849
 -6.14725
 -6.34954
 -4.76301
 -4.78904
 -4.89962
 -12.2121
 -12.3491
 -7.8781
 -7.69349
 -7.85777
 -8.1514
 -3.28316
 -3.18641
 -10.7908
 -10.6821
 -6.15908
 -5.69777
 -5.76685
 -6.02301
 -8.74148
 -8.72931
 -8.47769
 -8.99237
 -8.69602
 -8.47195
 -8.69736
 -2.2398
 -2.26277
 -2.14424
 -2.62831
 -1.34381
 -1.3591
 -1.54022
 -1.4758
 -11.9235
 -11.5507
 -11.1989
 -11.5025
 -16.2513
 -16.3275
 -15.9699
 -15.9496
 -9.49597
 -9.72697
 -9.39547
 -8.28465
 -8.11576
 -7.92575
