 19.8468
 19.7437
 19.7748
 19.7033
 17.904
 17.8903
 17.8254
 17.793
 18.4411
 18.5097
 18.4229
 18.5159
 18.3659
 18.4208
 18.4687
 18.4879
 17.2262
 17.1253
 17.2703
 17.2939
 17.2648
 17.3439
 17.2027
 17.3144
 20.2284
 20.3068
 20.2818
 20.2279
 20.202
 20.1694
 20.1692
 20.2239
 17.2077
 17.2475
 17.3332
 17.2383
 17.2941
 17.2812
 17.3149
 17.1754
 20.4812
 20.5305
 20.4548
 20.4406
 18.3971
 18.3918
 18.4626
 18.4146
 19.4588
 19.4729
 19.5302
 19.4059
 17.9056
 18.0149
 18.0486
 17.9826
 18.7638
 18.7773
 18.7326
 18.6747
 19.9859
 20.0417
 19.9464
 20.0399
 17.5619
 17.4981
 17.5579
 17.4578
 18.2074
 18.2553
 18.1864
 18.2399
 18.7662
 18.7527
 18.7401
 18.6946
 17.5236
 17.5322
 17.4894
 17.4178
 20.1484
 20.234
 20.1429
 20.2036
 16.9967
 17.0003
 16.8988
 16.8797
 21.0721
 21.1193
 21.1168
 21.051
 18.1087
 18.0589
 18.1315
 18.1482
 18.8745
 18.9185
 18.8397
 18.8259
 18.6591
 18.6501
 18.6924
 18.7169
 19.1986
 19.1214
 19.0841
 19.1867
 19.9998
 20.0561
 19.9877
 19.9912
 19.5067
 19.5272
 19.5975
 19.5536
 17.9943
 18.0101
 18.0356
 18.095
 18.8268
 18.7006
 18.8462
 18.8066
 19.4511
 19.3869
 19.3938
 19.4473
 18.2845
 18.3698
 18.2837
 18.3549
 17.8749
 17.9149
 17.9145
 17.9044
 19.4648
 19.5471
 19.4578
 19.5782
 19.9152
 19.9213
 19.9357
 19.9326
 18.3316
 18.4299
 18.3586
 18.3639
 20.3103
 20.2811
 20.2634
 20.2551
 18.1255
 18.1131
 17.9765
 18.0099
 16.7119
 16.8177
 16.7408
 16.8376
 18.5732
 18.5996
 18.5609
 18.6572
 18.0395
 17.9709
 17.9997
 18.0456
 20.2409
 20.2436
 20.1759
 20.2924
 18.2572
 18.3277
 18.2975
 18.223
 17.2086
 17.2408
 17.1593
 17.2097
 19.6582
 19.5952
 19.6236
 19.6534
 18.2699
 18.1507
 18.183
 18.1609
 19.8881
 19.8166
 19.8671
 19.9411
 19.4599
 19.5078
 19.5349
 19.5549
 18.7546
 18.8119
 18.8228
 18.8907
 20.0176
 20.0493
 20.0723
 20.0069
 18.603
 18.6723
 18.6621
 18.6167
 19.3219
 19.3999
 19.3077
 19.4298
 18.5728
 18.5259
 18.5639
 18.5299
 19.5427
 19.4784
 19.5292
 19.4342
 18.451
 18.4602
 18.3947
 18.5153
 18.0534
 18.0525
 18.0027
 17.9521
 18.0106
 18.0746
 18.0376
 18.1432
 19.6075
 19.6285
 19.7107
 19.5783
 19.1465
 19.1864
 19.1846
 19.0917
 20.9532
 20.9869
 21.0312
 20.979
 19.5428
 19.5666
 19.6327
 19.5531
 18.8637
 18.7557
 18.8113
 18.7983
 19.3088
 19.3099
 19.2057
 19.362
 19.4003
 19.3239
 19.4044
 19.335
 20.0866
 20.1302
 20.0681
 20.0704
 17.4856
 17.3868
 17.3405
 17.4903
 17.2653
 17.2336
 17.1896
 17.1575
 18.7071
 18.6097
 18.7686
 18.713
 19.5145
 19.5357
 19.4871
 19.5774
 18.098
 18.0678
 18.0212
 18.1039
 20.1147
 20.2655
 20.2052
 20.202
 20.1496
 20.2099
 20.2395
 20.1431
 21.1034
 21.1549
 21.0928
 21.1047
 18.5114
 18.4129
 18.4773
 18.401
 19.6514
 19.5713
 19.557
 19.641
 19.8176
 19.8715
 19.7806
 19.7788
 17.0891
 16.9858
 17.0237
 16.9716
 19.9787
 20.0169
 20.0762
 19.9981
 19.8352
 19.8731
 19.9155
 19.8393
 19.6989
 19.6444
 19.71
 19.7684
 19.0234
 19.0393
 18.9752
 18.9842
 19.7802
 19.6956
 19.7584
 19.7301
 19.4728
 19.4356
 19.4121
 19.449
 19.1414
 19.1636
 19.1957
 19.2206
 19.9287
 20.0206
 19.9106
 20.0158
 21.2728
 21.2816
 21.2052
 21.2054
 20.0954
 20.0695
 20.0207
 20.0601
 18.4397
 18.5037
 18.4203
 18.5396
 18.4305
 18.4694
 18.4055
 18.486
 18.0232
 18.0913
 18.094
 18.0323
 20.2751
 20.2864
 20.2633
 20.2302
 16.8821
 16.8973
 16.971
 16.8305
 18.1442
 18.0699
 18.1611
 18.1316
 20.286
 20.2814
 20.3494
 20.3669
 19.4302
 19.4386
 19.4618
 19.3424
 19.8561
 19.8017
 19.9194
 19.8732
 19.8392
 19.8736
 19.8798
 20.2422
 20.2517
 20.2604
 20.2924
 18.2683
 18.3202
 18.3764
 18.2418
 19.1703
 19.0651
 19.0987
 19.1504
 18.4081
 18.3252
 18.4018
 19.5251
 19.627
 19.5572
 19.5858
 18.9913
 18.9216
 18.9459
 19.0344
 17.6079
 17.7472
 17.7363
 17.5671
 20.1168
 20.1084
 20.0171
 20.0503
 19.8867
 19.9381
 19.9829
 19.93
 18.5146
 18.6067
 18.6203
 18.5861
 18.1553
 18.2091
 18.0817
 18.0881
 20.2279
 20.2082
 20.2389
 20.2903
 19.9233
 19.8998
 19.7821
 19.8175
 19.2255
 19.139
 19.0908
 19.213
 17.3404
 17.2847
 17.3151
 17.2948
 18.4745
 18.3869
 18.3495
 18.3934
 18.9019
 19.02
 18.9297
 18.9017
 20.989
 21.0676
 20.989
 20.9912
 19.0899
 19.1442
 19.051
 19.0062
 17.6136
 17.7123
 17.6145
 17.7355
 19.7199
 19.8307
 19.6761
 19.7026
 19.9606
 19.9465
 20.0186
 19.9753
 19.9594
 20.0319
 20.017
 19.9968
 20.5925
 20.6005
 20.5983
 20.5619
 19.7528
 19.8653
 19.8548
 19.8575
 18.4976
 18.5013
 18.4879
 18.5535
 20.2727
 20.2431
 20.2203
 20.1962
 17.4893
 17.5704
 17.4957
 17.473
 20.1402
 20.2296
 20.2236
 20.146
 17.6597
 17.7898
 17.6427
 17.7271
 19.1763
 19.2384
 19.2353
 19.1888
 19.3221
 19.2457
 19.2255
 19.2948
 19.6214
 19.6212
 19.519
 19.5934
 19.7735
 19.7735
 19.842
 19.8541
 16.9877
 16.8911
 16.8635
 16.8797
 19.7127
 19.7664
 19.7109
 19.7543
 16.722
 16.8126
 16.753
 16.8813
 18.1252
 18.1593
 18.0562
 18.1329
 20.7982
 20.7238
 20.738
 20.7992
 17.1235
 17.1368
 17.0736
 17.042
 19.9829
 19.9114
 19.981
 20.0423
 20.753
 20.8053
 20.8308
 20.7573
 17.851
 17.8825
 17.9287
 17.8899
 17.1707
 17.0513
 17.1432
 17.1947
 18.6841
 18.6745
 18.7033
 18.7319
 17.9502
 18.0495
 17.9319
 18.0426
 19.8857
 19.9728
 19.921
 19.9472
 18.544
 18.5792
 18.5509
 18.4808
 19.3914
 19.4062
 19.3464
 19.3402
 20.1813
 20.1421
 20.1991
 20.2002
 20.4412
 20.4552
 20.4649
 20.3931
 19.1292
 19.1563
 19.0833
 19.1834
 18.9074
 18.9242
 18.9411
 18.9967
 19.9176
 19.9271
 19.8648
 19.8594
 19.9101
 20.0183
 19.9235
 19.9308
 18.388
 18.3656
 18.4247
 18.4348
 17.2333
 17.3052
 17.1723
 17.1448
 17.4153
 17.4636
 17.394
 17.3657
 17.4644
 17.5595
 17.5362
 17.4823
 18.1648
 18.2156
 18.1378
 18.2155
 19.9095
 20.0163
 19.9376
 19.9665
 19.8715
 19.8144
 19.7954
 19.7831
 18.9016
 18.9547
 19.0287
 19.0515
 18.1728
 18.2148
 18.1048
 18.1662
 18.2005
 18.2453
 18.2081
 18.1461
 18.7224
 18.7974
 18.7381
 18.7219
 18.4568
 18.3847
 18.4717
 18.4593
 20.3343
 20.3425
 20.3012
 20.2348
 21.5052
 21.5542
 21.4963
 21.5744
 19.7048
 19.7121
 19.7917
 19.7438
 21.3214
 21.2475
 21.2637
 19.7609
 19.7796
 19.7296
 19.8102
 17.4899
 17.5485
 17.5076
 17.5648
 18.7994
 18.7653
 18.7393
 18.6764
 17.3448
 17.388
 17.2966
 17.4064
 19.9394
 19.9286
 20.0144
 19.9489
 18.2048
 18.2033
 18.0627
 18.0994
 18.7033
 18.7268
 18.8135
 18.7504
 17.0199
 16.9603
 16.9406
 17.1115
 17.8464
 17.8666
 17.8281
 17.7545
 19.6795
 19.6055
 19.6558
 19.6819
 18.1687
 18.1773
 18.2566
 18.1553
 17.6956
 17.8257
 17.7603
 17.8029
 20.733
 20.8167
 20.7968
 20.8112
 18.8172
 18.7893
 18.7358
 18.7253
 17.6775
 17.6439
 17.6393
 17.7204
 18.4118
 18.3386
 18.4641
 18.2892
 17.6737
 17.769
 17.6649
 17.669
 19.8399
 19.7675
 19.7279
 19.7455
 17.8032
 17.654
 17.8215
 17.6836
 19.1693
 19.1284
 19.2491
 19.1698
 19.0213
 18.9919
 18.9421
 19.0397
 17.8453
 17.8846
 17.9422
 17.8024
 16.7653
 16.842
 16.8447
 16.7903
 20.3614
 20.32
 20.2777
 20.2518
 19.5014
 19.4269
 19.3925
 19.4831
 18.4975
 18.5535
 18.5851
 18.5623
 17.8965
 17.8326
 17.8577
 17.8214
 19.6818
 19.752
 19.7182
 19.7093
 20.2035
 20.125
 20.0856
 20.1872
 18.1304
 18.1248
 18.2367
 18.2233
 18.3172
 18.2476
 18.3228
 18.2892
 17.1041
 17.0184
 16.9445
 17.095
 20.028
 19.9292
 20.047
 19.9863
 17.2158
 17.1242
 17.1381
 17.1993
 19.5086
 19.4329
 19.4984
 19.5226
 21.4553
 21.4631
 21.4259
 21.4121
 17.4857
 17.4518
 17.3806
 17.4335
 18.2979
 18.252
 18.3458
 18.4139
 17.5726
 17.5585
 17.6189
 17.6212
 18.9649
 19.0579
 19.0033
 18.9606
 19.1464
 19.1101
 19.0936
 19.1364
 17.9482
 18.0541
 18.048
 18.0082
 19.9222
 19.8844
 19.9607
 19.9053
 20.0796
 20.0394
 20.0283
 20.0697
 21.0678
 21.1009
 21.1158
 21.1292
 18.64
 18.5925
 18.5524
 18.523
 18.8839
 18.9136
 18.7811
 18.8726
 18.4594
 18.5907
 18.4872
 18.4327
 19.4529
 19.3424
 19.3301
 19.4674
 17.166
 17.1664
 17.1129
 17.2679
 17.1464
 17.0037
 17.1468
 17.166
 18.3807
 18.3437
 18.2792
 18.2712
 21.9341
 21.9464
 21.9202
 21.8716
 19.1577
 19.2043
 19.1452
 19.2478
 19.1255
 19.1444
 19.2344
 19.1445
 19.1655
 19.1444
 19.2465
 19.2394
 17.8486
 17.8873
 17.7733
 17.8942
 20.8972
 20.8169
 20.9384
 20.8986
 21.0952
 21.11
 21.1526
 21.1897
 17.7604
 17.825
 17.7639
 17.8599
 19.5714
 19.4743
 19.608
 19.4931
 19.3442
 19.3629
 19.3298
 19.326
 18.2537
 18.2863
 18.3235
 18.3987
 20.0232
 19.979
 19.952
 19.9936
 17.8084
 17.8749
 17.8651
 17.7947
 19.4355
 19.5696
 19.5103
 19.617
 19.5421
 19.5474
 19.6147
 19.566
 20.2155
 20.2582
 20.1802
 20.2636
 19.2456
 19.1501
 19.1979
 19.1325
 17.6516
 17.6074
 17.619
 17.6773
 18.2062
 18.1175
 18.0842
 18.1645
 19.9946
 20.0033
 19.9372
 19.9399
 19.7025
 19.6079
 19.6083
 19.6988
 17.4168
 17.3769
 17.3119
 17.3586
 17.8811
 17.9574
 17.9154
 17.9332
 19.0889
 19.1207
 19.1692
 19.1172
 20.3121
 20.2937
 20.2973
 20.2674
 20.61
 20.5022
 20.5291
 20.6016
 18.3463
 18.4421
 18.4785
 18.4035
 20.1234
 20.1937
 20.1257
 20.2656
 17.5013
 17.6125
 17.6049
 17.5101
 18.519
 18.4041
 18.4691
 18.5368
 17.8351
 17.8656
 17.9009
 17.845
 18.157
 18.266
 18.2532
 18.1872
 19.1516
 19.2004
 19.1445
 19.0928
 19.8456
 19.9793
 19.9496
 19.8899
 20.4908
 20.3807
 20.4744
 20.467
 20.2365
 20.332
 20.2289
 20.2567
 19.8667
 19.947
 19.9607
 19.9085
 19.0398
 19.0098
 19.0057
 19.1479
 19.0574
 18.9956
 19.022
 19.0844
 18.9748
 19.0419
 18.9162
 18.9851
 18.4278
 18.4739
 18.3893
 18.4047
 20.8284
 20.9075
 20.8625
 20.8692
 18.7674
 18.7417
 18.7798
 18.6929
 20.0089
 20.086
 20.0507
 20.0338
 19.3565
 19.2523
 19.3285
 19.2726
 17.2362
 17.3927
 17.2629
 17.3114
 19.0161
 19.0561
 19.0598
 19.0962
 20.1448
 20.1876
 20.1629
 20.2457
 19.3134
 19.3368
 19.2705
 19.2299
 19.8254
 19.7821
 19.7854
 19.8546
 19.0903
 19.1926
 19.0944
 19.1787
 20.7791
 20.8391
 20.8107
 20.7495
 19.3627
 19.3541
 19.2973
 19.2852
 18.3364
 18.3602
 18.292
 18.3659
 18.4264
 18.4176
 18.3852
 18.4116
 17.3306
 17.5078
 17.3709
 17.4351
 19.6701
 19.6794
 19.6025
 19.6565
 19.8491
 19.7967
 19.8636
 19.719
 17.2908
 17.4219
 17.3003
 17.3263
 19.8342
 19.8329
 19.7538
 19.8299
 17.6982
 17.7278
 17.6276
 17.7399
 18.7603
 18.643
 18.7116
 18.655
 19.059
 19.1757
 19.0676
 19.0423
 19.9003
 19.816
 19.8249
 19.9011
 19.1019
 19.0956
 18.9916
 19.0874
 17.6778
 17.6993
 17.664
 17.654
 21.5175
 21.4893
 21.4672
 21.5631
 20.3458
 20.364
 20.3645
 20.3384
 20.2561
 20.2372
 20.2582
 20.313
 19.5652
 19.5275
 19.6074
 19.4972
 19.3678
 19.4339
 19.3859
 19.4242
 19.6619
 19.7111
 19.729
 19.659
 17.082
 17.1242
 16.974
 17.132
 19.9302
 19.9838
 19.9801
 19.8722
 18.4824
 18.4838
 18.4517
 18.5454
 18.9805
 17.799
 17.8926
 17.8879
 17.9124
 18.5697
 18.493
 18.431
 18.4939
 20.4166
 20.3781
 20.3623
 20.3925
 19.4945
 19.5278
 19.4631
 19.4135
 19.7101
 19.7928
 19.7408
 19.7406
 17.6148
 17.7133
 17.6939
 17.6829
 19.2846
 19.4035
 19.3195
 19.3507
 17.5089
 17.4973
 17.5952
 17.5808
 18.1996
 18.1473
 18.2393
 18.1255
 20.383
 20.3302
 20.3597
 20.2647
 19.8886
 19.9696
 19.8354
 19.8942
 18.439
 18.381
 18.3675
 18.4287
 19.0785
 19.178
 19.0617
 20.2076
 20.2425
 20.2079
 20.1771
 18.3452
 18.5009
 18.3928
 18.4624
 19.7489
 19.8466
 19.8253
 19.7912
 19.1123
 19.229
 19.1657
 19.1015
 17.4389
 17.4398
 17.5818
 17.4657
 19.5772
 19.6097
 19.658
 19.5923
 17.8369
 17.9589
 17.8673
 17.8284
 18.9632
 19.0273
 18.9692
 19.0643
 17.9796
 18.039
 18.1171
 18.0635
 17.5529
 17.552
 17.4415
 17.4921
 19.5224
 19.5351
 19.4702
 19.4765
 21.4601
 21.3638
 21.3683
 21.3213
 16.9258
 16.9866
 16.9951
 17.0032
 18.4146
 18.4612
 18.4866
 18.4323
 20.0197
 20.0297
 19.8847
 19.9963
 19.3392
 19.2687
 19.2625
 19.3418
 20.6955
 20.6752
 20.6892
 20.7468
 17.5193
 17.4563
 17.3439
 17.4303
 20.2562
 20.3093
 20.2809
 20.2702
 18.674
 18.5948
 18.7098
 18.6507
 19.9443
 20.0888
 19.9723
 19.985
 16.8521
 16.8671
 16.8616
 16.9634
 16.99
 17.0145
 17.0796
 17.142
 18.11
 18.1912
 18.2193
 18.0856
 18.626
 18.5971
 18.6191
 18.6866
 18.6091
 20.0829
 20.0699
 20.1534
 20.1002
 19.9857
 20.0153
 20.0424
 19.9646
 18.3167
 18.2397
 18.2344
 18.2232
 20.1361
 20.069
 20.0699
 20.1402
 19.8231
 19.854
 19.8608
 19.7901
 18.1379
 18.1031
 18.1142
 18.2036
 19.477
 19.3793
 19.4754
 19.3837
 18.3236
 18.3165
 18.3124
 18.245
 19.7841
 19.8007
 19.8622
 19.8029
 19.5929
 19.5449
 19.5217
 19.5148
 19.1997
 19.1148
 19.2273
 19.1463
 18.6604
 18.5644
 18.6132
 18.5236
 17.9066
 17.9523
 17.8139
 17.8419
 18.7363
 18.761
 18.8066
 18.7954
 18.7664
 18.7166
 18.7004
 18.716
 20.4363
 20.4377
 20.3923
 20.3664
 18.4615
 18.4581
 18.4089
 18.4463
 19.004
 18.988
 18.9428
 19.0012
 18.9031
 18.9169
 18.9713
 18.9255
 19.4916
 19.4743
 19.5548
 19.4995
 20.1989
 20.209
 20.165
 20.2741
 18.0653
 18.099
 18.0557
 18.0151
 20.1711
 20.2269
 20.207
 20.1168
 17.1044
 17.1115
 16.9786
 17.059
 17.9104
 17.9753
 17.8646
 17.9066
 17.8811
 17.865
 17.8538
 17.8919
 17.7014
 17.7448
 17.7528
 17.6501
 18.2076
 18.1674
 18.2477
 18.1695
 20.708
 20.7506
 20.8223
 18.8006
 18.9182
 18.8194
 18.83
 17.9501
 17.9959
 18.0202
 17.9655
 19.5263
 19.6155
 19.5691
 19.5485
 19.8066
 19.776
 19.8384
 19.7691
 18.1718
 18.1541
 18.0951
 18.2478
 19.206
 19.2296
 19.2052
 19.1222
 19.7336
 19.7266
 19.7659
 19.7699
 17.1222
 16.9945
 18.4781
 18.4887
 18.5797
 18.5658
 19.1659
 19.1977
 19.2414
 18.7478
 18.7172
 18.7268
 18.8179
 20.5021
 20.5361
 20.4536
 20.4642
 17.8376
 17.776
 17.7736
 17.8803
 18.7811
 18.8026
 18.8529
 18.8398
 19.5339
 19.6
 19.5564
 19.4862
 18.8349
 18.9172
 18.892
 18.8536
 20.1814
 20.2217
 20.1489
 20.1834
 20.3409
 20.2122
 20.3067
 20.2809
 19.2038
 19.1407
 19.1119
 19.1602
 20.1121
 20.1275
 20.1257
 20.0653
 19.0905
 19.1335
 19.1161
 19.147
 17.7106
 17.7359
 17.8355
 17.846
 20.082
 20.037
 20.002
 20.0545
 21.0425
 20.9763
 21.0041
 20.9701
 18.5102
 18.6673
 18.5791
 18.5337
 19.3014
 19.2436
 19.3171
 19.2459
 20.1706
 20.1835
 20.1054
 20.1215
 19.1676
 19.2075
 19.1208
 19.1363
 17.5426
 17.5735
 17.5191
 17.5353
 19.8772
 19.8844
 19.9237
 19.8897
 18.6089
 18.6513
 18.6493
 18.6835
 19.3589
 19.2607
 19.3227
 19.2126
 18.2394
 18.1737
 18.1778
 18.1176
 17.7793
 17.7806
 17.7343
 17.8191
 20.0297
 19.9668
 20.0084
 19.8979
 19.6101
 19.5505
 19.5659
 19.5851
 18.6416
 18.6502
 18.7567
 18.6864
 20.2097
 20.1786
 20.1911
 20.1664
 21.4716
 21.5373
 21.5317
 21.4949
 18.8477
 18.9166
 18.9257
 18.9257
 21.6204
 21.6388
 21.5998
 21.5546
 21.5002
 21.4271
 21.423
 21.456
 20.4834
 20.4373
 20.4416
 20.5049
 18.4416
 18.5014
 18.5543
 18.5815
 18.4982
 18.419
 18.4195
 18.3593
 18.3616
 18.4391
 18.3817
 18.4749
 18.5579
 18.6485
 18.6303
 18.5241
 20.7812
 20.837
 20.798
 20.8162
 20.0458
 20.0872
 20.0013
 20.0313
 20.0338
 20.1367
 20.1255
 20.0949
 19.4456
 19.3577
 19.4405
 19.3483
 18.7446
 18.7955
 18.743
 18.7789
 18.2492
 18.2538
 18.2941
 18.2182
 19.9346
 19.8497
 19.8377
 19.9214
 18.4172
 19.1927
 19.1368
 19.1323
 19.1833
 16.9656
 16.9456
 16.8303
 16.9015
 19.2909
 19.2926
 19.2282
 19.2866
 17.5796
 17.471
 17.5504
 20.1119
 20.0634
 20.0396
 20.1269
 21.3227
 21.2592
 21.2786
 21.2394
 19.0607
 19.0741
 18.9818
 19.1202
 19.5009
 19.6
 19.5794
 19.5914
 20.1225
 20.0656
 20.0229
 20.0067
 19.9826
 19.9533
 20.0238
 19.9467
 20.558
 20.6717
 20.6036
 20.6084
 18.6687
 18.6797
 18.6187
 18.506
 19.1078
 19.0268
 19.1258
 19.0627
 19.7072
 19.7685
 19.7074
 19.7304
 19.1961
 19.2616
 19.1025
 18.0434
 18.0964
 18.1141
 19.8563
 19.8517
 19.946
 19.9617
 20.6063
 20.6397
 20.6378
 20.6098
 19.7129
 19.6638
 19.6648
 19.7308
 20.5065
 20.5741
 20.4921
 20.6032
 18.0613
 17.9218
 18.0243
 17.9996
 18.1109
 18.0787
 18.0508
 18
 20.2151
 20.2465
 20.2324
 20.2431
 20.6307
 20.7241
 20.6657
 20.6389
 18.8267
 18.9356
 18.8472
 18.8924
 17.2272
 17.3058
 17.1764
 17.2838
 20.57
 20.5707
 20.6115
 20.5641
 18.4034
 18.4925
 18.4945
 18.3861
 21.0957
 21.1359
 21.0848
 21.1164
 18.2428
 18.1841
 18.2673
 18.1164
 19.3965
 19.4587
 19.363
 19.4836
 18.0701
 18.0678
 17.9727
 17.9864
 20.125
 20.0994
 20.0814
 20.0097
 19.5359
 19.6011
 19.5894
 19.5977
 19.795
 19.8226
 19.7458
 19.7453
 19.7639
 19.7988
 19.7088
 19.8264
 18.8598
 18.8072
 18.8181
 18.8909
 19.2569
 19.3272
 19.2487
 19.253
 17.9325
 18.0162
 18.0517
 18.0075
 17.0787
 16.996
 17.1792
 17.1936
 19.3224
 19.331
 19.3907
 19.3385
 17.7185
 17.7483
 17.7937
 17.6583
 18.287
 18.1648
 18.1256
 18.178
 20.7905
 20.8323
 20.899
 20.808
 20.1829
 20.0544
 20.0773
 20.1189
 19.4162
 19.473
 19.4951
 19.4595
 20.5394
 20.5935
 20.6082
 20.642
 18.7771
 18.6871
 18.7
 18.7405
 18.0572
 17.9043
 17.9889
 17.9658
 20.4941
 20.3958
 20.4864
 20.4954
 19.164
 19.0979
 19.1467
 19.1329
 19.7335
 19.7461
 19.7434
 19.7826
 21.4354
 21.387
 21.3639
 21.4229
 19.569
 19.5828
 19.5846
 19.5177
 19.1134
 19.0622
 19.0787
 19.0482
 18.3791
 18.3036
 18.3549
 18.2786
 19.8299
 19.8123
 19.7998
 19.0961
 19.1104
 19.1309
 19.1157
 19.6
 19.6461
 19.5046
 19.5844
 18.4968
 18.5767
 18.501
 18.5458
 18.4499
 18.3497
 18.3894
 18.3864
 17.5482
 17.6133
 17.5689
 17.6771
 19.9853
 19.9959
 19.9367
 20.0076
 17.2353
 17.2122
 17.1769
 17.2149
 19.8591
 19.7909
 19.853
 19.8936
 19.1153
 19.0267
 19.0383
 18.9931
 19.0212
 19.1116
 19.0756
 19.128
 21.5552
 21.6148
 21.556
 21.5767
 19.6257
 19.6727
 19.6183
 19.6047
 19.1285
 19.1526
 19.073
 18.9836
 19.1985
 19.1775
 19.159
 19.27
 16.9293
 16.9364
 17.0326
 16.9724
 19.8641
 19.7817
 19.7345
 19.8407
 19.7655
 19.8121
 19.7225
 19.8322
 18.2961
 18.1954
 18.2698
 18.2335
 20.0605
 20.0762
 20.1197
 20.1285
 20.0938
 20.1089
 20.0623
 20.1181
 18.4927
 18.5978
 18.5031
 18.5692
 18.489
 18.4797
 18.5564
 18.4792
 18.9471
 18.9356
 18.813
 18.8652
 19.7871
 19.8252
 18.6913
 18.7562
 18.6557
 18.7385
 19.7826
 19.7385
 19.7875
 19.7618
 19.3785
 19.2951
 19.2643
 19.2879
 17.5348
 17.5937
 17.631
 17.5304
 19.2875
 19.2631
 19.2233
 19.2069
 18.1549
 18.0964
 18.0635
 18.1788
 19.8988
 19.7762
 19.8191
 19.7842
 19.5084
 19.5833
 19.5915
 19.5612
 19.1612
 19.0132
 19.0877
 19.0846
 20.0378
 20.104
 20.1295
 20.0777
 20.993
 20.9529
 20.9955
 21.028
 17.3771
 17.3978
 17.4468
 17.4089
 20.5118
 20.5119
 20.4809
 20.538
 18.7235
 18.6918
 18.7756
 18.7717
 20.9893
 20.9763
 20.9548
 21.0275
 18.7417
 18.6568
 18.7091
 18.7201
 19.8618
 19.8711
 19.8995
 19.8816
 19.8867
 19.8627
 19.9378
 19.8924
 18.8864
 18.8569
 18.9485
 18.8963
 17.8693
 17.9568
 17.8755
 17.975
 19.5282
 19.4071
 19.4263
 19.4288
 20.2357
 20.2619
 20.2313
 20.1935
 17.8837
 17.7569
 17.8158
 17.7265
 19.8286
 19.8646
 19.7771
 19.766
 19.4618
 19.385
 19.4084
 19.3597
 18.2481
 18.079
 18.1211
 18.1725
 18.9818
 18.9055
 18.8797
 18.8785
 19.2259
 19.2512
 19.2136
 19.1674
 17.5241
 17.4713
 17.4144
 17.3793
 17.8938
 17.8524
 17.8658
 17.9068
 18.8303
 18.8104
 18.9187
 18.8792
 19.2468
 19.2024
 19.282
 19.1164
 19.6367
 19.6106
 19.6095
 19.508
 20.2251
 20.2287
 20.29
 18.125
 18.0839
 18.0833
 18.0269
 21.0175
 21.0594
 21.1306
 21.1052
 18.3572
 18.4604
 18.4052
 18.4309
 19.9738
 20.072
 20.0172
 20.0096
 20.146
 20.2271
 20.2013
 20.2124
 17.6863
 17.775
 17.733
 17.6144
 19.0244
 19.0701
 18.9974
 19.0515
 19.1675
 19.1953
 19.7926
 19.3384
 19.2577
 19.3576
 19.3015
 21.0061
 20.9457
 18.5026
 18.4733
 18.4473
 20.3337
 20.3018
 20.3907
 20.3364
 18.4224
 18.514
 18.4859
 18.4796
 19.445
 19.37
 19.392
 19.403
 19.8157
 19.6997
 19.7676
 19.7518
 17.6329
 17.6322
 17.5194
 17.5998
 20.3296
 20.259
 20.3363
 20.2521
 18.622
 18.6269
 18.593
 18.5452
 17.3583
 17.3444
 17.4559
 17.4577
 19.0251
 19.1148
 19.0487
 19.1033
 18.5569
 18.6878
 18.6482
 18.6478
 19.1828
 19.1198
 19.181
 19.3008
 16.9569
 17.1433
 16.9828
 17.139
 17.1357
 17.122
 17.1746
 17.2628
 17.3188
 17.372
 17.3806
 17.3108
 19.3742
 19.4406
 19.3612
 19.3727
 18.7786
 18.8901
 18.845
 18.8005
 19.2525
 19.2625
 19.3192
 19.2754
 19.4248
 19.4389
 19.3501
 19.4534
 18.4216
 18.4
 18.3888
 18.4888
 17.9064
 17.8133
 17.8614
 17.7947
 17.8542
 17.8187
 17.906
 17.7704
 18.978
 18.9368
 18.9973
 18.9425
 19.231
 19.2246
 19.2566
 19.2942
 19.8807
 19.9206
 19.8975
 19.8125
 18.1819
 18.1087
 18.1008
 18.2097
 20.4871
 20.4779
 20.5516
 20.4729
 18.1372
 18.0915
 18.1352
 18.143
 18.901
 18.7655
 18.8852
 18.7947
 18.9265
 18.9149
 18.9082
 18.9935
 20.2571
 20.2608
 20.2915
 20.3531
 21.7103
 21.6603
 21.7361
 21.7262
 19.5989
 19.5223
 19.598
 19.5822
 18.0966
 18.1914
 18.146
 18.0945
 20.1224
 20.1961
 20.1413
 20.092
 18.7579
 18.7103
 18.8126
 18.7156
 18.6808
 18.6205
 18.5406
 18.5675
 18.2718
 18.2263
 18.3534
 18.3187
 20.6459
 20.6782
 20.6862
 20.6256
 20.6305
 20.6157
 20.6519
 20.6687
 18.0457
 17.921
 17.9564
 17.9889
 18.4168
 18.537
 18.5613
 18.4821
 19.6649
 19.6528
 19.6971
 19.6972
 19.1543
 19.1749
 19.0995
 19.0599
 18.9477
 18.9277
 18.9307
 18.9829
 19.6563
 19.7199
 19.5881
 19.6946
 18.5793
 18.6418
 18.6089
 18.6743
 16.5926
 16.7279
 16.6298
 16.6095
 18.7098
 18.5971
 18.6139
 18.5609
 19.142
 19.1063
 19.161
 19.0662
 19.1047
 19.1076
 19.1759
 19.1108
 18.9226
 18.8617
 18.9111
 18.9818
 17.2529
 17.2543
 17.3365
 17.2659
 17.9546
 18.0383
 17.991
 18.6004
 18.5918
 18.553
 18.6103
 20.2296
 20.2411
 20.1663
 20.2435
 19.386
 19.3878
 19.4482
 19.3603
 17.8786
 17.9956
 18.0403
 17.9888
 19.8791
 19.8464
 19.8344
 19.801
 19.5326
 19.5836
 19.5902
 19.5081
 19.4157
 19.4567
 19.5421
 19.4615
 18.4209
 18.4855
 18.5071
 18.4897
 18.8772
 18.9405
 18.8709
 19.0072
 18.5948
 18.736
 18.683
 18.6571
 20.0864
 20.0435
 20.0388
 20.0709
 19.5085
 19.4587
 19.4415
 19.5177
 18.5006
 18.5602
 18.4834
 18.4071
 19.5355
 19.5037
 19.4591
 19.5691
 18.709
 18.6216
 18.6266
 18.6663
 20.1205
 20.1495
 20.1012
 20.1626
 17.4745
 17.4489
 17.5468
 17.4761
 19.907
 19.9529
 19.8787
 19.8517
 19.9678
 20.1098
 20.0219
 20.0211
 18.2415
 18.2364
 18.1743
 18.1564
 19.924
 19.9091
 19.8932
 19.8981
 18.6976
 18.7428
 18.7016
 18.786
 20.2874
 20.2855
 20.3716
 20.3565
 18.9171
 18.96
 18.945
 18.8623
 17.5837
 17.4346
 17.5544
 17.4756
 18.8612
 18.9756
 18.9737
 18.9222
 18.3283
 18.2933
 18.3199
 18.3343
 18.6969
 18.726
 18.6972
 18.6612
 18.7051
 18.6828
 18.6524
 18.5937
 17.3255
 17.2989
 17.2659
 17.4123
 20.038
 20.0845
 20.1271
 20.1314
 19.9394
 19.9736
 20.043
 19.9788
 17.7569
 17.7421
 17.8042
 17.6739
 17.6374
 17.5865
 17.6419
 19.7138
 19.7492
 19.7519
 19.6935
 18.718
 18.6237
 18.7001
 18.7144
 18.7516
 18.726
 18.81
 18.7145
 19.9666
 19.9018
 20.0071
 19.9521
 18.2775
 18.2188
 18.2383
 18.2155
 19.2077
 19.2901
 19.284
 19.1913
 18.8901
 18.9807
 18.9653
 18.9978
 18.2045
 18.1406
 18.1211
 18.1405
 20.2923
 20.324
 20.2862
 20.2474
 19.6908
 19.7801
 19.7663
 19.7548
 17.2615
 17.4086
 17.2959
 17.333
 20.0368
 20.0497
 20.0239
 19.9167
 20.2939
 20.3312
 20.3137
 20.3064
 19.1918
 19.1554
 19.1964
 19.0889
 21.0082
 20.9862
 21.0291
 20.9418
 19.0175
 19.0011
 19.0418
 19.01
 18.1399
 18.1881
 18.2117
 18.2256
 17.8663
 17.922
 17.8987
 20.3448
 20.3348
 20.3181
 20.3432
 19.8731
 19.7874
 19.8878
 19.8054
 19.9592
 19.9858
 20.0099
 20.0435
 19.7622
 19.8218
 19.7829
 19.8073
 17.1896
 17.1208
 17.0849
 17.1106
 20.228
 20.2208
 20.2468
 20.2924
 19.8003
 19.862
 19.8116
 19.7321
 17.951
 17.9087
 17.9593
 17.9982
 19.528
 19.5611
 19.5079
 19.7239
 19.812
 19.7524
 18.8093
 18.898
 18.9564
 20.8639
 20.7895
 20.7768
 20.8373
 19.0056
 18.9653
 19.0051
 18.9337
 19.0161
 18.979
 19.0927
 19.0623
 17.7205
 17.6689
 17.7644
 17.7831
 17.5109
 17.551
 17.3831
 17.5358
 20.0244
 20.0808
 20.0891
 19.9726
 18.8241
 18.7285
 18.7347
 18.742
 18.7886
 18.7263
 18.6894
 18.7179
 19.1761
 19.0791
 19.1221
 19.0521
 19.5689
 19.5286
 19.5254
 19.62
 18.8416
 18.9147
 18.8783
 18.8262
 20.0642
 20.0466
 20.082
 20.0253
 17.6903
 17.7241
 17.6834
 17.6571
 19.7879
 19.7989
 19.7583
 19.7267
 17.856
 17.943
 17.8975
 17.8561
 17.4331
 17.4937
 17.5395
 17.4476
 17.5974
 17.6311
 17.6258
 17.65
 19.8925
 19.9462
 18.3996
 18.4112
 18.4749
 18.4356
 19.9894
 19.8929
 19.9433
 19.9726
 18.1554
 18.0077
 18.0614
 18.0294
 17.8275
 17.9191
 17.7993
 17.9068
 19.6154
 19.5707
 19.5557
 19.5971
 18.8968
 18.901
 18.8279
 18.8689
 19.7691
 19.7614
 19.7087
 19.7604
 19.3364
 19.3325
 19.3226
 19.253
 21.3516
 21.2497
 21.3679
 21.277
 17.6001
 17.6495
 17.5283
 17.6241
 19.7216
 19.8009
 19.7081
 19.6864
 20.3332
 20.3912
 20.3877
 20.3103
 19.2516
 19.2824
 19.2095
 19.1747
 20.2602
 20.3605
 20.3758
 20.2656
 19.3302
 19.4199
 19.4329
 19.3719
 18.3579
 18.3887
 18.2873
 18.4158
 19.1163
 19.1699
 19.1711
 19.1371
 17.7176
 17.5724
 17.7182
 19.2423
 19.1629
 19.2846
 19.1877
 21.393
 21.4223
 21.4215
 21.4521
 17.0869
 17.0492
 17.0167
 17.0944
 18.9759
 18.9818
 18.9343
 18.9932
 18.181
 18.2418
 18.3077
 18.2213
 20.0678
 20.0003
 20.1633
 20.0914
 19.5652
 19.5077
 19.6339
 19.567
 19.5798
 19.4691
 19.5225
 19.4716
 17.5698
 17.6333
 17.5556
 17.5005
 19.489
 19.5516
 19.5934
 19.5723
 17.1164
 17.1484
 17.09
 17.2
 18.4095
 18.5005
 18.5034
 18.4009
 20.0355
 20.0178
 19.9885
 20.0288
 21.0404
 21.0257
 20.9688
 21.0639
 19.3165
 19.4256
 19.3615
 19.4439
 19.0822
 19.086
 19.0152
 19.102
 18.264
 18.2746
 18.3168
 18.3951
 21.2946
 21.3496
 21.2625
 21.3121
 19.3061
 19.3671
 19.264
 19.291
 17.3111
 17.3662
 17.3884
 17.3641
 18.0414
 17.9596
 17.9908
 18.0196
 17.9702
 17.993
 17.9066
 18.0157
 17.9776
 18.0516
 18.0709
 18.0356
 17.9665
 17.8548
 17.926
 17.9318
 18.7336
 18.6997
 18.7385
 18.7397
 19.9538
 19.8218
 19.743
 19.7254
 19.7814
 18.5187
 18.6271
 18.5896
 18.5839
 18.5404
 18.5145
 18.6206
 18.612
 20.6145
 20.5751
 20.5791
 20.6136
 17.7931
 17.7966
 17.8409
 17.8002
 18.1763
 18.1061
 18.0257
 18.0834
 20.0551
 19.9422
 19.9647
 19.8352
 19.8374
 19.8536
 19.8128
 19.7631
 19.7789
 19.732
 19.8969
 19.9817
 20.087
 20.0272
 18.5294
 18.4395
 18.4619
 18.5546
 17.3083
 17.2827
 17.3323
 17.2832
 19.1069
 19.1416
 19.0847
 19.1831
 17.4767
 17.6245
 17.6588
 17.6742
 19.292
 19.3135
 19.3431
 19.2595
 18.4889
 18.5675
 18.6153
 18.6024
 19.9495
 19.9618
 19.9798
 20.0343
 18.8696
 18.7693
 18.9006
 18.8189
 18.7135
 18.6228
 18.5736
 18.7094
 19.9105
 19.9454
 20.013
 19.9793
 19.522
 19.5711
 19.4242
 19.4703
 19.2492
 19.26
 19.3199
 19.3655
 18.79
 18.7576
 18.7911
 18.7475
 20.4198
 20.4186
 20.3918
 20.336
 18.5735
 18.662
 18.6178
 18.5554
 19.5164
 19.6119
 19.5008
 19.4638
 18.4075
 18.4219
 18.408
 18.4641
 17.6772
 17.76
 17.6943
 17.7301
 17.5022
 17.5662
 17.555
 17.5302
 17.485
 17.4275
 17.5814
 17.1004
 17.0363
 16.9959
 16.9488
 17.9482
 18.0453
 18.132
 18.0125
 19.1022
 19.1194
 19.0624
 19.0751
 17.3991
 17.4525
 17.506
 17.4123
 19.0217
 19.0198
 19.0662
 19.0761
 18.734
 18.69
 18.7126
 17.7034
 17.6123
 17.6644
 17.6708
 17.6945
 17.7941
 17.7526
 18.8323
 18.848
 18.7863
 18.7677
 19.5614
 19.5249
 19.5731
 19.4721
 18.4609
 18.5288
 18.5518
 18.5638
 17.5413
 17.4779
 17.5271
 17.5643
 19.7792
 19.8067
 19.7777
 19.8464
 19.1624
 19.1906
 19.2432
 19.2671
 19.0287
 18.9099
 19.0232
 19.0263
 18.3306
 18.4143
 18.3605
 18.3581
 19.8381
 19.892
 19.7884
 19.8763
 20.1003
 20.1627
 20.0938
 20.0954
 19.1141
 19.1153
 19.1266
 19.0535
 17.1333
 17.1881
 17.1976
 17.1852
 19.7278
 19.8135
 19.7167
 19.7706
 20.0173
 19.9604
 20.0465
 19.9598
 18.6105
 18.7154
 18.6062
 18.627
 19.7488
 19.7061
 19.7524
 20.0933
 20.0274
 20.057
 18.7743
 18.8424
 18.7129
 18.8111
 19.9811
 20.0167
 20.066
 19.9854
 20.0392
 20.1227
 20.0505
 20.0581
 18.5613
 18.5401
 18.5805
 19.8776
 19.8877
 17.7827
 17.7581
 17.6442
 17.6273
 18.4576
 18.3399
 18.3449
 18.3778
 20.4557
 20.4046
 20.4999
 20.3822
 20.8776
 20.8399
 20.9286
 20.8519
 19.6944
 19.8308
 19.7517
 19.7395
 17.6766
 17.6785
 17.6249
 17.663
 18.4328
 18.4926
 18.5296
 18.4973
 20.3275
 20.3446
 20.3509
 20.3617
 19.7564
 19.754
 19.7097
 19.673
 19.7398
 19.7145
 19.7315
 19.9381
 19.8858
 19.8782
 19.8815
 19.8872
 19.9443
 19.8793
 19.8523
 20.0681
 20.1571
 20.0905
 20.1411
 17.4678
 17.3702
 17.4477
 17.4335
 17.4253
 17.3435
 17.4821
 19.1521
 19.2068
 19.1403
 19.2265
 19.7731
 19.8697
 19.759
 19.7833
 17.0989
 17.02
 20.0876
 20.1434
 20.1272
 20.1735
 18.8869
 18.7561
 18.8394
 18.7737
 18.6557
 18.6886
 19.9913
 20.0047
 19.934
 19.9858
 17.4117
 17.3397
 17.4468
 17.2809
 17.1848
 17.2577
 17.1969
 17.055
 19.2815
 19.2479
 19.2729
 20.5871
 20.5255
 20.5513
 19.841
 19.7456
 19.8487
 19.8276
 18.1592
 18.2425
 18.1024
 18.2253
 19.5686
 19.6171
 19.6454
 19.6857
 19.6925
 19.7339
 19.6654
 19.7446
 18.4989
 18.4918
 18.4664
 18.3655
 21.2391
 21.1784
 21.2431
 21.297
 18.2929
 18.2811
 18.1997
 18.2098
 18.2515
 18.2608
 18.1893
 18.1647
 20.1074
 20.0995
 20.2058
 20.1291
 17.7268
 17.6627
 17.6523
 17.7455
 21.3658
 21.4374
 21.4454
 21.4948
 17.4727
 17.6346
 17.6345
 17.6284
 17.8822
 17.9717
 19.6855
 19.6311
 19.6413
 19.5896
 20.1863
 20.2631
 20.2169
 20.1602
 17.7882
 17.703
 17.7112
 17.7525
 19.6089
 19.5942
 19.5994
 19.6456
 17.0959
 17.1529
 17.1177
 19.8093
 19.8772
 19.8962
 20.2842
 20.1963
 20.1747
 17.5424
 17.485
 17.5169
 17.5545
 19.799
 19.8477
 19.8519
 19.8391
 17.7461
 17.7367
 20.3212
 20.2625
 20.32
 20.3001
 19.0658
 18.9787
 18.9874
 19.042
 19.7203
 19.7485
 19.4193
 19.275
 19.2851
 19.3659
 19.6422
 19.6514
 19.6446
 19.7254
 17.1777
 17.0993
 17.2359
 17.2017
 20.2426
 20.2805
 20.2638
 18.0054
 21.3238
 21.3538
 21.345
 21.3704
 17.7506
 17.7187
 17.6773
 17.8232
 19.6865
 19.6779
 19.5494
 19.5862
 18.2426
 18.2913
 18.2763
 18.2535
 19.6583
 19.7155
 19.7484
 19.6795
 18.5364
 20.605
 20.6281
 20.6288
 20.5955
 18.5008
 18.5081
 18.5253
 18.5903
 17.9272
 17.8919
 17.8376
 17.9989
 17.9772
 18.0766
 17.9718
 17.7227
 17.6113
 17.6975
 17.6735
 20.0663
 20.0431
 19.9557
 20.0027
 17.6694
 17.6678
 17.6836
 17.5994
 20.3132
 20.3277
 20.3136
 20.3894
 17.7535
 17.7002
 17.6728
 17.67
 19.1943
 19.2377
 19.2476
 19.2653
 18.2908
 18.2424
 18.2129
 18.1932
 18.8271
 18.8679
 18.8921
 18.9141
 17.4057
 17.5297
 19.0107
 19.0835
 19.0648
 19.0121
 20.5206
 20.5524
 20.4625
 20.5491
 20.2921
 20.3221
 20.2232
 20.3083
 18.8394
 18.7746
 18.7581
 18.7545
 18.2433
 18.2493
 18.2556
 18.1524
 18.0609
 18.1437
 18.0902
 18.0414
 17.6254
 17.7215
 17.6972
 17.7616
 18.074
 17.9636
 18.0257
 18.0715
 20.2643
 20.2796
 20.2291
 20.3255
 19.9944
 20.0033
 20.0176
 19.9144
 17.0216
 17.1021
 17.1357
 17.1241
 18.7433
 18.694
 18.7237
 18.6015
 19.8858
 19.7899
 19.8729
 19.8305
 21.0576
 21.0654
 20.9901
 21.1077
 17.7158
 17.6751
 17.7521
 17.5932
 19.8678
 19.8422
 19.8241
 19.7774
 19.3585
 19.2951
 19.4016
 19.3433
 20.3958
 20.4127
 20.4012
 20.3425
 18.6057
 18.6551
 18.6185
 18.6154
 17.5402
 17.5321
 17.5713
 17.542
 18.7217
 18.8463
 18.7994
 18.8191
 19.2913
 19.2573
 19.1954
 19.2375
 20.4719
 20.4317
 20.3959
 20.4984
 17.5048
 18.3866
 18.3275
 18.4262
 18.3236
 19.3264
 19.3657
 19.4324
 19.39
 18.1654
 18.1185
 18.1356
 18.055
 19.8547
 19.9353
 19.8869
 19.8435
 18.6641
 18.6026
 18.695
 20.507
 20.3962
 20.4781
 20.4735
 17.9138
 18.0686
 17.9768
 18.022
 20.2084
 20.2237
 20.1658
 20.2097
 16.7238
 16.7684
 16.7356
 16.6696
 19.895
 19.8855
 19.8699
 19.8873
 20.9154
 20.7632
 20.7824
 20.8405
 20.5314
 20.5403
 20.4842
 20.474
 17.0572
 17.1238
 17.1511
 17.1909
 17.407
 17.4149
 17.3692
 17.3563
 19.1531
 19.085
 19.1134
 19.07
 19.7896
 19.822
 19.774
 18.9257
 18.9369
 19.0388
 19.0032
 18.4304
 18.4783
 18.3709
 18.3837
 18.8515
 18.7007
 18.7518
 18.7718
 19.0186
 19.0031
 18.8661
 18.9304
 17.0054
 17.0755
 17.0766
 17.1137
 20.0454
 20.0783
 19.9639
 20.0442
 20.4964
 20.6071
 20.5983
 18.2223
 18.2708
 18.268
 18.3206
 17.8508
 17.7696
 17.8158
 17.8321
 19.8621
 19.8677
 19.8469
 20.013
 19.9981
 19.9525
 20.0663
 17.6152
 17.6694
 17.5741
 17.7098
 19.178
 19.1995
 19.1175
 19.1731
 19.9576
 20.0391
 19.9739
 19.9815
 19.3585
 19.4017
 19.3955
 19.3394
 17.9384
 17.9287
 18.0094
 17.9319
 19.8495
 19.7503
 19.8943
 19.7849
 19.2717
 19.3968
 19.3745
 19.3121
 19.6587
 19.5631
 19.6298
 17.4455
 17.4638
 17.5157
 17.5347
 19.084
 19.0867
 19.1345
 19.042
 16.9856
 17.0341
 16.854
 18.9917
 18.9385
 18.9698
 18.9911
 20.4159
 20.3612
 20.4516
 20.4192
 18.7611
 18.7436
 18.7019
 18.6298
 19.0381
 18.9296
 19.0658
 19.8347
 19.8208
 19.7459
 19.7695
 20.2495
 20.2257
 20.2764
 20.2034
 19.8746
 19.8266
 19.7806
 19.8774
 20.9584
 20.9342
 20.8732
 20.8628
 19.4501
 19.4657
 19.4993
 19.5114
 19.6846
 19.7177
 19.6152
 19.7352
 17.4912
 17.6272
 17.5996
 17.4493
 20.1997
 20.1055
 20.1339
 20.1581
 18.5527
 18.5808
 18.5319
 18.4903
 17.1291
 17.106
 17.1601
 17.2099
 17.112
 17.2469
 17.1853
 17.1592
 18.0182
 17.9673
 18.0078
 18.0025
 17.1159
 16.9931
 17.0057
 17.1741
 17.5452
 17.5427
 17.5546
 16.9549
 17.1058
 17.0673
 17.0681
 20.4369
 20.4741
 20.4381
 20.5014
 19.3395
 19.4414
 19.4535
 19.4258
 19.6061
 19.5196
 19.5868
 19.5177
 19.5612
 19.6099
 19.606
 19.6279
 17.4459
 17.5048
 17.4252
 17.4071
 19.4344
 19.4309
 19.5056
 19.5176
 19.8461
 19.9311
 19.943
 19.87
 18.305
 18.3279
 18.2446
 18.3601
 19.7428
 19.6783
 19.7466
 19.6761
 18.2009
 18.2678
 18.3074
 18.9295
 18.8459
 18.8228
 17.6081
 17.7087
 17.7157
 17.6751
 19.3518
 19.3199
 19.3801
 19.3794
 18.5315
 18.6059
 18.5788
 18.5096
 19.5844
 19.6794
 19.639
 19.558
 16.9728
 17.0343
 17.2998
 17.3338
 17.3678
 17.2471
 20.481
 20.5111
 20.5085
 20.558
 18.5336
 18.4712
 18.451
 18.3904
 19.8268
 19.7545
 19.8336
 19.8667
 21.5926
 21.6916
 21.5968
 21.6279
 19.8548
 19.8913
 19.9383
 19.8827
 18.2825
 18.3661
 18.2854
 20.2388
 20.25
 20.1507
 20.1573
 17.1789
 17.2785
 17.1648
 17.2552
 19.8502
 19.8146
 19.8394
 19.8005
 18.6261
 18.5424
 18.5672
 18.618
 20.3471
 20.3327
 20.4032
 20.3489
 21.1788
 21.158
 21.1498
 21.1143
 19.9609
 19.8984
 19.9603
 19.9832
 19.441
 19.4733
 19.413
 18.8212
 18.9576
 18.8293
 18.8854
 20.0843
 20.0728
 20.1393
 18.1355
 18.1743
 18.1128
 18.0591
 18.02
 17.9026
 18.0295
 17.9294
 18.3067
 18.4073
 18.332
 18.3132
 17.299
 17.5012
 17.4378
 17.4021
 18.0371
 18.0752
 18.0032
 19.6426
 19.5864
 19.6032
 19.5614
 18.1426
 18.2221
 18.4569
 18.5303
 18.5581
 18.5031
 18.3195
 18.3501
 18.3277
 18.282
 19.9115
 19.8799
 19.8964
 19.9596
 19.909
 19.8482
 19.9016
 19.8386
 21.6132
 21.5674
 21.5487
 21.5813
 19.9033
 19.8365
 19.9032
 19.5847
 19.614
 19.6347
 19.6062
 19.0014
 19.0013
 19.0455
 19.0621
 19.6011
 19.5281
 19.5206
 19.5742
 20.4307
 20.3893
 20.4445
 20.4415
 17.891
 18.0198
 17.9286
 17.9784
 19.186
 19.127
 19.1792
 19.2371
 17.5993
 17.6034
 17.6293
 17.5626
 18.8469
 18.9125
 18.8493
 18.8994
 17.3656
 17.3098
 17.3539
 21.1078
 21.0453
 21.0627
 21.0617
 18.3339
 18.2023
 18.3029
 18.2891
 19.2384
 19.305
 19.2232
 19.2601
 20.0209
 20.0713
 19.5799
 19.56
 19.5198
 19.5371
 19.3246
 19.4157
 19.4009
 17.5704
 17.5391
 17.6265
 17.5655
 17.4643
 17.5164
 17.586
 17.5589
 20.0656
 20.0842
 20.0388
 20.076
 19.2263
 19.2452
 19.7564
 19.6825
 19.7317
 19.7959
 18.0774
 18.155
 18.0134
 18.0048
 20.3948
 20.3707
 20.4036
 20.3477
 19.9648
 19.9466
 20.0082
 20.0163
 19.791
 19.7081
 19.671
 19.7129
 18.9238
 18.9319
 18.9441
 18.8202
 18.2462
 18.2525
 18.3052
 18.3177
 18.0664
 18.105
 18.1745
 18.1025
 21.3838
 21.395
 21.4246
 21.4473
 20.2258
 20.1543
 20.1214
 18.7769
 18.9213
 18.8356
 18.7128
 18.6516
 18.7289
 18.6217
 17.5242
 17.4524
 17.5063
 17.4235
 19.1258
 19.8278
 19.8263
 19.8998
 19.8912
 18.46
 18.5047
 18.5747
 18.5434
 17.9515
 18.0514
 18.0478
 17.9391
 17.9274
 17.9213
 20.0753
 20.1116
 20.1428
 20.1519
 18.9725
 18.9038
 18.9262
 18.8977
 20.3028
 20.3301
 20.308
 20.2738
 18.6645
 19.4759
 19.5198
 19.399
 19.3712
 19.6233
 19.5722
 19.5395
 19.5907
 17.5268
 17.6205
 17.3539
 17.2853
 17.2327
 17.3108
 20.7229
 20.7868
 20.7473
 20.724
 18.054
 18.0453
 18.1528
 18.0164
 18.7277
 18.819
 18.7686
 18.6794
 21.2757
 21.2536
 21.2564
 21.3048
 19.0304
 19.0294
 18.9889
 19.0685
 19.1014
 19.1891
 19.2401
 19.2399
 20.0464
 20.1161
 20.0097
 20.0449
 17.0885
 16.9893
 16.9813
 16.9592
 19.172
 19.2562
 19.2498
 19.6602
 19.5854
 19.5801
 19.6525
 17.3017
 17.1821
 17.2732
 17.2573
 19.6971
 19.7453
 19.8041
 19.6891
 19.2624
 19.2071
 17.8765
 17.8858
 17.8131
 17.9567
 18.8103
 18.7945
 18.6991
 18.6974
 17.3121
 17.3626
 17.2472
 17.3124
 19.2247
 19.1007
 19.9499
 19.9248
 19.9062
 19.908
 19.7216
 19.7066
 19.6539
 19.6302
 17.7893
 17.7692
 17.8771
 17.8379
 18.0625
 18.1107
 18.0251
 18.0352
 18.0986
 18.1926
 18.1089
 18.1117
 19.7215
 19.627
 19.6648
 19.7119
 20.7879
 20.8376
 20.8181
 20.7941
 17.1085
 17.0058
 17.0966
 17.0491
 20.0807
 20.0778
 20.0682
 20.03
 18.872
 18.7998
 18.7954
 18.849
 19.5449
 19.4296
 19.5099
 19.4677
 18.8738
 18.971
 18.8783
 18.5458
 18.4488
 18.54
 18.4191
 19.1004
 19.0449
 19.0819
 19.1498
 18.2687
 18.2319
 18.1729
 18.2883
 18.2575
 18.2919
 18.2546
 18.3898
 21.2521
 21.1583
 21.2475
 20.3138
 20.2439
 20.1989
 20.2284
 18.8384
 18.8936
 18.8705
 18.8774
 17.9083
 17.8081
 17.8615
 17.8075
 19.7989
 19.8965
 19.8009
 19.7773
 19.7277
 19.7205
 18.6902
 18.74
 18.6858
 18.6805
 18.9117
 18.8308
 18.8121
 18.7991
 16.5628
 16.5917
 16.6481
 16.5294
 20.507
 20.4748
 20.5263
 20.6088
 18.1809
 18.171
 19.4408
 19.3674
 19.356
 19.4362
 18.3456
 18.3012
 18.3088
 18.2866
 18.7232
 18.71
 18.6562
 18.6798
 19.372
 19.365
 19.2939
 19.4197
 18.4882
 18.4103
 18.4279
 18.4191
 20.0611
 20.0278
 20.0392
 19.9812
 20.2703
 20.3424
 20.2601
 20.2994
 17.8693
 17.8312
 17.7759
 17.6488
 18.8911
 18.8538
 18.7896
 20.8587
 20.8952
 20.8344
 17.742
 17.6972
 17.6814
 17.6466
 17.6617
 17.6939
 17.7303
 17.7345
 19.0687
 19.0526
 19.0403
 18.9876
 17.5176
 17.459
 17.4831
 17.4727
 17.2464
 17.1258
 17.2327
 17.1181
 19.3261
 19.2902
 19.2284
 19.31
 17.9292
 17.886
 17.8546
 17.8628
 16.6289
 16.5911
 16.6953
 16.5733
 18.1246
 18.1102
 18.1642
 18.0357
 18.8156
 18.9336
 18.8819
 18.9605
 17.8112
 17.7551
 17.8245
 17.8471
 18.3496
 18.3676
 18.3126
 18.5943
 18.5226
 20.6065
 20.6012
 20.6225
 20.6489
 18.6139
 18.5351
 18.5518
 18.5712
 20.7569
 20.741
 20.728
 20.7259
 20.6633
 20.6742
 20.6041
 20.5735
 18.7367
 18.7005
 18.6917
 18.7645
 19.4643
 19.4647
 19.5302
 19.4296
 18.4622
 18.3758
 18.3973
 18.4087
 19.0142
 19.0703
 20.3643
 20.4042
 20.3858
 20.3238
 17.1955
 17.1625
 17.1163
 17.1955
 19.4205
 19.4841
 19.3619
 19.4113
 17.6982
 17.7287
 17.7983
 17.7438
 20.3467
 20.4064
 20.3469
 20.3726
 17.6018
 17.4589
 17.5044
 17.4804
 18.5877
 18.6963
 18.6119
 18.6253
 19.7728
 19.8461
 19.9005
 19.8586
 16.8135
 16.8644
 16.8518
 16.9265
 19.6537
 19.5633
 19.6322
 19.6551
 19.2861
 19.4043
 19.3272
 19.3652
 17.1915
 17.1746
 17.2603
 17.1716
 19.0657
 19.1818
 19.1527
 19.1566
 17.8416
 17.7717
 17.8104
 17.8503
 17.8352
 17.8962
 17.8692
 19.2736
 19.4148
 19.3476
 19.3809
 17.9032
 17.8179
 17.8721
 17.8462
 20.1318
 20.0495
 20.0567
 20.1381
 17.695
 17.6363
 17.6435
 17.687
 17.7327
 17.7638
 17.7094
 17.75
 19.963
 19.9793
 19.8392
 19.9125
 19.9186
 19.95
 19.8752
 19.9826
 21.8593
 21.8399
 21.9005
 21.886
 18.0251
 18.1249
 18.1104
 20.612
 20.5127
 20.5172
 20.555
 17.3745
 17.4456
 17.4289
 17.4084
 19.9842
 17.7522
 17.839
 17.804
 17.737
 17.7523
 17.8141
 17.8276
 21.3562
 21.4374
 21.4174
 21.3809
 21.446
 21.4571
 21.4645
 21.4864
 17.35
 17.4245
 17.3535
 17.2987
 19.9047
 19.9393
 19.8662
 19.9523
 18.3726
 18.4181
 18.3189
 19.5655
 19.6307
 19.5706
 19.676
 19.2727
 19.2672
 19.3036
 17.7227
 17.7629
 17.6305
 18.7417
 18.6864
 18.6691
 18.7243
 19.5483
 19.6269
 19.6346
 19.5759
 19.997
 19.9729
 20.0113
 19.9798
 18.4007
 18.3495
 18.3399
 20.371
 20.3358
 20.4359
 20.4393
 19.9304
 19.7832
 19.8726
 19.3356
 19.2122
 19.2304
 19.2944
 19.9724
 19.8989
 19.9069
 19.9337
 19.9635
 19.8651
 19.8481
 19.8717
 17.664
 17.7193
 17.7169
 17.7298
 19.2097
 19.2799
 19.2198
 19.1853
 19.6454
 19.6708
 18.8089
 18.8679
 18.8266
 18.9072
 17.383
 17.4911
 17.451
 17.4797
 17.4948
 21.9376
 21.9605
 21.9725
 21.9393
 17.9718
 17.8812
 17.928
 17.1052
 17.1416
 17.1745
 17.1271
 18.1613
 18.2793
 18.2629
 18.2738
 20.013
 19.9831
 19.9429
 20.0187
 19.2655
 19.3195
 19.3513
 19.322
 17.0309
 17.0434
 17.0759
 17.088
 18.0146
 18.077
 18.1327
 18.0691
 20.409
 20.4636
 20.469
 20.3777
 19.3749
 19.3491
 19.3334
 19.4529
 19.4997
 19.4626
 19.416
 19.4779
 21.9579
 21.9707
 21.9693
 21.9527
 20.1399
 20.1539
 20.1792
 20.1054
 18.0405
 17.9389
 18.0517
 17.9937
 18.6593
 18.6663
 18.5917
 18.6916
 19.1449
 19.0871
 19.0245
 19.1323
 18.2903
 18.2075
 18.2348
 18.2376
 18.5851
 18.5935
 18.5172
 18.5993
 18.2018
 18.1978
 18.2636
 18.1062
 16.781
 16.9376
 16.8864
 16.7358
 17.9272
 17.965
 17.9869
 18.1026
 18.2384
 18.2855
 18.3527
 18.2686
 18.3944
 18.857
 18.8565
 18.9106
 18.7829
 17.4103
 17.449
 17.4648
 17.46
 19.2251
 19.268
 19.1914
 19.2203
 18.7307
 18.6957
 18.6531
 18.7774
 18.9783
 19.0622
 19.0078
 18.9417
 19.5064
 19.6165
 19.5348
 19.6071
 21.0206
 20.9876
 20.9112
 21.0361
 16.6543
 16.7988
 18.5011
 18.5464
 18.5559
 21.6742
 21.6757
 21.6838
 19.7984
 19.8515
 19.8169
 19.8803
 20.631
 20.6276
 20.7254
 20.7257
 20.129
 20.1658
 20.1112
 20.2042
 17.2665
 17.3857
 17.3381
 17.3192
 18.8929
 18.9933
 18.9485
 19.008
 18.3228
 18.2329
 18.2327
 18.1551
 18.5989
 18.6368
 18.6813
 18.7502
 18.2496
 18.2064
 18.2821
 18.2541
 19.1328
 19.1279
 17.7886
 17.9687
 17.809
 17.9602
 18.134
 18.1877
 18.2286
 18.0659
 19.8188
 19.91
 19.8065
 19.8977
 19.8761
 19.8564
 19.8584
 19.8467
 18.8032
 18.7879
 18.8229
 18.7697
 18.8002
 18.7462
 18.6952
 18.6362
 20.1572
 20.2547
 20.2824
 20.1324
 18.1918
 18.2591
 18.2893
 18.2968
 16.8506
 16.9017
 16.8522
 16.8971
 17.7323
 17.7803
 17.7795
 17.8198
 16.7707
 16.7208
 16.8179
 16.694
 17.6471
 17.551
 17.5749
 17.5708
 18.9167
 18.8102
 18.8984
 18.8727
 18.3444
 18.3961
 19.0919
 18.9939
 19.1182
 19.0658
 19.874
 19.8011
 19.8133
 19.7851
 18.0265
 17.9
 17.8979
 17.9792
 19.1203
 19.1384
 19.1173
 19.2073
 19.3072
 19.3688
 19.3903
 19.3543
 19.9818
 19.9811
 19.9448
 19.8787
 19.7013
 19.6956
 19.7443
 19.6274
 19.9235
 19.869
 19.8654
 19.8979
 20.9843
 20.9757
 21.0271
 21.0056
 18.0919
 18.0609
 18.1484
 18.0765
 18.4104
 18.3899
 20.7951
 20.7884
 20.7935
 20.8617
 19.5895
 19.5592
 18.478
 18.5458
 18.4662
 17.8345
 17.8063
 20.1377
 20.1494
 20.1882
 20.0937
 20.8832
 20.8461
 20.8469
 20.8275
 20.2349
 20.1926
 20.1502
 20.1362
 19.6059
 19.5373
 19.521
 19.5122
 18.6195
 18.7174
 18.7221
 18.7149
 18.289
 18.3246
 18.3375
 18.3505
 19.6346
 19.5674
 19.5559
 19.5745
 18.777
 18.7795
 18.7429
 18.8632
 18.9057
 18.9613
 18.9804
 18.938
 18.8622
 18.8039
 18.7667
 18.8009
 18.7598
 18.8861
 18.7613
 19.0943
 19.1567
 19.0332
 19.0854
 19.4399
 19.4046
 19.5063
 19.444
 19.9197
 19.8574
 19.9614
 19.859
 17.3675
 17.3956
 17.341
 17.2859
 19.2231
 19.2225
 19.1346
 19.1459
 20.2676
 20.2651
 20.3852
 20.2932
 20.4179
 20.3991
 20.4299
 20.4487
 20.2484
 20.3057
 20.3012
 20.2659
 19.9242
 19.9305
 19.8463
 19.8297
 19.9654
 20.0115
 20.0321
 19.9975
 17.6164
 17.5643
 17.5556
 17.5295
 19.2673
 19.2689
 19.2848
 19.2065
 18.1769
 18.0895
 18.1606
 18.2045
 19.9108
 19.8202
 19.9278
 19.8625
 17.2831
 17.2509
 17.2576
 17.1985
 17.1619
 17.1834
 17.076
 18.164
 18.3255
 18.2742
 18.2661
 19.7987
 19.7585
 19.8405
 19.7751
 16.9202
 17.0527
 17.0259
 19.3848
 19.4483
 19.3952
 19.4982
 17.6643
 17.6485
 17.839
 17.8109
 17.7385
 17.8405
 19.5076
 19.5548
 19.5232
 20.2631
 20.235
 20.3179
 20.292
 19.8984
 19.9303
 19.8535
 19.8548
 18.9678
 18.8774
 18.9959
 17.168
 17.328
 17.3132
 18.1934
 18.299
 18.3241
 18.2673
 17.1662
 17.2028
 17.3077
 17.0938
 19.3423
 19.2571
 19.2172
 19.2663
 17.5182
 17.5031
 17.4609
 17.5841
 18.8848
 18.8653
 18.9215
 18.9649
 19.7173
 19.7977
 19.7579
 17.0057
 17.0886
 17.0427
 16.9168
 18.4519
 18.7205
 18.6216
 18.6622
 18.7049
 18.5306
 18.5187
 18.5835
 19.7534
 19.8036
 19.7896
 19.7925
 19.7955
 19.6968
 19.3159
 19.3954
 19.3937
 19.4037
 19.2706
 19.1753
 19.2463
 19.1893
 18.2488
 16.9033
 17.0464
 17.0633
 16.9699
 21.1811
 21.2571
 21.2248
 21.2329
 19.6325
 19.6741
 19.796
 19.8216
 19.7803
 19.761
 19.807
 19.8003
 19.9031
 19.8656
 18.1318
 18.2396
 18.2319
 18.1754
 18.0687
 18.0362
 18.1387
 18.0516
 19.6058
 19.6748
 18.3275
 18.3075
 18.2017
 18.2703
 18.3081
 18.2141
 18.2994
 18.7166
 18.7805
 18.8253
 18.851
 19.1837
 19.256
 19.1861
 19.2633
 18.134
 18.0108
 18.0278
 18.1251
 17.8531
 17.8418
 17.7742
 17.8706
 17.947
 17.858
 17.9221
 18.1019
 18.0801
 18.0845
 18.1556
 19.3262
 19.3052
 19.2913
 19.3571
 20.6135
 20.6404
 20.5901
 20.581
 19.5111
 19.5193
 19.5595
 19.5394
 17.8346
 17.9234
 17.9832
 17.905
 18.3558
 18.4037
 18.4056
 18.337
 19.4908
 19.4492
 19.4155
 19.4121
 18.3924
 18.4772
 18.4177
 18.3958
 18.8059
 18.7771
 18.8884
 18.7671
 18.8262
 18.7456
 18.7776
 18.7433
 18.4271
 18.3613
 18.374
 17.5316
 17.5008
 17.5573
 17.5389
 19.539
 19.4598
 19.4953
 19.4908
 19.1107
 19.0327
 19.04
 19.0561
 20.508
 20.5485
 20.5364
 20.4742
 19.9806
 19.9283
 19.9319
 19.9745
 19.8977
 20.0115
 19.9532
 20.0243
 20.0188
 19.9767
 19.988
 19.955
 18.8251
 18.8677
 18.8532
 20.3257
 20.3428
 20.3019
 20.2863
 20.1051
 20.0766
 20.0272
 20.0985
 16.9658
 17.0703
 17.0734
 16.9982
 18.7768
 18.8204
 18.8701
 18.9033
 17.8795
 17.8763
 17.9298
 17.9526
 18.6414
 18.6021
 18.6571
 18.7086
 18.4458
 18.383
 18.452
 18.4344
 19.7476
 19.8115
 19.7813
 19.8707
 19.0024
 18.8485
 18.9707
 18.9487
 17.7909
 17.7258
 17.7855
 17.7556
 18.5994
 18.6325
 18.5156
 18.5326
 20.0402
 20.0849
 20.007
 19.9711
 17.4928
 17.4605
 17.486
 17.4439
 19.4071
 19.476
 20.1309
 19.0046
 18.9684
 18.908
 19.0217
 19.2131
 19.1351
 19.2223
 19.2412
 20.8494
 20.8606
 20.7908
 19.5323
 19.6079
 19.6247
 19.6708
 18.6055
 18.4754
 18.5325
 18.4549
 18.8851
 18.8275
 18.8606
 18.8907
 17.5178
 17.4736
 17.4639
 17.4928
 19.9439
 19.82
 19.907
 19.7864
 19.7912
 19.8101
 19.715
 20.6824
 20.7842
 20.7247
 20.6944
 19.9831
 19.892
 19.9578
 18.6277
 18.471
 18.6028
 20.0376
 20.0492
 20.1126
 20.0798
 19.1823
 19.1073
 19.0922
 19.0931
 21.9459
 21.9503
 21.9433
 21.8906
 19.3068
 19.3318
 19.3337
 20.2961
 20.3132
 20.2973
 20.297
 19.3219
 19.3587
 19.4244
 19.3649
 20.1054
 20.0418
 20.0475
 20.0094
 18.2248
 18.1877
 18.2394
 18.1676
 18.0218
 18.0961
 18.0387
 17.9958
 17.1716
 17.1696
 17.1194
 17.2418
 18.7403
 18.8461
 18.766
 18.7383
 20.1186
 20.2045
 20.126
 20.1745
 19.6896
 19.7195
 20.5841
 20.5807
 20.5564
 20.5581
 19.1567
 19.1239
 19.5216
 19.4006
 19.4277
 19.8683
 19.8209
 19.7869
 19.8254
 17.2796
 17.2321
 17.3678
 17.3511
 17.4488
 17.4692
 17.5053
 17.4639
 19.7691
 19.7445
 19.796
 19.8539
 20.3413
 20.3168
 18.6434
 18.6094
 18.6316
 18.5548
 19.8696
 19.8965
 19.8365
 19.8383
 19.4081
 19.5093
 19.3462
 16.6586
 16.6216
 16.7238
 18.9379
 18.8309
 18.8676
 18.8677
 17.6166
 17.5147
 17.6383
 17.6856
 18.7883
 18.7177
 18.6986
 18.7996
 18.156
 18.0921
 18.0807
 18.2011
 20.1494
 20.0783
 20.1383
 20.1731
 19.8272
 19.7267
 19.8578
 19.7574
 18.7778
 18.8599
 18.6997
 18.8058
 19.4885
 19.4046
 19.3823
 19.4946
 20.1288
 20.103
 20.0741
 20.0111
 19.1702
 19.1344
 19.0866
 19.0443
 18.3457
 18.3344
 18.3913
 18.8531
 18.7675
 18.8254
 18.7799
 21.5745
 21.5114
 21.4652
 21.5094
 20.3371
 20.3406
 20.3216
 20.3322
 19.5468
 19.5462
 19.5568
 19.4769
 20.8902
 20.8235
 20.9138
 20.8655
 17.5595
 17.5603
 17.6358
 17.0571
 17.1342
 17.2209
 17.1461
 17.9907
 17.8413
 17.8984
 17.8956
 18.8879
 18.3842
 18.273
 18.2459
 18.3214
 19.005
 18.9421
 19.0443
 19.0509
 20.1533
 20.2181
 20.184
 19.7788
 19.7596
 19.7348
 19.8427
 21.5706
 21.6388
 21.5784
 21.6622
 20.7617
 20.7626
 20.739
 20.7382
 19.5814
 19.5817
 19.5345
 19.4896
 16.9664
 17.1078
 17.058
 17.0763
 21.389
 21.3708
 21.3111
 21.322
 18.2401
 18.1546
 18.2925
 18.1973
 18.9042
 18.8947
 18.8208
 18.8905
 19.7442
 19.8802
 19.8688
 19.0735
 19.1632
 19.173
 19.1669
 17.1439
 17.1008
 17.0788
 20.1037
 19.9881
 19.9731
 19.3343
 19.3128
 19.2223
 19.2406
 19.5912
 19.6128
 19.6363
 19.6518
 19.5281
 19.5437
 19.4548
 19.4388
 20.2569
 20.3045
 20.2944
 20.2183
 19.1131
 19.0566
 19.1379
 19.0574
 17.2076
 17.3432
 17.3413
 17.4088
 17.5748
 17.5935
 17.594
 17.5239
 20.411
 20.3918
 20.3924
 20.4037
 17.6645
 17.6229
 17.6286
 17.7352
 17.3533
 17.2275
 17.2604
 17.3756
 17.6412
 17.6527
 17.7537
 17.744
 18.4975
 18.5065
 18.4392
 18.4735
 18.9732
 19.0324
 18.9492
 19.5734
 19.6895
 19.6589
 19.6297
 18.0155
 18.0724
 18.1177
 17.9985
 18.042
 17.9929
 17.9532
 17.9785
 16.6352
 16.6379
 16.7968
 16.7024
 20.8347
 20.7852
 20.7985
 20.7857
 20.5564
 20.5944
 20.5763
 20.5227
 20.2289
 20.2528
 20.1606
 20.2563
 19.4889
 19.6004
 19.5252
 19.5336
 19.452
 19.4431
 19.4452
 17.3109
 17.2515
 17.1612
 17.2156
 17.9567
 17.9998
 18.0479
 18.0382
 19.1342
 19.1939
 19.2201
 19.1746
 17.5194
 17.4658
 18.6904
 18.692
 18.6968
 18.7701
 17.6126
 17.5721
 17.4522
 17.5418
 18.8108
 18.7047
 18.8317
 18.6962
 19.5953
 19.551
 19.6647
 19.6328
 20.4942
 20.5405
 20.5014
 20.4399
 21.637
 21.5646
 21.6602
 21.6069
 17.6927
 17.723
 17.7358
 17.6765
 17.3249
 17.311
 17.3051
 17.2426
 19.3073
 19.4012
 19.3469
 19.3977
 18.9551
 18.9987
 19.0122
 18.9551
 19.8968
 19.9729
 19.8445
 18.4937
 18.5604
 18.5493
 18.5837
 19.9341
 19.9489
 19.8937
 19.8993
 19.0782
 19.1514
 19.2163
 19.1655
 18.4468
 18.4899
 18.4717
 18.4323
 18.8554
 18.8814
 18.9188
 17.5928
 17.678
 17.6523
 17.6545
 18.502
 18.4021
 20.9165
 20.8009
 20.9176
 20.8717
 18.1212
 18.1862
 18.1509
 19.7582
 19.7296
 19.736
 19.7495
 18.6075
 18.6264
 18.6503
 18.9734
 19.0558
 18.97
 19.0182
 18.5478
 18.6379
 18.4943
 18.5804
 18.4692
 18.3769
 21.3204
 21.3207
 21.3743
 21.3147
 21.4845
 21.5665
 21.5933
 21.5215
 18.9243
 19.0169
 18.9791
 19.0217
 18.6428
 18.6937
 18.6422
 18.6995
 21.2607
 21.2748
 21.2483
 21.2013
 19.7879
 19.8742
 20.2667
 20.254
 20.2176
 20.1524
 18.4408
 18.4786
 18.3632
 18.426
 18.6833
 18.6491
 18.5765
 18.7148
 18.5056
 18.6028
 18.6262
 18.5995
 19.6142
 19.6125
 19.5355
 19.6145
 20.073
 20.0734
 20.1538
 20.0611
 20.5946
 20.5174
 20.5221
 20.5862
 20.0656
 20.0749
 20.0722
 19.9522
 18.0582
 18.1341
 18.0519
 18.1102
 18.9214
 19.1104
 19.0184
 20.8771
 20.8328
 20.7848
 18.3332
 18.1991
 18.2739
 18.2802
 18.226
 18.3901
 18.3018
 18.2776
 19.2548
 19.3083
 19.3368
 19.1937
 19.1686
 19.0929
 19.1574
 20.109
 20.1584
 20.1778
 20.1783
 17.8676
 17.8982
 17.8278
 17.8706
 20.2977
 20.3178
 20.3111
 20.2768
 20.3095
 20.3567
 20.316
 17.0003
 16.8798
 16.8176
 16.915
 17.689
 17.6296
 19.7347
 19.7663
 19.6933
 19.7224
 19.0026
 18.9144
 19.0068
 19.1489
 19.1947
 19.1717
 19.244
 20.1222
 20.0628
 20.0897
 17.945
 17.8897
 18.0057
 17.9684
 20.1169
 20.0151
 20.0851
 20.0994
 18.2161
 18.2983
 18.3236
 18.2745
 20.2639
 20.2209
 20.0331
 20.1196
 20.054
 20.0928
 19.7948
 19.8338
 19.8152
 19.7861
 20.7601
 20.7796
 20.8488
 20.808
 18.0734
 17.9732
 19.5653
 19.5166
 19.5093
 19.5157
 17.1288
 17.1709
 17.1403
 17.1095
 19.58
 19.6164
 19.5119
 19.4581
 17.9058
 17.8156
 17.7873
 17.7793
 17.4262
 17.3264
 17.4918
 17.3456
 18.2255
 18.3159
 17.4641
 17.3839
 17.4133
 17.4351
 20.1033
 20.1177
 20.1145
 20.045
 17.5064
 17.4664
 17.4529
 17.5131
 17.0238
 16.8982
 16.9061
 16.9977
 18.5975
 18.5911
 18.5163
 18.5386
 19.0803
 19.1114
 19.0188
 18.9811
 17.4938
 17.6111
 17.5414
 17.4877
 20.8397
 20.7533
 20.7963
 20.8614
 17.5406
 17.4127
 19.5472
 19.4944
 19.4862
 19.4142
 17.6543
 17.6821
 17.7796
 17.7678
 20.0973
 20.0233
 20.0364
 20.0391
 19.3572
 19.4739
 19.4349
 19.3719
 19.916
 19.9416
 19.8474
 20.1024
 20.1479
 20.1043
 20.1803
 20.274
 20.2034
 20.2236
 20.1889
 18.6168
 18.6685
 18.6942
 17.7482
 17.7359
 17.6555
 17.6767
 18.8503
 18.8942
 18.9153
 20.1013
 20.1592
 20.1219
 18.961
 18.8362
 18.942
 18.8728
 18.5454
 18.5667
 18.5329
 18.4371
 19.1921
 19.0988
 19.0863
 19.1227
 19.3347
 19.3782
 19.3964
 19.4382
 19.4801
 19.485
 19.3334
 19.2987
 19.2445
 19.3767
 17.6767
 17.7413
 17.691
 17.7569
 18.2306
 18.2901
 18.2426
 18.2038
 19.1895
 19.1452
 19.1836
 19.0665
 20.0766
 20.1301
 20.0947
 18.8399
 18.8912
 18.8364
 18.8291
 19.6584
 19.7594
 19.7263
 19.77
 21.1129
 21.0978
 21.1328
 21.1555
 19.4553
 19.4969
 19.4778
 19.4839
 17.6051
 17.6172
 17.5351
 17.5653
 19.4646
 19.3641
 19.4174
 19.4657
 20.2238
 20.2289
 20.194
 20.1638
 20.1103
 20.1517
 20.1436
 19.1166
 19.1011
 19.1155
 18.5013
 19.5177
 19.6354
 19.5618
 19.5657
 17.4641
 17.4845
 17.4261
 17.6371
 17.6174
 17.5718
 19.4874
 19.4056
 19.464
 19.4156
 16.9343
 16.8999
 16.8717
 16.8603
 20.0758
 18.7305
 18.8028
 18.7456
 18.7694
 20.0192
 19.9879
 19.9989
 19.9786
 17.4691
 17.4299
 17.5653
 17.4746
 18.3428
 18.2135
 18.2693
 18.3132
 18.0082
 17.9588
 18.0579
 18.041
 20.2748
 20.2465
 20.2094
 20.2723
 19.6718
 19.6041
 19.6777
 19.6781
 18.8655
 18.913
 18.8323
 18.9138
 19.5422
 19.6274
 19.5052
 19.5925
 18.4048
 18.3765
 18.2963
 18.3157
 20.0203
 20.0605
 19.9827
 19.98
 19.7031
 19.6541
 19.5915
 19.6374
 18.6468
 18.6383
 18.6552
 18.5472
 17.3573
 17.242
 17.3095
 17.2487
 20.2119
 20.2078
 20.1289
 20.1715
 20.6958
 20.7798
 20.6899
 20.6963
 17.4307
 17.3634
 17.3927
 17.3496
 20.6883
 20.7536
 20.564
 20.5947
 20.5997
 20.5292
 18.9898
 18.9389
 19.0133
 19.0723
 19.6682
 19.6217
 19.6227
 19.7024
 16.6982
 16.6493
 16.6612
 16.7362
 17.5074
 17.5154
 17.3985
 18.3418
 18.3489
 18.2799
 18.3805
 20.1527
 20.1289
 20.207
 20.1059
 19.7255
 19.7391
 19.7677
 19.8035
 19.7558
 19.6981
 18.3543
 18.2228
 18.2635
 18.3134
 18.4696
 18.4648
 18.5409
 18.4498
 18.2224
 18.2268
 18.3172
 18.224
 17.0624
 17.0416
 17.2142
 17.0098
 18.0401
 18.0318
 18.1201
 19.398
 18.8268
 18.8409
 18.8126
 18.8799
 18.7911
 18.8804
 18.8571
 18.8474
 17.8205
 17.8765
 17.8787
 17.927
 18.072
 18.1212
 18.1218
 18.0359
 18.6572
 18.7329
 18.7265
 19.547
 19.5832
 19.5142
 19.6439
 18.8574
 18.7203
 18.8071
 18.78
 19.4805
 19.434
 19.5209
 21.3369
 21.3361
 21.3784
 21.3019
 17.756
 17.6239
 17.6721
 17.674
 17.7917
 17.6452
 17.7259
 21.3067
 18.7772
 18.7545
 18.7871
 18.6822
 18.6858
 18.6627
 20.592
 20.5724
 20.58
 20.5536
 20.2096
 20.1863
 20.1217
 20.2221
 19.8237
 19.7794
 19.7758
 19.868
 19.9505
 19.9145
 19.8618
 19.9474
 19.9575
 19.8896
 19.3529
 19.4046
 19.4268
 19.4445
 19.3052
 19.2285
 16.5507
 16.5487
 20.082
 19.9572
 20.0791
 20.0043
 19.1586
 19.1817
 19.1378
 19.2239
 20.2421
 20.2258
 20.3493
 20.303
 17.6685
 17.6142
 17.7693
 17.7082
 17.7801
 17.8528
 17.7823
 17.8597
 18.416
 18.3609
 18.3462
 18.3844
 18.8994
 18.8751
 18.7577
 18.8152
 18.9293
 18.9813
 20.0914
 18.1685
 18.0759
 18.1012
 18.0782
 17.0955
 17.1079
 16.9714
 17.1371
 17.7276
 17.6343
 17.7455
 17.7075
 21.9399
 21.9382
 21.9269
 21.9031
 17.2107
 17.1949
 17.2425
 17.2361
 19.8559
 19.8524
 19.9276
 19.8127
 19.5529
 19.6401
 19.6051
 19.6682
 18.3281
 18.3167
 18.2665
 18.2566
 18.3284
 18.3434
 18.3906
 18.3707
 20.1152
 19.9882
 20.0527
 20.0234
 17.3435
 17.2957
 17.3524
 17.3394
 17.6578
 17.5969
 17.6267
 17.5692
 18.1382
 18.1206
 18.0602
 18.06
 17.4762
 17.5401
 17.5165
 17.4746
 19.6759
 19.598
 19.5995
 19.5657
 20.129
 20.1055
 20.0905
 20.0573
 17.7172
 17.795
 17.817
 17.7959
 19.2437
 19.2398
 19.2786
 19.3471
 19.0895
 19.1281
 19.1433
 19.0944
 21.5255
 21.4973
 21.4496
 21.4933
 17.2342
 17.2136
 17.4586
 17.438
 17.5219
 17.3934
 20.3977
 20.476
 20.5018
 20.3831
 19.6682
 19.7686
 19.7664
 19.8069
 17.6192
 17.6821
 17.5899
 17.5581
 19.4058
 19.3781
 19.4244
 19.3408
 19.4415
 19.4166
 19.5084
 19.5008
 17.1075
 17.088
 17.1415
 17.1802
 18.8783
 18.8962
 18.8708
 18.8378
 19.0615
 19.0332
 19.057
 19.1108
 18.027
 17.9769
 17.9494
 17.985
 18.4022
 18.4222
 18.4524
 18.4999
 19.3307
 19.3159
 19.4203
 19.6621
 19.5994
 19.6422
 19.5349
 20.5324
 20.5484
 20.5731
 20.4562
 19.5229
 19.4718
 19.4573
 19.4419
 18.9631
 19.014
 18.9672
 19.0349
 16.9979
 16.9713
 16.9884
 17.1033
 19.536
 19.3966
 19.4708
 19.4701
 20.3393
 20.3364
 20.3937
 20.4283
 18.1749
 18.1036
 18.1412
 18.2063
 18.5406
 18.5476
 18.5906
 18.8994
 18.7784
 18.7762
 18.7429
 20.5666
 20.5628
 20.5582
 20.5053
 18.769
 18.8466
 18.8114
 18.8828
 17.4234
 17.4139
 17.41
 17.3968
 18.8612
 18.8399
 18.838
 18.783
 20.2926
 20.3431
 20.3124
 20.2823
 20.0134
 19.9643
 20.0266
 20.0861
 16.4787
 16.5099
 16.4622
 16.457
 19.7005
 19.6847
 19.6961
 19.7936
 18.5803
 18.7135
 18.6711
 18.6448
 16.6261
 16.6137
 16.69
 16.687
 17.4813
 17.3661
 17.4212
 18.1785
 18.1872
 18.0906
 18.0633
 17.6084
 17.616
 17.4944
 17.641
 21.1917
 21.146
 21.0955
 21.1143
 19.9115
 19.8317
 19.9369
 17.1866
 17.0774
 17.0966
 17.0929
 18.6288
 18.6479
 18.5598
 18.6711
 17.9362
 17.9535
 17.8523
 18.0068
 20.1765
 20.1849
 20.2455
 20.2841
 19.4287
 19.3449
 19.4467
 19.3782
 18.3791
 18.507
 18.4712
 20.537
 20.5081
 20.465
 20.471
 20.0476
 20.1338
 20.0876
 20.1164
 19.4761
 17.162
 17.1159
 17.1396
 17.0723
 21.0434
 21.0408
 21.0979
 21.1049
 18.0284
 17.8956
 17.9638
 17.878
 18.5141
 18.573
 18.5337
 18.6249
 21.4024
 17.7704
 17.8428
 17.7317
 17.2199
 17.107
 17.1776
 17.1623
 19.1715
 19.1393
 19.0222
 19.116
 18.4519
 18.4574
 18.3899
 18.5024
 19.8757
 19.9537
 19.0105
 19.0498
 19.0439
 18.9566
 19.89
 19.9359
 19.9721
 19.9048
 19.59
 19.6265
 19.5129
 19.5166
 18.2465
 18.2994
 18.2416
 18.214
 20.7845
 20.7847
 20.7836
 20.7011
 20.1428
 20.1911
 20.1568
 20.216
 20.6801
 20.6136
 20.3681
 20.3715
 20.3595
 20.3618
 20.4382
 20.49
 20.4032
 20.4764
 17.1426
 17.1869
 17.2618
 17.2653
 18.6437
 18.6386
 18.6741
 18.5497
 19.4185
 19.3133
 19.3804
 19.372
 18.8196
 18.8495
 18.8683
 18.7922
 17.0889
 17.0952
 20.5737
 20.6158
 20.6065
 20.5701
 17.0977
 17.0712
 17.1406
 20.9461
 20.9779
 20.9475
 20.9872
 17.2863
 17.3747
 17.3088
 17.3784
 19.5135
 19.5737
 19.4884
 19.5719
 19.2147
 19.193
 19.2345
 17.1036
 17.1538
 17.141
 17.0877
 18.7199
 18.7956
 18.7027
 18.7763
 19.1462
 19.1095
 19.0317
 19.1096
 19.4772
 19.5236
 19.3047
 19.4436
 19.3364
 19.3953
 18.5442
 18.6307
 18.5908
 17.0225
 17.165
 17.1797
 17.0775
 19.258
 19.203
 19.2644
 19.2485
 19.3825
 19.4249
 19.6629
 19.7513
 19.7691
 19.7058
 20.9071
 20.8954
 20.8329
 18.7769
 18.7584
 18.8625
 18.8673
 17.2141
 17.2083
 17.1966
 20.6605
 20.7208
 20.6586
 19.1835
 19.2478
 19.2048
 19.2796
 18.3374
 18.3421
 18.4406
 18.4063
 21.1134
 21.138
 21.1176
 21.1092
 17.6893
 17.6663
 17.7239
 17.7345
 18.2843
 18.3559
 18.3434
 18.3652
 17.7042
 17.677
 17.7358
 17.195
 17.1792
 17.0378
 17.1162
 18.9206
 19.013
 18.9292
 18.9249
 17.4453
 17.4661
 17.5058
 17.5141
 19.5484
 19.5768
 19.5242
 19.611
 17.0682
 18.5104
 19.0528
 19.0929
 19.0183
 19.1179
 18.5287
 18.5447
 18.6225
 18.6328
 18.0942
 18.0698
 18.1202
 18.1997
 18.5388
 18.5797
 18.4816
 18.5212
 17.9311
 17.9874
 17.9092
 17.9238
 19.0462
 19.0955
 19.057
 18.9912
 19.144
 19.1125
 19.0988
 19.0649
 19.407
 19.4214
 19.4524
 19.3543
 19.066
 19.0695
 19.1416
 20.2335
 20.2163
 20.2355
 20.1769
 18.9979
 18.359
 18.2375
 18.2315
 18.3078
 17.2466
 17.2408
 17.3459
 19.5969
 19.7111
 19.6597
 19.6965
 18.8741
 18.7732
 18.7962
 18.4837
 18.4837
 18.5572
 18.5551
 18.3225
 18.2983
 18.2122
 18.1962
 17.5585
 17.5121
 17.4566
 17.5259
 19.9236
 19.9399
 19.8888
 20.008
 18.7758
 18.8381
 18.8603
 18.8808
 19.0928
 19.1485
 19.1953
 19.1143
 19.1905
 19.2493
 19.2539
 19.3093
 19.03
 19.0646
 19.0176
 19.1017
 18.0628
 18.2005
 18.0423
 18.1378
 19.1642
 19.2938
 19.2444
 19.2322
 20.5948
 20.593
 20.5951
 20.5625
 20.6165
 20.5645
 20.5702
 19.0216
 19.0104
 18.9389
 18.9325
 18.9885
 18.938
 18.9168
 18.8975
 19.0902
 19.1606
 19.0457
 19.0431
 17.305
 17.2998
 17.4099
 17.3993
 18.0612
 18.1501
 18.1484
 18.0527
 19.7329
 19.686
 19.6941
 19.6746
 20.1442
 20.0631
 20.0712
 20.1753
 17.6557
 17.6737
 17.7252
 17.6504
 21.0203
 21.0538
 21.0381
 20.9731
 19.4487
 19.3702
 19.4149
 19.4252
 20.3254
 20.2735
 20.2809
 19.9698
 19.914
 19.9102
 19.8598
 18.2199
 18.2539
 18.1862
 18.31
 19.9011
 20.0161
 19.9693
 19.944
 20.5665
 20.4249
 20.5206
 21.109
 21.0408
 21.0002
 21.0202
 16.9966
 16.9663
 16.908
 16.8377
 19.8574
 19.9081
 19.8647
 19.8382
 18.6093
 18.7234
 18.7049
 18.6276
 17.3983
 17.4634
 17.5309
 17.4737
 17.8808
 17.7603
 17.922
 17.8458
 19.7783
 19.7707
 19.8207
 19.787
 20.3651
 20.4399
 20.5
 20.422
 18.8198
 18.7665
 18.8466
 18.7998
 20.3367
 20.2382
 19.3239
 19.4417
 19.4223
 19.355
 19.2035
 19.2103
 19.2569
 19.178
 19.2949
 19.2872
 19.3274
 20.1899
 20.1615
 20.189
 18.5611
 18.5587
 18.5343
 18.5076
 18.7129
 18.7222
 18.7868
 18.6463
 19.7752
 19.6837
 19.7231
 19.7691
 18.0384
 17.9398
 18.0711
 18.0235
 19.0438
 19.1435
 19.0899
 19.0113
 20.313
 20.3139
 20.3319
 20.3162
 19.5038
 19.457
 19.5054
 18.6892
 18.6883
 18.7654
 18.6905
 18.9604
 18.9173
 18.8591
 16.9913
 17.0429
 17.0561
 17.0837
 20.7105
 20.7413
 20.7048
 20.8014
 19.5877
 19.5025
 19.5171
 19.5663
 19.6139
 19.6341
 19.7008
 19.614
 16.8999
 16.9374
 16.8254
 16.7473
 18.0249
 17.974
 17.9839
 19.8885
 19.9147
 19.9384
 19.9078
 17.8462
 17.9495
 17.9046
 19.8516
 19.8493
 19.9055
 19.8887
 21.6154
 21.5667
 21.6151
 21.5734
 17.4256
 17.392
 17.3363
 17.4455
 20.177
 20.1988
 20.2333
 20.3027
 17.163
 17.2042
 17.2185
 17.1924
 19.9918
 19.8947
 19.9648
 19.931
 21.6029
 21.6811
 21.61
 21.6154
 20.4895
 20.5751
 20.5101
 20.4621
 20.1575
 20.0943
 20.0493
 20.1699
 19.0185
 19.1382
 20.1454
 20.1362
 20.2521
 20.2337
 18.6152
 18.6557
 18.6843
 18.7294
 19.13
 19.1284
 19.1836
 19.0729
 17.4685
 17.5804
 17.3901
 17.3719
 17.6464
 17.7058
 17.6477
 17.5986
 17.8477
 17.8908
 17.8536
 17.9329
 17.6046
 17.5891
 17.5656
 17.6276
 18.2977
 18.3286
 18.246
 18.3113
 17.8071
 17.7126
 17.7429
 17.7897
 20.6361
 20.7291
 20.7429
 20.6248
 17.4792
 17.4308
 17.4519
 17.4666
 19.3652
 19.4295
 19.4589
 19.4232
 18.0055
 18.1442
 18.1007
 17.6369
 17.5528
 17.5614
 17.6024
 20.1356
 20.2186
 20.2274
 20.1963
 20.536
 20.5648
 20.6068
 20.5833
 18.1274
 18.1448
 18.1993
 18.0643
 19.2173
 19.2309
 19.2549
 19.2961
 18.3289
 18.3931
 18.3332
 18.3373
 18.3348
 18.3329
 18.1806
 19.4423
 19.4656
 19.5355
 18.3719
 18.3461
 18.8128
 18.9253
 17.0181
 16.969
 16.9664
 17.0108
 18.8836
 18.844
 18.8883
 18.797
 18.3601
 18.4071
 18.2949
 18.4019
 18.711
 18.6624
 18.6929
 18.6215
 17.8334
 17.8405
 17.7945
 17.8488
 17.8549
 19.2675
 19.2626
 19.3429
 19.3466
 20.3221
 20.3222
 20.3202
 20.3117
 18.335
 18.4245
 18.3367
 18.3884
 18.3371
 18.4032
 18.4164
 18.3301
 21.4505
 21.4099
 21.3817
 21.3276
 19.0239
 18.9579
 18.9909
 19.0377
 19.0391
 19.1099
 19.1376
 19.0668
 18.4321
 18.4943
 20.1779
 20.1557
 20.1208
 20.167
 19.6071
 19.5602
 19.5914
 19.6388
 20.0525
 20.0876
 20.1202
 20.1115
 19.6852
 19.6293
 19.641
 19.6989
 20.0224
 20.0281
 20.0635
 20.0093
 18.0209
 18.0532
 18.0178
 17.9641
 17.4757
 17.4767
 17.567
 17.5105
 19.8192
 19.8515
 19.8961
 19.8081
 19.035
 19.1186
 19.0484
 19.0687
 17.8436
 17.9541
 17.8813
 17.9335
 19.3655
 19.3975
 19.4046
 19.3137
 19.8219
 19.7688
 20.4561
 20.4221
 20.4013
 20.4625
 19.216
 19.2429
 19.2722
 19.3139
 17.7549
 17.7984
 17.8012
 17.6935
 17.285
 17.346
 17.3301
 17.2668
 21.247
 21.2381
 19.3179
 19.2546
 19.2209
 19.211
 19.4289
 19.5434
 19.4693
 19.4682
 19.5409
 19.5722
 19.9739
 19.9284
 19.9441
 19.8996
 19.151
 19.072
 19.0454
 20.6149
 20.5694
 20.5654
 20.5277
 17.5717
 17.5036
 17.6272
 17.5638
 17.3673
 17.3668
 17.3606
 16.9417
 17.0204
 17.0928
 17.0319
 18.7647
 18.6363
 18.6926
 18.6692
 19.029
 18.9316
 19.0727
 18.9854
 17.988
 17.8638
 17.8163
 17.8939
 18.4065
 18.4109
 18.3335
 18.4065
 18.5725
 18.4921
 18.5296
 18.9142
 18.8984
 18.9442
 18.8482
 18.2206
 18.0704
 18.122
 18.2052
 19.3107
 19.3391
 19.2936
 19.2838
 18.9632
 18.9851
 18.9021
 19.0188
 18.437
 18.4555
 18.4937
 18.4082
 19.0282
 19.0919
 19.1166
 19.0229
 21.5729
 21.5944
 21.5297
 21.5294
 19.9344
 19.9664
 19.9622
 20.019
 18.2246
 18.2177
 18.1329
 18.1232
 19.9226
 19.9028
 19.9937
 20.0233
 20.1364
 20.2371
 20.1327
 20.0717
 17.6578
 17.6659
 17.6056
 17.7243
 17.7307
 17.8194
 17.7384
 17.7552
 17.4515
 17.5333
 17.4415
 17.4326
 17.9876
 17.9936
 17.9161
 17.9432
 19.3889
 19.3882
 19.4503
 19.3874
 19.9458
 19.9725
 19.9094
 19.9816
 18.3445
 18.4695
 18.3425
 18.438
 19.9076
 19.8847
 19.8727
 19.8788
 20.4578
 20.4365
 20.4172
 20.3757
 19.1244
 19.0618
 19.1096
 19.0469
 19.5308
 19.5805
 19.6388
 19.4645
 19.4447
 19.35
 19.4333
 20.3565
 20.3985
 20.4681
 20.4034
 19.8336
 19.8447
 19.8811
 19.8558
 18.3075
 18.2535
 18.2977
 18.2513
 18.9464
 18.8741
 18.8656
 16.959
 17.0514
 17.0516
 16.9873
 17.2907
 17.2147
 17.1564
 17.2404
 19.5611
 19.5055
 19.5922
 19.5038
 18.7225
 18.6626
 20.2061
 20.2093
 20.2878
 20.1815
 18.9195
 18.9838
 19.036
 18.9752
 17.4086
 17.386
 17.4725
 17.4013
 19.9044
 19.8901
 19.8545
 19.3446
 19.3398
 19.3117
 19.4113
 19.5028
 19.388
 19.4109
 19.4401
 19.0754
 18.9913
 18.9838
 19.0973
 19.1156
 19.0707
 19.0167
 19.0819
 18.8605
 18.8068
 18.8639
 18.7935
 19.2021
 19.1451
 17.9191
 17.9492
 17.8081
 17.9259
 19.1313
 19.2114
 19.1827
 19.134
 18.5501
 18.6743
 18.6342
 19.1693
 19.0941
 19.1399
 19.098
 18.6255
 18.6648
 18.7063
 18.6431
 19.9436
 20.0202
 19.9621
 20.0568
 19.2962
 19.3094
 19.2236
 18.7553
 18.7517
 18.6394
 18.8035
 19.1692
 19.1781
 19.1217
 20.0552
 20.0283
 20.1021
 18.5158
 18.5227
 18.5207
 18.6098
 19.0083
 18.9496
 18.9435
 21.2816
 21.2659
 21.232
 21.3493
 18.418
 18.4752
 18.5138
 18.4163
 19.465
 19.5625
 19.5516
 19.5689
 17.9
 17.9072
 17.8772
 17.8076
 17.7523
 17.8104
 17.711
 17.7244
 20.1076
 20.0066
 20.1246
 20.1079
 18.8289
 18.8955
 18.9298
 19.6373
 19.7231
 19.668
 19.6669
 17.5751
 17.7071
 17.6386
 18.998
 18.9348
 18.9816
 18.9
 18.3471
 18.3169
 18.3168
 18.3245
 17.516
 17.465
 17.4599
 17.5283
 21.8157
 21.8776
 21.8603
 21.8152
 19.7601
 19.7481
 19.7004
 19.7645
 18.7941
 18.6584
 18.7083
 18.6789
 20.4459
 20.5111
 20.5172
 18.9918
 18.9199
 18.9462
 19.0054
 17.3077
 18.4343
 18.4832
 18.5947
 18.5111
 17.816
 17.8184
 17.7917
 17.7604
 18.031
 18.0861
 18.1001
 18.0495
 18.8
 18.8323
 18.9111
 19.0065
 19.0115
 18.9991
 21.1033
 21.0414
 21.0962
 21.0558
 19.634
 19.6687
 19.6992
 19.745
 19.7311
 19.6759
 19.7289
 17.3568
 17.1749
 17.3649
 17.3648
 19.0805
 19.0895
 18.9907
 19.0016
 18.7348
 18.7687
 18.8317
 18.7772
 17.6774
 17.7241
 17.6377
 17.7323
 18.9676
 18.9868
 18.905
 18.9937
 20.672
 20.6354
 20.7054
 20.6818
 19.166
 19.1966
 19.1541
 19.1842
 19.7787
 19.777
 19.7654
 19.7141
 19.9392
 19.9966
 19.9769
 19.9501
 20.3779
 20.3508
 20.3821
 20.3787
 20.7964
 20.8302
 20.8402
 20.7506
 16.8881
 16.9869
 16.9437
 16.9657
 20.9925
 20.9647
 21.0257
 20.9137
 19.0918
 19.1391
 19.0826
 19.1594
 16.9945
 17.0197
 17.0678
 17.0614
 19.4076
 19.4144
 19.3711
 19.3398
 20.3267
 17.5059
 17.5596
 17.5401
 17.4605
 19.9921
 20.7031
 20.6223
 20.6036
 20.6748
 18.689
 18.5954
 17.9882
 18.096
 17.9893
 18.0877
 17.6786
 17.6945
 17.6353
 17.6449
 16.8437
 16.942
 16.8458
 17.9693
 17.8722
 17.8721
 17.8723
 19.3356
 17.1781
 18.3544
 18.392
 18.4158
 17.3802
 17.3161
 17.2975
 17.3416
 19.3828
 19.3795
 19.3902
 19.4376
 19.7498
 19.7355
 19.7763
 19.8237
 18.3522
 18.4088
 18.3887
 18.27
 17.2482
 17.1654
 17.2658
 17.2574
 17.6272
 17.653
 17.5969
 17.6586
 18.5577
 18.4366
 18.4508
 20.7901
 20.8323
 20.7019
 20.7821
 21.7572
 21.6859
 21.7258
 21.6824
 20.3141
 20.4081
 20.4128
 20.3659
 18.8286
 18.7618
 18.8484
 20.5846
 20.5145
 20.5428
 20.6041
 17.8131
 17.8384
 17.7396
 17.9364
 17.9054
 17.9679
 17.9336
 19.9378
 19.9701
 18.2602
 18.1584
 16.6317
 16.7181
 16.6174
 16.9489
 16.9236
 16.9347
 16.8862
 19.2185
 19.2903
 19.1764
 19.232
 19.6554
 19.6708
 19.7088
 19.6239
 19.1591
 19.167
 19.0908
 19.0941
 17.2013
 17.2047
 17.186
 17.2104
 18.2927
 18.2611
 18.287
 18.3393
 20.354
 20.3564
 20.3559
 20.2909
 18.2457
 18.2258
 18.2843
 18.1873
 18.7952
 18.7721
 18.8446
 18.7595
 18.3776
 18.3105
 18.3258
 21.9761
 21.9539
 21.9436
 19.6311
 19.6719
 19.3683
 19.3669
 19.4371
 19.3325
 18.1189
 18.0335
 18.0895
 18.115
 18.2378
 18.1972
 18.0957
 18.1977
 18.1876
 18.2324
 18.0992
 21.1938
 21.2003
 20.4229
 20.4296
 20.3828
 20.4164
 18.763
 21.2541
 21.3204
 21.291
 21.2854
 19.8014
 19.7101
 19.7864
 19.7966
 19.2969
 19.3265
 20.7761
 20.6579
 20.6668
 20.7268
 16.87
 16.7568
 16.8168
 16.8487
 17.202
 17.1839
 17.2293
 17.0972
 20.053
 19.9231
 20.0155
 19.9455
 19.6572
 19.7056
 19.5554
 19.5934
 19.6355
 19.6872
 19.6379
 18.1299
 18.0916
 18.1966
 18.1261
 20.32
 20.2765
 20.2421
 20.2275
 19.0834
 19.0388
 19.0956
 18.5633
 18.5555
 18.51
 18.4515
 19.6799
 19.6668
 19.6106
 19.6483
 19.9015
 19.8223
 19.7796
 19.8577
 19.9372
 19.9929
 19.9797
 19.9177
 19.4041
 19.3615
 19.3126
 19.3818
 18.4301
 18.4912
 19.7857
 19.7666
 19.7399
 19.8066
 16.8895
 17.0384
 17.022
 17.0116
 20.0374
 19.9976
 20.0377
 19.9877
 20.6184
 20.6384
 20.5503
 20.5979
 18.7462
 18.7083
 20.9845
 20.9577
 21.0333
 20.9426
 19.5122
 19.4786
 19.5473
 17.3982
 17.4391
 17.3686
 17.3581
 20.8918
 20.9141
 20.8947
 19.947
 19.9486
 19.877
 19.9016
 20.7186
 19.9774
 20.0073
 19.9992
 20.0774
 18.9807
 19.0302
 18.973
 18.9895
 19.2672
 19.2494
 19.2071
 19.2729
 17.2736
 17.1623
 18.9044
 18.8696
 18.8892
 18.9089
 20.0001
 20.0883
 19.9875
 20.0935
 19.5976
 19.4407
 19.5211
 19.596
 17.5042
 17.5752
 17.5651
 17.5706
 19.2958
 19.2723
 19.1909
 19.2123
 18.7651
 17.7404
 17.6794
 17.7588
 19.5674
 19.5494
 19.6228
 19.5155
 18.2899
 18.3127
 18.2652
 18.3768
 19.434
 19.4824
 19.4891
 19.3956
 17.2501
 17.352
 17.3614
 17.3163
 16.6476
 16.5931
 16.6858
 19.9484
 19.8904
 19.8184
 19.8719
 18.6006
 18.5471
 18.6506
 18.6194
 18.2875
 18.2666
 18.2072
 18.1689
 19.6467
 19.6477
 19.9038
 19.9461
 19.9696
 19.8847
 19.4318
 19.3136
 18.5989
 18.5745
 18.6135
 18.6426
 18.4416
 18.408
 18.3494
 18.4481
 19.3252
 19.3036
 19.2337
 19.2664
 18.6776
 18.6691
 18.6644
 17.5704
 17.6811
 17.704
 17.6575
 17.9858
 18.0112
 17.9584
 19.3472
 19.2196
 19.3345
 19.2804
 19.827
 19.9185
 19.9661
 19.8681
 18.2947
 18.3837
 18.3847
 18.3168
 19.279
 19.2868
 19.3673
 20.3547
 20.3668
 20.3507
 20.3659
 19.67
 19.6825
 19.6438
 19.6162
 17.9448
 17.9394
 18.0224
 16.9298
 17.0416
 17.0385
 18.3728
 18.3311
 18.3296
 19.6753
 19.7484
 19.649
 19.7247
 17.0835
 17.0858
 17.096
 17.0323
 18.5167
 18.5576
 18.5086
 18.4495
 17.8109
 17.7699
 17.6421
 17.6726
 17.9518
 17.9126
 17.9591
 17.9502
 20.5433
 20.586
 20.5978
 19.382
 19.3634
 19.4177
 19.3546
 17.8848
 17.8321
 17.9185
 17.9169
 19.189
 19.1502
 19.1369
 19.0534
 18.2176
 18.2156
 18.2392
 18.3323
 17.3384
 17.2848
 20.3692
 20.3158
 20.3243
 20.2877
 18.0756
 18.1203
 18.0146
 18.1001
 19.4186
 19.4602
 19.4816
 19.3998
 18.387
 18.4728
 17.1236
 17.127
 17.1948
 17.0774
 17.8132
 17.711
 17.844
 17.6552
 16.9806
 16.9849
 16.9058
 16.8387
 18.1592
 18.1825
 18.1341
 18.3612
 18.2492
 18.2788
 18.301
 18.2269
 18.2935
 18.271
 18.3556
 19.7941
 19.773
 19.8472
 19.8674
 20.6913
 20.7309
 20.6429
 19.0199
 19.0007
 19.005
 17.6079
 17.685
 17.6327
 17.7121
 19.3118
 19.2597
 19.1947
 19.2552
 20.0376
 20.122
 20.1037
 20.0337
 19.0042
 19.0852
 19.1189
 19.1259
 19.442
 19.3368
 19.4332
 17.1507
 17.1097
 17.2212
 17.2129
 20.2908
 20.2619
 20.133
 20.0897
 20.0823
 18.2531
 18.2228
 18.303
 18.1749
 19.1065
 19.0325
 19.0131
 19.0707
 20.152
 20.1397
 20.0749
 20.1387
 18.7348
 18.8677
 18.8682
 18.7719
 19.5647
 19.6176
 19.5224
 19.5269
 17.5243
 17.508
 17.3878
 19.6724
 19.6919
 19.6205
 19.627
 18.7681
 18.7135
 20.177
 20.0822
 20.1045
 20.163
 20.0661
 20.1307
 20.0987
 20.1284
 17.3868
 17.4495
 19.9417
 19.8763
 19.9118
 19.9683
 18.9897
 19.0714
 19.0237
 18.9926
 19.4629
 20.6314
 20.6925
 20.6735
 18.7251
 18.7312
 18.7014
 18.779
 17.4069
 17.3967
 17.4617
 17.3598
 20.4946
 20.495
 20.4538
 20.5163
 20.0837
 20.0222
 20.1005
 20.0868
 18.3025
 18.2572
 18.2534
 20.4169
 20.4032
 20.3669
 20.3448
 16.9287
 17.0334
 16.9582
 16.913
 20.3468
 20.2929
 20.274
 20.3788
 18.46
 18.5465
 18.4798
 18.3903
 19.4415
 19.3994
 19.4126
 19.4662
 20.1205
 20.0936
 20.1063
 19.5138
 19.4255
 19.5237
 19.45
 20.2196
 20.2986
 20.2495
 20.2481
 20.0039
 20.0531
 20.0122
 18.0768
 18.1441
 18.0536
 18.0911
 18.1772
 19.101
 18.9368
 19.039
 19.0369
 17.3621
 17.404
 17.4468
 17.4051
 18.7316
 18.649
 18.7814
 18.6825
 18.4102
 18.3484
 18.4099
 18.4382
 20.1039
 20.1383
 20.0531
 19.9295
 19.9483
 18.5724
 18.6691
 18.5971
 18.5618
 17.4241
 17.304
 18.8382
 18.8159
 18.8873
 18.7952
 20.2063
 20.2259
 20.1547
 17.5786
 17.5477
 17.6191
 17.5874
 18.8788
 18.9772
 18.9518
 18.9303
 20.1415
 20.1865
 20.1428
 20.1112
 19.0695
 19.0837
 18.973
 19.0471
 18.5016
 18.3682
 20.4856
 20.5228
 20.5009
 20.5483
 19.9461
 19.8312
 19.7703
 19.8138
 19.7527
 19.7694
 19.775
 19.8635
 19.8267
 19.7819
 18.9537
 18.9439
 18.9671
 18.5498
 18.5849
 18.6125
 18.6508
 19.865
 19.8722
 19.856
 19.8728
 19.4457
 19.4518
 18.7379
 18.8049
 18.786
 18.8485
 18.7708
 18.7572
 19.1251
 19.0292
 19.0203
 19.0974
 20.9411
 20.8647
 20.879
 20.8378
 18.7744
 20.2232
 20.1469
 20.2007
 20.2163
 17.1674
 17.0979
 17.1837
 18.1384
 18.1778
 18.2148
 18.1268
 19.0852
 19.033
 19.0623
 19.1774
 18.9673
 18.8995
 18.99
 19.9809
 19.923
 19.9573
 19.999
 17.4442
 17.3781
 17.5439
 17.4228
 18.5227
 18.5483
 18.4737
 18.494
 17.4721
 17.4503
 17.5722
 17.5091
 20.2502
 20.2359
 20.3105
 20.3063
 19.8098
 19.7526
 18.1235
 18.1588
 18.2033
 18.1549
 17.3598
 17.3543
 17.3417
 17.3933
 16.6848
 16.6458
 16.7117
 16.6017
 17.4527
 17.5127
 17.4347
 18.5162
 18.4683
 18.5431
 18.4982
 17.6312
 17.5987
 17.5451
 17.5863
 20.3376
 20.2689
 20.2199
 20.2846
 17.784
 17.7384
 17.7149
 18.5354
 18.5587
 18.5787
 18.5741
 20.2304
 20.2685
 20.2298
 20.2886
 18.3063
 18.2152
 18.2761
 18.2672
 18.6686
 18.6083
 18.5862
 18.6519
 19.6796
 19.6337
 19.6168
 19.5572
 20.384
 20.3709
 20.4609
 20.4543
 19.2301
 19.2036
 19.1394
 19.2143
 21.0871
 21.0573
 20.9796
 21.0086
 20.0442
 19.9992
 20.0541
 19.8855
 19.9636
 19.9609
 19.977
 21.3617
 21.322
 21.4063
 21.3334
 17.6301
 17.6972
 17.6933
 17.8985
 17.8907
 17.8207
 17.8393
 19.831
 19.7168
 19.7523
 20.6714
 20.6622
 20.6935
 20.3307
 20.408
 20.3299
 20.3291
 19.7818
 19.7932
 19.7287
 19.8463
 18.4779
 18.3818
 18.4424
 18.453
 20.9211
 20.9113
 20.8524
 20.9294
 18.6285
 18.75
 18.7684
 18.6727
 17.8918
 17.8202
 17.9514
 17.8878
 18.8041
 18.8023
 18.6894
 18.7238
 19.2912
 19.3368
 19.2249
 20.1773
 20.1831
 20.1806
 20.13
 17.4482
 17.3715
 17.3535
 17.3689
 17.8131
 17.7613
 17.8155
 17.8609
 19.7141
 19.6539
 19.6915
 19.7506
 17.2267
 17.1797
 17.1434
 17.4375
 17.3141
 17.4213
 17.3919
 17.3411
 17.3126
 17.3962
 17.3647
 20.8527
 20.871
 21.3553
 21.3457
 21.3904
 21.2975
 18.5005
 18.5353
 18.5879
 19.0606
 19.118
 18.9979
 19.0962
 18.9753
 18.8929
 18.9211
 18.9647
 21.9129
 19.3171
 18.5952
 18.5199
 17.8698
 17.8122
 17.8476
 17.8349
 20.682
 19.4818
 19.4117
 19.4836
 16.5789
 16.641
 16.6386
 16.6358
 18.9328
 18.9924
 18.9369
 18.873
 17.1107
 17.1743
 17.1286
 17.1953
 19.2795
 19.1947
 19.3311
 19.4937
 19.4102
 19.4601
 17.6785
 17.6362
 17.7437
 17.6698
 18.651
 18.6817
 18.7376
 18.7882
 20.3206
 20.3771
 20.2681
 20.2928
 17.7961
 17.6541
 17.708
 17.1989
 17.0692
 17.0683
 17.1947
 17.8485
 17.8624
 17.9407
 17.846
 19.84
 19.8545
 19.7317
 19.8608
 19.6677
 19.7216
 19.7106
 19.7205
 17.5807
 17.5119
 17.519
 17.5055
 19.3287
 19.3454
 19.4069
 18.0486
 18.0311
 18.0744
 18.1152
 20.1499
 20.0837
 20.1899
 20.1859
 18.571
 18.5374
 18.6373
 18.5964
 20.242
 20.1906
 20.2356
 20.2303
 18.7964
 18.7191
 18.7803
 18.7598
 17.9516
 17.9278
 17.8524
 18.0239
 20.3949
 20.417
 20.3584
 18.8562
 18.789
 17.7754
 17.8247
 17.8239
 17.8791
 19.3251
 19.3697
 19.3786
 20.2806
 20.3485
 20.3695
 20.3342
 18.3789
 18.3456
 18.3954
 18.318
 18.491
 18.5064
 18.3792
 18.4726
 21.6478
 21.6557
 21.5855
 21.6217
 19.0321
 19.1107
 19.0576
 21.2107
 21.1547
 21.1385
 18.9272
 18.9297
 18.9758
 18.9552
 19.0409
 20.225
 20.2198
 20.3241
 20.2982
 19.2399
 19.1791
 19.1402
 17.855
 17.8612
 17.8648
 17.8973
 19.1334
 19.0938
 19.0553
 19.0569
 19.0656
 19.0954
 19.1132
 16.7032
 16.7575
 16.777
 16.8512
 19.8877
 19.7426
 19.7806
 19.8322
 20.482
 20.4775
 20.4453
 20.4555
 19.511
 19.54
 19.4181
 19.4968
 17.6416
 17.5883
 17.5843
 17.7008
 21.6944
 21.6315
 21.6737
 21.5892
 18.1252
 18.2124
 18.1485
 18.1403
 20.4556
 20.5122
 20.4855
 20.4927
 17.7882
 17.9634
 17.9285
 17.8525
 17.9471
 18.0026
 18.0435
 17.9807
 18.1107
 18.0632
 19.8374
 19.8808
 19.8859
 19.8459
 17.4646
 17.4738
 17.4717
 18.0589
 18.1849
 18.1251
 18.0365
 19.9479
 19.8671
 19.9198
 19.9956
 19.4958
 19.5281
 19.4301
 21.9831
 21.9821
 22.0091
 21.9824
 19.0315
 19.1519
 19.0413
 17.5029
 17.4396
 17.5011
 17.5284
 17.8797
 17.9362
 17.5328
 17.4531
 17.3831
 17.5127
 18.1551
 18.1459
 20.4924
 20.4505
 20.5505
 20.4064
 17.9902
 18.0138
 18.0002
 18.1003
 18.9105
 18.8613
 19.5784
 19.5169
 19.532
 19.567
 18.0241
 17.9883
 17.943
 17.9869
 19.7821
 19.9083
 19.9036
 19.8083
 17.5334
 17.5486
 17.4693
 17.3356
 18.6363
 18.6123
 18.7075
 20.6366
 20.6743
 20.6818
 20.6307
 18.4996
 18.5233
 18.562
 18.6018
 19.8738
 19.9432
 19.9728
 20.0008
 19.8262
 19.9101
 19.8508
 21.7557
 21.7577
 21.7648
 21.7207
 20.3724
 20.2557
 20.2286
 20.3352
 17.8389
 17.8903
 17.8065
 17.8921
 19.1117
 19.0931
 19.1642
 19.4171
 20.1481
 20.1085
 20.1353
 20.0804
 19.4082
 19.4667
 19.418
 19.3926
 18.2703
 18.1605
 18.1445
 18.243
 20.1592
 20.1592
 20.0289
 20.7062
 18.6594
 18.6235
 18.7149
 18.588
 20.1204
 20.0123
 21.2629
 21.3169
 20.1258
 20.0698
 20.1289
 20.2181
 18.2022
 18.1338
 17.7617
 17.7646
 17.7244
 17.7792
 19.6096
 19.5456
 19.5268
 19.5514
 17.2477
 17.2295
 17.1514
 17.2341
 19.5404
 19.5342
 19.6859
 19.6713
 18.074
 18.0634
 18.0983
 18.2114
 19.9498
 19.9457
 19.9092
 19.9031
 17.962
 17.9095
 18.0115
 17.9453
 19.2777
 19.2196
 17.3693
 17.4156
 18.4094
 18.3543
 18.435
 18.3358
 18.3817
 18.4163
 18.4128
 18.3278
 18.8191
 18.8697
 18.7966
 18.7913
 17.957
 18.0676
 17.9628
 17.8812
 19.9728
 20.0484
 20.0027
 20.0068
 17.4249
 17.4583
 17.4772
 17.2828
 17.2631
 17.3527
 17.2919
 20.2073
 20.1205
 20.1205
 20.1565
 18.1813
 18.2841
 18.2689
 18.2309
 20.196
 20.1355
 20.128
 20.0649
 18.9577
 19.1251
 19.0178
 19.0159
 19.125
 17.7703
 17.7571
 17.7524
 17.8527
 21.0828
 21.1344
 21.0933
 21.0354
 18.2346
 18.1836
 18.1223
 18.1961
 18.9701
 18.8942
 19.0428
 18.9828
 18.2504
 18.3109
 18.3211
 18.3218
 18.3744
 16.7439
 16.8084
 16.9306
 16.8614
 17.9248
 17.9243
 18.0535
 18.0156
 21.2248
 21.1834
 21.1327
 21.2355
 19.3088
 19.3949
 19.4301
 19.3534
 19.681
 18.8859
 18.9078
 18.8792
 18.8154
 17.5266
 17.5293
 17.6087
 17.6564
 17.7897
 17.7877
 17.7097
 17.5301
 17.7208
 17.6268
 17.6684
 21.6569
 21.6193
 18.0441
 18.0419
 18.0238
 19.7218
 19.7277
 19.7461
 19.6586
 18.1337
 18.1734
 18.111
 18.1845
 18.8093
 18.3443
 18.4208
 18.3371
 18.3686
 17.28
 17.4201
 17.3839
 17.2881
 18.3464
 18.2887
 18.1762
 18.3267
 19.3404
 19.3146
 19.4197
 19.2579
 20.2465
 20.2309
 20.2724
 20.2132
 16.8762
 16.9915
 16.8408
 16.8878
 18.1829
 18.2212
 18.145
 18.2467
 17.0121
 17.0582
 17.0349
 16.9536
 19.7151
 19.8228
 19.7146
 19.7009
 18.8078
 18.8494
 17.3391
 17.2203
 17.3525
 17.285
 18.8158
 18.7891
 18.7898
 18.7148
 19.107
 19.0157
 18.8976
 18.8375
 18.8026
 18.8929
 17.7385
 17.7609
 17.7868
 17.6998
 19.5471
 19.6418
 19.6855
 19.6007
 20.5051
 20.4429
 20.4902
 20.4885
 20.3266
 20.3524
 20.3579
 20.3541
 19.6348
 19.5975
 19.5943
 19.6684
 19.2493
 19.3576
 19.2804
 19.2216
 19.3416
 19.2873
 19.2492
 18.969
 19.0293
 19.0507
 18.9932
 20.5494
 20.5786
 20.542
 19.4241
 19.4545
 19.3637
 19.3776
 18.8545
 18.7905
 18.7925
 18.8875
 19.8061
 19.8741
 19.764
 19.885
 19.6707
 19.6042
 19.6227
 19.6282
 18.7096
 18.7047
 18.6435
 18.5886
 19.0964
 19.1623
 19.1042
 19.128
 18.3066
 18.3407
 18.2923
 18.3194
 20.3514
 20.332
 20.3046
 17.8585
 17.8965
 17.796
 17.8921
 19.8038
 19.7314
 19.7758
 19.8333
 19.293
 19.3436
 19.3755
 19.2699
 19.1287
 19.0631
 19.0384
 18.5389
 18.5489
 18.5172
 18.4539
 18.3915
 18.3768
 18.3273
 18.42
 18.2456
 18.2359
 18.1601
 17.7116
 17.6699
 17.6882
 18.4559
 18.4932
 18.5479
 18.4774
 17.5826
 17.5369
 17.6444
 17.4502
 17.4457
 17.472
 17.5491
 19.0716
 19.2192
 19.141
 19.17
 19.6653
 19.7234
 19.6574
 19.719
 20.0238
 17.6786
 17.7234
 17.5888
 17.6646
 17.5979
 17.7525
 21.8019
 21.84
 21.797
 21.775
 18.0379
 18.108
 19.2427
 19.3399
 19.2453
 16.9974
 16.8963
 18.5322
 18.6528
 18.6195
 18.6015
 19.3045
 19.2647
 19.2623
 18.0298
 17.8774
 17.9771
 17.9187
 19.7042
 19.6844
 19.74
 19.6604
 21.3515
 21.2907
 21.3052
 21.3679
 18.6696
 18.6545
 18.6956
 18.5873
 17.7313
 17.5856
 17.7346
 17.9421
 17.9417
 17.9234
 17.9982
 19.8476
 19.9639
 19.9315
 20.0094
 19.8759
 19.8095
 20.1131
 20.0543
 20.1361
 16.94
 16.9986
 17.7322
 17.8182
 17.7207
 17.8403
 18.8658
 18.7456
 18.7645
 18.1137
 18.2097
 18.0527
 18.0426
 19.8095
 19.9195
 19.8991
 19.8445
 18.9916
 18.9984
 18.928
 18.9106
 19.0486
 18.9875
 18.9848
 19.0518
 19.9467
 19.9059
 19.9268
 19.8107
 19.8486
 19.8215
 19.8281
 16.6268
 16.5244
 16.5966
 16.4797
 20.4117
 20.5056
 17.4923
 17.4697
 17.4788
 17.539
 19.2759
 19.2009
 19.2341
 19.2691
 18.8655
 18.811
 18.8084
 18.808
 20.3551
 20.2888
 18.8975
 18.9533
 18.9568
 19.0032
 19.2614
 19.2867
 19.3119
 19.2339
 17.8291
 17.8516
 17.8813
 17.8337
 19.1116
 19.0603
 19.0419
 19.1573
 19.7516
 19.7505
 18.5826
 18.5812
 18.6244
 18.5564
 18.1988
 18.2379
 18.1662
 18.8609
 18.7793
 18.8035
 18.766
 20.065
 20.029
 20.0826
 19.9826
 21.4768
 21.4131
 21.4217
 21.4823
 19.0949
 19.1453
 19.0916
 18.9961
 18.7622
 18.6514
 18.7323
 18.7601
 19.3384
 19.2961
 19.3843
 19.3658
 19.5756
 19.6238
 19.5685
 19.5299
 17.7941
 17.699
 18.5487
 18.5871
 18.6165
 20.9432
 20.9736
 21.0137
 20.9371
 19.9331
 19.9956
 19.8856
 20.0195
 18.892
 18.8609
 18.9155
 18.9412
 17.816
 17.7812
 17.7763
 19.227
 19.2542
 19.3489
 19.3539
 19.7901
 19.6846
 19.7231
 19.7961
 18.0851
 18.1807
 18.1898
 18.1256
 18.5432
 18.5693
 18.5993
 18.5918
 17.8152
 17.7997
 17.804
 18.0208
 18.0059
 18.013
 17.9984
 19.4601
 19.448
 19.5017
 19.5467
 19.1637
 19.173
 19.1005
 21.3789
 21.368
 21.3839
 21.4256
 19.7968
 19.7955
 20.498
 20.5465
 20.4728
 20.4342
 19.994
 20.2915
 17.5322
 19.7142
 19.7956
 19.7321
 19.8329
 16.915
 18.5189
 18.5977
 18.5183
 18.6241
 19.7506
 19.6663
 19.7102
 19.4309
 19.3683
 19.3673
 17.7974
 17.7879
 17.9052
 17.8064
 17.9104
 17.9669
 17.8926
 17.9567
 20.1509
 20.2491
 20.252
 20.1824
 17.2701
 17.2488
 17.2243
 17.3304
 18.9984
 19.0734
 19.1314
 17.9157
 17.8461
 17.8961
 18.7071
 18.7851
 18.7564
 18.694
 19.7106
 19.6675
 19.7657
 19.732
 18.7644
 18.6448
 18.7491
 19.6338
 19.6127
 19.6064
 19.6941
 19.2524
 19.1446
 17.8013
 17.7522
 17.7293
 17.6562
 17.5191
 17.4091
 17.4675
 17.5006
 19.9347
 19.8565
 19.9682
 19.9048
 18.1397
 18.2566
 18.2119
 18.1177
 18.5933
 18.7193
 18.6106
 18.5631
 19.4015
 19.4632
 19.3614
 19.4038
 17.6229
 17.6567
 17.6896
 17.7287
 19.235
 19.3034
 19.1881
 19.211
 18.9972
 19.061
 19.0626
 18.9368
 19.1847
 19.2355
 19.1683
 19.1587
 19.8935
 19.8181
 20.0064
 19.9543
 19.9002
 19.9899
 20.6083
 20.7145
 20.6462
 20.6182
 18.5493
 18.5526
 18.5493
 18.4653
 18.6106
 18.7003
 18.6869
 17.3193
 17.2961
 17.276
 17.2824
 16.898
 16.8543
 16.9338
 17.396
 17.3564
 17.4826
 18.7376
 18.6456
 18.5801
 18.699
 18.2808
 18.2242
 18.1727
 18.3193
 17.8587
 17.7787
 17.8496
 17.7664
 19.637
 19.7187
 19.698
 19.6465
 20.4698
 20.4065
 20.3734
 20.3734
 16.9517
 16.95
 17.0147
 16.8489
 19.8037
 19.8343
 19.8647
 19.7857
 18.8038
 18.8034
 18.7611
 18.8242
 16.8684
 16.9176
 17.0252
 16.8128
 18.4339
 18.5172
 18.4104
 18.4376
 19.3268
 19.3667
 19.3357
 19.362
 19.7793
 19.8438
 19.8357
 20.2675
 20.1864
 20.2365
 20.282
 20.0801
 20.1151
 20.0735
 20.1213
 20.0168
 20.0821
 19.8512
 19.8083
 19.938
 17.8578
 17.9068
 17.9236
 17.9364
 17.4467
 17.5175
 17.4886
 17.5072
 18.4097
 18.4299
 18.4278
 18.532
 19.1243
 17.52
 17.4837
 17.4991
 17.5503
 20.3238
 20.3277
 20.3342
 20.3498
 17.1079
 17.0397
 17.1309
 16.9974
 19.4285
 19.5054
 19.3867
 18.2381
 20.2131
 20.2144
 20.2663
 19.9773
 20.0154
 20.0617
 19.94
 18.8849
 18.9007
 19.0091
 18.9405
 18.0758
 18.0684
 18.1365
 18.0168
 19.1336
 18.2784
 18.3154
 18.3403
 19.1075
 19.1302
 19.1071
 19.0276
 19.6486
 19.6265
 19.6884
 19.6877
 19.4156
 19.5137
 19.4416
 19.4317
 18.2315
 19.8906
 19.884
 19.8408
 17.9184
 17.9747
 17.9046
 17.9532
 17.6979
 17.7258
 17.6257
 17.7506
 17.4026
 17.3582
 17.4167
 19.6424
 19.6379
 19.6961
 19.6314
 20.3669
 20.4145
 20.37
 17.7667
 17.7888
 17.6107
 17.645
 17.6901
 17.6908
 19.1378
 19.1351
 19.0785
 17.0923
 17.1285
 17.0532
 17.1441
 17.7849
 17.8232
 17.7886
 17.745
 18.4704
 18.48
 18.4271
 18.4129
 18.8435
 18.8188
 18.8635
 18.9305
 19.8184
 19.8366
 19.8553
 19.7897
 17.654
 17.6475
 17.6905
 17.5763
 19.5971
 19.5753
 19.6719
 19.4437
 19.3764
 19.3682
 19.3456
 17.4445
 17.4531
 17.3377
 17.4063
 18.2752
 18.2693
 18.304
 18.3288
 17.0711
 17.1359
 17.2061
 17.123
 19.4303
 19.3738
 19.3435
 19.3537
 18.8457
 18.8141
 18.9081
 18.7547
 17.7074
 17.7168
 17.6636
 17.7016
 18.877
 18.8119
 18.8946
 18.8793
 17.0794
 16.9556
 17.0575
 19.665
 19.6908
 19.7085
 19.696
 18.6949
 18.6982
 18.7136
 18.7777
 18.5029
 18.4147
 18.483
 18.4732
 18.9768
 19.0288
 18.9055
 18.9919
 17.722
 17.7269
 17.6192
 17.6792
 19.1261
 19.2077
 19.16
 19.1877
 18.5863
 18.6084
 18.5923
 18.6618
 20.3705
 20.3665
 20.3829
 20.3693
 17.9761
 17.9573
 18.028
 18.0657
 20.3727
 20.3742
 20.3738
 19.857
 19.8926
 19.8903
 19.8467
 20.0916
 20.0602
 19.9268
 20.0306
 18.0276
 18.0682
 18.0094
 17.9542
 18.3147
 18.2009
 18.2889
 18.2766
 19.4249
 19.4973
 19.494
 19.5378
 16.8048
 16.868
 16.9458
 21.3446
 21.3601
 18.5755
 18.4998
 18.616
 18.5865
 20.7289
 20.7891
 20.8592
 20.7905
 18.3296
 18.3224
 18.2259
 18.2622
 19.3937
 19.612
 19.6393
 19.6599
 19.7037
 18.0988
 18.0697
 18.0545
 18.0248
 17.6641
 17.6919
 17.6081
 17.6876
 20.3683
 20.3684
 18.2198
 18.1832
 18.0571
 18.1956
 18.6556
 18.8006
 18.6465
 18.7214
 19.7427
 19.7396
 19.7938
 19.638
 19.1352
 19.2015
 19.2181
 19.1258
 17.8011
 17.8984
 17.7203
 17.4191
 17.4502
 17.437
 17.4521
 16.8822
 16.8777
 16.8533
 19.5639
 19.6128
 19.5973
 19.5534
 17.3852
 17.4585
 17.4808
 17.4977
 20.145
 20.2103
 20.1837
 20.1642
 18.3967
 18.3868
 18.3733
 18.467
 18.7756
 18.6792
 18.7503
 18.7454
 17.3822
 17.3897
 17.3979
 17.3227
 18.3003
 18.2477
 18.3289
 18.3756
 20.8785
 20.9154
 20.938
 20.8884
 19.1228
 19.2368
 19.13
 19.2181
 19.519
 19.4007
 19.4159
 19.5067
 18.0972
 18.0476
 18.1311
 18.2056
 20.0497
 20.1062
 20.1361
 20.1243
 18.5873
 18.6491
 18.6211
 18.5271
 19.5721
 19.6368
 19.6437
 20.381
 20.4312
 20.4064
 20.4561
 18.5037
 18.4298
 18.5599
 18.3802
 18.3945
 18.4431
 19.8663
 19.9439
 19.9951
 20.0164
 20.0259
 19.9902
 19.9633
 17.442
 21.875
 21.8364
 21.8414
 21.9033
 17.7472
 17.8178
 17.6796
 17.7567
 20.1982
 19.404
 19.4182
 19.4399
 19.3321
 19.5413
 19.5866
 19.4394
 19.8168
 19.7188
 19.7652
 19.8004
 20.8822
 20.9047
 20.8601
 20.9523
 20.1473
 20.0868
 20.0907
 18.8738
 18.9173
 18.9088
 19.5789
 19.606
 16.682
 16.7911
 16.7999
 20.0843
 20.0237
 20.1171
 19.4186
 19.3578
 19.3281
 17.3732
 17.2889
 17.3022
 18.0416
 18.0366
 17.9522
 18.0392
 19.7983
 19.7511
 19.7285
 20.3469
 20.4255
 17.2333
 17.3144
 17.2025
 17.2369
 20.6671
 20.6406
 20.7188
 20.5909
 20.0639
 20.0902
 21.4648
 21.5234
 21.1731
 21.1859
 21.1463
 19.4285
 19.3874
 19.4701
 17.267
 17.3688
 17.4001
 18.2487
 18.2338
 18.157
 19.7547
 19.6931
 19.6159
 19.5726
 19.6446
 17.6049
 20.4144
 20.4163
 20.3818
 20.3773
 19.5157
 19.3776
 19.4678
 19.4731
 18.1363
 18.169
 18.1105
 18.176
 18.1685
 18.2172
 18.1919
 19.4468
 19.474
 19.4046
 19.3501
 18.2617
 18.2263
 18.1729
 18.1763
 17.9755
 18.0489
 18.0068
 17.9135
 19.021
 18.2059
 18.2028
 18.1769
 18.1486
 17.1379
 17.0902
 17.1343
 17.2011
 19.9082
 20.0374
 20.0541
 19.9578
 17.3044
 17.2558
 17.3043
 17.3135
 21.5156
 21.4983
 21.5489
 17.2211
 17.2747
 17.1268
 17.1793
 19.879
 19.8972
 19.9678
 19.9565
 17.9696
 18.0471
 17.991
 17.9349
 20.0712
 20.0686
 20.217
 20.1843
 16.9871
 17.7955
 17.9136
 17.8696
 17.9516
 17.602
 17.5145
 17.5545
 20.3087
 20.2672
 20.3328
 20.3614
 18.039
 18.1046
 18.0968
 18.1434
 18.6545
 18.5853
 18.5758
 18.6047
 18.7567
 18.7097
 18.8244
 18.8277
 16.8789
 16.9809
 19.2807
 19.2715
 19.2789
 19.4461
 19.3836
 19.3572
 19.3115
 18.1728
 18.2237
 18.0829
 18.0791
 18.1552
 18.112
 18.1116
 18.0472
 18.5078
 18.5022
 18.4331
 18.5273
 19.8949
 19.885
 19.7008
 19.7526
 19.7554
 19.4193
 19.3662
 19.3628
 19.3515
 20.4434
 20.5029
 20.4972
 20.4987
 19.5121
 19.5521
 19.6202
 20.8486
 20.8531
 20.7778
 19.492
 19.5015
 19.5679
 19.4479
 19.8666
 19.7655
 19.8834
 19.1295
 18.1664
 18.1866
 18.0916
 19.3331
 19.3618
 19.3107
 19.2607
 20.1078
 20.0998
 19.9263
 20.0184
 19.0347
 18.9864
 18.9591
 18.9553
 17.8288
 17.882
 16.769
 16.8475
 16.9022
 16.7597
 18.1053
 18.1518
 18.0721
 18.2033
 19.2889
 19.3057
 19.3128
 19.27
 17.046
 17.0374
 16.8802
 17.1013
 17.2716
 17.2262
 17.2078
 18.9247
 19.028
 19.056
 18.9597
 20.2711
 20.2957
 20.2291
 19.2244
 19.2335
 19.1406
 19.2214
 20.277
 20.379
 20.2863
 20.3779
 18.3249
 18.3329
 18.3106
 18.4852
 20.3565
 20.354
 20.3613
 20.3363
 19.8646
 19.8118
 19.7928
 19.8343
 17.2093
 17.305
 17.1946
 17.277
 18.8456
 18.8442
 18.9131
 18.84
 19.5021
 19.5524
 19.4781
 19.5393
 18.2016
 18.1807
 17.8904
 17.758
 17.7953
 17.8072
 19.362
 19.2768
 19.2994
 19.2033
 19.1713
 19.1211
 19.1563
 19.1665
 20.213
 20.1694
 20.2305
 19.3731
 19.4278
 19.47
 21.7153
 21.7889
 21.7329
 21.7702
 19.8106
 19.7729
 20.3152
 20.2756
 20.3041
 20.3666
 18.6358
 18.7112
 18.6431
 18.7346
 20.8637
 20.791
 20.7521
 20.8236
 20.0055
 20.0267
 20.1081
 18.3808
 18.3529
 18.3611
 18.4019
 19.9577
 19.8971
 19.9854
 20.0555
 20.0508
 20.1166
 20.1096
 19.4261
 19.4728
 19.4608
 19.3794
 17.9495
 17.7441
 21.2243
 21.1952
 19.8316
 19.8955
 19.2516
 19.3165
 19.2901
 19.3003
 18.4217
 18.3649
 18.4226
 18.3151
 19.0162
 19.0116
 18.9682
 18.9525
 20.2646
 20.3839
 20.283
 20.338
 18.6877
 18.7832
 18.73
 20.2541
 20.2749
 20.2384
 20.2412
 17.4867
 17.4688
 17.4085
 17.5169
 18.4444
 18.4482
 18.4555
 18.5294
 20.1618
 20.1065
 20.1855
 19.2115
 19.2996
 19.2212
 19.1776
 20.3516
 20.3552
 20.3254
 19.9864
 19.9166
 19.9387
 19.9839
 20.0948
 20.1091
 20.0361
 20.0827
 19.3342
 19.3955
 19.4193
 19.441
 17.2141
 17.2645
 17.3362
 17.3048
 18.5932
 18.492
 18.5288
 18.5259
 19.2965
 19.3932
 19.3193
 18.8842
 18.9227
 18.9165
 17.5776
 17.6777
 17.5855
 17.6464
 18.5203
 18.4971
 18.5867
 18.4672
 19.3967
 19.3385
 19.3007
 19.32
 20.4418
 20.4163
 20.181
 20.2297
 20.1415
 20.1403
 21.3395
 21.3606
 21.4189
 21.3305
 18.1441
 18.1264
 18.1249
 18.1612
 19.9376
 20.0224
 19.9927
 19.9998
 19.0136
 19.0948
 19.041
 19.1318
 20.5565
 20.5875
 20.5766
 20.6067
 18.8122
 18.8561
 18.9001
 18.891
 19.1988
 18.1404
 18.2158
 18.2394
 18.2153
 19.3521
 19.4393
 19.4596
 19.3659
 19.3521
 19.3134
 19.2621
 19.2839
 19.5546
 19.6253
 19.597
 19.6504
 20.1079
 20.1874
 20.0667
 17.7621
 17.7401
 17.7108
 17.866
 19.3782
 19.404
 19.4049
 19.4321
 17.8519
 17.8098
 17.7552
 18.3974
 18.4524
 18.3977
 18.4464
 17.9993
 17.8777
 17.9465
 17.8715
 20.1178
 20.0542
 20.13
 21.9153
 21.8821
 21.8727
 18.22
 18.1229
 18.1465
 18.7936
 18.658
 18.7314
 18.6574
 19.5062
 19.4681
 19.4312
 19.4875
 19.2877
 19.2526
 19.3584
 19.3342
 21.0096
 20.9584
 21.0737
 20.9561
 18.9765
 19.0162
 19.023
 19.0333
 18.6683
 18.6715
 18.5865
 18.6759
 19.9468
 19.9477
 19.7615
 19.9059
 19.8338
 19.824
 18.3348
 18.4027
 18.3601
 18.3532
 20.0336
 19.9523
 18.6038
 18.6389
 20.2446
 21.7742
 21.79
 21.78
 21.7306
 20.5329
 20.4612
 16.9883
 16.8853
 16.9731
 20.3769
 20.3118
 20.2545
 20.32
 18.2318
 18.2115
 19.8841
 19.901
 19.8895
 19.8866
 19.6119
 19.4812
 19.5387
 18.1294
 18.1055
 18.1212
 18.0281
 18.5088
 18.4319
 18.4999
 18.4762
 17.7493
 17.7473
 17.6623
 19.3212
 19.3897
 19.316
 19.4273
 19.0986
 17.6715
 17.8203
 17.7082
 17.746
 20.3572
 20.3806
 20.3294
 20.2973
 18.9339
 18.995
 18.8922
 18.9673
 18.0968
 18.2288
 18.1328
 18.1984
 21.4467
 21.4344
 21.4119
 21.4096
 20.1284
 17.0261
 19.4427
 19.3281
 19.402
 19.4753
 18.9054
 18.8316
 18.9236
 18.9535
 19.8678
 19.9711
 19.9135
 19.8927
 18.8645
 18.9061
 18.8751
 18.8581
 20.2147
 20.1984
 20.1231
 20.2207
 20.1571
 20.1089
 20.1637
 19.2763
 19.1981
 19.3112
 19.2687
 18.0575
 17.9738
 18.1398
 16.7042
 16.5976
 16.6947
 16.7539
 21.0614
 21.1379
 21.1427
 19.1783
 19.1845
 19.234
 19.1999
 19.2824
 19.1753
 17.4546
 17.4562
 17.493
 17.378
 18.2429
 18.3027
 18.2817
 18.3448
 20.1081
 19.9967
 20.08
 20.695
 19.3676
 19.4633
 19.4278
 19.3761
 19.1735
 19.1214
 19.1337
 18.3989
 18.4461
 18.4251
 18.3724
 18.1511
 18.2402
 18.1755
 18.2198
 19.4043
 19.459
 18.2625
 18.2685
 18.2584
 18.1954
 18.8209
 18.8444
 18.8215
 18.7524
 17.2973
 17.2393
 18.5656
 18.641
 18.5788
 18.6107
 18.2973
 18.2569
 18.2458
 18.1946
 18.4391
 18.39
 18.4358
 18.4431
 19.1358
 19.0894
 19.3425
 19.2865
 19.3456
 19.3934
 19.5938
 19.664
 19.6329
 19.6122
 18.7892
 18.7313
 18.735
 18.7722
 20.1818
 20.1286
 20.0802
 20.0482
 19.8876
 19.9048
 19.9336
 19.9083
 21.2196
 21.168
 21.1745
 21.2452
 19.5904
 19.7108
 18.8155
 18.9403
 18.8469
 18.8843
 19.4266
 19.4424
 19.4132
 19.3572
 18.9472
 18.8948
 18.8589
 18.9221
 19.3074
 19.293
 18.1272
 18.158
 17.0665
 17.0498
 17.0335
 17.0229
 20.3312
 19.359
 19.3682
 19.344
 19.2897
 19.0792
 19.1495
 19.122
 19.1023
 19.7343
 19.7825
 19.7986
 19.8658
 18.2994
 18.401
 18.3141
 18.4036
 18.8799
 18.9312
 18.956
 18.8837
 20.2211
 20.2488
 20.1859
 20.2537
 20.2893
 19.4759
 19.3981
 19.4985
 19.4711
 19.5583
 19.4554
 19.5327
 19.5503
 20.1058
 20.1018
 20.17
 20.1049
 19.9135
 19.8932
 19.7957
 19.8417
 19.2046
 19.1326
 19.2356
 19.241
 20.1941
 20.2388
 20.2694
 20.2426
 18.8553
 18.8342
 18.9344
 19.8217
 19.8219
 19.8386
 19.8475
 20.8778
 20.8331
 18.8538
 18.8002
 18.7831
 18.9852
 18.8974
 18.9318
 18.8903
 20.3078
 20.2537
 20.2281
 20.5452
 20.5077
 20.5088
 20.5329
 18.5752
 18.5982
 18.5256
 18.5903
 18.8971
 19.0015
 18.8947
 17.9975
 18.1526
 18.0793
 19.1357
 19.1954
 19.1813
 17.7432
 17.765
 17.7249
 21.2757
 21.3255
 21.328
 21.2805
 17.299
 17.2621
 17.3159
 17.2531
 19.6528
 19.7218
 18.7758
 18.8268
 20.0686
 20.0676
 20.0862
 20.0177
 18.6394
 18.6788
 18.5859
 18.0876
 18.025
 18.0411
 18.0285
 17.6787
 17.7996
 20.3472
 20.3385
 20.3748
 18.8519
 18.8572
 18.9305
 19.909
 19.972
 19.8906
 20.2765
 20.2756
 20.2952
 20.3227
 19.3663
 19.3334
 19.408
 19.3036
 19.4586
 19.5393
 19.5253
 19.4658
 18.3545
 18.3755
 18.3868
 18.3005
 18.1579
 18.2291
 18.1886
 18.2862
 19.518
 19.5005
 19.4533
 18.6143
 18.646
 18.6889
 18.3772
 18.3003
 18.339
 18.3058
 16.4854
 16.5494
 16.461
 19.1177
 19.145
 19.1453
 18.3234
 18.2753
 18.3749
 19.1889
 19.1482
 19.2408
 19.6673
 19.7519
 19.7325
 20.3414
 20.3147
 20.3251
 20.3046
 19.1171
 19.3018
 19.2211
 19.2742
 19.8211
 19.8424
 19.8946
 20.1444
 20.065
 18.4545
 18.5059
 18.3909
 18.4647
 18.437
 18.3668
 18.4767
 18.5223
 20.0821
 20.002
 19.9638
 19.946
 20.1722
 20.2568
 20.2041
 20.2627
 20.6686
 20.7084
 20.6666
 20.7369
 17.3332
 17.2947
 17.8263
 17.9406
 17.8743
 17.8127
 17.1996
 19.7141
 19.6269
 19.7083
 19.0582
 19.0381
 19.0946
 19.1271
 20.1496
 20.1503
 19.232
 19.2548
 19.1667
 20.392
 20.3646
 17.9275
 17.923
 17.8353
 17.9954
 17.6108
 17.6417
 17.4879
 17.5858
 18.143
 18.1298
 18.2081
 19.6531
 19.597
 19.6011
 17.6314
 17.6474
 17.6143
 17.5965
 19.8595
 19.9471
 19.8813
 19.8465
 18.0746
 18.126
 18.1525
 18.0804
 19.8009
 19.8788
 19.894
 19.7694
 20.1785
 20.1489
 20.2016
 17.2065
 17.0625
 17.1301
 17.1755
 20.3339
 20.2977
 20.3152
 19.3982
 19.3767
 19.2774
 19.3465
 17.2319
 17.1431
 17.1881
 19.7934
 19.8497
 19.7604
 19.8085
 18.5009
 17.4341
 17.3802
 17.5605
 17.4617
 20.4505
 20.4302
 20.392
 20.4361
 18.44
 18.5594
 18.4659
 18.4382
 19.1673
 19.1428
 19.2372
 20.1577
 20.2037
 20.1488
 20.2887
 18.5241
 18.5599
 18.4841
 19.9089
 19.9421
 21.2221
 21.2901
 21.2306
 21.1846
 20.5727
 20.7285
 20.7345
 17.5729
 17.6121
 17.4624
 17.5786
 17.6066
 17.551
 20.5385
 20.522
 20.5907
 20.4968
 19.4921
 19.4606
 19.4699
 19.4227
 19.2616
 19.3628
 19.3595
 19.335
 18.8366
 18.8684
 18.7785
 18.8551
 18.8397
 18.9631
 18.8854
 18.9555
 17.3522
 20.2389
 20.2738
 20.2336
 20.2591
 17.3306
 17.3997
 17.2974
 18.8142
 18.8912
 18.9347
 18.902
 20.3
 20.2298
 20.2055
 18.9275
 18.9936
 18.9453
 18.9951
 19.1609
 18.3823
 18.3598
 18.2666
 18.3012
 19.8688
 19.8782
 19.8704
 19.1616
 19.0402
 19.0976
 17.2449
 17.2804
 17.3753
 17.293
 19.1602
 19.1699
 19.2069
 21.5038
 21.4846
 21.5475
 19.1677
 19.2203
 19.1704
 19.2921
 18.3467
 18.267
 18.2961
 19.0915
 19.0673
 17.795
 17.7402
 17.8416
 17.8191
 18.1657
 18.0877
 18.1241
 18.1449
 17.1512
 17.184
 17.2433
 17.3095
 18.908
 19.0517
 18.9481
 18.9252
 18.2304
 18.2566
 18.2811
 18.3062
 17.8015
 17.7358
 17.6699
 19.9735
 19.9299
 20.0446
 19.9973
 19.2376
 19.1641
 19.6245
 19.6814
 19.6193
 19.6459
 18.4535
 18.4574
 18.4705
 18.4109
 19.1814
 19.1139
 19.129
 19.2102
 18.5463
 18.5926
 18.4981
 18.5897
 19.1111
 19.094
 19.0176
 19.0185
 19.2272
 19.2864
 19.288
 17.8245
 17.8859
 17.8489
 17.5031
 17.4977
 17.5238
 17.3971
 17.8399
 17.8402
 17.779
 18.2748
 18.1493
 18.2489
 21.0762
 21.0649
 21.129
 19.2547
 19.1596
 19.233
 17.9189
 17.8821
 17.9347
 17.9305
 19.2571
 19.2215
 19.2635
 18.8453
 18.8292
 18.8074
 18.8981
 18.482
 18.6447
 18.5926
 18.593
 19.172
 19.1071
 19.1334
 19.0783
 20.0475
 20.0008
 20.0383
 20.0795
 19.228
 18.8608
 18.8743
 18.8276
 18.9734
 20.3366
 20.3086
 20.2976
 20.3024
 20.2747
 20.2135
 20.2531
 20.2149
 20.164
 20.1086
 20.1461
 20.1758
 18.5029
 18.5286
 18.4193
 18.3761
 19.9328
 19.9749
 19.9475
 19.9389
 16.9293
 17.024
 16.9579
 17.0226
 20.6728
 20.6337
 20.5861
 20.5888
 19.9164
 19.9081
 19.9286
 20.4232
 20.4819
 20.5203
 20.5068
 20.1341
 20.1871
 20.0883
 20.2851
 20.2706
 19.0525
 19.0631
 19.0064
 18.9014
 17.5551
 17.6261
 17.648
 17.49
 17.5091
 17.4492
 17.5382
 20.1334
 20.1889
 17.1144
 17.0614
 17.1394
 17.8002
 17.8161
 17.7866
 17.7435
 20.1471
 20.1849
 20.1358
 17.2429
 17.1995
 17.2828
 17.1749
 19.575
 19.559
 19.5051
 19.6234
 20.1221
 20.2116
 20.1648
 20.1023
 20.4759
 20.362
 20.4093
 20.4301
 20.923
 20.892
 20.9573
 20.9592
 18.6613
 18.5245
 18.6042
 18.5348
 19.5247
 19.5248
 19.5532
 19.6537
 17.186
 17.3081
 17.1941
 21.5334
 21.4628
 21.5111
 21.4264
 20.6008
 20.5339
 20.5689
 20.5115
 17.3009
 17.1597
 17.238
 17.2417
 19.1756
 19.1641
 19.1026
 17.7454
 17.6364
 17.6166
 20.0119
 20.0162
 20.1099
 17.1477
 17.2589
 17.2562
 17.1887
 17.7066
 17.7374
 17.7572
 17.8303
 19.8234
 19.7845
 19.7186
 19.7802
 19.5465
 19.6278
 19.5477
 19.6388
 18.0883
 18.0838
 18.0542
 17.9708
 18.9878
 19.0328
 19.0825
 19.0499
 20.7216
 20.6513
 20.657
 20.6489
 17.6886
 17.8633
 17.7509
 17.7912
 17.0524
 18.9921
 18.9715
 18.9212
 18.9225
 17.4895
 17.4422
 17.4528
 17.3659
 20.3295
 20.3294
 20.3155
 20.3151
 17.1936
 17.1199
 17.2192
 17.255
 19.2163
 19.2319
 19.5099
 19.5509
 19.5001
 19.471
 18.094
 18.1768
 18.1873
 18.1858
 18.8333
 18.7417
 18.7516
 19.5406
 19.5551
 19.523
 18.1167
 18.1167
 18.2152
 18.2237
 18.184
 18.228
 18.1433
 18.206
 20.065
 20.1377
 20.1428
 19.1685
 19.0074
 19.0108
 19.0984
 20.7643
 20.6943
 20.6264
 20.7218
 20.7787
 17.1169
 17.2662
 17.1072
 17.2511
 19.0476
 19.0926
 19.127
 19.0533
 17.5345
 17.4757
 19.3294
 19.4451
 19.4439
 19.8813
 19.9523
 19.8329
 19.8539
 17.2527
 17.2779
 17.2216
 17.2141
 20.2328
 20.2055
 20.2175
 19.873
 19.905
 19.8486
 19.899
 19.5877
 19.5098
 19.5659
 19.6606
 18.3967
 18.2373
 18.3196
 18.2831
 19.9773
 19.8756
 19.9349
 19.9414
 18.1247
 18.7174
 18.6256
 18.5992
 18.7291
 17.5213
 17.4891
 17.5767
 17.2908
 17.3266
 17.3363
 17.4015
 18.6661
 18.6317
 18.7338
 18.6869
 16.875
 16.8766
 16.872
 16.9758
 19.6204
 18.7485
 18.8567
 18.8655
 18.7813
 19.0278
 19.1454
 19.1001
 19.0595
 20.9144
 20.844
 20.8256
 20.8975
 19.1943
 19.1745
 19.1471
 19.2385
 19.4217
 19.4023
 19.3766
 19.3481
 19.3572
 19.3413
 19.2885
 17.6603
 17.7513
 17.7883
 19.4059
 19.484
 19.4742
 19.4162
 17.6391
 17.5106
 17.5802
 19.0951
 19.1422
 19.0185
 18.9702
 18.9942
 18.9169
 18.9384
 18.914
 19.0896
 19.0703
 18.9681
 19.0034
 17.6137
 17.56
 17.5657
 19.5896
 17.4384
 18.82
 18.7624
 18.8216
 18.9038
 20.0807
 20.0598
 20.1472
 19.9472
 19.8736
 19.8464
 19.0003
 18.9766
 19.049
 19.1403
 19.1443
 19.1025
 19.0643
 19.0916
 19.151
 19.0416
 19.1399
 21.5814
 21.5697
 21.6335
 18.0862
 18.1879
 18.0867
 19.2362
 19.2046
 17.8004
 17.9263
 17.8949
 17.9231
 18.7073
 18.6416
 18.7032
 20.8415
 20.8526
 20.9229
 20.8939
 19.3698
 19.4708
 19.4043
 19.4098
 20.0429
 20.0796
 20.1204
 20.1439
 18.4419
 18.5545
 18.5004
 18.4543
 19.7114
 19.7631
 19.7241
 19.8086
 20.7213
 20.7352
 20.7444
 19.5556
 19.5852
 19.6269
 19.6091
 18.4036
 18.3128
 18.3416
 18.3441
 19.1365
 19.0573
 19.0417
 19.0894
 19.9521
 19.9917
 19.9497
 19.4953
 19.5541
 19.5248
 19.5408
 19.9685
 20.0466
 19.9537
 20.0272
 20.2736
 20.1783
 20.1769
 20.2859
 17.3573
 17.2983
 17.3264
 17.2958
 20.1804
 20.1195
 20.1419
 20.1186
 19.9834
 20.0353
 19.9551
 19.9662
 18.6339
 18.5211
 18.5695
 18.5083
 19.5513
 19.5806
 19.5053
 19.5292
 16.6318
 16.58
 16.5899
 16.5804
 19.3885
 19.4262
 19.3546
 20.2909
 20.3462
 20.3216
 20.2597
 20.2136
 20.2505
 20.2251
 20.2523
 20.0881
 20.1974
 18.3904
 18.4581
 18.394
 18.5041
 16.866
 16.9436
 16.9013
 16.9123
 19.4516
 19.5257
 19.4837
 19.5284
 20.1046
 20.1535
 20.1626
 18.4945
 18.577
 18.5941
 18.5108
 19.2796
 19.3047
 19.2424
 19.2029
 19.8948
 19.8953
 19.9037
 19.8373
 20.329
 20.2157
 20.2847
 17.9818
 17.9011
 17.8665
 17.9575
 17.9097
 17.8987
 17.9862
 19.4284
 19.4166
 19.3667
 19.3438
 19.3856
 19.4338
 19.3392
 19.902
 19.8345
 19.8063
 19.81
 18.5144
 18.5283
 18.5931
 20.1083
 20.1039
 20.1863
 19.021
 18.9301
 18.9696
 17.8634
 17.9685
 17.9202
 18.3709
 18.3941
 19.6011
 19.5479
 19.6021
 19.5401
 19.5102
 19.5441
 19.249
 19.3432
 19.8206
 20.4076
 20.392
 20.4559
 17.6047
 17.6158
 17.7392
 19.4248
 19.3678
 19.3908
 19.4435
 19.8729
 19.0997
 19.039
 18.4811
 18.4677
 18.4961
 18.425
 19.1237
 19.1976
 19.1138
 19.3813
 19.3416
 19.4595
 19.3637
 19.5606
 19.4243
 19.3815
 19.4393
 19.4673
 19.3379
 17.672
 17.7506
 17.7722
 17.7162
 17.6268
 17.5601
 17.4386
 17.4836
 20.1397
 20.0737
 19.0769
 19.1117
 19.1305
 19.187
 18.8776
 18.8555
 18.8319
 18.7966
 18.537
 18.4665
 18.5468
 18.5591
 19.2687
 19.308
 19.3394
 19.253
 19.3757
 19.3266
 19.3617
 19.4046
 17.8504
 17.9759
 17.8742
 17.9074
 19.9786
 19.8905
 19.8834
 19.8275
 20.0132
 19.9254
 19.9733
 18.0251
 17.9475
 17.8563
 17.8315
 19.9294
 19.8737
 19.8925
 19.8374
 17.5578
 17.596
 17.5306
 17.5742
 17.8802
 17.9305
 17.9062
 17.9413
 19.5012
 19.4627
 19.5328
 19.4945
 18.3352
 18.3089
 18.3638
 18.4405
 19.8645
 19.8212
 19.7637
 19.7424
 18.1652
 18.2085
 18.185
 20.1662
 20.1207
 20.1777
 20.1378
 18.762
 18.7832
 18.7408
 18.7073
 19.5554
 19.5326
 18.2101
 18.0954
 18.147
 18.189
 18.1339
 18.1485
 18.1992
 19.3355
 19.2328
 19.3283
 18.0096
 18.0216
 17.989
 17.9094
 20.7126
 20.678
 20.6306
 20.6598
 19.8571
 19.8329
 19.7623
 19.754
 18.673
 18.7787
 18.7649
 18.6628
 17.5566
 17.5464
 17.6051
 17.551
 17.8072
 17.7288
 17.7092
 17.7958
 17.4203
 17.415
 17.4001
 17.626
 17.6011
 19.6625
 19.6103
 19.6663
 19.5939
 20.0388
 20.0082
 20.1214
 20.057
 19.7728
 19.7697
 19.6152
 19.535
 19.596
 19.5895
 19.3955
 19.3854
 19.2992
 19.3836
 20.077
 20.0746
 20.132
 18.9484
 18.9985
 18.984
 19.0171
 16.633
 16.664
 16.7494
 19.6515
 19.664
 19.6391
 19.5725
 17.8112
 17.918
 17.8502
 17.8218
 18.3952
 18.2941
 18.3238
 19.0602
 19.1056
 19.022
 18.3925
 18.2997
 18.4034
 17.848
 17.9339
 18.4599
 18.4462
 18.445
 19.8382
 19.8094
 19.7891
 19.8757
 17.4961
 17.4365
 17.5014
 17.5296
 18.738
 18.6371
 18.7026
 20.9851
 21.0558
 21.0782
 20.9903
 20.1772
 20.2169
 18.851
 19.5959
 19.5003
 19.5622
 19.5948
 19.0508
 18.9712
 18.9761
 18.2575
 18.2297
 18.2978
 18.2565
 17.5244
 17.4685
 19.1782
 19.2143
 19.2096
 19.2586
 20.2525
 20.3023
 20.3103
 20.2189
 17.7979
 17.7394
 17.7593
 17.7954
 18.6332
 18.5992
 18.647
 21.4229
 21.4486
 21.5111
 21.5135
 20.1328
 20.1474
 20.2171
 19.7223
 19.6666
 19.7642
 19.7033
 18.7473
 18.7408
 18.7938
 18.6877
 19.1084
 19.0437
 20.3657
 20.3413
 20.3485
 20.3463
 18.5806
 18.4932
 19.769
 19.8536
 19.7947
 19.7753
 19.4358
 19.4031
 19.4954
 19.4324
 19.1115
 19.0354
 18.9945
 19.06
 19.7247
 19.7622
 19.8454
 18.3898
 18.5079
 18.3915
 18.477
 17.9668
 17.8978
 17.8282
 17.9601
 18.0613
 18.0722
 18.0683
 17.978
 20.2737
 20.3517
 20.2902
 20.3453
 19.1346
 19.1844
 21.1366
 21.2175
 21.175
 21.2487
 19.489
 19.5664
 19.5973
 17.1424
 21.7257
 21.7084
 21.7123
 21.8115
 19.1559
 19.1093
 19.1548
 19.1445
 19.6521
 19.5787
 19.6139
 18.0014
 17.934
 17.9152
 18.0112
 18.0036
 18.0345
 17.9467
 17.9555
 18.0372
 18.0016
 18.0722
 18.1042
 19.8184
 19.754
 19.8601
 19.7545
 20.0827
 20.1128
 20.1425
 20.1405
 18.595
 18.6013
 18.5031
 18.6066
 19.4082
 19.518
 19.3849
 19.456
 16.782
 17.4839
 17.4398
 18.7569
 18.7645
 19.3364
 19.3987
 19.383
 17.4331
 17.2996
 17.3879
 17.4081
 19.2025
 19.2382
 18.8442
 18.909
 20.8361
 20.7728
 20.8516
 20.7851
 19.8294
 19.8568
 19.9127
 19.8723
 18.6009
 18.5023
 18.5894
 18.524
 20.6841
 20.7618
 20.7041
 20.6731
 16.9098
 16.9575
 16.8598
 16.9505
 17.5556
 17.6685
 17.3928
 17.4512
 17.5201
 17.3906
 17.9931
 17.9249
 19.535
 19.4905
 19.5402
 21.5719
 21.5083
 21.5916
 21.5889
 20.6044
 20.5576
 20.5474
 20.6082
 17.5224
 17.4481
 17.5215
 17.5704
 18.2777
 18.1566
 18.2186
 18.9648
 19.0373
 19.0926
 18.9991
 19.7423
 19.6539
 19.7206
 19.7509
 17.7051
 17.6263
 17.6955
 17.5013
 19.0174
 18.9229
 19.7477
 19.7203
 18.4744
 18.3924
 18.5073
 18.4762
 20.0386
 20.1289
 20.0122
 20.1407
 20.189
 20.27
 20.2372
 21.4974
 21.3851
 21.3959
 21.4393
 19.694
 19.652
 19.6601
 19.5942
 17.7985
 17.7816
 17.9466
 17.864
 17.9177
 17.8642
 19.8635
 19.866
 19.7946
 19.9182
 18.1641
 18.2135
 18.1355
 18.4534
 18.4603
 18.4259
 18.4946
 17.8867
 17.7971
 17.8897
 17.7938
 19.7677
 19.6978
 19.7215
 19.7523
 17.2956
 17.4407
 19.3733
 21.0185
 20.997
 20.9456
 20.9251
 18.1478
 18.1752
 18.1043
 20.6521
 20.6965
 20.6503
 20.7231
 18.3814
 18.3892
 18.384
 18.309
 20.2636
 20.2668
 20.3485
 20.2385
 20.0224
 20.0309
 19.9623
 19.9465
 18.5364
 18.4729
 18.4616
 19.5935
 19.5554
 19.6145
 19.6559
 18.725
 18.7353
 18.6839
 18.8034
 18.7966
 18.8758
 17.8643
 17.8356
 17.8487
 18.4142
 18.3992
 18.4489
 21.1055
 21.0976
 21.0341
 21.0851
 20.1365
 20.0615
 20.1685
 20.038
 17.6717
 17.7875
 17.793
 17.8005
 18.051
 18.0846
 19.9285
 19.7923
 19.9219
 18.4308
 18.5347
 18.5233
 18.5744
 18.4927
 18.5206
 18.5525
 19.8241
 19.8624
 19.8164
 19.7981
 17.3377
 17.3413
 19.5447
 19.5749
 19.5414
 19.5049
 19.9019
 19.8971
 19.8722
 18.4031
 18.3785
 19.141
 19.17
 19.1725
 19.087
 20.2772
 20.3085
 18.6155
 18.6615
 19.5353
 19.6335
 19.6138
 19.5608
 18.9421
 18.9438
 19.0008
 18.8944
 18.9519
 19.0015
 18.9589
 20.423
 20.4068
 20.4438
 20.3169
 20.6322
 20.6338
 20.5815
 20.6105
 18.3495
 18.3994
 18.4653
 18.4174
 17.6118
 17.6055
 17.663
 17.6612
 18.8057
 18.7631
 18.8345
 19.1009
 19.1503
 19.1833
 19.1286
 19.0781
 18.0838
 18.0627
 19.6957
 19.6216
 19.6899
 19.7116
 19.9882
 17.6188
 17.6414
 17.704
 17.6683
 19.0796
 19.2022
 19.1694
 19.1026
 21.3892
 21.3474
 19.3197
 19.4138
 19.3179
 21.1008
 21.0825
 21.1206
 21.0533
 18.6867
 18.7453
 18.6957
 18.7307
 20.2867
 20.2011
 20.185
 19.8299
 19.7645
 17.2476
 17.2577
 17.2577
 17.4365
 17.4288
 17.4765
 20.1153
 20.0124
 19.8614
 19.8672
 21.2401
 21.2829
 21.2932
 21.3098
 17.6139
 17.7349
 17.5943
 20.035
 20.0241
 19.9786
 20.0807
 19.8953
 19.9259
 19.8412
 19.9254
 18.3999
 18.3627
 18.3325
 18.3771
 18.7032
 18.5336
 18.6202
 18.4036
 18.3935
 18.4807
 18.3967
 18.0992
 18.1928
 18.0253
 18.228
 20.3239
 20.3169
 20.1175
 20.1147
 20.0738
 18.7687
 18.8094
 18.8826
 18.8513
 19.9668
 19.9743
 19.89
 19.9181
 18.3027
 18.3556
 18.3395
 18.2949
 20.2901
 20.1968
 17.6857
 17.7422
 17.7071
 17.7847
 18.2851
 18.4166
 18.3582
 18.2637
 19.7208
 19.7125
 19.7383
 19.6714
 17.8644
 17.768
 19.3631
 19.3449
 19.3166
 19.3016
 20.7135
 20.6958
 20.708
 20.6956
 20.2935
 20.2509
 20.2956
 20.2328
 17.2133
 17.1757
 17.1363
 17.1523
 17.5539
 17.5918
 17.6258
 19.7596
 19.774
 19.7835
 17.2589
 17.1998
 19.3089
 19.2692
 19.3196
 19.2131
 17.7928
 17.8494
 17.779
 17.8522
 19.9424
 19.9806
 19.9296
 19.9869
 20.4349
 20.3643
 20.4078
 17.9542
 17.8584
 17.8648
 17.8979
 19.4791
 19.3781
 19.3948
 19.4236
 20.0633
 20.0373
 19.9876
 20.1126
 20.2926
 20.4116
 20.2722
 18.7571
 18.8445
 18.7176
 19.0295
 19.0135
 19.0752
 18.9828
 18.8138
 18.8219
 18.7389
 18.8369
 19.5566
 19.4794
 19.5525
 19.4881
 19.8611
 19.8432
 19.8016
 19.8955
 20.1427
 20.2128
 18.5038
 18.3919
 18.507
 18.5048
 18.952
 19.0581
 18.9746
 19.023
 18.9217
 19.0318
 19.0489
 19.0932
 18.9554
 18.9996
 21.0519
 21.0196
 20.9713
 21.0074
 17.543
 17.4453
 17.5311
 19.4598
 19.4688
 19.476
 19.5398
 19.2005
 19.2626
 19.2025
 20.2211
 20.1683
 20.2535
 20.2281
 20.0221
 20.0922
 20.0421
 20.0618
 19.4888
 19.4662
 19.4069
 19.9263
 19.9663
 18.2649
 18.3141
 18.2011
 17.1102
 17.0855
 17.1686
 17.1234
 20.0232
 20.0948
 20.0947
 19.9967
 19.2069
 19.1408
 19.1196
 19.2003
 18.0808
 18.0599
 18.1346
 18.1363
 19.9562
 19.9289
 19.9852
 19.8785
 19.7711
 19.7285
 19.7038
 19.6408
 17.9338
 18.0081
 18.1009
 18.0852
 19.7936
 19.7097
 17.6707
 17.701
 17.6235
 18.8215
 18.8882
 20.5034
 20.5421
 20.5517
 20.5749
 19.4711
 19.4373
 19.4154
 19.4325
 20.563
 20.5991
 20.5613
 19.2473
 19.2622
 18.6553
 18.6065
 18.5199
 18.6486
 19.461
 19.4557
 18.4982
 18.4217
 19.5325
 19.5793
 19.5396
 19.5142
 18.5017
 18.5671
 18.4772
 18.4553
 18.1624
 18.0728
 17.9951
 18.0549
 17.3051
 17.2907
 17.3348
 17.3282
 19.1635
 19.1211
 19.9913
 19.9925
 20.1124
 20.1453
 18.1081
 18.1971
 20.1807
 20.1084
 20.1548
 20.9071
 20.8941
 20.7889
 20.8339
 21.025
 20.9717
 21.004
 19.0231
 18.9311
 18.9384
 18.9525
 19.5211
 19.4541
 19.5088
 20.0548
 19.7404
 19.6815
 19.7733
 19.6938
 20.071
 20.0188
 20.1232
 20.0515
 19.5771
 19.6365
 19.5641
 19.6331
 18.4107
 18.5571
 18.5538
 18.4337
 17.3007
 17.337
 17.3397
 17.2546
 19.3425
 19.3658
 19.2589
 19.2899
 17.9398
 17.9823
 17.8399
 17.8672
 19.7474
 18.3735
 18.4872
 18.4338
 18.4525
 20.4797
 20.524
 20.4834
 20.4825
 18.349
 18.2681
 18.2613
 19.6371
 17.5993
 17.5905
 17.639
 17.5036
 17.4113
 17.4038
 17.3986
 17.4061
 17.5133
 17.4354
 17.4079
 19.075
 19.088
 19.0697
 19.1661
 17.4881
 17.4788
 17.4406
 17.4431
 20.0639
 20.1136
 20.1276
 20.1435
 18.561
 18.595
 18.587
 18.6704
 19.36
 19.2696
 19.2851
 19.3522
 20.762
 20.7079
 20.7556
 18.669
 19.2272
 19.2477
 19.2822
 19.1893
 17.4635
 17.3935
 17.3933
 17.3698
 17.4519
 17.3929
 17.3198
 17.3496
 18.5967
 18.6215
 18.5701
 18.6335
 19.7279
 19.7782
 19.8044
 19.7763
 19.4391
 19.3566
 19.4108
 17.5596
 17.5137
 17.5699
 17.6534
 17.4118
 17.3616
 17.3765
 17.4357
 20.0856
 20.1238
 20.1236
 18.0023
 17.9291
 17.4565
 17.4819
 17.4667
 20.0404
 20.09
 20.0028
 19.9972
 18.256
 18.1349
 18.2791
 18.2966
 19.4684
 18.8069
 18.7877
 18.7397
 18.8038
 18.6033
 18.6705
 18.5881
 18.7174
 17.4417
 17.3957
 17.8161
 17.7128
 17.7833
 17.7019
 17.8416
 17.7211
 17.7731
 17.6828
 17.9189
 18.008
 17.8886
 17.9939
 18.2589
 18.1945
 18.2474
 18.2069
 20.6458
 20.5607
 17.5127
 17.4768
 17.4193
 20.3454
 20.3612
 20.3422
 19.867
 19.9662
 19.9865
 19.8961
 18.1944
 18.2458
 18.183
 18.106
 19.3151
 19.3915
 19.3574
 19.3482
 17.0471
 17.1245
 17.0431
 16.9769
 18.8483
 18.8684
 18.8129
 18.835
 17.8991
 17.8357
 17.9111
 18.4809
 18.4827
 18.8713
 18.9932
 18.8998
 18.9006
 18.9929
 19.1083
 19.0097
 19.0757
 20.1516
 20.1148
 20.1046
 18.5656
 18.4948
 18.53
 18.4622
 19.55
 19.5168
 19.4594
 17.6668
 17.6865
 17.5761
 17.7092
 17.395
 18.739
 18.8529
 18.865
 18.7897
 18.5058
 18.4485
 18.4398
 18.4682
 18.6119
 18.6587
 18.6893
 21.5794
 21.6286
 21.5624
 21.5635
 19.8917
 19.8301
 20.2552
 20.3193
 19.2388
 19.3604
 19.3297
 19.275
 21.9304
 21.9044
 17.1085
 17.0799
 17.0518
 16.9816
 18.2364
 18.0788
 20.165
 20.1769
 20.131
 20.1335
 19.2321
 19.2221
 19.163
 19.1903
 17.8382
 17.754
 17.79
 17.8831
 19.8078
 19.8358
 19.7737
 19.8
 19.31
 19.3669
 19.2802
 19.318
 17.7669
 17.7215
 17.7184
 17.6369
 19.3205
 19.2937
 19.2887
 19.3935
 17.3326
 17.4127
 17.389
 17.4206
 18.5755
 18.5099
 18.531
 19.8964
 19.896
 19.9999
 19.91
 18.702
 18.7777
 18.7272
 18.7819
 18.9413
 19.0019
 19.6058
 19.4906
 19.4729
 18.5316
 18.5505
 18.456
 18.4395
 17.2551
 17.2624
 17.1805
 17.181
 17.6108
 17.5454
 17.4898
 17.6262
 19.9743
 19.9867
 20.0519
 20.0277
 20.3291
 20.3361
 20.3539
 20.3444
 20.1381
 20.2322
 20.1614
 20.201
 20.4034
 20.3934
 20.4232
 19.056
 19.0721
 19.0534
 19.1676
 18.0082
 17.9664
 18.2766
 18.17
 18.2366
 18.2404
 18.0767
 18.0206
 18.1188
 19.9111
 19.9716
 19.9487
 19.9942
 19.0839
 19.0697
 19.0173
 19.0317
 17.0438
 17.0341
 17.0092
 16.9584
 18.8891
 18.9332
 18.9689
 18.8835
 18.7706
 18.8635
 18.7609
 18.8413
 17.578
 17.5278
 17.6038
 17.6007
 20.2028
 20.3086
 20.2701
 20.2313
 18.272
 18.2838
 20.247
 20.3006
 17.9068
 17.9916
 17.9151
 17.8446
 18.9346
 18.9475
 18.9119
 19.0143
 20.5275
 20.4565
 20.5046
 20.2704
 20.2968
 20.328
 20.3288
 19.6892
 19.7776
 18.9301
 18.9668
 18.9082
 18.9602
 18.4772
 18.4887
 18.4252
 19.4591
 19.5249
 19.5219
 19.4481
 19.5243
 19.4101
 19.5275
 19.4523
 18.1182
 18.2007
 18.1711
 18.165
 20.4269
 20.4305
 20.3992
 17.1766
 17.1551
 17.2746
 17.2542
 18.6507
 18.675
 18.6611
 20.0199
 19.9925
 19.966
 17.4117
 17.4112
 17.4926
 17.3697
 17.931
 19.709
 19.7952
 19.7824
 19.7529
 17.4898
 17.6393
 17.5812
 17.513
 18.6388
 18.5394
 18.5726
 17.2267
 17.2111
 17.2105
 17.2183
 17.5118
 17.5777
 17.5724
 17.4862
 17.4541
 20.5152
 20.4671
 19.2302
 19.2568
 19.1554
 19.2164
 20.6255
 20.6719
 20.6684
 20.6443
 19.6346
 18.6289
 18.5958
 18.7213
 18.2767
 18.2092
 18.1407
 18.2739
 19.6255
 19.6144
 19.6726
 19.6947
 19.8662
 19.8843
 18.7217
 18.6794
 18.6797
 19.7842
 19.8289
 19.7755
 19.7312
 19.8767
 19.8728
 19.8353
 19.8162
 17.45
 17.4102
 19.5964
 19.5376
 19.5922
 19.6026
 20.4125
 20.2979
 20.4125
 20.3235
 19.8933
 19.8807
 19.7296
 19.8561
 20.3912
 20.4411
 20.3905
 18.0028
 18.0823
 17.9808
 18.3134
 18.3061
 17.5112
 17.4897
 17.559
 20.1373
 20.2198
 20.194
 20.2091
 20.0459
 20.0058
 19.9743
 21.6784
 21.5955
 21.6732
 21.7161
 18.0526
 18.1728
 18.051
 17.9966
 19.7741
 19.7395
 19.7825
 19.6677
 18.6584
 18.7233
 18.6977
 18.6492
 18.1218
 18.1457
 18.2353
 18.1853
 20.0274
 20.0216
 19.993
 19.9593
 19.2504
 19.1813
 19.2562
 18.364
 18.3502
 18.2946
 18.6272
 18.6327
 18.6598
 18.5657
 19.298
 19.3831
 19.387
 19.3776
 18.6064
 18.5653
 18.5336
 20.4218
 20.289
 20.3999
 20.3844
 19.1433
 19.136
 19.1212
 19.2023
 20.0798
 20.1488
 20.1464
 20.12
 20.1913
 20.297
 20.1753
 20.1991
 16.9285
 16.8132
 16.9713
 20.0861
 20.1452
 20.0897
 16.9504
 17.9714
 17.9578
 18.074
 18.0312
 20.2717
 18.3019
 19.7301
 19.7397
 19.7911
 19.7762
 20.422
 20.4687
 20.5046
 20.4639
 18.4697
 19.2829
 17.1856
 17.213
 17.2043
 17.2207
 21.5993
 21.5467
 21.5699
 19.7575
 19.8193
 19.8371
 20.3413
 20.4075
 16.7843
 16.7301
 16.8544
 16.808
 19.4418
 19.5614
 19.4841
 19.4642
 17.8792
 17.7866
 17.7791
 18.5961
 18.6672
 18.4245
 18.4604
 18.3289
 18.4142
 17.4329
 17.4956
 17.5175
 17.456
 19.2815
 19.2851
 19.1715
 19.2108
 17.6074
 17.5564
 17.6446
 17.5981
 19.1137
 19.0634
 18.9816
 19.0894
 18.1121
 18.0976
 18.059
 18.1571
 17.9815
 18.0727
 17.9892
 17.8208
 19.9377
 20.0471
 19.9114
 19.8695
 19.03
 17.3185
 17.1849
 17.2426
 17.2233
 18.8095
 18.7918
 18.8954
 18.7628
 18.6777
 18.6675
 20.1364
 20.1839
 20.2053
 20.118
 19.6337
 19.7055
 19.6317
 19.0757
 19.0951
 19.1266
 19.1773
 17.0157
 17.1112
 17.1248
 17.0949
 19.8299
 19.8313
 19.8879
 19.905
 18.3148
 18.4365
 18.4311
 18.3819
 19.133
 19.116
 19.1811
 20.2012
 20.1321
 20.1628
 20.1466
 20.8615
 20.8497
 20.9318
 20.8211
 19.648
 19.7125
 19.7355
 17.8054
 17.8028
 17.7472
 18.8217
 18.1321
 18.2361
 18.1893
 18.19
 19.8103
 19.8326
 19.8222
 19.8241
 17.6602
 17.5169
 17.5912
 17.6181
 18.9077
 19.0246
 18.492
 18.5464
 18.521
 18.4765
 18.4155
 18.4449
 18.5795
 20.9696
 20.9343
 21.0334
 20.9644
 16.7034
 16.5474
 16.5976
 16.6899
 19.6074
 19.5366
 19.5696
 19.985
 19.935
 20.0416
 19.9124
 18.4012
 18.5044
 18.4603
 21.3884
 21.4516
 21.4891
 21.4271
 18.152
 18.1494
 18.0254
 18.0016
 18.0804
 18.0623
 20.3043
 20.3531
 20.3265
 20.3731
 20.1273
 20.1263
 20.0973
 20.1568
 20.7018
 20.6382
 20.6019
 20.6973
 19.2983
 20.7612
 20.7062
 20.7174
 20.6895
 18.0991
 18.191
 18.2056
 18.2435
 20.1052
 20.0272
 18.284
 18.2315
 18.2337
 18.3339
 17.7928
 17.7419
 17.7955
 17.7499
 17.0624
 17.0058
 17.0162
 16.9028
 21.5835
 21.6092
 21.5254
 18.6482
 18.5613
 18.5907
 18.6049
 17.9527
 17.9311
 18.0131
 17.9679
 20.9852
 20.9316
 20.9104
 20.9909
 18.6697
 18.1138
 18.0788
 18.0512
 18.1396
 17.484
 17.4389
 17.4847
 19.2926
 19.2625
 19.272
 19.2173
 17.1576
 17.0364
 16.9841
 17.0413
 18.805
 18.7649
 18.8093
 18.821
 18.7062
 19.8682
 19.9649
 19.8488
 18.8818
 18.9746
 18.9376
 18.8472
 18.9666
 18.9418
 18.908
 19.0142
 19.6055
 19.7031
 19.6753
 20.377
 20.8257
 20.7596
 20.8924
 18.512
 18.4468
 18.4777
 18.154
 18.1311
 18.1793
 19.9425
 19.8632
 19.908
 19.7958
 18.306
 18.3593
 17.5902
 17.6325
 17.6655
 17.628
 17.3475
 17.371
 17.3755
 17.6947
 17.6318
 18.5874
 18.521
 18.5779
 17.8122
 17.9255
 17.8541
 20.1015
 21.4345
 21.4685
 21.4091
 21.4213
 18.6961
 18.6737
 18.7449
 18.7243
 21.2425
 21.223
 21.1552
 21.252
 18.2379
 18.2341
 18.1832
 19.0532
 19.0885
 19.1507
 19.1669
 19.8157
 19.7641
 19.8903
 19.8464
 18.7626
 18.7387
 18.6661
 18.1979
 18.1399
 19.2158
 19.1265
 19.1925
 19.1739
 19.5883
 19.5337
 19.5696
 20.1121
 20.1073
 20.1034
 18.6359
 18.615
 18.5543
 18.6612
 18.0645
 17.977
 18.043
 17.9935
 16.6994
 16.7645
 16.6694
 16.7546
 18.9488
 18.9596
 16.6536
 16.7261
 16.7626
 18.4534
 20.3029
 20.2413
 20.1844
 20.215
 19.8127
 19.7594
 19.8108
 19.7759
 18.4908
 18.5488
 18.5128
 17.6119
 17.5425
 20.3746
 20.3486
 20.418
 20.3305
 18.1597
 18.1979
 20.3099
 20.3443
 18.806
 18.8132
 18.8525
 20.4897
 20.5462
 20.4587
 19.7915
 19.8049
 19.8373
 19.8298
 17.6081
 17.6021
 17.5595
 17.6162
 19.437
 19.4275
 19.4208
 19.2553
 19.3599
 19.3014
 19.2921
 17.4021
 17.5059
 17.5043
 17.5167
 20.874
 20.8456
 20.9002
 19.0662
 19.1517
 19.1113
 18.0292
 17.9786
 18.3541
 18.3741
 18.4613
 18.4456
 21.0145
 20.9603
 20.9788
 21.0027
 19.8941
 19.8919
 19.8824
 19.8265
 17.9127
 17.882
 17.8474
 17.8358
 17.8371
 17.8728
 17.8704
 17.9199
 19.3437
 19.4323
 19.3534
 19.3733
 16.9532
 16.8208
 16.8486
 16.9454
 20.0865
 20.0244
 20.1119
 21.043
 21.1066
 21.0892
 18.7848
 18.745
 18.3476
 18.3266
 18.3909
 18.3523
 17.6428
 17.6872
 17.5596
 17.5549
 19.5315
 18.9607
 19.3674
 19.3016
 19.2659
 19.221
 21.6848
 21.7709
 21.7606
 21.6717
 18.0773
 18.1123
 19.9087
 19.8729
 19.824
 19.6497
 19.6834
 19.5996
 19.5757
 20.3043
