 -85.4565
 -85.4615
 -85.4605
 -85.463
 -85.5386
 -85.5393
 -85.5412
 -85.5423
 -85.5198
 -85.5171
 -85.5204
 -85.5178
 -85.5235
 -85.5206
 -85.52
 -85.5185
 -85.5672
 -85.5688
 -85.5659
 -85.5651
 -85.5632
 -85.5613
 -85.5646
 -85.5621
 -85.4381
 -85.4352
 -85.436
 -85.4379
 -85.4428
 -85.4435
 -85.4435
 -85.442
 -85.5628
 -85.5619
 -85.5595
 -85.5617
 -85.5621
 -85.5625
 -85.5617
 -85.565
 -85.4269
 -85.425
 -85.4279
 -85.4284
 -85.5185
 -85.519
 -85.5162
 -85.518
 -85.4721
 -85.4719
 -85.4692
 -85.4746
 -85.5435
 -85.5397
 -85.5381
 -85.5409
 -85.5059
 -85.5047
 -85.5067
 -85.5089
 -85.4482
 -85.4456
 -85.45
 -85.4459
 -85.5564
 -85.5577
 -85.5559
 -85.5582
 -85.5266
 -85.5246
 -85.5273
 -85.5253
 -85.5079
 -85.5091
 -85.5095
 -85.5114
 -85.552
 -85.552
 -85.5534
 -85.555
 -85.4411
 -85.437
 -85.4412
 -85.4385
 -85.5717
 -85.5723
 -85.5741
 -85.5738
 -85.3752
 -85.3729
 -85.3715
 -85.3755
 -85.5364
 -85.5372
 -85.5341
 -85.5338
 -85.502
 -85.4997
 -85.5021
 -85.5036
 -85.5132
 -85.5141
 -85.5126
 -85.5117
 -85.4888
 -85.4925
 -85.4942
 -85.489
 -85.4463
 -85.4436
 -85.4468
 -85.446
 -85.471
 -85.4701
 -85.4672
 -85.4693
 -85.5406
 -85.5404
 -85.5387
 -85.5369
 -85.5038
 -85.5083
 -85.5025
 -85.5045
 -85.4728
 -85.4755
 -85.4754
 -85.4728
 -85.5313
 -85.5285
 -85.5321
 -85.5291
 -85.5388
 -85.5375
 -85.5372
 -85.5378
 -85.4737
 -85.4711
 -85.4745
 -85.4691
 -85.4529
 -85.4523
 -85.452
 -85.4523
 -85.5284
 -85.5241
 -85.528
 -85.5268
 -85.4241
 -85.4261
 -85.4265
 -85.4279
 -85.5324
 -85.5325
 -85.5372
 -85.5358
 -85.5756
 -85.574
 -85.5751
 -85.5735
 -85.5165
 -85.516
 -85.5173
 -85.513
 -85.5381
 -85.5405
 -85.5393
 -85.5388
 -85.4318
 -85.4312
 -85.4338
 -85.4295
 -85.5265
 -85.5247
 -85.5254
 -85.5285
 -85.5624
 -85.5618
 -85.564
 -85.563
 -85.4642
 -85.4669
 -85.4657
 -85.4645
 -85.5286
 -85.5325
 -85.5314
 -85.5315
 -85.4494
 -85.4524
 -85.4495
 -85.4461
 -85.4771
 -85.4749
 -85.4739
 -85.4725
 -85.5084
 -85.506
 -85.5053
 -85.5036
 -85.4447
 -85.4435
 -85.4424
 -85.4445
 -85.511
 -85.5083
 -85.5084
 -85.5105
 -85.4802
 -85.4761
 -85.4801
 -85.4747
 -85.5171
 -85.5188
 -85.5167
 -85.5189
 -85.4685
 -85.4714
 -85.4697
 -85.4738
 -85.5175
 -85.5169
 -85.5196
 -85.5151
 -85.5335
 -85.5339
 -85.5355
 -85.537
 -85.5374
 -85.5362
 -85.5377
 -85.5335
 -85.4643
 -85.4646
 -85.4599
 -85.4662
 -85.4863
 -85.4846
 -85.4853
 -85.4893
 -85.3831
 -85.3799
 -85.3779
 -85.3808
 -85.4706
 -85.4704
 -85.4673
 -85.4698
 -85.5041
 -85.5081
 -85.5065
 -85.5074
 -85.4825
 -85.4818
 -85.4864
 -85.4794
 -85.4808
 -85.4847
 -85.4804
 -85.4842
 -85.4458
 -85.4438
 -85.4467
 -85.4466
 -85.5542
 -85.557
 -85.5578
 -85.5539
 -85.5675
 -85.5683
 -85.569
 -85.5695
 -85.5111
 -85.5147
 -85.5084
 -85.5103
 -85.4717
 -85.471
 -85.4738
 -85.4701
 -85.5321
 -85.5337
 -85.5352
 -85.5319
 -85.4406
 -85.435
 -85.4367
 -85.4364
 -85.4399
 -85.4369
 -85.4365
 -85.4403
 -85.3784
 -85.3759
 -85.38
 -85.3793
 -85.5185
 -85.5215
 -85.5199
 -85.5229
 -85.4626
 -85.4663
 -85.4673
 -85.4628
 -85.456
 -85.4531
 -85.4565
 -85.4586
 -85.5701
 -85.5719
 -85.5711
 -85.5721
 -85.4517
 -85.4508
 -85.4483
 -85.4515
 -85.4574
 -85.4558
 -85.4533
 -85.4571
 -85.4625
 -85.4651
 -85.4626
 -85.4599
 -85.493
 -85.4922
 -85.4953
 -85.4946
 -85.4586
 -85.4622
 -85.4598
 -85.4608
 -85.4765
 -85.4788
 -85.4797
 -85.4775
 -85.4862
 -85.4854
 -85.4841
 -85.4828
 -85.4502
 -85.4466
 -85.4515
 -85.4478
 -85.3673
 -85.3661
 -85.3725
 -85.3726
 -85.4435
 -85.4446
 -85.4466
 -85.445
 -85.52
 -85.5184
 -85.5215
 -85.5164
 -85.5208
 -85.5198
 -85.5226
 -85.52
 -85.5363
 -85.5354
 -85.5342
 -85.5382
 -85.4403
 -85.4399
 -85.4405
 -85.4417
 -85.5728
 -85.5728
 -85.5714
 -85.5741
 -85.5353
 -85.5378
 -85.5353
 -85.5358
 -85.4267
 -85.4265
 -85.4232
 -85.4234
 -85.4779
 -85.4779
 -85.4765
 -85.4824
 -85.4556
 -85.4576
 -85.453
 -85.4547
 -85.4568
 -85.455
 -85.4553
 -85.4418
 -85.4414
 -85.4413
 -85.4402
 -85.5265
 -85.5246
 -85.523
 -85.5276
 -85.4886
 -85.493
 -85.4912
 -85.4887
 -85.523
 -85.526
 -85.5239
 -85.4705
 -85.4661
 -85.4687
 -85.4671
 -85.4989
 -85.5005
 -85.4998
 -85.4967
 -85.5495
 -85.5469
 -85.5469
 -85.5513
 -85.4417
 -85.4425
 -85.4473
 -85.4452
 -85.451
 -85.4483
 -85.447
 -85.4489
 -85.5197
 -85.5165
 -85.5156
 -85.5167
 -85.5325
 -85.5309
 -85.5356
 -85.5351
 -85.432
 -85.432
 -85.4303
 -85.4278
 -85.4485
 -85.4492
 -85.4545
 -85.4531
 -85.4839
 -85.4878
 -85.4901
 -85.4844
 -85.5638
 -85.5655
 -85.5644
 -85.5649
 -85.5187
 -85.5219
 -85.5226
 -85.5214
 -85.499
 -85.4939
 -85.4988
 -85.4988
 -85.3912
 -85.3859
 -85.3916
 -85.391
 -85.4929
 -85.4898
 -85.4939
 -85.4961
 -85.5491
 -85.5464
 -85.5492
 -85.5452
 -85.4601
 -85.455
 -85.4626
 -85.4606
 -85.4535
 -85.4543
 -85.4507
 -85.4528
 -85.4516
 -85.4481
 -85.449
 -85.45
 -85.4223
 -85.4219
 -85.4219
 -85.4232
 -85.4557
 -85.4507
 -85.4509
 -85.451
 -85.5212
 -85.5207
 -85.5211
 -85.519
 -85.4369
 -85.4382
 -85.4394
 -85.4405
 -85.5611
 -85.5591
 -85.5602
 -85.561
 -85.4387
 -85.4345
 -85.4351
 -85.4382
 -85.5487
 -85.5447
 -85.5486
 -85.5462
 -85.4918
 -85.4888
 -85.489
 -85.491
 -85.4774
 -85.4803
 -85.4817
 -85.4782
 -85.4668
 -85.4671
 -85.4711
 -85.4678
 -85.4605
 -85.4604
 -85.458
 -85.4568
 -85.5712
 -85.5727
 -85.5732
 -85.5732
 -85.4636
 -85.462
 -85.4635
 -85.4623
 -85.5755
 -85.5742
 -85.575
 -85.5732
 -85.534
 -85.5333
 -85.5369
 -85.5343
 -85.4049
 -85.4094
 -85.4086
 -85.4044
 -85.5655
 -85.5649
 -85.5668
 -85.5677
 -85.4484
 -85.4526
 -85.4493
 -85.4462
 -85.4008
 -85.3986
 -85.3977
 -85.4002
 -85.544
 -85.5434
 -85.5421
 -85.5436
 -85.5682
 -85.57
 -85.5689
 -85.5683
 -85.5075
 -85.5087
 -85.5068
 -85.5062
 -85.5396
 -85.5365
 -85.5404
 -85.5375
 -85.4562
 -85.4523
 -85.4543
 -85.4538
 -85.515
 -85.5137
 -85.5152
 -85.5182
 -85.476
 -85.474
 -85.477
 -85.4772
 -85.4435
 -85.4449
 -85.4431
 -85.4429
 -85.4286
 -85.4282
 -85.4279
 -85.4307
 -85.4898
 -85.4885
 -85.4919
 -85.4874
 -85.4992
 -85.4995
 -85.4982
 -85.496
 -85.4543
 -85.4536
 -85.456
 -85.4575
 -85.4538
 -85.4497
 -85.4539
 -85.453
 -85.5245
 -85.5251
 -85.5225
 -85.5226
 -85.5636
 -85.563
 -85.5654
 -85.5657
 -85.5603
 -85.5585
 -85.5606
 -85.5611
 -85.5591
 -85.5561
 -85.5568
 -85.5581
 -85.5269
 -85.5254
 -85.528
 -85.5248
 -85.4534
 -85.4494
 -85.4525
 -85.4513
 -85.4551
 -85.4571
 -85.4581
 -85.4589
 -85.4977
 -85.4968
 -85.4917
 -85.4918
 -85.5341
 -85.5323
 -85.5372
 -85.5355
 -85.5333
 -85.5315
 -85.5323
 -85.5345
 -85.5095
 -85.5068
 -85.5085
 -85.509
 -85.5182
 -85.5208
 -85.5171
 -85.5179
 -85.4303
 -85.4296
 -85.4311
 -85.4344
 -85.3448
 -85.342
 -85.3453
 -85.339
 -85.4618
 -85.4612
 -85.4572
 -85.4594
 -85.3636
 -85.3695
 -85.3679
 -85.4622
 -85.4618
 -85.4637
 -85.4596
 -85.5522
 -85.5504
 -85.5516
 -85.5497
 -85.5063
 -85.5083
 -85.5088
 -85.5112
 -85.5634
 -85.5624
 -85.5651
 -85.5622
 -85.4531
 -85.4537
 -85.4502
 -85.4534
 -85.5291
 -85.528
 -85.5323
 -85.5313
 -85.51
 -85.5102
 -85.5063
 -85.5077
 -85.569
 -85.5701
 -85.5709
 -85.5679
 -85.5465
 -85.546
 -85.5471
 -85.5499
 -85.4619
 -85.4655
 -85.463
 -85.4618
 -85.5288
 -85.5284
 -85.5256
 -85.5288
 -85.5501
 -85.5458
 -85.5483
 -85.5463
 -85.3998
 -85.3943
 -85.3972
 -85.3948
 -85.5045
 -85.5061
 -85.5075
 -85.5079
 -85.5495
 -85.5501
 -85.5517
 -85.5496
 -85.5216
 -85.5244
 -85.5193
 -85.5256
 -85.5463
 -85.5433
 -85.5467
 -85.5463
 -85.4548
 -85.4579
 -85.4598
 -85.4598
 -85.5455
 -85.551
 -85.5456
 -85.55
 -85.4861
 -85.4882
 -85.482
 -85.4855
 -85.4943
 -85.4963
 -85.4984
 -85.4938
 -85.5453
 -85.5451
 -85.5427
 -85.5466
 -85.5755
 -85.5743
 -85.5744
 -85.5754
 -85.4306
 -85.4326
 -85.4341
 -85.4351
 -85.4744
 -85.4769
 -85.479
 -85.4752
 -85.5147
 -85.5128
 -85.5111
 -85.5121
 -85.546
 -85.5478
 -85.5474
 -85.5477
 -85.465
 -85.4625
 -85.4634
 -85.4636
 -85.4361
 -85.4402
 -85.442
 -85.4369
 -85.5316
 -85.5317
 -85.5282
 -85.5282
 -85.5217
 -85.5245
 -85.5217
 -85.5228
 -85.566
 -85.5675
 -85.569
 -85.566
 -85.4452
 -85.4493
 -85.4443
 -85.4479
 -85.5681
 -85.5697
 -85.5694
 -85.5683
 -85.4715
 -85.4758
 -85.4736
 -85.4722
 -85.3492
 -85.3479
 -85.3495
 -85.3514
 -85.5571
 -85.559
 -85.5597
 -85.5589
 -85.5268
 -85.5287
 -85.5254
 -85.5218
 -85.5595
 -85.5596
 -85.5582
 -85.5577
 -85.498
 -85.494
 -85.4969
 -85.4987
 -85.4903
 -85.4925
 -85.4932
 -85.4909
 -85.5412
 -85.5378
 -85.5387
 -85.539
 -85.4531
 -85.4544
 -85.4515
 -85.4537
 -85.4478
 -85.4499
 -85.45
 -85.4488
 -85.3824
 -85.3801
 -85.3804
 -85.3791
 -85.5098
 -85.5124
 -85.5135
 -85.5152
 -85.5001
 -85.4981
 -85.5035
 -85.4999
 -85.5224
 -85.5177
 -85.5205
 -85.5233
 -85.4748
 -85.4793
 -85.4797
 -85.4737
 -85.5638
 -85.5635
 -85.5652
 -85.5616
 -85.5678
 -85.5709
 -85.568
 -85.5672
 -85.5248
 -85.5261
 -85.5292
 -85.5292
 -85.3162
 -85.3157
 -85.3171
 -85.319
 -85.4855
 -85.4835
 -85.4863
 -85.4816
 -85.4883
 -85.4873
 -85.4835
 -85.4873
 -85.4858
 -85.4864
 -85.4823
 -85.4824
 -85.5425
 -85.5413
 -85.5448
 -85.5406
 -85.3945
 -85.3987
 -85.3914
 -85.394
 -85.3723
 -85.373
 -85.368
 -85.3674
 -85.5432
 -85.5409
 -85.5433
 -85.5402
 -85.4679
 -85.4722
 -85.4662
 -85.4718
 -85.4824
 -85.4823
 -85.4835
 -85.4837
 -85.5241
 -85.522
 -85.5214
 -85.5182
 -85.4507
 -85.4524
 -85.4539
 -85.4521
 -85.5471
 -85.5438
 -85.5448
 -85.5466
 -85.4752
 -85.4688
 -85.4724
 -85.4678
 -85.4696
 -85.469
 -85.4659
 -85.4688
 -85.4371
 -85.4346
 -85.4385
 -85.4334
 -85.4847
 -85.4894
 -85.4861
 -85.4897
 -85.552
 -85.5535
 -85.5534
 -85.5514
 -85.5285
 -85.5322
 -85.5333
 -85.5299
 -85.4494
 -85.4486
 -85.4521
 -85.4516
 -85.4635
 -85.4678
 -85.4679
 -85.4635
 -85.5606
 -85.5613
 -85.5627
 -85.5623
 -85.5459
 -85.5439
 -85.5453
 -85.5441
 -85.4886
 -85.4873
 -85.4849
 -85.4872
 -85.4396
 -85.4402
 -85.44
 -85.4411
 -85.411
 -85.4174
 -85.4163
 -85.4119
 -85.5249
 -85.522
 -85.5204
 -85.5237
 -85.4386
 -85.4348
 -85.4383
 -85.4304
 -85.5543
 -85.5514
 -85.5512
 -85.554
 -85.5151
 -85.5196
 -85.517
 -85.5141
 -85.5519
 -85.5512
 -85.5503
 -85.5508
 -85.5319
 -85.5288
 -85.5286
 -85.5304
 -85.4879
 -85.4862
 -85.4877
 -85.4902
 -85.4554
 -85.4501
 -85.4513
 -85.4536
 -85.4173
 -85.4236
 -85.4181
 -85.4184
 -85.4314
 -85.426
 -85.4318
 -85.4305
 -85.4535
 -85.449
 -85.4483
 -85.4499
 -85.4945
 -85.4957
 -85.495
 -85.4897
 -85.4956
 -85.4961
 -85.4972
 -85.4933
 -85.4997
 -85.4964
 -85.5023
 -85.4987
 -85.5264
 -85.5244
 -85.5272
 -85.5268
 -85.3945
 -85.39
 -85.3909
 -85.3906
 -85.5093
 -85.5099
 -85.5084
 -85.5115
 -85.4484
 -85.4443
 -85.446
 -85.4472
 -85.4815
 -85.4857
 -85.483
 -85.4854
 -85.5663
 -85.563
 -85.566
 -85.5653
 -85.4926
 -85.4908
 -85.4909
 -85.4892
 -85.4405
 -85.439
 -85.44
 -85.4359
 -85.4794
 -85.4792
 -85.4816
 -85.4837
 -85.4568
 -85.4591
 -85.4586
 -85.456
 -85.4884
 -85.4843
 -85.4892
 -85.4862
 -85.3974
 -85.3939
 -85.3954
 -85.398
 -85.4834
 -85.4837
 -85.487
 -85.487
 -85.5276
 -85.5266
 -85.5287
 -85.5271
 -85.518
 -85.5183
 -85.5198
 -85.5184
 -85.5603
 -85.5561
 -85.5597
 -85.5577
 -85.4643
 -85.4636
 -85.4667
 -85.4644
 -85.4544
 -85.4569
 -85.4544
 -85.4605
 -85.5582
 -85.555
 -85.5584
 -85.5579
 -85.458
 -85.4577
 -85.4617
 -85.458
 -85.5519
 -85.5508
 -85.5532
 -85.5507
 -85.505
 -85.5098
 -85.5067
 -85.5086
 -85.4953
 -85.4902
 -85.4952
 -85.4959
 -85.4555
 -85.4587
 -85.4579
 -85.4552
 -85.4904
 -85.4901
 -85.4936
 -85.4897
 -85.5536
 -85.5523
 -85.5539
 -85.5539
 -85.3478
 -85.3484
 -85.3494
 -85.3445
 -85.4386
 -85.4381
 -85.4381
 -85.4387
 -85.4376
 -85.438
 -85.4375
 -85.4351
 -85.4685
 -85.4698
 -85.4669
 -85.4717
 -85.4818
 -85.4792
 -85.4815
 -85.4798
 -85.4653
 -85.4634
 -85.4622
 -85.466
 -85.5665
 -85.5653
 -85.5688
 -85.5645
 -85.4534
 -85.4514
 -85.4521
 -85.4558
 -85.5225
 -85.5231
 -85.5244
 -85.5213
 -85.4948
 -85.5448
 -85.5415
 -85.5426
 -85.5425
 -85.5166
 -85.5188
 -85.5209
 -85.5196
 -85.4294
 -85.4323
 -85.4333
 -85.4311
 -85.4722
 -85.4706
 -85.473
 -85.4755
 -85.4595
 -85.4558
 -85.4585
 -85.4596
 -85.5499
 -85.5473
 -85.5475
 -85.5477
 -85.4854
 -85.4797
 -85.4837
 -85.4822
 -85.5531
 -85.5538
 -85.5506
 -85.5505
 -85.5307
 -85.5326
 -85.5297
 -85.5336
 -85.4306
 -85.4325
 -85.4311
 -85.4347
 -85.452
 -85.448
 -85.4548
 -85.4522
 -85.5282
 -85.5303
 -85.5303
 -85.5281
 -85.4908
 -85.4862
 -85.49
 -85.4394
 -85.4371
 -85.4382
 -85.4409
 -85.5236
 -85.5188
 -85.5217
 -85.5187
 -85.4601
 -85.4561
 -85.4562
 -85.4591
 -85.4921
 -85.4866
 -85.4892
 -85.4921
 -85.5584
 -85.5584
 -85.5553
 -85.5581
 -85.4674
 -85.4659
 -85.4642
 -85.4671
 -85.5454
 -85.5425
 -85.5451
 -85.546
 -85.4988
 -85.497
 -85.4992
 -85.4954
 -85.5374
 -85.5358
 -85.5335
 -85.5351
 -85.5562
 -85.5563
 -85.5588
 -85.5575
 -85.4697
 -85.4693
 -85.4718
 -85.4717
 -85.3458
 -85.3534
 -85.3513
 -85.3555
 -85.568
 -85.5664
 -85.5668
 -85.566
 -85.5213
 -85.52
 -85.5179
 -85.5196
 -85.444
 -85.444
 -85.4501
 -85.4452
 -85.4798
 -85.4819
 -85.4831
 -85.4793
 -85.4035
 -85.4048
 -85.405
 -85.4011
 -85.5539
 -85.5552
 -85.5583
 -85.5555
 -85.442
 -85.4405
 -85.4413
 -85.4416
 -85.5072
 -85.5103
 -85.5057
 -85.5081
 -85.4495
 -85.4429
 -85.4477
 -85.4485
 -85.5716
 -85.5711
 -85.5714
 -85.5687
 -85.5706
 -85.5704
 -85.5689
 -85.5678
 -85.5308
 -85.5277
 -85.5269
 -85.5313
 -85.5105
 -85.5117
 -85.5105
 -85.5079
 -85.5116
 -85.4396
 -85.4403
 -85.4354
 -85.4388
 -85.448
 -85.4464
 -85.4454
 -85.4493
 -85.5242
 -85.5274
 -85.5276
 -85.5274
 -85.4451
 -85.4475
 -85.4475
 -85.445
 -85.456
 -85.4553
 -85.4546
 -85.4584
 -85.5287
 -85.5299
 -85.5291
 -85.5263
 -85.4722
 -85.4763
 -85.4722
 -85.4763
 -85.5268
 -85.5272
 -85.5278
 -85.53
 -85.4595
 -85.4589
 -85.4558
 -85.4593
 -85.4695
 -85.4726
 -85.4724
 -85.473
 -85.4868
 -85.4897
 -85.4851
 -85.4891
 -85.5097
 -85.5134
 -85.5109
 -85.5144
 -85.5407
 -85.5393
 -85.5433
 -85.5432
 -85.5047
 -85.5037
 -85.5018
 -85.5021
 -85.5049
 -85.5062
 -85.5075
 -85.5064
 -85.4308
 -85.4307
 -85.4324
 -85.4336
 -85.5223
 -85.5231
 -85.524
 -85.5234
 -85.4961
 -85.497
 -85.4983
 -85.4957
 -85.5023
 -85.5024
 -85.5
 -85.5021
 -85.4752
 -85.4762
 -85.4722
 -85.4745
 -85.4389
 -85.4385
 -85.4404
 -85.4361
 -85.5363
 -85.5364
 -85.5384
 -85.538
 -85.4405
 -85.4376
 -85.4389
 -85.4427
 -85.568
 -85.5678
 -85.5702
 -85.569
 -85.5466
 -85.5445
 -85.5482
 -85.5471
 -85.5485
 -85.5486
 -85.5486
 -85.5477
 -85.5467
 -85.5462
 -85.5456
 -85.5484
 -85.5309
 -85.5321
 -85.5291
 -85.5323
 -85.4105
 -85.4082
 -85.4034
 -85.504
 -85.4996
 -85.5036
 -85.5023
 -85.5432
 -85.5423
 -85.5413
 -85.5434
 -85.4738
 -85.47
 -85.4722
 -85.4734
 -85.4599
 -85.4605
 -85.4587
 -85.4612
 -85.5327
 -85.5332
 -85.5359
 -85.5302
 -85.4852
 -85.484
 -85.4861
 -85.4884
 -85.4632
 -85.4634
 -85.4625
 -85.4615
 -85.5651
 -85.5676
 -85.5184
 -85.5176
 -85.5148
 -85.5146
 -85.488
 -85.4878
 -85.4854
 -85.5094
 -85.5101
 -85.5091
 -85.5068
 -85.417
 -85.4162
 -85.4206
 -85.4202
 -85.5455
 -85.5478
 -85.5475
 -85.545
 -85.5089
 -85.508
 -85.5063
 -85.5065
 -85.4733
 -85.47
 -85.4715
 -85.4743
 -85.501
 -85.4972
 -85.4986
 -85.5
 -85.4439
 -85.4428
 -85.4443
 -85.4436
 -85.4333
 -85.4386
 -85.4348
 -85.4358
 -85.484
 -85.487
 -85.4879
 -85.4859
 -85.4421
 -85.4414
 -85.4418
 -85.4451
 -85.4885
 -85.4867
 -85.4874
 -85.4859
 -85.5489
 -85.5485
 -85.5456
 -85.5451
 -85.4471
 -85.4487
 -85.45
 -85.4485
 -85.3818
 -85.3863
 -85.3816
 -85.3848
 -85.5136
 -85.5078
 -85.5118
 -85.5122
 -85.4802
 -85.4826
 -85.4795
 -85.4828
 -85.4435
 -85.4428
 -85.4457
 -85.4448
 -85.4897
 -85.4873
 -85.4907
 -85.491
 -85.561
 -85.56
 -85.5615
 -85.561
 -85.4567
 -85.4566
 -85.455
 -85.4568
 -85.5161
 -85.5133
 -85.5132
 -85.5127
 -85.4785
 -85.482
 -85.4792
 -85.4844
 -85.5298
 -85.5314
 -85.5309
 -85.5335
 -85.5496
 -85.549
 -85.5506
 -85.5483
 -85.4451
 -85.4478
 -85.4459
 -85.4512
 -85.4667
 -85.4691
 -85.4685
 -85.4678
 -85.5091
 -85.5088
 -85.5046
 -85.5071
 -85.4422
 -85.443
 -85.4429
 -85.4439
 -85.351
 -85.3475
 -85.348
 -85.3503
 -85.5
 -85.4968
 -85.4971
 -85.4961
 -85.3406
 -85.3398
 -85.3405
 -85.3444
 -85.3497
 -85.3556
 -85.3542
 -85.3512
 -85.4183
 -85.4212
 -85.4203
 -85.417
 -85.5216
 -85.5194
 -85.5174
 -85.516
 -85.5206
 -85.5225
 -85.523
 -85.5248
 -85.5251
 -85.5232
 -85.5249
 -85.5216
 -85.5152
 -85.5117
 -85.5126
 -85.5159
 -85.4027
 -85.3994
 -85.4023
 -85.4013
 -85.4485
 -85.4471
 -85.4505
 -85.4491
 -85.4437
 -85.4401
 -85.4415
 -85.4405
 -85.473
 -85.4769
 -85.4733
 -85.4774
 -85.5041
 -85.502
 -85.5043
 -85.5026
 -85.5303
 -85.5294
 -85.5281
 -85.5303
 -85.4525
 -85.4566
 -85.4583
 -85.4543
 -85.522
 -85.4919
 -85.4944
 -85.4948
 -85.4931
 -85.5698
 -85.5705
 -85.5727
 -85.5713
 -85.4844
 -85.4854
 -85.4872
 -85.4849
 -85.555
 -85.5581
 -85.5557
 -85.4468
 -85.4483
 -85.4497
 -85.4462
 -85.3649
 -85.3691
 -85.3671
 -85.3693
 -85.4912
 -85.4912
 -85.4958
 -85.4893
 -85.475
 -85.4701
 -85.4705
 -85.4706
 -85.4424
 -85.4445
 -85.4467
 -85.4479
 -85.4468
 -85.448
 -85.4453
 -85.4485
 -85.4137
 -85.4097
 -85.4124
 -85.4124
 -85.5094
 -85.5085
 -85.5105
 -85.5152
 -85.492
 -85.4959
 -85.4912
 -85.494
 -85.4662
 -85.463
 -85.4665
 -85.4647
 -85.4845
 -85.4822
 -85.4886
 -85.5331
 -85.5316
 -85.5311
 -85.4532
 -85.4539
 -85.4492
 -85.4484
 -85.4225
 -85.4214
 -85.4214
 -85.4223
 -85.4595
 -85.4621
 -85.4616
 -85.4588
 -85.4214
 -85.4176
 -85.4227
 -85.4165
 -85.5393
 -85.5428
 -85.5403
 -85.5413
 -85.5303
 -85.5318
 -85.5326
 -85.5345
 -85.4427
 -85.4417
 -85.4422
 -85.4417
 -85.407
 -85.4012
 -85.4055
 -85.4067
 -85.5003
 -85.4958
 -85.4998
 -85.498
 -85.5636
 -85.561
 -85.5641
 -85.5614
 -85.4194
 -85.4191
 -85.4173
 -85.4193
 -85.5201
 -85.5173
 -85.5167
 -85.5208
 -85.381
 -85.3781
 -85.3808
 -85.3787
 -85.5299
 -85.5313
 -85.5294
 -85.5337
 -85.4757
 -85.4726
 -85.4774
 -85.4717
 -85.5397
 -85.5399
 -85.5422
 -85.5423
 -85.4458
 -85.4468
 -85.4473
 -85.45
 -85.469
 -85.4661
 -85.4664
 -85.4663
 -85.4523
 -85.4509
 -85.455
 -85.4548
 -85.4597
 -85.4584
 -85.4626
 -85.4563
 -85.5003
 -85.5026
 -85.5018
 -85.4987
 -85.483
 -85.4803
 -85.4838
 -85.4837
 -85.5426
 -85.5403
 -85.5381
 -85.5385
 -85.5674
 -85.569
 -85.5654
 -85.5656
 -85.4782
 -85.4777
 -85.4752
 -85.4774
 -85.548
 -85.5468
 -85.5462
 -85.5496
 -85.5262
 -85.53
 -85.5321
 -85.5291
 -85.3973
 -85.3955
 -85.3913
 -85.3971
 -85.4365
 -85.4429
 -85.4412
 -85.4394
 -85.4747
 -85.4723
 -85.4715
 -85.4725
 -85.4145
 -85.4119
 -85.4112
 -85.4088
 -85.5032
 -85.5068
 -85.5064
 -85.5051
 -85.5378
 -85.5431
 -85.5403
 -85.5405
 -85.4171
 -85.4229
 -85.4172
 -85.417
 -85.4858
 -85.4887
 -85.4866
 -85.4873
 -85.4617
 -85.4615
 -85.4616
 -85.4598
 -85.3513
 -85.3551
 -85.3545
 -85.3509
 -85.4719
 -85.4715
 -85.4707
 -85.4743
 -85.494
 -85.4963
 -85.496
 -85.4966
 -85.5286
 -85.5318
 -85.5297
 -85.5326
 -85.4588
 -85.4598
 -85.461
 -85.4935
 -85.4928
 -85.4916
 -85.4932
 -85.4661
 -85.4662
 -85.4704
 -85.4675
 -85.5212
 -85.5183
 -85.5204
 -85.52
 -85.52
 -85.5235
 -85.5232
 -85.522
 -85.5518
 -85.5496
 -85.5511
 -85.5483
 -85.4498
 -85.4507
 -85.4528
 -85.4499
 -85.5616
 -85.5626
 -85.5637
 -85.5621
 -85.4557
 -85.4586
 -85.4563
 -85.4548
 -85.4915
 -85.4953
 -85.495
 -85.4974
 -85.498
 -85.4948
 -85.4952
 -85.4937
 -85.3456
 -85.3414
 -85.3449
 -85.3449
 -85.4636
 -85.4612
 -85.4638
 -85.4643
 -85.4884
 -85.488
 -85.4911
 -85.495
 -85.4865
 -85.4878
 -85.4878
 -85.4841
 -85.5685
 -85.5685
 -85.5663
 -85.5683
 -85.4554
 -85.4587
 -85.4606
 -85.4565
 -85.4613
 -85.4591
 -85.4623
 -85.4583
 -85.5287
 -85.5313
 -85.5289
 -85.5309
 -85.4457
 -85.4449
 -85.4428
 -85.4423
 -85.4441
 -85.4432
 -85.4454
 -85.4431
 -85.5177
 -85.5134
 -85.5175
 -85.5152
 -85.5219
 -85.5215
 -85.519
 -85.5217
 -85.5001
 -85.5002
 -85.5045
 -85.5034
 -85.4583
 -85.4567
 -85.5114
 -85.509
 -85.5134
 -85.5098
 -85.4605
 -85.4624
 -85.4608
 -85.4614
 -85.4798
 -85.4833
 -85.4844
 -85.4827
 -85.5555
 -85.5541
 -85.5529
 -85.5562
 -85.4804
 -85.4814
 -85.4832
 -85.4838
 -85.5342
 -85.5362
 -85.5377
 -85.5331
 -85.4508
 -85.4572
 -85.455
 -85.4568
 -85.4743
 -85.4715
 -85.4706
 -85.4725
 -85.4882
 -85.4937
 -85.4906
 -85.492
 -85.45
 -85.4473
 -85.4461
 -85.4481
 -85.3836
 -85.384
 -85.3825
 -85.3797
 -85.5639
 -85.5636
 -85.563
 -85.5639
 -85.4202
 -85.4193
 -85.4211
 -85.4188
 -85.5054
 -85.5068
 -85.5033
 -85.5035
 -85.3826
 -85.3826
 -85.3862
 -85.3818
 -85.5104
 -85.5132
 -85.5108
 -85.5106
 -85.457
 -85.4564
 -85.4554
 -85.4554
 -85.4569
 -85.4575
 -85.4545
 -85.4562
 -85.4978
 -85.4992
 -85.495
 -85.4978
 -85.5433
 -85.54
 -85.5425
 -85.5395
 -85.4719
 -85.4764
 -85.4754
 -85.4761
 -85.4423
 -85.4412
 -85.4424
 -85.4436
 -85.5416
 -85.5456
 -85.5434
 -85.5463
 -85.4538
 -85.4503
 -85.4553
 -85.4555
 -85.4718
 -85.4756
 -85.4744
 -85.4767
 -85.5271
 -85.5325
 -85.5315
 -85.5294
 -85.4959
 -85.4993
 -85.4998
 -85.4999
 -85.4838
 -85.4816
 -85.4841
 -85.4856
 -85.5549
 -85.5569
 -85.5579
 -85.5586
 -85.5463
 -85.5473
 -85.5473
 -85.5459
 -85.5055
 -85.5056
 -85.5016
 -85.5037
 -85.4836
 -85.4856
 -85.4825
 -85.4894
 -85.464
 -85.4652
 -85.4656
 -85.4704
 -85.4383
 -85.4379
 -85.4357
 -85.5331
 -85.5351
 -85.5339
 -85.5369
 -85.3782
 -85.3752
 -85.372
 -85.372
 -85.5206
 -85.5164
 -85.5186
 -85.5181
 -85.4516
 -85.4476
 -85.4496
 -85.4499
 -85.4455
 -85.4431
 -85.4439
 -85.4436
 -85.5468
 -85.5438
 -85.5455
 -85.5494
 -85.4988
 -85.4964
 -85.4998
 -85.4973
 -85.4848
 -85.4837
 -85.46
 -85.4786
 -85.4823
 -85.478
 -85.4804
 -85.3842
 -85.3872
 -85.5167
 -85.5182
 -85.5197
 -85.4294
 -85.4317
 -85.4265
 -85.4295
 -85.5176
 -85.514
 -85.5151
 -85.5152
 -85.4714
 -85.4749
 -85.4741
 -85.4739
 -85.4588
 -85.4636
 -85.4607
 -85.4607
 -85.5552
 -85.5553
 -85.5587
 -85.5565
 -85.4306
 -85.4338
 -85.4301
 -85.4339
 -85.5145
 -85.5149
 -85.5152
 -85.5173
 -85.5593
 -85.5601
 -85.557
 -85.5573
 -85.4949
 -85.4916
 -85.495
 -85.4925
 -85.5141
 -85.5098
 -85.5117
 -85.5112
 -85.4886
 -85.4917
 -85.4894
 -85.4844
 -85.5711
 -85.5676
 -85.5701
 -85.567
 -85.5684
 -85.5683
 -85.5672
 -85.5659
 -85.5664
 -85.5655
 -85.5652
 -85.5665
 -85.4801
 -85.4769
 -85.4798
 -85.4796
 -85.5053
 -85.5019
 -85.503
 -85.5051
 -85.4821
 -85.4817
 -85.4791
 -85.4811
 -85.4764
 -85.4751
 -85.4798
 -85.4752
 -85.5217
 -85.523
 -85.5236
 -85.5205
 -85.5425
 -85.5462
 -85.5452
 -85.5464
 -85.5411
 -85.5423
 -85.5391
 -85.5433
 -85.4939
 -85.4959
 -85.4932
 -85.4954
 -85.4868
 -85.4862
 -85.4857
 -85.4842
 -85.4555
 -85.4535
 -85.4547
 -85.4582
 -85.5295
 -85.5323
 -85.5321
 -85.5287
 -85.4147
 -85.4147
 -85.4114
 -85.4171
 -85.5368
 -85.5388
 -85.5362
 -85.5353
 -85.5019
 -85.5067
 -85.5013
 -85.5055
 -85.4988
 -85.5008
 -85.4994
 -85.4976
 -85.4316
 -85.4313
 -85.429
 -85.4259
 -85.3306
 -85.3335
 -85.3301
 -85.3307
 -85.4667
 -85.47
 -85.4667
 -85.4677
 -85.5366
 -85.5326
 -85.5341
 -85.5363
 -85.4457
 -85.4431
 -85.4449
 -85.447
 -85.5042
 -85.5058
 -85.5023
 -85.5065
 -85.5094
 -85.5121
 -85.5152
 -85.5138
 -85.5282
 -85.5298
 -85.5255
 -85.5271
 -85.4079
 -85.4049
 -85.4053
 -85.4077
 -85.4116
 -85.4116
 -85.4101
 -85.4098
 -85.5355
 -85.54
 -85.538
 -85.5382
 -85.5227
 -85.5181
 -85.5183
 -85.5213
 -85.4657
 -85.4662
 -85.4643
 -85.4647
 -85.4902
 -85.4887
 -85.4916
 -85.4935
 -85.5014
 -85.5028
 -85.5017
 -85.5009
 -85.4629
 -85.4611
 -85.4658
 -85.4615
 -85.5149
 -85.5131
 -85.5131
 -85.5109
 -85.5783
 -85.5764
 -85.5778
 -85.5781
 -85.507
 -85.5105
 -85.5104
 -85.5127
 -85.4907
 -85.4921
 -85.4895
 -85.4943
 -85.4905
 -85.49
 -85.4871
 -85.4906
 -85.5021
 -85.5039
 -85.5022
 -85.4993
 -85.5628
 -85.5633
 -85.5613
 -85.5628
 -85.543
 -85.5406
 -85.5424
 -85.5129
 -85.5126
 -85.515
 -85.5125
 -85.4424
 -85.4421
 -85.4445
 -85.4419
 -85.4756
 -85.476
 -85.4732
 -85.4769
 -85.541
 -85.537
 -85.5369
 -85.5371
 -85.4557
 -85.4567
 -85.4575
 -85.4589
 -85.4704
 -85.4676
 -85.4673
 -85.471
 -85.4745
 -85.4731
 -85.4687
 -85.4723
 -85.5201
 -85.518
 -85.5173
 -85.517
 -85.5023
 -85.4991
 -85.5029
 -85.4965
 -85.5133
 -85.5072
 -85.5094
 -85.5102
 -85.4484
 -85.4494
 -85.4502
 -85.4487
 -85.4752
 -85.4777
 -85.4785
 -85.4755
 -85.5176
 -85.5152
 -85.5181
 -85.5201
 -85.468
 -85.4695
 -85.4715
 -85.4664
 -85.5072
 -85.5101
 -85.5103
 -85.5082
 -85.4465
 -85.4456
 -85.4472
 -85.4452
 -85.5596
 -85.5603
 -85.5576
 -85.5596
 -85.454
 -85.4513
 -85.4547
 -85.4562
 -85.4483
 -85.4425
 -85.446
 -85.446
 -85.5257
 -85.5256
 -85.5278
 -85.5287
 -85.4551
 -85.4559
 -85.4566
 -85.4561
 -85.511
 -85.5101
 -85.5114
 -85.5081
 -85.4283
 -85.4292
 -85.4246
 -85.4255
 -85.499
 -85.4977
 -85.4986
 -85.5013
 -85.552
 -85.5559
 -85.5524
 -85.5547
 -85.5007
 -85.4961
 -85.4959
 -85.4989
 -85.5284
 -85.5299
 -85.5283
 -85.5284
 -85.5094
 -85.5079
 -85.5088
 -85.511
 -85.5072
 -85.5087
 -85.5093
 -85.5121
 -85.5628
 -85.5628
 -85.5639
 -85.56
 -85.4476
 -85.4462
 -85.4446
 -85.4442
 -85.4501
 -85.4486
 -85.4458
 -85.4485
 -85.5462
 -85.5459
 -85.5444
 -85.5482
 -85.5541
 -85.5556
 -85.5537
 -85.4623
 -85.4612
 -85.4609
 -85.463
 -85.5146
 -85.5179
 -85.5143
 -85.514
 -85.5037
 -85.5051
 -85.5013
 -85.5055
 -85.4458
 -85.4488
 -85.4432
 -85.4459
 -85.5291
 -85.5313
 -85.5305
 -85.5304
 -85.4878
 -85.4838
 -85.4846
 -85.4876
 -85.4986
 -85.4949
 -85.4954
 -85.4945
 -85.532
 -85.5344
 -85.5343
 -85.5337
 -85.4386
 -85.4376
 -85.4389
 -85.4403
 -85.4617
 -85.4576
 -85.459
 -85.4584
 -85.5656
 -85.563
 -85.5654
 -85.5644
 -85.4487
 -85.4483
 -85.4491
 -85.4532
 -85.4406
 -85.4395
 -85.4401
 -85.4402
 -85.4901
 -85.491
 -85.4895
 -85.494
 -85.387
 -85.3885
 -85.3852
 -85.3913
 -85.496
 -85.4967
 -85.4949
 -85.4965
 -85.5352
 -85.5341
 -85.5332
 -85.5325
 -85.5442
 -85.5422
 -85.5433
 -85.4311
 -85.4312
 -85.4333
 -85.4317
 -85.4551
 -85.4585
 -85.454
 -85.4573
 -85.4467
 -85.4456
 -85.4428
 -85.4429
 -85.4604
 -85.4576
 -85.4595
 -85.4589
 -85.5676
 -85.5689
 -85.5698
 -85.5691
 -85.4358
 -85.4361
 -85.4347
 -85.4324
 -85.4536
 -85.4511
 -85.4533
 -85.4574
 -85.5432
 -85.5454
 -85.5434
 -85.5425
 -85.4715
 -85.471
 -85.4734
 -85.4573
 -85.4542
 -85.4575
 -85.5004
 -85.4991
 -85.496
 -85.3928
 -85.3984
 -85.3991
 -85.3947
 -85.4976
 -85.5
 -85.4988
 -85.5011
 -85.4951
 -85.4974
 -85.4927
 -85.493
 -85.5465
 -85.5484
 -85.5457
 -85.5454
 -85.5551
 -85.5546
 -85.5587
 -85.5547
 -85.4435
 -85.4398
 -85.4396
 -85.4462
 -85.5035
 -85.5069
 -85.5073
 -85.5055
 -85.5025
 -85.5053
 -85.5066
 -85.5057
 -85.4851
 -85.4898
 -85.4877
 -85.4905
 -85.4669
 -85.4681
 -85.469
 -85.4639
 -85.5038
 -85.5001
 -85.5031
 -85.5039
 -85.4486
 -85.4496
 -85.4483
 -85.4505
 -85.5527
 -85.5516
 -85.5528
 -85.5533
 -85.4615
 -85.4604
 -85.462
 -85.4645
 -85.5436
 -85.5409
 -85.5427
 -85.542
 -85.5584
 -85.5572
 -85.5548
 -85.5575
 -85.5587
 -85.5581
 -85.5576
 -85.5569
 -85.4542
 -85.4522
 -85.5259
 -85.525
 -85.5232
 -85.5248
 -85.447
 -85.4514
 -85.4497
 -85.448
 -85.5329
 -85.5376
 -85.5364
 -85.5372
 -85.5426
 -85.541
 -85.5442
 -85.5411
 -85.4624
 -85.4654
 -85.4656
 -85.464
 -85.5037
 -85.5038
 -85.5063
 -85.5056
 -85.4598
 -85.4598
 -85.4627
 -85.46
 -85.478
 -85.4778
 -85.4786
 -85.4817
 -85.357
 -85.3635
 -85.3551
 -85.3607
 -85.5502
 -85.5486
 -85.5527
 -85.5499
 -85.4617
 -85.4592
 -85.4628
 -85.4654
 -85.4311
 -85.4284
 -85.4286
 -85.4319
 -85.483
 -85.4811
 -85.4847
 -85.4851
 -85.4299
 -85.4245
 -85.4231
 -85.43
 -85.4815
 -85.4783
 -85.4762
 -85.4802
 -85.5243
 -85.5234
 -85.5266
 -85.5219
 -85.4876
 -85.4852
 -85.4852
 -85.4866
 -85.5472
 -85.5512
 -85.5476
 -85.4833
 -85.4867
 -85.4832
 -85.4864
 -85.3578
 -85.3551
 -85.3554
 -85.3541
 -85.5693
 -85.5697
 -85.5706
 -85.5693
 -85.5022
 -85.5011
 -85.503
 -85.5003
 -85.5346
 -85.5327
 -85.5298
 -85.5334
 -85.4425
 -85.4454
 -85.4379
 -85.4412
 -85.4661
 -85.4691
 -85.4638
 -85.4674
 -85.4668
 -85.4721
 -85.4688
 -85.4718
 -85.5566
 -85.555
 -85.5575
 -85.559
 -85.4719
 -85.4693
 -85.467
 -85.4684
 -85.5665
 -85.5657
 -85.5671
 -85.5645
 -85.5213
 -85.5177
 -85.5179
 -85.5217
 -85.4491
 -85.4499
 -85.4509
 -85.4489
 -85.3843
 -85.3857
 -85.3895
 -85.3833
 -85.4785
 -85.4736
 -85.4764
 -85.4724
 -85.4895
 -85.4898
 -85.4926
 -85.4892
 -85.526
 -85.5264
 -85.5246
 -85.5222
 -85.3624
 -85.3566
 -85.3637
 -85.3616
 -85.4797
 -85.4773
 -85.4816
 -85.4802
 -85.564
 -85.5622
 -85.5617
 -85.5621
 -85.5401
 -85.5423
 -85.5413
 -85.5403
 -85.5389
 -85.5394
 -85.5415
 -85.5382
 -85.5353
 -85.533
 -85.532
 -85.5334
 -85.5397
 -85.5437
 -85.5417
 -85.5412
 -85.5113
 -85.5121
 -85.5115
 -85.5118
 -85.4529
 -85.4585
 -85.4619
 -85.4621
 -85.4606
 -85.5199
 -85.5165
 -85.5178
 -85.5169
 -85.5193
 -85.5201
 -85.5157
 -85.5165
 -85.4223
 -85.4236
 -85.4234
 -85.4223
 -85.5491
 -85.5491
 -85.5479
 -85.5493
 -85.5332
 -85.5356
 -85.539
 -85.537
 -85.4486
 -85.4527
 -85.4523
 -85.4527
 -85.4529
 -85.4519
 -85.4582
 -85.4604
 -85.4593
 -85.4621
 -85.4497
 -85.4457
 -85.4406
 -85.4435
 -85.5185
 -85.5218
 -85.5208
 -85.5186
 -85.5664
 -85.5666
 -85.5659
 -85.5669
 -85.4918
 -85.4898
 -85.4918
 -85.4883
 -85.556
 -85.5519
 -85.55
 -85.5501
 -85.481
 -85.4806
 -85.4788
 -85.4821
 -85.5173
 -85.5149
 -85.513
 -85.5133
 -85.4449
 -85.4441
 -85.4436
 -85.4399
 -85.5049
 -85.508
 -85.5033
 -85.5057
 -85.5096
 -85.5138
 -85.5154
 -85.5104
 -85.4533
 -85.452
 -85.4495
 -85.4509
 -85.4709
 -85.4689
 -85.4749
 -85.4721
 -85.4821
 -85.4817
 -85.4787
 -85.4767
 -85.5045
 -85.5065
 -85.5052
 -85.5062
 -85.4185
 -85.4198
 -85.421
 -85.4246
 -85.5119
 -85.5086
 -85.5108
 -85.5127
 -85.4712
 -85.4673
 -85.4717
 -85.4742
 -85.5249
 -85.5238
 -85.5248
 -85.5223
 -85.5455
 -85.5431
 -85.5452
 -85.5437
 -85.5601
 -85.5588
 -85.5582
 -85.5592
 -85.5547
 -85.5563
 -85.5522
 -85.5685
 -85.5689
 -85.5702
 -85.5707
 -85.5382
 -85.5356
 -85.5324
 -85.5358
 -85.4885
 -85.4877
 -85.4903
 -85.4898
 -85.5568
 -85.5549
 -85.5531
 -85.5563
 -85.4977
 -85.4984
 -85.4964
 -85.4958
 -85.5055
 -85.5074
 -85.5063
 -85.5569
 -85.5586
 -85.5575
 -85.5571
 -85.5512
 -85.5491
 -85.5499
 -85.5009
 -85.4991
 -85.5023
 -85.5034
 -85.4695
 -85.4719
 -85.4693
 -85.4742
 -85.522
 -85.5199
 -85.519
 -85.5185
 -85.5578
 -85.5595
 -85.5584
 -85.5573
 -85.4553
 -85.4547
 -85.4569
 -85.4532
 -85.4878
 -85.487
 -85.4842
 -85.4839
 -85.4918
 -85.4962
 -85.4911
 -85.4921
 -85.5249
 -85.5217
 -85.5241
 -85.5246
 -85.4568
 -85.4543
 -85.4592
 -85.4549
 -85.4439
 -85.4413
 -85.4442
 -85.4428
 -85.4926
 -85.4928
 -85.4922
 -85.4956
 -85.5646
 -85.563
 -85.5629
 -85.5634
 -85.4634
 -85.4597
 -85.4638
 -85.462
 -85.4463
 -85.4492
 -85.4454
 -85.4489
 -85.5117
 -85.5072
 -85.5117
 -85.5114
 -85.4595
 -85.4605
 -85.4584
 -85.4477
 -85.4501
 -85.4493
 -85.5065
 -85.505
 -85.5094
 -85.5059
 -85.4487
 -85.4474
 -85.4453
 -85.4486
 -85.4504
 -85.4468
 -85.4494
 -85.4497
 -85.5122
 -85.5133
 -85.5113
 -85.4489
 -85.4482
 -85.5441
 -85.5444
 -85.549
 -85.5493
 -85.5214
 -85.5259
 -85.5261
 -85.5242
 -85.4186
 -85.4223
 -85.4157
 -85.4231
 -85.3936
 -85.3939
 -85.3904
 -85.3943
 -85.4584
 -85.4522
 -85.456
 -85.4564
 -85.5534
 -85.5532
 -85.5545
 -85.5534
 -85.5174
 -85.5151
 -85.5136
 -85.5151
 -85.4386
 -85.4383
 -85.438
 -85.4378
 -85.4606
 -85.4612
 -85.4627
 -85.4657
 -85.4625
 -85.4628
 -85.4619
 -85.4543
 -85.4568
 -85.4571
 -85.4572
 -85.4568
 -85.4544
 -85.4579
 -85.4586
 -85.4458
 -85.4428
 -85.4453
 -85.4424
 -85.5631
 -85.5644
 -85.5636
 -85.5633
 -85.556
 -85.5583
 -85.5549
 -85.492
 -85.4898
 -85.4923
 -85.4882
 -85.4572
 -85.4526
 -85.4577
 -85.4562
 -85.5699
 -85.5712
 -85.4471
 -85.4453
 -85.4457
 -85.4441
 -85.4991
 -85.5051
 -85.5013
 -85.5034
 -85.5137
 -85.5127
 -85.4491
 -85.4486
 -85.4523
 -85.449
 -85.5587
 -85.56
 -85.5577
 -85.5615
 -85.5666
 -85.5651
 -85.5656
 -85.5686
 -85.4831
 -85.4848
 -85.4831
 -85.4181
 -85.4211
 -85.4192
 -85.4516
 -85.456
 -85.4513
 -85.4524
 -85.5305
 -85.5276
 -85.5326
 -85.5278
 -85.4664
 -85.4631
 -85.4632
 -85.4604
 -85.4643
 -85.4621
 -85.4656
 -85.4613
 -85.5183
 -85.5175
 -85.5196
 -85.5229
 -85.3652
 -85.3666
 -85.3634
 -85.3596
 -85.5276
 -85.5285
 -85.531
 -85.5303
 -85.5302
 -85.5298
 -85.5321
 -85.5336
 -85.4431
 -85.4433
 -85.4391
 -85.4421
 -85.5511
 -85.5522
 -85.5527
 -85.5503
 -85.3567
 -85.3506
 -85.3526
 -85.3482
 -85.5597
 -85.5549
 -85.5552
 -85.5544
 -85.5409
 -85.5388
 -85.4605
 -85.4628
 -85.4618
 -85.4646
 -85.4399
 -85.4369
 -85.4384
 -85.441
 -85.5495
 -85.5516
 -85.551
 -85.5503
 -85.4693
 -85.4707
 -85.4705
 -85.4682
 -85.564
 -85.5624
 -85.5636
 -85.4585
 -85.4554
 -85.4541
 -85.4358
 -85.4392
 -85.4401
 -85.56
 -85.561
 -85.5602
 -85.5593
 -85.4599
 -85.4581
 -85.4581
 -85.458
 -85.5507
 -85.551
 -85.4367
 -85.4387
 -85.4362
 -85.4372
 -85.4954
 -85.4986
 -85.4989
 -85.4956
 -85.4642
 -85.4621
 -85.4762
 -85.4827
 -85.4818
 -85.4779
 -85.4606
 -85.4601
 -85.4605
 -85.4569
 -85.5657
 -85.5686
 -85.5651
 -85.5663
 -85.4422
 -85.441
 -85.4416
 -85.5412
 -85.3595
 -85.3594
 -85.3597
 -85.3574
 -85.5488
 -85.5494
 -85.5509
 -85.5461
 -85.4641
 -85.4644
 -85.4695
 -85.4685
 -85.526
 -85.5246
 -85.525
 -85.5256
 -85.4603
 -85.458
 -85.4565
 -85.4597
 -85.5179
 -85.4223
 -85.4215
 -85.4214
 -85.4226
 -85.5173
 -85.5174
 -85.5163
 -85.5136
 -85.5386
 -85.5402
 -85.5414
 -85.5364
 -85.5388
 -85.5357
 -85.5397
 -85.5501
 -85.5525
 -85.5514
 -85.5512
 -85.443
 -85.4443
 -85.4479
 -85.4461
 -85.5464
 -85.5464
 -85.5461
 -85.5487
 -85.4307
 -85.43
 -85.4311
 -85.4272
 -85.5433
 -85.545
 -85.5461
 -85.5462
 -85.4903
 -85.4884
 -85.4878
 -85.4867
 -85.5248
 -85.5269
 -85.5279
 -85.5286
 -85.5007
 -85.4991
 -85.4979
 -85.4969
 -85.5594
 -85.5558
 -85.5
 -85.4969
 -85.497
 -85.4996
 -85.4209
 -85.4197
 -85.4239
 -85.4195
 -85.4288
 -85.4273
 -85.4333
 -85.4282
 -85.5005
 -85.5035
 -85.5039
 -85.5042
 -85.5297
 -85.5298
 -85.5289
 -85.5329
 -85.5343
 -85.5318
 -85.5332
 -85.5353
 -85.5564
 -85.5533
 -85.5543
 -85.5525
 -85.5352
 -85.5386
 -85.5368
 -85.5348
 -85.4289
 -85.4293
 -85.4315
 -85.427
 -85.4469
 -85.4472
 -85.4462
 -85.4516
 -85.5705
 -85.5692
 -85.5686
 -85.5687
 -85.5061
 -85.5075
 -85.5069
 -85.5117
 -85.4513
 -85.4556
 -85.4513
 -85.4549
 -85.3752
 -85.374
 -85.3801
 -85.3732
 -85.5491
 -85.5506
 -85.5477
 -85.5533
 -85.4557
 -85.4558
 -85.4569
 -85.4592
 -85.4778
 -85.4812
 -85.4758
 -85.4785
 -85.43
 -85.4286
 -85.4296
 -85.4316
 -85.516
 -85.5144
 -85.5159
 -85.5163
 -85.5564
 -85.5566
 -85.5557
 -85.5565
 -85.5094
 -85.5053
 -85.5065
 -85.5056
 -85.483
 -85.4834
 -85.4873
 -85.4855
 -85.4238
 -85.4256
 -85.4271
 -85.4214
 -85.5555
 -85.5211
 -85.5234
 -85.5198
 -85.5231
 -85.477
 -85.4755
 -85.4724
 -85.4735
 -85.5287
 -85.5308
 -85.5303
 -85.5327
 -85.4514
 -85.4495
 -85.4499
 -85.4534
 -85.5156
 -85.5174
 -85.5136
 -85.4195
 -85.424
 -85.4203
 -85.4195
 -85.5417
 -85.5364
 -85.5399
 -85.5382
 -85.4429
 -85.4425
 -85.4445
 -85.4431
 -85.5756
 -85.5749
 -85.5754
 -85.5766
 -85.4569
 -85.4575
 -85.4579
 -85.4574
 -85.3892
 -85.3985
 -85.3977
 -85.3948
 -85.4162
 -85.4158
 -85.4196
 -85.4186
 -85.5704
 -85.5694
 -85.5685
 -85.568
 -85.5614
 -85.5609
 -85.5625
 -85.5629
 -85.4919
 -85.4951
 -85.494
 -85.4951
 -85.4594
 -85.4587
 -85.461
 -85.5007
 -85.5008
 -85.4961
 -85.498
 -85.5209
 -85.5192
 -85.5231
 -85.5231
 -85.4995
 -85.5058
 -85.5037
 -85.5031
 -85.495
 -85.4963
 -85.5012
 -85.4986
 -85.568
 -85.5662
 -85.5664
 -85.5655
 -85.4485
 -85.4476
 -85.4515
 -85.4486
 -85.4166
 -85.4099
 -85.4105
 -85.5289
 -85.5264
 -85.5278
 -85.5266
 -85.5485
 -85.5511
 -85.5491
 -85.5484
 -85.4537
 -85.4523
 -85.4545
 -85.4495
 -85.4501
 -85.4514
 -85.4473
 -85.5525
 -85.551
 -85.5535
 -85.5494
 -85.4871
 -85.4866
 -85.4894
 -85.4869
 -85.4506
 -85.4468
 -85.4499
 -85.4501
 -85.4771
 -85.4752
 -85.4755
 -85.4779
 -85.5425
 -85.5421
 -85.5397
 -85.5421
 -85.4518
 -85.4565
 -85.4493
 -85.4557
 -85.4804
 -85.4753
 -85.477
 -85.4785
 -85.4643
 -85.4673
 -85.4648
 -85.5613
 -85.5608
 -85.559
 -85.5597
 -85.4877
 -85.4884
 -85.4858
 -85.4895
 -85.5706
 -85.57
 -85.5731
 -85.4988
 -85.5003
 -85.4999
 -85.4987
 -85.4234
 -85.4264
 -85.4214
 -85.4228
 -85.5096
 -85.5105
 -85.5128
 -85.5154
 -85.4932
 -85.4976
 -85.492
 -85.4551
 -85.4563
 -85.4593
 -85.4568
 -85.4415
 -85.4423
 -85.4407
 -85.4429
 -85.4548
 -85.4563
 -85.4586
 -85.4541
 -85.3863
 -85.3864
 -85.3919
 -85.3923
 -85.471
 -85.47
 -85.4684
 -85.4683
 -85.4647
 -85.4635
 -85.4682
 -85.4627
 -85.5536
 -85.5503
 -85.5509
 -85.5551
 -85.4366
 -85.4412
 -85.4398
 -85.4387
 -85.5187
 -85.5171
 -85.5195
 -85.5204
 -85.5631
 -85.5635
 -85.562
 -85.5609
 -85.564
 -85.5609
 -85.5624
 -85.5635
 -85.5391
 -85.5412
 -85.539
 -85.5405
 -85.5654
 -85.568
 -85.5678
 -85.5636
 -85.5553
 -85.5559
 -85.5556
 -85.5708
 -85.5672
 -85.5684
 -85.5683
 -85.4304
 -85.4286
 -85.4301
 -85.4275
 -85.4763
 -85.473
 -85.4714
 -85.4735
 -85.4653
 -85.4694
 -85.4665
 -85.4698
 -85.4713
 -85.4697
 -85.4692
 -85.4683
 -85.5586
 -85.5563
 -85.5579
 -85.5586
 -85.4763
 -85.4766
 -85.4735
 -85.4721
 -85.4552
 -85.4513
 -85.4513
 -85.4539
 -85.523
 -85.5221
 -85.5255
 -85.5212
 -85.4579
 -85.4616
 -85.4578
 -85.4601
 -85.5304
 -85.5281
 -85.5277
 -85.5001
 -85.5037
 -85.5037
 -85.5509
 -85.5482
 -85.5491
 -85.5495
 -85.4773
 -85.4787
 -85.4762
 -85.4762
 -85.516
 -85.5133
 -85.514
 -85.5165
 -85.4696
 -85.4652
 -85.4675
 -85.4704
 -85.5712
 -85.5701
 -85.5637
 -85.5626
 -85.5616
 -85.5643
 -85.4256
 -85.4247
 -85.4249
 -85.4232
 -85.5173
 -85.52
 -85.5204
 -85.5224
 -85.4547
 -85.4591
 -85.4559
 -85.4531
 -85.3409
 -85.3319
 -85.34
 -85.3372
 -85.4581
 -85.457
 -85.4549
 -85.4567
 -85.5289
 -85.526
 -85.5285
 -85.4374
 -85.4368
 -85.4409
 -85.4406
 -85.5618
 -85.5594
 -85.5625
 -85.5603
 -85.4592
 -85.4605
 -85.4593
 -85.4607
 -85.5156
 -85.5185
 -85.5168
 -85.516
 -85.4251
 -85.4268
 -85.4227
 -85.4256
 -85.3736
 -85.3726
 -85.3758
 -85.3769
 -85.452
 -85.4545
 -85.4517
 -85.451
 -85.473
 -85.4716
 -85.4742
 -85.5034
 -85.4987
 -85.5042
 -85.5021
 -85.4442
 -85.4441
 -85.44
 -85.5308
 -85.5298
 -85.5316
 -85.5335
 -85.5397
 -85.544
 -85.54
 -85.5437
 -85.526
 -85.5232
 -85.5257
 -85.526
 -85.5598
 -85.5544
 -85.5565
 -85.5571
 -85.5368
 -85.5342
 -85.5356
 -85.4629
 -85.4653
 -85.4649
 -85.4666
 -85.5331
 -85.5304
 -85.5213
 -85.5179
 -85.5169
 -85.52
 -85.5287
 -85.5274
 -85.5277
 -85.5297
 -85.4535
 -85.4554
 -85.4545
 -85.4511
 -85.4561
 -85.4585
 -85.4559
 -85.4583
 -85.3434
 -85.3467
 -85.3477
 -85.3452
 -85.4556
 -85.4578
 -85.4556
 -85.4638
 -85.4623
 -85.4617
 -85.4628
 -85.4925
 -85.4923
 -85.4904
 -85.4897
 -85.4641
 -85.4678
 -85.4681
 -85.4657
 -85.4257
 -85.428
 -85.4256
 -85.4251
 -85.54
 -85.5366
 -85.5397
 -85.537
 -85.4905
 -85.4929
 -85.49
 -85.4881
 -85.559
 -85.5592
 -85.5582
 -85.5595
 -85.5072
 -85.5042
 -85.507
 -85.5052
 -85.5567
 -85.5578
 -85.557
 -85.3818
 -85.3862
 -85.3841
 -85.385
 -85.5266
 -85.531
 -85.5273
 -85.5277
 -85.482
 -85.4789
 -85.4825
 -85.4809
 -85.4475
 -85.4453
 -85.4683
 -85.4688
 -85.4706
 -85.4697
 -85.4801
 -85.4764
 -85.4776
 -85.5523
 -85.5531
 -85.5511
 -85.5528
 -85.5534
 -85.5519
 -85.5498
 -85.5511
 -85.448
 -85.4468
 -85.4486
 -85.4474
 -85.4879
 -85.4864
 -85.4581
 -85.4617
 -85.4595
 -85.4566
 -85.5339
 -85.5321
 -85.5364
 -85.5364
 -85.4221
 -85.4217
 -85.4215
 -85.4229
 -85.452
 -85.4535
 -85.4507
 -85.4505
 -85.4579
 -85.4612
 -85.4628
 -85.4612
 -85.4979
 -85.4971
 -85.4979
 -85.502
 -85.5315
 -85.5309
 -85.5291
 -85.5293
 -85.5367
 -85.5336
 -85.5316
 -85.5347
 -85.3621
 -85.3613
 -85.36
 -85.3582
 -85.4386
 -85.4416
 -85.4428
 -85.504
 -85.4986
 -85.5017
 -85.5081
 -85.5114
 -85.508
 -85.5115
 -85.5571
 -85.5585
 -85.5574
 -85.5595
 -85.4872
 -85.4564
 -85.4561
 -85.4523
 -85.4537
 -85.5176
 -85.5156
 -85.5128
 -85.5144
 -85.5389
 -85.5358
 -85.5365
 -85.5396
 -85.5489
 -85.5496
 -85.4484
 -85.4473
 -85.4457
 -85.4452
 -85.4938
 -85.4966
 -85.4954
 -85.4972
 -85.4398
 -85.4389
 -85.4396
 -85.4406
 -85.5092
 -85.4725
 -85.47
 -85.4757
 -85.4771
 -85.4658
 -85.4682
 -85.4693
 -85.4675
 -85.5583
 -85.5551
 -85.5621
 -85.5638
 -85.5641
 -85.5629
 -85.4008
 -85.3986
 -85.3996
 -85.4014
 -85.5356
 -85.5363
 -85.5328
 -85.5377
 -85.5093
 -85.505
 -85.5062
 -85.5096
 -85.3706
 -85.3721
 -85.3721
 -85.3692
 -85.4925
 -85.4927
 -85.4943
 -85.4907
 -85.4899
 -85.486
 -85.4841
 -85.4849
 -85.445
 -85.4411
 -85.4455
 -85.444
 -85.5694
 -85.5709
 -85.5711
 -85.5712
 -85.4859
 -85.4824
 -85.4829
 -85.4611
 -85.4648
 -85.4646
 -85.4614
 -85.5649
 -85.5682
 -85.566
 -85.5665
 -85.4613
 -85.4593
 -85.4562
 -85.4627
 -85.4808
 -85.4832
 -85.5433
 -85.5438
 -85.5459
 -85.5412
 -85.5035
 -85.5036
 -85.5075
 -85.5069
 -85.5611
 -85.5594
 -85.5615
 -85.5607
 -85.4846
 -85.4897
 -85.4539
 -85.4553
 -85.4561
 -85.4558
 -85.4617
 -85.4618
 -85.4639
 -85.4651
 -85.5466
 -85.5464
 -85.5432
 -85.5442
 -85.5388
 -85.5378
 -85.5396
 -85.5399
 -85.5338
 -85.5298
 -85.5336
 -85.532
 -85.4649
 -85.469
 -85.4672
 -85.4648
 -85.402
 -85.3995
 -85.4013
 -85.4021
 -85.5648
 -85.5669
 -85.5648
 -85.5658
 -85.4435
 -85.4441
 -85.4447
 -85.4468
 -85.5007
 -85.5028
 -85.5043
 -85.5009
 -85.4694
 -85.4752
 -85.4713
 -85.4732
 -85.5
 -85.4961
 -85.4993
 -85.5153
 -85.519
 -85.5152
 -85.5191
 -85.4925
 -85.4953
 -85.4932
 -85.491
 -85.5271
 -85.5281
 -85.5307
 -85.5263
 -85.5268
 -85.526
 -85.5273
 -85.5226
 -85.369
 -85.3764
 -85.3697
 -85.4253
 -85.4297
 -85.431
 -85.4294
 -85.4999
 -85.4974
 -85.4984
 -85.4982
 -85.5444
 -85.5467
 -85.5451
 -85.5474
 -85.4542
 -85.45
 -85.4541
 -85.4598
 -85.4615
 -85.4616
 -85.5113
 -85.51
 -85.5124
 -85.5124
 -85.4988
 -85.5014
 -85.5029
 -85.5032
 -85.5773
 -85.5771
 -85.5763
 -85.5776
 -85.4158
 -85.4171
 -85.4146
 -85.4094
 -85.532
 -85.5337
 -85.4743
 -85.4784
 -85.4783
 -85.4752
 -85.5247
 -85.5264
 -85.5263
 -85.5271
 -85.5064
 -85.5074
 -85.5097
 -85.5078
 -85.4794
 -85.479
 -85.4823
 -85.4767
 -85.5213
 -85.5241
 -85.5229
 -85.5237
 -85.4484
 -85.4494
 -85.4496
 -85.4518
 -85.436
 -85.4339
 -85.4365
 -85.4352
 -85.5405
 -85.5416
 -85.5446
 -85.5478
 -85.4989
 -85.501
 -85.5034
 -85.3922
 -85.391
 -85.3936
 -85.5483
 -85.5503
 -85.5507
 -85.5513
 -85.5531
 -85.5522
 -85.5508
 -85.5502
 -85.4926
 -85.4936
 -85.4948
 -85.496
 -85.5574
 -85.5589
 -85.5588
 -85.5586
 -85.5605
 -85.5632
 -85.561
 -85.5637
 -85.4791
 -85.4807
 -85.4834
 -85.48
 -85.5368
 -85.5382
 -85.5395
 -85.5392
 -85.5761
 -85.5763
 -85.5754
 -85.577
 -85.5361
 -85.5358
 -85.5343
 -85.5381
 -85.5019
 -85.4979
 -85.4995
 -85.4962
 -85.5459
 -85.5465
 -85.5446
 -85.5438
 -85.5267
 -85.5258
 -85.5282
 -85.5122
 -85.515
 -85.4046
 -85.4061
 -85.4037
 -85.4025
 -85.5104
 -85.5138
 -85.5126
 -85.5125
 -85.4081
 -85.4092
 -85.4098
 -85.4102
 -85.4078
 -85.4065
 -85.4117
 -85.4117
 -85.5045
 -85.5064
 -85.5065
 -85.5037
 -85.4738
 -85.474
 -85.471
 -85.4748
 -85.5163
 -85.5198
 -85.5188
 -85.5185
 -85.4963
 -85.4939
 -85.4312
 -85.4296
 -85.4305
 -85.4329
 -85.5647
 -85.5658
 -85.5666
 -85.5656
 -85.475
 -85.473
 -85.4784
 -85.4758
 -85.5456
 -85.5445
 -85.5425
 -85.5445
 -85.432
 -85.4289
 -85.4315
 -85.43
 -85.5538
 -85.5569
 -85.5562
 -85.5565
 -85.5107
 -85.5068
 -85.5101
 -85.51
 -85.4563
 -85.4523
 -85.4496
 -85.4517
 -85.5757
 -85.5752
 -85.5752
 -85.5743
 -85.4664
 -85.4697
 -85.4669
 -85.4666
 -85.4787
 -85.474
 -85.4775
 -85.4745
 -85.5668
 -85.5672
 -85.5654
 -85.5679
 -85.4924
 -85.4875
 -85.4894
 -85.4894
 -85.5477
 -85.5495
 -85.5481
 -85.5475
 -85.5445
 -85.5424
 -85.5431
 -85.4817
 -85.4764
 -85.4781
 -85.4784
 -85.5449
 -85.5471
 -85.5455
 -85.5464
 -85.4459
 -85.449
 -85.4485
 -85.4458
 -85.5524
 -85.5539
 -85.5539
 -85.5529
 -85.5511
 -85.5501
 -85.5514
 -85.5505
 -85.45
 -85.4491
 -85.4548
 -85.4518
 -85.4541
 -85.4535
 -85.4564
 -85.4521
 -85.3215
 -85.3226
 -85.3192
 -85.3204
 -85.5337
 -85.5304
 -85.5307
 -85.4085
 -85.4134
 -85.4145
 -85.4113
 -85.5625
 -85.5603
 -85.5609
 -85.561
 -85.4477
 -85.5469
 -85.5438
 -85.5442
 -85.5462
 -85.5473
 -85.5442
 -85.545
 -85.3587
 -85.3549
 -85.3568
 -85.3583
 -85.3489
 -85.3512
 -85.3492
 -85.3477
 -85.5598
 -85.5573
 -85.5591
 -85.5609
 -85.4538
 -85.4524
 -85.4551
 -85.4517
 -85.5254
 -85.5244
 -85.5273
 -85.4688
 -85.4659
 -85.4687
 -85.4646
 -85.4821
 -85.4823
 -85.4818
 -85.5458
 -85.545
 -85.5487
 -85.5099
 -85.5128
 -85.5127
 -85.5101
 -85.4705
 -85.4667
 -85.467
 -85.4697
 -85.4518
 -85.4532
 -85.4514
 -85.4528
 -85.5259
 -85.528
 -85.5283
 -85.4274
 -85.4299
 -85.424
 -85.4235
 -85.4516
 -85.4573
 -85.4527
 -85.4781
 -85.484
 -85.4823
 -85.4807
 -85.4431
 -85.4465
 -85.4468
 -85.4454
 -85.4522
 -85.4558
 -85.4567
 -85.4555
 -85.5479
 -85.5456
 -85.5462
 -85.5458
 -85.4863
 -85.4834
 -85.485
 -85.4873
 -85.4615
 -85.4618
 -85.5013
 -85.4992
 -85.5004
 -85.4971
 -85.5556
 -85.5633
 -85.564
 -85.5637
 -85.5633
 -85.3147
 -85.3139
 -85.3137
 -85.3149
 -85.5407
 -85.5437
 -85.5415
 -85.5709
 -85.5706
 -85.5696
 -85.5707
 -85.5345
 -85.5307
 -85.5322
 -85.5311
 -85.4501
 -85.4512
 -85.453
 -85.4503
 -85.4834
 -85.4808
 -85.4803
 -85.479
 -85.5725
 -85.5725
 -85.5721
 -85.5716
 -85.5337
 -85.5313
 -85.5295
 -85.5319
 -85.4254
 -85.4224
 -85.4219
 -85.4277
 -85.4786
 -85.4785
 -85.4794
 -85.4738
 -85.4754
 -85.4771
 -85.4785
 -85.4755
 -85.315
 -85.3144
 -85.3143
 -85.3153
 -85.4456
 -85.445
 -85.4443
 -85.4467
 -85.5343
 -85.5382
 -85.5348
 -85.5363
 -85.5119
 -85.5116
 -85.515
 -85.5108
 -85.4875
 -85.4893
 -85.4926
 -85.4894
 -85.5291
 -85.5324
 -85.531
 -85.5314
 -85.5124
 -85.5129
 -85.5157
 -85.5123
 -85.5299
 -85.5294
 -85.5277
 -85.5328
 -85.5758
 -85.5733
 -85.5738
 -85.5762
 -85.5395
 -85.5375
 -85.537
 -85.5329
 -85.5265
 -85.524
 -85.5227
 -85.5262
 -85.5235
 -85.501
 -85.5007
 -85.4985
 -85.5042
 -85.5639
 -85.5632
 -85.5626
 -85.5625
 -85.4868
 -85.4843
 -85.4874
 -85.4862
 -85.5102
 -85.5116
 -85.5132
 -85.508
 -85.4957
 -85.4918
 -85.4947
 -85.4977
 -85.4696
 -85.4644
 -85.4686
 -85.4653
 -85.3822
 -85.3841
 -85.3901
 -85.383
 -85.5774
 -85.5751
 -85.5212
 -85.5192
 -85.5192
 -85.3312
 -85.3316
 -85.3319
 -85.458
 -85.4552
 -85.4568
 -85.4539
 -85.4057
 -85.4072
 -85.4007
 -85.3999
 -85.4387
 -85.4368
 -85.4396
 -85.434
 -85.563
 -85.5594
 -85.5613
 -85.5612
 -85.5026
 -85.4991
 -85.5
 -85.4986
 -85.5241
 -85.5279
 -85.5273
 -85.5303
 -85.5116
 -85.5118
 -85.5086
 -85.5073
 -85.5315
 -85.5323
 -85.5301
 -85.5305
 -85.4905
 -85.4901
 -85.5462
 -85.5399
 -85.5463
 -85.541
 -85.5314
 -85.5294
 -85.5278
 -85.533
 -85.4564
 -85.4526
 -85.457
 -85.4533
 -85.4583
 -85.4594
 -85.4593
 -85.4597
 -85.5087
 -85.5088
 -85.5078
 -85.5102
 -85.5026
 -85.5041
 -85.5064
 -85.5085
 -85.4396
 -85.4348
 -85.4343
 -85.4396
 -85.528
 -85.5261
 -85.5252
 -85.5245
 -85.5734
 -85.5723
 -85.573
 -85.5726
 -85.5499
 -85.5484
 -85.5489
 -85.5478
 -85.5759
 -85.5767
 -85.5754
 -85.577
 -85.554
 -85.5563
 -85.5555
 -85.5558
 -85.4993
 -85.5035
 -85.4994
 -85.5004
 -85.527
 -85.5243
 -85.4925
 -85.4965
 -85.4915
 -85.4942
 -85.4573
 -85.4598
 -85.46
 -85.461
 -85.5387
 -85.5416
 -85.5418
 -85.5391
 -85.491
 -85.4896
 -85.4912
 -85.4875
 -85.4796
 -85.4768
 -85.4759
 -85.4775
 -85.4504
 -85.451
 -85.4528
 -85.4545
 -85.4621
 -85.4608
 -85.4597
 -85.465
 -85.4508
 -85.4527
 -85.454
 -85.4519
 -85.3901
 -85.3914
 -85.3888
 -85.3891
 -85.5356
 -85.5367
 -85.5333
 -85.5359
 -85.5225
 -85.5234
 -85.3954
 -85.3988
 -85.3982
 -85.393
 -85.4679
 -85.4687
 -85.5191
 -85.517
 -85.5194
 -85.55
 -85.55
 -85.4452
 -85.445
 -85.4436
 -85.4468
 -85.3953
 -85.3982
 -85.3981
 -85.3989
 -85.437
 -85.4383
 -85.4406
 -85.4417
 -85.467
 -85.4689
 -85.4701
 -85.4709
 -85.5133
 -85.5094
 -85.5093
 -85.5098
 -85.5231
 -85.5217
 -85.5214
 -85.5207
 -85.4658
 -85.4696
 -85.4695
 -85.4686
 -85.5105
 -85.51
 -85.5114
 -85.5067
 -85.4974
 -85.4949
 -85.4943
 -85.4961
 -85.503
 -85.5056
 -85.5073
 -85.5058
 -85.505
 -85.501
 -85.5057
 -85.4918
 -85.4896
 -85.4947
 -85.4926
 -85.4728
 -85.4742
 -85.4706
 -85.4717
 -85.4534
 -85.4563
 -85.4519
 -85.4558
 -85.5625
 -85.5619
 -85.5633
 -85.5645
 -85.4857
 -85.4855
 -85.4889
 -85.489
 -85.4351
 -85.4345
 -85.4309
 -85.4339
 -85.4258
 -85.4253
 -85.4249
 -85.4235
 -85.4412
 -85.4395
 -85.4396
 -85.4404
 -85.45
 -85.4498
 -85.4538
 -85.4544
 -85.4535
 -85.4514
 -85.4505
 -85.4519
 -85.56
 -85.5613
 -85.561
 -85.5614
 -85.4809
 -85.4808
 -85.48
 -85.4835
 -85.5333
 -85.5344
 -85.5325
 -85.5315
 -85.4535
 -85.4572
 -85.452
 -85.4558
 -85.5646
 -85.5658
 -85.5654
 -85.5676
 -85.568
 -85.5679
 -85.5694
 -85.5292
 -85.5229
 -85.525
 -85.5254
 -85.461
 -85.4622
 -85.4587
 -85.4611
 -85.5728
 -85.5706
 -85.5712
 -85.4773
 -85.4742
 -85.4762
 -85.4714
 -85.5536
 -85.5541
 -85.5494
 -85.5503
 -85.5528
 -85.5497
 -85.4715
 -85.469
 -85.4703
 -85.4265
 -85.4279
 -85.4234
 -85.4252
 -85.452
 -85.4493
 -85.4528
 -85.4533
 -85.497
 -85.5008
 -85.4964
 -85.5651
 -85.5613
 -85.5618
 -85.5304
 -85.5276
 -85.5261
 -85.528
 -85.566
 -85.5662
 -85.5629
 -85.5683
 -85.482
 -85.4856
 -85.4873
 -85.4845
 -85.5528
 -85.5536
 -85.555
 -85.5509
 -85.4988
 -85.4995
 -85.497
 -85.4958
 -85.463
 -85.4599
 -85.4618
 -85.5713
 -85.5694
 -85.5703
 -85.573
 -85.5233
 -85.5115
 -85.5152
 -85.5145
 -85.5125
 -85.515
 -85.5151
 -85.5126
 -85.4604
 -85.4587
 -85.4583
 -85.4581
 -85.4579
 -85.462
 -85.4846
 -85.4808
 -85.4803
 -85.4793
 -85.4796
 -85.4838
 -85.4805
 -85.4828
 -85.5284
 -85.5734
 -85.5707
 -85.57
 -85.572
 -85.368
 -85.3629
 -85.3673
 -85.3673
 -85.4702
 -85.4676
 -85.4613
 -85.46
 -85.4614
 -85.4622
 -85.4579
 -85.4583
 -85.4542
 -85.4557
 -85.5328
 -85.5295
 -85.5303
 -85.5319
 -85.5361
 -85.538
 -85.5342
 -85.5364
 -85.4624
 -85.4593
 -85.5252
 -85.525
 -85.5291
 -85.5265
 -85.5283
 -85.5312
 -85.5282
 -85.5068
 -85.5047
 -85.5029
 -85.5016
 -85.4861
 -85.4828
 -85.4854
 -85.4829
 -85.534
 -85.5376
 -85.5371
 -85.5348
 -85.5436
 -85.5448
 -85.5465
 -85.5442
 -85.5378
 -85.541
 -85.5385
 -85.5361
 -85.5372
 -85.5365
 -85.5338
 -85.4843
 -85.4854
 -85.4854
 -85.4829
 -85.4152
 -85.4154
 -85.4175
 -85.4176
 -85.4746
 -85.4738
 -85.4723
 -85.4731
 -85.5429
 -85.5404
 -85.5386
 -85.5413
 -85.5238
 -85.5231
 -85.5225
 -85.526
 -85.4736
 -85.4758
 -85.4766
 -85.4774
 -85.5245
 -85.5211
 -85.5231
 -85.5242
 -85.505
 -85.5063
 -85.5007
 -85.5058
 -85.5069
 -85.5102
 -85.5091
 -85.5096
 -85.5236
 -85.525
 -85.5253
 -85.563
 -85.5633
 -85.5623
 -85.5628
 -85.4731
 -85.4764
 -85.4747
 -85.4757
 -85.4943
 -85.498
 -85.4972
 -85.4961
 -85.4149
 -85.412
 -85.4125
 -85.4164
 -85.4497
 -85.4522
 -85.452
 -85.4499
 -85.4551
 -85.4491
 -85.4516
 -85.4485
 -85.4492
 -85.4507
 -85.4503
 -85.4516
 -85.5036
 -85.5014
 -85.5025
 -85.438
 -85.4376
 -85.439
 -85.4394
 -85.4433
 -85.4447
 -85.4477
 -85.4431
 -85.5707
 -85.5691
 -85.5688
 -85.5699
 -85.5062
 -85.5041
 -85.5035
 -85.5021
 -85.5457
 -85.546
 -85.5448
 -85.543
 -85.5124
 -85.5138
 -85.5114
 -85.5095
 -85.5227
 -85.5252
 -85.523
 -85.5238
 -85.4586
 -85.4555
 -85.4573
 -85.4529
 -85.4937
 -85.5002
 -85.4955
 -85.4959
 -85.5447
 -85.5462
 -85.5437
 -85.5446
 -85.5155
 -85.5144
 -85.5182
 -85.517
 -85.4446
 -85.4434
 -85.4479
 -85.4486
 -85.5623
 -85.5632
 -85.5627
 -85.5634
 -85.4747
 -85.4715
 -85.4426
 -85.495
 -85.4967
 -85.4986
 -85.494
 -85.4858
 -85.4884
 -85.4846
 -85.4844
 -85.4018
 -85.4011
 -85.4058
 -85.4696
 -85.4666
 -85.4656
 -85.4638
 -85.5127
 -85.5182
 -85.5161
 -85.5187
 -85.4977
 -85.5006
 -85.4989
 -85.4978
 -85.557
 -85.558
 -85.5582
 -85.5575
 -85.4523
 -85.4571
 -85.4536
 -85.4566
 -85.4563
 -85.4556
 -85.4601
 -85.4055
 -85.3999
 -85.4025
 -85.4058
 -85.4505
 -85.4543
 -85.4519
 -85.5102
 -85.5169
 -85.5112
 -85.4497
 -85.4495
 -85.4469
 -85.4482
 -85.4857
 -85.4892
 -85.4901
 -85.4895
 -85.3154
 -85.3155
 -85.3153
 -85.3175
 -85.4828
 -85.4813
 -85.4821
 -85.4347
 -85.4343
 -85.4348
 -85.435
 -85.4819
 -85.4803
 -85.4768
 -85.48
 -85.4475
 -85.4504
 -85.4502
 -85.4515
 -85.5259
 -85.5271
 -85.5252
 -85.528
 -85.5344
 -85.5322
 -85.5344
 -85.5355
 -85.568
 -85.568
 -85.5689
 -85.567
 -85.5077
 -85.5036
 -85.5074
 -85.5085
 -85.4456
 -85.4429
 -85.4452
 -85.4437
 -85.4606
 -85.4589
 -85.4224
 -85.4222
 -85.424
 -85.4236
 -85.4897
 -85.4911
 -85.4694
 -85.4746
 -85.4736
 -85.4568
 -85.4586
 -85.4603
 -85.458
 -85.5615
 -85.562
 -85.5587
 -85.5592
 -85.5594
 -85.5586
 -85.5575
 -85.5587
 -85.4585
 -85.4601
 -85.4581
 -85.4547
 -85.4382
 -85.4389
 -85.5134
 -85.5139
 -85.513
 -85.5162
 -85.4559
 -85.4541
 -85.4574
 -85.4568
 -85.4744
 -85.4699
 -85.4776
 -85.5763
 -85.5768
 -85.5755
 -85.4978
 -85.5019
 -85.4999
 -85.5004
 -85.5513
 -85.5542
 -85.5506
 -85.5495
 -85.5027
 -85.5059
 -85.5065
 -85.5025
 -85.5331
 -85.5358
 -85.5361
 -85.5317
 -85.4449
 -85.4474
 -85.4454
 -85.4442
 -85.4522
 -85.4568
 -85.4508
 -85.4554
 -85.5045
 -85.5011
 -85.5069
 -85.5029
 -85.471
 -85.4752
 -85.4762
 -85.4706
 -85.4426
 -85.4436
 -85.4453
 -85.4483
 -85.4862
 -85.4879
 -85.4902
 -85.4919
 -85.5205
 -85.5212
 -85.519
 -85.5024
 -85.5054
 -85.5034
 -85.5054
 -85.3386
 -85.3444
 -85.3458
 -85.3427
 -85.4389
 -85.4387
 -85.4393
 -85.439
 -85.4693
 -85.4685
 -85.4691
 -85.4725
 -85.3931
 -85.3963
 -85.3905
 -85.3944
 -85.5508
 -85.5503
 -85.5484
 -85.5698
 -85.5685
 -85.5672
 -85.5684
 -85.5377
 -85.5426
 -85.5404
 -85.5405
 -85.5013
 -85.5197
 -85.5233
 -85.5247
 -85.5221
 -85.494
 -85.4965
 -85.4923
 -85.4926
 -85.4348
 -85.4306
 -85.4331
 -85.4555
 -85.4569
 -85.4579
 -85.4527
 -85.3431
 -85.3378
 -85.3426
 -85.3351
 -85.4025
 -85.4022
 -85.4044
 -85.4017
 -85.4667
 -85.4665
 -85.4689
 -85.4713
 -85.5722
 -85.5696
 -85.5704
 -85.5699
 -85.3552
 -85.3542
 -85.3596
 -85.3569
 -85.5296
 -85.5319
 -85.5276
 -85.5302
 -85.5026
 -85.503
 -85.5062
 -85.5032
 -85.4589
 -85.4529
 -85.4526
 -85.4894
 -85.4855
 -85.4846
 -85.4846
 -85.5701
 -85.5705
 -85.5711
 -85.4378
 -85.4439
 -85.4449
 -85.4847
 -85.487
 -85.4904
 -85.4898
 -85.4677
 -85.4669
 -85.4662
 -85.4649
 -85.4721
 -85.4715
 -85.4752
 -85.4761
 -85.4339
 -85.4315
 -85.4316
 -85.4357
 -85.4896
 -85.4919
 -85.4882
 -85.4926
 -85.5621
 -85.5581
 -85.5583
 -85.5564
 -85.5568
 -85.556
 -85.5551
 -85.5579
 -85.4278
 -85.4278
 -85.429
 -85.4271
 -85.5484
 -85.5491
 -85.5488
 -85.546
 -85.5595
 -85.5624
 -85.5614
 -85.5585
 -85.5473
 -85.5473
 -85.544
 -85.5445
 -85.5208
 -85.5196
 -85.5222
 -85.5209
 -85.4963
 -85.4938
 -85.4978
 -85.4667
 -85.4614
 -85.4633
 -85.464
 -85.5352
 -85.5331
 -85.5307
 -85.5342
 -85.5395
 -85.5401
 -85.5418
 -85.5409
 -85.5777
 -85.5775
 -85.5758
 -85.5767
 -85.4035
 -85.4061
 -85.4052
 -85.4057
 -85.4237
 -85.4223
 -85.4228
 -85.4245
 -85.434
 -85.4339
 -85.4387
 -85.4336
 -85.4691
 -85.4644
 -85.4677
 -85.4676
 -85.4757
 -85.4761
 -85.4758
 -85.5611
 -85.5629
 -85.5653
 -85.5639
 -85.5428
 -85.5419
 -85.5404
 -85.5398
 -85.4927
 -85.4903
 -85.4895
 -85.4916
 -85.558
 -85.5599
 -85.5126
 -85.5131
 -85.513
 -85.5098
 -85.5567
 -85.5578
 -85.5601
 -85.5578
 -85.5065
 -85.5105
 -85.5055
 -85.5113
 -85.4658
 -85.4687
 -85.4631
 -85.4657
 -85.4201
 -85.4168
 -85.4195
 -85.4228
 -85.3371
 -85.3415
 -85.3344
 -85.3396
 -85.5525
 -85.5509
 -85.5507
 -85.5529
 -85.5572
 -85.5574
 -85.5578
 -85.5594
 -85.4817
 -85.4771
 -85.4803
 -85.4781
 -85.5009
 -85.4992
 -85.4987
 -85.5013
 -85.453
 -85.4499
 -85.4552
 -85.5147
 -85.5124
 -85.5128
 -85.5109
 -85.454
 -85.4533
 -85.4552
 -85.4558
 -85.495
 -85.4914
 -85.4889
 -85.491
 -85.5227
 -85.521
 -85.5222
 -85.5229
 -85.5033
 -85.5022
 -85.5009
 -85.5485
 -85.5456
 -85.5468
 -85.5467
 -85.5173
 -85.5214
 -85.3871
 -85.3926
 -85.3853
 -85.3886
 -85.5361
 -85.5344
 -85.5358
 -85.459
 -85.46
 -85.4604
 -85.4587
 -85.5175
 -85.5176
 -85.5162
 -85.4944
 -85.4908
 -85.495
 -85.4924
 -85.5151
 -85.5108
 -85.5166
 -85.5137
 -85.5175
 -85.5213
 -85.3652
 -85.3652
 -85.3625
 -85.3644
 -85.3418
 -85.3374
 -85.334
 -85.3391
 -85.4978
 -85.4936
 -85.4951
 -85.4934
 -85.5142
 -85.5121
 -85.514
 -85.5114
 -85.3657
 -85.3656
 -85.3657
 -85.3695
 -85.4579
 -85.4541
 -85.43
 -85.4311
 -85.4319
 -85.4347
 -85.5185
 -85.5178
 -85.522
 -85.5198
 -85.512
 -85.5125
 -85.5154
 -85.5105
 -85.5156
 -85.5122
 -85.5116
 -85.5119
 -85.4687
 -85.4695
 -85.4717
 -85.4686
 -85.4449
 -85.443
 -85.44
 -85.4453
 -85.4072
 -85.4116
 -85.4111
 -85.4069
 -85.4476
 -85.4477
 -85.4479
 -85.453
 -85.5355
 -85.5335
 -85.5367
 -85.5353
 -85.4978
 -85.4897
 -85.4939
 -85.3982
 -85.401
 -85.404
 -85.5253
 -85.5299
 -85.5276
 -85.5276
 -85.5278
 -85.5229
 -85.5251
 -85.5267
 -85.4821
 -85.4798
 -85.4784
 -85.488
 -85.4893
 -85.4925
 -85.4893
 -85.4464
 -85.4446
 -85.4441
 -85.4442
 -85.547
 -85.5461
 -85.5482
 -85.5474
 -85.4411
 -85.4404
 -85.4406
 -85.4416
 -85.4352
 -85.4334
 -85.4353
 -85.5683
 -85.5714
 -85.5725
 -85.5705
 -85.5455
 -85.5474
 -85.4634
 -85.4617
 -85.4651
 -85.4645
 -85.4952
 -85.4992
 -85.4957
 -85.4881
 -85.4868
 -85.4873
 -85.4839
 -85.4424
 -85.4457
 -85.4439
 -85.5447
 -85.5466
 -85.5429
 -85.5437
 -85.441
 -85.4462
 -85.4426
 -85.4415
 -85.5305
 -85.5279
 -85.5261
 -85.527
 -85.4422
 -85.4435
 -85.4458
 -85.4419
 -85.4445
 -85.4433
 -85.4597
 -85.4576
 -85.4586
 -85.4596
 -85.4046
 -85.4025
 -85.3986
 -85.4026
 -85.5368
 -85.5397
 -85.4725
 -85.4745
 -85.4752
 -85.4749
 -85.5684
 -85.5676
 -85.568
 -85.5691
 -85.4671
 -85.4643
 -85.4684
 -85.4716
 -85.5415
 -85.5444
 -85.5451
 -85.5449
 -85.5574
 -85.5602
 -85.556
 -85.5592
 -85.53
 -85.5265
 -85.5629
 -85.5647
 -85.5641
 -85.5633
 -85.4428
 -85.4429
 -85.4415
 -85.4455
 -85.5633
 -85.5638
 -85.564
 -85.5631
 -85.5708
 -85.5732
 -85.5723
 -85.5709
 -85.5103
 -85.5104
 -85.5137
 -85.5126
 -85.4883
 -85.4867
 -85.4907
 -85.4927
 -85.5538
 -85.5506
 -85.5528
 -85.5539
 -85.3922
 -85.397
 -85.3932
 -85.3917
 -85.5522
 -85.5556
 -85.471
 -85.4737
 -85.4738
 -85.4775
 -85.5524
 -85.5509
 -85.5486
 -85.5488
 -85.4474
 -85.4505
 -85.45
 -85.4496
 -85.4762
 -85.4707
 -85.4727
 -85.4756
 -85.4492
 -85.4479
 -85.4531
 -85.4458
 -85.4441
 -85.4458
 -85.4432
 -85.439
 -85.4414
 -85.4404
 -85.4417
 -85.5129
 -85.5103
 -85.5094
 -85.5497
 -85.5498
 -85.552
 -85.5521
 -85.5048
 -85.5029
 -85.5013
 -85.4465
 -85.4443
 -85.446
 -85.4952
 -85.5
 -85.4958
 -85.4989
 -85.5177
 -85.5173
 -85.5175
 -85.5214
 -85.4846
 -85.4884
 -85.489
 -85.4877
 -85.4828
 -85.4815
 -85.4801
 -85.4752
 -85.473
 -85.4722
 -85.4765
 -85.4789
 -85.4808
 -85.475
 -85.5505
 -85.5497
 -85.5508
 -85.5481
 -85.5253
 -85.5232
 -85.5252
 -85.5264
 -85.4895
 -85.4899
 -85.4881
 -85.4936
 -85.4386
 -85.4358
 -85.4383
 -85.5063
 -85.5041
 -85.5058
 -85.5068
 -85.4607
 -85.456
 -85.4585
 -85.456
 -85.3753
 -85.3776
 -85.3748
 -85.3734
 -85.4776
 -85.4756
 -85.4771
 -85.4768
 -85.5539
 -85.553
 -85.5558
 -85.5549
 -85.4738
 -85.4775
 -85.4752
 -85.4732
 -85.4419
 -85.442
 -85.4427
 -85.4439
 -85.4447
 -85.4427
 -85.4432
 -85.487
 -85.4877
 -85.4863
 -85.52
 -85.4727
 -85.4668
 -85.4706
 -85.4704
 -85.5581
 -85.5577
 -85.5591
 -85.5541
 -85.5546
 -85.5557
 -85.4715
 -85.4751
 -85.4725
 -85.4746
 -85.5701
 -85.5712
 -85.5719
 -85.5719
 -85.4483
 -85.5116
 -85.508
 -85.5102
 -85.5095
 -85.4474
 -85.4486
 -85.4482
 -85.449
 -85.5566
 -85.5585
 -85.5552
 -85.5569
 -85.5223
 -85.5269
 -85.5253
 -85.5231
 -85.5392
 -85.5411
 -85.5373
 -85.5382
 -85.439
 -85.4401
 -85.4411
 -85.4391
 -85.4643
 -85.4672
 -85.464
 -85.4646
 -85.5062
 -85.5039
 -85.5063
 -85.5028
 -85.4662
 -85.4621
 -85.4677
 -85.4636
 -85.5198
 -85.5213
 -85.5244
 -85.5237
 -85.4497
 -85.4485
 -85.452
 -85.4517
 -85.4612
 -85.4621
 -85.4655
 -85.4641
 -85.5113
 -85.5117
 -85.5117
 -85.515
 -85.557
 -85.5597
 -85.5581
 -85.56
 -85.4311
 -85.4329
 -85.4353
 -85.4348
 -85.405
 -85.3993
 -85.4051
 -85.4041
 -85.5594
 -85.5619
 -85.5606
 -85.5607
 -85.4115
 -85.4079
 -85.4103
 -85.4078
 -85.4065
 -85.4107
 -85.4963
 -85.4974
 -85.4945
 -85.4931
 -85.4633
 -85.4654
 -85.4653
 -85.4622
 -85.5773
 -85.5774
 -85.5775
 -85.5766
 -85.5565
 -85.5562
 -85.559
 -85.5212
 -85.5208
 -85.5237
 -85.52
 -85.4453
 -85.4461
 -85.4431
 -85.4471
 -85.4608
 -85.4602
 -85.4593
 -85.4585
 -85.4609
 -85.4627
 -85.5223
 -85.5277
 -85.5259
 -85.5236
 -85.5161
 -85.5158
 -85.5129
 -85.5167
 -85.5261
 -85.5256
 -85.5227
 -85.5259
 -85.5695
 -85.5696
 -85.5663
 -85.5706
 -85.5325
 -85.5323
 -85.5294
 -85.477
 -85.5014
 -85.5003
 -85.5012
 -85.4987
 -85.5038
 -85.4996
 -85.5009
 -85.5029
 -85.5473
 -85.5465
 -85.5461
 -85.5445
 -85.5333
 -85.5312
 -85.5316
 -85.5342
 -85.5146
 -85.5119
 -85.5114
 -85.4692
 -85.4661
 -85.4697
 -85.4645
 -85.5007
 -85.506
 -85.503
 -85.5033
 -85.476
 -85.4786
 -85.4743
 -85.3542
 -85.3536
 -85.3504
 -85.3559
 -85.5487
 -85.5532
 -85.5511
 -85.548
 -85.544
 -85.5489
 -85.5463
 -85.3609
 -85.5053
 -85.5058
 -85.5049
 -85.5088
 -85.5139
 -85.5144
 -85.4211
 -85.4212
 -85.4207
 -85.4224
 -85.435
 -85.4364
 -85.441
 -85.4357
 -85.4548
 -85.457
 -85.4555
 -85.4562
 -85.4528
 -85.4547
 -85.4555
 -85.4521
 -85.4518
 -85.4542
 -85.4764
 -85.4732
 -85.4721
 -85.4724
 -85.4804
 -85.484
 -85.5777
 -85.5774
 -85.4429
 -85.4484
 -85.4424
 -85.4458
 -85.4885
 -85.4873
 -85.49
 -85.4857
 -85.4287
 -85.4302
 -85.424
 -85.4254
 -85.5517
 -85.5532
 -85.5495
 -85.5511
 -85.5428
 -85.5403
 -85.5426
 -85.5401
 -85.5202
 -85.5228
 -85.5232
 -85.5213
 -85.5066
 -85.5075
 -85.5121
 -85.5106
 -85.4971
 -85.4958
 -85.4427
 -85.5302
 -85.5331
 -85.5329
 -85.5333
 -85.5666
 -85.5659
 -85.5689
 -85.5654
 -85.5455
 -85.5488
 -85.5447
 -85.5462
 -85.3158
 -85.3156
 -85.3164
 -85.3176
 -85.5675
 -85.568
 -85.5673
 -85.5674
 -85.4557
 -85.4558
 -85.4526
 -85.4572
 -85.4701
 -85.4663
 -85.4678
 -85.4648
 -85.5272
 -85.5275
 -85.5293
 -85.5299
 -85.5286
 -85.5275
 -85.5261
 -85.5269
 -85.4455
 -85.4498
 -85.4474
 -85.4489
 -85.5659
 -85.5666
 -85.5656
 -85.566
 -85.553
 -85.5542
 -85.5537
 -85.5551
 -85.5302
 -85.5306
 -85.5328
 -85.5331
 -85.5541
 -85.5519
 -85.5533
 -85.5538
 -85.4611
 -85.465
 -85.465
 -85.4661
 -85.4457
 -85.4463
 -85.4474
 -85.448
 -85.5493
 -85.5478
 -85.5466
 -85.5472
 -85.4845
 -85.4833
 -85.4826
 -85.4794
 -85.4888
 -85.4871
 -85.4863
 -85.4884
 -85.3449
 -85.3488
 -85.3492
 -85.3494
 -85.5657
 -85.5662
 -85.5563
 -85.5564
 -85.5547
 -85.5579
 -85.4286
 -85.4258
 -85.4248
 -85.4289
 -85.4653
 -85.4606
 -85.4602
 -85.459
 -85.5537
 -85.552
 -85.5554
 -85.5554
 -85.4808
 -85.4818
 -85.4801
 -85.4839
 -85.4734
 -85.4745
 -85.4704
 -85.4708
 -85.5686
 -85.5692
 -85.5681
 -85.568
 -85.5045
 -85.5033
 -85.5044
 -85.5058
 -85.4964
 -85.4974
 -85.4967
 -85.4942
 -85.5404
 -85.5412
 -85.5422
 -85.54
 -85.5221
 -85.5209
 -85.5199
 -85.5179
 -85.4815
 -85.4815
 -85.4775
 -85.466
 -85.4689
 -85.4671
 -85.4725
 -85.4142
 -85.4117
 -85.412
 -85.4177
 -85.47
 -85.4721
 -85.4728
 -85.4734
 -85.5011
 -85.4992
 -85.5005
 -85.4983
 -85.5672
 -85.568
 -85.5678
 -85.5651
 -85.4724
 -85.4781
 -85.4752
 -85.4743
 -85.4289
 -85.4286
 -85.4256
 -85.4231
 -85.5275
 -85.5307
 -85.5291
 -85.527
 -85.5155
 -85.5147
 -85.5131
 -85.5006
 -85.5047
 -85.506
 -85.5069
 -85.4083
 -85.4076
 -85.4081
 -85.4113
 -85.5065
 -85.5038
 -85.5046
 -85.5029
 -85.5647
 -85.5646
 -85.5649
 -85.565
 -85.503
 -85.5026
 -85.5039
 -85.5046
 -85.4371
 -85.4352
 -85.4367
 -85.4375
 -85.4504
 -85.4528
 -85.4503
 -85.4474
 -85.578
 -85.5774
 -85.578
 -85.5779
 -85.461
 -85.462
 -85.4614
 -85.4562
 -85.5146
 -85.5102
 -85.5112
 -85.5129
 -85.5773
 -85.5777
 -85.5767
 -85.5763
 -85.5578
 -85.5611
 -85.5591
 -85.5287
 -85.5282
 -85.5321
 -85.5331
 -85.5503
 -85.551
 -85.5539
 -85.5493
 -85.3766
 -85.3798
 -85.3824
 -85.3813
 -85.4494
 -85.4537
 -85.4474
 -85.5627
 -85.5651
 -85.5645
 -85.5651
 -85.5129
 -85.5116
 -85.5149
 -85.5104
 -85.5384
 -85.5373
 -85.5411
 -85.5354
 -85.4328
 -85.4324
 -85.4293
 -85.428
 -85.4797
 -85.4842
 -85.4794
 -85.4823
 -85.5204
 -85.5152
 -85.5171
 -85.4248
 -85.4255
 -85.4269
 -85.4269
 -85.4484
 -85.4405
 -85.4423
 -85.4411
 -85.475
 -85.5635
 -85.565
 -85.5638
 -85.5655
 -85.3825
 -85.382
 -85.3783
 -85.3789
 -85.5388
 -85.5437
 -85.5416
 -85.5443
 -85.5166
 -85.5145
 -85.5149
 -85.5115
 -85.3564
 -85.5456
 -85.5437
 -85.5471
 -85.5625
 -85.5653
 -85.5634
 -85.5636
 -85.4901
 -85.4898
 -85.4953
 -85.4916
 -85.5247
 -85.5247
 -85.5269
 -85.5232
 -85.4551
 -85.452
 -85.4969
 -85.4954
 -85.4949
 -85.4983
 -85.4547
 -85.4524
 -85.4503
 -85.453
 -85.4662
 -85.4649
 -85.4699
 -85.4703
 -85.5301
 -85.5279
 -85.5301
 -85.5307
 -85.3957
 -85.3951
 -85.3948
 -85.4
 -85.4462
 -85.4446
 -85.4459
 -85.4438
 -85.4044
 -85.4073
 -85.4355
 -85.4358
 -85.4361
 -85.4356
 -85.4298
 -85.4274
 -85.4309
 -85.428
 -85.5681
 -85.567
 -85.5652
 -85.5652
 -85.5104
 -85.5101
 -85.5087
 -85.5136
 -85.4786
 -85.4837
 -85.481
 -85.4808
 -85.5009
 -85.4995
 -85.4987
 -85.5019
 -85.5661
 -85.5656
 -85.4239
 -85.4224
 -85.4227
 -85.4239
 -85.5651
 -85.566
 -85.564
 -85.3883
 -85.3876
 -85.3879
 -85.3861
 -85.5598
 -85.5565
 -85.5588
 -85.5575
 -85.4681
 -85.4657
 -85.469
 -85.4652
 -85.4884
 -85.4879
 -85.4869
 -85.5634
 -85.5621
 -85.5627
 -85.5639
 -85.5097
 -85.5064
 -85.5097
 -85.5076
 -85.4888
 -85.4909
 -85.4931
 -85.4902
 -85.4696
 -85.4678
 -85.4789
 -85.4722
 -85.4766
 -85.4747
 -85.5159
 -85.5122
 -85.5143
 -85.5681
 -85.5654
 -85.5649
 -85.5677
 -85.4872
 -85.4893
 -85.4868
 -85.4882
 -85.4802
 -85.4779
 -85.464
 -85.4605
 -85.4595
 -85.463
 -85.3979
 -85.3987
 -85.4028
 -85.5098
 -85.5108
 -85.5064
 -85.5063
 -85.5668
 -85.5671
 -85.5671
 -85.4037
 -85.4025
 -85.404
 -85.4851
 -85.4825
 -85.4841
 -85.481
 -85.5237
 -85.5241
 -85.5207
 -85.5218
 -85.3775
 -85.3753
 -85.3766
 -85.3781
 -85.5516
 -85.5524
 -85.551
 -85.5506
 -85.5267
 -85.5247
 -85.5249
 -85.5234
 -85.5452
 -85.546
 -85.5442
 -85.5621
 -85.5627
 -85.5656
 -85.5637
 -85.4996
 -85.4955
 -85.4992
 -85.5
 -85.5623
 -85.5614
 -85.561
 -85.5603
 -85.4699
 -85.4694
 -85.4716
 -85.4675
 -85.5674
 -85.5202
 -85.4953
 -85.4943
 -85.4972
 -85.4933
 -85.5159
 -85.5149
 -85.5127
 -85.5119
 -85.5341
 -85.5346
 -85.5327
 -85.5307
 -85.5177
 -85.5168
 -85.5199
 -85.5184
 -85.5375
 -85.5356
 -85.538
 -85.5377
 -85.4951
 -85.493
 -85.4937
 -85.4968
 -85.4895
 -85.4901
 -85.4909
 -85.4925
 -85.4796
 -85.4784
 -85.4775
 -85.4812
 -85.4909
 -85.4908
 -85.4876
 -85.442
 -85.4426
 -85.442
 -85.4442
 -85.4994
 -85.5224
 -85.5259
 -85.5264
 -85.5252
 -85.5643
 -85.5645
 -85.5615
 -85.4638
 -85.4585
 -85.4603
 -85.4588
 -85.503
 -85.507
 -85.5055
 -85.5167
 -85.5155
 -85.5142
 -85.5131
 -85.5241
 -85.5257
 -85.5284
 -85.5295
 -85.556
 -85.5572
 -85.5591
 -85.5567
 -85.4528
 -85.4524
 -85.4544
 -85.4496
 -85.5026
 -85.5004
 -85.5003
 -85.4984
 -85.4916
 -85.4903
 -85.4877
 -85.4919
 -85.489
 -85.4874
 -85.4865
 -85.4842
 -85.4968
 -85.4959
 -85.4979
 -85.494
 -85.5333
 -85.5282
 -85.5342
 -85.5306
 -85.4886
 -85.4836
 -85.4855
 -85.4866
 -85.423
 -85.4231
 -85.423
 -85.4241
 -85.4113
 -85.4134
 -85.4123
 -85.4961
 -85.4967
 -85.4993
 -85.5002
 -85.4977
 -85.4982
 -85.5001
 -85.5015
 -85.4903
 -85.4871
 -85.4923
 -85.4923
 -85.5608
 -85.5613
 -85.5581
 -85.5584
 -85.5345
 -85.532
 -85.5312
 -85.5341
 -85.4614
 -85.4636
 -85.4629
 -85.4639
 -85.4371
 -85.4418
 -85.441
 -85.4351
 -85.5544
 -85.5532
 -85.5518
 -85.5543
 -85.3863
 -85.3822
 -85.3832
 -85.3881
 -85.4726
 -85.476
 -85.4741
 -85.4736
 -85.4317
 -85.4332
 -85.4329
 -85.4501
 -85.4522
 -85.4527
 -85.4555
 -85.5297
 -85.5293
 -85.5316
 -85.5266
 -85.4493
 -85.4454
 -85.4463
 -85.4485
 -85.4125
 -85.4208
 -85.4155
 -85.3768
 -85.3811
 -85.3832
 -85.3807
 -85.5713
 -85.572
 -85.5724
 -85.574
 -85.4582
 -85.4558
 -85.4574
 -85.4591
 -85.5113
 -85.5069
 -85.5079
 -85.5102
 -85.5583
 -85.5572
 -85.5551
 -85.5569
 -85.5443
 -85.5469
 -85.5431
 -85.5443
 -85.4609
 -85.462
 -85.4593
 -85.4608
 -85.4244
 -85.4202
 -85.4163
 -85.4211
 -85.5075
 -85.5094
 -85.5058
 -85.5076
 -85.4282
 -85.4321
 -85.4809
 -85.4751
 -85.4764
 -85.4794
 -85.4844
 -85.4841
 -85.482
 -85.4856
 -85.4795
 -85.4797
 -85.478
 -85.4393
 -85.4406
 -85.4394
 -85.5131
 -85.5131
 -85.5145
 -85.5153
 -85.509
 -85.5084
 -85.5066
 -85.5116
 -85.4602
 -85.4638
 -85.4619
 -85.4608
 -85.5361
 -85.5387
 -85.5349
 -85.5359
 -85.4947
 -85.4904
 -85.4927
 -85.4956
 -85.44
 -85.44
 -85.4395
 -85.4399
 -85.4753
 -85.4785
 -85.4757
 -85.5123
 -85.5119
 -85.5093
 -85.5112
 -85.4996
 -85.502
 -85.5035
 -85.5702
 -85.5698
 -85.5691
 -85.5686
 -85.4061
 -85.4038
 -85.4067
 -85.4006
 -85.4711
 -85.4741
 -85.4742
 -85.4716
 -85.4663
 -85.4655
 -85.4626
 -85.4665
 -85.5714
 -85.571
 -85.5736
 -85.5749
 -85.5411
 -85.5426
 -85.5421
 -85.4517
 -85.4516
 -85.4495
 -85.4519
 -85.5404
 -85.5371
 -85.5385
 -85.458
 -85.4586
 -85.456
 -85.4568
 -85.3353
 -85.338
 -85.3366
 -85.339
 -85.5603
 -85.5609
 -85.5625
 -85.5593
 -85.4399
 -85.4389
 -85.4375
 -85.435
 -85.5687
 -85.5682
 -85.5678
 -85.5682
 -85.4483
 -85.452
 -85.449
 -85.451
 -85.3401
 -85.3341
 -85.3383
 -85.3391
 -85.4181
 -85.4149
 -85.418
 -85.4192
 -85.4417
 -85.444
 -85.4461
 -85.4411
 -85.4931
 -85.4887
 -85.4362
 -85.437
 -85.4305
 -85.4314
 -85.515
 -85.5126
 -85.5118
 -85.51
 -85.4896
 -85.4895
 -85.4884
 -85.4929
 -85.5575
 -85.5549
 -85.5593
 -85.5597
 -85.552
 -85.551
 -85.5534
 -85.5532
 -85.5455
 -85.5429
 -85.545
 -85.543
 -85.5559
 -85.5564
 -85.557
 -85.5552
 -85.524
 -85.5235
 -85.5261
 -85.524
 -85.5469
 -85.5494
 -85.5488
 -85.548
 -85.4098
 -85.4041
 -85.4037
 -85.4099
 -85.5534
 -85.555
 -85.5547
 -85.5543
 -85.4795
 -85.4764
 -85.4747
 -85.4761
 -85.539
 -85.5348
 -85.5353
 -85.5523
 -85.5545
 -85.5548
 -85.5538
 -85.4409
 -85.4372
 -85.4369
 -85.4388
 -85.4196
 -85.4187
 -85.417
 -85.4176
 -85.5294
 -85.5291
 -85.5273
 -85.5321
 -85.4818
 -85.4816
 -85.4809
 -85.4785
 -85.5252
 -85.5237
 -85.525
 -85.5243
 -85.5242
 -85.5239
 -85.5294
 -85.4741
 -85.4733
 -85.4704
 -85.5217
 -85.5234
 -85.5041
 -85.4998
 -85.5677
 -85.5692
 -85.569
 -85.5677
 -85.4997
 -85.5009
 -85.4988
 -85.5028
 -85.5215
 -85.5203
 -85.5244
 -85.5203
 -85.5114
 -85.5129
 -85.5112
 -85.5139
 -85.547
 -85.541
 -85.5421
 -85.5402
 -85.5397
 -85.4851
 -85.4864
 -85.4829
 -85.4829
 -85.434
 -85.434
 -85.434
 -85.4341
 -85.5224
 -85.5196
 -85.5229
 -85.5209
 -85.5261
 -85.5247
 -85.5235
 -85.5273
 -85.352
 -85.3555
 -85.3569
 -85.359
 -85.4959
 -85.4988
 -85.4968
 -85.495
 -85.4918
 -85.4888
 -85.4875
 -85.4903
 -85.5206
 -85.5183
 -85.4441
 -85.4447
 -85.4458
 -85.4443
 -85.4686
 -85.4705
 -85.4699
 -85.468
 -85.4485
 -85.447
 -85.4462
 -85.4466
 -85.463
 -85.4654
 -85.465
 -85.4623
 -85.447
 -85.4466
 -85.4454
 -85.4474
 -85.5428
 -85.5412
 -85.542
 -85.5439
 -85.5532
 -85.5527
 -85.5502
 -85.5518
 -85.459
 -85.4573
 -85.4553
 -85.4588
 -85.4958
 -85.4933
 -85.4958
 -85.494
 -85.5456
 -85.5429
 -85.5452
 -85.5439
 -85.4841
 -85.4817
 -85.482
 -85.4863
 -85.4583
 -85.4612
 -85.4261
 -85.4276
 -85.4283
 -85.4255
 -85.4903
 -85.4892
 -85.4865
 -85.4852
 -85.5463
 -85.5452
 -85.5456
 -85.5486
 -85.5657
 -85.564
 -85.5645
 -85.566
 -85.3628
 -85.362
 -85.4781
 -85.4817
 -85.4822
 -85.4839
 -85.4735
 -85.4684
 -85.4716
 -85.4717
 -85.4704
 -85.4695
 -85.4502
 -85.4515
 -85.4516
 -85.4524
 -85.4901
 -85.4934
 -85.4948
 -85.4095
 -85.4122
 -85.4124
 -85.4145
 -85.5538
 -85.5555
 -85.5518
 -85.5542
 -85.5651
 -85.565
 -85.5647
 -85.5714
 -85.5703
 -85.5683
 -85.5698
 -85.5092
 -85.5141
 -85.5126
 -85.513
 -85.4956
 -85.4999
 -85.4944
 -85.498
 -85.5372
 -85.5412
 -85.5425
 -85.5403
 -85.5196
 -85.5189
 -85.522
 -85.5191
 -85.515
 -85.518
 -85.5162
 -85.5017
 -85.5021
 -85.5006
 -85.5049
 -85.5308
 -85.5367
 -85.5345
 -85.5313
 -85.4844
 -85.4819
 -85.4838
 -85.4844
 -85.4976
 -85.4969
 -85.5008
 -85.4959
 -85.5242
 -85.5234
 -85.5219
 -85.5244
 -85.4961
 -85.4943
 -85.4934
 -85.4967
 -85.342
 -85.3404
 -85.3464
 -85.346
 -85.4539
 -85.4526
 -85.4522
 -85.4503
 -85.5306
 -85.5303
 -85.5338
 -85.5342
 -85.4479
 -85.4482
 -85.4432
 -85.442
 -85.4386
 -85.4339
 -85.4387
 -85.4418
 -85.5481
 -85.5474
 -85.5491
 -85.5457
 -85.5443
 -85.5413
 -85.5441
 -85.5433
 -85.5552
 -85.5526
 -85.5547
 -85.5558
 -85.5347
 -85.5347
 -85.5374
 -85.5362
 -85.4783
 -85.4774
 -85.4751
 -85.4773
 -85.4549
 -85.4536
 -85.4565
 -85.453
 -85.5254
 -85.5208
 -85.5258
 -85.5218
 -85.4563
 -85.4574
 -85.4578
 -85.4576
 -85.4285
 -85.4295
 -85.4304
 -85.4316
 -85.4935
 -85.4963
 -85.4939
 -85.4962
 -85.4716
 -85.4693
 -85.467
 -85.4737
 -85.4752
 -85.4796
 -85.4763
 -85.4286
 -85.4264
 -85.4233
 -85.4262
 -85.4583
 -85.4577
 -85.4567
 -85.4569
 -85.5292
 -85.531
 -85.5294
 -85.5303
 -85.4999
 -85.5027
 -85.5035
 -85.5728
 -85.5709
 -85.5712
 -85.5722
 -85.5598
 -85.562
 -85.5636
 -85.5612
 -85.4697
 -85.4725
 -85.4681
 -85.4722
 -85.5056
 -85.5082
 -85.4329
 -85.4325
 -85.4283
 -85.4343
 -85.4997
 -85.4964
 -85.4952
 -85.4981
 -85.5544
 -85.5552
 -85.5527
 -85.5549
 -85.4548
 -85.4557
 -85.4566
 -85.4808
 -85.4819
 -85.4824
 -85.4778
 -85.4708
 -85.4752
 -85.475
 -85.4743
 -85.4938
 -85.4968
 -85.4976
 -85.4936
 -85.4876
 -85.4896
 -85.4921
 -85.4893
 -85.4982
 -85.5
 -85.4975
 -85.501
 -85.4844
 -85.487
 -85.5399
 -85.5378
 -85.5422
 -85.5392
 -85.4865
 -85.4835
 -85.4846
 -85.4867
 -85.5144
 -85.5101
 -85.5122
 -85.4857
 -85.4889
 -85.4867
 -85.4886
 -85.5161
 -85.5144
 -85.5126
 -85.5148
 -85.4491
 -85.4458
 -85.4483
 -85.4439
 -85.4861
 -85.4854
 -85.4894
 -85.507
 -85.5077
 -85.5113
 -85.5051
 -85.492
 -85.4911
 -85.4934
 -85.4482
 -85.4491
 -85.4464
 -85.5179
 -85.5173
 -85.5169
 -85.5137
 -85.4933
 -85.4959
 -85.4964
 -85.3685
 -85.3699
 -85.3712
 -85.3646
 -85.5192
 -85.5168
 -85.5152
 -85.5197
 -85.4739
 -85.4705
 -85.4711
 -85.4697
 -85.5452
 -85.5451
 -85.5462
 -85.5473
 -85.5515
 -85.5493
 -85.5527
 -85.5521
 -85.438
 -85.443
 -85.4367
 -85.4377
 -85.5056
 -85.5033
 -85.5012
 -85.4626
 -85.4589
 -85.4617
 -85.4615
 -85.5504
 -85.5466
 -85.5488
 -85.4986
 -85.5016
 -85.4995
 -85.5023
 -85.5276
 -85.5289
 -85.5287
 -85.5278
 -85.5584
 -85.559
 -85.5603
 -85.5582
 -85.3215
 -85.3187
 -85.3192
 -85.3213
 -85.4625
 -85.4634
 -85.4653
 -85.462
 -85.5032
 -85.5091
 -85.5069
 -85.5082
 -85.4226
 -85.4198
 -85.4181
 -85.4931
 -85.4959
 -85.4954
 -85.4923
 -85.5616
 -85.5223
 -85.5199
 -85.5163
 -85.5198
 -85.5486
 -85.5486
 -85.5489
 -85.55
 -85.5368
 -85.5361
 -85.5354
 -85.5379
 -85.5056
 -85.5044
 -85.4991
 -85.4953
 -85.4957
 -85.4953
 -85.3727
 -85.3774
 -85.3732
 -85.3755
 -85.4687
 -85.4675
 -85.466
 -85.4634
 -85.463
 -85.4656
 -85.4637
 -85.563
 -85.5662
 -85.5635
 -85.5629
 -85.4939
 -85.4938
 -85.4971
 -85.4974
 -85.5048
 -85.5033
 -85.5006
 -85.5029
 -85.5514
 -85.5493
 -85.5528
 -85.5496
 -85.4968
 -85.4958
 -85.4999
 -85.4971
 -85.4059
 -85.4069
 -85.4029
 -85.4043
 -85.4906
 -85.4896
 -85.4919
 -85.4904
 -85.4611
 -85.4615
 -85.462
 -85.4641
 -85.4539
 -85.4511
 -85.4513
 -85.4528
 -85.4339
 -85.435
 -85.4337
 -85.4334
 -85.3984
 -85.3968
 -85.3957
 -85.4014
 -85.5701
 -85.5686
 -85.5692
 -85.5688
 -85.3838
 -85.3854
 -85.3808
 -85.3868
 -85.4945
 -85.4922
 -85.4945
 -85.4917
 -85.5681
 -85.5683
 -85.5665
 -85.5671
 -85.4781
 -85.4769
 -85.4792
 -85.4798
 -85.4333
 -85.5568
 -85.5555
 -85.556
 -85.5589
 -85.4474
 -85.404
 -85.4092
 -85.4093
 -85.4044
 -85.5097
 -85.5139
 -85.5387
 -85.5353
 -85.5399
 -85.5363
 -85.5473
 -85.5473
 -85.549
 -85.5485
 -85.5725
 -85.5707
 -85.5731
 -85.54
 -85.5435
 -85.543
 -85.5425
 -85.4788
 -85.5652
 -85.5256
 -85.525
 -85.5238
 -85.5649
 -85.5661
 -85.5666
 -85.5657
 -85.4809
 -85.4802
 -85.4806
 -85.478
 -85.4601
 -85.4614
 -85.458
 -85.4571
 -85.5222
 -85.52
 -85.5211
 -85.5256
 -85.5622
 -85.5637
 -85.5613
 -85.5608
 -85.5545
 -85.5538
 -85.555
 -85.5536
 -85.5141
 -85.5192
 -85.5186
 -85.3937
 -85.3905
 -85.3997
 -85.3933
 -85.3271
 -85.3329
 -85.3296
 -85.3319
 -85.4231
 -85.4183
 -85.4171
 -85.4201
 -85.5013
 -85.5043
 -85.5009
 -85.4087
 -85.4122
 -85.4108
 -85.4083
 -85.5418
 -85.541
 -85.5442
 -85.5444
 -85.5448
 -85.5431
 -85.5444
 -85.4472
 -85.4458
 -85.5277
 -85.5292
 -85.5778
 -85.5767
 -85.5777
 -85.5702
 -85.5712
 -85.5708
 -85.5717
 -85.4847
 -85.4821
 -85.4869
 -85.4847
 -85.4674
 -85.4668
 -85.465
 -85.4691
 -85.4918
 -85.4914
 -85.4948
 -85.4934
 -85.5676
 -85.5674
 -85.568
 -85.5674
 -85.5285
 -85.5303
 -85.5293
 -85.5274
 -85.4321
 -85.4317
 -85.4318
 -85.4341
 -85.5287
 -85.53
 -85.5278
 -85.5308
 -85.5072
 -85.5079
 -85.5046
 -85.5086
 -85.5238
 -85.5259
 -85.5256
 -85.3138
 -85.3146
 -85.3152
 -85.4656
 -85.4633
 -85.481
 -85.4809
 -85.4784
 -85.4831
 -85.5374
 -85.5406
 -85.538
 -85.5375
 -85.5291
 -85.53
 -85.5335
 -85.5315
 -85.5314
 -85.5299
 -85.5348
 -85.3743
 -85.3743
 -85.4311
 -85.4305
 -85.4324
 -85.4314
 -85.507
 -85.372
 -85.3676
 -85.3692
 -85.3699
 -85.4597
 -85.4636
 -85.4611
 -85.4604
 -85.4858
 -85.484
 -85.4003
 -85.4077
 -85.4074
 -85.4033
 -85.5701
 -85.5722
 -85.5715
 -85.5704
 -85.5613
 -85.5623
 -85.5613
 -85.5641
 -85.4431
 -85.4498
 -85.4445
 -85.4479
 -85.4644
 -85.4625
 -85.469
 -85.4678
 -85.4664
 -85.4647
 -85.4664
 -85.5338
 -85.5358
 -85.5315
 -85.5339
 -85.4323
 -85.4354
 -85.4369
 -85.4372
 -85.4917
 -85.4926
 -85.4913
 -85.5189
 -85.52
 -85.521
 -85.5237
 -85.4643
 -85.4652
 -85.4671
 -85.4658
 -85.4512
 -85.4543
 -85.4567
 -85.453
 -85.4544
 -85.4523
 -85.453
 -85.4556
 -85.4769
 -85.4781
 -85.4813
 -85.4783
 -85.5184
 -85.5163
 -85.4604
 -85.4609
 -85.4617
 -85.4588
 -85.5715
 -85.5681
 -85.5688
 -85.569
 -85.4495
 -85.4515
 -85.4499
 -85.4519
 -85.4171
 -85.4157
 -85.4196
 -85.4181
 -85.5077
 -85.5076
 -85.3904
 -85.3906
 -85.3875
 -85.3914
 -85.4707
 -85.4735
 -85.4693
 -85.5632
 -85.5628
 -85.5643
 -85.5643
 -85.3959
 -85.3936
 -85.3949
 -85.4521
 -85.4516
 -85.4545
 -85.4533
 -85.4001
 -85.4493
 -85.4479
 -85.4485
 -85.4453
 -85.4967
 -85.4944
 -85.4973
 -85.4967
 -85.4811
 -85.4819
 -85.4837
 -85.4809
 -85.5654
 -85.5678
 -85.5024
 -85.5044
 -85.5035
 -85.5023
 -85.4455
 -85.441
 -85.4463
 -85.4405
 -85.4675
 -85.4741
 -85.4704
 -85.4681
 -85.5556
 -85.5541
 -85.5541
 -85.5546
 -85.4826
 -85.4844
 -85.4875
 -85.486
 -85.5086
 -85.5463
 -85.5474
 -85.5451
 -85.468
 -85.469
 -85.4654
 -85.47
 -85.5278
 -85.5268
 -85.528
 -85.5251
 -85.4726
 -85.4694
 -85.4705
 -85.4736
 -85.5643
 -85.5625
 -85.5616
 -85.5635
 -85.5763
 -85.577
 -85.5758
 -85.453
 -85.4547
 -85.4578
 -85.456
 -85.5155
 -85.5167
 -85.513
 -85.5145
 -85.525
 -85.5261
 -85.5278
 -85.529
 -85.4623
 -85.4629
 -85.4499
 -85.4484
 -85.4473
 -85.4511
 -85.4762
 -85.4817
 -85.5103
 -85.5116
 -85.5099
 -85.5088
 -85.5172
 -85.5184
 -85.521
 -85.5172
 -85.4778
 -85.4801
 -85.4826
 -85.4806
 -85.5069
 -85.5071
 -85.5073
 -85.5513
 -85.5484
 -85.5474
 -85.549
 -85.5377
 -85.5366
 -85.5382
 -85.4778
 -85.482
 -85.4766
 -85.4802
 -85.4537
 -85.449
 -85.4471
 -85.4524
 -85.5266
 -85.5228
 -85.5232
 -85.5252
 -85.4828
 -85.4822
 -85.4783
 -85.4381
 -85.4377
 -85.4381
 -85.4377
 -85.4642
 -85.4639
 -85.4653
 -85.4664
 -85.5417
 -85.5402
 -85.5389
 -85.5718
 -85.5696
 -85.5701
 -85.5234
 -85.5249
 -85.5252
 -85.464
 -85.4609
 -85.4652
 -85.4626
 -85.5714
 -85.5718
 -85.5714
 -85.5725
 -85.5198
 -85.5178
 -85.5192
 -85.5215
 -85.5456
 -85.5468
 -85.55
 -85.5498
 -85.5425
 -85.5441
 -85.5428
 -85.5431
 -85.4142
 -85.4098
 -85.4107
 -85.4763
 -85.4773
 -85.4749
 -85.4775
 -85.5463
 -85.5474
 -85.5451
 -85.5452
 -85.4878
 -85.4892
 -85.4892
 -85.4926
 -85.529
 -85.5292
 -85.5288
 -85.5258
 -85.5572
 -85.5589
 -85.4314
 -85.4336
 -85.4334
 -85.4348
 -85.536
 -85.534
 -85.5384
 -85.535
 -85.4783
 -85.4773
 -85.4761
 -85.4795
 -85.5247
 -85.5205
 -85.5682
 -85.5682
 -85.5661
 -85.5687
 -85.5451
 -85.5485
 -85.5438
 -85.5495
 -85.5723
 -85.5727
 -85.5744
 -85.5748
 -85.5342
 -85.5341
 -85.5356
 -85.5247
 -85.5287
 -85.5283
 -85.5269
 -85.5272
 -85.5252
 -85.5264
 -85.5231
 -85.4586
 -85.4595
 -85.4569
 -85.4557
 -85.4066
 -85.4049
 -85.4094
 -85.4945
 -85.4944
 -85.495
 -85.5509
 -85.5482
 -85.5498
 -85.5476
 -85.4793
 -85.4815
 -85.4845
 -85.4818
 -85.4474
 -85.4429
 -85.4443
 -85.4479
 -85.4969
 -85.4936
 -85.492
 -85.4921
 -85.4709
 -85.4758
 -85.4712
 -85.569
 -85.5697
 -85.5671
 -85.5669
 -85.4343
 -85.4352
 -85.446
 -85.4478
 -85.4479
 -85.5306
 -85.5315
 -85.5286
 -85.5336
 -85.4923
 -85.4965
 -85.4958
 -85.4952
 -85.442
 -85.4426
 -85.4451
 -85.4425
 -85.5044
 -85.4984
 -85.4991
 -85.5023
 -85.4699
 -85.4674
 -85.4715
 -85.4718
 -85.5547
 -85.5558
 -85.5593
 -85.4648
 -85.4646
 -85.467
 -85.4668
 -85.5041
 -85.5066
 -85.4395
 -85.4433
 -85.4419
 -85.44
 -85.4447
 -85.4417
 -85.4432
 -85.4419
 -85.5572
 -85.556
 -85.4507
 -85.4535
 -85.452
 -85.4489
 -85.4982
 -85.4953
 -85.4966
 -85.4985
 -85.4746
 -85.4154
 -85.4117
 -85.4129
 -85.5081
 -85.5073
 -85.5079
 -85.5054
 -85.5595
 -85.5597
 -85.5582
 -85.5607
 -85.4143
 -85.4159
 -85.4165
 -85.4126
 -85.4474
 -85.4496
 -85.4466
 -85.4473
 -85.5229
 -85.5243
 -85.5244
 -85.4193
 -85.4189
 -85.4219
 -85.4224
 -85.5719
 -85.5701
 -85.5709
 -85.5723
 -85.4312
 -85.4329
 -85.4336
 -85.4298
 -85.5198
 -85.5168
 -85.5189
 -85.5216
 -85.4764
 -85.4791
 -85.4779
 -85.4758
 -85.4424
 -85.4436
 -85.4423
 -85.4703
 -85.4741
 -85.4702
 -85.4732
 -85.4426
 -85.4401
 -85.4417
 -85.4418
 -85.4483
 -85.446
 -85.4471
 -85.5376
 -85.5348
 -85.5383
 -85.5334
 -85.5308
 -85.49
 -85.4969
 -85.4924
 -85.4926
 -85.5633
 -85.5624
 -85.561
 -85.5623
 -85.5093
 -85.513
 -85.5075
 -85.5119
 -85.5187
 -85.521
 -85.5186
 -85.5178
 -85.4464
 -85.4453
 -85.4483
 -85.4507
 -85.4492
 -85.5186
 -85.5153
 -85.5173
 -85.5197
 -85.5613
 -85.5643
 -85.5007
 -85.5018
 -85.4984
 -85.5023
 -85.4416
 -85.441
 -85.443
 -85.5542
 -85.5561
 -85.5536
 -85.5546
 -85.5017
 -85.4971
 -85.4989
 -85.4997
 -85.4457
 -85.4444
 -85.446
 -85.447
 -85.4919
 -85.4916
 -85.4963
 -85.4929
 -85.5164
 -85.5219
 -85.4267
 -85.4252
 -85.426
 -85.4245
 -85.4479
 -85.4541
 -85.4557
 -85.4541
 -85.4568
 -85.4558
 -85.4546
 -85.4503
 -85.4512
 -85.4537
 -85.4997
 -85.4989
 -85.4986
 -85.5128
 -85.5114
 -85.5102
 -85.5087
 -85.4588
 -85.4583
 -85.4591
 -85.4585
 -85.4789
 -85.4779
 -85.5053
 -85.5032
 -85.5046
 -85.5026
 -85.5059
 -85.5058
 -85.4924
 -85.4954
 -85.4963
 -85.4928
 -85.387
 -85.3929
 -85.3919
 -85.3937
 -85.5042
 -85.4427
 -85.4451
 -85.4433
 -85.4428
 -85.5684
 -85.5699
 -85.568
 -85.5317
 -85.531
 -85.5288
 -85.532
 -85.4899
 -85.4913
 -85.4899
 -85.4851
 -85.5016
 -85.5039
 -85.4999
 -85.4521
 -85.4545
 -85.4535
 -85.4518
 -85.5555
 -85.5575
 -85.5534
 -85.5562
 -85.5208
 -85.5196
 -85.5221
 -85.521
 -85.5558
 -85.5568
 -85.5529
 -85.5551
 -85.4306
 -85.4305
 -85.4282
 -85.4284
 -85.457
 -85.4595
 -85.5368
 -85.5356
 -85.5343
 -85.5361
 -85.5613
 -85.5609
 -85.5615
 -85.5604
 -85.5765
 -85.5773
 -85.5757
 -85.5775
 -85.5585
 -85.5564
 -85.5582
 -85.518
 -85.5212
 -85.5175
 -85.5198
 -85.56
 -85.5611
 -85.5614
 -85.5611
 -85.4328
 -85.4355
 -85.4381
 -85.435
 -85.5467
 -85.549
 -85.5492
 -85.5196
 -85.5186
 -85.5177
 -85.5176
 -85.4421
 -85.4409
 -85.442
 -85.4404
 -85.5233
 -85.5266
 -85.5247
 -85.5249
 -85.5099
 -85.5123
 -85.5135
 -85.5101
 -85.4593
 -85.4607
 -85.4632
 -85.4652
 -85.4296
 -85.4301
 -85.4267
 -85.4268
 -85.4822
 -85.4833
 -85.4862
 -85.4829
 -85.3778
 -85.3779
 -85.385
 -85.3806
 -85.4458
 -85.448
 -85.4454
 -85.453
 -85.4495
 -85.4493
 -85.4485
 -85.3588
 -85.3597
 -85.3551
 -85.3617
 -85.5541
 -85.5524
 -85.5528
 -85.5429
 -85.5433
 -85.5458
 -85.5453
 -85.4553
 -85.4608
 -85.4591
 -85.4086
 -85.4103
 -85.4081
 -85.4276
 -85.4251
 -85.428
 -85.4283
 -85.4588
 -85.4584
 -85.461
 -85.4562
 -85.52
 -85.5247
 -85.5226
 -85.5219
 -85.3889
 -85.388
 -85.3905
 -85.3861
 -85.5131
 -85.508
 -85.5077
 -85.5122
 -85.5419
 -85.5433
 -85.5397
 -85.5419
 -85.5064
 -85.5062
 -85.5112
 -85.5088
 -85.4856
 -85.4829
 -85.4877
 -85.4443
 -85.4442
 -85.4443
 -85.4459
 -85.5569
 -85.5587
 -85.5595
 -85.5584
 -85.5472
 -85.549
 -85.5469
 -85.5453
 -85.4579
 -85.4606
 -85.4589
 -85.4564
 -85.5621
 -85.5633
 -85.5645
 -85.5608
 -85.5642
 -85.5619
 -85.562
 -85.564
 -85.5641
 -85.5621
 -85.563
 -85.4002
 -85.3993
 -85.3599
 -85.3611
 -85.3588
 -85.364
 -85.515
 -85.5136
 -85.5114
 -85.4907
 -85.4886
 -85.4936
 -85.4892
 -85.498
 -85.5016
 -85.5005
 -85.4984
 -85.3168
 -85.4805
 -85.5117
 -85.5149
 -85.5469
 -85.5483
 -85.5477
 -85.5475
 -85.4089
 -85.4712
 -85.4741
 -85.4712
 -85.5783
 -85.5775
 -85.5775
 -85.5775
 -85.4986
 -85.4962
 -85.4988
 -85.5016
 -85.5638
 -85.5625
 -85.5642
 -85.5617
 -85.4844
 -85.4882
 -85.4813
 -85.4752
 -85.4792
 -85.4766
 -85.5553
 -85.5557
 -85.5531
 -85.5557
 -85.5134
 -85.5113
 -85.5091
 -85.5079
 -85.4344
 -85.4321
 -85.4363
 -85.4356
 -85.5437
 -85.5484
 -85.5468
 -85.5647
 -85.5676
 -85.5677
 -85.5647
 -85.545
 -85.5441
 -85.5425
 -85.5442
 -85.456
 -85.4558
 -85.4619
 -85.4555
 -85.4641
 -85.4618
 -85.4623
 -85.4623
 -85.5556
 -85.5572
 -85.5571
 -85.5572
 -85.4795
 -85.4801
 -85.4766
 -85.5387
 -85.5387
 -85.5379
 -85.5362
 -85.4393
 -85.4424
 -85.4377
 -85.4383
 -85.5168
 -85.5183
 -85.5141
 -85.5159
 -85.4385
 -85.4409
 -85.4386
 -85.4384
 -85.5043
 -85.5062
 -85.5032
 -85.5054
 -85.5415
 -85.5414
 -85.5439
 -85.5397
 -85.4316
 -85.4305
 -85.433
 -85.4999
 -85.5028
 -85.5509
 -85.5498
 -85.5493
 -85.5477
 -85.4789
 -85.4766
 -85.4763
 -85.4346
 -85.4323
 -85.4312
 -85.4325
 -85.5257
 -85.5268
 -85.5255
 -85.5279
 -85.5169
 -85.5165
 -85.5215
 -85.5179
 -85.335
 -85.3353
 -85.3403
 -85.3364
 -85.4967
 -85.4928
 -85.495
 -85.3756
 -85.3794
 -85.3807
 -85.4981
 -85.4967
 -85.4944
 -85.497
 -85.4933
 -85.4299
 -85.4313
 -85.4253
 -85.4277
 -85.4856
 -85.4892
 -85.4897
 -85.5471
 -85.5471
 -85.5472
 -85.5459
 -85.4889
 -85.4905
 -85.4925
 -85.4925
 -85.4937
 -85.4928
 -85.4925
 -85.5755
 -85.5749
 -85.5744
 -85.5732
 -85.4491
 -85.4559
 -85.4544
 -85.4525
 -85.4259
 -85.4259
 -85.4274
 -85.4274
 -85.4734
 -85.4726
 -85.4772
 -85.4737
 -85.5522
 -85.5527
 -85.5536
 -85.5502
 -85.3322
 -85.3362
 -85.3318
 -85.3381
 -85.539
 -85.5358
 -85.5376
 -85.5377
 -85.4241
 -85.4219
 -85.4241
 -85.4233
 -85.5468
 -85.5407
 -85.5427
 -85.5454
 -85.5363
 -85.5348
 -85.5332
 -85.535
 -85.5392
 -85.5403
 -85.4579
 -85.4554
 -85.4551
 -85.4572
 -85.558
 -85.5584
 -85.5582
 -85.5339
 -85.5299
 -85.5313
 -85.5345
 -85.4522
 -85.4554
 -85.4533
 -85.4505
 -85.4702
 -85.4689
 -85.4729
 -85.314
 -85.3142
 -85.3126
 -85.314
 -85.4921
 -85.4882
 -85.4931
 -85.5585
 -85.5602
 -85.5579
 -85.5573
 -85.5409
 -85.5388
 -85.5536
 -85.5564
 -85.5577
 -85.555
 -85.5287
 -85.5291
 -85.418
 -85.4184
 -85.4146
 -85.4208
 -85.5383
 -85.5381
 -85.5383
 -85.5354
 -85.4977
 -85.4994
 -85.4699
 -85.4718
 -85.4706
 -85.4697
 -85.5451
 -85.5467
 -85.5471
 -85.5465
 -85.4593
 -85.4536
 -85.4543
 -85.4583
 -85.5561
 -85.5561
 -85.5584
 -85.5611
 -85.5092
 -85.5098
 -85.5064
 -85.4178
 -85.4163
 -85.4156
 -85.4175
 -85.5196
 -85.5193
 -85.5181
 -85.5162
 -85.4492
 -85.4457
 -85.4453
 -85.4434
 -85.4535
 -85.449
 -85.4521
 -85.3276
 -85.3268
 -85.328
 -85.3301
 -85.4294
 -85.4336
 -85.4347
 -85.4307
 -85.5404
 -85.5391
 -85.5419
 -85.5389
 -85.4938
 -85.4951
 -85.4913
 -85.4741
 -85.4435
 -85.4454
 -85.4442
 -85.4458
 -85.48
 -85.4769
 -85.4794
 -85.4809
 -85.5306
 -85.5351
 -85.5355
 -85.5314
 -85.4382
 -85.4385
 -85.4446
 -85.4099
 -85.5081
 -85.5094
 -85.5059
 -85.5111
 -85.4447
 -85.4487
 -85.368
 -85.3639
 -85.4423
 -85.445
 -85.4426
 -85.4391
 -85.5298
 -85.5321
 -85.5508
 -85.5506
 -85.5514
 -85.5502
 -85.4698
 -85.4729
 -85.4729
 -85.473
 -85.5663
 -85.5669
 -85.5683
 -85.567
 -85.4664
 -85.4673
 -85.4606
 -85.4605
 -85.5376
 -85.5381
 -85.5359
 -85.5332
 -85.4538
 -85.454
 -85.4557
 -85.4554
 -85.5371
 -85.5385
 -85.535
 -85.5372
 -85.4797
 -85.4836
 -85.5605
 -85.5596
 -85.527
 -85.5296
 -85.5263
 -85.53
 -85.5249
 -85.5237
 -85.5242
 -85.5275
 -85.5036
 -85.502
 -85.5049
 -85.5045
 -85.5363
 -85.5334
 -85.5375
 -85.539
 -85.4522
 -85.4491
 -85.4508
 -85.4506
 -85.5591
 -85.5585
 -85.5582
 -85.5614
 -85.5627
 -85.5607
 -85.562
 -85.4385
 -85.442
 -85.4419
 -85.4403
 -85.5276
 -85.5241
 -85.5247
 -85.5262
 -85.4339
 -85.4379
 -85.4379
 -85.4414
 -85.5012
 -85.4889
 -85.4936
 -85.4936
 -85.4894
 -85.5456
 -85.5457
 -85.5455
 -85.5428
 -85.3819
 -85.3782
 -85.3804
 -85.3848
 -85.526
 -85.5277
 -85.5298
 -85.5271
 -85.4963
 -85.4995
 -85.4927
 -85.4955
 -85.5338
 -85.5315
 -85.5311
 -85.5307
 -85.52
 -85.5755
 -85.575
 -85.5727
 -85.5737
 -85.5397
 -85.5403
 -85.5367
 -85.5372
 -85.3644
 -85.3661
 -85.3694
 -85.3642
 -85.4803
 -85.4769
 -85.4753
 -85.4781
 -85.4622
 -85.4987
 -85.4992
 -85.4999
 -85.5027
 -85.5555
 -85.5557
 -85.5532
 -85.552
 -85.5477
 -85.5471
 -85.5502
 -85.5548
 -85.5502
 -85.5523
 -85.5514
 -85.3332
 -85.3346
 -85.5365
 -85.5353
 -85.535
 -85.459
 -85.4588
 -85.4579
 -85.4617
 -85.5308
 -85.5294
 -85.5308
 -85.5282
 -85.5034
 -85.5259
 -85.5227
 -85.526
 -85.5251
 -85.5602
 -85.5558
 -85.5573
 -85.5599
 -85.5246
 -85.5268
 -85.5299
 -85.5251
 -85.4784
 -85.4798
 -85.4747
 -85.4824
 -85.4416
 -85.4421
 -85.4407
 -85.4426
 -85.5729
 -85.5708
 -85.5731
 -85.5725
 -85.5313
 -85.5303
 -85.5322
 -85.529
 -85.571
 -85.5703
 -85.5706
 -85.5718
 -85.4598
 -85.4547
 -85.4598
 -85.4606
 -85.5015
 -85.4998
 -85.56
 -85.5631
 -85.56
 -85.5614
 -85.5026
 -85.5031
 -85.503
 -85.5064
 -85.4914
 -85.4946
 -85.5022
 -85.5029
 -85.5058
 -85.502
 -85.5493
 -85.5493
 -85.5483
 -85.5514
 -85.4689
 -85.4648
 -85.463
 -85.4667
 -85.412
 -85.415
 -85.4123
 -85.4121
 -85.434
 -85.4325
 -85.4327
 -85.4322
 -85.4649
 -85.4672
 -85.4677
 -85.4644
 -85.4817
 -85.4771
 -85.4802
 -85.4881
 -85.4833
 -85.486
 -85.4867
 -85.4994
 -85.4977
 -85.4962
 -85.4992
 -85.4112
 -85.4111
 -85.4125
 -85.4763
 -85.4734
 -85.4778
 -85.4769
 -85.505
 -85.5079
 -85.5076
 -85.5036
 -85.455
 -85.4507
 -85.4559
 -85.4511
 -85.4672
 -85.4698
 -85.4696
 -85.469
 -85.5079
 -85.5076
 -85.51
 -85.5123
 -85.4978
 -85.4947
 -85.4972
 -85.4965
 -85.5277
 -85.5263
 -85.5271
 -85.5258
 -85.4311
 -85.4321
 -85.4331
 -85.5441
 -85.5425
 -85.5458
 -85.5433
 -85.4558
 -85.4593
 -85.4563
 -85.454
 -85.4828
 -85.4815
 -85.4796
 -85.4841
 -85.4884
 -85.4915
 -85.4922
 -85.5134
 -85.5134
 -85.5145
 -85.5168
 -85.5234
 -85.5235
 -85.5256
 -85.5218
 -85.5266
 -85.528
 -85.5299
 -85.5503
 -85.551
 -85.5515
 -85.5235
 -85.522
 -85.52
 -85.5215
 -85.5503
 -85.5514
 -85.5484
 -85.558
 -85.5581
 -85.5577
 -85.5558
 -85.4897
 -85.4835
 -85.4875
 -85.4853
 -85.4603
 -85.458
 -85.462
 -85.459
 -85.4493
 -85.55
 -85.5491
 -85.553
 -85.5487
 -85.5508
 -85.5461
 -85.324
 -85.3222
 -85.3243
 -85.3267
 -85.5376
 -85.5352
 -85.4814
 -85.4801
 -85.484
 -85.5706
 -85.5721
 -85.5146
 -85.5102
 -85.5116
 -85.5126
 -85.4795
 -85.4813
 -85.4814
 -85.5386
 -85.5435
 -85.5411
 -85.5424
 -85.4628
 -85.4639
 -85.4615
 -85.4657
 -85.353
 -85.3569
 -85.3558
 -85.3513
 -85.511
 -85.5115
 -85.5106
 -85.5141
 -85.5472
 -85.552
 -85.5478
 -85.5418
 -85.5412
 -85.5422
 -85.5401
 -85.4529
 -85.4484
 -85.4484
 -85.4464
 -85.458
 -85.4605
 -85.4388
 -85.442
 -85.4376
 -85.5696
 -85.5678
 -85.5453
 -85.5424
 -85.5454
 -85.5423
 -85.5006
 -85.5046
 -85.5035
 -85.5367
 -85.5336
 -85.5394
 -85.5386
 -85.4555
 -85.4496
 -85.4507
 -85.4535
 -85.4944
 -85.494
 -85.4974
 -85.4981
 -85.4934
 -85.4956
 -85.4965
 -85.4937
 -85.4484
 -85.45
 -85.4476
 -85.4596
 -85.4572
 -85.4593
 -85.4586
 -85.5763
 -85.5774
 -85.5767
 -85.5782
 -85.4229
 -85.4179
 -85.5565
 -85.5583
 -85.5579
 -85.5564
 -85.4851
 -85.4885
 -85.487
 -85.4851
 -85.5058
 -85.508
 -85.5079
 -85.5085
 -85.4336
 -85.4357
 -85.4975
 -85.4951
 -85.495
 -85.4928
 -85.4823
 -85.4807
 -85.4798
 -85.4834
 -85.5474
 -85.5472
 -85.5463
 -85.548
 -85.4889
 -85.4919
 -85.4921
 -85.488
 -85.4612
 -85.4617
 -85.5177
 -85.5178
 -85.516
 -85.5183
 -85.5308
 -85.5302
 -85.5325
 -85.5013
 -85.5047
 -85.5034
 -85.5054
 -85.4451
 -85.4473
 -85.4441
 -85.449
 -85.3516
 -85.3566
 -85.3555
 -85.3506
 -85.4912
 -85.4896
 -85.493
 -85.4962
 -85.5082
 -85.5118
 -85.5085
 -85.5087
 -85.4783
 -85.4803
 -85.4764
 -85.4772
 -85.463
 -85.4611
 -85.4637
 -85.4654
 -85.5485
 -85.5505
 -85.5174
 -85.5159
 -85.5142
 -85.3904
 -85.3887
 -85.3861
 -85.3914
 -85.4511
 -85.4484
 -85.4521
 -85.4465
 -85.5024
 -85.5029
 -85.5016
 -85.4999
 -85.5486
 -85.5495
 -85.5493
 -85.4852
 -85.4835
 -85.4796
 -85.4797
 -85.4584
 -85.463
 -85.4612
 -85.4582
 -85.5338
 -85.53
 -85.53
 -85.5319
 -85.513
 -85.5121
 -85.5107
 -85.511
 -85.541
 -85.5415
 -85.5411
 -85.5393
 -85.5396
 -85.54
 -85.5394
 -85.4746
 -85.4757
 -85.4725
 -85.4715
 -85.4889
 -85.487
 -85.4902
 -85.3616
 -85.3627
 -85.3623
 -85.3594
 -85.4613
 -85.4616
 -85.4205
 -85.4178
 -85.422
 -85.4244
 -85.4477
 -85.4359
 -85.553
 -85.4627
 -85.4593
 -85.4615
 -85.4579
 -85.573
 -85.5171
 -85.515
 -85.5169
 -85.5131
 -85.4612
 -85.4635
 -85.462
 -85.4758
 -85.4791
 -85.4791
 -85.5435
 -85.5441
 -85.5407
 -85.5438
 -85.5447
 -85.5432
 -85.545
 -85.543
 -85.4413
 -85.4366
 -85.4367
 -85.4398
 -85.5631
 -85.5632
 -85.5647
 -85.5618
 -85.4945
 -85.4919
 -85.4886
 -85.5437
 -85.5452
 -85.5447
 -85.5062
 -85.5031
 -85.5042
 -85.5068
 -85.4629
 -85.4648
 -85.461
 -85.4618
 -85.5084
 -85.5129
 -85.5082
 -85.4676
 -85.4694
 -85.4692
 -85.4658
 -85.485
 -85.4896
 -85.5457
 -85.5477
 -85.5484
 -85.5505
 -85.5532
 -85.5562
 -85.5544
 -85.5537
 -85.4461
 -85.4496
 -85.4451
 -85.4488
 -85.5307
 -85.5268
 -85.5292
 -85.5318
 -85.5147
 -85.51
 -85.5135
 -85.5164
 -85.4795
 -85.4763
 -85.4813
 -85.4785
 -85.55
 -85.5486
 -85.5479
 -85.5463
 -85.4863
 -85.4827
 -85.4884
 -85.4865
 -85.4954
 -85.4936
 -85.4934
 -85.4984
 -85.4849
 -85.4827
 -85.4856
 -85.4861
 -85.4516
 -85.4555
 -85.4417
 -85.4442
 -85.4467
 -85.4422
 -85.413
 -85.4077
 -85.4124
 -85.4136
 -85.5157
 -85.5154
 -85.5143
 -85.5181
 -85.5093
 -85.5068
 -85.5061
 -85.5659
 -85.5663
 -85.5664
 -85.5662
 -85.5689
 -85.5703
 -85.568
 -85.5565
 -85.5578
 -85.5545
 -85.507
 -85.5108
 -85.5126
 -85.508
 -85.5259
 -85.5274
 -85.529
 -85.5241
 -85.5456
 -85.5478
 -85.5465
 -85.5482
 -85.4649
 -85.4614
 -85.4623
 -85.4643
 -85.4238
 -85.4264
 -85.4286
 -85.4284
 -85.5714
 -85.572
 -85.5695
 -85.5733
 -85.4566
 -85.4555
 -85.4534
 -85.457
 -85.5017
 -85.5014
 -85.5032
 -85.5007
 -85.5728
 -85.5726
 -85.5702
 -85.5744
 -85.5171
 -85.5138
 -85.5182
 -85.517
 -85.4829
 -85.4815
 -85.4833
 -85.4817
 -85.4587
 -85.4559
 -85.4566
 -85.4358
 -85.4398
 -85.4374
 -85.4353
 -85.4484
 -85.4475
 -85.4491
 -85.447
 -85.4435
 -85.4432
 -85.4539
 -85.4561
 -85.4497
 -85.5396
 -85.5377
 -85.5374
 -85.537
 -85.5638
 -85.5629
 -85.5631
 -85.563
 -85.5232
 -85.5219
 -85.5234
 -85.5192
 -85.487
 -85.5509
 -85.552
 -85.5518
 -85.5499
 -85.4391
 -85.4391
 -85.4387
 -85.4384
 -85.5657
 -85.5667
 -85.5653
 -85.568
 -85.4714
 -85.4695
 -85.4742
 -85.5305
 -85.4362
 -85.4358
 -85.4329
 -85.4518
 -85.4495
 -85.4472
 -85.4529
 -85.4997
 -85.4994
 -85.4946
 -85.4983
 -85.536
 -85.5359
 -85.5338
 -85.5382
 -85.4871
 -85.53
 -85.5284
 -85.5282
 -85.4891
 -85.4887
 -85.4893
 -85.4928
 -85.468
 -85.4689
 -85.4665
 -85.4662
 -85.4761
 -85.4723
 -85.475
 -85.4761
 -85.5312
 -85.4558
 -85.4567
 -85.458
 -85.5385
 -85.5367
 -85.5396
 -85.5377
 -85.5498
 -85.5489
 -85.5521
 -85.5479
 -85.5616
 -85.5628
 -85.5613
 -85.4662
 -85.4664
 -85.4641
 -85.4662
 -85.428
 -85.426
 -85.428
 -85.543
 -85.5429
 -85.5483
 -85.5473
 -85.546
 -85.5459
 -85.4881
 -85.4895
 -85.4913
 -85.5675
 -85.5672
 -85.5688
 -85.5671
 -85.5489
 -85.5483
 -85.5494
 -85.55
 -85.5198
 -85.5204
 -85.5219
 -85.5229
 -85.5038
 -85.5048
 -85.5028
 -85.4999
 -85.4588
 -85.4585
 -85.4574
 -85.4599
 -85.5477
 -85.5477
 -85.5462
 -85.5496
 -85.4686
 -85.4696
 -85.4652
 -85.4782
 -85.481
 -85.482
 -85.4823
 -85.5624
 -85.5617
 -85.5647
 -85.5634
 -85.5283
 -85.5285
 -85.528
 -85.5264
 -85.5691
 -85.5677
 -85.5658
 -85.5685
 -85.4741
 -85.4763
 -85.4779
 -85.4773
 -85.5022
 -85.5029
 -85.4997
 -85.5055
 -85.5547
 -85.5542
 -85.556
 -85.5551
 -85.4988
 -85.5014
 -85.4971
 -85.498
 -85.5693
 -85.5709
 -85.5694
 -85.4635
 -85.462
 -85.462
 -85.4625
 -85.5093
 -85.5093
 -85.5077
 -85.5061
 -85.5163
 -85.5191
 -85.5165
 -85.5173
 -85.4942
 -85.4925
 -85.4976
 -85.4937
 -85.5497
 -85.5498
 -85.5526
 -85.5504
 -85.4922
 -85.4883
 -85.4906
 -85.4898
 -85.5161
 -85.5153
 -85.5152
 -85.5139
 -85.4377
 -85.4377
 -85.4373
 -85.4378
 -85.5425
 -85.543
 -85.5407
 -85.5393
 -85.4331
 -85.4329
 -85.4329
 -85.4591
 -85.4573
 -85.4573
 -85.4594
 -85.4428
 -85.445
 -85.4515
 -85.446
 -85.534
 -85.5332
 -85.5351
 -85.5367
 -85.5234
 -85.5272
 -85.5238
 -85.5248
 -85.4705
 -85.4672
 -85.4676
 -85.4654
 -85.5751
 -85.574
 -85.5728
 -85.3636
 -85.3624
 -85.5149
 -85.517
 -85.5131
 -85.5151
 -85.4001
 -85.3951
 -85.39
 -85.3941
 -85.523
 -85.5239
 -85.5271
 -85.5253
 -85.4794
 -85.4703
 -85.4685
 -85.4679
 -85.4658
 -85.5377
 -85.538
 -85.5387
 -85.5399
 -85.5563
 -85.5546
 -85.5576
 -85.5556
 -85.4376
 -85.4376
 -85.5294
 -85.531
 -85.5352
 -85.5308
 -85.5077
 -85.5018
 -85.5087
 -85.5054
 -85.4566
 -85.4564
 -85.4545
 -85.4612
 -85.4921
 -85.4886
 -85.4882
 -85.492
 -85.5455
 -85.5426
 -85.549
 -85.5649
 -85.5642
 -85.5643
 -85.5641
 -85.5717
 -85.5717
 -85.5725
 -85.4719
 -85.4701
 -85.4707
 -85.473
 -85.5568
 -85.5555
 -85.5543
 -85.5543
 -85.4451
 -85.4428
 -85.4437
 -85.4441
 -85.5222
 -85.5205
 -85.5225
 -85.5184
 -85.5077
 -85.5116
 -85.5084
 -85.5085
 -85.5644
 -85.5645
 -85.5642
 -85.5656
 -85.5269
 -85.528
 -85.5264
 -85.5244
 -85.3864
 -85.3839
 -85.3834
 -85.3868
 -85.4865
 -85.4809
 -85.4858
 -85.4827
 -85.4704
 -85.4742
 -85.4748
 -85.4697
 -85.535
 -85.5358
 -85.5333
 -85.5318
 -85.4484
 -85.4464
 -85.4456
 -85.4458
 -85.5132
 -85.5109
 -85.5105
 -85.5142
 -85.4648
 -85.4632
 -85.4616
 -85.4215
 -85.4196
 -85.4188
 -85.4184
 -85.5129
 -85.5161
 -85.5116
 -85.5201
 -85.5199
 -85.5185
 -85.4557
 -85.4534
 -85.451
 -85.4457
 -85.4454
 -85.4468
 -85.448
 -85.5553
 -85.3189
 -85.3209
 -85.3199
 -85.3168
 -85.549
 -85.5477
 -85.5508
 -85.5487
 -85.4365
 -85.4767
 -85.4759
 -85.4757
 -85.4793
 -85.4708
 -85.4682
 -85.4753
 -85.451
 -85.4562
 -85.4538
 -85.4523
 -85.393
 -85.3926
 -85.3957
 -85.3892
 -85.4444
 -85.4466
 -85.446
 -85.5047
 -85.5031
 -85.5029
 -85.4718
 -85.4705
 -85.5772
 -85.5753
 -85.5752
 -85.4432
 -85.4468
 -85.4423
 -85.4735
 -85.4762
 -85.4776
 -85.5565
 -85.5588
 -85.5587
 -85.5375
 -85.5376
 -85.5398
 -85.538
 -85.4564
 -85.4577
 -85.4593
 -85.4324
 -85.4291
 -85.5638
 -85.5626
 -85.5651
 -85.5643
 -85.4057
 -85.4074
 -85.4018
 -85.4101
 -85.4426
 -85.4414
 -85.3507
 -85.3472
 -85.3754
 -85.3746
 -85.3761
 -85.4757
 -85.4786
 -85.4746
 -85.5617
 -85.5595
 -85.5576
 -85.5282
 -85.528
 -85.5305
 -85.4601
 -85.4601
 -85.4634
 -85.4654
 -85.4622
 -85.5532
 -85.4317
 -85.4316
 -85.433
 -85.433
 -85.472
 -85.478
 -85.4734
 -85.4744
 -85.5349
 -85.5351
 -85.5369
 -85.5273
 -85.5278
 -85.5259
 -85.5267
 -85.476
 -85.4745
 -85.4779
 -85.4808
 -85.5316
 -85.5321
 -85.5351
 -85.5348
 -85.5388
 -85.537
 -85.5384
 -85.541
 -85.4949
 -85.5301
 -85.5317
 -85.5317
 -85.533
 -85.5683
 -85.5693
 -85.568
 -85.5671
 -85.4499
 -85.4439
 -85.4426
 -85.4465
 -85.5644
 -85.5665
 -85.5655
 -85.5651
 -85.3452
 -85.349
 -85.3447
 -85.5612
 -85.5598
 -85.5633
 -85.5626
 -85.4519
 -85.4513
 -85.4479
 -85.4481
 -85.5442
 -85.5415
 -85.5435
 -85.5455
 -85.4436
 -85.4438
 -85.4362
 -85.438
 -85.5682
 -85.5436
 -85.5403
 -85.542
 -85.5394
 -85.5553
 -85.557
 -85.5567
 -85.4318
 -85.4334
 -85.4312
 -85.43
 -85.5331
 -85.5312
 -85.5309
 -85.5293
 -85.5125
 -85.516
 -85.5161
 -85.5145
 -85.5072
 -85.5089
 -85.5054
 -85.5047
 -85.5747
 -85.5728
 -85.4812
 -85.4813
 -85.4809
 -85.476
 -85.479
 -85.4805
 -85.4818
 -85.5313
 -85.529
 -85.5336
 -85.5345
 -85.5285
 -85.5297
 -85.5294
 -85.5321
 -85.5145
 -85.5156
 -85.5172
 -85.5136
 -85.4549
 -85.4544
 -85.4649
 -85.463
 -85.4626
 -85.4739
 -85.4764
 -85.4764
 -85.4768
 -85.4237
 -85.4206
 -85.422
 -85.4216
 -85.4726
 -85.4692
 -85.4665
 -85.3918
 -85.392
 -85.3959
 -85.4726
 -85.4726
 -85.4698
 -85.475
 -85.4526
 -85.4564
 -85.4505
 -85.4928
 -85.5332
 -85.5314
 -85.5353
 -85.481
 -85.4805
 -85.4829
 -85.4845
 -85.441
 -85.4409
 -85.4491
 -85.4452
 -85.4976
 -85.5005
 -85.5011
 -85.5011
 -85.542
 -85.5402
 -85.5748
 -85.5735
 -85.5726
 -85.5748
 -85.532
 -85.5324
 -85.5339
 -85.5301
 -85.4855
 -85.4851
 -85.4847
 -85.4869
 -85.5679
 -85.5683
 -85.5714
 -85.5667
 -85.5672
 -85.5678
 -85.5685
 -85.5005
 -85.4974
 -85.4953
 -85.4989
 -85.4409
 -85.4401
 -85.4422
 -85.4813
 -85.4811
 -85.485
 -85.4811
 -85.4277
 -85.4239
 -85.4289
 -85.4233
 -85.5228
 -85.523
 -85.5238
 -85.5166
 -85.4383
 -85.4383
 -85.4382
 -85.4389
 -85.4575
 -85.4593
 -85.4602
 -85.4589
 -85.5623
 -85.5597
 -85.5631
 -85.5604
 -85.4996
 -85.4998
 -85.4968
 -85.5
 -85.4717
 -85.4698
 -85.4728
 -85.47
 -85.5369
 -85.5369
 -85.5395
 -85.5438
 -85.5423
 -85.5418
 -85.4778
 -85.4816
 -85.4802
 -85.485
 -85.4865
 -85.4888
 -85.4875
 -85.4875
 -85.4414
 -85.4435
 -85.4408
 -85.4754
 -85.473
 -85.4709
 -85.3309
 -85.3271
 -85.331
 -85.3285
 -85.4598
 -85.4609
 -85.4314
 -85.4336
 -85.4318
 -85.4282
 -85.5089
 -85.5056
 -85.5085
 -85.5048
 -85.3945
 -85.4
 -85.4015
 -85.3976
 -85.4497
 -85.4491
 -85.4463
 -85.5264
 -85.527
 -85.5263
 -85.525
 -85.4477
 -85.4509
 -85.4466
 -85.4388
 -85.4395
 -85.4352
 -85.4367
 -85.472
 -85.4704
 -85.4706
 -85.4743
 -85.5375
 -85.544
 -85.3742
 -85.3764
 -85.4568
 -85.4544
 -85.4878
 -85.4846
 -85.486
 -85.4851
 -85.5221
 -85.5248
 -85.5225
 -85.5259
 -85.4929
 -85.4933
 -85.4951
 -85.4956
 -85.429
 -85.4229
 -85.4271
 -85.4261
 -85.5105
 -85.5072
 -85.5084
 -85.4418
 -85.4403
 -85.4415
 -85.4413
 -85.5569
 -85.5562
 -85.5584
 -85.5553
 -85.5239
 -85.5241
 -85.5246
 -85.5213
 -85.4452
 -85.4471
 -85.4442
 -85.4852
 -85.4812
 -85.4848
 -85.4863
 -85.4303
 -85.4292
 -85.4306
 -85.4481
 -85.4522
 -85.4508
 -85.4487
 -85.4479
 -85.4472
 -85.4504
 -85.4482
 -85.4843
 -85.481
 -85.4807
 -85.4791
 -85.5679
 -85.567
 -85.5659
 -85.5664
 -85.5154
 -85.5191
 -85.5176
 -85.5186
 -85.4818
 -85.4775
 -85.4804
 -85.5021
 -85.5007
 -85.5003
 -85.5549
 -85.5514
 -85.5547
 -85.5526
 -85.5159
 -85.516
 -85.5134
 -85.5177
 -85.479
 -85.4821
 -85.4822
 -85.4829
 -85.424
 -85.4243
 -85.4446
 -85.4431
 -85.446
 -85.446
 -85.3618
 -85.36
 -85.3549
 -85.3604
 -85.5354
 -85.5357
 -85.5357
 -85.5341
 -85.4511
 -85.4478
 -85.4487
 -85.4484
 -85.4936
 -85.4908
 -85.4924
 -85.4886
 -85.4166
 -85.4148
 -85.4155
 -85.4145
 -85.504
 -85.5028
 -85.5014
 -85.5012
 -85.4848
 -85.5299
 -85.5295
 -85.5264
 -85.5272
 -85.4794
 -85.4751
 -85.4744
 -85.4778
 -85.4761
 -85.4783
 -85.4807
 -85.4793
 -85.4676
 -85.4641
 -85.4649
 -85.4636
 -85.4426
 -85.4392
 -85.4446
 -85.5453
 -85.5458
 -85.5464
 -85.5414
 -85.4767
 -85.4758
 -85.4757
 -85.4744
 -85.5426
 -85.5435
 -85.5458
 -85.5255
 -85.523
 -85.5248
 -85.524
 -85.5385
 -85.5425
 -85.5406
 -85.5431
 -85.4343
 -85.438
 -85.4338
 -85.3167
 -85.3184
 -85.3189
 -85.527
 -85.5309
 -85.5299
 -85.5043
 -85.5097
 -85.5073
 -85.5109
 -85.4716
 -85.473
 -85.4744
 -85.4711
 -85.4817
 -85.4827
 -85.4782
 -85.4792
 -85.3835
 -85.3861
 -85.379
 -85.387
 -85.4939
 -85.4923
 -85.4919
 -85.4916
 -85.5128
 -85.5136
 -85.5155
 -85.5111
 -85.4507
 -85.4515
 -85.4587
 -85.4528
 -85.4557
 -85.4562
 -85.5277
 -85.5254
 -85.5272
 -85.5266
 -85.449
 -85.4517
 -85.5168
 -85.5153
 -85.4306
 -85.3252
 -85.3246
 -85.3251
 -85.3287
 -85.4148
 -85.4189
 -85.5713
 -85.5735
 -85.5718
 -85.4241
 -85.4273
 -85.4305
 -85.4275
 -85.5311
 -85.5304
 -85.4577
 -85.4569
 -85.4574
 -85.4577
 -85.4673
 -85.4732
 -85.4712
 -85.5306
 -85.5326
 -85.5312
 -85.5343
 -85.5185
 -85.5216
 -85.5183
 -85.52
 -85.5487
 -85.5492
 -85.552
 -85.4823
 -85.479
 -85.4827
 -85.4782
 -85.4926
 -85.5489
 -85.5453
 -85.5482
 -85.5475
 -85.4328
 -85.4322
 -85.4335
 -85.4348
 -85.5002
 -85.4969
 -85.4997
 -85.4965
 -85.5356
 -85.5319
 -85.5346
 -85.5323
 -85.3467
 -85.3484
 -85.3503
 -85.3515
 -85.4452
 -85.568
 -85.4743
 -85.4788
 -85.4757
 -85.4724
 -85.4989
 -85.5014
 -85.4975
 -85.4967
 -85.4518
 -85.4475
 -85.4499
 -85.4509
 -85.5049
 -85.5035
 -85.505
 -85.5056
 -85.4429
 -85.4433
 -85.4458
 -85.4382
 -85.4406
 -85.4429
 -85.4405
 -85.4804
 -85.4834
 -85.4781
 -85.4807
 -85.5357
 -85.5376
 -85.5324
 -85.5746
 -85.5763
 -85.5748
 -85.5742
 -85.3815
 -85.3781
 -85.3768
 -85.4904
 -85.4907
 -85.4832
 -85.4847
 -85.481
 -85.486
 -85.5597
 -85.5589
 -85.5594
 -85.5606
 -85.5272
 -85.525
 -85.5265
 -85.5242
 -85.4418
 -85.4469
 -85.4436
 -85.4072
 -85.4789
 -85.4759
 -85.4767
 -85.4794
 -85.4866
 -85.4883
 -85.4877
 -85.5247
 -85.5233
 -85.5233
 -85.5256
 -85.5376
 -85.534
 -85.5365
 -85.5349
 -85.4753
 -85.4734
 -85.5288
 -85.5285
 -85.5303
 -85.5324
 -85.5072
 -85.5062
 -85.5065
 -85.5095
 -85.566
 -85.5669
 -85.5136
 -85.5105
 -85.5137
 -85.5121
 -85.5292
 -85.5305
 -85.5315
 -85.5322
 -85.5245
 -85.5264
 -85.5243
 -85.5247
 -85.4909
 -85.4924
 -85.481
 -85.4827
 -85.4798
 -85.4781
 -85.4656
 -85.4626
 -85.4643
 -85.4646
 -85.5063
 -85.5086
 -85.5085
 -85.5063
 -85.4399
 -85.4424
 -85.4439
 -85.4454
 -85.4515
 -85.4507
 -85.4495
 -85.4508
 -85.3711
 -85.3728
 -85.372
 -85.3677
 -85.465
 -85.46
 -85.5023
 -85.4976
 -85.5014
 -85.4995
 -85.4746
 -85.4734
 -85.4761
 -85.4779
 -85.4965
 -85.4986
 -85.4999
 -85.4978
 -85.4836
 -85.4834
 -85.5301
 -85.5288
 -85.5712
 -85.5717
 -85.5717
 -85.5724
 -85.4273
 -85.4816
 -85.4815
 -85.4827
 -85.4848
 -85.4962
 -85.4926
 -85.4936
 -85.4936
 -85.4594
 -85.4572
 -85.4562
 -85.4533
 -85.5234
 -85.5197
 -85.5233
 -85.52
 -85.4985
 -85.4962
 -85.4951
 -85.4983
 -85.4424
 -85.4417
 -85.4437
 -85.4399
 -85.4387
 -85.4707
 -85.4751
 -85.4709
 -85.4746
 -85.4706
 -85.4759
 -85.4716
 -85.4696
 -85.4432
 -85.4433
 -85.4405
 -85.443
 -85.452
 -85.4532
 -85.4576
 -85.4559
 -85.4837
 -85.4866
 -85.4816
 -85.4814
 -85.4439
 -85.4425
 -85.4415
 -85.4424
 -85.5031
 -85.5045
 -85.4999
 -85.4608
 -85.4606
 -85.4602
 -85.4595
 -85.3998
 -85.4029
 -85.5015
 -85.5035
 -85.5046
 -85.4993
 -85.5034
 -85.5016
 -85.5035
 -85.4327
 -85.435
 -85.4365
 -85.4236
 -85.4252
 -85.4252
 -85.4236
 -85.5152
 -85.5149
 -85.5166
 -85.5132
 -85.499
 -85.4945
 -85.4993
 -85.5415
 -85.5372
 -85.539
 -85.4883
 -85.4856
 -85.4863
 -85.5485
 -85.5488
 -85.5488
 -85.358
 -85.3547
 -85.3559
 -85.358
 -85.5666
 -85.5672
 -85.5662
 -85.5673
 -85.4651
 -85.4626
 -85.5066
 -85.5029
 -85.4411
 -85.4417
 -85.4414
 -85.4444
 -85.5116
 -85.5106
 -85.5144
 -85.5323
 -85.5346
 -85.5343
 -85.5348
 -85.5475
 -85.5437
 -85.4336
 -85.4339
 -85.4329
 -85.503
 -85.5023
 -85.4996
 -85.456
 -85.4523
 -85.456
 -85.4338
 -85.4337
 -85.4321
 -85.4311
 -85.4792
 -85.4802
 -85.4771
 -85.4812
 -85.4748
 -85.4711
 -85.4726
 -85.4741
 -85.5208
 -85.5197
 -85.5195
 -85.5228
 -85.5311
 -85.5295
 -85.5306
 -85.5276
 -85.4701
 -85.4693
 -85.4729
 -85.5157
 -85.5152
 -85.5133
 -85.5262
 -85.5285
 -85.5264
 -85.5269
 -85.5774
 -85.5767
 -85.5779
 -85.4923
 -85.4915
 -85.4913
 -85.5236
 -85.5253
 -85.5214
 -85.4877
 -85.4899
 -85.4861
 -85.4625
 -85.4586
 -85.4593
 -85.4347
 -85.4365
 -85.4355
 -85.436
 -85.4885
 -85.4877
 -85.4912
 -85.4884
 -85.4559
 -85.4544
 -85.4517
 -85.4412
 -85.4445
 -85.5226
 -85.5205
 -85.5252
 -85.5225
 -85.5227
 -85.5249
 -85.5219
 -85.5195
 -85.4439
 -85.4472
 -85.4488
 -85.45
 -85.4421
 -85.4393
 -85.4406
 -85.4389
 -85.4124
 -85.4106
 -85.4127
 -85.4095
 -85.5581
 -85.5592
 -85.5445
 -85.5414
 -85.5429
 -85.5447
 -85.5656
 -85.4608
 -85.4643
 -85.4601
 -85.4949
 -85.4962
 -85.4933
 -85.4929
 -85.4447
 -85.4441
 -85.4849
 -85.4847
 -85.4868
 -85.4299
 -85.4311
 -85.5403
 -85.5408
 -85.5433
 -85.5388
 -85.55
 -85.5494
 -85.5533
 -85.5516
 -85.5348
 -85.5357
 -85.5326
 -85.4643
 -85.4668
 -85.4666
 -85.5479
 -85.5477
 -85.5487
 -85.5495
 -85.4551
 -85.4506
 -85.4541
 -85.4557
 -85.5371
 -85.5353
 -85.5351
 -85.5371
 -85.4559
 -85.4518
 -85.4509
 -85.4577
 -85.4359
 -85.4375
 -85.4341
 -85.5661
 -85.5694
 -85.5675
 -85.5671
 -85.4394
 -85.4405
 -85.4401
 -85.4787
 -85.4803
 -85.4829
 -85.4804
 -85.5612
 -85.5636
 -85.5623
 -85.4547
 -85.4518
 -85.4547
 -85.4525
 -85.5149
 -85.5562
 -85.5575
 -85.5528
 -85.5557
 -85.4295
 -85.4304
 -85.4319
 -85.4304
 -85.5248
 -85.5201
 -85.5234
 -85.525
 -85.4932
 -85.4944
 -85.4895
 -85.4358
 -85.4337
 -85.4369
 -85.429
 -85.5179
 -85.5176
 -85.5195
 -85.4512
 -85.4502
 -85.3633
 -85.3594
 -85.3646
 -85.3662
 -85.4135
 -85.4062
 -85.4053
 -85.5493
 -85.5481
 -85.5542
 -85.5506
 -85.5503
 -85.5517
 -85.4207
 -85.4226
 -85.418
 -85.4229
 -85.4747
 -85.4766
 -85.4766
 -85.4771
 -85.4848
 -85.4804
 -85.4809
 -85.4826
 -85.5006
 -85.4994
 -85.5032
 -85.4996
 -85.5027
 -85.4975
 -85.5011
 -85.4986
 -85.5608
 -85.4419
 -85.4409
 -85.4422
 -85.4411
 -85.5626
 -85.5615
 -85.5638
 -85.5056
 -85.5022
 -85.5009
 -85.5019
 -85.4335
 -85.4369
 -85.4377
 -85.4974
 -85.4944
 -85.4967
 -85.4942
 -85.4888
 -85.52
 -85.5211
 -85.5242
 -85.5231
 -85.4573
 -85.4574
 -85.4572
 -85.4895
 -85.4953
 -85.4935
 -85.5631
 -85.5619
 -85.56
 -85.5618
 -85.4863
 -85.4848
 -85.4842
 -85.3484
 -85.3509
 -85.3456
 -85.4862
 -85.4839
 -85.4857
 -85.4809
 -85.5219
 -85.5247
 -85.5241
 -85.4922
 -85.4922
 -85.5485
 -85.5494
 -85.5471
 -85.5473
 -85.5349
 -85.5372
 -85.5356
 -85.5355
 -85.5685
 -85.568
 -85.5667
 -85.5658
 -85.5013
 -85.4952
 -85.4995
 -85.5012
 -85.5287
 -85.528
 -85.5267
 -85.5253
 -85.5486
 -85.5503
 -85.5518
 -85.4533
 -85.4552
 -85.4501
 -85.4519
 -85.4822
 -85.4857
 -85.4686
 -85.4664
 -85.4694
 -85.4679
 -85.522
 -85.5212
 -85.5218
 -85.5233
 -85.4862
 -85.4894
 -85.4881
 -85.4855
 -85.5204
 -85.519
 -85.5231
 -85.5197
 -85.4911
 -85.4924
 -85.4944
 -85.4951
 -85.4886
 -85.4855
 -85.4863
 -85.5454
 -85.5436
 -85.5453
 -85.5581
 -85.5574
 -85.5569
 -85.5608
 -85.5528
 -85.5525
 -85.5543
 -85.5295
 -85.5328
 -85.5299
 -85.3781
 -85.3764
 -85.3736
 -85.4819
 -85.4861
 -85.4828
 -85.5435
 -85.5449
 -85.5438
 -85.5432
 -85.4816
 -85.4832
 -85.4813
 -85.502
 -85.5039
 -85.5029
 -85.5006
 -85.5145
 -85.5078
 -85.5103
 -85.5097
 -85.4887
 -85.4911
 -85.491
 -85.4934
 -85.4472
 -85.4495
 -85.4475
 -85.4464
 -85.483
 -85.5022
 -85.5022
 -85.504
 -85.4981
 -85.439
 -85.4397
 -85.4402
 -85.44
 -85.4344
 -85.4371
 -85.4352
 -85.4367
 -85.4427
 -85.4436
 -85.4436
 -85.4414
 -85.5161
 -85.5161
 -85.5193
 -85.5211
 -85.4537
 -85.4515
 -85.4529
 -85.4537
 -85.5681
 -85.5659
 -85.5678
 -85.5661
 -85.4055
 -85.4075
 -85.4104
 -85.4098
 -85.4495
 -85.4498
 -85.4491
 -85.428
 -85.426
 -85.4252
 -85.4253
 -85.4386
 -85.4367
 -85.4408
 -85.4415
 -85.442
 -85.4942
 -85.4936
 -85.4955
 -85.5006
 -85.5588
 -85.5565
 -85.5556
 -85.558
 -85.5575
 -85.5589
 -85.5568
 -85.4455
 -85.4435
 -85.5649
 -85.5667
 -85.5643
 -85.5459
 -85.5454
 -85.5458
 -85.5481
 -85.4387
 -85.4373
 -85.4385
 -85.5675
 -85.5681
 -85.5666
 -85.5689
 -85.4663
 -85.4674
 -85.4697
 -85.4644
 -85.4436
 -85.4392
 -85.4408
 -85.4439
 -85.427
 -85.4315
 -85.4296
 -85.4288
 -85.392
 -85.3928
 -85.3899
 -85.3898
 -85.5094
 -85.5148
 -85.5125
 -85.5138
 -85.4698
 -85.4702
 -85.4687
 -85.4647
 -85.5661
 -85.5643
 -85.5661
 -85.3409
 -85.3464
 -85.3432
 -85.3486
 -85.4131
 -85.4173
 -85.4145
 -85.4183
 -85.5661
 -85.5687
 -85.5674
 -85.5671
 -85.4911
 -85.4913
 -85.4945
 -85.552
 -85.5551
 -85.5559
 -85.4441
 -85.4434
 -85.439
 -85.5666
 -85.5654
 -85.5648
 -85.5659
 -85.5456
 -85.5442
 -85.5436
 -85.5414
 -85.4571
 -85.4591
 -85.4617
 -85.4587
 -85.4698
 -85.4664
 -85.4692
 -85.4651
 -85.5362
 -85.5363
 -85.5365
 -85.5395
 -85.4988
 -85.4972
 -85.4948
 -85.4963
 -85.3995
 -85.4037
 -85.4042
 -85.4031
 -85.5486
 -85.5437
 -85.5469
 -85.5454
 -85.5692
 -85.4936
 -85.4945
 -85.4968
 -85.4966
 -85.5564
 -85.5579
 -85.5571
 -85.5598
 -85.4396
 -85.4397
 -85.4401
 -85.4402
 -85.5643
 -85.5658
 -85.5634
 -85.5625
 -85.487
 -85.486
 -85.4714
 -85.4697
 -85.4725
 -85.4732
 -85.5334
 -85.5302
 -85.5302
 -85.5303
 -85.5026
 -85.506
 -85.505
 -85.4691
 -85.4685
 -85.4699
 -85.5351
 -85.5344
 -85.5316
 -85.532
 -85.5275
 -85.5259
 -85.5289
 -85.5264
 -85.4458
 -85.4439
 -85.4431
 -85.4889
 -85.4957
 -85.4962
 -85.4916
 -85.4069
 -85.4048
 -85.409
 -85.4032
 -85.3997
 -85.5667
 -85.5621
 -85.5667
 -85.5637
 -85.4943
 -85.4928
 -85.491
 -85.4944
 -85.5514
 -85.553
 -85.4803
 -85.4751
 -85.4758
 -85.455
 -85.4521
 -85.4567
 -85.4558
 -85.5649
 -85.564
 -85.566
 -85.5658
 -85.4429
 -85.4436
 -85.4434
 -85.4573
 -85.4564
 -85.4591
 -85.4567
 -85.468
 -85.4721
 -85.4689
 -85.4648
 -85.5208
 -85.526
 -85.5222
 -85.5239
 -85.4512
 -85.4554
 -85.4532
 -85.4525
 -85.5314
 -85.5108
 -85.5144
 -85.5155
 -85.5098
 -85.5575
 -85.5582
 -85.5554
 -85.5624
 -85.5615
 -85.5613
 -85.5597
 -85.5133
 -85.5153
 -85.5117
 -85.5136
 -85.5718
 -85.5716
 -85.5714
 -85.5693
 -85.4688
 -85.5049
 -85.5003
 -85.5005
 -85.5038
 -85.4947
 -85.4895
 -85.4923
 -85.493
 -85.393
 -85.3976
 -85.3989
 -85.3946
 -85.4845
 -85.4855
 -85.4866
 -85.4826
 -85.4793
 -85.4795
 -85.4806
 -85.4826
 -85.4819
 -85.4823
 -85.4853
 -85.5517
 -85.5496
 -85.5486
 -85.479
 -85.4748
 -85.4761
 -85.4772
 -85.5483
 -85.5519
 -85.5501
 -85.4896
 -85.487
 -85.4982
 -85.5004
 -85.4994
 -85.4971
 -85.496
 -85.497
 -85.493
 -85.4937
 -85.4979
 -85.4965
 -85.5547
 -85.5558
 -85.5558
 -85.4694
 -85.5613
 -85.5023
 -85.5046
 -85.5018
 -85.4988
 -85.4384
 -85.4382
 -85.4346
 -85.4467
 -85.4504
 -85.4522
 -85.4971
 -85.4984
 -85.4947
 -85.4873
 -85.4872
 -85.4888
 -85.4907
 -85.4951
 -85.4921
 -85.497
 -85.4925
 -85.3451
 -85.3465
 -85.3416
 -85.5351
 -85.5323
 -85.5345
 -85.4871
 -85.488
 -85.5422
 -85.5385
 -85.5397
 -85.5383
 -85.5069
 -85.5097
 -85.5068
 -85.3938
 -85.3959
 -85.3904
 -85.3921
 -85.4782
 -85.4744
 -85.4778
 -85.4743
 -85.4484
 -85.4472
 -85.4457
 -85.445
 -85.5199
 -85.5157
 -85.5184
 -85.5199
 -85.4635
 -85.4603
 -85.463
 -85.4585
 -85.4063
 -85.4056
 -85.406
 -85.4683
 -85.4671
 -85.4654
 -85.4663
 -85.5203
 -85.5238
 -85.5223
 -85.5228
 -85.491
 -85.4947
 -85.495
 -85.493
 -85.4536
 -85.4523
 -85.4541
 -85.4754
 -85.4727
 -85.4738
 -85.4735
 -85.447
 -85.4434
 -85.4474
 -85.4444
 -85.4296
 -85.4341
 -85.4326
 -85.4282
 -85.5649
 -85.5659
 -85.565
 -85.5658
 -85.4442
 -85.4466
 -85.4459
 -85.4466
 -85.4518
 -85.4496
 -85.4526
 -85.4526
 -85.515
 -85.5186
 -85.5178
 -85.5199
 -85.4659
 -85.4653
 -85.4687
 -85.467
 -85.5762
 -85.5766
 -85.5765
 -85.577
 -85.4819
 -85.4803
 -85.4833
 -85.4362
 -85.4341
 -85.4347
 -85.4377
 -85.443
 -85.4418
 -85.4426
 -85.4417
 -85.4428
 -85.4375
 -85.5266
 -85.5234
 -85.5263
 -85.5225
 -85.5754
 -85.5743
 -85.575
 -85.5746
 -85.4739
 -85.4707
 -85.4723
 -85.4704
 -85.4466
 -85.4451
 -85.4448
 -85.5189
 -85.5156
 -85.5158
 -85.5181
 -85.4815
 -85.4814
 -85.4824
 -85.4855
 -85.4554
 -85.4559
 -85.4552
 -85.458
 -85.4337
 -85.4382
 -85.4356
 -85.5374
 -85.5405
 -85.5418
 -85.538
 -85.5468
 -85.5463
 -85.5441
 -85.4743
 -85.4735
 -85.476
 -85.4782
 -85.4771
 -85.4758
 -85.4797
 -85.4535
 -85.4573
 -85.4591
 -85.4576
 -85.5178
 -85.5164
 -85.5143
 -85.4427
 -85.4426
 -85.4393
 -85.4931
 -85.4966
 -85.4953
 -85.5467
 -85.5435
 -85.5458
 -85.5233
 -85.5228
 -85.4671
 -85.4694
 -85.4662
 -85.469
 -85.4704
 -85.4688
 -85.4863
 -85.4822
 -85.455
 -85.4306
 -85.431
 -85.4285
 -85.5497
 -85.5493
 -85.5451
 -85.4743
 -85.4772
 -85.4762
 -85.4738
 -85.4579
 -85.4912
 -85.493
 -85.5185
 -85.5198
 -85.5176
 -85.5208
 -85.4907
 -85.4879
 -85.4915
 -85.475
 -85.4768
 -85.4717
 -85.4753
 -85.4678
 -85.4735
 -85.4786
 -85.4759
 -85.474
 -85.48
 -85.5532
 -85.5506
 -85.5502
 -85.5523
 -85.5549
 -85.5565
 -85.5588
 -85.5585
 -85.4424
 -85.4449
 -85.4891
 -85.4892
 -85.4876
 -85.4846
 -85.5047
 -85.5055
 -85.5072
 -85.5083
 -85.5138
 -85.5167
 -85.5138
 -85.5131
 -85.4867
 -85.4842
 -85.4833
 -85.4868
 -85.4803
 -85.4828
 -85.481
 -85.4799
 -85.546
 -85.5424
 -85.5461
 -85.5457
 -85.4447
 -85.4488
 -85.4501
 -85.4528
 -85.4464
 -85.4501
 -85.4483
 -85.5358
 -85.5383
 -85.5416
 -85.543
 -85.4538
 -85.4563
 -85.4551
 -85.4572
 -85.5611
 -85.5596
 -85.5612
 -85.5606
 -85.5484
 -85.547
 -85.548
 -85.5461
 -85.4712
 -85.4729
 -85.4699
 -85.4715
 -85.5241
 -85.5252
 -85.5238
 -85.5207
 -85.456
 -85.4577
 -85.4604
 -85.4611
 -85.5351
 -85.5333
 -85.5338
 -85.4444
 -85.4462
 -85.4439
 -85.4452
 -85.5098
 -85.5082
 -85.5103
 -85.5116
 -85.468
 -85.4689
 -85.5308
 -85.5355
 -85.5332
 -85.5325
 -85.5369
 -85.5363
 -85.5341
 -85.4826
 -85.4869
 -85.4833
 -85.54
 -85.5403
 -85.5415
 -85.5432
 -85.4097
 -85.4107
 -85.4135
 -85.4128
 -85.4547
 -85.4563
 -85.4585
 -85.4598
 -85.5099
 -85.5057
 -85.5062
 -85.5099
 -85.5546
 -85.5553
 -85.5535
 -85.5558
 -85.548
 -85.5504
 -85.5506
 -85.5487
 -85.5547
 -85.5543
 -85.5551
 -85.554
 -85.555
 -85.4614
 -85.4635
 -85.4611
 -85.4644
 -85.4462
 -85.4471
 -85.4424
 -85.4456
 -85.4606
 -85.4607
 -85.468
 -85.4713
 -85.4688
 -85.4678
 -85.4775
 -85.4773
 -85.481
 -85.4772
 -85.449
 -85.4491
 -85.4466
 -85.4955
 -85.4933
 -85.4939
 -85.4925
 -85.5772
 -85.5767
 -85.5754
 -85.4626
 -85.4619
 -85.4634
 -85.4668
 -85.541
 -85.5372
 -85.5396
 -85.5405
 -85.5208
 -85.5243
 -85.523
 -85.4905
 -85.4886
 -85.4922
 -85.5236
 -85.527
 -85.5238
 -85.5457
 -85.544
 -85.521
 -85.5213
 -85.521
 -85.4568
 -85.4578
 -85.4586
 -85.4551
 -85.5578
 -85.5593
 -85.558
 -85.5572
 -85.5104
 -85.5136
 -85.5118
 -85.3831
 -85.3779
 -85.3759
 -85.3819
 -85.4348
 -85.4329
 -85.5018
 -85.4684
 -85.4732
 -85.47
 -85.4685
 -85.4952
 -85.499
 -85.4988
 -85.533
 -85.5332
 -85.5311
 -85.5334
 -85.5632
 -85.5639
 -85.49
 -85.4889
 -85.4891
 -85.4867
 -85.4302
 -85.4267
 -85.4266
 -85.4301
 -85.5494
 -85.5508
 -85.5507
 -85.5495
 -85.5092
 -85.5107
 -85.5086
 -85.3509
 -85.348
 -85.3453
 -85.3455
 -85.4449
 -85.4441
 -85.4421
 -85.4618
 -85.4644
 -85.4595
 -85.4624
 -85.5088
 -85.5094
 -85.5079
 -85.5118
 -85.49
 -85.4925
 -85.4379
 -85.4387
 -85.4384
 -85.4385
 -85.5117
 -85.5151
 -85.4622
 -85.4574
 -85.4592
 -85.4606
 -85.4741
 -85.4755
 -85.4716
 -85.4744
 -85.4911
 -85.4947
 -85.4958
 -85.493
 -85.4582
 -85.4564
 -85.4526
 -85.5199
 -85.5161
 -85.5202
 -85.5167
 -85.537
 -85.5397
 -85.5421
 -85.5376
 -85.5333
 -85.5336
 -85.534
 -85.5362
 -85.427
 -85.4236
 -85.4255
 -85.4223
 -85.4938
 -85.4913
 -85.3712
 -85.3672
 -85.3679
 -85.3641
 -85.4737
 -85.4705
 -85.4688
 -85.5643
 -85.3297
 -85.3315
 -85.3318
 -85.3251
 -85.4855
 -85.4873
 -85.4854
 -85.4855
 -85.4668
 -85.47
 -85.4676
 -85.535
 -85.5375
 -85.5377
 -85.5347
 -85.5363
 -85.5352
 -85.5386
 -85.5386
 -85.5329
 -85.5344
 -85.5318
 -85.5306
 -85.4579
 -85.4607
 -85.4565
 -85.4603
 -85.4434
 -85.4419
 -85.44
 -85.4402
 -85.5132
 -85.5135
 -85.5168
 -85.5132
 -85.4753
 -85.4708
 -85.4773
 -85.4744
 -85.5746
 -85.5553
 -85.5558
 -85.5064
 -85.5064
 -85.4773
 -85.4747
 -85.4754
 -85.5575
 -85.5609
 -85.5589
 -85.558
 -85.4832
 -85.4818
 -85.5063
 -85.5037
 -85.3933
 -85.398
 -85.3931
 -85.3978
 -85.4579
 -85.4565
 -85.4542
 -85.4556
 -85.5105
 -85.5146
 -85.5113
 -85.5135
 -85.4015
 -85.3976
 -85.4009
 -85.4026
 -85.5692
 -85.5683
 -85.5705
 -85.569
 -85.5556
 -85.5529
 -85.5623
 -85.5607
 -85.5585
 -85.5626
 -85.5384
 -85.5407
 -85.4693
 -85.4707
 -85.468
 -85.336
 -85.3405
 -85.3346
 -85.3355
 -85.4068
 -85.4096
 -85.4105
 -85.4073
 -85.5571
 -85.5588
 -85.5571
 -85.556
 -85.5251
 -85.5293
 -85.5268
 -85.4978
 -85.4944
 -85.4922
 -85.4958
 -85.4621
 -85.467
 -85.4631
 -85.4621
 -85.546
 -85.5484
 -85.5475
 -85.5582
 -85.4931
 -85.4975
 -85.4569
 -85.4582
 -85.5203
 -85.5242
 -85.5196
 -85.5208
 -85.4426
 -85.4388
 -85.4441
 -85.4385
 -85.4409
 -85.4379
 -85.439
 -85.3446
 -85.3514
 -85.3495
 -85.3484
 -85.4612
 -85.4634
 -85.4631
 -85.4661
 -85.5477
 -85.5482
 -85.5424
 -85.5445
 -85.5437
 -85.5444
 -85.4554
 -85.455
 -85.4581
 -85.4537
 -85.5331
 -85.5314
 -85.5341
 -85.5217
 -85.5219
 -85.5226
 -85.5199
 -85.5434
 -85.5447
 -85.5419
 -85.5455
 -85.4623
 -85.4657
 -85.4645
 -85.4627
 -85.5627
 -85.5595
 -85.4801
 -85.3841
 -85.3864
 -85.3885
 -85.3907
 -85.532
 -85.5317
 -85.5338
 -85.4076
 -85.4047
 -85.4056
 -85.4032
 -85.5199
 -85.5194
 -85.5193
 -85.5222
 -85.4374
 -85.4372
 -85.434
 -85.4381
 -85.4502
 -85.4494
 -85.452
 -85.4526
 -85.5157
 -85.5178
 -85.5178
 -85.469
 -85.4701
 -85.4685
 -85.4663
 -85.5123
 -85.5113
 -85.5135
 -85.5087
 -85.5029
 -85.5009
 -85.5392
 -85.5402
 -85.54
 -85.5217
 -85.5222
 -85.5193
 -85.383
 -85.3836
 -85.3875
 -85.384
 -85.4427
 -85.4456
 -85.4413
 -85.4467
 -85.5468
 -85.543
 -85.5433
 -85.543
 -85.5406
 -85.54
 -85.4519
 -85.4584
 -85.4524
 -85.5223
 -85.519
 -85.5201
 -85.5183
 -85.5211
 -85.5206
 -85.5192
 -85.4597
 -85.458
 -85.4602
 -85.4606
 -85.5582
 -85.5586
 -85.4703
 -85.4691
 -85.4703
 -85.4725
 -85.4562
 -85.4566
 -85.4578
 -85.5253
 -85.5262
 -85.4884
 -85.4866
 -85.4887
 -85.4912
 -85.4407
 -85.4398
 -85.5145
 -85.514
 -85.4718
 -85.4668
 -85.4675
 -85.47
 -85.4958
 -85.496
 -85.4934
 -85.4984
 -85.4956
 -85.4937
 -85.4958
 -85.4191
 -85.4191
 -85.4175
 -85.4246
 -85.4055
 -85.4058
 -85.4086
 -85.4081
 -85.5216
 -85.5188
 -85.516
 -85.5185
 -85.5492
 -85.5497
 -85.5477
 -85.5476
 -85.5027
 -85.5047
