 29.9079
 29.781
 29.8366
 29.7634
 28.0123
 28.0168
 27.9468
 27.9172
 28.5009
 28.5598
 28.4844
 28.5693
 28.4206
 28.4608
 28.5321
 28.5337
 27.5501
 27.4646
 27.5797
 27.5935
 27.5804
 27.6314
 27.5346
 27.6127
 30.406
 30.5163
 30.4852
 30.3963
 30.3066
 30.2744
 30.2777
 30.343
 27.5392
 27.5718
 27.637
 27.561
 27.5992
 27.5923
 27.6148
 27.5179
 30.6907
 30.7776
 30.6485
 30.6311
 28.4022
 28.4009
 28.4618
 28.4159
 29.4389
 29.4633
 29.5208
 29.3863
 28.0854
 28.1634
 28.1988
 28.1433
 28.7695
 28.7788
 28.7382
 28.6884
 30.0811
 30.1595
 30.0351
 30.1586
 27.8113
 27.7622
 27.8092
 27.7346
 28.2461
 28.2869
 28.23
 28.2784
 28.819
 28.8076
 28.7997
 28.7597
 27.7448
 27.7624
 27.7245
 27.6611
 30.2099
 30.3202
 30.2173
 30.2793
 27.3755
 27.3821
 27.3027
 27.2863
 31.3574
 31.4273
 31.397
 31.2994
 28.2255
 28.175
 28.2362
 28.2551
 28.9262
 28.963
 28.8616
 28.8607
 28.6833
 28.6802
 28.7153
 28.7388
 29.2013
 29.1296
 29.0895
 29.1808
 30.0802
 30.1486
 30.0562
 30.0617
 29.4616
 29.4885
 29.572
 29.5156
 28.1455
 28.1593
 28.1769
 28.2314
 28.8407
 28.7094
 28.8627
 28.8235
 29.405
 29.326
 29.3442
 29.399
 28.3693
 28.4391
 28.3713
 28.4306
 27.9824
 28.0148
 28.0145
 28.0099
 29.4438
 29.5319
 29.4395
 29.5614
 30.01
 30.0199
 30.0504
 30.0455
 28.4594
 28.5404
 28.4874
 28.4766
 30.3862
 30.3637
 30.3193
 30.3312
 28.2291
 28.2154
 28.102
 28.1275
 27.1776
 27.2524
 27.1881
 27.2687
 28.6319
 28.6564
 28.6227
 28.7079
 28.1713
 28.1157
 28.1384
 28.1817
 30.3701
 30.3768
 30.2741
 30.4345
 28.3793
 28.4346
 28.4125
 28.3432
 27.505
 27.53
 27.4723
 27.5087
 29.6503
 29.5756
 29.6125
 29.6481
 28.3512
 28.2524
 28.279
 28.2575
 29.9799
 29.876
 29.9249
 30.0188
 29.4544
 29.4989
 29.5281
 29.5517
 28.8034
 28.853
 28.866
 28.922
 30.139
 30.194
 30.2228
 30.109
 28.5904
 28.6622
 28.642
 28.6045
 29.3723
 29.4474
 29.3353
 29.4723
 28.6553
 28.6051
 28.6237
 28.6117
 29.5828
 29.5037
 29.5654
 29.4591
 28.4627
 28.4728
 28.4154
 28.5316
 28.1445
 28.1571
 28.1071
 28.0569
 28.158
 28.2126
 28.1816
 28.2721
 29.6646
 29.6985
 29.7913
 29.6405
 29.1226
 29.1587
 29.1719
 29.0698
 31.2884
 31.3054
 31.3951
 31.3188
 29.5411
 29.5587
 29.6317
 29.5527
 28.9142
 28.7982
 28.8605
 28.8494
 29.3006
 29.301
 29.2128
 29.3577
 29.4438
 29.3632
 29.4368
 29.3597
 30.1591
 30.216
 30.1146
 30.1378
 27.7381
 27.6632
 27.6166
 27.7388
 27.5635
 27.5441
 27.5061
 27.483
 28.7822
 28.6877
 28.8326
 28.7846
 29.5091
 29.5266
 29.4783
 29.5653
 28.1932
 28.1696
 28.1279
 28.1992
 30.2402
 30.404
 30.3518
 30.3612
 30.2275
 30.3312
 30.3453
 30.2615
 31.5494
 31.6376
 31.5537
 31.5472
 28.5587
 28.4563
 28.5256
 28.4555
 29.701
 29.6268
 29.6086
 29.6988
 29.8397
 29.9064
 29.7773
 29.8126
 27.4513
 27.3711
 27.3966
 27.3607
 30.0696
 30.1333
 30.2107
 30.1038
 29.8687
 29.9084
 29.9633
 29.8671
 29.7066
 29.6469
 29.7197
 29.7824
 28.9966
 28.9948
 28.9362
 28.9362
 29.7843
 29.6848
 29.7586
 29.7237
 29.454
 29.4111
 29.3885
 29.4265
 29.0816
 29.1011
 29.1404
 29.1552
 29.9861
 30.1022
 29.9726
 30.1096
 31.7502
 31.7219
 31.6382
 31.6625
 30.2057
 30.1918
 30.1176
 30.1606
 28.462
 28.5396
 28.4583
 28.5652
 28.4716
 28.5225
 28.4603
 28.5522
 28.1283
 28.2052
 28.1954
 28.1552
 30.4697
 30.4928
 30.4694
 30.4222
 27.2829
 27.3015
 27.3623
 27.2539
 28.2706
 28.2058
 28.2893
 28.2558
 30.3765
 30.3564
 30.447
 30.4994
 29.4451
 29.4587
 29.4683
 29.3666
 29.8739
 29.8166
 29.9508
 29.8965
 29.857
 29.8985
 29.8955
 30.3626
 30.3847
 30.3891
 30.4463
 28.3346
 28.3855
 28.4325
 28.3205
 29.2184
 29.118
 29.1438
 29.1938
 28.4687
 28.3866
 28.4755
 29.6019
 29.7141
 29.6321
 29.6653
 28.983
 28.92
 28.9414
 29.0224
 27.8231
 27.9402
 27.9284
 27.7932
 30.2913
 30.2895
 30.161
 30.2186
 29.98
 30.0545
 30.1197
 30.0354
 28.5505
 28.6303
 28.6376
 28.6094
 28.2988
 28.3401
 28.237
 28.2447
 30.361
 30.3046
 30.3504
 30.4152
 30.0305
 30.0065
 29.8448
 29.8842
 29.2288
 29.1408
 29.0897
 29.2273
 27.6528
 27.609
 27.631
 27.6112
 28.5131
 28.4416
 28.4059
 28.4465
 28.9463
 29.0559
 28.9757
 28.9479
 31.3863
 31.5514
 31.4098
 31.4148
 29.0851
 29.1223
 29.0256
 28.9946
 27.8116
 27.9027
 27.8126
 27.912
 29.7841
 29.9157
 29.7398
 29.7586
 30.0796
 30.0556
 30.1548
 30.0901
 29.9743
 30.0666
 30.064
 30.035
 30.9121
 30.929
 30.9229
 30.8584
 29.8224
 29.9661
 29.9511
 29.9479
 28.5493
 28.5464
 28.5343
 28.5937
 30.427
 30.3615
 30.3264
 30.3052
 27.7655
 27.8317
 27.7664
 27.7524
 30.2765
 30.39
 30.3978
 30.2811
 27.8611
 27.9661
 27.847
 27.9128
 29.1423
 29.2006
 29.1962
 29.1636
 29.2795
 29.1905
 29.1783
 29.2437
 29.607
 29.6083
 29.4995
 29.5782
 29.7935
 29.793
 29.8884
 29.8903
 27.3807
 27.2989
 27.2799
 27.2882
 29.7129
 29.7905
 29.7085
 29.7731
 27.1654
 27.2334
 27.1926
 27.2931
 28.1996
 28.2447
 28.1455
 28.2181
 31.1665
 31.075
 31.0795
 31.1667
 27.4441
 27.4528
 27.4085
 27.3848
 30.0987
 30.0141
 30.104
 30.1903
 30.9523
 31.0615
 31.1062
 30.9542
 28.0194
 28.0459
 28.0819
 28.0531
 27.4926
 27.4123
 27.4696
 27.5053
 28.6766
 28.674
 28.6906
 28.7276
 28.096
 28.1765
 28.0829
 28.1744
 29.9447
 30.0549
 29.9837
 30.0361
 28.5451
 28.5865
 28.558
 28.4983
 29.382
 29.3711
 29.3094
 29.3054
 30.2991
 30.2414
 30.3185
 30.3283
 30.7098
 30.7074
 30.7528
 30.6292
 29.1047
 29.1258
 29.0574
 29.1531
 28.9545
 28.9875
 28.9924
 29.055
 30.0579
 30.0649
 29.9695
 29.991
 29.9637
 30.1147
 29.9911
 29.9905
 28.4435
 28.4052
 28.4545
 28.4881
 27.5535
 27.6228
 27.5064
 27.4857
 27.6752
 27.709
 27.6629
 27.6351
 27.7168
 27.7899
 27.7676
 27.7341
 28.2713
 28.3066
 28.2265
 28.2968
 29.9408
 30.0752
 29.9831
 30.0131
 29.8828
 29.8213
 29.7971
 29.7823
 28.8689
 28.9365
 28.9949
 29.0267
 28.3227
 28.3633
 28.2692
 28.3256
 28.3163
 28.3525
 28.3146
 28.261
 28.7409
 28.8087
 28.7525
 28.7372
 28.4725
 28.4032
 28.4782
 28.4741
 30.5032
 30.5318
 30.4819
 30.3798
 32.0062
 32.1002
 31.9754
 32.0635
 29.7752
 29.7958
 29.8777
 29.8328
 31.8286
 31.734
 31.7347
 29.8044
 29.8172
 29.7499
 29.8248
 27.6933
 27.7412
 27.7043
 27.75
 28.7917
 28.7615
 28.7359
 28.6801
 27.6258
 27.6642
 27.6004
 27.6845
 30.0084
 29.9987
 30.115
 30.0433
 28.3266
 28.3165
 28.1882
 28.222
 28.7342
 28.7783
 28.8545
 28.7717
 27.3973
 27.3474
 27.3388
 27.4749
 28.0039
 28.0243
 27.9957
 27.9308
 29.7055
 29.6306
 29.6826
 29.704
 28.2473
 28.2512
 28.3245
 28.2221
 27.9134
 28.0104
 27.9734
 27.9952
 30.931
 31.0351
 31.0455
 31.0244
 28.819
 28.796
 28.7466
 28.7371
 27.8445
 27.823
 27.8266
 27.9015
 28.5074
 28.446
 28.5593
 28.4063
 27.833
 27.9145
 27.8318
 27.8276
 29.9066
 29.8184
 29.7697
 29.818
 28.0001
 27.8878
 28.016
 27.909
 29.219
 29.1752
 29.2961
 29.2187
 29.0523
 29.0138
 28.9739
 29.0579
 28.0133
 28.0535
 28.0963
 27.978
 27.2112
 27.2655
 27.2659
 27.226
 30.6295
 30.5867
 30.5215
 30.4876
 29.4794
 29.4073
 29.3671
 29.4618
 28.4914
 28.5514
 28.5689
 28.5478
 28.0853
 28.0285
 28.0564
 28.0184
 29.6975
 29.8076
 29.7565
 29.7381
 30.3502
 30.2774
 30.2274
 30.3416
 28.226
 28.2198
 28.3217
 28.3053
 28.3381
 28.2809
 28.3475
 28.3135
 27.4685
 27.3997
 27.3421
 27.4606
 30.1224
 30.009
 30.1406
 30.0641
 27.5582
 27.4781
 27.4874
 27.5461
 29.5496
 29.484
 29.5724
 29.5958
 31.9365
 31.9484
 31.8647
 31.8509
 27.7359
 27.716
 27.6575
 27.7036
 28.4064
 28.3665
 28.447
 28.5102
 27.8165
 27.8032
 27.8546
 27.8537
 28.9595
 29.0679
 29.0304
 28.9649
 29.1819
 29.1601
 29.1427
 29.1847
 28.0914
 28.1759
 28.1756
 28.1401
 29.9615
 29.9271
 30.0171
 29.9444
 30.22
 30.1766
 30.1521
 30.2253
 31.4987
 31.5349
 31.6068
 31.6296
 28.6672
 28.6191
 28.5848
 28.5582
 28.9239
 28.9517
 28.8112
 28.9145
 28.5436
 28.672
 28.5547
 28.5175
 29.44
 29.33
 29.3173
 29.4564
 27.4985
 27.4854
 27.4515
 27.5826
 27.4772
 27.3751
 27.4763
 27.4916
 28.4431
 28.4243
 28.3566
 28.3458
 32.6629
 32.7084
 32.64
 32.5189
 29.1078
 29.147
 29.0984
 29.2115
 29.0742
 29.0843
 29.1914
 29.0874
 29.1179
 29.0872
 29.2104
 29.1934
 28.0404
 28.0638
 27.9739
 28.0742
 31.3157
 31.1812
 31.3614
 31.3234
 31.3604
 31.4276
 31.4256
 31.5549
 27.8961
 27.9472
 27.9068
 27.9862
 29.6217
 29.5137
 29.6637
 29.5505
 29.3227
 29.34
 29.3085
 29.3027
 28.3183
 28.3467
 28.3869
 28.4344
 30.0603
 30.0052
 29.9711
 30.0193
 27.9863
 28.0425
 28.023
 27.9694
 29.4637
 29.6151
 29.5438
 29.6581
 29.5409
 29.512
 29.6015
 29.5753
 30.3415
 30.4063
 30.3284
 30.4425
 29.2262
 29.1403
 29.1669
 29.1059
 27.89
 27.859
 27.8658
 27.909
 28.3159
 28.2415
 28.2077
 28.2779
 30.0492
 30.0538
 29.9786
 30.0111
 29.8104
 29.7084
 29.7088
 29.8088
 27.6943
 27.6659
 27.6165
 27.6512
 28.0582
 28.1257
 28.0893
 28.1
 29.0323
 29.06
 29.109
 29.0587
 30.521
 30.4941
 30.4936
 30.4638
 30.8308
 30.7279
 30.7779
 30.8649
 28.4279
 28.5203
 28.5524
 28.4852
 30.2855
 30.3782
 30.2811
 30.4576
 27.7607
 27.8474
 27.8385
 27.7697
 28.5922
 28.4817
 28.5374
 28.5925
 28.0514
 28.0793
 28.1107
 28.0545
 28.2551
 28.3437
 28.334
 28.279
 29.1331
 29.1794
 29.1256
 29.0728
 29.8793
 30.0374
 30.0089
 29.9266
 30.6913
 30.5436
 30.6428
 30.6841
 30.3791
 30.5042
 30.3736
 30.3781
 29.8969
 29.9837
 29.9967
 29.9121
 29.0967
 29.064
 29.0523
 29.2134
 29.0961
 28.9985
 29.0608
 29.0967
 29.0149
 29.0873
 28.9755
 29.052
 28.5111
 28.5502
 28.4727
 28.4862
 31.157
 31.2828
 31.1464
 31.1474
 28.7858
 28.761
 28.7964
 28.7158
 30.0766
 30.1674
 30.1204
 30.0976
 29.3405
 29.2536
 29.3072
 29.2632
 27.5746
 27.6961
 27.5979
 27.6389
 28.9802
 29.0164
 29.0107
 29.0631
 30.2428
 30.2873
 30.2549
 30.37
 29.2951
 29.3251
 29.2562
 29.2094
 29.8435
 29.7824
 29.7906
 29.8761
 29.1075
 29.2139
 29.1212
 29.2085
 30.9586
 31.0468
 31.0207
 30.9137
 29.3523
 29.3336
 29.2866
 29.2789
 28.4072
 28.4319
 28.3723
 28.4366
 28.4324
 28.4221
 28.3974
 28.4155
 27.6367
 27.7661
 27.6666
 27.7135
 29.6443
 29.6537
 29.5626
 29.6289
 29.934
 29.8716
 29.9567
 29.7846
 27.5494
 27.664
 27.5691
 27.5907
 29.9104
 29.9293
 29.8397
 29.9075
 27.9215
 27.9428
 27.8661
 27.9578
 28.7633
 28.6564
 28.7145
 28.6564
 29.1143
 29.2351
 29.1107
 29.1156
 29.9199
 29.8238
 29.8364
 29.9205
 29.12
 29.105
 28.9982
 29.1014
 27.9082
 27.9231
 27.8919
 27.8885
 32.1452
 32.0681
 31.9965
 32.2059
 30.5718
 30.5968
 30.5975
 30.5688
 30.4515
 30.4084
 30.4535
 30.5322
 29.562
 29.5187
 29.6092
 29.4919
 29.3503
 29.4149
 29.3665
 29.4039
 29.7336
 29.8114
 29.8329
 29.7444
 27.4355
 27.4655
 27.3584
 27.4778
 29.9584
 30.0175
 30.0098
 29.893
 28.5528
 28.5675
 28.5353
 28.6272
 29.0095
 27.9698
 28.0481
 28.0449
 28.0695
 28.6158
 28.547
 28.4919
 28.5494
 30.609
 30.573
 30.5618
 30.6043
 29.4762
 29.5124
 29.4451
 29.3946
 29.7458
 29.8583
 29.7975
 29.8195
 27.8316
 27.9135
 27.8937
 27.883
 29.323
 29.4406
 29.3617
 29.3743
 27.7141
 27.7049
 27.7748
 27.7711
 28.3027
 28.2607
 28.3267
 28.2364
 30.6336
 30.581
 30.6082
 30.4955
 29.976
 30.0672
 29.9058
 29.9818
 28.56
 28.504
 28.4918
 28.5422
 29.1138
 29.207
 29.0796
 30.4203
 30.4707
 30.399
 30.3802
 28.4403
 28.5753
 28.4756
 28.5413
 29.8213
 29.9707
 29.9194
 29.9076
 29.1407
 29.2611
 29.1941
 29.1373
 27.7107
 27.7121
 27.8225
 27.7311
 29.5699
 29.6074
 29.6575
 29.5898
 28.0139
 28.1213
 28.0446
 28.0082
 28.9466
 29.0066
 28.9526
 29.0451
 28.1118
 28.157
 28.2178
 28.1776
 27.802
 27.8008
 27.7166
 27.7601
 29.4732
 29.4876
 29.415
 29.4195
 31.91
 31.7946
 31.7499
 31.7264
 27.2997
 27.3408
 27.356
 27.3525
 28.4449
 28.5025
 28.5078
 28.451
 30.1534
 30.1551
 29.9835
 30.1157
 29.324
 29.2538
 29.2466
 29.3279
 31.0062
 30.9731
 31.0309
 31.0988
 27.7636
 27.6986
 27.6137
 27.6754
 30.4513
 30.5252
 30.4795
 30.4622
 28.6596
 28.5839
 28.6895
 28.6338
 30.018
 30.1773
 30.0527
 30.0487
 27.2576
 27.2751
 27.2685
 27.3465
 27.3723
 27.3794
 27.4372
 27.4671
 28.1905
 28.2561
 28.2917
 28.1562
 28.6217
 28.6179
 28.6384
 28.7119
 28.6353
 30.1923
 30.1896
 30.2809
 30.2262
 30.0734
 30.1138
 30.154
 30.0607
 28.3905
 28.3225
 28.3181
 28.3061
 30.2406
 30.1451
 30.1625
 30.2432
 29.8959
 29.9503
 29.9472
 29.8556
 28.2485
 28.2157
 28.221
 28.3087
 29.4512
 29.337
 29.4436
 29.3489
 28.3892
 28.3828
 28.3901
 28.3197
 29.7751
 29.7781
 29.855
 29.8276
 29.5763
 29.527
 29.5047
 29.4947
 29.1814
 29.1002
 29.2074
 29.1308
 28.6742
 28.5857
 28.6274
 28.5439
 28.0727
 28.1115
 27.9949
 28.0202
 28.7016
 28.7202
 28.7659
 28.7524
 28.7594
 28.6972
 28.6992
 28.7015
 30.7301
 30.7305
 30.6534
 30.6158
 28.5177
 28.522
 28.4721
 28.5114
 29.0655
 29.0531
 28.9941
 29.0509
 28.8955
 28.9131
 28.9601
 28.9191
 29.5409
 29.5359
 29.6118
 29.5543
 30.3571
 30.3799
 30.3074
 30.4735
 28.1985
 28.2311
 28.1938
 28.1588
 30.3106
 30.3809
 30.3414
 30.2598
 27.4702
 27.4736
 27.3709
 27.435
 28.085
 28.1463
 28.0529
 28.0878
 28.0812
 28.0661
 28.0508
 28.0872
 27.8696
 27.9154
 27.9188
 27.8268
 28.2856
 28.2581
 28.3281
 28.2615
 31.0552
 31.111
 31.2131
 28.7947
 28.9028
 28.8114
 28.8154
 28.1182
 28.1594
 28.1786
 28.1386
 29.5116
 29.6028
 29.5566
 29.5286
 29.8556
 29.7997
 29.8976
 29.7931
 28.3102
 28.2938
 28.2476
 28.37
 29.1978
 29.229
 29.1992
 29.1128
 29.7649
 29.7484
 29.8159
 29.814
 27.4773
 27.3739
 28.519
 28.5278
 28.6091
 28.5976
 29.1486
 29.1781
 29.2192
 28.7665
 28.7408
 28.7475
 28.8298
 30.6752
 30.7541
 30.631
 30.6452
 28.0163
 27.9675
 27.9653
 28.055
 28.7832
 28.8035
 28.8504
 28.8382
 29.5254
 29.5932
 29.5404
 29.4729
 28.8023
 28.8791
 28.8551
 28.8121
 30.3669
 30.4105
 30.322
 30.3454
 30.5487
 30.3855
 30.5025
 30.4644
 29.1555
 29.0961
 29.0481
 29.1056
 30.1583
 30.1599
 30.2035
 30.1079
 29.0286
 29.0733
 29.0515
 29.0849
 27.916
 27.9381
 28.0152
 28.0247
 30.1465
 30.0977
 30.0438
 30.1072
 31.4871
 31.3764
 31.3409
 31.2983
 28.564
 28.7129
 28.6338
 28.5706
 29.2517
 29.1937
 29.281
 29.1983
 30.2643
 30.2981
 30.1814
 30.219
 29.1439
 29.1876
 29.1031
 29.1123
 27.8182
 27.848
 27.8086
 27.8206
 29.9375
 29.9541
 30.0086
 29.9716
 28.7122
 28.7344
 28.7357
 28.7805
 29.4084
 29.2913
 29.3599
 29.2439
 28.3255
 28.27
 28.2702
 28.223
 27.9883
 27.983
 27.9483
 28.0186
 30.1118
 30.0405
 30.0914
 29.9486
 29.5686
 29.4984
 29.519
 29.5425
 28.6302
 28.6389
 28.7529
 28.6695
 30.3034
 30.2693
 30.2768
 30.2422
 32.059
 32.2097
 32.1895
 32.1313
 28.8433
 28.9075
 28.9299
 28.9169
 32.2994
 32.33
 32.207
 32.1448
 32.1165
 31.9997
 31.9532
 31.9812
 30.7436
 30.6775
 30.6679
 30.7723
 28.5292
 28.5739
 28.6267
 28.645
 28.5607
 28.4853
 28.4886
 28.4318
 28.4247
 28.4981
 28.4422
 28.5245
 28.5839
 28.6608
 28.6441
 28.5524
 31.0513
 31.1529
 31.0725
 31.1601
 30.1506
 30.2146
 30.0947
 30.129
 30.1083
 30.2941
 30.2816
 30.1917
 29.4006
 29.3068
 29.3992
 29.286
 28.7048
 28.7559
 28.7061
 28.7336
 28.3557
 28.3521
 28.3905
 28.3202
 30.0333
 29.9422
 29.9264
 30.0174
 28.4893
 29.2133
 29.1749
 29.1532
 29.2032
 27.3755
 27.3677
 27.281
 27.3324
 29.259
 29.2626
 29.1985
 29.2572
 27.806
 27.7314
 27.7894
 30.2721
 30.1874
 30.1659
 30.2987
 31.9131
 31.8271
 31.798
 31.7617
 29.1103
 29.1181
 29.0311
 29.1627
 29.5476
 29.6399
 29.6511
 29.6402
 30.2584
 30.1604
 30.1197
 30.1143
 30.1162
 30.0719
 30.1714
 30.067
 30.7525
 30.9564
 30.8359
 30.8628
 28.7103
 28.7159
 28.6575
 28.5574
 29.1574
 29.0766
 29.1597
 29.1184
 29.7614
 29.802
 29.7432
 29.7595
 29.2136
 29.2918
 29.1122
 28.1338
 28.1871
 28.2036
 29.9444
 29.9326
 30.0347
 30.0433
 30.9266
 30.9958
 30.9937
 30.9424
 29.6885
 29.6437
 29.6289
 29.7131
 30.7607
 30.8542
 30.7183
 30.8948
 28.2083
 28.0921
 28.1744
 28.1586
 28.1653
 28.1446
 28.1171
 28.077
 30.3287
 30.3779
 30.3553
 30.3794
 30.8322
 30.9842
 30.9082
 30.8731
 28.8728
 28.9708
 28.8912
 28.9415
 27.5549
 27.613
 27.5039
 27.5956
 30.9045
 30.9009
 30.982
 30.8924
 28.4484
 28.525
 28.5236
 28.434
 31.5129
 31.5597
 31.458
 31.5081
 28.3261
 28.2607
 28.3518
 28.2024
 29.4017
 29.4707
 29.3628
 29.507
 28.204
 28.2037
 28.1194
 28.1359
 30.2394
 30.2087
 30.1724
 30.0816
 29.5085
 29.5802
 29.5631
 29.5844
 29.8377
 29.8743
 29.7931
 29.7826
 29.8506
 29.9107
 29.8059
 29.9023
 28.8632
 28.8159
 28.8456
 28.9117
 29.2388
 29.3124
 29.2347
 29.2366
 28.1099
 28.1913
 28.2078
 28.1546
 27.4362
 27.3723
 27.5174
 27.5352
 29.2592
 29.2687
 29.3323
 29.2744
 27.927
 27.9513
 27.9821
 27.8821
 28.3794
 28.2648
 28.2376
 28.2834
 31.0971
 31.1844
 31.2832
 31.1489
 30.3243
 30.1547
 30.1821
 30.2403
 29.3943
 29.4632
 29.486
 29.4372
 30.799
 30.8966
 30.9138
 30.956
 28.752
 28.659
 28.6744
 28.7254
 28.2021
 28.0734
 28.1435
 28.1206
 30.7136
 30.5917
 30.7096
 30.714
 29.1119
 29.0475
 29.1061
 29.0804
 29.7298
 29.7517
 29.7518
 29.8016
 31.9713
 31.9133
 31.8111
 31.9082
 29.5478
 29.5642
 29.5684
 29.4941
 29.094
 29.048
 29.0635
 29.0313
 28.4532
 28.3975
 28.4393
 28.3695
 29.9013
 29.8724
 29.8625
 29.073
 29.085
 29.106
 29.0921
 29.6323
 29.7033
 29.5174
 29.6154
 28.5349
 28.6067
 28.5375
 28.5817
 28.4896
 28.3817
 28.4472
 28.4223
 27.7786
 27.8225
 27.791
 27.8848
 30.0531
 30.0923
 30.0013
 30.0922
 27.5319
 27.5166
 27.4863
 27.5206
 29.871
 29.7966
 29.8616
 29.9055
 29.1666
 29.0807
 29.0898
 29.0417
 29.0657
 29.1424
 29.1279
 29.1707
 32.1761
 32.2788
 32.1604
 32.2253
 29.5739
 29.6325
 29.5677
 29.5482
 29.1607
 29.2017
 29.107
 29.0131
 29.1759
 29.1553
 29.1361
 29.2458
 27.3054
 27.3144
 27.3888
 27.3561
 29.89
 29.7909
 29.7345
 29.8591
 29.7684
 29.8271
 29.7278
 29.8458
 28.3793
 28.2914
 28.3542
 28.3276
 30.0981
 30.1293
 30.1863
 30.2093
 30.2566
 30.2824
 30.2235
 30.3016
 28.522
 28.6265
 28.5268
 28.6086
 28.5388
 28.5264
 28.597
 28.5278
 28.9372
 28.9251
 28.8141
 28.8571
 29.7951
 29.8415
 28.7544
 28.8043
 28.7158
 28.7847
 29.798
 29.738
 29.8123
 29.7677
 29.3548
 29.2696
 29.2366
 29.2601
 27.8039
 27.8498
 27.8755
 27.8045
 29.2234
 29.2005
 29.1577
 29.1416
 28.2682
 28.2333
 28.2061
 28.296
 29.9889
 29.8538
 29.899
 29.8692
 29.4964
 29.5747
 29.5837
 29.5558
 29.1941
 29.0299
 29.1048
 29.125
 30.1766
 30.2516
 30.2803
 30.2024
 31.3568
 31.2233
 31.3241
 31.3585
 27.6742
 27.6855
 27.7271
 27.697
 30.7599
 30.744
 30.7107
 30.7983
 28.6858
 28.6612
 28.7432
 28.7442
 31.3165
 31.2652
 31.3141
 31.4393
 28.7479
 28.6736
 28.7188
 28.7267
 29.91
 29.9269
 29.9653
 29.9285
 29.9046
 29.8791
 29.9642
 29.9129
 28.8732
 28.8461
 28.9285
 28.8986
 28.0501
 28.1184
 28.0487
 28.1344
 29.5112
 29.3948
 29.413
 29.4131
 30.3527
 30.4036
 30.3482
 30.2928
 28.0371
 27.9324
 27.98
 27.9074
 29.8837
 29.8687
 29.796
 29.7656
 29.4549
 29.3588
 29.4065
 29.3364
 28.3125
 28.1642
 28.2069
 28.2422
 28.9736
 28.9009
 28.8724
 28.8689
 29.189
 29.2019
 29.1709
 29.1181
 27.7604
 27.7257
 27.6771
 27.6557
 28.0796
 28.0401
 28.058
 28.0891
 28.8319
 28.814
 28.9121
 28.875
 29.2695
 29.2262
 29.3138
 29.1382
 29.7158
 29.6873
 29.6896
 29.5708
 30.3972
 30.3954
 30.4948
 28.1797
 28.1575
 28.1422
 28.1039
 31.2738
 31.3265
 31.495
 31.3898
 28.3814
 28.4732
 28.4242
 28.4574
 30.0485
 30.179
 30.1052
 30.092
 30.2814
 30.3867
 30.3363
 30.3574
 27.8828
 27.9561
 27.9128
 27.8232
 29.0038
 29.051
 28.9902
 29.0448
 29.1081
 29.1344
 29.8324
 29.3092
 29.2252
 29.3504
 29.2786
 31.4436
 31.3275
 28.5247
 28.5045
 28.4831
 30.4101
 30.3945
 30.503
 30.4332
 28.4328
 28.5184
 28.4879
 28.479
 29.3949
 29.3219
 29.3419
 29.3613
 29.8179
 29.6926
 29.7664
 29.752
 27.8683
 27.8698
 27.7877
 27.8362
 30.4866
 30.4006
 30.515
 30.4058
 28.6532
 28.6582
 28.6244
 28.586
 27.6529
 27.6422
 27.7324
 27.7268
 29.0798
 29.1623
 29.1058
 29.155
 28.5868
 28.7123
 28.6754
 28.6755
 29.2163
 29.1643
 29.226
 29.3456
 27.3703
 27.4974
 27.3914
 27.4966
 27.5011
 27.4832
 27.5227
 27.5949
 27.6218
 27.6708
 27.6883
 27.6189
 29.3443
 29.4129
 29.3346
 29.3482
 28.778
 28.8796
 28.8385
 28.7987
 29.2099
 29.2104
 29.2785
 29.2244
 29.5086
 29.503
 29.4197
 29.5372
 28.4819
 28.464
 28.4525
 28.5456
 28.0664
 27.9918
 28.0324
 27.9744
 28.0054
 27.976
 28.042
 27.9221
 28.9252
 28.8929
 28.9557
 28.8878
 29.2064
 29.2045
 29.2309
 29.2698
 29.9433
 29.9737
 29.9611
 29.8508
 28.2705
 28.2096
 28.1994
 28.2973
 30.6357
 30.6164
 30.7495
 30.6964
 28.2589
 28.2207
 28.2574
 28.2629
 28.9415
 28.8243
 28.9358
 28.8468
 28.9607
 28.9714
 28.9351
 29.0579
 30.456
 30.43
 30.4554
 30.5689
 32.2897
 32.1942
 32.3912
 32.3547
 29.5565
 29.4701
 29.5597
 29.5351
 28.2157
 28.2788
 28.2238
 28.205
 30.2452
 30.3489
 30.2639
 30.2239
 28.7667
 28.7159
 28.8224
 28.7303
 28.7391
 28.6848
 28.6122
 28.6335
 28.3654
 28.3268
 28.432
 28.4046
 30.9433
 30.951
 30.9919
 30.881
 30.907
 30.8715
 30.9356
 30.9617
 28.1688
 28.0631
 28.0806
 28.1205
 28.4909
 28.5934
 28.6504
 28.5676
 29.6695
 29.6513
 29.7101
 29.7135
 29.1282
 29.1498
 29.0781
 29.0403
 28.9998
 28.9612
 28.9702
 29.0266
 29.6409
 29.7207
 29.5706
 29.6968
 28.6226
 28.6923
 28.6384
 28.7074
 27.0695
 27.1753
 27.1032
 27.0866
 28.7522
 28.6452
 28.6627
 28.6165
 29.1666
 29.1436
 29.1947
 29.0963
 29.1424
 29.1443
 29.2109
 29.161
 28.9155
 28.86
 28.9031
 28.9692
 27.559
 27.5523
 27.6081
 27.5676
 28.1246
 28.1947
 28.1588
 28.6777
 28.6606
 28.6363
 28.6805
 30.4035
 30.4251
 30.2952
 30.4101
 29.3515
 29.362
 29.4251
 29.3214
 28.0422
 28.1484
 28.1969
 28.1404
 29.9405
 29.888
 29.8846
 29.8356
 29.587
 29.6404
 29.6436
 29.5585
 29.446
 29.5053
 29.5875
 29.4841
 28.512
 28.5771
 28.5965
 28.5738
 28.9155
 28.9819
 28.9134
 29.0528
 28.673
 28.8013
 28.7556
 28.731
 30.1515
 30.0893
 30.0875
 30.1268
 29.4902
 29.439
 29.4187
 29.4976
 28.5509
 28.6019
 28.5335
 28.4643
 29.494
 29.4644
 29.4086
 29.5373
 28.7012
 28.6063
 28.6172
 28.6504
 30.194
 30.2306
 30.1658
 30.2446
 27.7209
 27.7093
 27.7834
 27.721
 29.9537
 30.0048
 29.9103
 29.8778
 30.0278
 30.2128
 30.1038
 30.1053
 28.304
 28.2857
 28.2323
 28.2205
 30.0331
 30.0167
 29.9921
 29.991
 28.6989
 28.7456
 28.7038
 28.7822
 30.44
 30.4602
 30.5535
 30.5476
 28.9029
 28.9415
 28.923
 28.8574
 27.8164
 27.7004
 27.7878
 27.7288
 28.8524
 28.9789
 28.9747
 28.9352
 28.4194
 28.392
 28.4069
 28.4245
 28.7199
 28.7465
 28.7043
 28.6867
 28.7014
 28.6896
 28.6411
 28.5929
 27.6058
 27.5808
 27.5552
 27.6639
 30.1464
 30.1796
 30.2621
 30.2428
 30.0101
 30.0603
 30.1612
 30.0729
 27.9468
 27.9323
 27.9859
 27.8805
 27.87
 27.8288
 27.8749
 29.6908
 29.7411
 29.7422
 29.6648
 28.777
 28.6953
 28.7509
 28.7608
 28.7037
 28.6848
 28.7598
 28.6743
 30.0674
 29.9776
 30.1084
 30.0349
 28.3747
 28.3266
 28.3413
 28.3199
 29.1955
 29.2814
 29.2698
 29.1844
 28.914
 29.0137
 28.9848
 29.0356
 28.3058
 28.255
 28.2354
 28.2488
 30.4874
 30.5278
 30.4807
 30.4275
 29.7575
 29.8692
 29.867
 29.8265
 27.5691
 27.6822
 27.5957
 27.6247
 30.1221
 30.1418
 30.1106
 29.9698
 30.4901
 30.5437
 30.5113
 30.51
 29.1666
 29.1317
 29.1743
 29.0695
 31.397
 31.3733
 31.4191
 31.304
 29.0757
 29.0535
 29.0921
 29.0673
 28.2617
 28.3114
 28.3308
 28.3411
 28.0372
 28.0813
 28.0635
 30.5594
 30.5464
 30.5386
 30.5732
 29.8961
 29.7937
 29.9187
 29.8164
 29.978
 30.0057
 30.0215
 30.0951
 29.8251
 29.9149
 29.8458
 29.8945
 27.5213
 27.4648
 27.4405
 27.4623
 30.3657
 30.3451
 30.3949
 30.4493
 29.8799
 29.959
 29.8947
 29.8056
 28.1105
 28.0792
 28.1156
 28.1474
 29.5163
 29.5502
 29.4936
 29.7248
 29.8673
 29.7993
 28.784
 28.8834
 28.9294
 31.2317
 31.1276
 31.1108
 31.1915
 29.0674
 29.0307
 29.0822
 28.9975
 29.0249
 28.9877
 29.0931
 29.0643
 27.9005
 27.8615
 27.9419
 27.957
 27.7699
 27.7994
 27.6757
 27.7901
 30.1063
 30.1572
 30.164
 30.0297
 28.8835
 28.7842
 28.8023
 28.7833
 28.7473
 28.6903
 28.6543
 28.6853
 29.1835
 29.0797
 29.1219
 29.0507
 29.6083
 29.5613
 29.5643
 29.6653
 28.8803
 28.9401
 28.9262
 28.8462
 30.1136
 30.0874
 30.1342
 30.0628
 27.9178
 27.9461
 27.9119
 27.8891
 29.9123
 29.9191
 29.8548
 29.8378
 28.0034
 28.0832
 28.0516
 27.9859
 27.7258
 27.7708
 27.809
 27.738
 27.8607
 27.889
 27.8798
 27.9004
 29.9111
 29.9729
 28.4765
 28.4795
 28.5433
 28.5115
 30.0724
 29.9809
 30.0144
 30.0577
 28.2546
 28.1337
 28.1788
 28.1506
 27.9673
 28.0612
 27.9494
 28.0412
 29.6035
 29.5706
 29.542
 29.5927
 28.912
 28.9004
 28.8425
 28.8835
 29.7759
 29.7674
 29.7022
 29.7676
 29.3315
 29.3084
 29.3082
 29.2217
 31.8354
 31.6806
 31.8417
 31.6912
 27.8118
 27.8509
 27.7554
 27.8375
 29.7529
 29.8882
 29.7533
 29.7614
 30.4629
 30.5606
 30.5493
 30.4454
 29.2435
 29.2695
 29.1991
 29.1453
 30.4093
 30.5852
 30.5599
 30.4508
 29.394
 29.4837
 29.5009
 29.4444
 28.4651
 28.4941
 28.4003
 28.5154
 29.0516
 29.1025
 29.108
 29.0738
 27.9089
 27.7837
 27.9124
 29.2554
 29.1618
 29.3332
 29.2106
 31.9485
 31.9672
 31.9852
 32.048
 27.4411
 27.4104
 27.3886
 27.456
 28.9863
 28.9912
 28.9471
 29.0012
 28.3319
 28.3857
 28.4494
 28.3734
 30.1786
 30.1003
 30.2869
 30.212
 29.5283
 29.4747
 29.633
 29.5674
 29.6272
 29.4955
 29.5439
 29.4933
 27.817
 27.857
 27.7913
 27.7552
 29.4381
 29.5099
 29.5627
 29.5352
 27.4802
 27.4985
 27.4664
 27.5391
 28.4498
 28.5253
 28.527
 28.4442
 30.0693
 30.0425
 30.0141
 30.0673
 31.3933
 31.4156
 31.3287
 31.4473
 29.3494
 29.4669
 29.4083
 29.4774
 29.0353
 29.0441
 28.9732
 29.0698
 28.3327
 28.3492
 28.379
 28.4506
 31.674
 31.7221
 31.6077
 31.7186
 29.282
 29.3519
 29.2374
 29.2569
 27.5927
 27.6263
 27.651
 27.6305
 28.1894
 28.1135
 28.141
 28.1633
 28.069
 28.1041
 28.0288
 28.1262
 28.0651
 28.1369
 28.1473
 28.1208
 28.1255
 28.036
 28.0954
 28.0978
 28.7545
 28.7282
 28.7573
 28.7556
 30.039
 29.8347
 29.7469
 29.7307
 29.7857
 28.5988
 28.7187
 28.6761
 28.6569
 28.6128
 28.587
 28.6828
 28.6875
 30.9386
 30.8768
 30.8598
 30.9347
 28.0008
 28.0069
 28.0452
 28.0131
 28.2875
 28.2381
 28.1598
 28.205
 30.1685
 30.0142
 30.0458
 29.9007
 29.9026
 29.9313
 29.8308
 29.7686
 29.7857
 29.7305
 29.9709
 30.0697
 30.1964
 30.1334
 28.5761
 28.4959
 28.5143
 28.6003
 27.6276
 27.6154
 27.6552
 27.611
 29.0887
 29.1243
 29.0724
 29.1622
 27.7562
 27.8739
 27.9005
 27.915
 29.274
 29.3026
 29.327
 29.236
 28.5295
 28.6043
 28.644
 28.6293
 29.9415
 29.9529
 29.9852
 30.0362
 28.8717
 28.7767
 28.8995
 28.8169
 28.7919
 28.701
 28.6555
 28.7905
 29.9407
 29.9869
 30.062
 30.0317
 29.5115
 29.5666
 29.4082
 29.4528
 29.2339
 29.2462
 29.3146
 29.3802
 28.7885
 28.7598
 28.7929
 28.7546
 30.5756
 30.5981
 30.5686
 30.4665
 28.5559
 28.6423
 28.6105
 28.5419
 29.5787
 29.6854
 29.5651
 29.5201
 28.4865
 28.4959
 28.4852
 28.5327
 27.8333
 27.9036
 27.8522
 27.8747
 27.746
 27.803
 27.786
 27.7674
 27.7555
 27.711
 27.8289
 27.4684
 27.4236
 27.3923
 27.3518
 28.0879
 28.1724
 28.2394
 28.1374
 29.0441
 29.0601
 29.0044
 29.0167
 27.6557
 27.6994
 27.7423
 27.6692
 29.0104
 29.0114
 29.0529
 29.0625
 28.72
 28.6723
 28.6914
 27.9537
 27.8762
 27.9187
 27.9228
 27.9109
 27.9965
 27.9591
 28.836
 28.846
 28.7962
 28.7798
 29.6216
 29.5603
 29.6263
 29.515
 28.5137
 28.5721
 28.5938
 28.6024
 27.7707
 27.7198
 27.7647
 27.794
 29.803
 29.8554
 29.8373
 29.9156
 29.1452
 29.1705
 29.2227
 29.2437
 29.044
 28.9184
 29.0209
 29.0398
 28.381
 28.4665
 28.4213
 28.4261
 29.9377
 30.018
 29.904
 29.9946
 30.2391
 30.3381
 30.2301
 30.2001
 29.1633
 29.1661
 29.1729
 29.1016
 27.4518
 27.4919
 27.4993
 27.4969
 29.7284
 29.8209
 29.7149
 29.7733
 30.0864
 30.0421
 30.1539
 30.0227
 28.6353
 28.7273
 28.6308
 28.6511
 29.7747
 29.7007
 29.7603
 30.152
 30.0663
 30.1021
 28.7733
 28.8377
 28.7198
 28.8064
 30.0782
 30.1448
 30.1804
 30.073
 30.1771
 30.2834
 30.1757
 30.2022
 28.5599
 28.5478
 28.5769
 29.8628
 29.8675
 27.9478
 27.9351
 27.8418
 27.8282
 28.5267
 28.4336
 28.435
 28.4541
 30.7074
 30.6409
 30.7581
 30.61
 31.2113
 31.085
 31.2676
 31.1533
 29.7213
 29.895
 29.8072
 29.7727
 27.9134
 27.9169
 27.8719
 27.9021
 28.4307
 28.4902
 28.5149
 28.4924
 30.5428
 30.5522
 30.5716
 30.584
 29.7668
 29.768
 29.7059
 29.7486
 29.8248
 29.7802
 29.7913
 30.0502
 29.9818
 29.9803
 29.9857
 29.973
 30.0619
 29.9871
 29.9356
 30.1766
 30.3007
 30.2279
 30.2968
 27.7428
 27.6685
 27.7267
 27.7076
 27.6965
 27.6348
 27.7517
 29.1322
 29.1855
 29.1199
 29.2038
 29.7992
 29.924
 29.7854
 29.8078
 27.4565
 27.3948
 30.1787
 30.2645
 30.2302
 30.2874
 28.9438
 28.8233
 28.8984
 28.8349
 28.6685
 28.7019
 30.1059
 30.0914
 30.0152
 30.0988
 27.7105
 27.6567
 27.7366
 27.6133
 27.5326
 27.5886
 27.5433
 27.4417
 29.2567
 29.2219
 29.2463
 30.9244
 30.8165
 30.8606
 29.912
 29.7871
 29.9223
 29.9054
 28.2845
 28.3526
 28.2315
 28.3324
 29.5454
 29.585
 29.6385
 29.6689
 29.6603
 29.707
 29.6354
 29.7178
 28.5876
 28.5802
 28.5544
 28.4681
 31.6991
 31.5455
 31.6896
 31.7616
 28.3569
 28.3567
 28.2711
 28.2776
 28.3681
 28.3741
 28.3175
 28.297
 30.2464
 30.2186
 30.3666
 30.2715
 27.9437
 27.8896
 27.8811
 27.9577
 31.8858
 31.9648
 32.0363
 32.0841
 27.7528
 27.8719
 27.8744
 27.8618
 28.0081
 28.1016
 29.7439
 29.673
 29.6831
 29.6262
 30.3451
 30.4625
 30.4013
 30.3134
 27.9929
 27.9224
 27.9254
 27.9603
 29.5942
 29.5804
 29.5839
 29.6319
 27.4258
 27.4649
 27.4434
 29.8408
 29.9395
 29.929
 30.4968
 30.3752
 30.3347
 27.7931
 27.7408
 27.7724
 27.8021
 29.8233
 29.8951
 29.9021
 29.8689
 27.9601
 27.9521
 30.5232
 30.4399
 30.5197
 30.4789
 29.0944
 29.003
 29.0175
 29.0502
 29.8245
 29.839
 29.4611
 29.3152
 29.3109
 29.3955
 29.67
 29.6722
 29.6629
 29.7727
 27.5192
 27.4541
 27.5627
 27.5368
 30.4159
 30.477
 30.4563
 28.1634
 31.7324
 31.8458
 31.813
 31.8406
 27.9499
 27.9073
 27.8861
 28.0055
 29.6775
 29.6683
 29.5331
 29.5702
 28.3011
 28.3583
 28.3361
 28.3052
 29.6486
 29.7225
 29.7603
 29.669
 28.5783
 30.9324
 30.9854
 30.9892
 30.9191
 28.5362
 28.5546
 28.5645
 28.6257
 28.0599
 28.0423
 27.9789
 28.123
 28.1353
 28.2257
 28.1317
 27.9204
 27.819
 27.9037
 27.8731
 30.2402
 30.219
 30.1094
 30.1715
 27.8283
 27.8234
 27.8406
 27.7715
 30.4689
 30.5116
 30.4726
 30.5816
 27.8941
 27.8501
 27.8359
 27.834
 29.1808
 29.221
 29.2345
 29.2502
 28.3849
 28.3421
 28.3152
 28.3004
 28.7813
 28.8204
 28.8427
 28.8608
 27.7086
 27.8006
 29.064
 29.1423
 29.1223
 29.0702
 30.7848
 30.8195
 30.6989
 30.8181
 30.5017
 30.541
 30.4077
 30.5254
 28.8103
 28.751
 28.7208
 28.7267
 28.3368
 28.3399
 28.345
 28.2552
 28.1767
 28.2475
 28.2004
 28.1641
 27.8586
 27.9376
 27.9243
 27.9756
 28.1901
 28.1219
 28.1621
 28.2076
 30.3789
 30.4392
 30.3598
 30.4921
 30.0793
 30.0708
 30.0978
 29.9771
 27.4095
 27.4716
 27.505
 27.4939
 28.7995
 28.7378
 28.7787
 28.6559
 29.8982
 29.7713
 29.8664
 29.842
 31.325
 31.3284
 31.2349
 31.4614
 27.9367
 27.8999
 27.9611
 27.8401
 29.8986
 29.859
 29.8345
 29.776
 29.3946
 29.3288
 29.4344
 29.3834
 30.5983
 30.6118
 30.6
 30.5197
 28.6475
 28.6931
 28.6615
 28.6605
 27.7883
 27.783
 27.8128
 27.7867
 28.7325
 28.8448
 28.7992
 28.8184
 29.3643
 29.3054
 29.2499
 29.2988
 30.7474
 30.6804
 30.6293
 30.777
 27.7626
 28.4487
 28.3984
 28.4874
 28.3889
 29.3104
 29.3508
 29.4234
 29.3531
 28.2414
 28.1987
 28.2212
 28.1408
 29.8547
 29.9926
 29.9015
 29.8662
 28.7494
 28.683
 28.7735
 30.76
 30.5725
 30.707
 30.6635
 28.0655
 28.1896
 28.1168
 28.1538
 30.3204
 30.3412
 30.2559
 30.3167
 27.1865
 27.224
 27.1993
 27.1472
 29.9832
 29.9792
 29.9475
 29.9816
 31.2756
 31.0509
 31.0974
 31.1812
 30.8229
 30.8355
 30.756
 30.7028
 27.4221
 27.4809
 27.4968
 27.5368
 27.6825
 27.6972
 27.6653
 27.6495
 29.1512
 29.0867
 29.108
 29.071
 29.8787
 29.9399
 29.885
 28.9943
 28.9908
 29.088
 29.0544
 28.493
 28.5488
 28.4283
 28.4623
 28.8505
 28.718
 28.7624
 28.7865
 29.014
 28.997
 28.8672
 28.9265
 27.3621
 27.4111
 27.4163
 27.4448
 30.1119
 30.1366
 30.0098
 30.1088
 30.7182
 30.8263
 30.8556
 28.2889
 28.3334
 28.346
 28.399
 28.049
 27.9805
 28.0079
 28.0285
 29.9337
 29.9486
 29.9168
 30.0617
 30.0413
 29.9956
 30.1249
 27.8504
 27.8867
 27.8054
 27.9133
 29.1547
 29.1746
 29.0933
 29.1468
 30.046
 30.156
 30.0749
 30.1021
 29.2981
 29.3422
 29.3395
 29.2787
 28.0915
 28.082
 28.1468
 28.0916
 29.9275
 29.8232
 29.982
 29.8519
 29.234
 29.3725
 29.3634
 29.2718
 29.656
 29.545
 29.625
 27.7314
 27.7452
 27.779
 27.8045
 29.0635
 29.0847
 29.1172
 29.0219
 27.3895
 27.42
 27.2987
 28.9685
 28.9157
 28.9492
 28.9683
 30.6578
 30.5965
 30.7039
 30.6651
 28.8312
 28.809
 28.7595
 28.6992
 29.0819
 28.9638
 29.1107
 29.9279
 29.9202
 29.8063
 29.8005
 30.3849
 30.3655
 30.4356
 30.3168
 29.8797
 29.84
 29.782
 29.885
 31.3337
 31.2976
 31.2129
 31.2036
 29.3988
 29.4099
 29.4414
 29.4636
 29.7211
 29.7447
 29.6496
 29.7674
 27.7349
 27.8548
 27.8289
 27.7071
 30.3202
 30.2056
 30.2191
 30.266
 28.5907
 28.6123
 28.5711
 28.53
 27.4424
 27.4201
 27.4572
 27.4984
 27.4284
 27.5348
 27.4839
 27.472
 28.165
 28.1243
 28.1469
 28.1537
 27.4636
 27.3778
 27.3896
 27.5093
 27.8118
 27.812
 27.8178
 27.3613
 27.4723
 27.4447
 27.4465
 30.6845
 30.741
 30.6765
 30.7965
 29.3448
 29.4791
 29.4817
 29.4622
 29.6218
 29.5393
 29.6014
 29.5321
 29.5455
 29.5833
 29.5935
 29.6103
 27.7021
 27.7451
 27.6815
 27.6693
 29.4583
 29.4457
 29.547
 29.5329
 29.8786
 29.9703
 29.9802
 29.9191
 28.3299
 28.3491
 28.2819
 28.3884
 29.7829
 29.7221
 29.7979
 29.6816
 28.2924
 28.3465
 28.3854
 28.9367
 28.8552
 28.8367
 27.8152
 27.8959
 27.9174
 27.8768
 29.2888
 29.2503
 29.3154
 29.3114
 28.5643
 28.6299
 28.6042
 28.5306
 29.5725
 29.6859
 29.636
 29.5482
 27.367
 27.4244
 27.6362
 27.6643
 27.6837
 27.5866
 30.7599
 30.8029
 30.7861
 30.8648
 28.5653
 28.5138
 28.4896
 28.4466
 29.9139
 29.8457
 29.9563
 29.9683
 32.1887
 32.2967
 32.1818
 32.2291
 29.8642
 29.9021
 29.9576
 29.8943
 28.3704
 28.4485
 28.3705
 30.3987
 30.4185
 30.2855
 30.2794
 27.4737
 27.5601
 27.4738
 27.5518
 29.9288
 29.8714
 29.9079
 29.8432
 28.6457
 28.5713
 28.5914
 28.639
 30.5007
 30.5203
 30.5982
 30.5224
 31.6772
 31.5429
 31.6225
 31.5473
 30.029
 29.9448
 30.0248
 30.0609
 29.3829
 29.419
 29.3521
 28.8412
 28.9764
 28.8581
 28.9108
 30.1984
 30.2058
 30.2908
 28.2357
 28.2735
 28.2107
 28.1691
 28.1911
 28.0934
 28.1879
 28.1095
 28.3811
 28.4652
 28.4009
 28.3856
 27.5982
 27.7583
 27.7116
 27.6802
 28.152
 28.1734
 28.0979
 29.6309
 29.5527
 29.5877
 29.523
 28.2448
 28.3107
 28.5386
 28.6078
 28.6263
 28.5902
 28.4012
 28.4243
 28.4016
 28.3657
 30.0349
 30.0012
 30.0173
 30.0962
 29.9961
 29.9028
 29.9754
 29.8778
 32.3413
 32.2763
 32.2214
 32.2905
 29.927
 29.8571
 29.9281
 29.5612
 29.593
 29.6142
 29.5774
 28.9434
 28.9457
 28.9903
 29.0053
 29.6121
 29.5297
 29.5041
 29.5703
 30.6498
 30.5911
 30.6636
 30.6603
 28.0485
 28.1627
 28.0837
 28.1219
 29.237
 29.1826
 29.2328
 29.2822
 27.8598
 27.8634
 27.8815
 27.8232
 28.8565
 28.9085
 28.8509
 28.8963
 27.6281
 27.572
 27.623
 31.5158
 31.4318
 31.4276
 31.4538
 28.4119
 28.297
 28.3828
 28.3704
 29.1692
 29.2385
 29.1553
 29.1886
 30.1086
 30.1368
 29.5413
 29.5177
 29.4703
 29.4941
 29.313
 29.4009
 29.3852
 27.8078
 27.7821
 27.8528
 27.8074
 27.691
 27.7338
 27.7856
 27.7756
 30.131
 30.1668
 30.1151
 30.1369
 29.1988
 29.2216
 29.8069
 29.7194
 29.7743
 29.8452
 28.1937
 28.2652
 28.1438
 28.1349
 30.5581
 30.4752
 30.5699
 30.4458
 30.0435
 30.0272
 30.1162
 30.1287
 29.8059
 29.7129
 29.6743
 29.7203
 28.9501
 28.964
 28.9796
 28.8559
 28.3502
 28.3503
 28.3979
 28.4142
 28.216
 28.2467
 28.3064
 28.2451
 32.0233
 32.0235
 32.0965
 32.1311
 30.4085
 30.3179
 30.2513
 28.7723
 28.9116
 28.8277
 28.7342
 28.6792
 28.7622
 28.6358
 27.773
 27.7212
 27.7601
 27.6934
 29.061
 29.911
 29.9024
 29.9871
 29.9665
 28.5527
 28.5879
 28.6501
 28.6256
 28.0881
 28.1739
 28.173
 28.0797
 28.1289
 28.1283
 30.1887
 30.2526
 30.283
 30.2914
 28.933
 28.8477
 28.8696
 28.8572
 30.4828
 30.5439
 30.5186
 30.4541
 28.6826
 29.5222
 29.5631
 29.4196
 29.3895
 29.5937
 29.5336
 29.5015
 29.5583
 27.7714
 27.8561
 27.6596
 27.611
 27.568
 27.6259
 30.8952
 30.9985
 30.9163
 30.8943
 28.1783
 28.1725
 28.2688
 28.1536
 28.7923
 28.8666
 28.8075
 28.7279
 31.8736
 31.8198
 31.8474
 31.9253
 28.976
 28.9845
 28.9386
 29.0165
 29.0847
 29.1768
 29.224
 29.2231
 30.1954
 30.2833
 30.1201
 30.1769
 27.455
 27.3751
 27.3666
 27.341
 29.1264
 29.2099
 29.2235
 29.6474
 29.5601
 29.547
 29.639
 27.6073
 27.5155
 27.5825
 27.5696
 29.7322
 29.8006
 29.8635
 29.7586
 29.2015
 29.1494
 28.0521
 28.0667
 28.0072
 28.1222
 28.834
 28.8127
 28.7299
 28.7246
 27.6112
 27.6486
 27.5388
 27.6069
 29.1992
 29.0734
 30.0602
 30.0371
 30.0087
 30.0033
 29.7175
 29.7046
 29.6429
 29.6235
 28.008
 27.9901
 28.076
 28.045
 28.1986
 28.2445
 28.1622
 28.1765
 28.2363
 28.3155
 28.2428
 28.2342
 29.7204
 29.6193
 29.6617
 29.7099
 31.1058
 31.2038
 31.1808
 31.1423
 27.4535
 27.3681
 27.4359
 27.3962
 30.0888
 30.0956
 30.0768
 30.0415
 28.9066
 28.8147
 28.828
 28.8622
 29.6083
 29.4776
 29.5687
 29.5225
 28.9074
 29.0081
 28.8978
 28.5757
 28.4924
 28.5669
 28.4526
 29.0814
 29.0293
 29.0617
 29.1277
 28.3834
 28.3504
 28.3078
 28.4043
 28.3425
 28.3731
 28.3446
 28.4553
 31.7215
 31.6012
 31.717
 30.4451
 30.36
 30.2742
 30.3107
 28.7899
 28.8412
 28.8181
 28.8297
 28.0776
 27.9958
 28.0424
 27.9982
 29.8529
 29.9865
 29.8575
 29.78
 29.7107
 29.7041
 28.7121
 28.7589
 28.7122
 28.7065
 28.9048
 28.8129
 28.8078
 28.7942
 27.066
 27.0938
 27.1376
 27.0453
 30.7471
 30.6665
 30.7595
 30.8547
 28.2813
 28.2817
 29.4006
 29.3365
 29.317
 29.406
 28.4177
 28.4002
 28.3974
 28.3728
 28.7128
 28.7079
 28.6592
 28.6712
 29.352
 29.3446
 29.2756
 29.4001
 28.5465
 28.4796
 28.4877
 28.4822
 30.1174
 30.0785
 30.0883
 30.0175
 30.4643
 30.5871
 30.4447
 30.5132
 28.035
 28.0025
 27.9583
 27.8533
 28.891
 28.8536
 28.7966
 31.0723
 31.1507
 31.0459
 27.8846
 27.858
 27.8407
 27.8101
 27.8785
 27.9108
 27.9339
 27.9366
 29.1142
 29.1039
 29.1056
 29.0294
 27.769
 27.7252
 27.7409
 27.7323
 27.5434
 27.4309
 27.536
 27.4368
 29.2939
 29.2635
 29.1905
 29.2833
 28.0275
 27.9868
 27.9687
 27.973
 27.1072
 27.0764
 27.1566
 27.0614
 28.2479
 28.2292
 28.2784
 28.1693
 28.7946
 28.9195
 28.8622
 28.9385
 28.0109
 27.9692
 28.0263
 28.041
 28.4218
 28.4373
 28.3979
 28.6208
 28.5597
 30.7197
 30.7454
 30.7367
 30.7896
 28.6056
 28.5371
 28.5396
 28.5746
 31.1276
 31.1122
 31.0909
 31.0966
 30.9532
 30.9417
 30.8822
 30.7873
 28.7009
 28.6776
 28.6597
 28.7365
 29.4555
 29.4567
 29.5223
 29.4196
 28.4544
 28.3839
 28.3976
 28.4109
 29.0538
 29.1034
 30.5456
 30.596
 30.5745
 30.494
 27.5151
 27.4855
 27.4545
 27.5215
 29.4728
 29.5651
 29.4289
 29.4773
 27.8694
 27.8863
 27.9508
 27.9084
 30.4887
 30.6019
 30.5093
 30.5125
 27.837
 27.7294
 27.7637
 27.7462
 28.6265
 28.722
 28.6483
 28.6609
 29.8321
 29.9123
 29.96
 29.9252
 27.2362
 27.2768
 27.2661
 27.3255
 29.6489
 29.5527
 29.6253
 29.647
 29.2795
 29.4365
 29.3449
 29.3591
 27.5252
 27.5113
 27.5759
 27.5045
 29.1054
 29.2307
 29.2116
 29.216
 28.0338
 27.9734
 28.0013
 28.0405
 28.0084
 28.055
 28.0363
 29.3013
 29.4585
 29.378
 29.4227
 28.0792
 28.0029
 28.0462
 28.0287
 30.2554
 30.1589
 30.161
 30.2818
 27.9266
 27.8795
 27.8811
 27.921
 27.9472
 27.9724
 27.9256
 27.9637
 30.0107
 30.0291
 29.843
 29.936
 29.9319
 29.9666
 29.8796
 30.0084
 32.5805
 32.5552
 32.6785
 32.6651
 28.1099
 28.2031
 28.1823
 30.8812
 30.7334
 30.7581
 30.7838
 27.6765
 27.7266
 27.7183
 27.6981
 30.0624
 27.9558
 28.0229
 27.9871
 27.9331
 27.9563
 27.9969
 28.0236
 31.8894
 32.0569
 32.0376
 31.9754
 31.9233
 32.0156
 31.9837
 32.036
 27.6586
 27.7162
 27.6577
 27.6163
 29.9425
 29.98
 29.898
 30.0013
 28.4369
 28.4765
 28.3917
 29.5593
 29.6273
 29.563
 29.6755
 29.2574
 29.247
 29.2849
 27.9035
 27.9471
 27.8269
 28.799
 28.7355
 28.7186
 28.7726
 29.5645
 29.6448
 29.6596
 29.585
 30.0289
 29.9979
 30.047
 30.006
 28.4816
 28.4413
 28.4304
 30.5927
 30.5335
 30.6632
 30.6747
 30.0252
 29.8132
 29.9097
 29.3588
 29.2296
 29.2336
 29.3255
 30.0081
 29.9143
 29.941
 29.9713
 30.0028
 29.8858
 29.8644
 29.895
 27.8553
 27.9018
 27.8915
 27.8976
 29.273
 29.3469
 29.2725
 29.2453
 29.6384
 29.7016
 28.7662
 28.8303
 28.7809
 28.8639
 27.6224
 27.7856
 27.7533
 27.7737
 27.7891
 32.6618
 32.7215
 32.7673
 32.6724
 28.1088
 28.0362
 28.0811
 27.4509
 27.4869
 27.5011
 27.467
 28.2716
 28.3754
 28.3668
 28.369
 30.0464
 30.0107
 29.9595
 30.0534
 29.2794
 29.3362
 29.391
 29.3208
 27.3973
 27.4155
 27.4395
 27.4456
 28.0966
 28.1469
 28.2002
 28.1442
 30.582
 30.625
 30.6354
 30.5221
 29.382
 29.3527
 29.3457
 29.4634
 29.4908
 29.4514
 29.4024
 29.4654
 32.7488
 32.7929
 32.7755
 32.7485
 30.2736
 30.2812
 30.3119
 30.2115
 28.1553
 28.0686
 28.1679
 28.1193
 28.7166
 28.7235
 28.6575
 28.7396
 29.1217
 29.0495
 28.9839
 29.1305
 28.3736
 28.3027
 28.3371
 28.3306
 28.6038
 28.6258
 28.5413
 28.6288
 28.2855
 28.282
 28.3339
 28.2109
 27.2134
 27.3263
 27.2893
 27.184
 28.0835
 28.1155
 28.13
 28.238
 28.3551
 28.3905
 28.4563
 28.3856
 28.4599
 28.8647
 28.8664
 28.9202
 28.7987
 27.6786
 27.712
 27.7223
 27.7186
 29.2013
 29.2453
 29.1728
 29.1989
 28.7644
 28.7424
 28.7031
 28.805
 28.9736
 29.0583
 29.003
 28.9387
 29.5421
 29.6639
 29.5699
 29.6586
 31.3513
 31.3107
 31.2327
 31.424
 27.126
 27.2279
 28.563
 28.6019
 28.6092
 32.1797
 32.2048
 32.2436
 29.788
 29.8475
 29.8098
 29.886
 30.857
 30.8772
 31.0152
 31
 30.2971
 30.3418
 30.2641
 30.3797
 27.596
 27.6913
 27.6502
 27.6378
 28.9034
 28.9961
 28.9527
 29.0154
 28.414
 28.3369
 28.3281
 28.2611
 28.6153
 28.6716
 28.6911
 28.7949
 28.3589
 28.3109
 28.3827
 28.3537
 29.1137
 29.1126
 28.0047
 28.1474
 28.018
 28.1344
 28.2239
 28.2698
 28.308
 28.1552
 29.8287
 29.9472
 29.8135
 29.9332
 29.9701
 29.9505
 29.9528
 29.9305
 28.8324
 28.8142
 28.8477
 28.8009
 28.8288
 28.7685
 28.7236
 28.6695
 30.2803
 30.4208
 30.4335
 30.2754
 28.2513
 28.3276
 28.3557
 28.3544
 27.2602
 27.2969
 27.255
 27.2934
 27.942
 27.9793
 27.9812
 28.0131
 27.2045
 27.1667
 27.2409
 27.1478
 27.8787
 27.7992
 27.8202
 27.8148
 28.9673
 28.8589
 28.9427
 28.9137
 28.4092
 28.4544
 29.0739
 28.9817
 29.0972
 29.0482
 29.8867
 29.8074
 29.8172
 29.7888
 28.1616
 28.0543
 28.0531
 28.1154
 29.0975
 29.1193
 29.0917
 29.1825
 29.2423
 29.3105
 29.3312
 29.2913
 30.024
 30.0133
 29.9677
 29.9061
 29.737
 29.6939
 29.7741
 29.63
 30.046
 29.9578
 29.983
 30.0151
 31.389
 31.3899
 31.4873
 31.426
 28.2244
 28.1918
 28.2607
 28.1998
 28.4915
 28.4829
 31.0026
 31.0662
 31.0638
 31.1417
 29.5916
 29.5556
 28.5158
 28.5727
 28.5061
 28.0405
 28.0128
 30.2371
 30.2333
 30.2953
 30.1707
 31.1609
 31.1394
 31.1161
 31.0895
 30.3423
 30.3104
 30.2504
 30.2268
 29.6268
 29.504
 29.4951
 29.5014
 28.6948
 28.7712
 28.7793
 28.7671
 28.3085
 28.3397
 28.3522
 28.3595
 29.6118
 29.5554
 29.5295
 29.5476
 28.8552
 28.8471
 28.8202
 28.9338
 28.8525
 28.903
 28.9253
 28.8795
 28.9126
 28.849
 28.8177
 28.8319
 28.7576
 28.8833
 28.7668
 29.1032
 29.1604
 29.0508
 29.0906
 29.4401
 29.4037
 29.5557
 29.4254
 29.9751
 29.8917
 30.0285
 29.8919
 27.6392
 27.6623
 27.6197
 27.5774
 29.2917
 29.2888
 29.1793
 29.2015
 30.4246
 30.4172
 30.6077
 30.4661
 30.6522
 30.5881
 30.6615
 30.6713
 30.3919
 30.4853
 30.474
 30.4432
 29.9889
 29.9922
 29.8948
 29.8732
 30.0976
 30.1527
 30.178
 30.1314
 27.8841
 27.8408
 27.8314
 27.8092
 29.1995
 29.1989
 29.2151
 29.1367
 28.2915
 28.2173
 28.272
 28.3158
 29.998
 29.916
 30.0211
 29.9432
 27.5803
 27.5556
 27.5639
 27.5431
 27.5206
 27.5357
 27.4439
 28.2687
 28.4162
 28.3792
 28.367
 29.8071
 29.7586
 29.8541
 29.784
 27.3181
 27.419
 27.4001
 29.3968
 29.4779
 29.3831
 29.509
 27.9036
 27.8917
 28.0285
 28.0079
 27.9472
 28.0377
 29.4732
 29.5163
 29.4819
 30.3103
 30.2731
 30.3731
 30.3493
 30.0248
 30.0397
 29.9322
 29.9516
 29.018
 28.9241
 29.0537
 27.5253
 27.6354
 27.6227
 28.2994
 28.3914
 28.4091
 28.3587
 27.5181
 27.5353
 27.6235
 27.4566
 29.3178
 29.2341
 29.1922
 29.2479
 27.7531
 27.7394
 27.7102
 27.8018
 28.864
 28.8514
 28.9013
 28.9566
 29.7327
 29.8493
 29.7924
 27.3861
 27.4471
 27.4163
 27.3264
 28.5081
 28.7522
 28.6626
 28.7053
 28.7416
 28.5388
 28.522
 28.5884
 29.7411
 29.8118
 29.7935
 29.7973
 29.8024
 29.6793
 29.3737
 29.4601
 29.4421
 29.4388
 29.2255
 29.1253
 29.1897
 29.1324
 28.3309
 27.3062
 27.4142
 27.4228
 27.3493
 31.519
 31.6453
 31.6582
 31.6647
 29.6779
 29.7114
 29.8408
 29.8754
 29.8107
 29.7835
 29.8239
 29.825
 29.9395
 29.9089
 28.2397
 28.3296
 28.3279
 28.2756
 28.1655
 28.1512
 28.2418
 28.1489
 29.6161
 29.7189
 28.3819
 28.3503
 28.2577
 28.3168
 28.3919
 28.3114
 28.3848
 28.7204
 28.7891
 28.8311
 28.8519
 29.1844
 29.2559
 29.1829
 29.2644
 28.248
 28.1411
 28.1599
 28.2398
 28.025
 28.0325
 27.9565
 28.0524
 28.0762
 28.0057
 28.047
 28.2189
 28.2137
 28.1944
 28.2538
 29.3134
 29.291
 29.2761
 29.3441
 30.8158
 30.8815
 30.7899
 30.7766
 29.4816
 29.493
 29.5328
 29.5116
 28.0058
 28.0737
 28.1214
 28.0619
 28.476
 28.5314
 28.5334
 28.4717
 29.5643
 29.5173
 29.4874
 29.4807
 28.4932
 28.5702
 28.5071
 28.4975
 28.8503
 28.8223
 28.9293
 28.8144
 28.8346
 28.7608
 28.7916
 28.7585
 28.4888
 28.4271
 28.4371
 27.8035
 27.7849
 27.8317
 27.8188
 29.5213
 29.4383
 29.4749
 29.471
 29.1131
 29.0377
 29.0446
 29.0607
 30.7177
 30.7543
 30.7076
 30.6316
 30.1037
 30.0635
 30.0427
 30.118
 30.0217
 30.1678
 30.0883
 30.1742
 30.0825
 30.042
 30.0567
 30.0061
 28.8759
 28.9178
 28.8986
 30.4962
 30.5202
 30.4479
 30.4269
 30.1941
 30.1607
 30.1112
 30.2313
 27.3568
 27.4429
 27.4451
 27.377
 28.776
 28.8151
 28.8636
 28.8949
 28.0326
 28.0401
 28.094
 28.0913
 28.703
 28.6704
 28.7277
 28.7675
 28.4978
 28.4474
 28.508
 28.4956
 29.7737
 29.846
 29.819
 29.9207
 29.0513
 28.9009
 29.0215
 28.9959
 27.9301
 27.8757
 27.915
 27.8899
 28.6277
 28.6574
 28.5502
 28.5672
 30.165
 30.239
 30.1419
 30.0769
 27.7653
 27.738
 27.7678
 27.7265
 29.395
 29.4651
 30.3116
 28.9941
 28.9568
 28.8978
 29.0094
 29.1968
 29.1104
 29.2051
 29.2242
 31.2421
 31.2551
 31.1603
 29.4973
 29.5852
 29.6053
 29.6577
 28.6678
 28.5455
 28.6018
 28.5223
 28.8672
 28.8304
 28.8492
 28.886
 27.768
 27.7315
 27.7271
 27.749
 29.9852
 29.8445
 29.9497
 29.8248
 29.8313
 29.8406
 29.7407
 30.9664
 31.1253
 31.003
 31.0091
 30.0579
 29.935
 30.0342
 28.658
 28.5157
 28.6331
 30.0873
 30.1025
 30.1858
 30.1392
 29.1767
 29.0937
 29.0873
 29.0755
 32.744
 32.7679
 32.7158
 32.5758
 29.2832
 29.3076
 29.3086
 30.5135
 30.5436
 30.5151
 30.5141
 29.3949
 29.4249
 29.5123
 29.4453
 30.2514
 30.1744
 30.1821
 30.1164
 28.2623
 28.2287
 28.2704
 28.2096
 28.1194
 28.1908
 28.1444
 28.0998
 27.5396
 27.5363
 27.4949
 27.5917
 28.806
 28.9003
 28.8204
 28.8
 30.1961
 30.3105
 30.212
 30.2786
 29.7412
 29.7796
 30.9242
 30.9189
 30.8655
 30.8778
 29.2226
 29.1901
 29.5096
 29.364
 29.4021
 29.876
 29.8235
 29.7857
 29.8301
 27.5767
 27.5365
 27.6541
 27.6372
 27.6977
 27.7088
 27.74
 27.7145
 29.845
 29.8293
 29.9
 29.9455
 30.5606
 30.5228
 28.6582
 28.6272
 28.6461
 28.5797
 29.9983
 30.0234
 29.9473
 29.9407
 29.4368
 29.5564
 29.3849
 27.1229
 27.1
 27.1775
 28.9235
 28.8254
 28.8554
 28.8609
 27.8381
 27.7665
 27.8608
 27.894
 28.8063
 28.7422
 28.7242
 28.8205
 28.2929
 28.2328
 28.2341
 28.323
 30.2366
 30.1416
 30.2122
 30.2701
 29.906
 29.7649
 29.9424
 29.8135
 28.7782
 28.8525
 28.7022
 28.7991
 29.5038
 29.4092
 29.3916
 29.5094
 30.2177
 30.2095
 30.147
 30.1044
 29.1743
 29.1564
 29.0833
 29.0441
 28.3594
 28.3534
 28.4057
 28.8445
 28.7694
 28.819
 28.7792
 32.1053
 32.0338
 31.9037
 31.9546
 30.5318
 30.5533
 30.5096
 30.5292
 29.5475
 29.5424
 29.5694
 29.4716
 31.2626
 31.1455
 31.2479
 31.2362
 27.7715
 27.7598
 27.8338
 27.4436
 27.5084
 27.5743
 27.5197
 28.1366
 28.0193
 28.0721
 28.0644
 28.8871
 28.4773
 28.3659
 28.348
 28.417
 29.0412
 28.9819
 29.0829
 29.0954
 30.2534
 30.3074
 30.287
 29.8112
 29.7823
 29.7425
 29.8857
 32.1781
 32.2711
 32.1753
 32.2814
 31.0981
 31.0842
 31.0776
 30.9926
 29.5982
 29.6019
 29.5462
 29.4975
 27.3546
 27.4604
 27.4208
 27.437
 31.8705
 31.7649
 31.6977
 31.6758
 28.3239
 28.249
 28.3633
 28.2846
 28.9638
 28.9421
 28.878
 28.9459
 29.8062
 29.9758
 29.9521
 29.0376
 29.1425
 29.1365
 29.132
 27.4806
 27.4382
 27.4259
 30.2214
 30.0738
 30.0567
 29.3823
 29.3629
 29.2707
 29.2869
 29.5563
 29.5827
 29.6097
 29.6323
 29.5097
 29.5216
 29.4394
 29.4201
 30.3263
 30.4042
 30.3579
 30.2633
 29.125
 29.0653
 29.1528
 29.0732
 27.5329
 27.6313
 27.6336
 27.6806
 27.8104
 27.8101
 27.8123
 27.7663
 30.6622
 30.6117
 30.6405
 30.636
 27.8688
 27.8303
 27.8298
 27.922
 27.6609
 27.5592
 27.5837
 27.6726
 27.8031
 27.8235
 27.9041
 27.8994
 28.5549
 28.5562
 28.5005
 28.5285
 29.0222
 29.0811
 29.0044
 29.598
 29.7268
 29.7071
 29.6527
 28.1099
 28.1607
 28.1921
 28.0925
 28.1816
 28.1368
 28.1058
 28.1259
 27.1045
 27.1142
 27.2209
 27.1639
 31.2622
 31.1844
 31.1987
 31.1746
 30.8564
 30.9251
 30.8979
 30.8218
 30.3857
 30.4318
 30.3187
 30.4392
 29.4243
 29.5654
 29.4741
 29.4927
 29.5405
 29.5353
 29.5391
 27.6272
 27.5844
 27.5138
 27.5558
 28.1078
 28.141
 28.1882
 28.1717
 29.1219
 29.1764
 29.2034
 29.1623
 27.7728
 27.7272
 28.7004
 28.7033
 28.7109
 28.7741
 27.8622
 27.8306
 27.7324
 27.7997
 28.8394
 28.7546
 28.8601
 28.742
 29.5966
 29.5558
 29.6962
 29.6847
 30.737
 30.7895
 30.7535
 30.64
 32.3066
 32.1514
 32.297
 32.2599
 27.9072
 27.9384
 27.9391
 27.8946
 27.5693
 27.5546
 27.555
 27.5074
 29.3576
 29.4652
 29.409
 29.4781
 28.9468
 28.9871
 29.0009
 28.9497
 29.9269
 30.0281
 29.8578
 28.4833
 28.546
 28.5251
 28.5621
 29.9731
 29.9888
 29.927
 29.9316
 29.1291
 29.1993
 29.2612
 29.2085
 28.5081
 28.5447
 28.5337
 28.4937
 28.8583
 28.8828
 28.9427
 27.7641
 27.8292
 27.8152
 27.8185
 28.5457
 28.4493
 31.1887
 30.9794
 31.1416
 31.0845
 28.2454
 28.3059
 28.2766
 29.859
 29.8131
 29.8396
 29.8271
 28.695
 28.7199
 28.7415
 28.9398
 29.036
 28.948
 28.9832
 28.6142
 28.6979
 28.5674
 28.6502
 28.5154
 28.4353
 31.8485
 31.8552
 31.9624
 31.8169
 31.8965
 32.0476
 32.0405
 31.9464
 28.9556
 29.0438
 29.0048
 29.0472
 28.7118
 28.7636
 28.6998
 28.737
 31.776
 31.7927
 31.7012
 31.6766
 29.7869
 29.8982
 30.433
 30.4237
 30.3459
 30.272
 28.4751
 28.5161
 28.4108
 28.4565
 28.6987
 28.6624
 28.6029
 28.7256
 28.5333
 28.6255
 28.6474
 28.6202
 29.5905
 29.5859
 29.5102
 29.5938
 30.2009
 30.1668
 30.3053
 30.1729
 30.7226
 30.6376
 30.6156
 30.6948
 30.172
 30.1995
 30.1917
 30.0281
 28.1704
 28.2544
 28.1802
 28.2345
 28.9528
 29.1502
 29.0569
 31.2906
 31.1802
 31.1481
 28.3928
 28.2714
 28.3451
 28.3511
 28.3106
 28.4569
 28.3756
 28.3572
 29.1977
 29.252
 29.2921
 29.2411
 29.2269
 29.1379
 29.2004
 30.1642
 30.2383
 30.2596
 30.2589
 28.0639
 28.0861
 28.027
 28.0632
 30.4922
 30.5323
 30.5177
 30.4607
 30.5258
 30.6028
 30.5459
 27.3694
 27.2785
 27.2347
 27.3104
 27.8434
 27.7988
 29.7346
 29.7666
 29.6865
 29.7236
 29.015
 28.9255
 29.0318
 29.1119
 29.1583
 29.1388
 29.2049
 30.1837
 30.1158
 30.1191
 28.1037
 28.0601
 28.1443
 28.1201
 30.2656
 30.132
 30.2186
 30.2386
 28.306
 28.3843
 28.3972
 28.3436
 30.4314
 30.3598
 30.1422
 30.2735
 30.1908
 30.234
 29.8855
 29.942
 29.9206
 29.8705
 31.1212
 31.1268
 31.2352
 31.2108
 28.2138
 28.1239
 29.5456
 29.4943
 29.4852
 29.4903
 27.4631
 27.4956
 27.4744
 27.4497
 29.6344
 29.6624
 29.5373
 29.4885
 28.0656
 27.9943
 27.9706
 27.9592
 27.7004
 27.6252
 27.748
 27.6377
 28.3103
 28.385
 27.7589
 27.7018
 27.7276
 27.7333
 30.1535
 30.1583
 30.1579
 30.0768
 27.7931
 27.7656
 27.7514
 27.8023
 27.417
 27.3124
 27.3167
 27.3938
 28.5825
 28.5731
 28.509
 28.5261
 29.1257
 29.1504
 29.0562
 29.0211
 27.7414
 27.8416
 27.7876
 27.734
 31.1251
 30.9447
 30.995
 31.1598
 27.7737
 27.6642
 29.5954
 29.5293
 29.5375
 29.4508
 27.885
 27.8938
 27.9887
 27.98
 30.1501
 30.0562
 30.0759
 30.0805
 29.3436
 29.4806
 29.4423
 29.3594
 29.9659
 30.0152
 29.8858
 30.1974
 30.2745
 30.229
 30.3286
 30.4225
 30.317
 30.352
 30.2943
 28.6894
 28.7377
 28.7584
 27.9442
 27.9349
 27.8785
 27.8938
 28.8936
 28.9392
 28.9373
 30.2298
 30.2982
 30.2765
 28.9229
 28.7952
 28.9
 28.835
 28.5832
 28.6083
 28.5723
 28.4869
 29.1381
 29.0383
 29.0297
 29.0687
 29.3158
 29.3568
 29.3762
 29.4696
 29.5035
 29.4928
 29.3808
 29.3552
 29.2957
 29.4295
 27.8589
 27.939
 27.8787
 27.9339
 28.2722
 28.3272
 28.2908
 28.2493
 29.2546
 29.1824
 29.2149
 29.0893
 30.174
 30.2385
 30.2164
 28.8428
 28.8887
 28.8394
 28.8368
 29.7078
 29.8336
 29.7901
 29.8445
 31.5523
 31.5728
 31.6188
 31.6601
 29.4415
 29.4878
 29.4683
 29.4727
 27.8084
 27.8198
 27.7614
 27.7785
 29.4459
 29.3327
 29.3873
 29.4382
 30.3499
 30.3511
 30.3178
 30.2641
 30.2039
 30.2439
 30.2156
 29.0764
 29.0563
 29.06
 28.562
 29.5653
 29.6914
 29.5923
 29.597
 27.7337
 27.7461
 27.7022
 27.8678
 27.853
 27.8138
 29.4543
 29.3537
 29.4107
 29.3565
 27.3099
 27.2796
 27.2628
 27.2546
 30.2088
 28.7796
 28.8578
 28.8107
 28.8206
 30.1408
 30.114
 30.1148
 30.0749
 27.723
 27.6952
 27.8027
 27.7245
 28.3776
 28.2518
 28.3141
 28.3504
 28.1349
 28.0914
 28.1693
 28.1647
 30.4488
 30.404
 30.3442
 30.4323
 29.6831
 29.6052
 29.6935
 29.6883
 28.9373
 28.9812
 28.8896
 28.9723
 29.5319
 29.6321
 29.4677
 29.5954
 28.4751
 28.4514
 28.3805
 28.3991
 30.1301
 30.2059
 30.0939
 30.0794
 29.7245
 29.6518
 29.5829
 29.641
 28.6605
 28.6527
 28.6673
 28.5713
 27.615
 27.5151
 27.5763
 27.5354
 30.3082
 30.3411
 30.1914
 30.2928
 30.9922
 31.0981
 30.9834
 30.9902
 27.6833
 27.6366
 27.6615
 27.6181
 30.9983
 31.0899
 30.7617
 30.8001
 30.7664
 30.6676
 28.9858
 28.9382
 29.0089
 29.0617
 29.6538
 29.6097
 29.6095
 29.7052
 27.1481
 27.115
 27.1216
 27.1814
 27.7664
 27.7721
 27.6862
 28.3747
 28.3784
 28.3266
 28.4186
 30.3186
 30.2805
 30.3772
 30.2558
 29.7301
 29.742
 29.7747
 29.8079
 29.756
 29.6974
 28.4112
 28.3005
 28.3339
 28.3767
 28.4821
 28.4752
 28.5423
 28.465
 28.2757
 28.2675
 28.3615
 28.2765
 27.4389
 27.421
 27.5492
 27.4018
 28.1663
 28.153
 28.2313
 29.3833
 28.8465
 28.8468
 28.8133
 28.881
 28.7982
 28.8854
 28.8708
 28.8806
 28.003
 28.0551
 28.0514
 28.0943
 28.1788
 28.2148
 28.2206
 28.1408
 28.6986
 28.7685
 28.7586
 29.6116
 29.6112
 29.5408
 29.7238
 28.8348
 28.6984
 28.7922
 28.749
 29.4567
 29.4079
 29.5007
 31.6599
 31.6457
 31.6987
 31.5822
 27.967
 27.8717
 27.9058
 27.8707
 27.9642
 27.8457
 27.9089
 31.8189
 28.7874
 28.7626
 28.7915
 28.6949
 28.7304
 28.7066
 30.902
 30.8887
 30.8955
 30.826
 30.3672
 30.3294
 30.2437
 30.3626
 29.9104
 29.8461
 29.8008
 29.8746
 29.9706
 29.9276
 29.8941
 29.9911
 30.0014
 29.9249
 29.3532
 29.3919
 29.4097
 29.4562
 29.3444
 29.2727
 27.0531
 27.0597
 30.2388
 30.0512
 30.2047
 30.1066
 29.1421
 29.157
 29.1333
 29.2206
 30.2923
 30.2932
 30.4764
 30.3604
 27.8924
 27.8571
 27.9764
 27.9327
 27.9073
 27.9668
 27.9064
 27.9709
 28.4258
 28.3853
 28.3663
 28.3973
 28.951
 28.9427
 28.8272
 28.8857
 28.9846
 29.0282
 30.2012
 28.2614
 28.1819
 28.208
 28.1863
 27.4631
 27.4691
 27.3646
 27.494
 27.9108
 27.8283
 27.9237
 27.8879
 32.7174
 32.6802
 32.6625
 32.6198
 27.5472
 27.537
 27.581
 27.5722
 29.8879
 29.8756
 29.9642
 29.8472
 29.6366
 29.7139
 29.6868
 29.7599
 28.4333
 28.4292
 28.3673
 28.3769
 28.424
 28.4317
 28.4756
 28.4599
 30.1863
 30.0417
 30.123
 30.0694
 27.6363
 27.5935
 27.6402
 27.6309
 27.8856
 27.8342
 27.8583
 27.8137
 28.1922
 28.1757
 28.1269
 28.126
 27.6867
 27.7362
 27.7316
 27.6884
 29.7221
 29.6314
 29.6375
 29.5895
 30.2982
 30.2458
 30.244
 30.1799
 27.9205
 27.9842
 27.9983
 27.9819
 29.3076
 29.2737
 29.3404
 29.4105
 29.0237
 29.0601
 29.072
 29.025
 32.1103
 32.1087
 31.9437
 32.0965
 27.544
 27.5326
 27.7334
 27.7175
 27.7847
 27.6888
 30.5782
 30.6989
 30.7431
 30.581
 29.7113
 29.8237
 29.8138
 29.8547
 27.8495
 27.9046
 27.8322
 27.8046
 29.474
 29.4412
 29.487
 29.3966
 29.3856
 29.3538
 29.4592
 29.4472
 27.449
 27.4417
 27.4794
 27.5219
 28.8827
 28.8978
 28.8754
 28.8454
 29.0458
 29.0187
 29.0429
 29.0924
 28.1724
 28.1321
 28.1063
 28.1242
 28.4332
 28.4429
 28.481
 28.5228
 29.311
 29.3009
 29.3983
 29.6679
 29.599
 29.6505
 29.5361
 30.7606
 30.7393
 30.8109
 30.6179
 29.4848
 29.4173
 29.4048
 29.3893
 28.9697
 29.0125
 28.9683
 29.0366
 27.3705
 27.3539
 27.371
 27.4591
 29.5145
 29.379
 29.4487
 29.4569
 30.554
 30.5449
 30.6301
 30.6572
 28.2806
 28.2295
 28.2621
 28.3184
 28.5548
 28.5522
 28.5958
 28.9445
 28.8312
 28.8281
 28.7979
 30.7042
 30.6851
 30.6722
 30.6099
 28.77
 28.8382
 28.807
 28.8745
 27.7163
 27.7198
 27.6981
 27.6982
 28.8691
 28.8168
 28.8453
 28.7551
 30.4558
 30.537
 30.4801
 30.4348
 30.1337
 30.0816
 30.1661
 30.2389
 27.0039
 27.0231
 26.9877
 26.9852
 29.7738
 29.7606
 29.7678
 29.8783
 28.6086
 28.7324
 28.6898
 28.6712
 27.1004
 27.0854
 27.1421
 27.1415
 27.7707
 27.6863
 27.7218
 28.2675
 28.2869
 28.194
 28.1715
 27.8304
 27.8486
 27.7427
 27.8591
 31.7653
 31.7012
 31.5948
 31.642
 29.9859
 29.8729
 30.0001
 27.5189
 27.4206
 27.4363
 27.4456
 28.6785
 28.7
 28.6196
 28.713
 28.0676
 28.0929
 28.004
 28.1294
 30.2772
 30.2832
 30.3462
 30.4161
 29.5043
 29.4213
 29.5307
 29.4572
 28.4146
 28.5279
 28.5028
 30.8394
 30.8255
 30.7625
 30.7526
 30.1523
 30.2318
 30.1828
 30.2148
 29.4549
 27.4657
 27.4366
 27.4417
 27.3946
 31.4825
 31.4694
 31.5436
 31.5662
 28.1698
 28.065
 28.1127
 28.0574
 28.5378
 28.5861
 28.5398
 28.6337
 31.9972
 27.9378
 28.0005
 27.9044
 27.5441
 27.4661
 27.5209
 27.5075
 29.2272
 29.1767
 29.0566
 29.1703
 28.5142
 28.5214
 28.4678
 28.5547
 29.8976
 29.99
 28.9941
 29.0295
 29.0283
 28.9445
 29.9552
 30.0164
 30.0517
 29.9558
 29.6058
 29.6406
 29.5131
 29.5014
 28.333
 28.3743
 28.3287
 28.2997
 30.9694
 30.9402
 30.936
 30.8253
 30.2297
 30.3012
 30.2456
 30.3373
 30.9704
 30.8264
 30.5877
 30.5887
 30.5641
 30.5717
 30.7035
 30.7657
 30.6448
 30.7583
 27.4776
 27.5232
 27.566
 27.5751
 28.7054
 28.6949
 28.7292
 28.6085
 29.4128
 29.3063
 29.3603
 29.3669
 28.7814
 28.8064
 28.821
 28.7516
 27.4247
 27.4305
 30.891
 30.9649
 30.9497
 30.8762
 27.4536
 27.4209
 27.4765
 31.2217
 31.299
 31.2241
 31.2912
 27.5465
 27.6141
 27.5709
 27.6205
 29.5088
 29.568
 29.4764
 29.5596
 29.1996
 29.1831
 29.219
 27.4211
 27.4542
 27.4517
 27.4086
 28.7376
 28.8075
 28.7226
 28.7914
 29.1314
 29.0928
 29.0144
 29.096
 29.419
 29.4805
 29.3047
 29.4671
 29.3434
 29.4038
 28.6
 28.6801
 28.6373
 27.3828
 27.49
 27.5035
 27.4283
 29.2312
 29.1742
 29.2356
 29.2215
 29.3596
 29.4035
 29.6833
 29.8233
 29.8331
 29.7863
 31.3366
 31.3053
 31.225
 28.8477
 28.8226
 28.9202
 28.9287
 27.5376
 27.5321
 27.5227
 30.8921
 31.0339
 30.8744
 29.1292
 29.2163
 29.1734
 29.2389
 28.3938
 28.4011
 28.4862
 28.4581
 31.4726
 31.4987
 31.4605
 31.4646
 27.9074
 27.8912
 27.9406
 27.9471
 28.326
 28.4049
 28.3934
 28.3999
 27.8551
 27.8316
 27.88
 27.503
 27.4972
 27.3742
 27.4314
 28.8984
 28.9866
 28.9047
 28.9059
 27.7049
 27.7216
 27.7601
 27.7613
 29.5408
 29.5623
 29.5102
 29.602
 27.419
 28.5641
 29.032
 29.0721
 29.001
 29.0973
 28.5627
 28.5708
 28.6502
 28.6585
 28.2055
 28.1836
 28.2257
 28.2964
 28.5616
 28.6004
 28.5156
 28.5492
 28.0412
 28.0831
 28.0138
 28.0273
 29.0403
 29.0863
 29.0503
 28.9885
 29.1229
 29.0917
 29.078
 29.0466
 29.3794
 29.3913
 29.4209
 29.3258
 29.0432
 29.0422
 29.1221
 30.4162
 30.3877
 30.4281
 30.3589
 28.9883
 28.4715
 28.3458
 28.3404
 28.4212
 27.5754
 27.5693
 27.654
 29.6448
 29.7776
 29.7196
 29.7651
 28.8864
 28.791
 28.8113
 28.5093
 28.4953
 28.577
 28.5609
 28.4129
 28.3993
 28.3178
 28.3088
 27.7675
 27.7339
 27.6888
 27.745
 29.9752
 29.9773
 29.9257
 30.0644
 28.8015
 28.8768
 28.8994
 28.9083
 29.1023
 29.1575
 29.2055
 29.1384
 29.1801
 29.2432
 29.2443
 29.3057
 29.0177
 29.0513
 29.0075
 29.0842
 28.1663
 28.2835
 28.1501
 28.2289
 29.1486
 29.2713
 29.2239
 29.2104
 30.9168
 30.9189
 30.9135
 30.8523
 30.8455
 30.7684
 30.756
 29.0322
 29.0297
 28.9612
 28.9554
 29.0135
 28.9318
 28.9236
 28.9176
 29.0804
 29.1647
 29.0455
 29.0235
 27.6145
 27.6123
 27.6907
 27.6946
 28.1875
 28.2593
 28.258
 28.1781
 29.728
 29.6785
 29.6782
 29.6599
 30.2898
 30.1908
 30.1779
 30.3139
 27.8722
 27.8928
 27.9316
 27.8703
 31.429
 31.4157
 31.3824
 31.316
 29.3947
 29.3101
 29.3548
 29.3693
 30.5076
 30.4662
 30.4661
 30.0989
 29.9931
 30.0069
 29.973
 28.291
 28.3362
 28.2738
 28.3702
 29.9423
 30.0822
 30.0226
 29.9912
 30.8153
 30.6421
 30.7562
 31.5545
 31.4072
 31.3435
 31.326
 27.368
 27.3471
 27.3072
 27.2609
 29.8658
 29.9258
 29.8801
 29.8464
 28.6269
 28.7311
 28.7172
 28.6404
 27.6895
 27.7433
 27.7921
 27.7513
 28.0484
 27.9575
 28.0822
 28.0236
 29.7545
 29.746
 29.8019
 29.768
 30.5969
 30.6974
 30.7672
 30.6743
 28.8356
 28.785
 28.858
 28.8136
 30.5105
 30.3909
 29.3589
 29.4964
 29.4789
 29.3908
 29.1421
 29.1506
 29.1966
 29.1144
 29.2268
 29.2207
 29.2585
 30.3306
 30.2875
 30.3264
 28.5509
 28.5534
 28.5326
 28.5041
 28.7147
 28.7225
 28.7802
 28.6552
 29.7811
 29.6832
 29.7239
 29.7748
 28.1697
 28.0815
 28.1956
 28.1513
 29.0329
 29.1229
 29.0735
 29.0037
 30.5309
 30.5325
 30.5564
 30.5315
 29.5725
 29.5412
 29.5877
 28.6996
 28.6979
 28.7705
 28.6922
 28.9479
 28.9106
 28.8527
 27.365
 27.416
 27.415
 27.4436
 31.0077
 31.032
 31.0083
 31.1357
 29.5724
 29.4874
 29.4981
 29.5545
 29.6031
 29.6259
 29.705
 29.606
 27.2982
 27.326
 27.2367
 27.1759
 28.1838
 28.137
 28.1488
 29.9823
 30.0412
 30.0488
 30.0345
 27.9765
 28.0687
 28.0227
 29.8603
 29.857
 29.9199
 29.9004
 32.1184
 32.0205
 32.1797
 32.0994
 27.6717
 27.651
 27.6249
 27.7031
 30.3189
 30.3417
 30.3822
 30.4912
 27.5089
 27.5548
 27.5651
 27.5435
 30.0732
 29.9366
 30.0257
 29.9904
 32.2602
 32.3576
 32.2202
 32.2702
 30.6852
 30.8407
 30.7477
 30.6391
 30.3286
 30.2205
 30.1884
 30.3411
 28.99
 29.1154
 30.2514
 30.2621
 30.4109
 30.3784
 28.683
 28.7359
 28.7615
 28.7981
 29.1576
 29.1558
 29.222
 29.1104
 27.7423
 27.8198
 27.6755
 27.6671
 27.8395
 27.8977
 27.8585
 27.8074
 28.0227
 28.0335
 28.0232
 28.1002
 27.8182
 27.8076
 27.7906
 27.8423
 28.3561
 28.3895
 28.3132
 28.3713
 27.9918
 27.9221
 27.9439
 27.985
 30.9234
 31.0637
 31.0909
 30.9083
 27.6942
 27.6608
 27.6736
 27.6853
 29.3875
 29.4735
 29.4705
 29.4228
 28.1766
 28.2758
 28.2533
 27.8507
 27.7843
 27.7872
 27.8349
 30.2414
 30.338
 30.353
 30.2995
 30.8171
 30.8714
 30.9555
 30.9125
 28.2126
 28.2236
 28.2858
 28.1612
 29.172
 29.1922
 29.2365
 29.2564
 28.4087
 28.4643
 28.4109
 28.3914
 28.39
 28.3902
 28.269
 29.4749
 29.4922
 29.5785
 28.4663
 28.447
 28.8384
 28.9548
 27.3725
 27.3348
 27.3393
 27.3719
 28.8903
 28.842
 28.8865
 28.791
 28.4247
 28.4793
 28.3712
 28.4671
 28.7889
 28.7426
 28.7563
 28.693
 28.022
 28.0068
 27.9679
 28.0191
 28.0211
 29.2418
 29.24
 29.3221
 29.3252
 30.5606
 30.561
 30.5568
 30.5396
 28.3582
 28.4412
 28.3624
 28.4169
 28.4108
 28.495
 28.4936
 28.4213
 31.9527
 31.9237
 31.8605
 31.7725
 29.0506
 28.9915
 29.029
 29.0644
 29.0298
 29.1072
 29.1292
 29.0511
 28.4817
 28.5412
 30.2685
 30.2425
 30.1966
 30.2576
 29.6011
 29.5522
 29.5858
 29.6362
 30.126
 30.1769
 30.2145
 30.1921
 29.6695
 29.6027
 29.6156
 29.6897
 30.1475
 30.1583
 30.1975
 30.122
 28.1824
 28.2
 28.1644
 28.1178
 27.6966
 27.6862
 27.7601
 27.7168
 29.8621
 29.8989
 29.9516
 29.8318
 29.0629
 29.1638
 29.0865
 29.0917
 28.0223
 28.1142
 28.0598
 28.0992
 29.3993
 29.423
 29.4125
 29.3259
 29.8569
 29.7928
 30.684
 30.6504
 30.6185
 30.6985
 29.3106
 29.3367
 29.346
 29.4114
 27.9308
 27.9629
 27.9635
 27.8839
 27.6063
 27.6563
 27.6491
 27.5848
 31.6177
 31.5822
 29.3339
 29.2726
 29.2238
 29.2319
 29.3796
 29.518
 29.4272
 29.4377
 29.5492
 29.605
 30.0218
 29.9688
 29.9853
 29.9311
 29.1819
 29.0769
 29.0711
 30.9001
 30.8352
 30.8372
 30.7829
 27.7821
 27.7347
 27.8224
 27.7757
 27.6474
 27.6418
 27.6383
 27.3394
 27.3875
 27.4391
 27.4041
 28.8186
 28.6819
 28.7503
 28.7184
 29.0003
 28.9083
 29.0431
 28.9591
 28.1213
 28.0256
 27.9835
 28.0496
 28.433
 28.4257
 28.3575
 28.4288
 28.5957
 28.5083
 28.5418
 28.9551
 28.9427
 28.9771
 28.8855
 28.3414
 28.215
 28.2606
 28.3315
 29.2836
 29.3137
 29.2696
 29.2597
 29.0101
 29.0231
 28.9513
 29.0784
 28.4978
 28.5151
 28.5442
 28.4658
 29.0235
 29.0881
 29.1144
 29.0239
 32.1659
 32.2106
 32.1319
 32.1115
 29.9578
 29.9971
 29.9927
 30.0605
 28.3369
 28.3235
 28.2644
 28.2556
 30.0219
 30.0006
 30.1211
 30.1566
 30.2534
 30.3856
 30.2475
 30.1749
 27.8471
 27.8459
 27.7958
 27.8969
 27.8669
 27.9384
 27.8801
 27.8874
 27.6658
 27.7355
 27.6583
 27.6568
 28.0729
 28.0801
 28.0163
 28.0345
 29.4232
 29.3863
 29.481
 29.3879
 30.0699
 30.1079
 30.0161
 30.1043
 28.4513
 28.5499
 28.4522
 28.5323
 30.013
 29.984
 29.9633
 29.9793
 30.7552
 30.7047
 30.6982
 30.6269
 29.1093
 29.0496
 29.0944
 29.0312
 29.5074
 29.5638
 29.621
 29.5133
 29.5008
 29.4033
 29.4934
 30.5719
 30.6233
 30.7318
 30.6413
 29.8455
 29.8609
 29.8985
 29.8726
 28.4005
 28.3529
 28.3928
 28.3448
 28.9972
 28.9256
 28.9147
 27.3502
 27.4199
 27.4268
 27.3755
 27.5835
 27.517
 27.4815
 27.5403
 29.6275
 29.5595
 29.6584
 29.5652
 28.6979
 28.6465
 30.3511
 30.3541
 30.4596
 30.3239
 28.9815
 29.0311
 29.0996
 29.045
 27.6284
 27.6156
 27.6849
 27.6315
 29.9646
 29.941
 29.8843
 29.3847
 29.3895
 29.3416
 29.4556
 29.5502
 29.4141
 29.4492
 29.4826
 29.0583
 28.9811
 28.9706
 29.0766
 29.0494
 29.0082
 28.9565
 29.0211
 28.8765
 28.8146
 28.8641
 28.8144
 29.1483
 29.084
 28.0345
 28.0533
 27.9361
 28.0352
 29.074
 29.1596
 29.1248
 29.0805
 28.5833
 28.6973
 28.6654
 29.1232
 29.0459
 29.083
 29.0426
 28.659
 28.6941
 28.732
 28.6722
 30.0063
 30.0962
 30.0278
 30.1406
 29.2795
 29.2915
 29.2062
 28.809
 28.8095
 28.6925
 28.8544
 29.149
 29.1572
 29.1013
 30.1117
 30.0907
 30.1816
 28.5984
 28.6054
 28.6049
 28.6797
 28.9757
 28.906
 28.9126
 31.8142
 31.828
 31.7594
 31.9562
 28.4697
 28.5263
 28.5557
 28.4672
 29.4472
 29.5451
 29.5344
 29.5522
 28.0711
 28.0793
 28.0564
 27.9919
 27.9349
 27.9936
 27.9062
 27.9202
 30.232
 30.1081
 30.2469
 30.2323
 28.8722
 28.9504
 28.9767
 29.6143
 29.7293
 29.6665
 29.6542
 27.7852
 27.8967
 27.8432
 28.9786
 28.9223
 28.9655
 28.8845
 28.4259
 28.4028
 28.4024
 28.4025
 27.7771
 27.7283
 27.7326
 27.7836
 32.3707
 32.5162
 32.4638
 32.3662
 29.7575
 29.7461
 29.6921
 29.7651
 28.8203
 28.6883
 28.731
 28.7145
 30.6827
 30.7948
 30.7754
 28.9443
 28.8756
 28.9029
 28.9627
 27.6143
 28.4874
 28.5264
 28.6477
 28.5689
 28.0199
 28.0201
 27.9943
 27.9695
 28.1856
 28.2496
 28.2602
 28.2174
 28.8151
 28.8549
 28.8972
 28.9912
 28.9932
 28.9835
 31.4667
 31.3957
 31.4291
 31.3839
 29.6202
 29.6579
 29.6908
 29.7444
 29.7309
 29.6723
 29.7286
 27.6701
 27.5205
 27.6765
 27.6758
 29.0625
 29.0715
 28.9806
 28.9876
 28.6969
 28.7276
 28.7879
 28.7339
 27.9056
 27.94
 27.8771
 27.9469
 28.989
 29.0122
 28.9287
 29.0371
 30.9944
 30.9004
 31.0009
 30.9731
 29.1381
 29.1691
 29.1285
 29.1562
 29.7721
 29.7656
 29.7544
 29.7008
 30.0165
 30.0868
 30.0466
 30.018
 30.6022
 30.5611
 30.6125
 30.6038
 31.0736
 31.1288
 31.0947
 30.9783
 27.2873
 27.3793
 27.344
 27.3523
 31.3956
 31.3381
 31.4064
 31.2107
 29.0751
 29.1192
 29.0645
 29.1383
 27.3476
 27.3705
 27.3994
 27.3946
 29.4037
 29.4128
 29.37
 29.3372
 30.5605
 27.778
 27.8179
 27.8015
 27.7409
 30.1297
 31.0097
 30.916
 30.8705
 30.9437
 28.7559
 28.6649
 28.1413
 28.2369
 28.1464
 28.2276
 27.8272
 27.8438
 27.7946
 27.8065
 27.2547
 27.3301
 27.254
 28.1018
 28.0258
 28.0177
 28.0136
 29.3093
 27.5038
 28.4247
 28.4633
 28.4801
 27.6856
 27.6418
 27.6203
 27.671
 29.3519
 29.3499
 29.3601
 29.4095
 29.8216
 29.8194
 29.8353
 29.9249
 28.4412
 28.499
 28.4851
 28.3743
 27.5228
 27.4575
 27.5357
 27.5214
 27.8622
 27.8853
 27.8412
 27.8886
 28.5939
 28.4893
 28.5
 31.0605
 31.1095
 30.9351
 31.0227
 32.3556
 32.2757
 32.3372
 32.2114
 30.383
 30.5135
 30.498
 30.4414
 28.8089
 28.7512
 28.8436
 30.7013
 30.6065
 30.6501
 30.7432
 27.9514
 27.9681
 27.8886
 28.1158
 28.0793
 28.1375
 28.1104
 30.0355
 30.0812
 28.3871
 28.2636
 27.0962
 27.1644
 27.0912
 27.3351
 27.3222
 27.3246
 27.2932
 29.2052
 29.2744
 29.1637
 29.2173
 29.6376
 29.6519
 29.6947
 29.6019
 29.1644
 29.1907
 29.1206
 29.114
 27.5462
 27.5455
 27.536
 27.5542
 28.37
 28.3484
 28.3726
 28.4163
 30.5377
 30.5371
 30.5549
 30.448
 28.3733
 28.3567
 28.4056
 28.3191
 28.8467
 28.8139
 28.8941
 28.8109
 28.4212
 28.3493
 28.371
 32.792
 32.7259
 32.7088
 29.5993
 29.6446
 29.342
 29.3479
 29.403
 29.3093
 28.2603
 28.1843
 28.2451
 28.2524
 28.3411
 28.3128
 28.2255
 28.3293
 28.3261
 28.3511
 28.2452
 31.7111
 31.729
 30.6982
 30.6985
 30.6241
 30.6917
 28.7661
 31.8323
 31.9184
 31.8655
 31.8269
 29.8138
 29.7132
 29.7952
 29.8141
 29.296
 29.3101
 31.0376
 30.8955
 30.8806
 30.9532
 27.2674
 27.1807
 27.2344
 27.2526
 27.499
 27.4948
 27.5345
 27.4178
 30.1615
 30.0024
 30.1197
 30.029
 29.7266
 29.7904
 29.617
 29.6671
 29.6084
 29.6761
 29.612
 28.2486
 28.2301
 28.306
 28.241
 30.5264
 30.4676
 30.4254
 30.3943
 29.1276
 29.0713
 29.1396
 28.6603
 28.6613
 28.6154
 28.5605
 29.6706
 29.6548
 29.5823
 29.631
 30.0178
 29.9202
 29.8691
 29.952
 29.9621
 30.0268
 30.0136
 29.9387
 29.4171
 29.3431
 29.3198
 29.413
 28.4636
 28.5211
 29.8043
 29.7796
 29.7403
 29.8231
 27.3252
 27.4339
 27.4207
 27.4144
 30.075
 30.026
 30.0751
 30.0144
 30.9546
 30.9888
 30.8522
 30.9296
 28.8006
 28.7454
 31.4037
 31.3303
 31.4833
 31.3278
 29.5312
 29.5258
 29.5634
 27.6714
 27.7127
 27.6468
 27.6437
 31.2448
 31.2445
 31.2305
 29.9888
 29.9908
 29.9104
 29.9386
 30.98
 30.1014
 30.1301
 30.136
 30.2328
 28.9869
 29.0318
 28.9772
 29.0102
 29.2063
 29.1873
 29.1453
 29.2145
 27.5835
 27.5007
 28.944
 28.9208
 28.9446
 28.9582
 30.1057
 30.2132
 30.0834
 30.228
 29.5913
 29.4315
 29.5141
 29.5871
 27.771
 27.8224
 27.8127
 27.8186
 29.3338
 29.3112
 29.2324
 29.2476
 28.8138
 27.9295
 27.8777
 27.9417
 29.5628
 29.5457
 29.6251
 29.5032
 28.374
 28.3898
 28.3504
 28.4472
 29.4746
 29.5185
 29.5284
 29.4253
 27.5791
 27.6528
 27.6596
 27.6248
 27.1165
 27.0793
 27.1543
 29.9933
 29.9282
 29.844
 29.8985
 28.6728
 28.6
 28.7094
 28.6831
 28.3474
 28.3359
 28.28
 28.2445
 29.6171
 29.6407
 30.0064
 30.0911
 30.1071
 30.002
 29.4781
 29.3485
 28.5739
 28.5562
 28.5924
 28.615
 28.447
 28.4166
 28.3653
 28.4632
 29.3144
 29.3101
 29.2218
 29.2439
 28.6505
 28.6424
 28.6345
 27.7981
 27.8981
 27.9101
 27.8788
 28.1154
 28.1359
 28.0902
 29.3676
 29.2279
 29.339
 29.2897
 29.8768
 29.9889
 30.0459
 29.9215
 28.3487
 28.4249
 28.4298
 28.3654
 29.2423
 29.2505
 29.3319
 30.5747
 30.5981
 30.5729
 30.5985
 29.653
 29.6763
 29.6221
 29.5915
 28.1157
 28.1016
 28.1866
 27.3161
 27.4027
 27.4101
 28.4321
 28.3949
 28.398
 29.6593
 29.7445
 29.6354
 29.7165
 27.4397
 27.4494
 27.4479
 27.4004
 28.5583
 28.5918
 28.5485
 28.4982
 28.0017
 27.9676
 27.8594
 27.8907
 28.1132
 28.0847
 28.1245
 28.1166
 30.8213
 30.8353
 30.8881
 29.3235
 29.2987
 29.3573
 29.2923
 28.074
 28.0213
 28.1002
 28.1002
 29.1772
 29.1376
 29.1333
 29.0507
 28.3028
 28.3001
 28.3203
 28.3973
 27.5874
 27.5544
 30.556
 30.4995
 30.4942
 30.4492
 28.1595
 28.199
 28.1109
 28.1874
 29.3961
 29.4425
 29.4599
 29.3771
 28.4424
 28.502
 27.4806
 27.48
 27.53
 27.4391
 28.0014
 27.9248
 28.0266
 27.8714
 27.3769
 27.3824
 27.3158
 27.2662
 28.2721
 28.2969
 28.2555
 28.4122
 28.3032
 28.3414
 28.3558
 28.3019
 28.3671
 28.3477
 28.4163
 29.8159
 29.7931
 29.8748
 29.9057
 30.9974
 31.0836
 30.9322
 29.0459
 29.0315
 29.0368
 27.8322
 27.8945
 27.8475
 27.917
 29.2595
 29.2047
 29.1368
 29.1949
 30.141
 30.2287
 30.184
 30.124
 29.0559
 29.1566
 29.1607
 29.1904
 29.4751
 29.3578
 29.4568
 27.4989
 27.467
 27.5488
 27.5464
 30.5037
 30.4698
 30.2099
 30.1516
 30.1431
 28.3468
 28.331
 28.3901
 28.2811
 29.1566
 29.0919
 29.0469
 29.1341
 30.3184
 30.3126
 30.2093
 30.302
 28.7963
 28.9226
 28.9257
 28.8261
 29.5467
 29.5958
 29.5178
 29.5069
 27.7956
 27.7833
 27.69
 29.659
 29.6907
 29.5938
 29.605
 28.7551
 28.7096
 30.3152
 30.1849
 30.1994
 30.3002
 30.1977
 30.2594
 30.227
 30.2693
 27.6593
 27.7157
 29.9603
 29.9042
 29.9225
 30.0008
 28.9756
 29.0556
 29.0092
 28.9845
 29.5038
 30.9674
 31.0397
 31.0201
 28.7941
 28.7877
 28.7598
 28.8444
 27.693
 27.6887
 27.7318
 27.6584
 30.6276
 30.6762
 30.5698
 30.6407
 30.1396
 30.0602
 30.1686
 30.1461
 28.3471
 28.2944
 28.2883
 30.5423
 30.4939
 30.4696
 30.4256
 27.327
 27.4171
 27.351
 27.3191
 30.5452
 30.48
 30.4669
 30.593
 28.5111
 28.5852
 28.5277
 28.4508
 29.4521
 29.3979
 29.4142
 29.469
 30.1998
 30.1692
 30.2007
 29.4964
 29.394
 29.5105
 29.4278
 30.3666
 30.4842
 30.426
 30.4155
 30.0196
 30.0808
 30.0264
 28.2077
 28.2553
 28.1847
 28.1985
 28.2691
 29.1409
 28.9528
 29.0619
 29.0616
 27.6532
 27.6983
 27.7186
 27.7003
 28.781
 28.7102
 28.8208
 28.7365
 28.4214
 28.3676
 28.4189
 28.4536
 30.2064
 30.2468
 30.1339
 30.0364
 30.06
 28.6331
 28.7053
 28.6583
 28.6177
 27.71
 27.6223
 28.8101
 28.7872
 28.8481
 28.7673
 30.3121
 30.3432
 30.2557
 27.8036
 27.7843
 27.8418
 27.8082
 28.8713
 28.9548
 28.9454
 28.9118
 30.2161
 30.277
 30.2164
 30.1744
 29.1001
 29.1171
 29.0104
 29.079
 28.5814
 28.4587
 30.7126
 30.7648
 30.7227
 30.809
 30.0265
 29.8885
 29.8125
 29.8833
 29.805
 29.8134
 29.7859
 29.8898
 29.8257
 29.7789
 28.9875
 28.9574
 28.9935
 28.5398
 28.5797
 28.5956
 28.6379
 29.9585
 29.9653
 29.9374
 29.968
 29.4209
 29.425
 28.7171
 28.7858
 28.7954
 28.8491
 28.7812
 28.7685
 29.0967
 29.0073
 28.9999
 29.071
 31.316
 31.2139
 31.2296
 31.1676
 28.7571
 30.3929
 30.2822
 30.361
 30.3722
 27.497
 27.459
 27.5161
 28.2646
 28.3132
 28.3391
 28.2585
 29.0797
 29.027
 29.0596
 29.176
 28.9779
 28.9132
 28.9976
 30.026
 29.9552
 29.9924
 30.0414
 27.7043
 27.6547
 27.7884
 27.6892
 28.5746
 28.5973
 28.5276
 28.542
 27.7416
 27.7285
 27.8194
 27.772
 30.3688
 30.3435
 30.4499
 30.4467
 29.8318
 29.7588
 28.2505
 28.2819
 28.3198
 28.2829
 27.6366
 27.6537
 27.6459
 27.6702
 27.1497
 27.1243
 27.1703
 27.0857
 27.7448
 27.7899
 27.7274
 28.5741
 28.5379
 28.6065
 28.5651
 27.8948
 27.8625
 27.8222
 27.8576
 30.533
 30.4207
 30.3908
 30.4556
 27.9634
 27.9297
 27.9107
 28.5772
 28.5969
 28.6096
 28.6036
 30.37
 30.4425
 30.3851
 30.4551
 28.3387
 28.2491
 28.3197
 28.3054
 28.6699
 28.6169
 28.5989
 28.6532
 29.709
 29.6256
 29.6476
 29.5543
 30.541
 30.5273
 30.6528
 30.6368
 29.1847
 29.1451
 29.0772
 29.1579
 31.5254
 31.429
 31.3838
 31.3655
 30.172
 30.1218
 30.1918
 29.9689
 30.07
 30.0513
 30.0624
 31.91
 31.7702
 31.9611
 31.8739
 27.8619
 27.919
 27.9159
 28.0286
 28.0331
 27.9692
 27.9868
 29.933
 29.7893
 29.8334
 30.9614
 30.9695
 31.0006
 30.4977
 30.6258
 30.4955
 30.5101
 29.791
 29.806
 29.7295
 29.871
 28.5411
 28.4579
 28.5143
 28.5239
 31.2711
 31.2063
 31.0785
 31.205
 28.7017
 28.8119
 28.8255
 28.7338
 28.0535
 27.9932
 28.1005
 28.0498
 28.8479
 28.8335
 28.7346
 28.7423
 29.265
 29.3134
 29.2001
 30.3374
 30.3369
 30.3602
 30.281
 27.7306
 27.6668
 27.6586
 27.6641
 27.9871
 27.9345
 27.9879
 28.0154
 29.7493
 29.6751
 29.7126
 29.7975
 27.5168
 27.4866
 27.4587
 27.7105
 27.6214
 27.7001
 27.6789
 27.651
 27.6172
 27.6941
 27.6581
 31.2654
 31.2851
 31.7945
 31.7981
 31.8744
 31.7039
 28.5077
 28.5389
 28.5803
 29.036
 29.0997
 28.9697
 29.0686
 29.0169
 28.938
 28.967
 29.0004
 32.6109
 29.3034
 28.6319
 28.5574
 28.0635
 28.0123
 28.0472
 28.0294
 31
 29.4309
 29.3552
 29.4304
 27.0674
 27.1194
 27.1174
 27.1169
 28.9864
 29.047
 28.9957
 28.9354
 27.4183
 27.4798
 27.4373
 27.4854
 29.2929
 29.1949
 29.3293
 29.5117
 29.4375
 29.4836
 27.9175
 27.8787
 27.9677
 27.9105
 28.7291
 28.7559
 28.8024
 28.8639
 30.52
 30.6053
 30.4416
 30.4882
 27.9878
 27.8637
 27.9084
 27.5358
 27.4493
 27.4452
 27.5375
 28.0224
 28.0318
 28.0964
 28.0224
 29.9627
 29.9833
 29.8405
 29.9891
 29.6534
 29.7229
 29.7076
 29.7228
 27.8243
 27.7695
 27.7741
 27.7692
 29.3019
 29.3676
 29.4116
 28.1818
 28.1651
 28.2048
 28.2362
 30.3263
 30.239
 30.3709
 30.3692
 28.6187
 28.6083
 28.6804
 28.6493
 30.3984
 30.3213
 30.382
 30.3877
 28.7848
 28.6862
 28.7414
 28.7339
 28.1025
 28.0789
 28.0212
 28.1663
 30.6415
 30.6726
 30.5753
 28.8305
 28.7713
 27.9707
 28.0218
 28.0161
 28.0697
 29.3314
 29.3829
 29.3827
 30.4134
 30.4737
 30.5232
 30.4807
 28.4505
 28.4193
 28.471
 28.3989
 28.5621
 28.5812
 28.4647
 28.5504
 32.2513
 32.3014
 32.1695
 32.1696
 29.1075
 29.1787
 29.125
 31.7964
 31.696
 31.6935
 28.9135
 28.9428
 29.0062
 28.9965
 29.078
 30.2997
 30.3345
 30.4661
 30.4577
 29.2172
 29.1583
 29.1252
 28.0415
 28.0506
 28.0534
 28.0784
 29.131
 29.0885
 29.0494
 29.0502
 29.0853
 29.1023
 29.1133
 27.1593
 27.2005
 27.222
 27.277
 29.9779
 29.7993
 29.8492
 29.9246
 30.6927
 30.6852
 30.6295
 30.6614
 29.4937
 29.5225
 29.399
 29.4782
 27.8763
 27.8235
 27.8305
 27.916
 32.3561
 32.2473
 32.2629
 32.1365
 28.2752
 28.3538
 28.2854
 28.2804
 30.5848
 30.6778
 30.6523
 30.6661
 28.0062
 28.1427
 28.12
 28.0607
 28.0368
 28.0943
 28.1249
 28.0662
 28.2474
 28.2032
 29.9597
 30.0127
 30.0213
 29.9661
 27.7
 27.7099
 27.7053
 28.1697
 28.2839
 28.2271
 28.1546
 30.0142
 29.9134
 29.9713
 30.0674
 29.46
 29.5033
 29.3897
 32.8058
 32.7998
 32.8662
 32.795
 29.0482
 29.1911
 29.0782
 27.7637
 27.7058
 27.7437
 27.7687
 28.0306
 28.0737
 27.7573
 27.7013
 27.642
 27.7471
 28.2148
 28.1997
 30.6958
 30.5744
 30.7527
 30.5295
 28.1236
 28.1445
 28.1318
 28.2155
 28.9049
 28.8419
 29.5667
 29.5029
 29.5207
 29.5569
 28.2096
 28.1807
 28.1321
 28.1772
 29.8921
 30.0081
 29.9949
 29.9055
 27.7817
 27.7945
 27.7374
 27.6225
 28.625
 28.5977
 28.6987
 31.0011
 31.0653
 31.0748
 30.9903
 28.5395
 28.5653
 28.5977
 28.6268
 29.9491
 30.0257
 30.085
 30.1156
 29.9232
 30.021
 29.9466
 32.4098
 32.3911
 32.4695
 32.3866
 30.5695
 30.4173
 30.3896
 30.5423
 27.9667
 28.0183
 27.9504
 28.017
 29.1881
 29.1714
 29.2452
 29.3875
 30.2462
 30.1848
 30.2291
 30.1653
 29.3708
 29.4322
 29.3951
 29.3647
 28.3675
 28.269
 28.2539
 28.3365
 30.298
 30.2918
 30.1404
 31.0317
 28.6555
 28.6144
 28.7071
 28.5883
 30.2338
 30.0904
 31.692
 31.8053
 30.2238
 30.1543
 30.2253
 30.3525
 28.3036
 28.2469
 27.9749
 27.9775
 27.9409
 27.9894
 29.7072
 29.6398
 29.5982
 29.6485
 27.5843
 27.5709
 27.5046
 27.5762
 29.566
 29.5648
 29.7422
 29.717
 28.1941
 28.1835
 28.2116
 28.3104
 29.9728
 29.9652
 29.9243
 29.9219
 28.0831
 28.0357
 28.1244
 28.0612
 29.277
 29.2126
 27.6674
 27.6949
 28.4804
 28.4339
 28.499
 28.4234
 28.4748
 28.4911
 28.486
 28.4123
 28.8171
 28.8608
 28.7964
 28.7905
 28.1049
 28.2027
 28.1167
 28.0414
 29.9929
 30.0854
 30.0328
 30.0346
 27.689
 27.6947
 27.72
 27.5675
 27.5645
 27.6341
 27.584
 30.373
 30.2523
 30.2463
 30.2889
 28.2306
 28.3361
 28.3129
 28.292
 30.3579
 30.2652
 30.2643
 30.1793
 28.9517
 29.1115
 28.9919
 28.9988
 29.1282
 27.957
 27.946
 27.9405
 28.0198
 31.5111
 31.5842
 31.4859
 31.4289
 28.284
 28.2359
 28.1781
 28.2428
 28.9842
 28.8822
 29.0499
 28.9698
 28.3508
 28.4072
 28.4143
 28.4084
 28.402
 27.1967
 27.2385
 27.326
 27.2759
 28.0717
 28.0734
 28.1762
 28.1427
 31.5906
 31.4768
 31.4007
 31.589
 29.3078
 29.3918
 29.4258
 29.3495
 29.7674
 28.8387
 28.8749
 28.8425
 28.775
 27.7836
 27.7857
 27.8427
 27.8832
 27.9396
 27.9265
 27.8735
 27.7866
 27.9325
 27.8563
 27.8946
 32.1764
 32.0903
 28.1912
 28.1831
 28.1532
 29.6977
 29.7125
 29.7207
 29.6245
 28.2683
 28.3027
 28.2432
 28.3087
 28.8083
 28.4197
 28.4817
 28.4044
 28.455
 27.5604
 27.6708
 27.647
 27.5651
 28.4163
 28.3698
 28.2714
 28.3975
 29.36
 29.3378
 29.4511
 29.2756
 30.3738
 30.3501
 30.4179
 30.3259
 27.2965
 27.3892
 27.2651
 27.3039
 28.2723
 28.3031
 28.2387
 28.3216
 27.3878
 27.4252
 27.402
 27.3336
 29.7608
 29.8938
 29.7594
 29.7405
 28.7617
 28.8023
 27.6407
 27.5554
 27.6526
 27.6023
 28.8027
 28.7723
 28.7659
 28.6989
 29.0875
 28.9981
 28.9297
 28.8244
 28.8189
 28.9152
 27.8986
 27.9282
 27.9454
 27.8776
 29.525
 29.6298
 29.6825
 29.5874
 30.6447
 30.5347
 30.5908
 30.591
 30.4976
 30.5561
 30.566
 30.5422
 29.6913
 29.6621
 29.6573
 29.7604
 29.2039
 29.3285
 29.2296
 29.2051
 29.3211
 29.2673
 29.2332
 28.9655
 29.0235
 29.0397
 28.9961
 30.7518
 30.845
 30.7686
 29.4753
 29.4707
 29.3767
 29.3862
 28.8794
 28.8485
 28.8361
 28.9202
 29.8751
 29.9521
 29.8249
 29.9584
 29.6502
 29.584
 29.5987
 29.6087
 28.7192
 28.71
 28.6539
 28.6057
 29.1234
 29.1888
 29.1427
 29.176
 28.4025
 28.4307
 28.382
 28.4012
 30.5037
 30.4815
 30.4422
 28.0246
 28.0504
 27.9743
 28.0503
 29.8435
 29.7479
 29.788
 29.862
 29.3364
 29.4056
 29.4348
 29.3139
 29.1439
 29.0849
 29.0489
 28.5292
 28.5485
 28.5148
 28.4537
 28.4644
 28.4496
 28.4079
 28.4878
 28.3568
 28.3526
 28.2788
 27.9225
 27.8673
 27.8985
 28.5538
 28.5924
 28.6414
 28.5575
 27.786
 27.7412
 27.8305
 27.7225
 27.7202
 27.738
 27.799
 29.1227
 29.2718
 29.1929
 29.2233
 29.6998
 29.77
 29.6979
 29.7594
 30.1105
 27.8831
 27.9219
 27.8231
 27.8714
 27.8164
 27.9421
 32.4691
 32.5552
 32.4618
 32.4634
 28.1686
 28.2293
 29.2598
 29.3716
 29.2685
 27.3756
 27.2931
 28.5581
 28.6711
 28.6447
 28.6334
 29.2436
 29.2044
 29.1976
 28.1955
 28.0685
 28.158
 28.097
 29.7339
 29.7054
 29.7684
 29.6794
 31.7151
 31.5931
 31.6353
 31.7238
 28.6904
 28.6792
 28.7152
 28.6191
 27.9334
 27.8242
 27.9456
 28.1005
 28.0968
 28.0844
 28.1473
 29.9485
 30.0752
 30.0381
 30.1305
 29.9696
 29.8594
 30.255
 30.1764
 30.2862
 27.3239
 27.3784
 27.9087
 27.978
 27.893
 28.0048
 28.9163
 28.7847
 28.8111
 28.2295
 28.3049
 28.1816
 28.1721
 29.9054
 30.0308
 30.0031
 29.9411
 28.9654
 28.9658
 28.8991
 28.8818
 29.0449
 28.9921
 28.9853
 29.0467
 30.0486
 29.9893
 29.9859
 29.9127
 29.9679
 29.9329
 29.9455
 27.1054
 27.03
 27.0889
 26.9997
 30.6434
 30.7736
 27.7193
 27.7203
 27.7189
 27.7764
 29.3016
 29.2256
 29.2563
 29.298
 28.8597
 28.8097
 28.8059
 28.8105
 30.595
 30.4802
 28.849
 28.9044
 28.9113
 28.948
 29.2635
 29.2924
 29.3129
 29.2394
 28.0209
 28.0454
 28.07
 28.0327
 29.0872
 29.0436
 29.0197
 29.1399
 29.7675
 29.7725
 28.6193
 28.6198
 28.6563
 28.5936
 28.2968
 28.3328
 28.2692
 28.8627
 28.7849
 28.8072
 28.7753
 30.165
 30.1277
 30.1837
 30.0616
 32.0582
 31.9611
 31.9825
 32.0568
 29.1376
 29.1827
 29.1282
 29.0395
 28.7642
 28.6635
 28.7363
 28.7629
 29.2776
 29.2348
 29.3326
 29.3128
 29.5597
 29.6229
 29.5667
 29.5131
 27.9901
 27.9132
 28.6146
 28.6443
 28.6794
 31.2603
 31.3022
 31.3736
 31.2824
 30.0147
 30.076
 29.9701
 30.1136
 28.8813
 28.8504
 28.9017
 28.9285
 28.0144
 27.988
 27.9799
 29.2514
 29.2715
 29.379
 29.3878
 29.8034
 29.6632
 29.7224
 29.8086
 28.227
 28.3051
 28.3158
 28.2592
 28.5217
 28.5502
 28.5747
 28.5645
 27.94
 27.9269
 27.9236
 28.1627
 28.1535
 28.1588
 28.1441
 29.4835
 29.4886
 29.5261
 29.606
 29.165
 29.1744
 29.0968
 31.9129
 31.8911
 31.9659
 32.0134
 29.8517
 29.8629
 30.6785
 30.7454
 30.6296
 30.6092
 30.1018
 30.4984
 27.7699
 29.7075
 29.7891
 29.7295
 29.8308
 27.3187
 28.5476
 28.6155
 28.5469
 28.6398
 29.8403
 29.7495
 29.804
 29.4181
 29.3515
 29.3499
 27.9507
 27.9459
 28.0508
 27.9639
 28.0784
 28.1303
 28.0634
 28.1152
 30.2191
 30.3574
 30.3467
 30.2685
 27.5498
 27.5332
 27.5266
 27.6073
 29.0447
 29.0991
 29.1646
 28.0899
 28.0332
 28.0713
 28.7155
 28.8042
 28.777
 28.7089
 29.7015
 29.6503
 29.7577
 29.7212
 28.8427
 28.7272
 28.829
 29.6159
 29.5908
 29.5817
 29.6767
 29.2269
 29.1236
 28.0018
 27.9607
 27.9423
 27.8845
 27.7637
 27.672
 27.7154
 27.7515
 29.9669
 29.8659
 30.0306
 29.9654
 28.2359
 28.3367
 28.3052
 28.2165
 28.6663
 28.7826
 28.6804
 28.6353
 29.4347
 29.4833
 29.3732
 29.4339
 27.8141
 27.8405
 27.8633
 27.8911
 29.2919
 29.3586
 29.2366
 29.2316
 28.9891
 29.0482
 29.0516
 28.9324
 29.1199
 29.1732
 29.1088
 29.0939
 29.9507
 29.8703
 30.0662
 30.0147
 29.9459
 30.0491
 30.8771
 31.0505
 30.9565
 30.9115
 28.6563
 28.657
 28.6303
 28.5681
 28.6439
 28.74
 28.714
 27.6406
 27.6239
 27.6044
 27.6083
 27.2769
 27.2494
 27.302
 27.658
 27.6344
 27.7319
 28.7492
 28.6663
 28.6023
 28.7131
 28.3377
 28.2822
 28.2399
 28.3714
 28.0471
 27.9797
 28.0412
 27.9728
 29.5932
 29.6963
 29.6683
 29.6058
 30.7084
 30.6223
 30.5847
 30.5789
 27.3366
 27.3368
 27.3875
 27.2558
 29.804
 29.8533
 29.8819
 29.7796
 28.7651
 28.7624
 28.7203
 28.7798
 27.2721
 27.3216
 27.3942
 27.2419
 28.4312
 28.5038
 28.4152
 28.4405
 29.299
 29.3372
 29.3047
 29.3307
 29.7873
 29.8712
 29.8533
 30.4094
 30.3048
 30.3755
 30.4286
 30.1451
 30.188
 30.1314
 30.1977
 30.0575
 30.1976
 29.9154
 29.875
 30.028
 27.968
 28.0073
 28.0206
 28.039
 27.7456
 27.8022
 27.7757
 27.7946
 28.4772
 28.489
 28.4925
 28.5732
 29.1185
 27.7049
 27.677
 27.6926
 27.7261
 30.5385
 30.5287
 30.5578
 30.5667
 27.4443
 27.3814
 27.4642
 27.3564
 29.4264
 29.5469
 29.3977
 28.3229
 30.2578
 30.2407
 30.3099
 30.1356
 30.1721
 30.2285
 30.0741
 28.8877
 28.9084
 29.0222
 28.9617
 28.1594
 28.1489
 28.2144
 28.1113
 29.0755
 28.3746
 28.4051
 28.4317
 29.0855
 29.118
 29.0933
 29.0097
 29.6485
 29.625
 29.6898
 29.6901
 29.4053
 29.4997
 29.4303
 29.4164
 28.3289
 29.9509
 29.9492
 29.8777
 28.0516
 28.0938
 28.0361
 28.0731
 27.9231
 27.94
 27.8622
 27.9649
 27.6665
 27.6397
 27.6798
 29.6352
 29.6267
 29.7075
 29.6193
 30.5863
 30.6312
 30.579
 27.9014
 27.9301
 27.7858
 27.8149
 27.8596
 27.853
 29.1764
 29.1801
 29.1254
 27.4233
 27.4506
 27.4002
 27.4714
 27.9871
 28.0234
 27.9966
 27.9557
 28.4797
 28.5306
 28.4584
 28.4504
 28.8989
 28.8754
 28.9041
 28.981
 29.8454
 29.8796
 29.8969
 29.8005
 27.8329
 27.8192
 27.8561
 27.7576
 29.6345
 29.6146
 29.7094
 29.4216
 29.3506
 29.3439
 29.3218
 27.7455
 27.7457
 27.6587
 27.716
 28.3758
 28.3806
 28.4121
 28.4318
 27.443
 27.4889
 27.5501
 27.4738
 29.4024
 29.3279
 29.2989
 29.3128
 28.846
 28.8113
 28.907
 28.7574
 27.9346
 27.9417
 27.8969
 27.9352
 28.866
 28.7874
 28.8712
 28.8497
 27.4394
 27.3368
 27.4206
 29.6471
 29.6875
 29.6997
 29.686
 28.7693
 28.7739
 28.7768
 28.8495
 28.5265
 28.4375
 28.5058
 28.5048
 28.9313
 28.9987
 28.8684
 28.954
 27.9239
 27.9297
 27.8449
 27.8924
 29.1484
 29.2233
 29.1961
 29.215
 28.6148
 28.6338
 28.6183
 28.6836
 30.5841
 30.5841
 30.6068
 30.5767
 28.1137
 28.0941
 28.1622
 28.193
 30.6386
 30.6426
 30.6334
 29.9523
 29.9985
 29.9914
 29.9343
 30.2536
 30.2273
 30.0469
 30.1759
 28.1153
 28.1653
 28.1103
 28.0593
 28.3644
 28.2561
 28.3346
 28.3365
 29.3874
 29.4692
 29.4814
 29.5208
 27.2355
 27.2774
 27.338
 31.9221
 31.967
 28.6172
 28.5498
 28.6523
 28.6282
 30.9626
 31.0375
 31.1209
 31.0078
 28.3793
 28.382
 28.2877
 28.3098
 29.4188
 29.5862
 29.6151
 29.6373
 29.6847
 28.217
 28.1832
 28.1758
 28.1449
 27.908
 27.9248
 27.8588
 27.927
 30.5914
 30.5934
 28.3479
 28.3189
 28.2122
 28.3171
 28.717
 28.8568
 28.715
 28.7855
 29.8091
 29.7921
 29.8706
 29.6612
 29.201
 29.2591
 29.2654
 29.1892
 28.0029
 28.077
 27.9363
 27.7029
 27.7314
 27.723
 27.7426
 27.2956
 27.2872
 27.2732
 29.5487
 29.6048
 29.5811
 29.5371
 27.6483
 27.7186
 27.7303
 27.7455
 30.2269
 30.3232
 30.2858
 30.2675
 28.4574
 28.4218
 28.4286
 28.5052
 28.8491
 28.7571
 28.8235
 28.815
 27.67
 27.6837
 27.6943
 27.6201
 28.3663
 28.318
 28.399
 28.4366
 31.0554
 31.1015
 31.1551
 31.0884
 29.1043
 29.2274
 29.1148
 29.2187
 29.5929
 29.4285
 29.4652
 29.5609
 28.2099
 28.1655
 28.2329
 28.3032
 30.1259
 30.2016
 30.2575
 30.2217
 28.6624
 28.7221
 28.6714
 28.5888
 29.5927
 29.6694
 29.6683
 30.5152
 30.6161
 30.515
 30.6597
 28.5346
 28.4637
 28.5818
 28.4091
 28.4284
 28.4799
 29.8777
 29.9622
 30.023
 30.1723
 30.1912
 30.1454
 30.1139
 27.6974
 32.581
 32.5002
 32.4748
 32.6078
 27.9506
 28.0115
 27.8975
 27.9597
 30.3722
 29.3857
 29.4008
 29.4213
 29.311
 29.6029
 29.6514
 29.4881
 29.8376
 29.7276
 29.7733
 29.8339
 31.1638
 31.2233
 31.1538
 31.2693
 30.2326
 30.1527
 30.172
 28.879
 28.9199
 28.909
 29.5736
 29.6032
 27.1458
 27.227
 27.2358
 30.188
 30.1116
 30.2118
 29.3634
 29.2936
 29.273
 27.6297
 27.5594
 27.58
 28.169
 28.1648
 28.0946
 28.1706
 29.8432
 29.7622
 29.7473
 30.4741
 30.5977
 27.556
 27.6292
 27.5363
 27.5609
 30.8988
 30.8285
 30.9411
 30.7689
 30.1899
 30.2237
 32.0447
 32.167
 31.607
 31.6344
 31.5384
 29.4165
 29.3639
 29.4539
 27.5599
 27.6502
 27.6659
 28.3448
 28.3259
 28.2617
 29.7602
 29.6689
 29.5654
 29.5201
 29.6093
 27.8468
 30.6944
 30.7013
 30.6424
 30.6335
 29.6063
 29.4453
 29.5396
 29.5671
 28.2566
 28.2892
 28.2382
 28.2186
 28.2164
 28.2586
 28.2322
 29.4619
 29.5024
 29.4298
 29.3668
 28.402
 28.3614
 28.3204
 28.3246
 28.1197
 28.1836
 28.1474
 28.071
 29.0592
 28.2694
 28.2968
 28.2565
 28.229
 27.4927
 27.4544
 27.4888
 27.5454
 29.9915
 30.1444
 30.1664
 30.061
 27.586
 27.552
 27.5878
 27.5983
 32.0237
 32.0781
 32.1702
 27.5288
 27.5681
 27.4446
 27.5033
 29.8972
 29.9229
 30.0078
 29.9928
 28.1117
 28.1776
 28.1332
 28.0828
 30.2288
 30.233
 30.4137
 30.3741
 27.3657
 27.9624
 28.0602
 28.026
 28.0934
 27.8388
 27.7735
 27.8022
 30.5017
 30.4326
 30.5155
 30.5605
 28.1284
 28.1966
 28.1767
 28.2191
 28.677
 28.6255
 28.6138
 28.6291
 28.7662
 28.7267
 28.8304
 28.8346
 27.2876
 27.3655
 29.2536
 29.2394
 29.2352
 29.5401
 29.4724
 29.4449
 29.3764
 28.3106
 28.3557
 28.2251
 28.2248
 28.278
 28.2368
 28.2382
 28.1876
 28.5569
 28.558
 28.4826
 28.5636
 29.9753
 29.9405
 29.7028
 29.757
 29.7656
 29.3825
 29.3289
 29.3117
 29.2967
 30.5547
 30.6386
 30.6415
 30.6514
 29.6063
 29.6266
 29.7108
 31.1168
 31.1469
 30.9977
 29.489
 29.4914
 29.5523
 29.4414
 29.9387
 29.8265
 29.9624
 29.1239
 28.2997
 28.3065
 28.2244
 29.3941
 29.4397
 29.3877
 29.3216
 30.2255
 30.2132
 30.0184
 30.1266
 29.0948
 29.0425
 29.0228
 29.0176
 27.9782
 28.0244
 27.2176
 27.2749
 27.3175
 27.2125
 28.2307
 28.2774
 28.2096
 28.3261
 29.2657
 29.2826
 29.2881
 29.249
 27.4278
 27.4215
 27.3077
 27.467
 27.5653
 27.53
 27.5168
 28.9459
 29.0315
 29.0655
 28.9683
 30.4094
 30.4573
 30.3467
 29.2617
 29.272
 29.1747
 29.2508
 30.3734
 30.5531
 30.4301
 30.532
 28.4072
 28.4168
 28.3969
 28.5598
 30.5776
 30.5738
 30.5785
 30.5423
 29.9315
 29.8519
 29.8289
 29.8947
 27.5051
 27.5845
 27.5016
 27.5584
 28.7949
 28.7984
 28.8632
 28.7939
 29.4634
 29.5272
 29.4373
 29.5138
 28.3529
 28.3283
 28.0239
 27.91
 27.9322
 27.9425
 29.3973
 29.311
 29.3425
 29.2435
 29.149
 29.0965
 29.1388
 29.1464
 30.367
 30.3189
 30.3978
 29.3174
 29.3774
 29.4287
 32.3636
 32.5394
 32.4426
 32.5259
 29.8425
 29.7851
 30.486
 30.39
 30.4291
 30.5057
 28.6162
 28.6815
 28.6227
 28.7088
 31.1939
 31.1152
 31.0511
 31.1486
 30.0755
 30.0961
 30.197
 28.4612
 28.4316
 28.4383
 28.4717
 29.9929
 29.9217
 30.0293
 30.0847
 30.0687
 30.143
 30.1596
 29.3984
 29.4597
 29.4463
 29.3526
 28.1024
 27.9285
 31.7987
 31.7576
 29.8463
 29.9283
 29.2236
 29.2871
 29.2607
 29.2716
 28.4734
 28.4317
 28.4791
 28.3827
 28.9534
 28.9597
 28.9132
 28.893
 30.3643
 30.5341
 30.3687
 30.4956
 28.7119
 28.7972
 28.751
 30.4018
 30.4363
 30.3738
 30.3746
 27.7096
 27.693
 27.648
 27.7236
 28.5132
 28.5165
 28.529
 28.5933
 30.3159
 30.2273
 30.3483
 29.253
 29.3438
 29.2627
 29.2146
 30.5733
 30.5635
 30.5185
 29.9594
 29.8905
 29.9132
 29.973
 30.2657
 30.2845
 30.1824
 30.2447
 29.4126
 29.4795
 29.5193
 29.5284
 27.5268
 27.5728
 27.6446
 27.6051
 28.643
 28.5281
 28.5507
 28.5898
 29.2914
 29.385
 29.3091
 28.8791
 28.916
 28.9053
 27.7855
 27.8556
 27.7885
 27.8298
 28.5567
 28.5257
 28.6164
 28.5032
 29.4507
 29.3832
 29.3238
 29.3713
 30.6695
 30.6079
 30.3442
 30.4079
 30.3083
 30.3074
 31.8779
 31.9158
 31.9898
 31.8302
 28.2553
 28.2332
 28.2419
 28.2654
 30.031
 30.1526
 30.0965
 30.1106
 28.9827
 29.0717
 29.0123
 29.1075
 30.8223
 30.8519
 30.8495
 30.897
 28.8177
 28.8605
 28.901
 28.8933
 29.1371
 28.2132
 28.3015
 28.2979
 28.2839
 29.3916
 29.4933
 29.5182
 29.401
 29.3297
 29.2862
 29.2426
 29.2571
 29.521
 29.5957
 29.5636
 29.6399
 30.2524
 30.373
 30.2127
 27.9461
 27.9286
 27.8999
 28.0306
 29.3251
 29.3457
 29.3511
 29.3828
 28.0262
 27.9892
 27.9474
 28.4753
 28.5209
 28.4688
 28.5208
 28.1165
 28.0305
 28.0767
 28.0175
 30.1445
 30.0557
 30.1468
 32.6526
 32.6021
 32.5717
 28.3085
 28.2181
 28.2436
 28.8455
 28.7181
 28.7889
 28.7196
 29.5209
 29.4606
 29.4188
 29.4619
 29.3391
 29.2858
 29.4021
 29.3784
 31.4103
 31.3382
 31.4994
 31.3338
 28.9178
 28.9571
 28.9607
 28.9714
 28.7419
 28.752
 28.6337
 28.7134
 29.9508
 29.9564
 29.7768
 29.9459
 29.8623
 29.8483
 28.4182
 28.4786
 28.4446
 28.4297
 30.0878
 30.0052
 28.6351
 28.6596
 30.402
 32.3777
 32.4146
 32.4279
 32.3564
 30.7041
 30.6081
 27.364
 27.2941
 27.3558
 30.5828
 30.5051
 30.4414
 30.5197
 28.3334
 28.3147
 29.9851
 30.0019
 29.9848
 29.9864
 29.5984
 29.4555
 29.5355
 28.2233
 28.2235
 28.2296
 28.1439
 28.5596
 28.4976
 28.5774
 28.5419
 27.9473
 27.9399
 27.8769
 29.2981
 29.3684
 29.2988
 29.4062
 29.0949
 27.8832
 27.9992
 27.9141
 27.941
 30.5822
 30.6309
 30.5358
 30.4966
 28.9655
 29.0175
 28.8917
 28.9711
 28.212
 28.3255
 28.2428
 28.2957
 31.8256
 31.8426
 31.7868
 31.8189
 30.1968
 27.3831
 29.4283
 29.3027
 29.3809
 29.4624
 28.9013
 28.818
 28.9163
 28.9461
 29.9644
 30.1112
 30.0156
 30.0104
 28.865
 28.9055
 28.879
 28.863
 30.3176
 30.3086
 30.193
 30.3968
 30.3077
 30.2336
 30.3149
 29.3002
 29.1974
 29.3245
 29.288
 28.2074
 28.1291
 28.2803
 27.1488
 27.0768
 27.1491
 27.1886
 31.3987
 31.5646
 31.5606
 29.1489
 29.1566
 29.2266
 29.1787
 29.2816
 29.1658
 27.7423
 27.7379
 27.7757
 27.6755
 28.3186
 28.3673
 28.3507
 28.4059
 30.273
 30.1228
 30.231
 30.9984
 29.3527
 29.4423
 29.4089
 29.3571
 29.1473
 29.0901
 29.0978
 28.476
 28.5198
 28.4944
 28.4543
 28.2612
 28.34
 28.2846
 28.3202
 29.3872
 29.4479
 28.4001
 28.4008
 28.4087
 28.348
 28.8329
 28.8539
 28.8311
 28.7694
 27.6318
 27.583
 28.5669
 28.6424
 28.5978
 28.6218
 28.3871
 28.3551
 28.3463
 28.2929
 28.5132
 28.4703
 28.5063
 28.5198
 29.1126
 29.068
 29.3796
 29.3274
 29.3925
 29.4386
 29.556
 29.6391
 29.604
 29.5767
 28.7923
 28.7242
 28.74
 28.7568
 30.3236
 30.2662
 30.176
 30.1476
 29.984
 30.0232
 30.0546
 30.0247
 31.6682
 31.5142
 31.5301
 31.6604
 29.5718
 29.7226
 28.7942
 28.9236
 28.8299
 28.8633
 29.4377
 29.4629
 29.4226
 29.3652
 28.9315
 28.8728
 28.8278
 28.9101
 29.2809
 29.2718
 28.2046
 28.2244
 27.4417
 27.4256
 27.4133
 27.4086
 30.5299
 29.33
 29.339
 29.3124
 29.2595
 29.1603
 29.2334
 29.1916
 29.1609
 29.739
 29.8096
 29.814
 29.9187
 28.3521
 28.4445
 28.376
 28.459
 28.8336
 28.8845
 28.9035
 28.8316
 30.3386
 30.3759
 30.2826
 30.4311
 30.4718
 29.4917
 29.4056
 29.5107
 29.4675
 29.5874
 29.4773
 29.5321
 29.6114
 30.2304
 30.218
 30.3223
 30.2227
 30.0055
 29.9874
 29.8726
 29.925
 29.1854
 29.1016
 29.2055
 29.2067
 30.3617
 30.4123
 30.4703
 30.4389
 28.9171
 28.8972
 29.0009
 29.8935
 29.8966
 29.9257
 29.9293
 31.2909
 31.2246
 28.8823
 28.8405
 28.8176
 29.0454
 28.9542
 28.988
 28.947
 30.4416
 30.3762
 30.3436
 30.8392
 30.775
 30.7968
 30.8173
 28.6226
 28.6515
 28.5669
 28.6109
 28.9296
 29.0319
 28.931
 28.1448
 28.2818
 28.2148
 29.1357
 29.1968
 29.1807
 27.9261
 27.9488
 27.9038
 31.5844
 31.6751
 31.7088
 31.5958
 27.6297
 27.6
 27.6457
 27.5951
 29.6908
 29.7553
 28.8168
 28.8381
 30.183
 30.1864
 30.1988
 30.1192
 28.6653
 28.721
 28.6256
 28.1474
 28.0972
 28.1125
 28.0997
 27.8768
 27.9751
 30.5952
 30.5867
 30.6446
 28.847
 28.8443
 28.9104
 29.9801
 30.0505
 29.9407
 30.4034
 30.4111
 30.4478
 30.4515
 29.344
 29.3128
 29.3877
 29.2814
 29.4409
 29.5186
 29.5029
 29.4493
 28.3787
 28.3888
 28.4108
 28.3371
 28.2595
 28.3247
 28.29
 28.3741
 29.5858
 29.5416
 29.5084
 28.6565
 28.6881
 28.7254
 28.5009
 28.4199
 28.4507
 28.4017
 27.0017
 27.0473
 26.9886
 29.1168
 29.1735
 29.1714
 28.3873
 28.3437
 28.4266
 29.2017
 29.1669
 29.236
 29.6929
 29.7856
 29.7584
 30.5273
 30.4955
 30.4946
 30.4524
 29.0874
 29.3137
 29.2235
 29.2798
 29.9304
 29.953
 30.0115
 30.2862
 30.1817
 28.5361
 28.5875
 28.4842
 28.5423
 28.4985
 28.434
 28.539
 28.5742
 30.2044
 30.0927
 30.0422
 30.0376
 30.2911
 30.41
 30.3307
 30.4296
 31.0336
 31.098
 31.0242
 31.1496
 27.6085
 27.581
 27.9936
 28.086
 28.0313
 27.9799
 27.5275
 29.7474
 29.6339
 29.7242
 29.0488
 29.0293
 29.0818
 29.1177
 30.3095
 30.291
 29.2773
 29.295
 29.1871
 30.6436
 30.6093
 28.0707
 28.0727
 27.9981
 28.1327
 27.8032
 27.8359
 27.7039
 27.7947
 28.263
 28.2412
 28.3047
 29.6622
 29.5906
 29.6026
 27.7922
 27.809
 27.7797
 27.77
 29.964
 30.0531
 29.981
 29.9323
 28.2083
 28.2517
 28.2799
 28.2157
 29.8923
 29.9757
 29.9875
 29.8435
 30.3419
 30.3043
 30.3773
 27.5467
 27.4388
 27.4917
 27.5262
 30.5427
 30.47
 30.4997
 29.4295
 29.4118
 29.2647
 29.4188
 27.5427
 27.4748
 27.5074
 29.8377
 29.9047
 29.7669
 29.8242
 28.51
 27.712
 27.6649
 27.8049
 27.7336
 30.7464
 30.7167
 30.6593
 30.7246
 28.535
 28.6469
 28.5594
 28.5358
 29.1629
 29.1488
 29.2238
 30.2856
 30.3158
 30.2537
 30.4365
 28.5875
 28.6327
 28.5468
 29.947
 29.9908
 31.5248
 31.6613
 31.6112
 31.5057
 30.7964
 30.9527
 30.9659
 27.7538
 27.7837
 27.7057
 27.7951
 27.8253
 27.7789
 30.7964
 30.7602
 30.8627
 30.7324
 29.4711
 29.4348
 29.4468
 29.3986
 29.2501
 29.3569
 29.3529
 29.3273
 28.8085
 28.8459
 28.7485
 28.8152
 28.8436
 28.9628
 28.8881
 28.9513
 27.6211
 30.3756
 30.4297
 30.365
 30.412
 27.6384
 27.687
 27.6105
 28.8817
 28.9465
 28.9933
 28.975
 30.5085
 30.4108
 30.3795
 28.8898
 28.962
 28.9185
 28.9544
 29.1703
 28.4024
 28.3861
 28.2953
 28.3316
 29.9384
 29.969
 29.9443
 29.1524
 29.046
 29.1158
 27.5835
 27.6135
 27.6809
 27.6214
 29.1374
 29.1303
 29.1836
 32.1008
 32.089
 32.1631
 29.1437
 29.1973
 29.1357
 29.275
 28.3959
 28.3115
 28.3576
 29.0797
 29.0578
 27.9925
 27.9427
 28.0292
 28.0049
 28.286
 28.2161
 28.2483
 28.2681
 27.4776
 27.5037
 27.5511
 27.6034
 28.961
 29.0963
 29.0021
 28.9688
 28.2835
 28.3183
 28.3318
 28.3481
 28.0015
 27.9468
 27.894
 30.076
 30.0305
 30.1737
 30.1053
 29.207
 29.1286
 29.6123
 29.6712
 29.6041
 29.6323
 28.4992
 28.498
 28.5142
 28.4631
 29.1605
 29.0971
 29.1059
 29.1914
 28.6067
 28.6499
 28.5684
 28.6519
 29.0979
 29.079
 29.0084
 29.0109
 29.2069
 29.2661
 29.2688
 28.0063
 28.0522
 28.0266
 27.7673
 27.7703
 27.7849
 27.6898
 28.0671
 28.064
 28.0112
 28.3684
 28.2561
 28.3428
 31.5038
 31.3813
 31.5541
 29.1993
 29.0952
 29.169
 28.0813
 28.0525
 28.1016
 28.0898
 29.2035
 29.1673
 29.2186
 28.89
 28.8816
 28.8214
 28.9444
 28.5512
 28.7024
 28.6592
 28.6534
 29.233
 29.1634
 29.1885
 29.1329
 30.1329
 30.0712
 30.1214
 30.1817
 29.1769
 28.918
 28.9398
 28.8911
 29.037
 30.5299
 30.4847
 30.4584
 30.4723
 30.348
 30.2564
 30.3103
 30.2655
 30.2462
 30.162
 30.2167
 30.2481
 28.5564
 28.5902
 28.4784
 28.4359
 30.0326
 30.0792
 30.0524
 30.0387
 27.2917
 27.3628
 27.3229
 27.3664
 30.8878
 30.8182
 30.7541
 30.7483
 30.0527
 30.0455
 30.0786
 30.652
 30.7464
 30.783
 30.7769
 30.2587
 30.3443
 30.2093
 30.4755
 30.4412
 29.091
 29.1
 29.0453
 28.947
 27.8219
 27.8724
 27.8891
 27.7413
 27.7576
 27.7131
 27.7833
 30.214
 30.3014
 27.447
 27.4005
 27.4622
 28.0011
 28.0113
 27.9826
 27.9593
 30.2658
 30.311
 30.2644
 27.5658
 27.5307
 27.6104
 27.5091
 29.5366
 29.5114
 29.4546
 29.5901
 30.2753
 30.3918
 30.3136
 30.2417
 30.6765
 30.5166
 30.5909
 30.6
 31.2968
 31.2214
 31.3245
 31.346
 28.6931
 28.578
 28.6498
 28.5805
 29.5063
 29.5081
 29.5361
 29.6476
 27.5355
 27.6324
 27.539
 32.0235
 31.9333
 32.0062
 31.8703
 30.8841
 30.803
 30.8348
 30.7594
 27.6361
 27.5142
 27.5832
 27.5846
 29.1995
 29.1988
 29.1272
 27.946
 27.8675
 27.845
 30.1315
 30.1432
 30.2593
 27.498
 27.5906
 27.5883
 27.5243
 27.8629
 27.883
 27.8931
 27.9647
 29.8446
 29.7979
 29.7166
 29.793
 29.6046
 29.699
 29.6035
 29.7017
 28.2086
 28.2024
 28.1783
 28.1077
 28.9811
 29.0164
 29.0618
 29.0381
 30.9696
 30.8654
 30.8969
 30.8234
 27.8896
 28.0273
 27.9416
 27.969
 27.4165
 28.9324
 28.9187
 28.8659
 28.8695
 27.7609
 27.7259
 27.7338
 27.67
 30.5561
 30.5585
 30.5267
 30.5311
 27.5358
 27.4778
 27.5541
 27.5829
 29.2488
 29.2576
 29.4963
 29.5374
 29.4846
 29.4507
 28.2377
 28.3088
 28.3166
 28.3216
 28.8291
 28.7391
 28.7439
 29.4997
 29.5277
 29.4792
 28.2311
 28.2257
 28.3123
 28.3257
 28.2244
 28.2626
 28.1899
 28.2419
 30.1399
 30.2227
 30.2396
 29.1946
 29.0496
 29.0483
 29.1349
 31.1001
 30.9765
 30.8925
 31.0363
 31.0902
 27.4695
 27.5861
 27.4586
 27.5801
 29.1057
 29.1365
 29.1837
 29.1083
 27.7368
 27.6957
 29.3563
 29.4968
 29.4985
 29.8909
 29.9739
 29.8382
 29.8644
 27.5545
 27.561
 27.5352
 27.517
 30.3845
 30.3567
 30.3651
 29.8969
 29.9305
 29.8648
 29.9243
 29.6486
 29.5609
 29.6221
 29.7293
 28.4802
 28.3309
 28.3993
 28.3603
 30.0437
 29.9146
 29.9988
 29.9995
 28.2159
 28.7738
 28.69
 28.6577
 28.7797
 27.7541
 27.727
 27.7956
 27.5983
 27.6225
 27.6351
 27.6781
 28.6808
 28.6561
 28.7435
 28.7014
 27.2779
 27.2758
 27.2672
 27.3479
 29.6049
 28.7346
 28.8393
 28.8557
 28.7673
 29.0791
 29.1921
 29.1588
 29.0993
 31.282
 31.1834
 31.1576
 31.2438
 29.1337
 29.1078
 29.0845
 29.1751
 29.4014
 29.3804
 29.3512
 29.3234
 29.4006
 29.3789
 29.3279
 27.881
 27.9567
 27.9886
 29.4565
 29.5413
 29.5161
 29.4709
 27.8169
 27.7107
 27.7663
 29.0832
 29.1142
 28.9982
 28.9549
 28.9784
 28.8977
 28.9068
 28.8819
 29.1555
 29.1321
 29.0242
 29.0631
 27.861
 27.8172
 27.8175
 29.5787
 27.7165
 28.8177
 28.7517
 28.8057
 28.9086
 30.1513
 30.1009
 30.2257
 30.0432
 29.9464
 29.9241
 28.9825
 28.9701
 29.0355
 29.0945
 29.1067
 29.0469
 29.0119
 29.0733
 29.1356
 29.034
 29.1388
 32.268
 32.2519
 32.3619
 28.2023
 28.2919
 28.2
 29.2756
 29.23
 27.9408
 28.0583
 28.0359
 28.0474
 28.6874
 28.6232
 28.6788
 31.1224
 31.2125
 31.3109
 31.2723
 29.3907
 29.5295
 29.4669
 29.3796
 30.1009
 30.136
 30.2025
 30.2225
 28.5303
 28.6296
 28.5833
 28.5441
 29.7941
 29.8358
 29.8083
 29.906
 31.0222
 31.06
 31.084
 29.514
 29.5524
 29.5964
 29.5801
 28.4478
 28.3673
 28.3888
 28.3943
 29.1784
 29.1017
 29.0831
 29.1339
 29.9742
 30.021
 29.9737
 29.4804
 29.5407
 29.5112
 29.528
 30.093
 30.1944
 30.0721
 30.1679
 30.4099
 30.2646
 30.2318
 30.4046
 27.6705
 27.6192
 27.6403
 27.6172
 30.267
 30.1815
 30.2113
 30.1824
 30.015
 30.0769
 29.9803
 29.9952
 28.6881
 28.5764
 28.6291
 28.573
 29.5422
 29.5926
 29.5009
 29.5144
 27.1191
 27.0783
 27.0829
 27.085
 29.4525
 29.5006
 29.4234
 30.4873
 30.5677
 30.5306
 30.457
 30.3152
 30.3715
 30.3319
 30.3763
 30.2223
 30.3429
 28.4794
 28.528
 28.4717
 28.5644
 27.2722
 27.337
 27.3057
 27.3119
 29.4313
 29.5132
 29.4608
 29.5097
 30.2337
 30.283
 30.3072
 28.5454
 28.6148
 28.633
 28.5564
 29.2888
 29.3447
 29.2286
 29.2278
 29.9073
 29.9105
 29.9208
 29.8438
 30.5689
 30.4073
 30.4999
 28.1099
 28.043
 28.0125
 28.0856
 28.1031
 28.0769
 28.1584
 29.4395
 29.4014
 29.3429
 29.3516
 29.4177
 29.4935
 29.3697
 29.9876
 29.9178
 29.8924
 29.8573
 28.5479
 28.5471
 28.6252
 30.2359
 30.2183
 30.3355
 29.0403
 28.9393
 28.9921
 28.0335
 28.1258
 28.0934
 28.418
 28.4466
 29.5919
 29.5253
 29.5857
 29.521
 29.4723
 29.5183
 29.2935
 29.3941
 29.929
 30.6394
 30.6124
 30.7065
 27.8114
 27.824
 27.9263
 29.38
 29.3267
 29.3497
 29.414
 29.9539
 29.094
 29.0346
 28.5858
 28.5886
 28.6005
 28.5379
 29.132
 29.2416
 29.1455
 29.3967
 29.356
 29.4949
 29.3612
 29.553
 29.3937
 29.4403
 29.498
 29.519
 29.3725
 27.8847
 27.9465
 27.9608
 27.9103
 27.8661
 27.8154
 27.7211
 27.7534
 30.3013
 30.2141
 29.0626
 29.1268
 29.1367
 29.1979
 28.8762
 28.8534
 28.8323
 28.7997
 28.5375
 28.4736
 28.5536
 28.5624
 29.2666
 29.3031
 29.3334
 29.2487
 29.3466
 29.2973
 29.3295
 29.3767
 28.028
 28.1279
 28.0455
 28.0689
 30.054
 29.9384
 29.9472
 29.8604
 30.0946
 29.98
 30.0366
 28.1645
 28.0984
 28.0196
 28.0035
 29.9472
 29.882
 29.9078
 29.8446
 27.8152
 27.8515
 27.7964
 27.8259
 28.0766
 28.1236
 28.105
 28.1305
 29.4633
 29.4222
 29.5044
 29.4531
 28.4098
 28.3885
 28.4393
 28.5058
 29.9097
 29.8562
 29.7765
 29.7527
 28.2905
 28.3244
 28.2988
 30.293
 30.2428
 30.3077
 30.2418
 28.784
 28.8027
 28.7674
 28.7341
 29.5175
 29.4919
 28.3255
 28.2444
 28.2816
 28.3212
 28.2496
 28.2593
 28.3005
 29.3234
 29.2283
 29.3161
 28.1642
 28.1783
 28.1494
 28.0806
 30.9773
 30.894
 30.825
 30.8838
 29.8954
 29.8627
 29.7845
 29.7775
 28.6814
 28.7781
 28.7679
 28.6711
 27.7818
 27.782
 27.8251
 27.7893
 27.9976
 27.9371
 27.9236
 27.9941
 27.6499
 27.6346
 27.6307
 27.8448
 27.8315
 29.6273
 29.5617
 29.6257
 29.5461
 30.144
 30.0924
 30.2461
 30.1719
 29.7847
 29.7741
 29.6732
 29.596
 29.6605
 29.6591
 29.3782
 29.3699
 29.2783
 29.3688
 30.2322
 30.2315
 30.3
 28.8984
 28.9517
 28.9284
 28.9764
 27.1187
 27.1424
 27.2064
 29.7002
 29.7119
 29.6761
 29.6076
 27.94
 28.0229
 27.9661
 27.9451
 28.4435
 28.3475
 28.3651
 29.0225
 29.0711
 28.9708
 28.4885
 28.406
 28.5159
 28.0225
 28.0991
 28.5051
 28.4902
 28.4904
 29.854
 29.8346
 29.8101
 29.9085
 27.7632
 27.7173
 27.7685
 27.793
 28.7802
 28.686
 28.7597
 31.3356
 31.4081
 31.4399
 31.3333
 30.3174
 30.389
 28.8443
 29.6629
 29.5639
 29.6281
 29.6524
 29.095
 29.0215
 29.0279
 28.3877
 28.3531
 28.4142
 28.3857
 27.8017
 27.7591
 29.1512
 29.1866
 29.1806
 29.2292
 30.366
 30.4092
 30.4302
 30.2767
 28.0114
 27.9621
 27.9826
 28.011
 28.6059
 28.5758
 28.6142
 31.9054
 31.91
 32.0506
 32.0773
 30.2175
 30.2472
 30.3308
 29.7547
 29.7115
 29.8124
 29.7511
 28.7628
 28.7567
 28.8051
 28.7094
 29.0945
 29.0257
 30.5916
 30.5577
 30.5654
 30.568
 28.5738
 28.4888
 29.8762
 29.9708
 29.8643
 29.8535
 29.3832
 29.3495
 29.4547
 29.3779
 29.1585
 29.0891
 29.0304
 29.1046
 29.7227
 29.7705
 29.8653
 28.4286
 28.5448
 28.4396
 28.5085
 28.1153
 28.0587
 27.9946
 28.1169
 28.149
 28.1579
 28.1646
 28.0748
 30.3313
 30.4544
 30.3351
 30.4107
 29.1102
 29.1627
 31.5008
 31.6893
 31.5445
 31.6904
 29.5333
 29.6357
 29.6593
 27.4617
 32.3862
 32.3747
 32.411
 32.5818
 29.1041
 29.0435
 29.0918
 29.0802
 29.6326
 29.5557
 29.5931
 28.0961
 28.0498
 28.0189
 28.1162
 28.1174
 28.1417
 28.0692
 28.0779
 28.1065
 28.082
 28.1405
 28.1663
 29.8407
 29.763
 29.8804
 29.7687
 30.1275
 30.1939
 30.1837
 30.2153
 28.622
 28.629
 28.5421
 28.6325
 29.4532
 29.5664
 29.4333
 29.5043
 27.2134
 27.7437
 27.6979
 28.7626
 28.7721
 29.2783
 29.3309
 29.3244
 27.7253
 27.6241
 27.6887
 27.7038
 29.1493
 29.187
 28.8637
 28.9224
 31.0914
 31.0151
 31.1345
 31.0576
 29.8289
 29.8595
 29.927
 29.8852
 28.5977
 28.5106
 28.5931
 28.5161
 30.8125
 30.9425
 30.8581
 30.8111
 27.2863
 27.3324
 27.2529
 27.3222
 27.8015
 27.896
 27.6754
 27.7163
 27.7694
 27.671
 28.1336
 28.0795
 29.5341
 29.4717
 29.5194
 31.9716
 31.89
 32.0011
 32.0408
 30.7203
 30.6607
 30.6607
 30.7403
 27.7736
 27.7127
 27.7728
 27.8115
 28.3421
 28.2232
 28.2737
 28.9955
 29.0651
 29.1247
 29.0183
 29.76
 29.6573
 29.7126
 29.7499
 27.8614
 27.8042
 27.8631
 27.7317
 29.0471
 28.9533
 29.7611
 29.7201
 28.5208
 28.4541
 28.5622
 28.536
 30.1518
 30.2582
 30.1158
 30.291
 30.326
 30.452
 30.3803
 31.992
 31.7828
 31.7711
 31.9101
 29.7195
 29.6718
 29.6898
 29.6088
 27.9891
 27.9687
 28.0969
 28.0269
 28.0787
 28.0267
 29.8878
 29.8958
 29.8187
 29.9499
 28.2679
 28.3117
 28.2448
 28.5243
 28.5418
 28.4954
 28.562
 28.0531
 27.9747
 28.0527
 27.9739
 29.7639
 29.687
 29.7123
 29.7473
 27.6145
 27.7196
 29.3455
 31.3574
 31.3522
 31.2504
 31.2402
 28.2463
 28.272
 28.2122
 30.9328
 30.9834
 30.8683
 31.0432
 28.4127
 28.4186
 28.402
 28.3364
 30.4665
 30.4719
 30.5881
 30.424
 30.0665
 30.0753
 29.9925
 29.9701
 28.5677
 28.509
 28.498
 29.5803
 29.5412
 29.6001
 29.6434
 28.7628
 28.766
 28.7229
 28.8284
 28.7744
 28.8727
 27.9663
 27.945
 27.9583
 28.5079
 28.4907
 28.5251
 31.624
 31.6321
 31.5409
 31.6121
 30.3042
 30.187
 30.3382
 30.1568
 27.8515
 27.9458
 27.9609
 27.9693
 28.1951
 28.2274
 30.0407
 29.8951
 30.05
 28.481
 28.5747
 28.5679
 28.6282
 28.5569
 28.5845
 28.6108
 29.8329
 29.876
 29.8246
 29.8042
 27.6239
 27.6406
 29.6108
 29.6385
 29.6091
 29.575
 30.0138
 30.0062
 29.9782
 28.4869
 28.4655
 29.1378
 29.1519
 29.188
 29.0767
 30.4409
 30.483
 28.6476
 28.6948
 29.5326
 29.6234
 29.5957
 29.563
 28.9115
 28.895
 28.9763
 28.8598
 28.9141
 28.9666
 28.9302
 30.6001
 30.5662
 30.6251
 30.4588
 30.7865
 30.8003
 30.7219
 30.7883
 28.4192
 28.4581
 28.5185
 28.4744
 27.8209
 27.8122
 27.8555
 27.8569
 28.7991
 28.7616
 28.8395
 29.0733
 29.1274
 29.1576
 29.1149
 29.0437
 28.1616
 28.1425
 29.6872
 29.6059
 29.6866
 29.7052
 30.0428
 27.8151
 27.832
 27.8837
 27.8513
 29.0931
 29.2145
 29.1898
 29.1238
 31.7489
 31.6977
 29.3161
 29.4159
 29.3163
 31.5007
 31.4785
 31.546
 31.4558
 28.7206
 28.7707
 28.7296
 28.7612
 30.4779
 30.3598
 30.3506
 29.8421
 29.752
 27.5679
 27.569
 27.577
 27.7072
 27.702
 27.7338
 30.1945
 30.0792
 29.9693
 29.9892
 31.6678
 31.7114
 31.7413
 31.8316
 27.8023
 27.9116
 27.7942
 30.1002
 30.0843
 30.0341
 30.1623
 29.9896
 30.0337
 29.9156
 30.0302
 28.4664
 28.4291
 28.4105
 28.4502
 28.7687
 28.5979
 28.6876
 28.4755
 28.4732
 28.546
 28.4727
 28.2218
 28.3022
 28.1567
 28.3331
 30.5625
 30.5507
 30.2736
 30.2718
 30.1991
 28.7983
 28.8372
 28.9003
 28.8756
 30.0065
 30.0124
 29.9197
 29.9593
 28.3873
 28.439
 28.4254
 28.3897
 30.4915
 30.3389
 27.8974
 27.9395
 27.9084
 27.9684
 28.3499
 28.4677
 28.4136
 28.3329
 29.7151
 29.7039
 29.7375
 29.6546
 28.0382
 27.9539
 29.343
 29.3257
 29.2959
 29.2805
 31.1
 31.0574
 31.087
 31.0757
 30.5098
 30.4555
 30.5025
 30.4246
 27.5651
 27.531
 27.4871
 27.5062
 27.8002
 27.8317
 27.8573
 29.7713
 29.783
 29.7965
 27.5954
 27.5461
 29.3534
 29.2923
 29.34
 29.2132
 27.9601
 28.0138
 27.9562
 28.0165
 30.0446
 30.096
 30.0216
 30.0926
 30.5963
 30.4985
 30.6021
 28.1174
 28.0386
 28.0411
 28.0912
 29.4403
 29.3186
 29.3413
 29.3821
 30.1861
 30.1509
 30.0832
 30.2363
 30.3705
 30.5761
 30.3745
 28.7721
 28.8777
 28.7505
 29.0065
 28.9916
 29.0507
 28.9635
 28.838
 28.8439
 28.7622
 28.8561
 29.5776
 29.4778
 29.563
 29.4942
 29.8747
 29.8531
 29.8104
 29.9127
 30.2546
 30.3615
 28.5462
 28.4468
 28.5468
 28.5446
 28.942
 29.0473
 28.9622
 29.0115
 28.911
 29.0176
 29.0361
 29.1362
 29.0046
 29.0222
 31.4671
 31.3957
 31.3476
 31.3824
 27.7991
 27.7032
 27.7685
 29.516
 29.5234
 29.5199
 29.6071
 29.1285
 29.1891
 29.1298
 30.3586
 30.2803
 30.4012
 30.3672
 30.0706
 30.1618
 30.1037
 30.1281
 29.4652
 29.4452
 29.3884
 29.9802
 30.0247
 28.3241
 28.3624
 28.2613
 27.4723
 27.4433
 27.5152
 27.4763
 30.1249
 30.1782
 30.2034
 30.0312
 29.1712
 29.1019
 29.0876
 29.1812
 28.1703
 28.1568
 28.2114
 28.2209
 29.9894
 29.9635
 30.0355
 29.901
 29.7785
 29.7368
 29.7122
 29.6419
 28.0885
 28.1494
 28.2244
 28.2115
 29.8099
 29.7041
 27.8966
 27.9219
 27.8631
 28.8983
 28.9561
 30.7109
 30.7949
 30.7589
 30.8295
 29.4438
 29.409
 29.3858
 29.4033
 30.8558
 30.933
 30.8729
 29.2281
 29.2419
 28.7158
 28.6718
 28.5827
 28.7109
 29.4079
 29.3977
 28.5237
 28.4642
 29.5136
 29.5619
 29.521
 29.494
 28.5641
 28.6358
 28.5515
 28.5184
 28.256
 28.1794
 28.1167
 28.1662
 27.5968
 27.5821
 27.6193
 27.6151
 29.1618
 29.1208
 30.086
 30.0766
 30.2229
 30.2584
 28.1684
 28.2416
 30.2832
 30.2001
 30.2358
 31.2703
 31.246
 31.1086
 31.1723
 31.4189
 31.3806
 31.4149
 29.0993
 29.0042
 29.01
 29.0254
 29.4964
 29.4263
 29.4841
 30.2038
 29.7568
 29.6813
 29.7908
 29.6927
 30.2161
 30.1607
 30.2743
 30.1772
 29.5298
 29.5998
 29.5149
 29.5985
 28.5143
 28.6499
 28.6506
 28.5347
 27.6269
 27.6553
 27.6597
 27.5929
 29.3244
 29.3494
 29.2385
 29.2655
 28.0792
 28.1149
 27.9995
 28.0231
 29.7526
 28.441
 28.5401
 28.4968
 28.5188
 30.7685
 30.8516
 30.7752
 30.7875
 28.409
 28.3419
 28.3368
 29.614
 27.818
 27.8033
 27.8486
 27.7619
 27.6867
 27.6711
 27.6679
 27.7096
 27.798
 27.7327
 27.7089
 29.0696
 29.0838
 29.0671
 29.1565
 27.7617
 27.7425
 27.716
 27.7107
 30.169
 30.2153
 30.2466
 30.2388
 28.5975
 28.6266
 28.6217
 28.6953
 29.3154
 29.2101
 29.2294
 29.3023
 31.0236
 30.928
 31.0486
 28.7002
 29.2018
 29.2212
 29.2541
 29.1657
 27.7151
 27.6611
 27.6603
 27.6429
 27.6901
 27.6337
 27.5803
 27.6067
 28.573
 28.5973
 28.5484
 28.6043
 29.7052
 29.7741
 29.8086
 29.7748
 29.3851
 29.2921
 29.3622
 27.7515
 27.7263
 27.7633
 27.8306
 27.6504
 27.6108
 27.6329
 27.6676
 30.2271
 30.2755
 30.267
 28.1619
 28.0972
 27.7461
 27.7703
 27.7644
 30.1891
 30.2397
 30.1388
 30.1355
 28.3403
 28.2529
 28.3812
 28.3868
 29.449
 28.8726
 28.8514
 28.8126
 28.8757
 28.6555
 28.7228
 28.6486
 28.7686
 27.6676
 27.6343
 27.972
 27.8888
 27.9429
 27.886
 27.9996
 27.9001
 27.9398
 27.8729
 28.0874
 28.1609
 28.066
 28.1536
 28.3118
 28.2604
 28.2943
 28.2603
 30.8183
 30.6807
 27.7689
 27.7422
 27.7004
 30.5621
 30.5946
 30.5648
 29.8919
 30.0274
 30.0488
 29.93
 28.2977
 28.3393
 28.2869
 28.2209
 29.287
 29.3652
 29.3323
 29.3229
 27.4031
 27.4652
 27.3976
 27.3512
 28.8551
 28.873
 28.8242
 28.8451
 28.0433
 27.9905
 28.0488
 28.4774
 28.4797
 28.9349
 29.055
 28.961
 28.9507
 28.9965
 29.1312
 28.9964
 29.0865
 30.2491
 30.1679
 30.1625
 28.6115
 28.5374
 28.5771
 28.5094
 29.5686
 29.5259
 29.4613
 27.8887
 27.9036
 27.8206
 27.9194
 27.6777
 28.7832
 28.8786
 28.8892
 28.8167
 28.4972
 28.4459
 28.4429
 28.4635
 28.6581
 28.7055
 28.7303
 32.2633
 32.3893
 32.2723
 32.2618
 29.9255
 29.8616
 30.4404
 30.5351
 29.2343
 29.3659
 29.3495
 29.2812
 32.6574
 32.6156
 27.4635
 27.4382
 27.4166
 27.3615
 28.3401
 28.1997
 30.2639
 30.2865
 30.2162
 30.2239
 29.1996
 29.1908
 29.1348
 29.162
 27.9972
 27.9225
 27.9558
 28.0342
 29.795
 29.8253
 29.7558
 29.7878
 29.289
 29.3299
 29.2403
 29.29
 27.9186
 27.8705
 27.8738
 27.8098
 29.3372
 29.3078
 29.2852
 29.4271
 27.6583
 27.7196
 27.7024
 27.7282
 28.5848
 28.5292
 28.5401
 29.9526
 29.9427
 30.0629
 29.9586
 28.7316
 28.8003
 28.7602
 28.8058
 28.9282
 28.989
 29.5995
 29.4701
 29.4595
 28.5676
 28.5828
 28.4953
 28.483
 27.5881
 27.5924
 27.5187
 27.5144
 27.8195
 27.7677
 27.7297
 27.8285
 30.0885
 30.0933
 30.1714
 30.1446
 30.5245
 30.5269
 30.5653
 30.5503
 30.3037
 30.4234
 30.3077
 30.3829
 30.5877
 30.5638
 30.615
 29.0323
 29.0459
 29.0266
 29.1382
 28.1549
 28.1176
 28.3673
 28.2765
 28.3378
 28.3355
 28.1788
 28.1267
 28.2156
 30.0218
 30.1046
 30.0708
 30.1362
 29.0576
 29.0449
 28.9945
 29.009
 27.4142
 27.4083
 27.3906
 27.3457
 28.8392
 28.881
 28.9297
 28.8418
 28.7516
 28.8432
 28.74
 28.8093
 27.7974
 27.7529
 27.8139
 27.8216
 30.3301
 30.4488
 30.4301
 30.3755
 28.357
 28.3909
 30.3603
 30.44
 28.0298
 28.0909
 28.0223
 27.9664
 28.9415
 28.9617
 28.9386
 29.0306
 30.7061
 30.5836
 30.6424
 30.4899
 30.5445
 30.5571
 30.5841
 29.7577
 29.8736
 28.9269
 28.9588
 28.9058
 28.9522
 28.527
 28.5379
 28.4852
 29.4972
 29.5663
 29.5965
 29.4959
 29.4942
 29.3647
 29.4927
 29.4044
 28.2431
 28.3239
 28.3004
 28.2883
 30.5514
 30.5501
 30.5302
 27.5183
 27.5011
 27.5805
 27.5717
 28.6806
 28.7031
 28.6858
 30.0519
 30.0199
 29.9887
 27.7108
 27.7065
 27.7695
 27.6719
 28.0818
 29.7141
 29.8068
 29.7831
 29.7515
 27.7389
 27.8478
 27.8149
 27.7628
 28.6538
 28.5726
 28.5995
 27.5665
 27.5599
 27.5579
 27.5583
 27.7668
 27.8237
 27.8133
 27.7356
 27.728
 30.6187
 30.5622
 29.2032
 29.23
 29.1317
 29.1905
 30.9798
 31.0616
 31.0552
 31.0019
 29.6259
 28.6864
 28.6462
 28.7684
 28.3648
 28.3085
 28.2426
 28.3598
 29.6207
 29.6057
 29.68
 29.6826
 29.9573
 29.9846
 28.7611
 28.7221
 28.7191
 29.7868
 29.8346
 29.7779
 29.7321
 29.8793
 29.8786
 29.8345
 29.8125
 27.7448
 27.6965
 29.5904
 29.5259
 29.585
 29.5914
 30.5921
 30.4535
 30.5662
 30.4623
 29.9993
 29.9761
 29.7949
 29.9406
 30.6098
 30.6983
 30.6303
 28.123
 28.1904
 28.0814
 28.3784
 28.3871
 27.7784
 27.7644
 27.8155
 30.2665
 30.3869
 30.3526
 30.3396
 30.1657
 30.1155
 30.0618
 32.3253
 32.1294
 32.3083
 32.3724
 28.1741
 28.2759
 28.177
 28.1311
 29.8349
 29.8078
 29.8405
 29.7151
 28.6956
 28.7567
 28.7377
 28.6915
 28.1864
 28.2074
 28.2927
 28.2354
 30.1925
 30.1771
 30.1434
 30.0941
 29.2219
 29.1519
 29.2269
 28.3902
 28.387
 28.3318
 28.6681
 28.687
 28.6836
 28.5909
 29.2358
 29.3362
 29.3338
 29.32
 28.6726
 28.6357
 28.607
 30.6399
 30.4675
 30.6211
 30.6025
 29.1358
 29.1294
 29.1156
 29.1919
 30.2005
 30.2861
 30.2746
 30.2707
 30.379
 30.5073
 30.3695
 30.3962
 27.3349
 27.2435
 27.3685
 30.1332
 30.218
 30.1301
 27.3142
 28.098
 28.0833
 28.1777
 28.1477
 30.4227
 28.3601
 29.7404
 29.7471
 29.8123
 29.7934
 30.6115
 30.684
 30.7368
 30.6782
 28.509
 29.2792
 27.508
 27.5333
 27.5211
 27.5311
 32.1333
 32.1096
 32.1534
 29.8608
 29.9398
 29.9774
 30.4714
 30.6162
 27.207
 27.1625
 27.2519
 27.2131
 29.4244
 29.5488
 29.4668
 29.4495
 28.0617
 27.9908
 27.9845
 28.6272
 28.6885
 28.5172
 28.5498
 28.4323
 28.5102
 27.6778
 27.7306
 27.7392
 27.6903
 29.2567
 29.2457
 29.1275
 29.1741
 27.8365
 27.7897
 27.8568
 27.8128
 29.1505
 29.0885
 29.0052
 29.1149
 28.2497
 28.2286
 28.1981
 28.2834
 28.099
 28.1759
 28.1097
 27.9557
 30.0119
 30.1541
 29.9707
 29.9155
 28.9953
 27.6117
 27.5217
 27.5571
 27.5452
 28.8237
 28.8143
 28.9245
 28.8045
 28.7186
 28.6972
 30.1638
 30.2656
 30.2503
 30.1423
 29.6303
 29.7285
 29.639
 29.0616
 29.08
 29.1137
 29.1563
 27.3535
 27.4238
 27.4384
 27.4064
 29.841
 29.8418
 29.9052
 29.9278
 28.4001
 28.5052
 28.5038
 28.4623
 29.0721
 29.0623
 29.1205
 30.3262
 30.2183
 30.2621
 30.2562
 31.152
 31.1045
 31.211
 31.0643
 29.6715
 29.7249
 29.7333
 28.0091
 28.0059
 27.9569
 28.7919
 28.192
 28.2878
 28.2565
 28.2519
 29.8975
 29.9278
 29.919
 29.9211
 27.9187
 27.7989
 27.8604
 27.8786
 28.9682
 29.0805
 28.5261
 28.5779
 28.5511
 28.5112
 28.509
 28.5359
 28.6565
 31.3584
 31.3156
 31.4716
 31.3734
 27.156
 27.0438
 27.0835
 27.1448
 29.5739
 29.4905
 29.5328
 30.0709
 29.9922
 30.1344
 29.968
 28.4145
 28.531
 28.4899
 31.9756
 32.0709
 32.1566
 32.0115
 28.2156
 28.2026
 28.1191
 28.1126
 28.1682
 28.1552
 30.477
 30.5689
 30.5168
 30.5743
 30.2047
 30.2031
 30.1704
 30.2501
 30.9777
 30.908
 30.8323
 30.9458
 29.2701
 31.015
 30.8773
 30.8869
 30.8969
 28.2456
 28.3126
 28.3365
 28.3584
 30.1753
 30.0562
 28.3111
 28.2702
 28.2679
 28.3557
 28.0014
 27.9628
 28.0088
 27.9661
 27.427
 27.3881
 27.393
 27.3048
 32.0606
 32.092
 31.9818
 28.6711
 28.5902
 28.6194
 28.6285
 28.0677
 28.0537
 28.1112
 28.086
 31.3795
 31.3246
 31.2959
 31.4038
 28.6318
 28.2354
 28.2121
 28.1815
 28.255
 27.7576
 27.7229
 27.7577
 29.2519
 29.2026
 29.2146
 29.1624
 27.4887
 27.4012
 27.3685
 27.4073
 28.8127
 28.772
 28.8154
 28.8246
 28.7237
 29.9043
 30.0273
 29.8781
 28.8827
 28.9639
 28.9306
 28.8487
 28.9928
 28.9654
 28.9229
 29.0398
 29.6004
 29.7055
 29.6734
 30.5455
 31.1908
 31.103
 31.2983
 28.5649
 28.5183
 28.5402
 28.2431
 28.2303
 28.2751
 30.0386
 29.9446
 29.9801
 29.8674
 28.4108
 28.4622
 27.7766
 27.8174
 27.836
 27.8109
 27.6395
 27.6535
 27.658
 27.9074
 27.8565
 28.6364
 28.5729
 28.6234
 27.9982
 28.0982
 28.0368
 30.2429
 32.0868
 32.1619
 32.0489
 32.0583
 28.6598
 28.6376
 28.7055
 28.6803
 31.7463
 31.7032
 31.6097
 31.7487
 28.3222
 28.3057
 28.2747
 29.1174
 29.1401
 29.2251
 29.2378
 29.8639
 29.8246
 29.9552
 29.8972
 28.8124
 28.7991
 28.7241
 28.3412
 28.281
 29.239
 29.1402
 29.1943
 29.2179
 29.5763
 29.5212
 29.5624
 30.2628
 30.2466
 30.2452
 28.7098
 28.6697
 28.6229
 28.7234
 28.175
 28.0928
 28.1563
 28.1188
 27.1483
 27.2001
 27.1282
 27.1932
 28.9558
 28.9736
 27.1135
 27.1747
 27.1955
 28.5048
 30.4536
 30.3678
 30.3056
 30.3549
 29.8175
 29.7573
 29.8292
 29.7759
 28.4826
 28.5328
 28.4985
 27.8594
 27.8066
 30.5925
 30.5521
 30.6651
 30.5187
 28.2613
 28.2984
 30.46
 30.5098
 28.833
 28.8353
 28.8741
 30.7083
 30.817
 30.6725
 29.8573
 29.8886
 29.9262
 29.9286
 27.8686
 27.8602
 27.831
 27.8762
 29.373
 29.3542
 29.3563
 29.2409
 29.364
 29.3052
 29.2689
 27.6538
 27.7497
 27.743
 27.7504
 31.147
 31.0697
 31.1867
 29.0496
 29.1319
 29.0944
 28.17
 28.1295
 28.427
 28.4424
 28.5212
 28.5077
 31.2625
 31.1762
 31.2411
 31.268
 29.8885
 29.8889
 29.8954
 29.8237
 28.1103
 28.0881
 28.0579
 28.0515
 28.0289
 28.0656
 28.0532
 28.0987
 29.3272
 29.4128
 29.3336
 29.3538
 27.3176
 27.2172
 27.237
 27.3267
 30.2452
 30.1636
 30.2875
 31.4202
 31.5749
 31.5701
 28.8114
 28.7566
 28.3777
 28.3553
 28.4103
 28.3858
 27.8668
 27.9019
 27.8059
 27.7994
 29.4945
 29.0109
 29.3798
 29.3133
 29.2704
 29.225
 32.259
 32.3698
 32.3971
 32.1892
 28.1953
 28.227
 29.9337
 29.899
 29.8457
 29.6474
 29.6835
 29.5951
 29.5699
 30.5041
 30.6061
 29.6076
 29.6153
 29.6703
 29.5757
 30.3049
 30.3715
 29.8254
 29.7637
 29.8922
 27.8836
 27.9266
