 0.35534
 0.0198873
 0.0910198
 -0.120906
 -6.71457
 -6.80106
 -7.0155
 -7.13825
 -4.70653
 -4.4414
 -4.76585
 -4.46145
 -5.01711
 -4.75045
 -4.67712
 -4.54451
 -10.0405
 -10.338
 -9.84371
 -9.72142
 -9.65693
 -9.35389
 -9.88404
 -9.46631
 1.57816
 1.79739
 1.72735
 1.58663
 1.45272
 1.36835
 1.36661
 1.51014
 -9.73682
 -9.59838
 -9.2536
 -9.58863
 -9.5027
 -9.55685
 -9.43769
 -9.95494
 2.35464
 2.48485
 2.28292
 2.24377
 -4.68761
 -4.72622
 -4.45459
 -4.6289
 -0.837785
 -0.808465
 -0.610555
 -1.02408
 -7.07222
 -6.61677
 -6.46113
 -6.75964
 -3.43968
 -3.35894
 -3.53305
 -3.74131
 0.849743
 1.02499
 0.722817
 1.01078
 -8.57839
 -8.79828
 -8.56228
 -8.91977
 -5.458
 -5.26891
 -5.53798
 -5.33432
 -3.56615
 -3.65274
 -3.69577
 -3.87421
 -8.31314
 -8.30896
 -8.47526
 -8.70802
 1.39488
 1.66501
 1.37926
 1.57049
 -10.8643
 -10.9226
 -11.2378
 -11.2383
 4.41612
 4.53962
 4.55698
 4.3749
 -6.23865
 -6.35522
 -6.03295
 -6.00112
 -3.10551
 -2.91972
 -3.13748
 -3.24382
 -3.96059
 -4.02902
 -3.87476
 -3.78987
 -1.92585
 -2.21816
 -2.35294
 -1.95478
 0.938914
 1.12083
 0.911937
 0.935747
 -0.693703
 -0.626138
 -0.402303
 -0.546092
 -6.72836
 -6.68993
 -6.52475
 -6.32445
 -3.23977
 -3.66701
 -3.15132
 -3.30584
 -0.865419
 -1.07226
 -1.06333
 -0.871514
 -5.59497
 -5.27024
 -5.64516
 -5.34033
 -6.77056
 -6.6209
 -6.60613
 -6.66148
 -0.875368
 -0.628566
 -0.910682
 -0.501714
 0.56179
 0.590356
 0.614954
 0.599645
 -5.41649
 -4.99831
 -5.35781
 -5.25421
 2.07551
 1.96978
 1.93539
 1.88395
 -5.96574
 -5.99058
 -6.51848
 -6.37695
 -11.6909
 -11.3693
 -11.5692
 -11.2967
 -4.31488
 -4.24615
 -4.38448
 -3.99392
 -6.46503
 -6.73253
 -6.61066
 -6.50003
 1.77439
 1.78567
 1.60694
 1.92871
 -5.42639
 -5.19697
 -5.29604
 -5.5949
 -9.62622
 -9.52489
 -9.84809
 -9.67284
 -0.19569
 -0.394636
 -0.307309
 -0.217848
 -5.47612
 -5.90885
 -5.79618
 -5.83594
 0.604156
 0.399731
 0.58286
 0.809541
 -0.997358
 -0.831193
 -0.745907
 -0.66336
 -3.58575
 -3.36319
 -3.31734
 -3.10266
 0.973874
 1.05237
 1.12389
 0.972452
 -3.9457
 -3.69516
 -3.71759
 -3.89832
 -1.4044
 -1.11202
 -1.4142
 -0.998321
 -4.38163
 -4.54452
 -4.34461
 -4.53844
 -0.584147
 -0.79384
 -0.653937
 -0.961022
 -4.54751
 -4.49989
 -4.757
 -4.32526
 -6.1447
 -6.18188
 -6.36051
 -6.53521
 -6.49449
 -6.31586
 -6.4786
 -6.03472
 -0.347276
 -0.31818
 -0.0194457
 -0.462942
 -1.90799
 -1.76643
 -1.80413
 -2.11821
 4.04183
 4.16333
 4.26921
 4.12744
 -0.624448
 -0.566456
 -0.338832
 -0.582289
 -3.20519
 -3.56927
 -3.39737
 -3.4735
 -1.47252
 -1.45307
 -1.82844
 -1.26923
 -1.28499
 -1.56561
 -1.24528
 -1.51031
 1.14672
 1.28133
 1.10698
 1.09502
 -8.56631
 -8.95292
 -9.07901
 -8.53257
 -9.96516
 -10.114
 -10.2396
 -10.3277
 -3.83593
 -4.17066
 -3.58444
 -3.77574
 -0.723605
 -0.652434
 -0.837549
 -0.533842
 -5.98755
 -6.14697
 -6.3047
 -5.97031
 1.30416
 1.74956
 1.57922
 1.57522
 1.42013
 1.59568
 1.67745
 1.37571
 4.38845
 4.5186
 4.33917
 4.37858
 -4.49311
 -4.81504
 -4.62797
 -4.91356
 -0.211039
 -0.484078
 -0.540944
 -0.241182
 0.348588
 0.527906
 0.274211
 0.188478
 -10.5621
 -10.8891
 -10.757
 -10.9304
 0.766273
 0.851846
 1.03397
 0.796948
 0.336645
 0.457627
 0.605585
 0.356464
 -0.0755348
 -0.263473
 -0.0540137
 0.141999
 -2.39968
 -2.33106
 -2.5723
 -2.52487
 0.205919
 -0.0635866
 0.127203
 0.044543
 -0.947426
 -1.09581
 -1.17107
 -1.02385
 -1.91316
 -1.84037
 -1.73808
 -1.63661
 0.712488
 0.982609
 0.636781
 0.928181
 4.87938
 4.9234
 4.68642
 4.67941
 1.19932
 1.1093
 0.969609
 1.09341
 -4.67737
 -4.49969
 -4.79949
 -4.32793
 -4.7456
 -4.64875
 -4.89988
 -4.65348
 -6.32921
 -6.19694
 -6.09269
 -6.46799
 1.61885
 1.64283
 1.58136
 1.48985
 -11.1367
 -11.1183
 -10.8929
 -11.364
 -6.12859
 -6.40766
 -6.10485
 -6.17004
 1.97651
 1.97518
 2.17982
 2.19418
 -1.09538
 -1.09016
 -0.979967
 -1.42979
 0.44631
 0.277559
 0.642248
 0.503366
 0.372067
 0.49346
 0.502947
 1.55247
 1.57748
 1.59989
 1.67977
 -5.3563
 -5.16434
 -4.96967
 -5.47273
 -1.98783
 -2.3621
 -2.21686
 -2.02351
 -4.92398
 -5.22465
 -5.00798
 -0.706952
 -0.375025
 -0.586205
 -0.482572
 -2.70273
 -2.90166
 -2.8246
 -2.52829
 -7.95702
 -7.53559
 -7.55751
 -8.15723
 1.23995
 1.19624
 0.89378
 1.00633
 0.570029
 0.735189
 0.846251
 0.710285
 -4.54255
 -4.21721
 -4.14049
 -4.25837
 -5.95391
 -5.75862
 -6.28089
 -6.23217
 1.70707
 1.6868
 1.78015
 1.93662
 0.70713
 0.646265
 0.286079
 0.391563
 -1.70158
 -2.0068
 -2.1812
 -1.75125
 -9.64593
 -9.88236
 -9.73584
 -9.79402
 -4.57493
 -4.90882
 -5.01992
 -4.86681
 -2.91663
 -2.48821
 -2.86686
 -2.9066
 4.00499
 4.22348
 3.99198
 4.00564
 -2.28293
 -2.05091
 -2.37594
 -2.55822
 -7.94232
 -7.60314
 -7.9521
 -7.4694
 -0.00217623
 0.354463
 -0.163892
 -0.0453339
 0.631169
 0.582305
 0.823538
 0.686864
 0.781394
 1.00616
 0.937123
 0.876679
 2.63539
 2.65392
 2.65005
 2.56013
 0.191371
 0.542367
 0.515008
 0.521582
 -4.67696
 -4.63091
 -4.6754
 -4.45456
 1.70874
 1.64191
 1.57381
 1.48962
 -9.08595
 -8.79654
 -8.99729
 -9.10654
 1.39219
 1.6731
 1.6377
 1.41956
 -7.82322
 -7.32177
 -7.85054
 -7.53653
 -2.04046
 -1.80728
 -1.8172
 -1.99758
 -1.26382
 -1.49872
 -1.59277
 -1.33747
 -0.34755
 -0.356791
 -0.683884
 -0.433342
 0.122152
 0.125625
 0.31591
 0.386248
 -10.833
 -11.0973
 -11.1921
 -11.1502
 -0.0817287
 0.056078
 -0.0784666
 0.0274928
 -11.6047
 -11.3437
 -11.5284
 -11.1546
 -6.00737
 -5.9324
 -6.31496
 -6.03234
 3.38635
 3.15394
 3.2031
 3.3959
 -10.0771
 -9.9919
 -10.2781
 -10.4006
 0.824404
 0.56635
 0.78519
 0.982809
 3.40669
 3.53179
 3.59477
 3.42545
 -7.17134
 -7.07198
 -6.91024
 -7.07815
 -10.2102
 -10.599
 -10.3115
 -10.1654
 -3.62101
 -3.70203
 -3.54838
 -3.48645
 -6.71529
 -6.34306
 -6.81617
 -6.42779
 0.453714
 0.734176
 0.58489
 0.630312
 -4.22348
 -4.11029
 -4.22485
 -4.50508
 -1.10895
 -0.992272
 -1.20053
 -1.22439
 1.39142
 1.28509
 1.43742
 1.44031
 2.2146
 2.2602
 2.2686
 2.07972
 -2.08348
 -1.97255
 -2.24413
 -1.88168
 -2.93943
 -2.94576
 -2.84336
 -2.6612
 0.51397
 0.554411
 0.382566
 0.31193
 0.58365
 0.894796
 0.59478
 0.644396
 -5.03309
 -5.06644
 -4.81934
 -4.85131
 -9.7266
 -9.57084
 -9.98341
 -10.06
 -9.15356
 -8.91403
 -9.20685
 -9.26834
 -8.97486
 -8.57376
 -8.65691
 -8.86888
 -5.58022
 -5.39328
 -5.65792
 -5.35578
 0.600316
 0.918148
 0.67614
 0.769061
 0.485103
 0.314216
 0.250063
 0.205441
 -2.79258
 -2.67864
 -2.32037
 -2.29333
 -6.03886
 -5.86191
 -6.35747
 -6.14934
 -5.89769
 -5.70746
 -5.81656
 -6.05109
 -3.66902
 -3.40218
 -3.59774
 -3.65177
 -4.56082
 -4.82219
 -4.47626
 -4.54364
 1.9807
 2.00895
 1.89194
 1.6902
 5.60477
 5.72025
 5.58735
 5.80645
 -0.0790245
 -0.0527965
 0.221037
 0.0614543
 5.01875
 4.79987
 4.85556
 0.0300077
 0.0881923
 -0.0565089
 0.23176
 -8.35572
 -8.13279
 -8.2738
 -8.05293
 -3.36838
 -3.52283
 -3.59221
 -3.81379
 -9.49112
 -9.35195
 -9.74905
 -9.3146
 0.649892
 0.610183
 0.866811
 0.643453
 -5.65464
 -5.57767
 -6.0477
 -5.93131
 -3.75546
 -3.7413
 -3.40278
 -3.55799
 -10.5676
 -10.7553
 -10.869
 -10.3309
 -7.35166
 -7.29134
 -7.43318
 -7.74895
 -0.108831
 -0.365579
 -0.192373
 -0.09825
 -5.67558
 -5.63526
 -5.3419
 -5.68362
 -7.8793
 -7.35039
 -7.65643
 -7.41945
 3.37828
 3.63314
 3.54066
 3.61814
 -3.26536
 -3.38688
 -3.5527
 -3.59166
 -7.77866
 -7.89824
 -8.02065
 -7.75545
 -4.8858
 -5.1619
 -4.67385
 -5.32031
 -7.61325
 -7.25655
 -7.66535
 -7.62625
 0.402337
 0.181694
 0.0519107
 0.0567302
 -7.39287
 -8.04199
 -7.36628
 -7.91782
 -1.9274
 -2.08038
 -1.62215
 -1.8995
 -2.49968
 -2.62792
 -2.81386
 -2.43878
 -7.27351
 -7.19375
 -6.92823
 -7.43897
 -11.6097
 -11.363
 -11.3517
 -11.5324
 2.00249
 1.8724
 1.7558
 1.68479
 -0.821836
 -1.05282
 -1.18644
 -0.883272
 -4.31902
 -4.13521
 -3.98815
 -4.07537
 -7.28436
 -7.50401
 -7.45224
 -7.51076
 -0.198523
 -0.0104919
 -0.0924391
 -0.107278
 1.58127
 1.31331
 1.19105
 1.52353
 -5.92512
 -5.94453
 -5.53767
 -5.56694
 -4.99529
 -5.26939
 -4.98898
 -5.10589
 -10.2005
 -10.4657
 -10.7184
 -10.2091
 1.01259
 0.713485
 1.07636
 0.863255
 -10.1953
 -10.4655
 -10.4089
 -10.2423
 -0.765122
 -1.06292
 -0.881455
 -0.788504
 5.46382
 5.49092
 5.4083
 5.36082
 -8.77064
 -9.00509
 -9.13986
 -9.007
 -5.36831
 -5.55222
 -5.20521
 -4.8944
 -8.82832
 -8.85558
 -8.63672
 -8.58878
 -2.71778
 -2.40686
 -2.64556
 -2.76395
 -2.13135
 -2.29575
 -2.35675
 -2.17603
 -6.80302
 -6.40118
 -6.46288
 -6.56567
 0.636502
 0.517802
 0.750322
 0.583305
 1.04876
 0.906692
 0.891178
 0.989016
 4.27372
 4.38061
 4.38632
 4.42893
 -3.84619
 -4.06325
 -4.18044
 -4.32745
 -2.99003
 -2.8466
 -3.31483
 -3.00369
 -4.82528
 -4.35522
 -4.65242
 -4.9133
 -0.939065
 -1.3152
 -1.34889
 -0.879465
 -9.87371
 -9.83391
 -10.0672
 -9.53235
 -10.1896
 -10.7445
 -10.2128
 -10.1141
 -5.06723
 -5.22276
 -5.49209
 -5.50694
 6.6785
 6.70449
 6.6471
 6.55117
 -1.86624
 -1.70112
 -1.92181
 -1.56298
 -2.02851
 -1.9499
 -1.65413
 -1.95157
 -1.86217
 -1.91788
 -1.58828
 -1.60081
 -7.11893
 -6.97037
 -7.398
 -6.91794
 3.75069
 3.52705
 3.88132
 3.75753
 4.49094
 4.50044
 4.66166
 4.72434
 -7.25436
 -6.9964
 -7.26651
 -6.89766
 -0.507715
 -0.831894
 -0.388435
 -0.792279
 -1.40469
 -1.35765
 -1.46771
 -1.47962
 -5.22714
 -5.06642
 -4.97428
 -4.65391
 0.90948
 0.775793
 0.682326
 0.814408
 -7.46011
 -7.13238
 -7.18665
 -7.44789
 -1.00817
 -0.552068
 -0.772569
 -0.426523
 -0.610266
 -0.558402
 -0.344617
 -0.547114
 1.57775
 1.71261
 1.46158
 1.74563
 -1.65771
 -2.01902
 -1.7897
 -2.04878
 -8.14337
 -8.33436
 -8.31186
 -8.05372
 -5.61947
 -5.98748
 -6.10698
 -5.76492
 0.869903
 0.907054
 0.68549
 0.682731
 -0.163097
 -0.481207
 -0.484107
 -0.174063
 -9.16113
 -9.2947
 -9.52303
 -9.39929
 -7.25971
 -7.00522
 -7.15727
 -7.04749
 -2.10374
 -1.99336
 -1.81614
 -1.99809
 1.70432
 1.65276
 1.67019
 1.57632
 2.92729
 2.57669
 2.6464
 2.87158
 -5.15539
 -4.85063
 -4.70012
 -5.00898
 1.34445
 1.56837
 1.35984
 1.81754
 -8.54901
 -8.13122
 -8.13595
 -8.51117
 -4.3408
 -4.76609
 -4.51529
 -4.24966
 -7.79376
 -7.70411
 -7.57677
 -7.68835
 -5.86889
 -5.4852
 -5.50465
 -5.73778
 -1.98552
 -1.82605
 -1.99296
 -2.18404
 0.416746
 0.829937
 0.731425
 0.56033
 2.5477
 2.2032
 2.508
 2.47317
 1.74182
 2.04504
 1.71587
 1.81468
 0.513481
 0.788395
 0.841282
 0.7111
 -2.49256
 -2.59292
 -2.55901
 -2.11014
 -2.48337
 -2.58025
 -2.60677
 -2.3136
 -2.81585
 -2.55756
 -3.05049
 -2.77585
 -5.085
 -4.89258
 -5.19637
 -5.13918
 3.6
 3.81797
 3.74219
 3.76144
 -3.58913
 -3.6609
 -3.52668
 -3.82781
 0.920295
 1.17885
 1.0706
 1.00455
 -1.33077
 -1.69806
 -1.43499
 -1.63605
 -9.99151
 -9.4342
 -9.92003
 -9.7896
 -2.40535
 -2.2573
 -2.24982
 -2.12567
 1.36931
 1.49636
 1.42292
 1.68454
 -1.36753
 -1.31406
 -1.5282
 -1.67815
 0.341081
 0.195048
 0.21329
 0.420608
 -2.12711
 -1.78486
 -2.15482
 -1.88815
 3.52178
 3.69257
 3.61011
 3.45049
 -1.38781
 -1.40635
 -1.64332
 -1.6724
 -5.2841
 -5.19855
 -5.42958
 -5.21239
 -4.60927
 -4.64219
 -4.77642
 -4.65784
 -9.32837
 -8.66737
 -9.20362
 -8.93342
 -0.172277
 -0.128275
 -0.369302
 -0.198344
 0.40978
 0.240339
 0.429407
 -0.0138821
 -9.14679
 -8.7084
 -9.17121
 -9.09465
 0.285006
 0.281348
 0.0104696
 0.277244
 -8.04814
 -7.9038
 -8.25885
 -7.88815
 -3.40705
 -3.84278
 -3.57402
 -3.7609
 -2.47997
 -2.06693
 -2.45211
 -2.55315
 0.533002
 0.275259
 0.315171
 0.544094
 -2.17864
 -2.16643
 -2.4933
 -2.17212
 -8.23195
 -8.09352
 -8.26107
 -8.29864
 5.57761
 5.5222
 5.47801
 5.70126
 1.7906
 1.83613
 1.83649
 1.76887
 1.64108
 1.60753
 1.64829
 1.80976
 -0.520347
 -0.634053
 -0.384767
 -0.755726
 -1.33761
 -1.11818
 -1.2896
 -1.15631
 -0.284862
 -0.14988
 -0.0821471
 -0.32278
 -10.2048
 -10.0348
 -10.6095
 -9.97635
 0.649506
 0.809077
 0.785498
 0.466105
 -4.75634
 -4.80601
 -4.92653
 -4.59861
 -2.58012
 -7.31105
 -6.93086
 -7.0254
 -6.97655
 -4.30551
 -4.55805
 -4.77954
 -4.60117
 2.1559
 2.00638
 1.9503
 2.06082
 -0.767064
 -0.649408
 -0.853653
 -1.03366
 0.00579514
 0.255379
 0.0755727
 0.0275669
 -8.01936
 -7.663
 -7.70599
 -7.74322
 -1.66493
 -1.2372
 -1.53722
 -1.40848
 -8.3402
 -8.41402
 -7.99788
 -8.04037
 -5.74022
 -5.94673
 -5.60218
 -6.04127
 2.05872
 1.90885
 2.00029
 1.7294
 0.568032
 0.833712
 0.394019
 0.568927
 -5.21325
 -5.42442
 -5.45713
 -5.20775
 -2.25385
 -1.88723
 -2.23989
 1.46547
 1.58445
 1.50597
 1.36828
 -5.09133
 -4.56541
 -4.89967
 -4.62601
 0.048801
 0.326441
 0.301968
 0.130548
 -2.2267
 -1.8023
 -2.01413
 -2.257
 -8.97197
 -8.97118
 -8.48673
 -8.89683
 -0.457021
 -0.348967
 -0.196312
 -0.418359
 -7.2986
 -6.91787
 -7.24421
 -7.36433
 -2.74627
 -2.55053
 -2.74685
 -2.41839
 -6.52949
 -6.31351
 -6.02271
 -6.22564
 -8.61665
 -8.62481
 -9.00877
 -8.83281
 -0.621534
 -0.584642
 -0.787624
 -0.77108
 5.51259
 5.23882
 5.27992
 5.13353
 -10.5874
 -10.3444
 -10.3815
 -10.2884
 -4.7783
 -4.64509
 -4.47437
 -4.64874
 1.0157
 1.04115
 0.596792
 0.945033
 -1.33605
 -1.5425
 -1.60102
 -1.31479
 3.17895
 3.11956
 3.12775
 3.31218
 -8.46792
 -8.64653
 -9.08464
 -8.72188
 1.53536
 1.67302
 1.60258
 1.57899
 -3.64551
 -3.92833
 -3.50736
 -3.72157
 0.739148
 1.19945
 0.842153
 0.847342
 -11.0592
 -10.9906
 -11.0264
 -10.6279
 -10.7619
 -10.6828
 -10.456
 -10.2214
 -5.89013
 -5.56272
 -5.47967
 -5.95101
 -3.86229
 -3.98407
 -3.88949
 -3.65965
 -3.96687
 1.24908
 1.19796
 1.48544
 1.29643
 0.868757
 0.96206
 1.03884
 0.784624
 -5.16536
 -5.47788
 -5.493
 -5.50627
 1.26192
 1.07191
 1.06646
 1.27132
 0.321273
 0.388611
 0.432849
 0.191705
 -5.72516
 -5.84308
 -5.77992
 -5.47813
 -0.802408
 -1.12376
 -0.802167
 -1.11694
 -5.27628
 -5.30676
 -5.3643
 -5.59026
 0.197614
 0.260922
 0.459187
 0.212928
 -0.484553
 -0.67736
 -0.716694
 -0.746015
 -1.8397
 -2.11766
 -1.72563
 -2.02956
 -3.80758
 -4.15431
 -3.94863
 -4.27942
 -6.88713
 -6.71699
 -7.20818
 -7.16547
 -3.41425
 -3.32489
 -3.15629
 -3.19176
 -3.37881
 -3.52569
 -3.61721
 -3.54118
 2.12805
 2.1341
 2.01688
 1.94229
 -4.78767
 -4.85286
 -4.97565
 -4.89337
 -2.65357
 -2.72367
 -2.84347
 -2.62798
 -3.0071
 -2.99351
 -2.78181
 -2.96141
 -0.919032
 -1.00281
 -0.706971
 -0.887775
 1.50641
 1.52951
 1.4104
 1.71451
 -6.28826
 -6.24885
 -6.45372
 -6.48468
 1.41988
 1.60064
 1.53594
 1.24806
 -10.3482
 -10.3155
 -10.7476
 -10.5111
 -7.24664
 -7.00721
 -7.45081
 -7.30146
 -7.47466
 -7.5121
 -7.50929
 -7.3973
 -7.60474
 -7.49356
 -7.44359
 -7.80825
 -5.7011
 -5.85783
 -5.54129
 -5.86901
 3.10417
 3.23396
 3.45489
 -3.28208
 -2.87144
 -3.22607
 -3.1522
 -6.97346
 -6.85279
 -6.73669
 -6.97993
 -0.757446
 -0.458929
 -0.621906
 -0.693919
 0.184575
 0.125961
 0.27853
 0.0851575
 -5.92664
 -5.97725
 -6.25572
 -5.63387
 -1.76944
 -1.6939
 -1.81891
 -2.04144
 -0.043153
 -0.0605175
 0.0226341
 0.0725712
 -10.075
 -10.4947
 -4.55769
 -4.50271
 -4.18779
 -4.2164
 -1.95155
 -1.87901
 -1.70289
 -3.62492
 -3.71434
 -3.64718
 -3.37553
 2.60314
 2.67081
 2.42921
 2.45621
 -7.31174
 -7.5768
 -7.56046
 -7.20439
 -3.53385
 -3.45424
 -3.28274
 -3.31642
 -0.726772
 -0.492592
 -0.614972
 -0.84892
 -3.07667
 -2.7647
 -2.86743
 -2.99628
 1.33098
 1.44165
 1.26053
 1.35573
 1.91117
 1.52451
 1.80541
 1.73654
 -1.72346
 -1.95478
 -2.0323
 -1.86971
 1.2876
 1.34606
 1.30061
 1.11638
 -2.09741
 -1.94824
 -2.00635
 -1.89456
 -7.76009
 -7.68991
 -7.30753
 -7.26112
 1.12001
 0.982014
 0.889474
 1.02891
 4.21916
 4.02732
 4.17182
 4.05873
 -4.26874
 -3.71278
 -4.05921
 -4.14341
 -1.39161
 -1.58943
 -1.34643
 -1.59069
 1.37204
 1.41021
 1.19007
 1.23786
 -2.00487
 -1.84102
 -2.13922
 -2.11306
 -9.03561
 -8.9199
 -9.14545
 -9.06768
 0.419582
 0.431553
 0.54951
 0.421544
 -4.27846
 -4.04803
 -4.05113
 -3.98118
 -1.2839
 -1.57435
 -1.36178
 -1.75612
 -5.59592
 -5.80923
 -5.77038
 -6.02985
 -7.74862
 -7.68253
 -7.88019
 -7.58182
 1.04316
 0.843023
 0.973188
 0.623157
 -0.352334
 -0.544255
 -0.494394
 -0.440788
 -3.79915
 -3.76552
 -3.39305
 -3.62123
 1.4899
 1.4052
 1.43597
 1.36554
 5.46081
 5.61241
 5.5998
 5.5044
 -3.00332
 -2.74145
 -2.75326
 -2.69908
 5.84869
 5.89203
 5.82697
 5.6988
 5.51088
 5.30854
 5.32667
 5.42848
 2.47151
 2.32317
 2.35959
 2.5373
 -4.81377
 -4.58854
 -4.39842
 -4.26984
 -4.64881
 -4.88507
 -4.91119
 -5.11626
 -5.11318
 -4.88573
 -5.06681
 -4.7296
 -4.24243
 -3.90885
 -3.98046
 -4.34609
 3.42707
 3.58316
 3.46858
 3.49371
 0.980187
 1.09187
 0.838113
 0.939939
 1.07767
 1.33042
 1.27273
 1.27322
 -0.881469
 -1.1788
 -0.899035
 -1.20549
 -3.3718
 -3.19328
 -3.38773
 -3.24161
 -5.64803
 -5.56716
 -5.42756
 -5.67456
 0.621917
 0.345551
 0.271324
 0.549592
 -4.86995
 -2.06048
 -2.28638
 -2.2829
 -2.12295
 -10.78
 -10.8846
 -11.2734
 -11.0283
 -1.56464
 -1.60313
 -1.78791
 -1.59746
 -8.46177
 -8.90196
 -8.57678
 1.12705
 1.00732
 0.912987
 1.1663
 4.99346
 4.81203
 4.8927
 4.78125
 -2.32197
 -2.29937
 -2.65813
 -2.13739
 -0.892893
 -0.530102
 -0.607465
 -0.570547
 1.27183
 1.12656
 0.978592
 0.902936
 0.869685
 0.789912
 0.985908
 0.759737
 2.76837
 3.05201
 2.87977
 2.87166
 -3.78186
 -3.71618
 -3.91684
 -4.35377
 -2.27252
 -2.58243
 -2.19333
 -2.43915
 -0.20181
 0.0392838
 -0.189147
 -0.0885135
 -1.78272
 -1.58314
 -2.10374
 -6.13619
 -5.96695
 -5.90741
 0.453036
 0.421261
 0.740877
 0.797871
 2.66492
 2.74258
 2.73756
 2.66912
 0.0547391
 -0.117085
 -0.0891675
 0.110899
 2.49316
 2.70422
 2.44609
 2.7845
 -6.52151
 -6.99029
 -6.64308
 -6.75127
 -5.83974
 -5.98092
 -6.07717
 -6.28168
 1.48079
 1.56362
 1.524
 1.55423
 3.03157
 3.30745
 3.1162
 3.03925
 -3.11227
 -2.72205
 -3.05212
 -2.90249
 -9.74957
 -9.39474
 -9.8623
 -9.46575
 2.63472
 2.64288
 2.75069
 2.62868
 -4.78447
 -4.47332
 -4.43847
 -4.85106
 4.34879
 4.47466
 4.34627
 4.43551
 -5.58942
 -5.76579
 -5.5247
 -6.0228
 -1.09451
 -0.870044
 -1.21592
 -0.81192
 -6.49329
 -6.51532
 -6.82192
 -6.80984
 1.21079
 1.13174
 1.09588
 0.883336
 -0.588428
 -0.370669
 -0.398838
 -0.38515
 0.38683
 0.474078
 0.211983
 0.222209
 0.0932589
 0.177269
 -0.112774
 0.322992
 -3.01981
 -3.21542
 -3.1704
 -2.90158
 -1.59072
 -1.36172
 -1.63663
 -1.61848
 -6.97631
 -6.69828
 -6.47699
 -6.54664
 -10.313
 -10.5888
 -9.98159
 -9.98607
 -1.2844
 -1.25307
 -1.05221
 -1.22584
 -7.70863
 -7.5738
 -7.43872
 -7.93236
 -5.33186
 -5.74776
 -5.93991
 -5.68272
 3.4839
 3.58477
 3.7841
 3.50982
 1.53856
 1.12667
 1.21523
 1.33761
 -1.00549
 -0.823211
 -0.749383
 -0.84591
 2.67393
 2.81849
 2.86162
 2.97556
 -3.28631
 -3.60285
 -3.5639
 -3.43973
 -6.45687
 -7.05326
 -6.72612
 -6.77305
 2.54697
 2.23446
 2.52766
 2.5509
 -1.86174
 -2.09732
 -1.92971
 -1.97604
 0.0175041
 0.0406283
 0.0325909
 0.157737
 5.38221
 5.23709
 5.22057
 5.3702
 -0.607343
 -0.567651
 -0.541552
 -0.786946
 -2.27556
 -2.4665
 -2.42455
 -2.49914
 -5.26414
 -5.58894
 -5.37529
 -5.6804
 0.260685
 0.197069
 0.131541
 -2.28549
 -2.22943
 -2.14843
 -2.23598
 -0.381275
 -0.321549
 -0.69086
 -0.459411
 -4.6384
 -4.35072
 -4.5912
 -4.49477
 -4.68256
 -5.01848
 -4.97389
 -4.88785
 -8.27912
 -7.99006
 -8.17865
 -7.80045
 0.829086
 0.793683
 0.638462
 0.854486
 -9.54817
 -9.67867
 -9.82855
 -9.6242
 0.446857
 0.227356
 0.416486
 0.542209
 -2.23595
 -2.55657
 -2.51855
 -2.70328
 -2.65145
 -2.33321
 -2.44456
 -2.2792
 5.67732
 5.83246
 5.68684
 5.71929
 -0.232402
 -0.0703109
 -0.251651
 -0.291011
 -2.0601
 -2.01189
 -2.26597
 -2.58308
 -1.83971
 -1.92469
 -1.96186
 -1.60976
 -10.6385
 -10.6227
 -10.2936
 -10.5944
 0.455486
 0.202729
 0.0568419
 0.384796
 0.100823
 0.250143
 -0.0195804
 0.315101
 -5.44181
 -5.76524
 -5.49168
 -5.67637
 1.10111
 1.14571
 1.28127
 1.30464
 1.14198
 1.19289
 1.04177
 1.20646
 -4.47594
 -4.0839
 -4.44159
 -4.229
 -4.73057
 -4.71815
 -4.45532
 -4.72492
 -2.83744
 -2.86213
 -3.28427
 -3.12744
 0.228912
 0.352856
 -3.85617
 -3.61285
 -4.01041
 -3.68266
 0.139057
 0.00440132
 0.133829
 0.0785604
 -1.23712
 -1.52412
 -1.61704
 -1.51278
 -8.60227
 -8.40174
 -8.23735
 -8.67364
 -1.4252
 -1.50925
 -1.64977
 -1.70171
 -6.04204
 -6.29382
 -6.44526
 -5.95244
 0.599688
 0.186744
 0.331371
 0.205974
 -0.808097
 -0.571181
 -0.527732
 -0.650951
 -2.0109
 -2.47433
 -2.21765
 -2.30458
 0.893809
 1.10294
 1.18629
 1.04343
 4.10009
 4.04405
 4.13664
 4.24578
 -9.50339
 -9.42599
 -9.30318
 -9.43412
 2.52202
 2.5474
 2.44091
 2.59997
 -3.46991
 -3.59324
 -3.28754
 -3.30893
 4.11506
 4.10056
 3.97975
 4.1797
 -3.6744
 -3.96859
 -3.75669
 -3.72121
 0.371247
 0.39933
 0.479903
 0.460884
 0.466752
 0.401837
 0.634704
 0.495783
 -2.85131
 -2.96651
 -2.62017
 -2.84521
 -7.14892
 -6.77771
 -7.06471
 -6.71543
 -0.688728
 -1.07963
 -1.01012
 -1.02291
 1.52972
 1.59987
 1.51964
 1.41796
 -6.96952
 -7.45762
 -7.20536
 -7.55555
 0.384453
 0.583371
 0.264333
 0.244855
 -0.834131
 -1.09253
 -1.02678
 -1.18213
 -5.4279
 -6.04072
 -5.90762
 -5.68986
 -2.61582
 -2.89647
 -2.96598
 -2.97013
 -1.66061
 -1.52341
 -1.68786
 -1.82418
 -8.51336
 -8.77089
 -8.93019
 -9.04775
 -7.31736
 -7.43854
 -7.42908
 -7.25462
 -3.28566
 -3.33156
 -2.95199
 -3.11598
 -1.65753
 -1.81158
 -1.55089
 -2.11741
 -0.279434
 -0.365618
 -0.385381
 -0.720725
 1.57274
 1.5948
 1.75656
 -5.92639
 -6.138
 -6.04499
 -6.32885
 4.2648
 4.39076
 4.55601
 4.52433
 -4.87345
 -4.47794
 -4.69009
 -4.6236
 0.764216
 1.06174
 0.903889
 0.883347
 1.25212
 1.46846
 1.40762
 1.43192
 -7.65527
 -7.29907
 -7.47849
 -7.96684
 -2.61866
 -2.4427
 -2.72731
 -2.52705
 -1.81608
 -1.72231
 0.164244
 -1.28109
 -1.56066
 -1.23778
 -1.41729
 4.09096
 3.93947
 -4.39589
 -4.52885
 -4.65906
 2.03907
 1.90624
 2.20271
 2.02994
 -4.60688
 -4.26461
 -4.36657
 -4.37756
 -0.81461
 -1.07683
 -1.00217
 -0.983565
 0.271767
 -0.0972988
 0.124555
 0.0904442
 -8.39154
 -8.40098
 -8.8793
 -8.53054
 1.96474
 1.75407
 1.98503
 1.73189
 -4.09371
 -4.10881
 -4.1833
 -4.37515
 -9.18332
 -9.27027
 -8.83722
 -8.84743
 -2.50884
 -2.20505
 -2.47634
 -2.27125
 -4.20639
 -3.75981
 -3.91932
 -3.90076
 -1.95304
 -2.19916
 -1.99861
 -1.59016
 -10.9056
 -10.2359
 -10.7787
 -10.2044
 -10.3385
 -10.3407
 -10.1517
 -9.89668
 -9.82337
 -9.67469
 -9.66814
 -9.85968
 -1.25479
 -1.01698
 -1.27726
 -1.24883
 -3.37855
 -3.0107
 -3.14889
 -3.32179
 -1.56008
 -1.52204
 -1.32566
 -1.48002
 -1.1017
 -1.01071
 -1.35367
 -1.0062
 -4.83772
 -4.94194
 -4.99407
 -4.6545
 -6.98422
 -7.39348
 -7.24433
 -7.43334
 -6.9873
 -7.12544
 -6.76261
 -7.26172
 -2.51974
 -2.67745
 -2.4625
 -2.64402
 -1.7715
 -1.76766
 -1.68333
 -1.55457
 0.471613
 0.612432
 0.525447
 0.267529
 -5.70435
 -5.99657
 -5.99724
 -5.60965
 2.59994
 2.58548
 2.77917
 2.49511
 -6.21431
 -6.42736
 -6.18543
 -6.10997
 -3.02866
 -3.49972
 -3.04022
 -3.38792
 -2.857
 -2.98927
 -2.90592
 -2.71943
 1.77087
 1.79982
 1.91777
 2.08905
 6.14305
 6.02441
 6.18163
 6.16449
 -0.37788
 -0.628977
 -0.381437
 -0.437879
 -6.27477
 -5.84201
 -5.97607
 -6.24932
 1.20562
 1.41288
 1.26651
 1.10321
 -3.36875
 -3.52029
 -3.18468
 -3.54767
 -3.77338
 -4.00914
 -4.30706
 -4.18564
 -5.46137
 -5.63038
 -5.16038
 -5.3128
 2.99914
 3.13258
 3.12636
 2.97925
 2.9255
 2.9056
 2.99903
 3.03783
 -6.26269
 -6.75417
 -6.55176
 -6.52578
 -4.89417
 -4.43653
 -4.44706
 -4.72743
 -0.242459
 -0.27697
 -0.137736
 -0.154696
 -2.04493
 -1.95102
 -2.20864
 -2.36368
 -2.93621
 -3.00379
 -2.96235
 -2.83772
 -0.163315
 0.0136346
 -0.386134
 -0.0513787
 -4.21255
 -4.03215
 -4.06351
 -3.84957
 -12.0777
 -11.7064
 -11.9957
 -12.0514
 -3.61085
 -3.96194
 -3.93172
 -4.13645
 -2.11396
 -2.25596
 -2.04708
 -2.40282
 -2.18069
 -2.15777
 -1.9154
 -2.18835
 -2.96751
 -3.15866
 -2.99032
 -2.73735
 -9.60541
 -9.62729
 -9.31513
 -9.59149
 -6.94934
 -6.65744
 -6.85981
 -4.12503
 -4.10978
 -4.31168
 -4.08084
 1.47619
 1.50135
 1.31769
 1.52672
 -1.09001
 -1.1071
 -0.893589
 -1.17843
 -6.90478
 -6.47031
 -6.40543
 -6.48114
 0.466168
 0.381755
 0.328329
 0.225702
 -0.691749
 -0.498594
 -0.479247
 -0.745466
 -1.01201
 -0.897094
 -0.590485
 -0.850488
 -4.78829
 -4.5779
 -4.50354
 -4.50707
 -3.11045
 -2.85873
 -3.14983
 -2.63688
 -4.14134
 -3.59561
 -3.7998
 -3.87926
 1.08609
 0.980119
 0.947575
 1.04811
 -0.837856
 -1.01873
 -1.07801
 -0.829698
 -4.48182
 -4.24668
 -4.53631
 -4.78491
 -0.547846
 -0.662647
 -0.806725
 -0.437716
 -3.59651
 -3.87418
 -3.88269
 -3.70918
 1.20964
 1.28789
 1.15244
 1.32319
 -8.96217
 -9.09118
 -8.70059
 -8.96144
 0.557039
 0.730017
 0.491938
 0.393542
 0.837193
 1.26416
 0.998582
 0.997162
 -5.37248
 -5.36598
 -5.59648
 -5.6837
 0.518122
 0.461546
 0.413724
 0.447006
 -3.76859
 -3.65228
 -3.77569
 -3.47576
 1.91092
 1.87346
 2.15237
 2.10111
 -2.84522
 -2.70375
 -2.76818
 -3.04788
 -8.21187
 -8.77133
 -8.29465
 -8.60834
 -3.01908
 -2.63083
 -2.62346
 -2.84827
 -5.38915
 -5.54346
 -5.3898
 -5.38028
 -3.72026
 -3.5938
 -3.6766
 -3.85628
 -3.5884
 -3.69837
 -3.7746
 -4.01361
 -9.50305
 -9.51101
 -9.65377
 -9.10109
 0.982597
 1.1218
 1.2286
 1.26079
 0.731276
 0.829768
 1.02601
 0.837062
 -7.49966
 -7.50523
 -7.29744
 -7.79089
 -8.29127
 -8.4874
 -8.26241
 -0.0282865
 0.0644682
 0.0784464
 -0.0886789
 -3.9391
 -4.28174
 -3.94553
 -3.90262
 -3.34317
 -3.44993
 -3.13307
 -3.4868
 0.864017
 0.672091
 1.01336
 0.847998
 -5.51004
 -5.7434
 -5.65668
 -5.69667
 -1.86434
 -1.55777
 -1.59597
 -1.89288
 -2.89976
 -2.59053
 -2.62507
 -2.54487
 -5.79603
 -6.05943
 -6.08421
 -6.00197
 1.68827
 1.77558
 1.66917
 1.56279
 -0.114943
 0.167238
 0.0903125
 0.105241
 -9.81576
 -9.34263
 -9.73865
 -9.58721
 0.973246
 1.00586
 0.934498
 0.614923
 1.6444
 1.73837
 1.69912
 1.67389
 -1.96367
 -2.06876
 -1.93338
 -2.30989
 4.09325
 4.02143
 4.16265
 3.89648
 -2.59766
 -2.65207
 -2.50007
 -2.63222
 -6.11915
 -5.987
 -5.88962
 -5.82278
 -7.166
 -6.93344
 -7.04879
 1.97281
 1.94775
 1.8569
 1.94194
 0.482447
 0.217477
 0.5377
 0.284107
 0.885124
 0.964621
 1.08943
 1.13377
 0.0747197
 0.25588
 0.143609
 0.188663
 -10.1674
 -10.3775
 -10.5238
 -10.437
 1.63182
 1.62158
 1.69826
 1.8451
 0.332982
 0.513018
 0.362191
 0.0891162
 -6.96904
 -7.20231
 -6.96445
 -6.83481
 -0.677205
 -0.595052
 -0.777088
 0.115034
 0.344218
 0.135823
 -3.07504
 -2.86665
 -2.6236
 3.69738
 3.45943
 3.42227
 3.61533
 -2.68479
 -2.86146
 -2.75271
 -2.96437
 -2.53124
 -2.69257
 -2.28556
 -2.34877
 -7.57286
 -7.79585
 -7.44388
 -7.38779
 -8.59421
 -8.48306
 -9.10591
 -8.51463
 1.05166
 1.25916
 1.28203
 0.888021
 -3.28789
 -3.59402
 -3.62601
 -3.49499
 -3.226
 -3.46091
 -3.58455
 -3.49853
 -1.83717
 -2.19604
 -2.03848
 -2.26899
 -0.489958
 -0.604943
 -0.64307
 -0.306101
 -3.21587
 -2.908
 -3.12567
 -3.22825
 1.04483
 0.985256
 1.08495
 0.917687
 -8.13236
 -7.9869
 -8.14861
 -8.22732
 0.0537469
 0.110498
 0.000867882
 -0.149104
 -7.1112
 -6.80537
 -7.01713
 -6.97428
 -8.992
 -8.79161
 -8.52765
 -8.89099
 -8.72718
 -8.62752
 -8.58916
 -8.49856
 0.558595
 0.723254
 -5.10963
 -5.02911
 -4.8329
 -4.99763
 0.889189
 0.573836
 0.727743
 0.828726
 -5.92174
 -6.4787
 -6.29824
 -6.41076
 -7.09647
 -6.8435
 -7.24972
 -6.86654
 -0.235684
 -0.418726
 -0.44571
 -0.319502
 -3.10224
 -3.0769
 -3.33997
 -3.23132
 0.148703
 0.133565
 -0.0546026
 0.124505
 -1.2847
 -1.27047
 -1.32401
 -1.55271
 5.16573
 4.89054
 5.2251
 4.98334
 -8.02255
 -7.82575
 -8.32336
 -7.97159
 -0.0141368
 0.174643
 -0.0858108
 -0.230865
 1.97777
 2.14094
 2.13355
 1.90959
 -1.61188
 -1.48392
 -1.755
 -1.82258
 1.82656
 2.11793
 2.19769
 1.81672
 -1.45807
 -1.17447
 -1.07565
 -1.33614
 -5.13198
 -5.02887
 -5.37971
 -4.89922
 -2.01024
 -1.82057
 -1.82233
 -1.93464
 -7.64129
 -8.16391
 -7.66494
 -1.66662
 -1.92608
 -1.61488
 -1.89343
 5.21898
 5.31578
 5.3004
 5.37639
 -10.4684
 -10.5611
 -10.6982
 -10.4722
 -2.86691
 -2.81327
 -2.98385
 -2.75782
 -6.05598
 -5.83765
 -5.56196
 -5.92507
 1.17017
 0.963524
 1.47132
 1.25187
 -0.432552
 -0.641106
 -0.247182
 -0.495289
 -0.475634
 -0.847062
 -0.633593
 -0.82654
 -8.60672
 -8.34958
 -8.67662
 -8.9045
 -0.755578
 -0.554879
 -0.401362
 -0.48414
 -10.2115
 -10.0791
 -10.3137
 -9.8852
 -4.81017
 -4.45516
 -4.45495
 -4.83885
 0.979812
 0.927394
 0.83834
 0.96767
 4.20928
 4.14422
 3.98118
 4.26184
 -1.3554
 -0.980821
 -1.20722
 -0.904726
 -2.1588
 -2.16712
 -2.40407
 -2.11527
 -5.35264
 -5.37122
 -5.1833
 -4.91535
 5.01148
 5.19229
 4.93883
 5.0504
 -1.38659
 -1.18829
 -1.53235
 -1.42828
 -9.62511
 -9.36033
 -9.31249
 -9.38309
 -6.6197
 -6.88791
 -6.77035
 -6.65074
 -6.58515
 -6.59355
 -6.87859
 -6.48134
 -6.37391
 -6.11551
 -6.01917
 -6.16495
 -6.72935
 -7.18621
 -6.93782
 -6.89314
 -3.73824
 -3.85265
 -3.74117
 -3.74022
 0.660002
 0.294663
 0.0398587
 -0.00266206
 0.15557
 -4.57985
 -4.24292
 -4.36238
 -4.31144
 -4.52674
 -4.6069
 -4.19315
 -4.26309
 2.68281
 2.58456
 2.60847
 2.68392
 -7.65892
 -7.6633
 -7.5121
 -7.6848
 -5.92351
 -6.20023
 -6.53811
 -6.30865
 0.99608
 0.676176
 0.72402
 0.439473
 0.436868
 0.492295
 0.277056
 0.118151
 0.184417
 0.00633705
 0.641221
 0.918343
 1.25557
 1.05519
 -4.47427
 -4.80485
 -4.70881
 -4.43281
 -9.89488
 -9.96365
 -9.83229
 -9.98507
 -2.20063
 -2.06039
 -2.25162
 -1.92141
 -8.72493
 -8.16181
 -7.96554
 -7.94591
 -1.46212
 -1.40862
 -1.2834
 -1.56007
 -4.48608
 -4.21835
 -4.03348
 -4.07438
 0.910711
 0.955589
 0.9952
 1.1987
 -3.19455
 -3.50858
 -3.06506
 -3.31208
 -3.72775
 -4.08472
 -4.25167
 -3.78087
 0.611655
 0.713606
 0.915893
 0.807305
 -0.679522
 -0.5192
 -1.00153
 -0.819097
 -1.58187
 -1.54669
 -1.33177
 -1.18697
 -3.32784
 -3.47541
 -3.35528
 -3.4883
 2.39456
 2.35321
 2.27526
 2.10237
 -4.04394
 -3.73337
 -3.92304
 -4.11678
 -0.744389
 -0.441831
 -0.790287
 -0.942075
 -5.04595
 -4.95931
 -5.03626
 -4.79857
 -7.5581
 -7.25393
 -7.50871
 -7.34431
 -8.96256
 -8.76142
 -8.7198
 -8.8415
 -8.61883
 -8.84353
 -8.25037
 -10.4024
 -10.5722
 -10.7479
 -10.8591
 -6.63879
 -6.29677
 -5.94729
 -6.37213
 -2.07444
 -2.01213
 -2.2173
 -2.17505
 -8.88398
 -8.63516
 -8.40757
 -8.81441
 -2.59612
 -2.62901
 -2.45812
 -2.41492
 -3.45976
 -3.62095
 -3.53012
 -8.41775
 -8.7047
 -8.52552
 -8.48136
 -7.97606
 -7.66521
 -7.79059
 -3.10498
 -2.97696
 -3.23733
 -3.33039
 -0.595352
 -0.727886
 -0.56241
 -0.910905
 -4.7762
 -4.54551
 -4.46194
 -4.41017
 -8.69183
 -8.93585
 -8.76626
 -8.61748
 0.273043
 0.331168
 0.201595
 0.437499
 -1.95699
 -1.87152
 -1.67146
 -1.6059
 -2.37662
 -2.76315
 -2.34659
 -2.39619
 -5.14079
 -4.83558
 -5.063
 -5.10277
 0.320488
 0.480054
 0.13344
 0.436309
 1.17291
 1.34672
 1.1563
 1.21008
 -2.2962
 -2.30266
 -2.25682
 -2.53064
 -9.94698
 -9.72378
 -9.68943
 -9.77468
 -0.0339458
 0.244701
 -0.0685573
 0.0913324
 0.993414
 0.785538
 1.04864
 0.807581
 -4.0031
 -3.59811
 -4.00187
 -3.96156
 0.092948
 0.00231843
 0.145785
 1.12492
 0.934975
 1.01342
 -3.43846
 -3.24206
 -3.68714
 -3.33609
 0.822159
 0.911408
 1.08391
 0.839564
 0.889424
 1.14875
 0.948058
 0.942076
 -4.09025
 -4.1836
 -4.00963
 0.667249
 0.707657
 -7.31154
 -7.3656
 -7.89767
 -7.94256
 -4.74669
 -5.21118
 -5.20617
 -5.03534
 2.42438
 2.24617
 2.57335
 2.18822
 3.72949
 3.67419
 3.88703
 3.67127
 0.0105247
 0.440529
 0.181409
 0.155869
 -8.18813
 -8.1811
 -8.36024
 -8.2108
 -4.56378
 -4.34962
 -4.2034
 -4.33952
 1.75419
 1.80268
 1.81266
 1.84062
 0.0884701
 0.0607168
 -0.0603602
 -0.25643
 -0.0326513
 -0.0732517
 -0.0141781
 0.575652
 0.402358
 0.371543
 0.372028
 0.423423
 0.593822
 0.351811
 0.297785
 1.09492
 1.33299
 1.13559
 1.30423
 -9.28952
 -9.566
 -9.36399
 -9.33797
 -8.81156
 -9.13901
 -8.63183
 -2.12533
 -1.93858
 -2.1577
 -1.83819
 0.203228
 0.510315
 0.160023
 0.253547
 -10.5195
 -10.764
 1.11175
 1.25927
 1.22291
 1.35632
 -2.96728
 -3.46875
 -3.14007
 -3.3568
 -3.98649
 -3.88202
 0.815552
 0.87066
 0.633039
 0.80825
 -9.07468
 -9.30578
 -8.93315
 -9.54131
 -10.0871
 -9.82751
 -9.99811
 -10.5193
 -1.55137
 -1.67284
 -1.56684
 2.69503
 2.5246
 2.61089
 0.473394
 0.171378
 0.496212
 0.42517
 -5.79124
 -5.48194
 -6.02108
 -5.51968
 -0.428098
 -0.229713
 -0.190271
 -0.0214547
 -0.107916
 0.0293247
 -0.206772
 0.0822543
 -4.54533
 -4.50731
 -4.66168
 -5.01629
 4.83825
 4.72314
 4.8716
 5.02526
 -5.36785
 -5.44505
 -5.72238
 -5.65736
 -5.64349
 -5.5984
 -5.86329
 -6.00316
 1.21652
 1.20834
 1.51519
 1.28595
 -7.94012
 -8.11948
 -8.16913
 -7.84769
 5.18663
 5.4009
 5.37519
 5.52687
 -9.04016
 -8.35639
 -8.38767
 -8.3158
 -6.88916
 -6.61405
 -0.062477
 -0.225587
 -0.171598
 -0.35595
 1.45497
 1.67089
 1.54551
 1.37389
 -7.71007
 -8.00031
 -7.92473
 -7.80894
 -0.448327
 -0.523701
 -0.506528
 -0.343166
 -9.97385
 -9.73902
 -9.90881
 0.243141
 0.446108
 0.543291
 1.73375
 1.48358
 1.42475
 -8.88515
 -9.04262
 -8.93974
 -8.81228
 0.187063
 0.322427
 0.325966
 0.321346
 -7.87578
 -7.91332
 1.78798
 1.63363
 1.80422
 1.74803
 -2.44351
 -2.72573
 -2.73117
 -2.47318
 -0.146589
 -0.0178884
 -1.06718
 -1.57031
 -1.50757
 -1.2174
 -0.148869
 -0.109505
 -0.133614
 0.11293
 -10.0199
 -10.4019
 -9.87332
 -10.0444
 1.50847
 1.60423
 1.55617
 -6.74379
 5.09739
 5.13936
 5.12746
 5.20304
 -7.72022
 -7.77401
 -7.98309
 -7.39535
 -0.135426
 -0.161647
 -0.573278
 -0.467692
 -5.38522
 -5.23215
 -5.27397
 -5.33699
 -0.0925487
 0.0771277
 0.182809
 -0.037649
 -4.42645
 2.66368
 2.7149
 2.71638
 2.63863
 -4.43375
 -4.44555
 -4.35016
 -4.10864
 -6.6959
 -6.8666
 -7.03054
 -6.43955
 -6.65939
 -6.30915
 -6.73211
 -7.82658
 -8.17653
 -7.97211
 -7.98135
 1.1041
 1.01815
 0.756131
 0.888688
 -7.63182
 -7.63
 -7.58712
 -7.90792
 1.9326
 1.96973
 1.9212
 2.15562
 -7.28232
 -7.48468
 -7.61399
 -7.62227
 -1.98124
 -1.82538
 -1.78748
 -1.70987
 -5.25526
 -5.46015
 -5.56218
 -5.6401
 -3.07584
 -2.93332
 -2.83952
 -2.7532
 -9.1424
 -8.6389
 -2.75512
 -2.49775
 -2.53613
 -2.74155
 2.53657
 2.62658
 2.36504
 2.6257
 1.88713
 1.97759
 1.65278
 1.93089
 -3.05694
 -3.30646
 -3.34201
 -3.3689
 -5.59922
 -5.59011
 -5.52398
 -5.93108
 -6.20441
 -5.90371
 -6.0921
 -6.29678
 -8.4678
 -8.06746
 -8.19803
 -7.94769
 -6.22251
 -6.65717
 -6.42097
 -6.22943
 1.86627
 1.86455
 1.7232
 2.00628
 0.903463
 0.922812
 0.972528
 0.621774
 -10.7187
 -10.4652
 -10.3723
 -10.3955
 -3.52175
 -3.65949
 -3.5915
 -4.0263
 0.619017
 0.328553
 0.60513
 0.411489
 4.37737
 4.41168
 4.17609
 4.48654
 -7.81779
 -7.98437
 -7.6484
 -8.343
 0.440976
 0.399572
 0.334622
 0.173832
 -1.26066
 -1.50168
 -1.10484
 -1.31948
 2.10633
 2.17677
 2.12845
 1.97078
 -4.20925
 -4.04748
 -4.18778
 -4.21495
 -8.64421
 -8.6666
 -8.53882
 -8.64172
 -3.66294
 -3.24823
 -3.38816
 -3.30903
 -1.59712
 -1.65307
 -1.92308
 -1.78087
 2.34474
 2.23731
 2.1381
 2.45453
 -8.62981
 -4.87187
 -5.10785
 -4.74074
 -5.09406
 -1.26019
 -1.13229
 -0.907526
 -1.00671
 -5.6759
 -5.8739
 -5.82037
 -6.09032
 0.556544
 0.735744
 0.648199
 0.466861
 -4.12686
 -4.32536
 -3.9747
 2.52737
 2.23951
 2.45986
 2.48257
 -6.91009
 -6.28815
 -6.67265
 -6.48328
 1.46333
 1.50296
 1.34409
 1.46352
 -11.6755
 -11.5513
 -11.6399
 -11.8635
 0.416201
 0.375197
 0.343549
 0.378305
 3.86922
 3.4239
 3.46562
 3.6274
 2.60631
 2.63148
 2.44652
 2.46631
 -10.6261
 -10.4487
 -10.3274
 -10.2383
 -9.27596
 -9.25149
 -9.46844
 -9.50816
 -2.12916
 -2.38474
 -2.28162
 -2.40946
 0.142612
 0.206618
 0.0497943
 -2.94927
 -2.91981
 -2.53294
 -2.67589
 -4.77797
 -4.62143
 -4.98044
 -4.99623
 -3.00032
 -3.54986
 -3.36574
 -3.30574
 -2.51088
 -2.58486
 -3.0505
 -2.82043
 -10.4629
 -10.1812
 -10.2078
 -10.0723
 1.00156
 1.09523
 0.763384
 0.996666
 2.56485
 2.92387
 2.88287
 -5.56503
 -5.34988
 -5.4421
 -5.29448
 -7.5257
 -7.85153
 -7.62081
 -7.54668
 0.448909
 0.507635
 0.400167
 0.917841
 0.874353
 0.742923
 1.07977
 -8.23013
 -8.01958
 -8.34733
 -7.82394
 -1.89936
 -1.83669
 -2.10302
 -1.89774
 0.723795
 0.985355
 0.770807
 0.763552
 -1.17871
 -1.02929
 -1.05656
 -1.24034
 -6.9424
 -6.92375
 -6.63311
 -6.93475
 0.482489
 0.159298
 0.636782
 0.247425
 -1.46957
 -1.06406
 -1.17001
 -1.32248
 -0.203957
 -0.479824
 -0.27313
 -9.1878
 -9.11849
 -8.86863
 -8.91472
 -2.09381
 -2.12618
 -1.9338
 -2.24134
 -10.7956
 -10.6522
 -11.2713
 -2.68109
 -2.8419
 -2.77432
 -2.68222
 2.26073
 2.0872
 2.3724
 2.28283
 -3.64527
 -3.71584
 -3.88741
 -4.15482
 -2.42625
 -2.79238
 -2.32506
 0.353172
 0.284547
 0.0716938
 0.208373
 1.56876
 1.49597
 1.62973
 1.44803
 0.505084
 0.357825
 0.206148
 0.5275
 3.98818
 3.94158
 3.73641
 3.70874
 -0.799861
 -0.731032
 -0.615584
 -0.595617
 -0.180783
 -0.0722293
 -0.423817
 -0.0166671
 -8.50512
 -8.03229
 -8.12456
 -8.68848
 1.56929
 1.27043
 1.37522
 1.43903
 -4.43866
 -4.30048
 -4.51566
 -4.62916
 -9.83707
 -9.90024
 -9.68069
 -9.51429
 -9.92523
 -9.45849
 -9.67447
 -9.81863
 -6.57942
 -6.80952
 -6.57441
 -6.70382
 -10.0563
 -10.5218
 -10.4777
 -9.81659
 -8.58817
 -8.64135
 -8.59356
 -10.8643
 -10.2887
 -10.4617
 -10.4618
 2.17094
 2.27867
 2.18482
 2.34442
 -1.22124
 -0.936403
 -0.857878
 -0.983152
 -0.354065
 -0.651631
 -0.424152
 -0.673148
 -0.602545
 -0.445227
 -0.448873
 -0.372619
 -8.93784
 -8.65276
 -8.90582
 -8.9956
 -1.02747
 -1.04111
 -0.811471
 -0.723486
 0.416559
 0.69488
 0.72249
 0.49773
 -5.09104
 -4.99955
 -5.33438
 -4.90205
 0.118112
 -0.117233
 0.120614
 -0.0559924
 -5.70562
 -5.453
 -5.36498
 -2.88544
 -3.19362
 -3.24224
 -8.07374
 -7.69846
 -7.76003
 -7.85641
 -1.19751
 -1.30056
 -1.10409
 -1.1016
 -4.3396
 -4.06606
 -4.15514
 -4.39405
 -0.509805
 -0.193926
 -0.336835
 -0.588214
 -10.8479
 -10.6687
 -9.70832
 -9.55471
 -9.40598
 -9.82254
 2.34368
 2.42002
 2.41938
 2.54501
 -4.37649
 -4.62831
 -4.67883
 -4.91041
 0.339415
 0.0582979
 0.288465
 0.450299
 5.7961
 6.08129
 5.81578
 5.90157
 0.371831
 0.478009
 0.627291
 0.468515
 -5.49173
 -5.19035
 -5.4658
 1.62913
 1.65761
 1.36616
 1.40153
 -9.63778
 -9.30276
 -9.73701
 -9.42421
 0.266898
 0.170292
 0.252956
 0.151595
 -4.1209
 -4.41177
 -4.28204
 -4.1494
 2.09515
 2.01091
 2.24127
 2.07783
 4.59832
 4.59875
 4.51868
 4.43979
 0.7292
 0.54259
 0.737367
 0.796638
 -0.882006
 -0.77761
 -0.975158
 -3.22814
 -2.78908
 -3.25862
 -3.07001
 1.13615
 1.10967
 1.34331
 -5.8627
 -5.73633
 -5.94325
 -6.15526
 -6.63009
 -7.12423
 -6.61856
 -7.0474
 -5.27764
 -4.92747
 -5.20335
 -5.25553
 -9.31333
 -8.54879
 -8.83422
 -8.9233
 -6.36143
 -6.12195
 -6.2954
 -0.18969
 -0.364629
 -0.327965
 -0.454446
 -5.95335
 -5.65892
 -4.7578
 -4.45356
 -4.34785
 -4.61647
 -5.41289
 -5.2818
 -5.32824
 -5.52646
 0.524017
 0.402324
 0.4562
 0.678747
 0.479843
 0.303191
 0.484234
 0.305201
 5.79951
 5.6751
 5.63493
 5.71907
 0.533123
 0.338261
 0.532773
 -0.337756
 -0.234247
 -0.178596
 -0.260927
 -2.41493
 -2.41129
 -2.25494
 -2.19532
 -0.330024
 -0.582448
 -0.597208
 -0.421823
 2.26257
 2.13314
 2.29134
 2.29244
 -6.84658
 -6.42642
 -6.76571
 -6.51103
 -2.06024
 -2.26242
 -2.05043
 -1.86239
 -8.77073
 -8.78693
 -8.65495
 -8.84826
 -3.32932
 -3.05753
 -3.30019
 -3.12597
 -8.93899
 -9.09299
 -8.98723
 4.38825
 4.2008
 4.27516
 4.25068
 -5.24264
 -5.73659
 -5.34471
 -5.38804
 -1.57525
 -1.34227
 -1.625
 -1.49563
 0.952512
 1.12775
 -0.467874
 -0.519707
 -0.653613
 -0.594151
 -1.37407
 -1.06073
 -1.13082
 -8.26976
 -8.38462
 -8.08313
 -8.31687
 -8.50266
 -8.30469
 -8.02587
 -8.17834
 1.05454
 1.11391
 0.975237
 1.09154
 -1.82328
 -1.73355
 0.155669
 -0.0932017
 0.0691688
 0.27253
 -6.13845
 -5.89493
 -6.41098
 -6.42147
 2.26457
 2.24694
 2.29702
 2.18039
 0.719689
 0.632394
 0.828075
 0.842355
 0.242792
 -0.0175314
 -0.13567
 -0.00735081
 -2.82624
 -2.78148
 -2.81104
 -3.18886
 -5.71062
 -5.65463
 -5.46351
 -5.46305
 -6.35784
 -6.08514
 -5.84799
 -6.17019
 5.14439
 5.17896
 5.24661
 5.3117
 1.55594
 1.33554
 1.2592
 -3.32178
 -2.82189
 -3.11549
 -3.63087
 -3.89254
 -3.60739
 -3.93845
 -8.71351
 -8.95198
 -8.77066
 -9.06964
 -1.98029
 0.314711
 0.320081
 0.568917
 0.521324
 -4.5661
 -4.38137
 -4.11577
 -4.25705
 -6.66003
 -6.30216
 -6.34473
 -6.72732
 -7.42675
 -7.49645
 1.0302
 1.11346
 1.22612
 1.26159
 -2.52959
 -2.76023
 -2.66746
 -2.801
 1.70013
 1.75754
 1.69551
 1.61978
 -3.78166
 -0.861634
 -0.690524
 -1.09133
 -1.18974
 -0.304666
 -0.477661
 -0.579605
 -0.423007
 -8.79593
 -8.39751
 -9.40925
 -9.68277
 -9.79904
 -9.54969
 3.35284
 3.51209
 3.42337
 3.34656
 -6.28442
 -6.34819
 -5.95671
 -6.48979
 -3.71463
 -3.33264
 -3.46338
 -3.78295
 4.83008
 4.77255
 4.77109
 4.90298
 -2.35758
 -2.37124
 -2.50746
 -2.21962
 -2.14786
 -1.83692
 -1.66921
 -1.69665
 1.01912
 1.25095
 0.955877
 1.05175
 -10.4939
 -10.7815
 -10.8091
 -10.8238
 -1.85052
 -1.56992
 -1.60618
 -0.111482
 -0.363549
 -0.361772
 -0.138182
 -9.75446
 -10.2451
 -9.89356
 -9.96399
 -0.0650287
 0.0731371
 0.280112
 -0.149945
 -1.49202
 -1.68338
 -7.11159
 -7.14737
 -7.41291
 -6.84942
 -3.25146
 -3.27858
 -3.63058
 -3.60085
 -9.39654
 -9.17263
 -9.50205
 -9.35968
 -1.71653
 -2.14258
 0.604611
 0.508342
 0.452708
 0.475407
 0.0015308
 -0.0374944
 -0.205058
 -0.292314
 -7.50061
 -7.51595
 -7.10754
 -7.24427
 -6.47339
 -6.34279
 -6.57928
 -6.60038
 -6.10237
 -5.71066
 -6.07222
 -5.9602
 -0.0940553
 -0.40674
 -0.276197
 -0.108984
 3.41359
 3.54199
 3.47152
 3.40746
 -10.0551
 -10.39
 -10.0603
 -10.2148
 1.22242
 1.19825
 1.16616
 1.03091
 -3.02931
 -3.22724
 -3.3173
 -3.05981
 -0.638421
 -1.04449
 -0.762644
 -0.907892
 -2.99537
 -2.65846
 -2.9403
 -4.2726
 -4.63993
 -4.28063
 -4.69187
 -2.24305
 -2.45561
 -2.29796
 -2.0856
 -5.42426
 -5.55349
 -5.82276
 -5.35549
 -5.41929
 -5.31078
 -5.45109
 -4.94012
 4.81746
 4.53281
 4.79841
 2.03701
 1.80544
 1.70363
 1.79414
 -3.01907
 -2.81435
 -2.89964
 -2.88024
 -7.1085
 -7.44213
 -7.24563
 -7.48414
 0.334326
 0.625705
 0.33807
 0.150672
 0.0135657
 -0.00360793
 -3.81311
 -3.66766
 -3.88132
 -3.88321
 -2.86309
 -3.11625
 -3.22499
 -3.25987
 -12.0832
 -12.0323
 -11.8773
 -12.1704
 2.59062
 2.51778
 2.65876
 2.92332
 -5.83409
 -5.9741
 -0.937796
 -1.2174
 -1.23824
 -0.976344
 -5.13081
 -5.33466
 -5.30056
 -5.38146
 -3.51965
 -3.59314
 -3.79581
 -3.66251
 -1.24737
 -1.25139
 -1.49751
 -1.06351
 -4.70295
 -4.98798
 -4.88358
 -4.95097
 1.04181
 0.947314
 0.967135
 0.795053
 1.71103
 1.88051
 1.68225
 1.78055
 -6.89651
 -7.02959
 -7.31884
 -7.769
 -2.90355
 -3.06875
 -3.28794
 3.75787
 3.84387
 3.68539
 -7.59508
 -7.83361
 -7.87425
 -7.97302
 -8.16978
 -8.06989
 -7.88249
 -7.83016
 -2.37659
 -2.44945
 -2.53848
 -2.65293
 -8.73669
 -8.94863
 -8.89783
 -8.90136
 -9.45587
 -9.83179
 -9.52486
 -9.91199
 -1.31757
 -1.44592
 -1.6529
 -1.38613
 -6.54588
 -6.70479
 -6.84685
 -6.81278
 -11.8497
 -11.9075
 -11.6789
 -11.9913
 -6.19683
 -6.19156
 -6.01335
 -6.46753
 -3.16212
 -2.78274
 -2.94273
 -2.65902
 -7.40542
 -7.53678
 -7.2934
 -7.20065
 -5.23115
 -5.14559
 -5.39231
 -4.05133
 -4.31518
 3.04213
 2.99493
 3.09056
 3.15789
 -3.91008
 -4.21652
 -4.12029
 -4.09279
 3.24363
 3.18955
 3.15473
 3.13904
 3.05192
 3.10635
 2.86574
 2.82661
 -3.40848
 -3.56355
 -3.57814
 -3.3254
 -0.882839
 -0.884567
 -0.660348
 -0.980127
 -4.45376
 -4.78875
 -4.69502
 -4.66401
 -2.5987
 -2.38536
 2.03751
 2.15213
 2.09751
 1.91732
 -9.86847
 -10.0111
 -10.166
 -9.96259
 -1.04164
 -0.871881
 -1.2815
 -1.09666
 -7.54906
 -7.41421
 -7.1649
 -7.39946
 1.98414
 2.15124
 1.98535
 2.08195
 -8.32385
 -8.82208
 -8.68316
 -8.74356
 -3.98129
 -3.59593
 -3.90982
 -3.87838
 0.2105
 0.4657
 0.649509
 0.506388
 -11.5028
 -11.3862
 -11.4062
 -11.2249
 -0.273424
 -0.555631
 -0.330284
 -0.274131
 -1.38652
 -1.02994
 -1.29035
 -1.09878
 -10.0943
 -10.1581
 -9.85928
 -10.2203
 -2.36604
 -1.97125
 -2.10664
 -2.10074
 -7.49559
 -7.72945
 -7.555
 -7.4652
 -7.23832
 -6.98682
 -7.08606
 -1.54261
 -1.10791
 -1.27958
 -1.23985
 -7.18724
 -7.45925
 -7.25668
 -7.3748
 1.22085
 0.973702
 1.0088
 1.22066
 -8.09626
 -8.30413
 -8.28536
 -8.15443
 -7.92581
 -7.80144
 -7.97825
 -7.85975
 0.795823
 0.85265
 0.434341
 0.656878
 0.61241
 0.691797
 0.464116
 0.793086
 6.49209
 6.44643
 6.58503
 6.54548
 -6.20071
 -5.8344
 -5.87259
 2.93817
 2.6597
 2.63721
 2.78146
 -9.46864
 -9.15589
 -9.2372
 -9.26491
 0.87675
 -7.58414
 -7.21962
 -7.28442
 -7.54067
 -7.61425
 -7.27602
 -7.33978
 5.14983
 5.34053
 5.27781
 5.18811
 5.44814
 5.42225
 5.47049
 5.52458
 -9.24167
 -8.91639
 -9.17782
 -9.41401
 0.58724
 0.690716
 0.471413
 0.735644
 -5.10398
 -4.9656
 -5.30004
 -0.525941
 -0.308827
 -0.509393
 -0.175307
 -1.53631
 -1.55012
 -1.46185
 -7.5375
 -7.42503
 -7.89065
 -3.70767
 -3.929
 -3.95104
 -3.7331
 -0.630334
 -0.362454
 -0.361018
 -0.555604
 0.829963
 0.743899
 0.86803
 0.768932
 -5.11944
 -5.33479
 -5.36339
 2.08858
 1.97236
 2.29905
 2.30798
 0.646954
 0.231065
 0.536693
 -1.31516
 -1.74768
 -1.64336
 -1.49411
 0.970251
 0.741779
 0.746296
 0.830118
 0.745928
 0.453234
 0.395592
 0.472908
 -7.77572
 -7.51933
 -7.56997
 -7.50544
 -1.86255
 -1.6257
 -1.77862
 -1.94245
 -0.151168
 -0.129313
 -3.13589
 -2.9437
 -3.06688
 -2.78415
 -8.79414
 -9.34617
 -9.4548
 -9.38558
 -9.337
 6.70327
 6.74853
 6.76433
 6.70369
 -6.74804
 -7.10174
 -6.87787
 -10.5999
 -10.5501
 -10.3455
 -10.5459
 -6.01581
 -5.57751
 -5.69966
 -5.6028
 0.905214
 0.817705
 0.691288
 0.913784
 -1.6182
 -1.41726
 -1.36774
 -1.32841
 -10.8706
 -10.8846
 -10.8029
 -10.7254
 -6.21452
 -5.96294
 -5.76982
 -6.01392
 2.22746
 2.41569
 2.43007
 2.12595
 -1.23062
 -1.26877
 -1.33425
 -0.914038
 -0.863904
 -0.991945
 -1.12543
 -0.903211
 6.72303
 6.74799
 6.74816
 6.7114
 1.23914
 1.29024
 1.35542
 1.15391
 -6.2146
 -6.62965
 -6.223
 -6.416
 -3.93762
 -3.90928
 -4.2052
 -3.81891
 -1.97054
 -2.13281
 -2.37135
 -2.08663
 -5.47792
 -5.81788
 -5.70619
 -5.70281
 -4.03274
 -4.06224
 -4.31212
 -4.02182
 -5.66477
 -5.64148
 -5.41997
 -6.0115
 -11.5712
 -11.0641
 -11.1973
 -11.6889
 -6.75681
 -6.56338
 -6.49468
 -6.0584
 -5.45583
 -5.22954
 -5.0544
 -5.39764
 -4.98555
 -3.06631
 -3.0468
 -2.86148
 -3.3425
 -9.44013
 -9.32486
 -9.24156
 -9.24384
 -1.78617
 -1.61328
 -1.87714
 -1.77685
 -3.70718
 -3.84315
 -3.9995
 -3.52191
 -2.61649
 -2.31155
 -2.52906
 -2.77299
 -0.694297
 -0.326659
 -0.609375
 -0.377201
 4.20434
 4.10856
 3.85998
 4.20341
 -11.9398
 -11.4667
 -4.68279
 -4.49389
 -4.47669
 6.07598
 6.06821
 6.07678
 0.259413
 0.439996
 0.324221
 0.526497
 3.04364
 2.99928
 3.30114
 3.32282
 1.35206
 1.46968
 1.29977
 1.61418
 -9.64323
 -9.14664
 -9.38946
 -9.40464
 -3.05436
 -2.71519
 -2.83607
 -2.67292
 -5.15277
 -5.51981
 -5.47633
 -5.77577
 -3.96149
 -3.92757
 -3.67456
 -3.53109
 -5.71652
 -5.81811
 -5.5719
 -5.63611
 -2.10891
 -2.10603
 -7.47814
 -6.73516
 -7.44359
 -6.81608
 -5.88393
 -5.67112
 -5.51652
 -6.09112
 0.338697
 0.617817
 0.299957
 0.572679
 0.333426
 0.25623
 0.263861
 0.238387
 -3.51248
 -3.5368
 -3.42668
 -3.64179
 -3.25006
 -3.4012
 -3.59944
 -3.80315
 1.41476
 1.71465
 1.79194
 1.35609
 -5.58096
 -5.36966
 -5.26206
 -5.21082
 -11.1979
 -11.009
 -11.1378
 -11.0568
 -7.81321
 -7.62539
 -7.67133
 -7.52333
 -11.5861
 -11.741
 -11.4721
 -11.8021
 -8.29123
 -8.62018
 -8.52354
 -8.54958
 -2.90594
 -3.27132
 -2.93794
 -3.02336
 -5.22629
 -4.99597
 -2.2575
 -2.60883
 -2.17318
 -2.37542
 0.431299
 0.213171
 0.233572
 0.147299
 -6.52871
 -6.92821
 -6.95061
 -6.61824
 -2.14514
 -2.06289
 -2.15643
 -1.84443
 -1.35899
 -1.14733
 -1.07599
 -1.19583
 0.83012
 0.818981
 0.701569
 0.51264
 -0.0903921
 -0.0345036
 0.0715051
 -0.301637
 0.60512
 0.465581
 0.405316
 0.527829
 3.99844
 3.95702
 4.09077
 4.05414
 -6.23433
 -6.34929
 -5.98526
 -6.26823
 -4.8998
 -4.9945
 3.57019
 3.47876
 3.50598
 3.72602
 -0.452166
 -0.535866
 -4.58161
 -4.34732
 -4.62577
 -7.64448
 -7.69647
 1.26156
 1.29758
 1.40224
 1.14029
 3.75881
 3.62921
 3.64404
 3.58744
 1.64974
 1.525
 1.38538
 1.33249
 -0.414315
 -0.564181
 -0.636118
 -0.695583
 -4.07982
 -3.70325
 -3.69481
 -3.72759
 -5.11444
 -4.97907
 -4.93984
 -4.87689
 -0.286729
 -0.543327
 -0.55618
 -0.483792
 -3.66641
 -3.62536
 -3.7653
 -3.32748
 -2.79351
 -2.58788
 -2.52672
 -2.67643
 -3.16995
 -3.38414
 -3.53252
 -3.37557
 -3.39631
 -2.99166
 -3.42981
 -2.24156
 -2.03303
 -2.4744
 -2.28748
 -0.919647
 -1.03194
 -0.758972
 -0.860493
 0.618103
 0.421149
 0.738341
 0.437159
 -9.36916
 -9.26616
 -9.47457
 -9.67915
 -1.84543
 -1.83697
 -2.10656
 -2.10242
 1.74337
 1.75539
 2.05676
 1.81634
 2.21412
 2.2109
 2.25804
 2.33823
 1.57191
 1.71216
 1.70298
 1.60959
 0.691512
 0.715103
 0.436478
 0.387453
 0.649797
 0.801543
 0.865474
 0.765221
 -8.82492
 -9.02939
 -9.00922
 -9.06863
 -1.48084
 -1.47428
 -1.4165
 -1.68767
 -5.92395
 -6.12676
 -5.88516
 -5.77437
 0.563381
 0.270544
 0.633732
 0.402505
 -9.6881
 -9.83037
 -9.80102
 -10.1641
 -10.2648
 -10.2174
 -10.5157
 -5.72152
 -5.09455
 -5.30966
 -5.3309
 0.175613
 0.0650801
 0.325571
 0.123543
 -11.0671
 -10.6509
 -10.7464
 -1.15919
 -0.944881
 -1.08052
 -0.742032
 -8.24128
 -8.2958
 -7.56911
 -7.68598
 -7.98964
 -7.60213
 -0.715343
 -0.545636
 -0.647269
 1.94745
 1.86079
 2.12237
 2.02984
 0.532155
 0.685978
 0.452574
 0.427519
 -2.71285
 -3.0348
 -2.64205
 -10.018
 -9.40734
 -9.46315
 -5.73626
 -5.3904
 -5.25725
 -5.45668
 -10.064
 -10.0115
 -9.5579
 -10.3877
 -1.39079
 -1.68324
 -1.82207
 -1.62953
 -8.38256
 -8.47745
 -8.65628
 -8.12654
 -2.90161
 -2.97019
 -2.76017
 -2.63482
 -0.0560124
 0.176663
 0.049139
 -10.8119
 -10.5085
 -10.6727
 -11.1397
 -4.859
 -3.78411
 -4.14319
 -4.04541
 -3.86479
 -4.26949
 -4.29267
 -4.0604
 0.100076
 0.23615
 0.234822
 0.24546
 0.253361
 -0.0509711
 -1.58488
 -1.30198
 -1.27496
 -1.2087
 -1.43798
 -1.76381
 -1.50747
 -1.69616
 -5.50492
 -11.1384
 -10.6605
 -10.5527
 -10.8661
 4.71591
 4.92179
 4.78969
 4.80778
 -0.471029
 -0.298884
 0.121104
 0.205674
 0.0955374
 0.0357154
 0.276034
 0.245736
 0.565939
 0.445507
 -5.97449
 -5.59059
 -5.64853
 -5.84256
 -6.26925
 -6.4579
 -6.06218
 -6.31472
 -0.262123
 -0.0535447
 -5.17755
 -5.18775
 -5.60105
 -5.33015
 -5.37876
 -5.72074
 -5.39709
 -3.56697
 -3.36
 -3.19935
 -3.0963
 -1.85783
 -1.59631
 -1.82505
 -1.58766
 -6.04799
 -6.47824
 -6.43058
 -6.10731
 -7.1581
 -7.29564
 -7.48548
 -7.19191
 -6.60776
 -6.96806
 -6.68696
 -6.25055
 -6.37608
 -6.27979
 -5.99642
 -1.50897
 -1.59035
 -1.61431
 -1.40128
 2.86653
 2.89878
 2.77294
 2.75298
 -0.803996
 -0.764005
 -0.633397
 -0.69931
 -7.14579
 -6.81371
 -6.58907
 -6.90587
 -5.12262
 -5.02381
 -4.98814
 -5.29703
 -0.887327
 -1.04135
 -1.12487
 -1.16639
 -5.08716
 -4.75618
 -4.95564
 -5.06585
 -3.35608
 -3.46207
 -3.00868
 -3.4523
 -3.36891
 -3.66501
 -3.55626
 -3.64302
 -4.92263
 -5.10801
 -5.10175
 -9.22323
 -9.31152
 -9.13841
 -9.20975
 -0.70832
 -0.968441
 -0.843085
 -0.885254
 -2.30878
 -2.60468
 -2.55801
 -2.48055
 2.62563
 2.76492
 2.74491
 2.54526
 0.794821
 0.606597
 0.640001
 0.759187
 0.465962
 0.854682
 0.68095
 0.904251
 0.935347
 0.803273
 0.834783
 0.744868
 -3.26547
 -3.09052
 -3.16275
 1.79321
 1.83623
 1.73493
 1.69607
 1.21471
 1.12266
 0.944299
 1.1832
 -10.8069
 -10.4983
 -10.4646
 -10.6702
 -3.42118
 -3.24247
 -3.12241
 -3.00353
 -7.20993
 -7.25094
 -7.09627
 -6.90094
 -3.99511
 -4.1368
 -3.92968
 -3.73903
 -4.83111
 -5.08642
 -4.84793
 -4.9316
 0.125772
 0.339813
 0.227736
 0.525672
 -2.52775
 -3.07201
 -2.65769
 -2.70365
 -7.27752
 -7.49252
 -7.21573
 -7.31795
 -4.18423
 -4.06866
 -4.47104
 -4.3823
 1.03498
 1.14105
 0.876089
 0.800914
 -9.19408
 -9.31388
 -9.25581
 -9.36007
 -1.03
 -0.78939
 1.24538
 -2.53533
 -2.67259
 -2.85838
 -2.4643
 -1.78521
 -2.03047
 -1.72809
 -1.67764
 3.54232
 3.57852
 3.35939
 -0.606332
 -0.367772
 -0.307391
 -0.162529
 -4.07292
 -4.57637
 -4.37264
 -4.63136
 -2.85205
 -3.09182
 -2.94743
 -2.85439
 -8.71511
 -8.86507
 -8.89588
 -8.80025
 0.702928
 0.319962
 0.585418
 0.251083
 0.263258
 0.336916
 0.0110772
 3.12574
 3.42098
 3.27373
 3.13322
 0.80803
 0.531704
 0.717647
 -3.88694
 -4.50199
 -3.98275
 0.960848
 0.984773
 1.17825
 1.0839
 -1.84703
 -2.10819
 -2.1772
 -2.1428
 6.6984
 6.7032
 6.69789
 6.59496
 -1.48571
 -1.38193
 -1.40642
 1.77385
 1.81192
 1.77456
 1.77034
 -1.50056
 -1.36769
 -1.12952
 -1.35425
 1.10196
 0.891905
 0.90458
 0.811347
 -5.39117
 -5.5226
 -5.32154
 -5.60649
 -6.25109
 -5.99511
 -6.23294
 -6.36521
 -10.271
 -10.2621
 -10.4222
 -10.0528
 -3.60509
 -3.22628
 -3.53739
 -3.64268
 1.22398
 1.45532
 1.24578
 1.3762
 -0.0743807
 0.0310904
 2.60652
 2.6073
 2.53076
 2.53805
 -2.09683
 -2.20751
 -0.628841
 -1.02696
 -0.947282
 0.434193
 0.290695
 0.172427
 0.316512
 -9.46851
 -9.58693
 -9.11527
 -9.18375
 -9.01002
 -8.90636
 -8.76413
 -8.94523
 0.147787
 0.0414785
 0.185692
 0.41224
 1.7902
 1.73061
 -3.99574
 -4.08723
 -3.99822
 -4.30051
 0.371393
 0.479797
 0.270875
 0.304137
 -1.03554
 -0.711729
 -1.27466
 -11.796
 -11.9135
 -11.6312
 -2.76132
 -3.13698
 -2.98148
 -3.00491
 -8.0904
 -8.50964
 -8.02191
 -7.84865
 -3.24518
 -3.52636
 -3.58593
 -3.22474
 -5.99077
 -6.25866
 -6.31611
 -5.82004
 1.30204
 1.0985
 1.27186
 1.3625
 0.431982
 0.122223
 0.5257
 0.211208
 -3.34733
 -3.0481
 -3.59911
 -3.22816
 -0.760474
 -1.05376
 -1.13384
 -0.73133
 1.30567
 1.21458
 1.13088
 0.907636
 -1.88943
 -2.02455
 -2.19573
 -2.3374
 -4.88136
 -4.9429
 -4.73294
 -3.10813
 -3.40722
 -3.20177
 -3.37842
 5.8001
 5.61546
 5.52489
 5.64485
 1.78426
 1.78545
 1.74698
 1.76896
 -0.591302
 -0.564696
 -0.575896
 -0.828477
 3.74386
 3.56711
 3.84685
 3.66828
 -8.15973
 -8.11529
 -7.85374
 -10.616
 -10.3835
 -10.0993
 -10.3508
 -6.54087
 -7.12046
 -6.88659
 -6.88862
 -3.00435
 -4.82043
 -5.18694
 -5.32207
 -5.04706
 -2.53462
 -2.74995
 -2.39602
 -2.40872
 1.50646
 1.74587
 1.60954
 0.26048
 0.187574
 0.118026
 0.461592
 5.72646
 5.91321
 5.75033
 5.98906
 3.33601
 3.35308
 3.25787
 3.33151
 -0.444884
 -0.438871
 -0.607799
 -0.76664
 -10.9339
 -10.4713
 -10.6153
 -10.571
 5.25847
 5.25392
 5.07277
 5.13316
 -5.59357
 -5.87809
 -5.37631
 -5.70286
 -3.09687
 -3.11441
 -3.40216
 -3.14511
 0.0881307
 0.505642
 0.504026
 -2.16464
 -1.86243
 -1.80269
 -1.81496
 -10.4559
 -10.5206
 -10.6244
 1.33564
 0.966203
 0.909257
 -1.55961
 -1.68411
 -1.98718
 -1.92613
 -0.42854
 -0.36071
 -0.296313
 -0.227512
 -0.693876
 -0.642547
 -0.939763
 -1.00212
 1.77947
 1.91829
 1.91802
 1.67263
 -2.11237
 -2.30559
 -2.0199
 -2.3387
 -9.65133
 -9.09268
 -9.11865
 -8.84237
 -8.61643
 -8.49057
 -8.43341
 -8.78949
 2.1645
 2.14643
 2.09984
 2.17199
 -7.81426
 -7.93151
 -7.88929
 -7.52044
 -9.23644
 -9.68034
 -9.53882
 -9.11174
 -7.73851
 -7.73414
 -7.33296
 -7.38282
 -4.64951
 -4.56332
 -4.82137
 -4.68399
 -2.6607
 -2.44871
 -2.77039
 -0.454426
 -0.0660204
 -0.193059
 -0.259969
 -6.24963
 -6.02933
 -5.80497
 -6.22613
 -6.5651
 -6.6751
 -6.86189
 -6.75374
 -11.9863
 -11.9907
 -11.5353
 -11.8098
 3.45644
 3.31338
 3.35743
 3.32554
 2.54119
 2.63469
 2.58836
 2.44686
 1.68617
 1.71592
 1.41851
 1.72873
 -0.658713
 -0.311459
 -0.552479
 -0.539806
 -1.04132
 -1.07107
 -1.05625
 -9.42954
 -9.68629
 -10.0321
 -9.82146
 -6.91541
 -6.78354
 -6.60275
 -6.57077
 -2.17774
 -1.97663
 -1.89431
 -2.06158
 -8.80803
 -9.04077
 -3.87429
 -3.89375
 -3.88715
 -3.59998
 -8.5305
 -8.69444
 -9.07588
 -8.73162
 -3.39062
 -3.77777
 -3.30731
 -3.82634
 -0.384805
 -0.561586
 -0.188167
 -0.342115
 2.48937
 2.65286
 2.51406
 2.34152
 5.90874
 5.73822
 5.98866
 5.82628
 -8.06269
 -7.90742
 -7.85686
 -8.12424
 -9.00521
 -9.03295
 -9.07847
 -9.30612
 -1.49555
 -1.1632
 -1.38224
 -1.222
 -2.85724
 -2.69952
 -2.65605
 -2.87734
 0.583834
 0.813538
 0.422135
 -4.30788
 -4.0773
 -4.10093
 -3.96281
 0.635937
 0.688884
 0.525436
 0.516019
 -2.41573
 -2.13466
 -1.91208
 -2.08624
 -4.84315
 -4.67189
 -4.77529
 -4.87731
 -3.15243
 -3.0531
 -2.9632
 -7.90004
 -7.55751
 -7.68695
 -7.67985
 -4.44573
 -4.82903
 3.9207
 3.62413
 3.96679
 3.82289
 -6.20338
 -6.0019
 -6.14923
 0.0590122
 -0.0154594
 -0.0253021
 0.0661965
 -4.32532
 -4.29614
 -4.18615
 -2.53906
 -2.26324
 -2.57875
 -2.37832
 -4.2695
 -3.90879
 -4.43901
 -4.15109
 -4.54781
 -4.90554
 4.99872
 4.99305
 5.12726
 5.00153
 5.6113
 5.80772
 5.90219
 5.71075
 -2.81549
 -2.4616
 -2.59907
 -2.45197
 -4.09334
 -3.9052
 -4.07019
 -3.82705
 4.86906
 4.90294
 4.86288
 4.7079
 0.23827
 0.511205
 1.83532
 1.78317
 1.71626
 1.51833
 -4.6069
 -4.50516
 -4.92426
 -4.68188
 -3.85843
 -3.93633
 -4.21937
 -3.72696
 -4.36681
 -4.02695
 -3.9543
 -4.02357
 -0.416192
 -0.439987
 -0.667259
 -0.413024
 1.09415
 1.17017
 1.37159
 1.07242
 2.97018
 2.73105
 2.75761
 2.96315
 1.03389
 1.03455
 1.02651
 0.659049
 -6.23066
 -6.0122
 -6.3423
 -6.16632
 -2.80954
 -2.14551
 -2.48076
 3.65028
 3.53536
 3.37169
 -5.16847
 -5.66398
 -5.40222
 -5.39685
 -5.51784
 -4.95642
 -5.23155
 -5.3607
 -1.54849
 -1.36581
 -1.26638
 -1.94516
 -2.04957
 -2.30498
 -2.05477
 1.19326
 1.33068
 1.38212
 1.37898
 -7.39798
 -7.27394
 -7.53526
 -7.4145
 1.64645
 1.6929
 1.68075
 1.59832
 1.80045
 1.92717
 1.80482
 -10.5374
 -11.0047
 -11.1964
 -10.8664
 -7.53893
 -7.77516
 -0.0252485
 0.0881911
 -0.157494
 -0.0896365
 -2.55534
 -2.87398
 -2.57072
 -1.97422
 -1.83814
 -1.90132
 -1.64041
 1.2943
 1.09344
 1.20969
 -7.06826
 -7.29362
 -6.80239
 -6.9502
 1.27701
 0.953576
 1.1848
 1.23884
 -5.67098
 -5.38836
 -5.2352
 -5.34932
 1.56292
 1.45709
 1.01299
 1.27161
 1.07904
 1.18257
 0.135335
 0.265639
 0.197665
 0.126525
 3.29138
 3.37757
 3.5759
 3.41007
 -6.36365
 -6.70401
 -0.632471
 -0.793769
 -0.830746
 -0.803371
 -10.301
 -10.16
 -10.2402
 -10.4085
 -0.490766
 -0.328388
 -0.643541
 -0.852883
 -6.93128
 -7.28366
 -7.38148
 -7.37913
 -8.90979
 -9.30742
 -8.6881
 -9.18935
 -5.62768
 -5.27359
 -9.3295
 -9.64638
 -9.5421
 -9.40993
 1.26743
 1.29776
 1.32441
 1.08808
 -9.31075
 -9.41217
 -9.44301
 -9.28872
 -10.7706
 -11.1629
 -11.0659
 -10.8102
 -3.93105
 -3.94381
 -4.2375
 -4.14137
 -2.16349
 -2.04122
 -2.36154
 -2.5106
 -8.52239
 -8.0879
 -8.36805
 -8.53172
 3.68253
 3.45687
 3.60475
 3.73265
 -8.31502
 -8.7742
 -0.654184
 -0.835364
 -0.870454
 -1.12322
 -8.1405
 -7.95392
 -7.65871
 -7.69594
 1.14175
 0.914325
 0.954275
 0.969352
 -1.17744
 -0.782965
 -0.925303
 -1.12478
 0.700596
 0.772089
 0.464258
 1.17656
 1.29997
 1.16221
 1.37698
 1.67014
 1.48363
 1.54211
 1.44806
 -4.08006
 -3.86568
 -3.76967
 -7.77983
 -7.81149
 -8.1129
 -8.09369
 -3.24368
 -3.08002
 -2.95062
 1.13866
 1.30987
 1.17797
 -2.61388
 -3.03237
 -2.66655
 -2.92359
 -4.38595
 -4.33194
 -4.40333
 -4.77461
 -1.76382
 -2.07787
 -2.12348
 -2.00823
 -1.43564
 -1.30617
 -1.2203
 -1.02242
 -0.862144
 -0.816587
 -1.26316
 -1.41965
 -1.58473
 -1.13298
 -7.90061
 -7.78979
 -7.90745
 -7.61446
 -5.35219
 -5.1352
 -5.33285
 -5.4606
 -2.01805
 -2.08825
 -1.94018
 -2.36193
 1.27376
 1.44464
 1.30256
 -3.3083
 -3.11723
 -3.29431
 -3.35644
 -0.136888
 0.191035
 0.055934
 0.210831
 4.44335
 4.36876
 4.47901
 4.53964
 -1.02441
 -0.878605
 -0.966742
 -0.942566
 -8.30838
 -8.21598
 -8.57359
 -8.43935
 -0.880601
 -1.19457
 -1.01599
 -0.857139
 1.51001
 1.52138
 1.43306
 1.35084
 1.20801
 1.35027
 1.34355
 -1.99447
 -2.04615
 -1.96144
 -4.6109
 -0.793437
 -0.37579
 -0.620139
 -0.61131
 -8.9127
 -8.8277
 -9.04759
 -8.31104
 -8.38741
 -8.53456
 -0.757719
 -1.02313
 -0.821117
 -0.981322
 -10.7806
 -10.9365
 -11.0403
 -11.0639
 1.03028
 -3.79722
 -3.51377
 -3.73103
 -3.6358
 0.916691
 0.817263
 0.852404
 0.806447
 -8.75187
 -8.97308
 -8.48875
 -8.76122
 -4.99912
 -5.46548
 -5.28901
 -5.09738
 -6.57653
 -6.78233
 -6.36128
 -6.45704
 1.6557
 1.58723
 1.49634
 1.65869
 -0.183769
 -0.406283
 -0.165911
 -0.182571
 -3.31652
 -3.12681
 -3.3732
 -3.06501
 -0.49988
 -0.218713
 -0.600463
 -0.329115
 -4.78012
 -4.91903
 -5.22245
 -5.14668
 0.883958
 0.973062
 0.731505
 0.750471
 -0.0409738
 -0.152496
 -0.376027
 -0.244667
 -3.89954
 -3.93371
 -3.89344
 -4.25899
 -8.96606
 -9.34802
 -9.13097
 -9.38969
 1.71748
 1.64756
 1.46954
 1.53301
 3.16852
 3.43243
 3.15668
 3.18682
 -9.01407
 -9.34794
 -9.18999
 -9.24675
 3.05393
 3.24879
 2.83132
 2.93491
 2.98432
 2.76988
 -2.61347
 -2.75604
 -2.49866
 -2.32567
 -0.147097
 -0.306068
 -0.299803
 -0.055198
 -11.8164
 -11.9187
 -11.9013
 -11.7055
 -8.69929
 -8.66163
 -9.08861
 -4.93796
 -4.9057
 -5.18758
 -4.81144
 1.2442
 1.18287
 1.41507
 1.10774
 0.0325013
 0.0805415
 0.163702
 0.255222
 0.0914674
 -0.0782163
 -4.99649
 -5.52407
 -5.35246
 -5.1277
 -4.42539
 -4.42216
 -4.14898
 -4.49972
 -5.41471
 -5.37023
 -5.06416
 -5.4007
 -10.5403
 -10.5879
 -9.99207
 -10.7438
 -6.10565
 -6.10666
 -5.78366
 -1.11352
 -3.14295
 -3.05667
 -3.14011
 -2.91644
 -3.28005
 -2.94359
 -3.04963
 -3.16666
 -7.44241
 -7.29558
 -7.26113
 -7.07621
 -6.11746
 -5.90368
 -5.93038
 -6.22801
 -4.05817
 -3.79053
 -3.76855
 -0.637358
 -0.446352
 -0.691012
 -0.31269
 -3.03561
 -3.5144
 -3.23394
 -3.28068
 -0.914166
 -1.08905
 -0.779826
 5.18986
 5.19678
 5.31641
 5.10828
 -7.70772
 -8.28297
 -8.03958
 -7.76421
 -7.27787
 -7.86943
 -7.55036
 5.01559
 -3.39081
 -3.45595
 -3.34859
 -3.72139
 -3.97979
 -4.03479
 2.66198
 2.61847
 2.64541
 2.56932
 1.60954
 1.53045
 1.29619
 1.62172
 0.318509
 0.182439
 0.249088
 0.4547
 0.710953
 0.589014
 0.449771
 0.71742
 0.743862
 0.543506
 -1.19777
 -0.982289
 -0.899773
 -0.893309
 -1.45471
 -1.73766
 -12.1132
 -12.1236
 1.14244
 0.776751
 1.17584
 0.938872
 -1.95988
 -1.86995
 -2.07504
 -1.75145
 1.84688
 1.7739
 2.13716
 2.03767
 -8.05925
 -8.27514
 -7.73959
 -7.96073
 -7.18488
 -6.90212
 -7.16403
 -6.87567
 -4.72061
 -4.95603
 -4.99957
 -4.83482
 -3.24023
 -3.34832
 -3.77086
 -3.59469
 -2.80588
 -2.65718
 1.20668
 -5.76228
 -6.09932
 -6.04553
 -6.10605
 -10.2747
 -10.1748
 -10.676
 -10.091
 -7.48957
 -7.87727
 -7.40737
 -7.56811
 6.68635
 6.68983
 6.66287
 6.61063
 -10.1477
 -10.2227
 -10.0965
 -10.1091
 0.426773
 0.422056
 0.65785
 0.293495
 -0.652717
 -0.360588
 -0.475617
 -0.265015
 -5.34885
 -5.38947
 -5.55952
 -5.63185
 -5.3992
 -5.30129
 -5.14598
 -5.22975
 1.21936
 0.853998
 1.0433
 0.95075
 -9.71836
 -9.84076
 -9.67507
 -9.73205
 -8.18773
 -8.36873
 -8.28237
 -8.48614
 -5.77354
 -5.82869
 -6.0659
 -6.07616
 -8.50192
 -8.23606
 -8.38727
 -8.4928
 -0.110792
 -0.37363
 -0.375183
 -0.467399
 1.18516
 1.13994
 1.0639
 1.00422
 -7.78635
 -7.54887
 -7.4182
 -7.50173
 -1.73003
 -1.67048
 -1.5902
 -1.34903
 -2.106
 -1.97
 -1.90922
 -2.0814
 5.62444
 5.51681
 5.44508
 5.50551
 -9.87791
 -9.95563
 -8.7708
 -8.82478
 -8.53956
 -9.02444
 2.149
 2.35453
 2.42372
 2.10272
 -0.236632
 0.0979358
 0.109362
 0.225159
 -8.2858
 -8.06128
 -8.47714
 -8.52124
 -1.27684
 -1.36293
 -1.20638
 -1.49754
 -0.893707
 -0.978748
 -0.673145
 -0.695528
 -10.3593
 -10.453
 -10.2681
 -10.2198
 -3.16503
 -3.07489
 -3.17049
 -3.29398
 -2.46649
 -2.56077
 -2.49129
 -2.28535
 -6.65085
 -6.80157
 -6.90329
 -6.67915
 -4.85044
 -4.74061
 -4.6492
 -4.4629
 -1.39196
 -1.42663
 -1.08261
 -0.247313
 -0.461971
 -0.322652
 -0.704298
 2.67975
 2.77763
 2.80439
 2.48026
 -0.633199
 -0.792091
 -0.844576
 -0.89352
 -2.85631
 -2.68189
 -2.8156
 -2.60664
 -10.4427
 -10.5665
 -10.5275
 -10.1065
 -0.680226
 -1.14802
 -0.899001
 -0.884951
 1.99381
 1.99884
 2.16744
 2.3028
 -5.59692
 -5.91639
 -5.7618
 -5.52765
 -4.27174
 -4.20942
 -4.05773
 -2.99693
 -3.38412
 -3.45554
 -3.55321
 2.89413
 2.90276
 2.88965
 2.72534
 -3.45045
 -3.17848
 -3.28329
 -3.07643
 -9.53137
 -9.56639
 -9.54972
 -9.60786
 -3.14394
 -3.12583
 -3.22414
 -3.30976
 1.74847
 1.88286
 1.79738
 1.72175
 0.84287
 0.668121
 0.857862
 1.05881
 -12.2688
 -12.1567
 -12.2812
 -12.2865
 -0.0802502
 -0.140272
 -0.0995299
 0.238944
 -4.18031
 -3.71959
 -3.84267
 -3.97706
 -11.9667
 -12.0047
 -11.7881
 -11.763
 -8.89144
 -9.36571
 -9.09482
 -5.64513
 -5.61332
 -5.99633
 -6.10519
 -8.03924
 -8.10224
 -8.51398
 -7.92111
 4.58906
 4.45278
 4.32566
 4.37357
 0.673121
 0.413034
 0.784099
 -9.7671
 -10.1169
 -10.0448
 -10.1183
 -4.04285
 -3.94866
 -4.25701
 -3.8358
 -6.65915
 -6.56219
 -6.98141
 -6.34949
 1.61819
 1.6421
 1.83957
 1.93762
 -1.20466
 -1.52473
 -1.16471
 -1.39888
 -4.83809
 -4.34169
 -4.51085
 2.48272
 2.40205
 2.29236
 2.31011
 0.986382
 1.3734
 1.22988
 1.31724
 -0.887987
 -9.79273
 -9.99719
 -9.83861
 -10.0894
 4.218
 4.21991
 4.3876
 4.39303
 -6.53624
 -7.09469
 -6.81718
 -7.16816
 -4.36784
 -4.14853
 -4.23174
 -3.91846
 5.25429
 -7.40744
 -7.15752
 -7.56994
 -9.6502
 -10.0993
 -9.83311
 -9.86642
 -2.06497
 -2.09775
 -2.52864
 -2.22668
 -4.93027
 -4.92259
 -5.17202
 -4.74639
 0.490056
 0.732078
 -2.5867
 -2.4476
 -2.44485
 -2.75127
 0.481589
 0.635187
 0.778804
 0.577554
 -0.40288
 -0.293082
 -0.665655
 -0.66487
 -5.59716
 -5.36981
 -5.59413
 -5.68062
 3.54221
 3.56451
 3.56699
 3.31734
 1.25373
 1.38292
 1.2888
 1.4478
 3.1448
 2.98386
 1.9111
 1.91367
 1.89078
 1.90408
 2.17264
 2.32979
 2.08274
 2.28549
 -10.269
 -10.133
 -9.81635
 -9.82651
 -3.89983
 -3.88747
 -3.76036
 -4.21337
 -1.14559
 -1.52761
 -1.27857
 -1.30923
 -3.10389
 -2.99004
 -2.91717
 -3.19511
 -10.1927
 -10.1258
 2.57082
 2.67561
 2.6519
 2.56844
 -10.0982
 -10.2083
 -9.9198
 3.98307
 4.04504
 3.99325
 4.09309
 -9.25646
 -8.85944
 -9.16029
 -8.92491
 -0.590487
 -0.405429
 -0.668721
 -0.389125
 -1.86893
 -1.89829
 -1.77561
 -9.90137
 -9.69917
 -9.78008
 -9.96343
 -3.69065
 -3.40304
 -3.72329
 -3.48835
 -2.02042
 -2.16487
 -2.4043
 -2.14761
 -0.702015
 -0.563951
 -1.35702
 -0.890667
 -1.22596
 -1.04933
 -4.32253
 -3.9924
 -4.15082
 -10.4578
 -9.97822
 -9.92564
 -10.3338
 -1.73858
 -1.92045
 -1.70863
 -1.79034
 -1.24845
 -1.08622
 -0.207083
 0.0382342
 0.107287
 -0.132747
 3.71751
 3.68665
 3.48891
 -3.62409
 -3.69249
 -3.30227
 -3.29576
 -10.0512
 -10.0747
 -10.0968
 3.13637
 3.25387
 3.13431
 -1.79358
 -1.59474
 -1.73087
 -1.47477
 -5.08975
 -5.10278
 -4.7382
 -4.86497
 4.46071
 4.53881
 4.48114
 4.44138
 -8.01204
 -8.12159
 -7.93336
 -7.87676
 -5.30535
 -5.09134
 -5.1271
 -4.99293
 -7.48934
 -7.58913
 -7.36587
 -9.66193
 -9.74997
 -10.2006
 -9.90309
 -2.86708
 -2.5164
 -2.8221
 -2.87415
 -9.25528
 -9.14335
 -9.06025
 -8.97323
 -0.60145
 -0.519364
 -0.695208
 -0.391351
 -10.3238
 -4.60656
 -2.43761
 -2.31849
 -2.58077
 -2.23795
 -4.34702
 -4.2649
 -4.01684
 -3.96317
 -6.11074
 -6.19212
 -5.99077
 -5.72984
 -4.382
 -4.26094
 -4.59831
 -4.44541
 -6.59799
 -6.38001
 -6.66384
 -6.61763
 -2.4511
 -2.27346
 -2.37771
 -2.62243
 -2.04941
 -2.13672
 -2.19182
 -2.32093
 -1.17784
 -1.10574
 -1.01195
 -1.33414
 -2.24767
 -2.23523
 -1.98346
 1.49737
 1.45496
 1.49453
 1.32107
 -2.71442
 -5.03297
 -5.40365
 -5.43969
 -5.27033
 -9.78075
 -9.81251
 -9.38653
 -0.343968
 0.0271753
 -0.118484
 -0.0105094
 -3.10839
 -3.47204
 -3.36189
 -4.44297
 -4.3701
 -4.18542
 -4.12815
 -5.15083
 -5.27786
 -5.58165
 -5.67934
 -8.52755
 -8.70761
 -8.92934
 -8.63005
 0.645907
 0.696265
 0.537121
 0.907033
 -3.27221
 -3.08342
 -3.03673
 -2.90971
 -2.23873
 -2.09172
 -1.89913
 -2.23541
 -1.93959
 -1.77463
 -1.72667
 -1.54403
 -2.54353
 -2.44418
 -2.61425
 -2.29689
 -6.1208
 -5.5662
 -6.20777
 -5.8218
 -1.97736
 -1.53889
 -1.70395
 -1.76651
 2.63163
 2.62386
 2.63501
 2.55794
 2.93029
 2.79012
 2.82665
 -2.54173
 -2.59208
 -2.83518
 -2.88348
 -2.70641
 -2.79181
 -2.9247
 -3.03012
 -2.18128
 -1.93919
 -2.34649
 -2.33718
 -9.394
 -9.45449
 -9.00483
 -9.06751
 -6.18359
 -5.87845
 -5.84038
 -6.18855
 0.0322722
 -0.130549
 -0.0881708
 -0.156175
 1.41922
 1.14789
 1.19493
 1.53385
 -8.27623
 -8.17161
 -7.96974
 -8.28526
 4.12066
 4.2659
 4.2242
 4.01808
 -0.853515
 -1.11776
 -0.966985
 -0.935251
 1.93422
 1.78855
 1.81457
 0.751564
 0.617865
 0.581871
 0.386172
 -5.61914
 -5.54698
 -5.79814
 -5.28875
 0.68572
 1.01246
 0.90002
 0.791391
 2.77528
 2.32862
 2.62906
 4.42474
 4.2485
 4.14049
 4.22582
 -10.7787
 -10.8964
 -11.0236
 -11.3086
 0.374433
 0.541682
 0.406833
 0.308065
 -3.97302
 -3.55909
 -3.63923
 -3.88498
 -9.04233
 -8.83389
 -8.54811
 -8.79493
 -7.14663
 -7.5476
 -7.00191
 -7.22049
 0.168677
 0.113216
 0.289774
 0.180162
 2.13213
 2.36809
 2.56396
 2.30973
 -3.41665
 -3.59735
 -3.28464
 -3.44706
 2.0319
 1.74447
 -1.43298
 -1.02123
 -1.11149
 -1.32093
 -1.72928
 -1.70501
 -1.54213
 -1.81758
 -1.37857
 -1.40186
 -1.26256
 1.48727
 1.4074
 1.48679
 -4.11711
 -4.12539
 -4.23442
 -4.32117
 -3.65968
 -3.61879
 -3.41047
 -3.90239
 0.152963
 -0.134419
 -0.00116247
 0.121959
 -6.34905
 -6.67984
 -6.21294
 -6.35556
 -2.43994
 -2.08212
 -2.2751
 -2.54801
 1.69095
 1.69251
 1.73637
 1.70002
 -0.905991
 -1.11578
 -0.924823
 -3.86066
 -3.84378
 -3.58526
 -3.79804
 -2.79191
 -2.97523
 -3.14578
 -10.6865
 -10.5903
 -10.4892
 -10.4154
 3.18999
 3.29985
 3.16593
 3.4612
 -0.550053
 -0.813694
 -0.786769
 -0.608938
 -0.348387
 -0.290462
 -0.0726663
 -0.361134
 -10.9539
 -10.8549
 -11.2538
 -11.5027
 -6.70699
 -6.87629
 -6.84249
 0.547813
 0.583158
 0.700893
 0.557952
 -6.9315
 -6.55303
 -6.71098
 0.373533
 0.34889
 0.531868
 0.47998
 5.91669
 5.80373
 5.89107
 5.79294
 -9.09163
 -9.21071
 -9.47486
 -9.02438
 1.44477
 1.51657
 1.62079
 1.80561
 -10.3229
 -10.2432
 -10.1894
 -10.2686
 0.869838
 0.591146
 0.810977
 0.680467
 5.81058
 6.02503
 5.85426
 5.84601
 2.53286
 2.74492
 2.55112
 2.45729
 1.33826
 1.17009
 1.01004
 1.37921
 -2.43332
 -2.03802
 1.47999
 1.42717
 1.80117
 1.74876
 -4.15612
 -3.984
 -3.89325
 -3.72046
 -2.11221
 -2.11553
 -1.98471
 -2.36295
 -8.85959
 -8.4442
 -9.12885
 -9.19791
 -8.07608
 -7.92028
 -8.20621
 -8.24638
 -7.30932
 -7.02155
 -7.25218
 -7.0088
 -8.43877
 -8.51236
 -8.5925
 -8.36414
 -5.17454
 -5.09573
 -5.38412
 -5.15714
 -7.45913
 -7.80808
 -7.71315
 -7.57235
 2.97973
 3.2615
 3.29389
 2.95454
 -8.43348
 -8.64777
 -8.56615
 -8.51647
 -1.30814
 -1.09224
 -0.947052
 -1.05688
 -6.60839
 -6.08815
 -6.21237
 -8.14196
 -8.45081
 -8.44544
 -8.3423
 1.33651
 1.59776
 1.61997
 1.52055
 2.58154
 2.64851
 2.75461
 2.70085
 -5.74878
 -5.69779
 -5.52445
 -6.01174
 -1.61706
 -1.5869
 -1.53149
 -1.35762
 -5.19152
 -4.99165
 -5.16584
 -5.09809
 -5.10678
 -5.09548
 -5.68756
 -0.945016
 -0.870057
 -0.65162
 -4.95022
 -5.09096
 -3.27749
 -2.90261
 -10.4284
 -10.6471
 -10.6245
 -10.4488
 -2.95802
 -3.07735
 -2.90879
 -3.23932
 -4.93326
 -4.79828
 -5.1993
 -4.79883
 -3.82888
 -3.99215
 -3.83705
 -4.10125
 -7.43693
 -7.00451
 -7.1561
 -6.95061
 -6.90272
 -1.64025
 -1.70081
 -1.4232
 -1.41839
 1.83292
 1.83219
 1.82993
 1.81552
 -4.99707
 -4.69234
 -5.01888
 -4.83115
 -5.24077
 -5.09043
 -4.97687
 -5.3446
 5.4301
 5.30323
 5.23941
 5.10914
 -2.55133
 -2.80291
 -2.6632
 -2.49023
 -2.34194
 -2.09807
 -1.99298
 -2.23077
 -4.74715
 -4.51701
 1.3775
 1.31915
 1.22417
 1.35167
 -0.432158
 -0.576277
 -0.502456
 -0.353487
 1.0181
 1.1228
 1.2048
 1.18278
 -0.105402
 -0.283336
 -0.249262
 -0.061984
 0.935142
 0.957128
 1.06304
 0.911952
 -6.8275
 -6.65989
 -6.7674
 -6.98897
 -8.46574
 -8.41301
 -8.08219
 -8.29507
 0.243193
 0.360003
 0.503678
 0.241768
 -2.54663
 -2.3092
 -2.53255
 -2.40567
 -7.30284
 -6.93808
 -7.22398
 -7.04838
 -1.45911
 -1.30055
 -1.27562
 -1.6116
 0.283726
 0.0993866
 2.30086
 2.20414
 2.15008
 2.32659
 -2.02365
 -1.93055
 -1.75248
 -1.64341
 -7.47913
 -7.33002
 -7.35768
 -7.747
 -9.87661
 -9.63961
 -9.7223
 -9.90654
 4.89719
 4.89758
 -1.33211
 -1.5733
 -1.64567
 -1.73494
 -0.92905
 -0.55066
 -0.791374
 -0.804264
 -0.616628
 -0.543581
 0.815929
 0.689884
 0.721097
 0.610902
 -2.09079
 -2.33892
 -2.46417
 2.93741
 2.79323
 2.78231
 2.67232
 -8.32454
 -8.57823
 -8.08345
 -8.37173
 -9.62897
 -9.6014
 -9.59646
 -10.9081
 -10.6566
 -10.3592
 -10.6224
 -3.63167
 -4.07342
 -3.92037
 -3.9687
 -2.48269
 -2.83902
 -2.35062
 -2.66023
 -6.50249
 -6.98751
 -7.16038
 -6.87305
 -4.74588
 -4.6933
 -4.99269
 -4.72284
 -4.19825
 -4.47165
 -4.31927
 -2.99304
 -3.04228
 -2.89223
 -3.25563
 -5.71986
 -6.34355
 -6.11698
 -5.78185
 -1.53474
 -1.38284
 -1.53815
 -1.58461
 -2.7389
 -2.66064
 -2.98618
 -2.58306
 -4.94708
 -4.87272
 -4.71505
 -4.9959
 -2.5207
 -2.33365
 -2.25164
 -2.55931
 5.74533
 5.80044
 5.60987
 5.61758
 0.647235
 0.746509
 0.751055
 0.91168
 -5.67782
 -5.66963
 -6.03183
 -6.0741
 0.740238
 0.696795
 0.99669
 1.08614
 1.40661
 1.71632
 1.39838
 1.19885
 -7.79108
 -7.7233
 -7.94236
 -7.50637
 -7.37966
 -7.02857
 -7.35445
 -7.2639
 -8.60163
 -8.2936
 -8.59615
 -8.69487
 -6.31584
 -6.30306
 -6.60345
 -6.47678
 -1.21309
 -1.15085
 -0.985002
 -1.15063
 0.565478
 0.654024
 0.457079
 0.701826
 -5.19695
 -4.72498
 -5.22943
 -4.84088
 0.451035
 0.371098
 0.344178
 0.354353
 2.2353
 2.17995
 2.11288
 2.01214
 -2.23954
 -2.46483
 -2.27847
 -2.49117
 -0.676422
 -0.508194
 -0.318378
 -0.901488
 -0.992861
 -1.32522
 -1.05858
 2.05009
 2.18719
 2.37964
 2.19365
 0.322103
 0.360641
 0.463064
 0.404954
 -5.46652
 -5.66211
 -5.4933
 -5.6156
 -2.89947
 -3.14503
 -3.2015
 -11.0095
 -10.6835
 -10.745
 -10.9207
 -9.29995
 -9.60762
 -9.85403
 -9.5061
 -0.616282
 -0.817483
 -0.510235
 -0.80586
 -3.48794
 -3.71631
 1.64532
 1.66503
 1.90826
 1.56183
 -2.94908
 -2.67101
 -2.55106
 -2.78841
 -8.65062
 -8.75458
 -8.42824
 -8.71045
 0.52884
 0.474162
 0.391046
 -1.39535
 -1.45887
 -1.5049
 -1.16534
 -0.750624
 -1.09931
 -1.05799
 -0.982481
 -2.33891
 -2.62635
 -2.66695
 -2.28929
 -2.01418
 -2.17662
 -2.3728
 -2.14241
 -2.93389
 -3.09975
 -2.88704
 -3.17544
 -1.73396
 -1.9352
 -6.71638
 -6.52407
 -7.04486
 -6.64945
 -1.94803
 -1.68612
 -1.77929
 -1.94875
 -4.22738
 -3.78969
 -3.97112
 -1.85278
 -2.11562
 -1.94139
 -2.09338
 -4.17409
 -4.01923
 -3.86157
 -4.08022
 0.772946
 1.01385
 0.830476
 1.13538
 -1.63099
 -1.58165
 -1.89205
 -3.54035
 -3.58628
 -3.93367
 -3.36827
 -2.09287
 -2.04203
 -2.23679
 1.03263
 0.95146
 1.16622
 -4.51482
 -4.47077
 -4.45746
 -4.13296
 -2.44227
 -2.64991
 -2.68559
 4.88589
 4.82611
 4.74583
 5.05438
 -4.70875
 -4.49269
 -4.3407
 -4.74684
 -0.877674
 -0.573668
 -0.614298
 -0.535708
 -7.18365
 -7.18421
 -7.30827
 -7.49272
 -7.86196
 -7.62585
 -8.03486
 -7.96808
 1.33296
 1.0206
 1.40725
 1.34626
 -3.33032
 -3.12554
 -2.96238
 -0.194083
 0.0720958
 -0.113582
 -0.105088
 -8.11268
 -7.61952
 -7.89296
 -2.67191
 -2.92208
 -2.74722
 -3.00764
 -5.28932
 -5.42017
 -5.41516
 -5.33364
 -8.85087
 -8.96266
 -9.10213
 -8.81944
 6.4364
 6.56396
 6.53413
 6.4362
 0.057686
 0.00477824
 -0.143852
 0.0799825
 -3.2752
 -3.78544
 -3.59304
 -3.71042
 2.34167
 2.51154
 2.57044
 -2.44639
 -2.69133
 -2.61637
 -2.3855
 -9.46353
 -4.83664
 -4.61567
 -4.26278
 -4.58364
 -7.61681
 -7.60628
 -7.66531
 -7.79837
 -6.40984
 -6.30364
 -6.23659
 -6.47881
 -3.37096
 -3.26695
 -2.87079
 -2.53453
 -2.53881
 -2.55295
 4.4894
 4.29982
 4.47653
 4.36401
 -0.379192
 -0.276238
 -0.171176
 -0.00124304
 -0.0157185
 -0.204502
 -0.0432653
 -9.49989
 -10.0699
 -9.52524
 -9.474
 -2.33258
 -2.31359
 -2.63646
 -2.6237
 -3.41987
 -3.29602
 -3.06203
 -3.25951
 -8.05296
 -7.81059
 -8.2282
 -7.82227
 -2.69148
 -2.6197
 -2.93941
 -2.68334
 3.08064
 3.01259
 3.21624
 3.14568
 -2.03562
 -1.94165
 -2.11036
 -1.99681
 0.138829
 0.12766
 0.0882873
 -0.0764999
 0.60689
 0.79702
 0.767683
 0.666658
 1.96787
 1.89121
 1.97693
 1.9832
 3.50466
 3.60012
 3.65013
 3.37482
 -10.8695
 -10.6137
 -10.737
 -10.6358
 4.08441
 4.01018
 4.20325
 3.90894
 -2.33344
 -2.15335
 -2.34594
 -2.09369
 -10.4568
 -10.4411
 -10.1964
 -10.2594
 -1.13401
 -1.07644
 -1.2427
 -1.32805
 1.86404
 -8.7431
 -8.55105
 -8.61694
 -8.98863
 0.847976
 3.18469
 2.92938
 2.89856
 3.13717
 -3.78878
 -4.15485
 -6.62192
 -6.23246
 -6.7086
 -6.30688
 -7.64693
 -7.61828
 -7.84055
 -7.79814
 -11.1475
 -10.8191
 -11.1843
 -6.6935
 -7.09435
 -7.05736
 -7.01271
 -1.30041
 -9.93417
 -5.1593
 -5.06588
 -4.95525
 -9.625
 -9.86966
 -9.91743
 -9.80572
 -1.26704
 -1.24651
 -1.24237
 -1.06236
 0.0459844
 -0.0338827
 0.172399
 0.261219
 -4.99724
 -4.78743
 -4.88488
 -5.32835
 -9.51605
 -9.77438
 -9.41475
 -9.37666
 -8.36454
 -8.27352
 -8.45634
 -8.24545
 -4.22406
 -4.70401
 -4.6464
 3.56261
 3.69862
 3.29409
 3.56264
 6.26113
 6.06753
 6.17213
 6.08266
 2.11235
 2.38714
 2.42725
 2.27665
 -3.11092
 -3.36588
 -3.06624
 2.94112
 2.7395
 2.81961
 2.98098
 -7.09036
 -6.99141
 -7.37095
 -7.11643
 -7.16697
 -6.96694
 -7.11172
 0.779901
 0.877753
 -5.49625
 -5.7152
 -11.9642
 -11.7497
 -12.0275
 -10.773
 -10.9152
 -10.8535
 -11.02
 -1.7418
 -1.50579
 -1.90013
 -1.71056
 -0.29477
 -0.24158
 -0.117833
 -0.409528
 -2.12878
 -2.12252
 -2.40294
 -2.3306
 -10.2057
 -10.1724
 -10.2672
 -10.1815
 -5.42784
 -5.59685
 -5.4929
 -5.29628
 1.9864
 2.00434
 1.98749
 1.82074
 -5.59102
 -5.70508
 -5.46728
 -5.80552
 -3.48145
 -3.54297
 -3.27697
 -3.61126
 -4.99583
 -5.20911
 -5.18104
 6.7643
 6.72442
 6.7022
 -0.290869
 -0.149831
 -1.29345
 -1.30047
 -1.06313
 -1.43784
 -6.29996
 -6.64125
 -6.40194
 -6.29752
 -5.5914
 -5.7215
 -6.10166
 -5.81743
 -5.83279
 -5.6636
 -6.19344
 4.62871
 4.64055
 2.10283
 2.13504
 2.00808
 2.0837
 -3.47907
 4.77794
 4.96629
 4.88996
 4.879
 0.216052
 -0.075686
 0.146866
 0.185531
 -1.61249
 -1.4768
 3.44024
 3.06859
 3.10199
 3.29554
 -10.8825
 -11.2475
 -11.1201
 -10.9605
 -9.56933
 -9.69326
 -9.54504
 -9.96416
 1.12535
 0.69104
 1.01692
 0.792521
 -0.257047
 -0.116962
 -0.593697
 -0.494726
 -0.303365
 -0.162236
 -0.303732
 -6.03323
 -6.23647
 -5.77667
 -6.0414
 1.87422
 1.71924
 1.61582
 1.58779
 -2.28898
 -2.39168
 -2.24745
 -4.48808
 -4.56719
 -4.69657
 -4.94086
 -0.157614
 -0.210461
 -0.37358
 -0.262733
 0.597604
 0.363287
 0.212124
 0.474898
 0.637973
 0.806237
 0.759395
 0.565616
 -1.12626
 -1.21896
 -1.44994
 -1.23585
 -4.65065
 -4.42876
 0.152563
 0.105719
 0.039029
 0.252143
 -11.0741
 -10.5148
 -10.5988
 -10.6296
 0.970718
 0.840864
 0.962382
 0.810535
 2.7919
 2.85506
 2.61495
 2.72999
 -3.5865
 -3.62784
 3.98914
 3.94448
 4.12742
 3.89085
 -0.715651
 -0.898619
 -0.600736
 -9.41228
 -9.31688
 -9.54241
 -9.58318
 3.7257
 3.82204
 3.75166
 0.715443
 0.73123
 0.510075
 0.592392
 3.3086
 0.775013
 0.882828
 0.833845
 1.07723
 -2.63007
 -2.4409
 -2.66613
 -2.6349
 -1.4903
 -1.55118
 -1.69833
 -1.47283
 -9.8369
 -10.2325
 -3.06699
 -3.23387
 -3.17234
 -3.07624
 0.937451
 1.21819
 0.895799
 1.23778
 -0.4177
 -0.939815
 -0.663528
 -0.437951
 -8.63989
 -8.39742
 -8.41571
 -8.4472
 -1.54564
 -1.66442
 -1.92709
 -1.8246
 -3.59456
 -7.53464
 -7.7187
 -7.42129
 -0.506187
 -0.571658
 -0.315827
 -0.66398
 -5.40547
 -5.30485
 -5.46012
 -5.09658
 -0.932019
 -0.734087
 -0.753741
 -1.03104
 -9.77445
 -9.43277
 -9.34394
 -9.57857
 -11.8199
 -11.9755
 -11.7452
 0.693292
 0.530039
 0.300646
 0.461089
 -4.23375
 -4.35918
 -4.00901
 -4.1406
 -5.24605
 -5.34702
 -5.54684
 -5.68331
 -0.161478
 -0.189162
 0.622508
 0.720892
 0.803918
 0.538246
 -1.07083
 -1.47885
 -3.91834
 -4.02896
 -3.87737
 -3.77258
 -4.55096
 -4.66581
 -4.90459
 -4.5458
 -1.29479
 -1.42778
 -1.63666
 -1.49604
 -3.6224
 -3.64851
 -3.65913
 -8.20202
 -7.81323
 -7.70011
 -7.89846
 -6.52237
 -6.41378
 -6.6083
 -1.24468
 -1.62479
 -1.21935
 -1.44568
 0.406656
 0.709544
 0.851582
 0.516068
 -5.30348
 -4.94113
 -4.96939
 -5.19471
 -1.53377
 -1.50514
 -1.21353
 1.82305
 1.85116
 1.81321
 1.84626
 -0.173542
 -0.147402
 -0.258071
 -0.344002
 -6.8737
 -6.76026
 -6.57176
 -10.9268
 -10.551
 -10.6212
 -5.01255
 -5.1631
 -5.18838
 -0.156122
 0.0752572
 -0.24775
 -0.0141269
 -10.6933
 -10.7676
 -10.6811
 -10.8787
 -4.55307
 -4.37853
 -4.5392
 -4.7631
 -7.37934
 -7.53149
 -7.98661
 -7.91365
 -6.92496
 -7.1047
 -6.93633
 -6.96968
 2.67344
 2.86304
 2.84896
 -1.10808
 -1.17325
 -0.991318
 -1.19894
 -7.33287
 -7.47247
 -7.18422
 -7.19275
 -1.89815
 -2.02369
 -2.0581
 -2.35086
 -5.60558
 -5.60891
 -5.54223
 -5.19858
 -8.98769
 -9.22299
 2.04027
 1.87183
 1.90374
 1.79909
 -6.2161
 -6.02125
 -6.47932
 -6.12896
 -1.11206
 -1.00415
 -0.915359
 -1.18633
 -5.03325
 -4.6381
 -10.3489
 -10.3351
 -10.0361
 -10.457
 -7.33698
 -7.75569
 -7.20035
 -7.90922
 -10.9632
 -11.0159
 -11.2731
 -11.4122
 -6.01556
 -5.97843
 -6.15162
 -5.0786
 -5.48507
 -5.42431
 -5.29834
 -5.48607
 -5.26593
 -5.37281
 -5.0343
 0.225413
 0.1555
 0.382409
 0.448938
 3.12846
 3.2214
 2.98422
 -2.52687
 -2.55424
 -2.57982
 -8.11081
 -7.77493
 -7.97185
 -7.69534
 -1.3473
 -1.52306
 -1.75324
 -1.5384
 0.966886
 1.2505
 1.19435
 0.950668
 -2.64544
 -2.37795
 -2.22519
 -2.23901
 -0.859898
 -1.20886
 -0.877012
 -10.383
 -10.504
 -10.0851
 -10.0795
 1.79289
 1.71579
 1.24297
 1.11241
 1.09494
 -5.61587
 -5.74069
 -5.41922
 -5.93199
 -2.26854
 -2.58568
 -2.56578
 -2.46552
 1.3192
 1.27442
 1.09116
 1.28051
 -3.46555
 -2.96369
 -2.99652
 -3.29487
 -0.553417
 -0.366202
 -0.694767
 -0.683808
 -8.54356
 -8.65946
 -9.14343
 -0.188202
 -0.152194
 -0.355659
 -0.335614
 -3.34923
 -3.56409
 1.45215
 1.17705
 1.26879
 1.40614
 1.08806
 1.30277
 1.19883
 1.28721
 -8.95669
 -8.76612
 0.745432
 0.525637
 0.650262
 0.836608
 -2.67273
 -2.40276
 -2.54692
 -2.68639
 -0.949331
 2.85572
 3.05013
 2.98775
 -3.65721
 -3.59025
 -3.67394
 -3.43606
 -9.11202
 -9.14545
 -8.90811
 -9.2876
 2.64023
 2.59532
 2.52072
 2.71889
 1.11317
 0.939082
 1.16482
 1.12175
 -5.10153
 -5.24573
 -5.25558
 2.38778
 2.37808
 2.24114
 2.19106
 -10.9919
 -10.6744
 -10.845
 -11.0622
 1.98187
 1.83602
 1.7808
 2.07621
 -4.66716
 -4.3488
 -4.5807
 -4.89453
 -1.03285
 -1.20544
 -1.14005
 -0.965167
 1.28111
 1.196
 1.24625
 -0.670948
 -0.961623
 -0.653615
 -0.890639
 1.47051
 1.6748
 1.53726
 1.5387
 0.93625
 1.09281
 0.986695
 -6.37643
 -6.07021
 -6.44907
 -6.08218
 -5.76453
 -2.1794
 -2.74138
 -2.37442
 -2.3894
 -9.50491
 -9.39137
 -9.16942
 -9.39366
 -3.67456
 -4.0057
 -3.49526
 -3.89022
 -4.68125
 -4.90992
 -4.67146
 -4.59063
 1.16508
 1.26162
 1.02063
 0.658994
 0.735294
 -4.42555
 -4.05329
 -4.32108
 -4.48664
 -9.21529
 -9.68791
 -3.06367
 -3.14488
 -2.8663
 -3.20681
 1.48791
 1.53984
 1.3496
 -8.38935
 -8.61377
 -8.29744
 -8.41723
 -3.02619
 -2.64463
 -2.77402
 -2.84177
 1.26792
 1.38782
 1.26382
 1.17633
 -2.31371
 -2.27288
 -2.67394
 -2.38793
 -4.43906
 -4.95514
 2.36846
 2.47461
 2.42036
 2.53326
 0.77915
 0.393554
 0.233507
 0.35529
 0.165899
 0.228343
 0.290613
 0.577298
 0.492649
 0.337566
 -2.85973
 -2.82727
 -2.77815
 -4.13171
 -4.0087
 -3.89452
 -3.7623
 0.293742
 0.326424
 0.27883
 0.316374
 -1.0834
 -1.03406
 -3.4326
 -3.22357
 -3.35096
 -3.13939
 -3.42847
 -3.46016
 -2.18207
 -2.48865
 -2.53548
 -2.25188
 3.94486
 3.70219
 3.74609
 3.63861
 -3.32475
 1.46958
 1.26852
 1.41117
 1.46199
 -10.2246
 -10.5288
 -10.1917
 -5.92535
 -5.84446
 -5.64032
 -5.97243
 -2.16461
 -2.3109
 -2.20478
 -1.81197
 -2.86264
 -3.08749
 -2.74544
 0.786214
 0.607168
 0.699081
 0.828203
 -8.72689
 -8.99538
 -8.39719
 -8.81821
 -4.60806
 -4.50038
 -4.75508
 -4.65573
 -8.72482
 -8.85211
 -8.33381
 -8.613
 1.82549
 1.8002
 1.9936
 1.9816
 0.304514
 0.121688
 -6.23153
 -6.10614
 -5.9501
 -6.15323
 -9.32006
 -9.34749
 -9.42112
 -9.2127
 -11.8378
 -11.9802
 -11.7058
 -12.0594
 -8.99797
 -8.73299
 -9.00349
 -4.48745
 -4.74797
 -4.43187
 -4.62316
 -8.80868
 -8.95543
 -9.06682
 -8.97555
 1.93653
 1.75025
 1.56538
 1.78599
 -7.46445
 -7.70934
 -7.76751
 -4.51317
 -4.42002
 -4.3343
 -4.32617
 1.51095
 1.60072
 1.50754
 1.66089
 -5.11009
 -5.4346
 -5.24349
 -5.26414
 -3.77908
 -4.00791
 -4.10406
 -3.818
 -0.0454454
 -0.151868
 -0.285179
 -0.441488
 2.11063
 2.07147
 2.32326
 2.30803
 -1.61218
 -1.69495
 -1.91943
 -1.66208
 4.365
 4.32151
 4.04689
 4.18545
 1.0171
 0.867027
 1.03967
 0.526521
 0.768028
 0.776658
 0.840143
 5.14408
 5.0785
 5.27717
 5.05499
 -8.31663
 -8.08672
 -8.12136
 -6.98842
 -7.03805
 -7.31762
 -7.25692
 0.323918
 -0.0447978
 0.0731831
 3.06649
 3.00119
 3.11299
 2.03284
 2.2279
 2.02583
 2.00368
 0.203147
 0.235511
 0.035145
 0.398847
 -4.65713
 -5.08227
 -4.86544
 -4.80895
 3.8729
 3.88483
 3.7472
 3.95904
 -4.05471
 -3.58716
 -3.5363
 -3.92707
 -6.97576
 -7.20047
 -6.72542
 -6.97975
 -3.43078
 -3.40504
 -3.8523
 -3.64599
 -1.615
 -1.42802
 -1.81638
 1.33848
 1.36095
 1.3346
 1.20635
 -8.83257
 -9.09802
 -9.20943
 -9.08558
 -7.47649
 -7.66471
 -7.4398
 -7.23392
 0.0857791
 -0.104374
 0.0165618
 0.191011
 -9.58996
 -9.7672
 -9.94082
 -9.13133
 -9.63135
 -9.24357
 -9.31303
 -9.63992
 -9.66682
 -9.39963
 -9.49224
 3.56294
 3.61683
 5.16546
 5.12689
 5.23865
 5.00614
 -4.33471
 -4.20326
 -3.99927
 -2.2552
 -2.0656
 -2.48179
 -2.12897
 -2.74666
 -3.05284
 -2.95774
 -2.78376
 6.63925
 -1.39566
 -4.02188
 -4.30508
 -7.39805
 -7.58064
 -7.5019
 -7.48195
 3.06501
 -0.747005
 -0.974098
 -0.741251
 -12.1587
 -11.9894
 -12.0008
 -12.0048
 -2.82472
 -2.61884
 -2.8296
 -3.07126
 -9.87715
 -9.69346
 -9.89736
 -9.57744
 -1.60732
 -1.89688
 -1.38716
 -0.883367
 -1.18945
 -0.996718
 -8.32793
 -8.41515
 -8.03514
 -8.37123
 -4.02578
 -3.86091
 -3.65354
 -3.52261
 1.85793
 2.01112
 1.71106
 1.7715
 -7.28129
 -7.82803
 -7.62192
 -9.90504
 -10.4018
 -10.4059
 -9.92488
 -7.25005
 -7.16754
 -6.92089
 -7.20273
 0.324517
 0.353875
 -0.0641869
 0.376861
 -0.18179
 -0.00988174
 -0.0437998
 -0.0316286
 -8.52265
 -8.75788
 -8.73836
 -8.78162
 -1.32024
 -1.35653
 -1.10098
 -6.47326
 -6.50742
 -6.39165
 -6.20823
 1.40176
 1.19225
 1.51833
 1.49043
 -4.31951
 -4.47562
 -4.0659
 -4.23473
 1.60274
 1.44965
 1.59737
 1.58225
 -3.30004
 -3.49605
 -3.25182
 -3.3948
 -6.83383
 -6.8636
 -7.15864
 -6.60749
 2.04847
 2.1162
 1.95566
 -2.99663
 -3.24939
 -7.80402
 -7.65677
 -7.6209
 -7.41434
 -1.32744
 -1.1668
 -1.13981
 1.79146
 1.99348
 2.04773
 1.9482
 -5.13031
 -5.24758
 -5.10368
 -5.36198
 -4.48175
 -4.44487
 -4.92214
 -4.56748
 5.96536
 5.96843
 5.79046
 5.91152
 -2.62267
 -2.3102
 -2.49838
 4.63833
 4.48183
 4.42561
 -2.79217
 -2.73227
 -2.57842
 -2.72805
 -2.42048
 1.7778
 1.72049
 2.0536
 1.93866
 -1.71131
 -1.96564
 -2.06218
 -7.40292
 -7.41267
 -7.40082
 -7.25675
 -2.073
 -2.20421
 -2.35748
 -2.35295
 -2.37398
 -2.26903
 -2.21314
 -11.6649
 -11.5187
 -11.472
 -11.2443
 0.622304
 0.164903
 0.271329
 0.41208
 2.35787
 2.34891
 2.2627
 2.2723
 -0.770087
 -0.684317
 -1.07976
 -0.804499
 -8.12152
 -8.25961
 -8.33583
 -7.86633
 6.07515
 5.92094
 6.05179
 5.83297
 -6.40949
 -6.06237
 -6.27262
 -6.29253
 2.38879
 2.53469
 2.43103
 2.46067
 -7.51107
 -6.78716
 -6.98917
 -7.31616
 -6.48782
 -6.30868
 -6.1396
 -6.3473
 -6.39588
 -6.55062
 0.248671
 0.40557
 0.421875
 0.28908
 -8.84041
 -8.88313
 -8.85751
 -6.16922
 -5.71182
 -5.90386
 -6.25182
 0.703001
 0.45744
 0.620875
 0.845307
 -0.698456
 -0.596896
 -0.914944
 6.77814
 6.77303
 6.83418
 6.77556
 -2.37736
 -2.02487
 -2.41527
 -8.88673
 -9.11084
 -8.79541
 -8.71025
 -6.92582
 -6.69258
 -8.38684
 -8.73864
 -8.96133
 -8.52576
 -5.67975
 -5.7081
 2.52784
 2.4745
 2.72165
 2.33037
 -6.56532
 -6.50812
 -6.53798
 -6.18436
 -2.81556
 -2.97166
 -0.529601
 -0.713611
 -0.647526
 -0.54823
 -6.99997
 -7.17434
 -7.25401
 -7.15569
 0.126777
 0.550187
 0.525163
 0.213537
 -8.60759
 -8.58786
 -8.92189
 -9.32388
 -3.80841
 -3.88099
 -3.55953
 2.80236
 2.8983
 2.9283
 2.79797
 -4.56681
 -4.51605
 -4.38364
 -4.20624
 0.614982
 0.843785
 0.892223
 0.994258
 0.366848
 0.651538
 0.459504
 6.2429
 6.25796
 6.24581
 6.14618
 2.07093
 1.74667
 1.66613
 1.95753
 -6.9423
 -6.78508
 -7.10596
 -6.76259
 -2.34581
 -2.43595
 -2.15203
 -0.97397
 1.32779
 1.20796
 1.28701
 1.1335
 -1.15972
 -0.943529
 -1.1403
 -1.23952
 -5.61493
 -6.07402
 -6.12273
 -5.70198
 1.45347
 1.4463
 1.03497
 3.11629
 -3.72429
 -3.84684
 -3.51981
 -3.9931
 1.23235
 0.921428
 4.86361
 5.00855
 1.31396
 1.13326
 1.31328
 1.56742
 -5.67063
 -5.93111
 -7.86937
 -7.84587
 -7.96568
 -7.79503
 -0.53872
 -0.764616
 -0.782427
 -0.755503
 -9.98248
 -10.0593
 -10.2969
 -10.0814
 -0.530297
 -0.572948
 -0.0798074
 -0.0984321
 -6.34793
 -6.39389
 -6.20433
 -5.84007
 0.679706
 0.666363
 0.547602
 0.541357
 -6.53247
 -6.71218
 -6.31787
 -6.56567
 -1.43337
 -1.67754
 -9.28555
 -9.10969
 -5.13517
 -5.37188
 -5.03446
 -5.4464
 -5.09982
 -4.95539
 -4.97894
 -5.31832
 -3.23717
 -3.0628
 -3.32968
 -3.3312
 -6.48367
 -6.11769
 -6.54913
 -6.77926
 0.773637
 1.00382
 0.868212
 0.882816
 -9.03646
 -8.8847
 -8.86308
 -9.42818
 -9.58687
 -9.26762
 -9.4793
 1.52998
 1.27902
 1.28634
 1.40272
 -5.56509
 -5.21021
 -5.25761
 -5.42252
 1.59205
 1.38413
 1.36741
 1.16559
 -2.86886
 -2.06324
 -2.43575
 -2.44177
 -2.09285
 -7.43403
 -7.47861
 -7.46983
 -7.10219
 4.30844
 4.46026
 4.3612
 4.17686
 -5.38835
 -5.56885
 -5.7879
 -5.51226
 -2.65704
 -2.90801
 -2.37355
 -2.58181
 -5.8031
 -5.56823
 -5.52242
 -5.49803
 -4.79084
 -11.6212
 -11.4588
 -11.0387
 -11.2369
 -6.76803
 -6.80321
 -6.33856
 -6.43902
 4.84741
 4.75898
 4.61846
 4.87582
 -1.40502
 -1.11689
 -0.995569
 -1.2405
 -0.144857
 -2.8559
 -2.84845
 -2.92958
 -3.152
 -8.57226
 -8.5758
 -8.24616
 -8.09445
 -7.50766
 -7.44386
 -7.8228
 -8.52071
 -7.83188
 -8.15461
 -8.01565
 6.02179
 5.93941
 -6.3607
 -6.28474
 -6.27772
 0.085393
 0.0951626
 0.167826
 -0.114101
 -5.8935
 -5.74132
 -5.92117
 -5.64867
 -3.23725
 -5.20698
 -4.89323
 -5.21274
 -5.13702
 -9.34063
 -8.7632
 -8.94477
 -9.3021
 -5.11479
 -5.34032
 -5.72726
 -5.18721
 -1.2942
 -1.39826
 -1.02527
 -1.59421
 1.56392
 1.52216
 1.63079
 1.47721
 -11.1696
 -10.8035
 -11.2358
 -11.1128
 -5.77729
 -5.64883
 -5.89384
 -5.5252
 -10.7506
 -10.6156
 -10.6669
 -10.8855
 0.0197335
 0.367247
 0.0200409
 -0.0262663
 -3.14062
 -2.99605
 -9.28171
 -9.7564
 -9.25891
 -9.49245
 -3.1841
 -3.25313
 -3.24658
 -3.53211
 -2.19219
 -2.49595
 -3.07798
 -3.1671
 -3.38294
 -3.06748
 -7.71227
 -7.69486
 -7.57492
 -7.94705
 -0.553013
 -0.242951
 -0.106832
 -0.380512
 2.69473
 2.52547
 2.66998
 2.67195
 1.88065
 1.95461
 1.95781
 1.97093
 -0.318356
 -0.471391
 -0.491785
 -0.265255
 -1.55546
 -1.20054
 -1.43961
 -1.83671
 -1.43804
 -1.63883
 -1.73936
 -2.75774
 -2.58379
 -2.47164
 -2.71455
 2.77748
 2.81236
 2.72882
 -1.09705
 -0.911868
 -1.23337
 -1.17018
 -3.24021
 -3.52297
 -3.48543
 -3.13089
 0.31742
 0.569179
 0.213341
 0.582971
 -0.255445
 -0.470623
 -0.422734
 -0.397292
 -3.62446
 -3.62749
 -3.8451
 -4.05267
 -2.47683
 -2.23096
 -2.45434
 -2.39445
 -5.40555
 -5.25783
 -5.36531
 -5.24001
 2.01061
 1.94642
 1.86961
 -7.16636
 -6.97865
 -7.38494
 -7.03844
 0.301893
 0.0727025
 0.25446
 0.418985
 -1.57705
 -1.44936
 -1.31492
 -1.66788
 -2.06784
 -2.31552
 -2.37961
 -4.18126
 -4.17281
 -4.27876
 -4.49801
 -4.97623
 -4.99973
 -5.20987
 -4.83652
 -5.44456
 -5.5457
 -5.775
 -7.8926
 -7.95726
 -8.00235
 -4.90604
 -4.76872
 -4.56224
 -4.74035
 -8.08043
 -8.22621
 -7.83577
 -8.91595
 -8.93512
 -8.85403
 -8.57516
 -2.23945
 -1.73744
 -2.03417
 -1.89221
 -0.0841676
 0.0895126
 -0.152233
 0.0602974
 0.908397
 -7.88117
 -7.74639
 -8.2709
 -7.8266
 -8.07818
 -7.49027
 6.36187
 6.44451
 6.35038
 6.27847
 -6.43276
 -6.16976
 -1.5673
 -1.34977
 -1.66656
 -10.7273
 -11.0171
 -4.268
 -3.83627
 -3.96532
 -4.04946
 -1.36197
 -1.50103
 -1.50735
 -6.52982
 -7.11017
 -6.80277
 -6.96082
 -0.0979906
 -0.164683
 0.011716
 -0.270588
 5.22895
 5.06802
 5.10924
 5.28212
 -3.84131
 -3.89688
 -3.77704
 -4.14485
 -7.61722
 -8.22402
 -7.669
 -6.87695
 -6.83379
 -6.93168
 -6.66341
 0.448946
 0.796046
 0.736293
 0.937333
 0.34786
 0.171857
 1.33002
 1.13764
 1.39785
 -10.7443
 -10.5001
 -7.48414
 -7.13541
 -7.50609
 -7.10156
 -3.0533
 -3.42438
 -3.35719
 -6.21891
 -5.85601
 -6.50545
 -6.47844
 0.298329
 0.672798
 0.603921
 0.424727
 -2.51432
 -2.48056
 -2.74795
 -2.80657
 -2.38927
 -2.59908
 -2.62679
 -2.38509
 0.745972
 0.633883
 0.756509
 0.155519
 0.295706
 0.180263
 0.212292
 -11.8627
 -12.1176
 -11.968
 -12.2646
 2.26682
 2.54895
 -8.66898
 -8.88629
 -8.81746
 -8.62656
 -1.65622
 -1.9246
 -1.80488
 -1.66751
 -3.22568
 -3.43021
 -3.4194
 -3.4588
 1.92038
 1.75625
 -2.81401
 -2.61626
 -2.60651
 -2.42743
 -1.57637
 -1.46882
 -1.39233
 -1.66642
 -7.48525
 -7.44719
 -7.33312
 -7.53566
 -2.08933
 -2.30575
 -2.34588
 -1.97162
 0.0619299
 0.0394445
 -4.33659
 -4.34488
 -4.17277
 -4.40922
 -5.74003
 -5.6311
 -5.88691
 -3.07594
 -3.37249
 -3.26541
 -3.43437
 1.11241
 0.977555
 1.17545
 0.853234
 5.45283
 5.27407
 5.30063
 5.47537
 -2.23289
 -2.07658
 -2.31208
 -2.61941
 -3.53389
 -3.9132
 -3.60836
 -3.56026
 -1.25386
 -1.40651
 -1.10998
 -1.16999
 -0.333388
 -0.186871
 -0.374734
 -0.492751
 -7.60206
 -7.90137
 -4.40747
 -4.25175
 -4.12862
 3.93018
 4.0144
 4.12498
 3.89028
 0.670567
 0.868946
 0.544493
 0.962626
 -3.03702
 -3.11878
 -2.95861
 -2.8411
 -7.59415
 -7.73216
 -7.70627
 -1.76386
 -1.6438
 -1.33324
 -1.32687
 0.227968
 -0.100691
 0.017475
 0.243691
 -6.13747
 -5.74599
 -5.73105
 -5.94926
 -4.14512
 -4.05707
 -3.93929
 -3.96065
 -7.0154
 -7.07171
 -7.0341
 -6.58236
 -6.62793
 -6.64218
 -6.62728
 -0.950558
 -1.02601
 -0.802119
 -0.706961
 -2.01471
 -1.91821
 -2.16088
 5.16831
 5.13561
 5.16147
 5.27758
 0.11533
 0.0945675
 2.52198
 2.67345
 2.45151
 2.30531
 0.875615
 1.75045
 -8.38521
 -0.0377244
 0.228398
 0.027622
 0.342176
 -11.1165
 -4.41193
 -4.15827
 -4.40332
 -4.02557
 0.0163177
 -0.214231
 -0.0872085
 -1.00441
 -1.23429
 -1.24034
 -7.22629
 -7.27646
 -6.85698
 -7.22998
 -7.13731
 -6.95648
 -7.18704
 -6.94583
 1.38574
 1.68705
 1.69599
 1.47967
 -9.56204
 -9.61121
 -9.79736
 -9.3834
 -2.56001
 -2.3078
 -2.07301
 -7.05327
 -7.28158
 -7.15222
 -3.53023
 -3.27056
 -3.3693
 -3.5847
 -0.0514209
 -0.187491
 0.117994
 0.0250967
 -3.59105
 -4.01663
 -3.60559
 -0.346995
 -0.440186
 -0.445933
 -0.168569
 -1.67401
 -2.05431
 -7.41541
 -7.64532
 -7.72098
 -8.00976
 -8.43424
 -8.84708
 -8.60718
 -8.51616
 0.827011
 0.590973
 0.904687
 0.683752
 -5.82242
 -5.39262
 -5.6184
 -5.92564
 -4.21004
 -3.76227
 -4.11679
 -4.349
 -1.24069
 -0.99692
 -1.36063
 -1.19211
 -8.00066
 -7.82864
 -7.72875
 -7.53878
 -1.82698
 -1.56195
 -1.99098
 -1.85162
 -2.5612
 -2.362
 -2.35353
 -2.7972
 -1.78452
 -1.6069
 -1.84326
 -1.87686
 0.589382
 0.33
 1.08647
 0.914439
 0.746616
 1.03734
 2.85876
 3.14927
 2.92868
 2.85569
 -4.37796
 -4.35365
 -4.27298
 -4.62488
 -3.87996
 -3.6171
 -3.59608
 -9.84264
 -9.89894
 -9.94812
 -9.90645
 -10.6948
 -10.8944
 -10.5589
 -8.88567
 -9.05335
 -8.57807
 -3.53748
 -3.8792
 -4.08673
 -3.65877
 -5.29717
 -5.48312
 -5.66968
 -5.13661
 -7.29266
 -7.57613
 -7.37197
 -7.62777
 -0.251915
 0.00394433
 -0.0566345
 -0.215239
 2.37924
 2.20577
 2.08658
 2.09505
 -10.876
 -10.9498
 -10.602
 -11.1947
 0.299372
 0.380521
 0.506036
 0.256244
 -3.16669
 -3.15295
 -3.30626
 -3.08385
 -11.1506
 -11.096
 -10.6677
 -11.4255
 -4.54316
 -4.23604
 -4.64516
 -4.53921
 -1.4336
 -1.31134
 -1.43472
 -1.32511
 0.198939
 0.404035
 0.368799
 1.73769
 1.48049
 1.6363
 1.77667
 1.07615
 1.16909
 1.04876
 1.19231
 1.07078
 1.16466
 0.435614
 0.28244
 0.709968
 -6.84467
 -6.63856
 -6.59505
 -6.55239
 -9.4259
 -9.23705
 -9.29177
 -9.26831
 -4.94559
 -4.82439
 -4.91261
 -4.48709
 -1.97592
 -8.18929
 -8.33317
 -8.29783
 -8.06359
 1.74026
 1.75295
 1.76537
 1.80658
 -10.0961
 -10.2673
 -10.0353
 -10.4584
 -0.888071
 -0.7029
 -1.06511
 -5.64
 1.6468
 1.67733
 1.84244
 0.701108
 0.841229
 0.989912
 0.609576
 -2.94525
 -2.90615
 -2.51422
 -2.79935
 -6.22007
 -6.22022
 -5.98724
 -6.46109
 -1.96452
 -5.55724
 -5.39758
 -5.35488
 -2.10245
 -2.0563
 -2.11757
 -2.40175
 -0.336721
 -0.410327
 -0.210052
 -0.202339
 -1.05041
 -0.729616
 -0.963717
 -1.01509
 -5.69367
 0.476885
 0.43007
 0.325418
 -6.6987
 -6.48397
 -6.79792
 -6.58006
 -7.89521
 -7.77395
 -8.17857
 -7.66985
 -9.2438
 -9.4489
 -9.20599
 -0.290872
 -0.308524
 -0.133286
 -0.312254
 2.07973
 2.22577
 2.09405
 -7.23285
 -7.20513
 -7.87278
 -7.7416
 -7.58746
 -7.56701
 -2.03814
 -2.10317
 -2.28024
 -10.2649
 -10.1787
 -10.4524
 -10.1628
 -7.66867
 -7.57131
 -7.7154
 -7.82059
 -4.58764
 -4.67165
 -4.80526
 -4.88605
 -3.24333
 -3.33204
 -3.14685
 -2.91637
 0.252967
 0.281693
 0.355888
 0.169775
 -7.75731
 -7.76207
 -7.5874
 -8.00878
 -0.474228
 -0.551503
 -0.223182
 -1.06405
 -1.28826
 -1.33836
 -1.39195
 -9.3267
 -9.23097
 -9.68423
 -9.47612
 -5.46477
 -5.50785
 -5.41306
 -5.28478
 -10.5166
 -10.2812
 -10.0043
 -10.3672
 -0.95889
 -1.13063
 -1.24188
 -1.20555
 -3.13001
 -3.21898
 -2.90397
 -3.44025
 -8.21953
 -8.16191
 -8.38932
 -8.26783
 -2.90241
 -3.11148
 -2.79055
 -2.85001
 -10.4836
 -10.8208
 -10.5296
 -0.162184
 -0.0696333
 -0.0346489
 -0.0732536
 -3.7957
 -3.79059
 -3.67477
 -3.50264
 -4.4007
 -4.69836
 -4.45062
 -4.51183
 -2.53643
 -2.38392
 -2.81092
 -2.49287
 -7.81152
 -7.80929
 -8.19845
 -7.93315
 -2.22282
 -1.91544
 -2.1146
 -2.02236
 -4.23643
 -4.15754
 -4.18001
 -3.99479
 1.86624
 1.854
 1.89373
 1.86561
 -6.86543
 -6.92389
 -6.66379
 -6.50673
 1.95577
 1.96102
 1.96593
 0.274206
 0.396725
 0.396816
 0.251331
 1.18377
 1.05508
 0.628492
 0.978114
 -6.21364
 -6.11131
 -6.31658
 -6.51509
 -5.11528
 -5.51184
 -5.18037
 -5.26245
 -0.841839
 -0.60017
 -0.633718
 -0.478116
 -11.4716
 -11.2541
 -11.0197
 5.05952
 5.09813
 -4.21148
 -4.45598
 -4.04669
 -4.19762
 3.34473
 3.54729
 3.77041
 3.58049
 -5.07002
 -5.14029
 -5.47685
 -5.30573
 -1.22361
 -0.466494
 -0.358068
 -0.296299
 -0.148035
 -6.34101
 -6.39699
 -6.4658
 -6.59647
 -8.43557
 -8.24562
 -8.61858
 -8.34462
 1.8564
 1.85681
 -5.66029
 -5.82108
 -6.29159
 -5.77782
 -3.75207
 -3.23034
 -3.82087
 -3.53413
 0.142767
 0.144687
 0.297168
 -0.179163
 -2.226
 -1.95601
 -1.90667
 -2.23629
 -7.39146
 -7.02284
 -7.77876
 -9.5269
 -9.43291
 -9.46694
 -9.44594
 -11.0437
 -11.0351
 -11.1587
 -0.624041
 -0.477893
 -0.520141
 -0.683023
 -8.9146
 -8.70295
 -8.57263
 -8.54268
 1.29272
 1.46952
 1.39785
 1.34922
 -4.90262
 -4.80087
 -4.94811
 -4.56663
 -3.55868
 -3.9111
 -3.63002
 -3.64005
 -9.52842
 -9.54856
 -9.51963
 -9.72169
 -5.31741
 -5.48022
 -5.24738
 -5.05507
 3.88092
 3.98949
 4.03763
 3.88598
 -1.97536
 -1.56815
 -1.93401
 -1.67175
 -0.715327
 -1.03494
 -1.03989
 -0.701364
 -6.15553
 -6.29494
 -5.99002
 -5.7728
 1.00307
 1.16311
 1.22801
 1.21655
 -4.14748
 -3.93589
 -3.93902
 -4.28209
 -0.395871
 -0.220318
 -0.159376
 2.25439
 2.37509
 2.36988
 2.44079
 -4.22317
 -4.5034
 -4.0466
 -4.81424
 -4.78859
 -4.62742
 0.464338
 0.683756
 0.849451
 0.937762
 0.954189
 0.852106
 0.761932
 -8.71832
 6.54663
 6.46136
 6.49007
 6.6228
 -7.71984
 -7.51686
 -7.97059
 -7.68946
 1.54247
 -1.09858
 -1.04342
 -0.993342
 -1.3277
 -0.691839
 -0.519468
 -1.02764
 0.463413
 0.133858
 0.287941
 0.387815
 3.7826
 3.81855
 3.68338
 3.97318
 1.30922
 1.13565
 1.15341
 -3.17744
 -3.02933
 -3.03165
 -0.591518
 -0.495309
 -11.8815
 -11.523
 -11.5125
 1.18293
 0.969241
 1.27376
 -0.950277
 -1.15232
 -1.26056
 -8.90353
 -9.21318
 -9.19978
 -6.40998
 -6.42385
 -6.71484
 -6.45435
 0.278923
 0.159788
 0.0669208
 1.98183
 2.20504
 -9.76706
 -9.55409
 -9.93336
 -9.80258
 3.11984
 3.05073
 3.29891
 2.89998
 1.1407
 1.22225
 5.44918
 5.59085
 4.59102
 4.61953
 4.53359
 -1.02013
 -1.18739
 -0.899001
 -9.49659
 -9.17316
 -8.94997
 -5.50695
 -5.51845
 -5.80683
 0.114268
 -0.00826509
 -0.243981
 -0.38805
 -0.162164
 -8.26778
 2.06814
 2.07062
 1.9811
 1.97389
 -0.789776
 -1.24512
 -0.911823
 -0.954139
 -6.08448
 -6.05825
 -6.27018
 -5.545
 -5.59602
 -5.40685
 -5.49143
 -1.00107
 -0.906758
 -1.1557
 -1.3583
 -5.73201
 -5.80621
 -6.0911
 -6.07018
 -6.63379
 -6.38825
 -6.55127
 -6.8915
 -2.53243
 -5.65276
 -5.80244
 -5.82031
 -5.93233
 -10.3086
 -10.4747
 -10.2909
 -10.1138
 0.651649
 1.06355
 1.1312
 0.835329
 -9.63575
 -9.90622
 -9.74372
 -9.70422
 5.61802
 5.52457
 5.66267
 -9.55895
 -9.34883
 -9.85976
 -9.75209
 0.575167
 0.624044
 0.851942
 0.827829
 -6.95282
 -6.64286
 -6.87397
 -7.1011
 1.10058
 1.08196
 1.57928
 1.46927
 -10.5411
 -7.24695
 -6.81775
 -7.00438
 -6.69511
 -8.43819
 -8.72219
 -8.61966
 1.88628
 1.77962
 1.95766
 2.03776
 -6.14675
 -5.92583
 -5.91646
 -5.74676
 -3.93978
 -4.24668
 -4.26191
 -4.13254
 -3.50862
 -3.67747
 -3.29869
 -3.26512
 -11.315
 -10.9762
 -1.48292
 -1.5071
 -1.47006
 -1.06308
 -1.28489
 -1.3866
 -1.50486
 -5.87459
 -5.65094
 -6.14307
 -6.21866
 -5.70908
 -5.84711
 -5.8323
 -6.10635
 -4.31755
 -4.3852
 -4.57417
 -4.22784
 0.469854
 0.488351
 -0.133581
 0.0249689
 0.0408391
 -0.963845
 -1.14894
 -1.14929
 -1.17932
 2.37829
 2.55718
 2.51229
 2.51897
 -0.820728
 -0.612455
 -0.40605
 3.7152
 3.71337
 3.52111
 -0.792745
 -0.767719
 -0.545239
 -0.955582
 0.497484
 0.201921
 0.589312
 -2.20265
 -5.96295
 -5.80467
 -6.19693
 -1.43179
 -1.37024
 -1.55556
 -1.69246
 1.27956
 1.26999
 0.714672
 0.993882
 -2.63134
 -2.83173
 -2.92271
 -2.92619
 -7.08249
 -6.87141
 -11.511
 -11.2633
 -11.0942
 -11.538
 -5.96645
 -5.92538
 -6.14875
 -5.71568
 -1.60117
 -1.56008
 -1.52637
 -1.68996
 -10.4651
 -10.5048
 -11.0636
 -10.2625
 -9.93791
 -10.069
 -10.1639
 -2.93077
 -2.58589
 -2.45877
 -2.78116
 1.62687
 1.68355
 1.51697
 -1.6324
 -1.60711
 -1.92032
 -1.62323
 1.92258
 2.17803
 1.88946
 2.20025
 -5.06767
 -5.07131
 -5.15977
 -4.47509
 1.82111
 1.81757
 1.83716
 1.77384
 0.359178
 0.221031
 0.156915
 0.26013
 -9.62247
 -9.26575
 -9.73122
 -9.36565
 -2.99307
 -3.00867
 -2.75782
 -3.02413
 -0.726881
 -0.578754
 -0.811283
 -0.608021
 -6.16112
 -6.19195
 -6.81901
 -7.32098
 -7.14538
 -7.0959
 -1.25508
 -1.54658
 -1.46008
 -1.81298
 -1.89452
 -2.07395
 -1.96294
 -1.93943
 1.48233
 1.32921
 1.52662
 -1.09939
 -0.916188
 -0.772084
 6.1391
 6.29902
 6.16082
 6.24935
 0.203892
 0.110786
 1.89647
 1.79137
 1.89092
 2.09833
 -3.79751
 -3.50496
 -3.76486
 -3.42869
 3.68844
 3.44928
 3.35201
 3.5577
 0.889963
 0.950624
 1.17965
 -5.18252
 -5.25246
 -5.19775
 -5.05414
 0.843245
 0.637918
 0.921226
 1.25026
 1.22547
 1.46011
 1.39822
 -0.885476
 -0.752566
 -0.78504
 -1.05097
 -6.56761
 -7.34842
 4.68909
 4.60164
 0.359086
 0.547049
 -1.76989
 -1.5305
 -1.63167
 -1.57915
 -4.84939
 -5.09497
 -4.86789
 -5.24695
 -2.39748
 -2.42924
 -2.57759
 -2.62488
 1.88655
 2.24136
 1.96969
 2.07508
 -3.79391
 -3.45998
 -3.62409
 1.55257
 1.6215
 1.53254
 1.54378
 -8.70946
 -8.67548
 -8.95167
 -8.51457
 -4.89794
 -4.89613
 -4.92303
 -4.61503
 1.27145
 1.12864
 1.34354
 -1.7908
 -1.4807
 -1.75945
 -1.88715
 1.99655
 2.03551
 1.95182
 0.933035
 0.681255
 0.762147
 0.899686
 1.05266
 1.09885
 0.874146
 1.02554
 -1.55517
 -1.32389
 -1.2751
 -1.17308
 -10.0837
 -9.93623
 -9.76607
 -9.81384
 -4.22979
 -4.5648
 -4.40077
 -4.52313
 -1.483
 -1.14644
 -1.38531
 -3.04121
 -2.90716
 -2.90539
 -8.42335
 -7.97789
 -8.38911
 -8.10887
 -4.36812
 -4.4122
 -4.12171
 -4.54657
 -1.25354
 -1.46773
 -1.51859
 -1.53643
 2.30173
 2.26322
 1.32637
 1.4577
 1.20653
 1.20082
 5.06375
 5.12548
 5.29948
 5.07475
 -6.11624
 -6.15582
 -6.17388
 -6.00427
 0.664319
 0.907744
 0.843128
 0.860787
 -2.45542
 -2.19647
 -2.35847
 -2.04557
 2.67399
 2.77968
 2.73523
 2.81311
 -3.27157
 -3.13302
 -2.98528
 -2.99889
 -1.75553
 -5.72327
 -5.60102
 -5.35625
 -5.45206
 -1.33137
 -1.02464
 -0.972345
 -1.23978
 -1.17618
 -1.32386
 -1.50702
 -1.41323
 -0.479285
 -0.237663
 -0.318714
 -0.184603
 1.23065
 1.46332
 1.09294
 -7.41542
 -7.48205
 -7.56635
 -6.97888
 -1.126
 -1.04315
 -1.04256
 -0.948408
 -7.10942
 -7.22492
 -7.48067
 -5.09578
 -4.85829
 -5.05156
 -4.9316
 -6.5336
 -7.02019
 -6.7668
 -7.0613
 1.4829
 1.28127
 1.52444
 6.63905
 6.56498
 6.5447
 -5.4791
 -5.8694
 -5.76745
 -3.34459
 -3.83029
 -3.59612
 -3.90439
 -0.756523
 -0.855215
 -0.969134
 -0.743117
 -1.53544
 -1.6218
 -1.26982
 -1.35113
 4.13007
 3.98978
 4.31951
 3.97236
 -2.51565
 -2.38046
 -2.34648
 -2.3163
 -3.97587
 -4.01743
 -4.2124
 -3.83938
 0.762623
 0.73847
 0.163832
 0.612434
 0.389923
 0.359634
 -5.32628
 -5.08674
 -5.2647
 -5.22382
 0.976363
 0.730545
 -4.24388
 -4.09693
 1.77429
 6.30907
 6.34247
 6.31158
 6.18413
 2.70987
 2.49003
 -10.8063
 -11.2046
 -10.8871
 2.16221
 1.96691
 1.78083
 1.97017
 -5.69676
 -5.68254
 0.363084
 0.421041
 0.388314
 0.367676
 -0.379482
 -0.815128
 -0.656656
 -5.81742
 -5.9979
 -5.88188
 -6.21304
 -4.51267
 -4.81837
 -4.54583
 -4.65901
 -7.71007
 -7.74346
 -8.1
 -1.44204
 -1.19531
 -1.46916
 -1.09608
 -2.23924
 -7.84899
 -7.32129
 -7.72755
 -7.60937
 1.95108
 2.0011
 1.88614
 1.79284
 -2.88376
 -2.62436
 -2.912
 -2.64405
 -6.20528
 -5.75339
 -6.07689
 -5.82028
 5.49122
 5.44157
 5.38476
 5.35896
 1.25695
 -10.4394
 -0.943165
 -1.31336
 -1.06988
 -0.819505
 -2.88469
 -3.11918
 -2.78815
 -2.70464
 0.496012
 0.796616
 0.639516
 0.556957
 -3.20086
 -3.06464
 -3.19176
 -3.25058
 1.47926
 1.43036
 1.23178
 1.56066
 1.37879
 1.23363
 1.39494
 -1.50106
 -1.73479
 -1.34774
 -1.5144
 -6.33313
 -6.57559
 -5.98676
 -11.546
 -11.8927
 -11.5991
 -11.4488
 4.30291
 4.4826
 4.51728
 -2.00423
 -2.00754
 -1.65411
 -1.7589
 -1.48722
 -1.86234
 -9.05728
 -8.97399
 -8.97219
 -9.24958
 -5.45276
 -5.2202
 -5.33765
 -5.09877
 1.25028
 0.90422
 1.14672
 3.13659
 -1.23651
 -0.942048
 -1.04024
 -1.23096
 -1.88809
 -2.05236
 -2.00175
 -5.04692
 -4.89496
 -4.91155
 -5.14548
 -6.20826
 -5.84445
 -6.10805
 -5.92356
 -1.05044
 -0.879829
 -5.57334
 -5.53365
 -5.68541
 -5.90562
 -3.39407
 -3.30517
 -3.35885
 -3.62102
 -9.85547
 -10.0277
 -4.11017
 -3.83788
 -4.11394
 -3.97717
 -5.47456
 -5.62551
 -5.70338
 -5.81915
 -4.95526
 -5.14893
 -4.94632
 -4.9732
 -2.11022
 -2.25633
 -1.38721
 -1.5527
 -1.34143
 -1.1905
 -0.365951
 -0.141958
 -0.252952
 -0.299212
 -3.39279
 -3.57995
 -3.5965
 -3.40066
 1.45132
 1.27622
 1.16711
 1.06137
 0.538515
 0.579637
 0.671786
 0.584017
 4.73137
 4.63197
 4.65261
 4.83559
 -0.356219
 0.0250238
 -3.18037
 -2.75869
 -3.0818
 -2.93512
 -0.999166
 -0.936454
 -1.0858
 -1.24468
 -2.697
 -2.87776
 -2.98886
 -2.79786
 -1.51106
 -1.53987
 -5.81999
 -5.68181
 -10.7435
 -10.8141
 -10.8226
 -10.9222
 1.9973
 -1.33475
 -1.31225
 -1.40046
 -1.58346
 -2.50763
 -2.2342
 -2.30772
 -2.33311
 0.0916194
 0.239359
 0.306426
 0.497732
 -5.14268
 -4.76569
 -5.11701
 -4.78425
 -2.88945
 -2.70245
 -2.60889
 -2.87102
 1.49725
 1.57096
 1.40202
 1.58594
 1.69045
 -0.765161
 -1.05647
 -0.728408
 -0.907395
 -0.634491
 -1.00308
 -0.68734
 -0.631623
 1.21824
 1.21273
 1.40881
 1.22732
 0.607968
 0.532116
 0.225739
 0.362818
 -1.71736
 -1.95054
 -1.57825
 -1.55677
 1.37369
 1.50333
 1.57472
 1.49663
 -3.19078
 -3.29655
 -2.91409
 0.164268
 0.169726
 0.20239
 0.252914
 3.62788
 3.48982
 -3.10882
 -3.30265
 -3.37416
 -2.79942
 -3.13221
 -2.99098
 -3.14776
 1.88982
 1.72728
 1.63682
 2.5254
 2.42446
 2.41612
 2.50526
 -4.21145
 -4.17373
 -4.36219
 -4.06658
 -2.90534
 -2.54049
 -2.93742
 -6.76041
 -6.21784
 -6.45121
 -2.04014
 -1.82987
 -1.88387
 -7.66683
 -7.65655
 -7.70727
 5.02976
 5.15929
 5.14852
 5.03987
 -9.94541
 -10.0572
 -9.88691
 -10.0851
 -0.27003
 -0.0609524
 -3.45835
 -3.17852
 1.20445
 1.17549
 1.22656
 1.01831
 -3.92194
 -3.82571
 -4.16004
 -5.97606
 -6.22439
 -6.17868
 -6.22781
 -7.72524
 -7.25324
 1.89217
 1.86654
 1.95684
 -3.1357
 -3.08897
 -2.83275
 0.495516
 0.736513
 0.478899
 1.78265
 1.78162
 1.84992
 1.94387
 -1.25102
 -1.35485
 -1.09922
 -1.44516
 -0.919472
 -0.635698
 -0.711799
 -0.882587
 -4.88642
 -4.78953
 -4.76467
 -5.09218
 -5.82793
 -5.61198
 -5.74549
 -5.39753
 -0.700314
 -0.695522
 -0.909553
 -4.18864
 -4.10952
 -3.93694
 -5.21557
 -5.45881
 -5.26962
 -5.32674
 -12.1857
 -12.0086
 -12.2794
 -2.20747
 -2.15425
 -2.14324
 -5.11718
 -5.29612
 -4.90936
 -1.90986
 -2.07068
 -1.73155
 -0.149358
 0.136159
 0.0727458
 1.87925
 1.78411
 1.83765
 1.79704
 -2.0515
 -1.68359
 -1.9591
 -1.75625
 0.265707
 0.355337
 0.528488
 1.34075
 1.10131
 -4.82814
 -4.6347
 -5.08937
 -4.79534
 -4.84541
 -5.09502
 -4.73054
 -4.52558
 1.15308
 0.922937
 0.804586
 0.723386
 1.40138
 1.62436
 1.4984
 1.63511
 2.96927
 3.07702
 2.96004
 3.15026
 -9.10965
 -9.26647
 -7.25204
 -6.84534
 -7.05962
 -7.28927
 -9.9638
 -0.0168309
 -0.281609
 0.00567725
 -2.41982
 -2.50812
 -2.28725
 -2.21342
 1.25101
 1.28444
 -1.74659
 -1.69374
 -1.91567
 2.07728
 1.99154
 -6.80439
 -6.83964
 -7.16418
 -6.58733
 -7.98124
 -7.90105
 -8.43376
 -8.15596
 -6.09847
 -6.16119
 -5.82378
 -0.219265
 -0.401837
 -0.38805
 -7.78658
 -7.75125
 -7.87197
 -7.95963
 0.394515
 0.697483
 0.466524
 0.357746
 -6.35191
 -6.14873
 -6.10487
 -6.34307
 0.269828
 0.537772
 0.596375
 0.164802
 1.50778
 1.41648
 1.59646
 -10.0004
 -10.546
 -10.2743
 -10.1599
 1.75091
 1.67197
 1.71082
 -1.19131
 -1.29592
 -1.53493
 -1.39324
 -9.54754
 -9.89013
 -9.70277
 0.304826
 0.494605
 0.263425
 0.413501
 -4.31865
 -8.82276
 -9.01102
 -8.33044
 -8.73124
 2.19321
 2.13708
 2.03103
 2.14664
 -5.00282
 -4.53804
 -4.88066
 -5.01735
 -2.13494
 -2.23251
 -1.85142
 1.49128
 1.63779
 1.45597
 1.90502
 -4.44485
 -4.38135
 -4.59447
 0.64663
 0.736349
 4.85508
 5.0254
 4.84032
 4.73944
 2.80573
 3.27336
 3.29878
 -8.00548
 -7.85191
 -8.58062
 -8.11252
 -8.05402
 -8.24718
 2.57586
 2.50406
 2.73213
 2.44839
 -0.849684
 -0.972941
 -0.955743
 -1.06513
 -1.65245
 -1.2994
 -1.32643
 -1.4328
 -3.06363
 -2.96073
 -3.27946
 -2.98552
 -3.15826
 -2.71533
 -3.00158
 -2.76753
 -9.24574
 1.53755
 1.62598
 1.5241
 1.59159
 -9.5131
 -9.29964
 -9.66271
 -3.37662
 -3.07431
 -2.94895
 -3.06328
 1.83119
 1.61267
 1.54612
 -2.73828
 -2.50481
 -2.68693
 -2.48796
 -2.00282
 -4.79962
 -4.89807
 -5.21687
 -5.10328
 0.368341
 0.366748
 0.372594
 -1.99874
 -2.4598
 -2.29507
 -9.72903
 -9.57784
 -9.24696
 -9.54366
 -1.8984
 -1.81421
 -1.73234
 5.53827
 5.46928
 5.65149
 -1.88284
 -1.69937
 -1.85486
 -1.45817
 -4.97553
 -5.25462
 -5.18598
 -2.25518
 -2.29989
 -7.61596
 -7.74994
 -7.43376
 -7.46933
 -6.06133
 -6.326
 -6.16782
 -6.13411
 -10.233
 -10.136
 -9.92981
 -9.74451
 -2.99687
 -2.47858
 -2.85131
 -2.95326
 -5.50715
 -5.44515
 -5.31952
 -5.18504
 -7.62178
 -7.85206
 -8.07024
 0.686834
 0.541733
 0.907579
 0.778632
 -1.60404
 -1.8668
 -0.396981
 -0.217568
 -0.430913
 -0.330832
 -4.76768
 -4.71262
 -4.72019
 -4.90838
 -1.85297
 -2.10768
 -2.02133
 -1.77514
 -4.53473
 -4.37839
 -4.76408
 -4.42785
 -2.17692
 -2.2503
 -2.48416
 -2.50876
 -1.85327
 -1.62791
 -1.65308
 -7.32801
 -7.09439
 -7.28064
 -8.84626
 -8.81065
 -8.71636
 -9.2576
 -7.88587
 -7.84883
 -8.08732
 -5.53508
 -5.93995
 -5.59581
 4.33058
 4.36266
 4.50364
 -1.5439
 -1.87079
 -1.6128
 -7.0433
 -7.20078
 -7.04922
 -7.00107
 -1.53327
 -1.65646
 -1.51091
 -3.13527
 -3.2525
 -3.20143
 -2.97827
 -4.37641
 -3.76666
 -3.98165
 -3.94707
 -2.02799
 -2.23439
 -2.18671
 -2.37947
 1.02471
 0.87391
 0.999321
 1.10412
 -1.63761
 -3.1368
 -3.12369
 -3.28288
 -2.76678
 1.78005
 1.71365
 1.68726
 1.69808
 1.81084
 1.63551
 1.75484
 1.64288
 1.37759
 1.25594
 1.32138
 1.43902
 -4.40015
 -4.36631
 -4.7136
 -4.87494
 0.567894
 0.72048
 0.61912
 0.581026
 -10.5699
 -10.2382
 -10.5188
 -10.26
 3.1545
 3.0517
 2.90439
 2.92282
 0.642225
 0.618697
 0.668235
 2.20642
 2.35286
 2.45346
 2.41918
 1.39078
 1.53317
 1.24464
 1.60767
 1.57813
 -2.43628
 -2.38771
 -2.56596
 -2.97815
 -8.81826
 -8.50212
 -8.38886
 -8.82858
 -8.76704
 -8.9806
 -8.66896
 1.25376
 1.4031
 -10.0212
 -10.2703
 -9.92464
 -7.45084
 -7.3793
 -7.44346
 -7.70476
 1.42027
 1.52895
 1.39635
 -10.0763
 -10.1976
 -9.96955
 -10.2871
 -0.419456
 -0.479084
 -0.659018
 -0.267479
 1.22467
 1.51952
 1.40343
 1.1877
 2.35008
 2.03018
 2.16094
 2.2277
 3.84091
 3.77809
 3.95393
 3.94675
 -3.78145
 -4.29308
 -4.03974
 -4.22522
 -0.634282
 -0.652552
 -0.544955
 -0.223748
 -10.0593
 -9.69353
 -10.0349
 5.70801
 5.51108
 5.64224
 5.42037
 2.8393
 2.6194
 2.75703
 2.5693
 -9.90242
 -10.3346
 -10.1147
 -10.0775
 -2.09672
 -2.1376
 -2.36748
 -7.91641
 -8.37685
 -8.4457
 1.01042
 1.03157
 1.32107
 -10.1476
 -9.8694
 -9.81418
 -10.0087
 -7.51195
 -7.36303
 -7.28156
 -7.02547
 0.335285
 0.197469
 -0.00361564
 0.204761
 -0.623064
 -0.370265
 -0.599857
 -0.295912
 -6.2547
 -6.26096
 -6.33023
 -6.6668
 -2.70702
 -2.55027
 -2.35816
 -2.49046
 3.32365
 3.12015
 3.11252
 3.13532
 -7.78412
 -7.13655
 -7.55501
 -7.37865
 -10.5189
 -2.48065
 -2.55461
 -2.74057
 -2.73091
 -8.72865
 -8.94539
 -8.85433
 -9.22136
 1.7299
 1.72714
 1.70013
 1.69388
 -9.90138
 -10.1513
 -9.77447
 -9.64035
 -1.85554
 -1.77913
 -0.719205
 -0.582533
 -0.77262
 -0.852007
 -6.09161
 -5.76512
 -5.74593
 -5.75696
 -3.17268
 -3.4904
 -3.42225
 -0.570251
 -0.529619
 -0.625884
 -6.13882
 -6.0877
 -5.74943
 -5.76701
 -5.54566
 -5.38046
 -5.6968
 -5.45023
 1.10533
 1.298
 1.32412
 -2.01177
 -2.59298
 -2.6027
 -2.256
 3.29029
 3.18028
 2.96932
 3.26116
 3.4378
 -10.185
 -9.5518
 -10.2016
 -9.7337
 -2.47359
 -2.31635
 -2.19526
 -2.46385
 -8.22616
 -8.45745
 -1.39425
 -1.01261
 -1.04123
 0.509508
 0.732977
 0.367693
 0.43146
 -9.78355
 -9.63398
 -9.93709
 -9.90607
 1.49063
 1.42092
 1.44999
 0.421962
 0.512959
 0.323871
 0.491847
 -0.505972
 -0.783637
 -0.572325
 -0.266801
 -4.84662
 -5.39031
 -5.04114
 -5.18024
 0.786132
 0.473275
 0.644578
 0.679561
 -5.91497
 -3.76374
 -4.10837
 -4.20189
 -3.69042
 -8.71476
 -8.82575
 -8.46276
 -9.52666
 -9.38506
 -9.36409
 -9.11701
 -3.9314
 -4.09942
 -3.72672
 -3.90408
 -11.0422
 -11.0099
 -10.9881
 -10.6435
 -0.410426
 -3.41289
 -3.01743
 -3.01438
 -3.3061
 -2.53332
 -2.11261
 -2.31335
 -2.38863
 3.80704
 3.59548
 3.54043
 3.75374
 -1.75105
 -1.82296
 -1.91876
 -1.59788
 -1.14508
 -1.18414
 -1.2693
 -1.39953
 -1.42559
 -1.46167
 -1.67856
 -8.06442
 -7.76403
 -7.63809
 -1.21913
 -0.929061
 -0.981446
 -1.13795
 -7.81407
 -8.27803
 -8.0296
 -2.12941
 -1.93187
 -2.61956
 -2.80457
 -2.71877
 -2.77907
 -2.68996
 -2.7736
 -2.34907
 -2.41273
 -2.76254
 -2.64134
 -8.40331
 -8.56637
 -8.55827
 -0.489019
 -9.21104
 -3.16213
 -3.35602
 -3.1239
 -2.87184
 1.28965
 1.26606
 1.51003
 0.801796
 0.570072
 0.464966
 -2.60128
 -2.71283
 -2.41851
 -1.96973
 -1.95691
 -2.08386
 -2.2313
 -2.35345
 -2.13275
 -2.53924
 -2.1887
 5.72504
 5.6862
 5.85853
 -6.18899
 -5.84181
 -6.15247
 -1.8427
 -1.91675
 -7.13673
 -6.68963
 -6.82458
 -6.67465
 -3.56512
 -3.81214
 -3.5674
 3.66529
 3.62666
 3.85209
 3.76734
 -1.25021
 -0.951533
 -1.20128
 -0.999951
 1.00305
 1.11352
 1.2236
 1.29174
 -4.7444
 -4.33026
 -4.56175
 -4.72437
 -0.108619
 0.0938211
 -0.073634
 0.21803
 3.21171
 3.24236
 3.24755
 -0.514586
 -0.421797
 -0.287393
 -0.352495
 -4.78731
 -5.13566
 -5.00941
 -5.03256
 -2.1723
 -2.4687
 -2.50278
 -2.33452
 0.694533
 0.807037
 0.671867
 -0.87024
 -0.66754
 -0.75932
 -0.719374
 0.838524
 1.08762
 0.801065
 1.01733
 1.85599
 1.58569
 1.63268
 1.92245
 -9.69837
 -9.87413
 -9.74778
 -9.84924
 1.38234
 1.20734
 1.26895
 1.20182
 0.802698
 0.964319
 0.730104
 0.747043
 -4.11019
 -4.48565
 -4.36599
 -4.58633
 -0.472808
 -0.404823
 -0.649448
 -0.541367
 -11.8865
 -11.9861
 -11.9563
 -12.0414
 -1.34186
 -1.22539
 -1.46681
 1.75664
 1.90987
 1.85024
 1.64848
 1.47369
 1.57174
 1.50527
 1.57634
 1.18889
 1.54115
 -5.18728
 -4.86756
 -5.13827
 -4.72805
 -11.3881
 -11.209
 -11.3366
 -11.2824
 -0.911567
 -0.66119
 -0.796746
 -0.649549
 1.14724
 1.2855
 1.30446
 -4.55784
 -4.23711
 -4.21992
 -4.48709
 -1.5163
 -1.4874
 -1.60153
 -1.81818
 0.524173
 0.507618
 0.538791
 0.334037
 1.86883
 1.54384
 1.73942
 -6.54155
 -6.87596
 -7.02285
 -6.61017
 -7.30646
 -7.27282
 -6.97359
 -0.984928
 -0.963356
 -1.13956
 -1.28449
 -1.1885
 -1.07459
 -1.36647
 0.548528
 0.308763
 0.197797
 0.275595
 -4.44368
 -4.33622
 -4.13605
 1.22943
 1.233
 1.47045
 -2.43845
 -2.73065
 -2.61636
 -7.35384
 -6.95472
 -7.20479
 -4.98532
 -4.91741
 -0.406651
 -0.577209
 -0.368003
 -0.57713
 -0.669772
 -0.559845
 -1.79154
 -1.46938
 0.330732
 2.11032
 2.07594
 2.2527
 -7.99658
 -7.94872
 -7.44947
 -0.939265
 -1.14685
 -1.06862
 -0.903366
 0.348364
 -2.20687
 -2.39722
 -4.62065
 -4.73546
 -4.55131
 -4.84009
 -2.14185
 -1.93491
 -2.21318
 -1.10165
 -1.24085
 -0.859517
 -1.13626
 -0.50509
 -0.947954
 -1.23425
 -1.03041
 -0.910709
 -1.3472
 -8.14904
 -7.82497
 -7.74691
 -7.99164
 -8.36159
 -8.59883
 -9.00144
 -8.88524
 1.28344
 1.09442
 -2.15447
 -2.12032
 -2.01906
 -1.80276
 -3.16921
 -3.24514
 -3.36138
 -3.47908
 -4.20933
 -4.47657
 -4.19768
 -4.1417
 -1.71418
 -1.54196
 -1.4496
 -1.7428
 -1.26114
 -1.44401
 -1.31025
 -1.19155
 -7.31618
 -6.85663
 -7.28574
 -7.19653
 0.95275
 0.681158
 0.627025
 0.450096
 0.971038
 0.704353
 0.845525
 -6.35435
 -6.64529
 -7.00647
 -7.14271
 0.640427
 0.461147
 0.528293
 0.357917
 -8.99151
 -8.81148
 -9.04761
 -8.91571
 -7.46973
 -7.28523
 -7.4075
 -7.20443
 -0.714239
 -0.847964
 -0.6187
 -0.73509
 -5.12341
 -5.23385
 -5.05545
 -4.75187
 0.436962
 0.305414
 0.117449
 0.0558707
 -6.08731
 -5.89728
 -5.95724
 1.32484
 1.1812
 1.3587
 1.25885
 -3.62362
 -3.50933
 -3.69323
 -3.80542
 -0.50795
 -0.581518
 -5.71184
 -6.21065
 -5.97806
 -5.86998
 -6.20355
 -6.13284
 -5.91576
 -1.42214
 -1.78293
 -1.46306
 -6.66532
 -6.66385
 -6.7955
 -7.04237
 3.15537
 3.08681
 2.94244
 3.00302
 0.456465
 0.366834
 0.167996
 0.104551
 -3.78625
 -3.40448
 -3.45361
 -3.81045
 -8.43173
 -8.52058
 -8.28024
 -8.54761
 -7.54997
 -7.85551
 -7.90088
 -7.63192
 -8.66973
 -8.62638
 -8.72192
 -8.29105
 -8.42924
 -0.0991086
 -0.252136
 -0.0746224
 -0.309443
 1.01089
 0.938245
 1.27781
 1.05882
 0.118086
 0.111416
 -0.451425
 -0.71676
 -0.517799
 -0.500591
 -1.13374
 -1.15551
 -1.44698
 -1.15439
 0.99206
 0.987044
 1.16643
 -2.63885
 -2.45844
 -2.50646
 -2.3959
 -11.9837
 -11.8828
 -11.6277
 -0.209771
 -0.162079
 -0.246896
 -0.482779
 -7.02949
 -6.60172
 -6.86592
 -6.97405
 -4.84157
 -5.20014
 -5.07369
 -2.24217
 -2.083
 -2.37134
 -5.01038
 -5.35277
 -5.03067
 -7.30034
 -7.05751
 -4.71218
 -4.74928
 -4.7456
 0.373751
 0.277625
 0.216098
 0.488265
 -8.82916
 -9.04185
 -8.83022
 -8.72157
 -3.69636
 -4.03325
 -3.84676
 4.10781
 4.32841
 4.39759
 4.13426
 1.55032
 1.66502
 -3.09263
 -0.512003
 -0.854788
 -0.621593
 -0.514804
 -2.50992
 -2.81689
 -2.80353
 -5.80676
 -5.85154
 -5.60826
 -5.83153
 -9.25768
 -9.41015
 -1.98738
 -1.88289
 -1.89458
 -1.71194
 1.81592
 1.99824
 2.01203
 1.77447
 -7.70595
 -7.89382
 -7.86236
 -7.71406
 -3.80973
 -3.93783
 -3.75439
 5.36779
 5.4562
 5.59537
 5.59293
 1.26786
 1.30881
 1.49487
 -0.0379834
 -0.235773
 0.102831
 -0.105399
 -3.59605
 -3.63563
 -3.46901
 -3.84203
 -2.14426
 -2.36097
 1.8471
 1.78288
 1.80431
 1.79465
 -4.0316
 -4.34793
 0.0134771
 0.317589
 0.182272
 0.0922562
 -0.927941
 -1.03853
 -0.733389
 -0.943172
 -2.20601
 -2.49433
 -2.59904
 -2.37501
 0.105939
 0.228586
 0.493863
 -4.79423
 -4.39195
 -4.81119
 -4.47586
 -6.53515
 -6.82266
 -7.09211
 -6.5965
 -6.10813
 -6.09927
 -6.14196
 -6.42346
 1.9496
 2.16349
 2.02117
 2.19544
 -2.20705
 -2.0252
 4.57379
 4.76183
 4.69374
 4.88008
 -0.880014
 -0.645199
 -0.525473
 -9.92838
 6.16723
 6.1155
 6.11241
 6.35883
 -1.87054
 -2.01417
 -1.86119
 -1.88512
 -0.277684
 -0.52349
 -0.376073
 -6.32785
 -6.60803
 -6.63501
 -6.30145
 -6.41693
 -6.29705
 -6.65996
 -6.65504
 -6.1165
 -6.27084
 -5.99493
 -5.87598
 0.294465
 0.090189
 0.424739
 0.0978387
 1.1968
 1.27444
 1.41036
 1.3837
 -4.0907
 -4.09224
 -4.44104
 -4.0677
 -1.07201
 -0.718678
 -1.18974
 -0.952675
 -11.4304
 -8.65036
 -8.74769
 -3.47775
 -3.46004
 -1.23251
 -1.01769
 -1.07622
 -8.92766
 -9.44681
 -9.126
 -9.01346
 -1.6975
 -1.58075
 -3.29318
 -3.05364
 3.67338
 3.47371
 3.70159
 3.48682
 0.330395
 0.423827
 0.595919
 0.475952
 -3.94178
 -4.31308
 -4.00601
 -4.2115
 3.25922
 3.47148
 3.30652
 3.21388
 -10.7015
 -10.58
 -10.9053
 -10.6322
 -8.54969
 -8.17439
 -9.37169
 -9.12619
 -8.83224
 -9.40183
 -6.56299
 -6.83289
 -0.618521
 -0.735107
 -0.555668
 5.84268
 5.67568
 5.8958
 5.87482
 3.01678
 2.87387
 2.82927
 3.0117
 -8.7241
 -8.98065
 -8.72339
 -8.55589
 -5.27298
 -5.71421
 -5.46085
 -2.74496
 -2.4724
 -2.28792
 -2.58713
 0.0159497
 -0.292125
 -0.0336639
 0.0536891
 -7.49601
 -7.81292
 -7.63078
 -8.80006
 -2.44776
 -2.79569
 0.166095
 0.0803162
 -4.65715
 -5.01843
 -4.57727
 -4.70144
 1.09851
 1.37446
 1.01098
 1.39628
 1.45122
 1.67128
 1.59809
 5.58535
 5.30432
 5.35223
 5.43468
 -0.0609724
 -0.204989
 -0.18481
 -0.402338
 -7.54372
 -7.59028
 -6.90218
 -7.17559
 -7.05242
 -7.1748
 0.456316
 0.472938
 0.239008
 0.616349
 -5.93118
 -5.74653
 -6.04254
 -4.81323
 -4.83468
 -4.90487
 -4.64296
 -7.07763
 -7.30536
 -6.95941
 -7.36423
 0.0772292
 -0.161706
 -0.0789147
 0.0357868
 -9.56936
 -9.03535
 -1.2611
 4.18181
 4.09093
 3.97561
 3.89341
 -5.90195
 -5.83127
 -6.08988
 3.03149
 3.17368
 3.0872
 3.24264
 -4.80153
 -4.76521
 -4.75755
 -5.0447
 1.65795
 1.66716
 1.89802
 1.59822
 0.915775
 0.95559
 0.750486
 0.706473
 -4.3136
 -4.53685
 -4.55534
 -0.468381
 -0.580481
 -0.408165
 -0.258691
 -3.79939
 -3.73095
 -3.92889
 -3.48168
 -3.20362
 -3.00238
 -6.80304
 -6.91359
 -6.88312
 -4.88152
 -4.92152
 -4.6706
 4.33489
 4.30421
 4.12162
 4.27489
 1.26266
 1.05265
 1.3696
 0.978039
 -7.67536
 -7.22194
 -7.23442
 -7.21058
 -6.61087
 -6.52346
 0.627417
 0.171941
 0.588644
 -4.82744
 -4.47802
 -4.56012
 -4.39683
 -4.68844
 -4.61399
 -4.48184
 0.266928
 0.387526
 0.235991
 0.187902
 -9.14093
 -9.16523
 -0.669768
 -0.576684
 -0.672187
 -0.824044
 0.437925
 0.418269
 0.3312
 -5.08406
 -5.18005
 -2.0028
 -1.86908
 -1.96882
 -2.20473
 1.63088
 1.71266
 -4.10893
 -4.01116
 -0.673083
 -0.318369
 -0.374638
 -0.57293
 -2.67235
 -2.66383
 -2.47169
 -2.85519
 -2.63611
 -2.46531
 -2.63127
 2.37723
 2.35359
 2.45169
 2.0626
 3.08796
 3.07827
 2.93024
 2.98885
 -4.97236
 -4.71623
 -4.46523
 -4.67603
 -7.95454
 -8.00489
 -7.76311
 -7.75135
 -3.22157
 -3.38906
 -3.1404
 -2.27571
 -2.13753
 -2.00008
 -2.03345
 -2.14848
 -6.16705
 -6.24211
 -0.0887644
 -0.324015
 -0.102943
 -0.0449125
 0.922174
 -8.00819
 -7.96083
 -7.70106
 -7.81241
 -2.38356
 -1.92835
 -2.06252
 -2.30674
 5.33119
 5.2044
 -1.42904
 -1.10266
 -1.40244
 4.39403
 4.3349
 4.42872
 4.22892
 -3.90129
 -3.66911
 -3.85938
 -3.75951
 1.62614
 1.3963
 1.3396
 0.409555
 0.209475
 -9.93076
 -9.85938
 -9.84733
 -9.24239
 -9.21913
 -9.02641
 1.29758
 0.969284
 0.362659
 0.359281
 4.85769
 4.98497
 4.99476
 5.01557
 -7.93171
 -7.51089
 -8.04256
 0.951599
 0.907509
 0.794903
 1.08138
 0.634004
 0.728672
 0.474761
 0.736121
 -5.06289
 -5.15182
 -5.31474
 -5.1405
 -3.72507
 -4.31579
 -4.05498
 -4.66564
 -4.73242
 -4.37223
 -4.70314
 -6.02764
 -5.72351
 -6.30621
 -5.54392
 1.83527
 1.82223
 1.13466
 1.11769
 1.03036
 -3.59196
 -3.47524
 -3.18301
 -3.3159
 0.779824
 0.792829
 0.534103
 0.62776
 -5.43192
 -5.26951
 -5.33612
 -5.52448
 1.75564
 1.51498
 -7.97237
 -7.74517
 -7.80889
 -7.58439
 -5.27122
 -4.80405
