 32.8221
 32.7847
 32.8666
 32.8644
 31.0717
 31.0986
 30.9778
 30.9314
 31.7768
 31.8478
 31.7539
 31.8677
 31.6505
 31.6827
 31.8339
 31.8051
 30.5023
 30.3658
 30.5403
 30.557
 30.5434
 30.61
 30.4777
 30.5844
 32.6606
 32.5796
 32.6283
 32.616
 32.4654
 32.5243
 32.5393
 32.4703
 30.4839
 30.5344
 30.6289
 30.5145
 30.5683
 30.5603
 30.5905
 30.4577
 32.0378
 31.9713
 32.0756
 32.1067
 31.5551
 31.5593
 31.6345
 31.5705
 32.5743
 32.6191
 32.6359
 32.5602
 31.2722
 31.3636
 31.4242
 31.3465
 32.065
 32.0659
 32.0243
 31.9714
 32.7916
 32.7964
 32.8096
 32.8171
 30.8864
 30.815
 30.8841
 30.7773
 31.3654
 31.4195
 31.3463
 31.4147
 32.2173
 32.2128
 32.2078
 32.1669
 30.737
 30.7765
 30.7159
 30.6142
 32.4322
 32.347
 32.4931
 32.3791
 30.2446
 30.2597
 30.1393
 30.1123
 29.399
 29.105
 29.0785
 29.4632
 31.4442
 31.3568
 31.4395
 31.4756
 32.3292
 32.3538
 32.1856
 32.2156
 31.9917
 32.0021
 32.0393
 32.0711
 32.5106
 32.4667
 32.4216
 32.48
 32.7099
 32.6588
 32.6589
 32.6678
 32.5109
 32.5348
 32.5836
 32.5378
 31.3508
 31.3717
 31.3888
 31.4755
 32.1667
 31.993
 32.1964
 32.1492
 32.4983
 32.4227
 32.4662
 32.4869
 31.6252
 31.7157
 31.6346
 31.7093
 31.0221
 31.0665
 31.0661
 31.0635
 32.5893
 32.6335
 32.5931
 32.6267
 32.908
 32.9109
 32.9672
 32.9665
 31.8206
 31.919
 31.8678
 31.8249
 32.1385
 32.2369
 32.1912
 32.2654
 31.4183
 31.3936
 31.2382
 31.2706
 29.9714
 30.0736
 29.9749
 30.0987
 31.977
 32.012
 31.9722
 32.0706
 31.3664
 31.2896
 31.3191
 31.3923
 32.4347
 32.4565
 32.4607
 32.3459
 31.6713
 31.7406
 31.7146
 31.6155
 30.3933
 30.4301
 30.3512
 30.4018
 32.6376
 32.5938
 32.6301
 32.6521
 31.5873
 31.4542
 31.4907
 31.4542
 32.8683
 32.7926
 32.7508
 32.7613
 32.6509
 32.659
 32.6725
 32.6837
 32.1789
 32.2249
 32.2451
 32.2885
 32.8637
 32.916
 32.9084
 32.7938
 31.7965
 31.8938
 31.8539
 31.8154
 32.7055
 32.733
 32.6164
 32.7261
 32.0524
 31.9745
 31.9651
 31.9864
 32.7686
 32.7043
 32.7661
 32.6937
 31.6543
 31.6688
 31.5969
 31.7613
 31.2688
 31.304
 31.2234
 31.1416
 31.3522
 31.4358
 31.3937
 31.5221
 32.8167
 32.8659
 32.8853
 32.8333
 32.3407
 32.3623
 32.4094
 32.2995
 30.352
 30.071
 29.9602
 30.2198
 32.6665
 32.654
 32.676
 32.6706
 32.3232
 32.1619
 32.255
 32.249
 32.5412
 32.5438
 32.523
 32.5867
 32.786
 32.7309
 32.742
 32.684
 32.5687
 32.5286
 32.4896
 32.5683
 30.7557
 30.6498
 30.569
 30.753
 30.5076
 30.4848
 30.4216
 30.3897
 32.2034
 32.0712
 32.2442
 32.1897
 32.6533
 32.6486
 32.6379
 32.6499
 31.3416
 31.3171
 31.2523
 31.3535
 32.6833
 32.4281
 32.5895
 32.6259
 32.467
 32.5091
 32.371
 32.6257
 29.5833
 29.2647
 29.6824
 29.5142
 31.8467
 31.6892
 31.8002
 31.7057
 32.7892
 32.816
 32.8017
 32.8245
 32.6507
 32.6645
 32.5798
 32.7175
 30.365
 30.2433
 30.278
 30.2275
 32.7691
 32.8287
 32.8076
 32.8134
 32.7217
 32.6925
 32.7147
 32.7
 32.6986
 32.6929
 32.7012
 32.692
 32.2445
 32.2103
 32.1637
 32.1454
 32.6417
 32.6217
 32.6346
 32.6274
 32.6204
 32.5934
 32.5854
 32.598
 32.2603
 32.2744
 32.321
 32.3062
 32.6983
 32.6851
 32.74
 32.7566
 28.3814
 28.1234
 28.7072
 28.8481
 32.6602
 32.7616
 32.7336
 32.6803
 31.6671
 31.8029
 31.6871
 31.8215
 31.7057
 31.8027
 31.7151
 31.8733
 31.2597
 31.4027
 31.3671
 31.3332
 32.6539
 32.6794
 32.7285
 32.7507
 30.1023
 30.139
 30.2314
 30.0712
 31.527
 31.4306
 31.5629
 31.4999
 32.2287
 32.1936
 32.0898
 32.1766
 32.6797
 32.7074
 32.6685
 32.6668
 32.6375
 32.6669
 32.6294
 32.647
 32.666
 32.6567
 32.6275
 32.4399
 32.4626
 32.4275
 32.446
 31.5374
 31.6132
 31.6729
 31.5316
 32.593
 32.5122
 32.5132
 32.5533
 31.7391
 31.6137
 31.774
 32.8795
 32.9285
 32.8794
 32.8951
 32.3008
 32.2307
 32.2525
 32.3296
 30.8574
 31.042
 31.02
 30.8216
 32.8804
 32.9298
 32.9433
 32.9809
 32.8329
 32.8642
 32.9028
 32.8326
 31.8315
 31.9321
 31.9286
 31.8964
 31.5707
 31.623
 31.4906
 31.5036
 32.5525
 32.4462
 32.4326
 32.3712
 32.8482
 32.8611
 32.7779
 32.7724
 32.5003
 32.4231
 32.3771
 32.5243
 30.6761
 30.6101
 30.6416
 30.6057
 31.7686
 31.6859
 31.6364
 31.6896
 32.3179
 32.4227
 32.3659
 32.3197
 30.0951
 29.8574
 30.1686
 30.1885
 32.3898
 32.3818
 32.2802
 32.2835
 30.8277
 30.9745
 30.8296
 30.9759
 32.8492
 32.8786
 32.8569
 32.8143
 32.9572
 32.9467
 32.9388
 32.9204
 32.4913
 32.466
 32.5565
 32.552
 31.9899
 31.9958
 31.9897
 32.0309
 32.8211
 32.8676
 32.8624
 32.8348
 31.8597
 31.8422
 31.8261
 31.9075
 32.4707
 32.3565
 32.3657
 32.4615
 30.836
 30.9382
 30.8313
 30.8145
 32.6578
 32.572
 32.6312
 32.6415
 30.9136
 31.0672
 30.8905
 30.9862
 32.3899
 32.4314
 32.4188
 32.4254
 32.4292
 32.3348
 32.3498
 32.3823
 32.6314
 32.6358
 32.606
 32.6282
 32.7116
 32.7082
 32.7699
 32.7103
 30.2638
 30.1345
 30.1081
 30.1148
 32.6693
 32.7474
 32.6573
 32.7289
 29.9355
 30.031
 29.9767
 30.1251
 31.3389
 31.4285
 31.2729
 31.3868
 31.1553
 31.4797
 31.3939
 31.1795
 30.3122
 30.322
 30.2626
 30.2277
 32.8501
 32.8901
 32.8961
 32.9082
 30.8556
 30.811
 30.6998
 30.8477
 31.1518
 31.1926
 31.2432
 31.2077
 30.3995
 30.2914
 30.3625
 30.4131
 31.8984
 31.9139
 31.9093
 31.9777
 31.2521
 31.3643
 31.2373
 31.3702
 32.7775
 32.7622
 32.7441
 32.8285
 31.7494
 31.8186
 31.7792
 31.7122
 32.5846
 32.4947
 32.4547
 32.4633
 32.5406
 32.5503
 32.514
 32.5391
 32.3516
 32.2361
 32.3496
 32.3907
 32.368
 32.3624
 32.3177
 32.3898
 32.3588
 32.4398
 32.4145
 32.5022
 33.0444
 33.0284
 32.9488
 33.0599
 32.7082
 32.7439
 32.7565
 32.7119
 31.6978
 31.6109
 31.6686
 31.759
 30.5018
 30.6207
 30.4319
 30.4015
 30.6664
 30.7098
 30.6523
 30.6031
 30.7294
 30.8352
 30.7962
 30.7578
 31.4622
 31.4986
 31.371
 31.47
 32.6509
 32.623
 32.6704
 32.641
 32.6226
 32.6455
 32.6405
 32.6349
 32.0862
 32.2036
 32.2101
 32.2719
 31.6332
 31.6961
 31.5664
 31.6531
 31.587
 31.6331
 31.5688
 31.492
 32.0496
 32.1248
 32.0571
 32.0389
 31.6726
 31.5765
 31.6684
 31.6745
 32.3497
 32.4006
 32.4803
 32.5295
 26.5278
 26.2231
 26.4848
 25.7951
 32.8697
 32.9085
 32.8888
 32.9159
 28.0335
 28.5885
 28.435
 32.8112
 32.7783
 32.7318
 32.6718
 30.6321
 30.704
 30.6446
 30.7116
 32.0756
 32.0497
 32.0131
 31.9468
 30.5932
 30.6556
 30.5708
 30.6933
 32.7514
 32.7639
 32.778
 32.8427
 31.5916
 31.558
 31.363
 31.4147
 32.072
 32.1714
 32.2511
 32.1017
 30.278
 30.1996
 30.1937
 30.4029
 31.1257
 31.1617
 31.1237
 31.0227
 32.7318
 32.7367
 32.7427
 32.7152
 31.4161
 31.4168
 31.5246
 31.3604
 31.0222
 31.151
 31.1204
 31.1318
 31.0415
 30.6871
 30.8617
 30.7064
 32.1163
 32.0969
 32.0385
 32.0292
 30.8555
 30.8306
 30.8479
 30.9713
 31.8355
 31.7572
 31.9081
 31.7067
 30.8271
 30.9491
 30.832
 30.8174
 32.7902
 32.7604
 32.7444
 32.8727
 31.1459
 30.9954
 31.1723
 31.0222
 32.5985
 32.5577
 32.6454
 32.5892
 32.4126
 32.3552
 32.3318
 32.3899
 31.1452
 31.215
 31.27
 31.095
 30.0146
 30.0902
 30.0877
 30.0298
 32.5926
 32.6992
 32.7246
 32.7552
 32.6134
 32.5859
 32.5567
 32.6069
 31.669
 31.7618
 31.763
 31.7359
 31.298
 31.2073
 31.2599
 31.1892
 32.7241
 32.8561
 32.7941
 32.7582
 32.5984
 32.7865
 32.8122
 32.6685
 31.4087
 31.3984
 31.5456
 31.5176
 31.4802
 31.409
 31.5
 31.4477
 30.3909
 30.2876
 30.2012
 30.3788
 32.7349
 32.7796
 32.7096
 32.744
 30.5365
 30.4042
 30.4168
 30.5199
 32.7901
 32.8048
 32.9173
 32.9212
 26.8818
 26.9182
 27.155
 27.1705
 30.758
 30.7404
 30.6456
 30.7216
 31.7002
 31.6464
 31.7548
 31.8397
 30.8992
 30.8767
 30.9572
 30.951
 32.2593
 32.4069
 32.4134
 32.2876
 32.5867
 32.6017
 32.5836
 32.6135
 31.2435
 31.3614
 31.3677
 31.3133
 32.6591
 32.7086
 32.6747
 32.6714
 32.8279
 32.8848
 32.8417
 32.9092
 29.7704
 29.5075
 29.6195
 29.5782
 31.9451
 31.893
 31.8428
 31.8193
 32.293
 32.3138
 32.1315
 32.2794
 31.8812
 32.0659
 31.8658
 31.8423
 32.6142
 32.5701
 32.5584
 32.6284
 30.4156
 30.3823
 30.3401
 30.5454
 30.3841
 30.2378
 30.38
 30.4029
 31.6972
 31.6989
 31.589
 31.5676
 23.4425
 23.4884
 23.5215
 23.7484
 32.3075
 32.3239
 32.3082
 32.4192
 32.2829
 32.2717
 32.3983
 32.2814
 32.3228
 32.2756
 32.4229
 32.3864
 31.2073
 31.2324
 31.1044
 31.2511
 30.8609
 31.1227
 30.6082
 30.8329
 29.1642
 29.1082
 28.7849
 28.7254
 30.9083
 30.9792
 30.9336
 31.0477
 32.7898
 32.7361
 32.8127
 32.7999
 32.5551
 32.5639
 32.5499
 32.5408
 31.4852
 31.5184
 31.586
 31.6175
 32.5692
 32.589
 32.6004
 32.5707
 31.1143
 31.1958
 31.1528
 31.0807
 32.7148
 32.8063
 32.7565
 32.8127
 32.6618
 32.5456
 32.623
 32.7053
 32.5671
 32.5582
 32.711
 32.6217
 32.4437
 32.4047
 32.3638
 32.3306
 31.0089
 30.9684
 30.9769
 31.0347
 31.5556
 31.4562
 31.4017
 31.4977
 32.6276
 32.6072
 32.648
 32.7546
 33.0101
 32.9869
 32.9905
 33.017
 30.7111
 30.6705
 30.5976
 30.649
 31.2353
 31.342
 31.2852
 31.294
 32.2273
 32.2433
 32.2838
 32.2458
 32.6261
 32.6446
 32.6093
 32.695
 31.5151
 32.0308
 32.0292
 31.8065
 31.7062
 31.8491
 31.8881
 31.8016
 32.7979
 32.7416
 32.7803
 32.6206
 30.8024
 30.9267
 30.9092
 30.8166
 31.9117
 31.7549
 31.8214
 31.8808
 31.2732
 31.3203
 31.3706
 31.2702
 31.4536
 31.5714
 31.5592
 31.4844
 32.4144
 32.4459
 32.4037
 32.3548
 32.6927
 32.6574
 32.6869
 32.6673
 32.0344
 32.2386
 31.9592
 32.1808
 32.5415
 32.4205
 32.5676
 32.4042
 32.6429
 32.6007
 32.5721
 32.5051
 32.5176
 32.48
 32.4411
 32.6474
 32.5016
 32.3106
 32.4609
 32.4334
 32.42
 32.5069
 32.4184
 32.514
 31.8505
 31.8984
 31.7901
 31.8065
 31.0035
 30.705
 30.6505
 30.5782
 32.1259
 32.0906
 32.1343
 32.0353
 32.6795
 32.6224
 32.6362
 32.6218
 32.5434
 32.5316
 32.5184
 32.5116
 30.5546
 30.7378
 30.5932
 30.6604
 32.2212
 32.2495
 32.2275
 32.3075
 32.5711
 32.4963
 32.5179
 32.4485
 32.5225
 32.5586
 32.5102
 32.4611
 32.6671
 32.6262
 32.645
 32.6559
 32.4211
 32.5249
 32.4602
 32.5496
 30.7097
 30.4934
 30.6756
 30.8752
 32.5751
 32.5389
 32.5407
 32.543
 31.6637
 31.7076
 31.6208
 31.7153
 31.6029
 31.5859
 31.5603
 31.5762
 30.6315
 30.8123
 30.6741
 30.7391
 32.5784
 32.5714
 32.5341
 32.5691
 32.8633
 32.8527
 32.8996
 32.8446
 30.436
 30.6178
 30.4787
 30.5121
 32.8584
 32.9237
 32.9275
 32.8605
 31.0538
 31.0814
 30.9697
 31.1104
 32.0497
 31.9286
 31.9886
 31.9063
 32.5398
 32.6661
 32.5131
 32.5827
 32.6376
 32.65
 32.6507
 32.6274
 32.4508
 32.4095
 32.2871
 32.4049
 31.0416
 31.0594
 31.0093
 31.0115
 26.7869
 26.9216
 26.9563
 26.4229
 32.5889
 32.5669
 32.5673
 32.6276
 32.6474
 32.592
 32.6361
 32.591
 32.6631
 32.6382
 32.6806
 32.6464
 32.5829
 32.6144
 32.5902
 32.6075
 32.9208
 33.0198
 33.0274
 32.9752
 30.3273
 30.3678
 30.2179
 30.3921
 32.6274
 32.5971
 32.5935
 32.6567
 31.8756
 31.9216
 31.8736
 32.0072
 32.3424
 31.0695
 31.1833
 31.1834
 31.227
 31.9287
 31.8388
 31.7673
 31.8495
 32.2689
 32.4263
 32.477
 32.4056
 32.6032
 32.6165
 32.5864
 32.5671
 32.7559
 32.839
 32.8309
 32.9226
 30.8806
 31.0027
 30.9687
 30.9509
 32.6837
 32.7558
 32.716
 32.6742
 30.6675
 30.654
 30.7453
 30.7473
 31.5368
 31.4831
 31.5556
 31.4429
 32.4724
 32.6011
 32.5208
 32.6984
 32.7984
 32.7519
 32.7763
 32.8139
 31.9845
 31.8989
 31.8823
 31.9429
 32.4777
 32.5434
 32.396
 32.8729
 32.8595
 32.7912
 32.9027
 31.7327
 31.9113
 31.769
 31.8576
 32.8891
 33.0374
 32.9303
 33.0433
 32.5001
 32.6153
 32.5419
 32.5134
 30.7309
 30.7346
 30.8989
 30.7625
 32.6407
 32.6604
 32.6634
 32.6581
 31.1531
 31.3248
 31.2096
 31.1485
 32.236
 32.2993
 32.2462
 32.3411
 31.2619
 31.3183
 31.3969
 31.348
 30.8732
 30.8707
 30.7464
 30.8151
 32.4981
 32.5065
 32.4644
 32.4628
 26.8983
 27.6311
 27.4344
 27.9449
 30.1082
 30.1619
 30.1915
 30.1778
 31.6409
 31.7453
 31.7166
 31.6287
 32.8232
 32.7961
 32.8488
 32.8168
 32.5575
 32.509
 32.5098
 32.5636
 31.6263
 31.673
 31.7778
 31.529
 30.7932
 30.6811
 30.5617
 30.643
 32.6979
 32.6488
 32.6495
 32.6424
 31.8791
 31.7836
 31.9075
 31.8385
 32.7692
 32.6351
 32.7509
 32.7
 30.0595
 30.0934
 30.0801
 30.1948
 30.2399
 30.238
 30.3321
 30.3568
 31.3275
 31.4117
 31.477
 31.2615
 31.8349
 31.8604
 31.886
 31.9953
 31.8983
 32.6966
 32.7601
 32.645
 32.7378
 32.7255
 32.7266
 32.7489
 32.7863
 31.6306
 31.5394
 31.5327
 31.514
 32.5821
 32.6028
 32.6552
 32.574
 32.8285
 32.8961
 32.8482
 32.8204
 31.4385
 31.3878
 31.3872
 31.5264
 32.5751
 32.4821
 32.5533
 32.51
 31.6281
 31.6195
 31.6493
 31.533
 32.5969
 32.5388
 32.5575
 32.7182
 32.6389
 32.6388
 32.6215
 32.6126
 32.4468
 32.3884
 32.4631
 32.4113
 31.9551
 31.8459
 31.89
 31.7843
 31.2332
 31.2905
 31.1152
 31.1591
 31.9067
 31.9209
 31.9755
 31.9552
 32.0277
 31.9277
 31.9605
 31.9415
 32.5207
 32.4998
 32.519
 32.5341
 31.8145
 31.8378
 31.7544
 31.8237
 32.5206
 32.5157
 32.4161
 32.4737
 32.2029
 32.2375
 32.273
 32.2401
 32.8332
 32.8759
 32.8791
 32.8521
 32.6552
 32.6863
 32.6531
 32.6256
 31.4072
 31.464
 31.4122
 31.3543
 32.6437
 32.5724
 32.5533
 32.7565
 30.3954
 30.3989
 30.2442
 30.3429
 31.2775
 31.3801
 31.2387
 31.293
 31.3044
 31.2792
 31.2457
 31.3083
 30.8977
 30.9771
 30.9786
 30.8346
 31.4746
 31.4499
 31.5454
 31.4579
 31.5542
 31.3763
 31.0939
 32.0756
 32.1877
 32.0934
 32.0863
 31.3255
 31.3944
 31.4188
 31.3694
 32.6484
 32.6656
 32.6656
 32.6381
 32.812
 32.7216
 32.8318
 32.7388
 31.5871
 31.56
 31.5049
 31.6614
 32.4611
 32.5071
 32.4837
 32.3809
 32.7679
 32.7407
 32.8403
 32.7967
 30.3988
 30.2402
 31.7786
 31.7897
 31.8921
 31.8799
 32.4221
 32.4466
 32.4696
 32.0934
 32.063
 32.062
 32.1656
 31.8535
 31.8941
 32.0408
 32.0154
 31.1607
 31.0927
 31.0872
 31.2258
 32.0976
 32.1205
 32.1762
 32.1602
 32.6662
 32.6802
 32.6349
 32.6206
 32.0338
 32.1102
 32.0869
 32.0303
 32.8365
 32.768
 32.842
 32.7358
 32.499
 32.7164
 32.5626
 32.5729
 32.352
 32.314
 32.2287
 32.2969
 32.4698
 32.3899
 32.5696
 32.5291
 32.2125
 32.2557
 32.2264
 32.2606
 31.0142
 31.049
 31.1583
 31.1742
 32.5354
 32.6016
 32.5737
 32.5537
 30.0398
 30.3232
 29.9427
 30.1269
 31.8309
 32.0266
 31.9366
 31.811
 32.4047
 32.3669
 32.4568
 32.3755
 32.4929
 32.542
 32.5532
 32.5931
 32.4142
 32.4533
 32.3858
 32.3881
 30.9338
 30.9836
 30.9287
 30.9445
 32.7918
 32.8255
 32.8446
 32.8803
 32.1581
 32.1499
 32.1581
 32.2422
 32.7383
 32.5977
 32.6574
 32.5714
 31.5541
 31.4755
 31.4702
 31.4123
 31.1562
 31.1377
 31.0901
 31.1981
 32.6642
 32.7308
 32.7186
 32.7052
 32.5302
 32.4962
 32.5123
 32.5311
 31.8514
 31.8638
 32.0218
 31.8943
 32.412
 32.4713
 32.4303
 32.4432
 27.0108
 26.7052
 26.689
 26.9293
 32.0969
 32.1572
 32.2183
 32.1681
 25.9188
 25.7548
 25.9181
 26.2584
 26.8222
 27.3309
 27.2933
 27.0086
 32.3111
 32.3924
 32.318
 32.266
 31.8549
 31.9014
 31.9781
 31.9863
 31.8826
 31.7689
 31.7802
 31.6971
 31.6774
 31.7915
 31.7039
 31.8163
 31.8494
 31.9353
 31.9155
 31.8091
 30.9468
 30.8116
 30.8563
 31.0442
 32.7423
 32.7607
 32.7634
 32.735
 32.6339
 32.7975
 32.8136
 32.6233
 32.4969
 32.4396
 32.5066
 32.3977
 31.9023
 31.9663
 31.9094
 31.929
 31.6341
 31.6127
 31.6715
 31.5641
 32.8819
 32.9144
 32.928
 32.8859
 31.7846
 32.5714
 32.5852
 32.5189
 32.5657
 30.2646
 30.2604
 30.1339
 30.2064
 32.4824
 32.5014
 32.4439
 32.493
 30.8574
 30.7608
 30.8415
 32.8599
 32.7906
 32.8457
 32.8822
 28.2777
 28.782
 28.3877
 28.8024
 32.4993
 32.5047
 32.4324
 32.5432
 32.8187
 32.8126
 32.9108
 32.84
 32.7139
 32.6481
 32.7184
 32.7887
 32.8657
 32.8357
 32.8698
 32.8563
 31.7153
 31.5277
 31.6229
 31.7579
 32.0311
 32.0256
 31.945
 31.8275
 32.585
 32.5077
 32.5497
 32.555
 32.8696
 32.7617
 32.7945
 32.7635
 32.5075
 32.6037
 32.4006
 31.2483
 31.3357
 31.3612
 32.8789
 32.8717
 32.8155
 32.7767
 31.9312
 31.9256
 31.934
 31.9698
 32.5441
 32.5688
 32.5068
 32.5554
 32.1387
 31.9649
 32.097
 31.8789
 31.4518
 31.2785
 31.3978
 31.3814
 31.2578
 31.2374
 31.1939
 31.1422
 32.4707
 32.4635
 32.4631
 32.4828
 31.4543
 31.2874
 31.4877
 31.5756
 32.2195
 32.3126
 32.2395
 32.3111
 30.5081
 30.5888
 30.4183
 30.562
 32.1602
 32.1421
 32.1307
 32.1611
 31.6814
 31.7757
 31.7691
 31.6646
 29.5801
 29.2385
 29.4587
 29.2929
 31.551
 31.4387
 31.5942
 31.3573
 32.6168
 32.6546
 32.5918
 32.7292
 31.4259
 31.428
 31.2977
 31.3308
 32.6585
 32.6871
 32.6405
 32.674
 32.5836
 32.6088
 32.5826
 32.633
 32.7063
 32.725
 32.7433
 32.7059
 32.9062
 32.9953
 32.9679
 32.8343
 32.1492
 32.1027
 32.1685
 32.2314
 32.4785
 32.5335
 32.4875
 32.4811
 31.315
 31.4505
 31.4518
 31.3487
 30.3292
 30.233
 30.4535
 30.4876
 32.3811
 32.3856
 32.4269
 32.387
 31.0376
 31.0729
 31.1122
 30.9752
 31.6387
 31.4652
 31.4379
 31.4994
 31.1201
 31.0657
 30.8071
 31.1632
 32.5969
 32.6753
 32.6643
 32.6554
 32.5642
 32.6241
 32.6303
 32.5769
 32.0878
 32.0343
 31.9798
 31.8631
 31.9872
 31.8649
 31.8891
 31.972
 31.4379
 31.2498
 31.3503
 31.3112
 32.0241
 32.2718
 32.1012
 32.0145
 32.3079
 32.257
 32.3268
 32.2831
 32.6429
 32.6777
 32.6856
 32.7035
 27.2634
 27.6364
 27.6846
 27.2567
 32.6358
 32.6467
 32.6479
 32.6181
 32.3952
 32.3615
 32.379
 32.335
 31.7481
 31.6902
 31.7435
 31.6384
 32.855
 32.8359
 32.8677
 32.3587
 32.3645
 32.3834
 32.3801
 32.7264
 32.8515
 32.6471
 32.7355
 31.8067
 31.9069
 31.808
 31.8805
 31.7419
 31.5668
 31.7104
 31.6348
 30.8039
 30.8579
 30.8172
 30.9618
 32.6903
 32.8311
 32.7645
 32.7518
 30.4395
 30.4213
 30.3732
 30.4282
 32.6316
 32.6542
 32.6305
 32.6065
 32.5973
 32.5154
 32.5222
 32.4738
 32.4801
 32.5266
 32.559
 32.5847
 26.2972
 25.9226
 26.2657
 26.1488
 32.4872
 32.5102
 32.4876
 32.4702
 32.5007
 32.5799
 32.4584
 32.3569
 32.4397
 32.4235
 32.4048
 32.4901
 30.1209
 30.1381
 30.2477
 30.2135
 32.671
 32.6639
 32.6574
 32.656
 32.6717
 32.6904
 32.6867
 32.6739
 31.6418
 31.5121
 31.5982
 31.5727
 32.5036
 32.5318
 32.5061
 32.5416
 32.8801
 32.8786
 32.9282
 32.9149
 31.7616
 31.907
 31.7619
 31.9024
 31.8444
 31.8153
 31.9148
 31.821
 32.245
 32.2282
 32.1171
 32.1557
 32.648
 32.6572
 32.132
 32.1682
 32.076
 32.142
 32.6973
 32.6629
 32.739
 32.6728
 32.5522
 32.497
 32.4644
 32.4777
 30.8895
 30.9569
 30.9883
 30.896
 32.3611
 32.349
 32.3136
 32.3024
 31.5086
 31.4802
 31.4437
 31.5588
 32.8251
 32.8488
 32.8377
 32.8833
 32.645
 32.6748
 32.6762
 32.6867
 32.5653
 32.3571
 32.434
 32.5194
 32.9049
 32.8336
 32.801
 32.7775
 30.088
 30.0212
 29.9581
 29.7521
 30.6967
 30.7094
 30.7766
 30.7315
 32.0961
 32.0271
 32.174
 32.0346
 31.884
 31.8629
 31.9638
 31.9735
 30.0035
 29.9631
 30.3401
 30.0515
 32.0567
 31.9706
 32.0176
 32.0244
 32.7934
 32.8155
 32.8312
 32.7571
 32.654
 32.6622
 32.6338
 32.6518
 32.118
 32.093
 32.1655
 32.1798
 31.2212
 31.3131
 31.2058
 31.3369
 32.6259
 32.5929
 32.599
 32.5944
 32.4457
 32.4728
 32.4556
 32.4753
 31.1625
 31.0112
 31.0794
 30.9748
 32.788
 32.5755
 32.6758
 32.6166
 32.6019
 32.5066
 32.6011
 32.5072
 31.5016
 31.293
 31.3618
 31.3982
 32.2788
 32.2053
 32.1669
 32.1597
 32.3812
 32.3484
 32.3446
 32.2877
 30.7839
 30.7428
 30.6641
 30.6403
 31.2874
 31.2202
 31.2577
 31.2996
 32.1443
 32.1215
 32.2239
 32.1882
 32.584
 32.5541
 32.6393
 32.4798
 32.8704
 32.8614
 32.8879
 32.8028
 32.6257
 32.5935
 32.5976
 31.2801
 31.2709
 31.224
 31.1853
 29.6388
 29.4425
 29.2094
 29.1629
 31.5502
 31.6689
 31.6082
 31.6674
 32.7271
 32.7038
 32.7129
 32.703
 32.6936
 32.6249
 32.5836
 32.6019
 30.9444
 31.0503
 30.9774
 30.8574
 32.2907
 32.3401
 32.3068
 32.3647
 32.2846
 32.3023
 32.7741
 32.4933
 32.4318
 32.5778
 32.4911
 30.2856
 30.4904
 31.746
 31.7322
 31.7125
 32.082
 32.2399
 32.0501
 32.1569
 31.607
 31.7199
 31.6748
 31.6569
 32.4458
 32.4237
 32.4212
 32.4631
 32.6442
 32.6548
 32.6517
 32.6561
 30.9708
 30.9748
 30.8651
 30.9165
 32.3342
 32.462
 32.3758
 32.5242
 31.9613
 31.9724
 31.9211
 31.8803
 30.6512
 30.6356
 30.7724
 30.7573
 32.4759
 32.5457
 32.5202
 32.5563
 31.857
 32.0195
 31.9753
 31.9755
 32.5613
 32.5461
 32.6047
 32.7029
 30.259
 30.4318
 30.2916
 30.4332
 30.4495
 30.4139
 30.4726
 30.5852
 30.6134
 30.6953
 30.7344
 30.6133
 32.5336
 32.5698
 32.534
 32.5486
 32.0621
 32.171
 32.1261
 32.0874
 32.3977
 32.3762
 32.4445
 32.3919
 32.8789
 32.8094
 32.7912
 32.8917
 31.754
 31.7347
 31.718
 31.8501
 31.2237
 31.1198
 31.1815
 31.0903
 31.1072
 31.0645
 31.1511
 30.9683
 32.1331
 32.113
 32.1841
 32.0893
 32.4614
 32.465
 32.4769
 32.5076
 32.7664
 32.7033
 32.7582
 32.7315
 31.4688
 31.3862
 31.3663
 31.5096
 31.8929
 31.8918
 31.844
 32.2185
 31.503
 31.4513
 31.4991
 31.5028
 32.3217
 32.2067
 32.3259
 32.2246
 32.3287
 32.3991
 32.2826
 32.5128
 32.6724
 32.5471
 32.4437
 32.5038
 24.8774
 25.1692
 24.932
 24.8679
 32.5266
 32.4919
 32.5414
 32.5138
 31.4265
 31.4872
 31.3825
 31.3987
 32.6808
 32.6489
 32.6402
 32.7719
 32.0374
 31.9642
 32.1092
 32.0035
 32.0879
 32.0251
 31.9358
 31.9537
 31.622
 31.5696
 31.707
 31.6761
 31.8195
 31.5851
 31.6608
 31.7458
 31.7538
 31.7318
 31.6869
 31.6071
 31.3378
 31.1862
 31.1911
 31.2694
 31.7808
 31.9053
 32.0461
 31.9185
 32.6879
 32.6683
 32.7081
 32.7267
 32.3954
 32.4123
 32.3574
 32.3283
 32.4287
 32.343
 32.3633
 32.443
 32.6146
 32.6657
 32.6075
 32.6645
 31.9391
 32.053
 31.9376
 32.0403
 29.8025
 29.9562
 29.8554
 29.8325
 32.0918
 31.9424
 31.9743
 31.9203
 32.5036
 32.5223
 32.559
 32.4554
 32.4983
 32.4971
 32.5483
 32.5515
 32.2329
 32.1712
 32.2128
 32.2799
 30.4983
 30.4819
 30.5544
 30.5091
 31.3373
 31.4428
 31.3959
 32.059
 32.0156
 32.008
 32.0506
 32.6932
 32.7123
 32.6398
 32.6253
 32.5072
 32.5421
 32.5729
 32.4815
 31.174
 31.3389
 31.4301
 31.3229
 32.7621
 32.7161
 32.7564
 32.7279
 32.8478
 32.8542
 32.8491
 32.8082
 32.6754
 32.755
 32.7673
 32.6721
 31.833
 31.9341
 31.96
 31.9112
 32.3051
 32.3837
 32.3128
 32.4741
 32.0423
 32.1917
 32.1459
 32.1118
 32.5619
 32.5526
 32.5798
 32.5559
 32.638
 32.6196
 32.6042
 32.6435
 31.8356
 31.8945
 31.8108
 31.7196
 32.5247
 32.5298
 32.4818
 32.5591
 31.9591
 31.8166
 31.8439
 31.8741
 32.5153
 32.4878
 32.5243
 32.4735
 30.727
 30.7206
 30.8267
 30.7257
 32.7235
 32.6772
 32.6815
 32.6922
 32.6619
 32.6062
 32.6736
 32.6814
 31.4836
 31.4383
 31.3661
 31.3556
 32.9586
 32.9749
 32.9576
 32.9191
 31.9737
 32.048
 31.9843
 32.0812
 32.4727
 32.5753
 32.3653
 32.4378
 32.1866
 32.2207
 32.1964
 32.15
 30.8715
 30.7035
 30.8229
 30.7407
 32.122
 32.2874
 32.2773
 32.2626
 31.7184
 31.687
 31.6906
 31.7272
 32.0256
 32.0535
 31.9746
 31.9858
 31.9527
 31.9539
 31.8645
 31.8162
 30.5657
 30.5206
 30.4833
 30.6368
 32.7566
 32.6431
 32.7267
 32.623
 32.7097
 32.7395
 32.7682
 32.7554
 31.0501
 31.0246
 31.1066
 30.9542
 30.9733
 30.9114
 30.9823
 32.5856
 32.63
 32.6223
 32.5714
 32.1811
 32.0861
 32.1247
 32.1341
 31.8891
 31.877
 31.9546
 31.8638
 32.8019
 32.7486
 32.7528
 32.7225
 31.6466
 31.5843
 31.6009
 31.5651
 32.478
 32.544
 32.529
 32.4738
 32.239
 32.3676
 32.3062
 32.4049
 31.548
 31.4821
 31.4463
 31.4604
 32.6162
 32.5665
 32.6261
 32.6641
 32.8746
 32.935
 32.9902
 32.874
 30.5254
 30.6923
 30.5649
 30.6085
 32.6724
 32.6794
 32.6947
 32.7081
 32.6264
 32.5978
 32.5776
 32.6304
 32.441
 32.409
 32.4468
 32.358
 29.9854
 30.2148
 29.8804
 30.3567
 32.5065
 32.4738
 32.5087
 32.4989
 31.5054
 31.5924
 31.6181
 31.6295
 31.1887
 31.2483
 31.2255
 32.4792
 32.5124
 32.599
 32.5703
 32.6684
 32.6644
 32.683
 32.6715
 32.5182
 32.4922
 32.4292
 32.5311
 32.8419
 32.9194
 32.8294
 32.9198
 30.4589
 30.3694
 30.3376
 30.3718
 32.5701
 32.5342
 32.5492
 32.4757
 32.8623
 32.8982
 32.8693
 32.8747
 31.3037
 31.265
 31.3093
 31.3542
 32.6298
 32.6473
 32.6266
 32.6265
 32.7894
 32.7881
 31.9881
 32.1405
 32.1663
 30.9367
 31.1821
 31.2733
 31.0102
 32.517
 32.486
 32.5724
 32.4452
 32.3617
 32.3284
 32.4187
 32.3838
 30.9621
 30.9093
 31.029
 31.0508
 30.8185
 30.8602
 30.6862
 30.849
 32.6614
 32.5365
 32.5183
 32.6174
 32.3017
 32.1604
 32.214
 32.1277
 31.954
 31.892
 31.846
 31.8916
 32.4568
 32.3606
 32.4034
 32.3228
 32.7639
 32.7351
 32.7603
 32.7903
 32.2458
 32.2834
 32.3215
 32.1655
 32.5405
 32.5408
 32.5306
 32.5644
 31.054
 31.0972
 31.0444
 31.0072
 33.073
 33.0521
 32.9787
 33.0481
 31.109
 31.2346
 31.1988
 31.0525
 30.772
 30.8363
 30.8917
 30.7888
 30.9911
 31.0368
 31.0156
 31.0479
 32.6156
 32.587
 31.7871
 31.7773
 31.8783
 31.8423
 32.7558
 32.8587
 32.7705
 32.7848
 31.4566
 31.2915
 31.3559
 31.3141
 31.031
 31.1934
 31.0138
 31.1523
 32.5907
 32.6289
 32.5805
 32.6149
 32.2666
 32.2224
 32.181
 32.2316
 32.6483
 32.6506
 32.6301
 32.6542
 32.5568
 32.4904
 32.5197
 32.4186
 27.8963
 28.5843
 27.8292
 28.286
 30.8346
 30.8903
 30.7544
 30.8808
 32.7311
 32.9199
 32.7932
 32.9182
 32.2189
 32.1787
 32.1756
 32.293
 32.5049
 32.5065
 32.4657
 32.3705
 32.4881
 32.5299
 32.3311
 32.6216
 32.7786
 32.838
 32.8425
 32.8345
 31.7887
 31.829
 31.6954
 31.8521
 32.2286
 32.2648
 32.2794
 32.2498
 30.9874
 30.7949
 30.9966
 32.5574
 32.4453
 32.7252
 32.5534
 27.6799
 27.3214
 27.4455
 27.216
 30.3396
 30.292
 30.2628
 30.372
 32.3419
 32.3469
 32.2995
 32.3478
 31.6517
 31.7291
 31.8267
 31.7207
 32.6872
 32.7288
 32.583
 32.6759
 32.5329
 32.5393
 32.6589
 32.6651
 32.8068
 32.7124
 32.7038
 32.6954
 30.8942
 30.9396
 30.8392
 30.7954
 32.4909
 32.5311
 32.5608
 32.5448
 30.4091
 30.4299
 30.3958
 30.4922
 31.6759
 31.7628
 31.7628
 31.6689
 32.5312
 32.5238
 32.5613
 32.5507
 29.5976
 29.9129
 30.1651
 29.5376
 32.6302
 32.7229
 32.7086
 32.6951
 32.254
 32.2776
 32.2035
 32.3206
 31.5407
 31.5752
 31.6041
 31.7039
 27.9312
 27.5278
 28.1325
 27.8168
 32.4939
 32.557
 32.4594
 32.4534
 30.5457
 30.5835
 30.6286
 30.5963
 31.4259
 31.3038
 31.3447
 31.3742
 31.1569
 31.2319
 31.1184
 31.2654
 31.1343
 31.2485
 31.2535
 31.2212
 31.3189
 31.1941
 31.2831
 31.2816
 32.0811
 32.0609
 32.0855
 32.0765
 32.8211
 32.6646
 32.6713
 32.679
 32.6627
 31.9579
 32.1517
 32.0819
 32.0285
 31.9745
 31.9352
 32.0538
 32.0839
 31.9027
 31.9851
 31.8705
 31.8891
 31.1709
 31.1852
 31.2456
 31.1998
 31.521
 31.4683
 31.3437
 31.4016
 32.7503
 32.7427
 32.758
 32.7592
 32.7622
 32.7906
 32.666
 32.6511
 32.6414
 32.6465
 32.768
 32.7177
 32.6602
 32.7473
 31.878
 31.7727
 31.7938
 31.9191
 30.6389
 30.6289
 30.6906
 30.617
 32.3717
 32.4056
 32.366
 32.4293
 30.8093
 30.9826
 31.019
 31.0444
 32.5121
 32.5473
 32.544
 32.4705
 31.7926
 31.8916
 31.9325
 31.9112
 32.4439
 32.4312
 32.4623
 32.3904
 32.204
 32.0847
 32.2286
 32.1167
 32.1974
 32.0777
 32.0186
 32.2058
 32.6373
 32.6427
 32.5885
 32.6472
 32.638
 32.6657
 32.5875
 32.5962
 32.4658
 32.4781
 32.5384
 32.6286
 32.0771
 32.0482
 32.0889
 32.0507
 32.0695
 32.1848
 32.2587
 32.2083
 31.7432
 31.859
 31.8372
 31.73
 32.8476
 32.9089
 32.8412
 32.8161
 31.8011
 31.8047
 31.7955
 31.8522
 30.823
 30.9279
 30.857
 30.8808
 30.7721
 30.8661
 30.829
 30.8037
 30.8024
 30.7382
 30.9061
 30.3952
 30.3333
 30.2871
 30.2219
 31.2308
 31.3527
 31.4379
 31.2943
 32.2381
 32.2498
 32.2029
 32.2146
 30.6147
 30.6784
 30.7416
 30.6371
 32.3228
 32.3355
 32.368
 32.375
 31.9608
 31.8957
 31.9157
 31.1436
 31.0201
 31.0857
 31.0896
 31.025
 31.1617
 31.0997
 32.1177
 32.0996
 32.0657
 32.0578
 32.85
 32.7587
 32.8292
 32.7736
 31.8035
 31.8796
 31.9093
 31.916
 30.7992
 30.7219
 30.7981
 30.841
 32.6846
 32.7602
 32.8208
 32.8172
 32.4244
 32.439
 32.4799
 32.4854
 32.3671
 32.2111
 32.2986
 32.3624
 31.584
 31.717
 31.6627
 31.6828
 32.9227
 32.9803
 33.0094
 32.9657
 32.7932
 32.8217
 32.7888
 32.6619
 32.6078
 32.6141
 32.6125
 32.5483
 30.3213
 30.377
 30.3877
 30.3935
 32.6752
 32.663
 32.6675
 32.6756
 32.6079
 32.7517
 32.7366
 32.6595
 31.9103
 32.0103
 31.8982
 31.9381
 32.7241
 32.6151
 32.6477
 32.531
 32.5627
 32.5471
 32.0627
 32.1434
 32.0104
 32.1012
 32.8093
 32.8871
 32.7371
 32.7687
 32.8929
 32.8472
 32.8249
 32.8976
 31.7697
 31.767
 31.7893
 32.4895
 32.4576
 31.0235
 31.0122
 30.8795
 30.859
 31.8232
 31.7166
 31.7164
 31.7216
 32.3285
 32.4245
 32.2071
 32.4743
 30.7208
 30.626
 30.4028
 30.7571
 32.7109
 32.7864
 32.7945
 32.7206
 31.0535
 31.0608
 30.9898
 31.0344
 31.5874
 31.6733
 31.6907
 31.6736
 32.6039
 32.5218
 32.5615
 32.5381
 32.6771
 32.7014
 32.6491
 32.9019
 32.9239
 32.8479
 32.8277
 32.94
 32.9404
 32.9721
 32.9846
 32.8757
 32.9316
 32.9897
 32.9051
 32.7103
 32.6991
 32.7816
 32.7681
 30.8005
 30.6882
 30.7751
 30.7373
 30.7017
 30.614
 30.795
 32.4283
 32.474
 32.4141
 32.4771
 32.6977
 32.7349
 32.7026
 32.6823
 30.3703
 30.2759
 32.6304
 32.6499
 32.6116
 32.5628
 32.3378
 32.2144
 32.2869
 32.2086
 31.959
 32.0084
 32.8923
 32.7807
 32.8317
 32.8862
 30.7543
 30.6756
 30.7907
 30.6148
 30.4893
 30.5719
 30.5058
 30.3638
 32.491
 32.4644
 32.4797
 32.1008
 32.1743
 32.1363
 32.7908
 32.7445
 32.7992
 32.8268
 31.5173
 31.608
 31.4384
 31.5694
 32.5537
 32.5244
 32.6071
 32.5659
 32.5563
 32.5797
 32.5758
 32.5523
 31.9342
 31.9146
 31.8849
 31.7708
 28.6909
 28.9024
 28.6779
 28.3182
 31.5762
 31.5931
 31.4516
 31.4548
 31.6555
 31.6596
 31.5884
 31.5641
 32.7653
 32.6833
 32.6359
 32.7278
 31.0861
 30.9986
 30.9862
 31.1043
 27.8803
 27.3001
 27.3153
 26.9019
 30.8145
 30.9762
 30.9838
 30.9528
 31.085
 31.2466
 32.7912
 32.7275
 32.7158
 32.7083
 32.6544
 32.6201
 32.6802
 32.6864
 31.1589
 31.0499
 31.048
 31.1038
 32.6538
 32.6655
 32.6603
 32.6638
 30.2851
 30.3378
 30.3125
 32.7392
 32.8124
 32.685
 32.6306
 32.7187
 32.6859
 30.8641
 30.7773
 30.8319
 30.876
 32.7229
 32.7794
 32.7935
 32.7096
 31.1121
 31.0996
 32.5736
 32.6091
 32.5493
 32.5235
 32.464
 32.353
 32.389
 32.3693
 33.0219
 32.9573
 32.7262
 32.6406
 32.5973
 32.6546
 32.6961
 32.6625
 32.6544
 32.747
 30.4596
 30.359
 30.5234
 30.4865
 32.6575
 32.6666
 32.6921
 31.3896
 27.7131
 27.7772
 27.7197
 27.5087
 31.0763
 30.989
 30.975
 31.1504
 32.6397
 32.6395
 32.6187
 32.627
 31.4749
 31.5742
 31.5318
 31.4732
 32.5849
 32.6331
 32.6413
 32.5877
 31.8724
 31.9656
 31.9826
 31.9921
 31.9931
 31.7788
 31.8276
 31.827
 31.9081
 31.1776
 31.1691
 31.0536
 31.2722
 31.3326
 31.4731
 31.3328
 31.0198
 30.8549
 31.0021
 30.9417
 32.9221
 32.9707
 32.9977
 33.0059
 30.8184
 30.8069
 30.8367
 30.7355
 32.3557
 32.4055
 32.3767
 32.2712
 30.9102
 30.8459
 30.8354
 30.8324
 32.4801
 32.507
 32.5217
 32.5249
 31.6387
 31.5839
 31.5436
 31.5253
 31.9861
 32.0297
 32.0518
 32.0636
 30.7561
 30.8848
 32.4963
 32.5885
 32.5635
 32.5137
 32.0894
 31.9597
 32.1855
 31.9735
 32.634
 32.5793
 32.6833
 32.6068
 32.0491
 31.9883
 31.9276
 31.9507
 31.5803
 31.5826
 31.5857
 31.4609
 31.3508
 31.4495
 31.3823
 31.337
 30.954
 31.0713
 31.0609
 31.1384
 31.3739
 31.308
 31.3503
 31.4228
 32.3838
 32.5341
 32.5313
 32.4443
 32.7522
 32.6867
 32.7108
 32.7669
 30.3099
 30.4057
 30.4614
 30.443
 32.1703
 32.0637
 32.1415
 31.9742
 32.5689
 32.5151
 32.505
 32.6014
 29.4389
 29.4232
 29.7791
 29.3524
 31.0688
 31.0103
 31.0979
 30.9306
 32.6963
 32.6487
 32.6427
 32.6388
 32.6823
 32.6419
 32.691
 32.696
 32.2752
 32.1816
 32.2343
 32.3453
 31.9755
 32.0373
 32.0011
 32.0048
 30.8477
 30.8416
 30.8854
 30.8429
 32.0298
 32.1587
 32.0993
 32.121
 32.7837
 32.6694
 32.6552
 32.7083
 32.3547
 32.3926
 32.4503
 32.2668
 30.8038
 31.7019
 31.6394
 31.7598
 31.6174
 32.4956
 32.5235
 32.5716
 32.4588
 31.4034
 31.341
 31.3846
 31.2539
 32.5468
 32.6896
 32.5809
 32.6374
 32.1861
 32.0851
 32.2065
 32.1185
 32.2017
 32.1299
 32.0005
 31.2106
 31.3781
 31.281
 31.3318
 32.4823
 32.4721
 32.497
 32.4677
 29.9842
 30.0429
 30.0073
 29.9305
 32.9226
 32.9577
 32.9012
 32.9602
 30.6154
 31.2108
 31.2141
 30.9658
 32.2568
 32.2402
 32.3543
 32.2132
 30.3174
 30.4136
 30.4327
 30.5043
 30.6933
 30.726
 30.6834
 30.6545
 32.4774
 32.4277
 32.4335
 32.4031
 32.936
 33.0335
 33.0293
 32.4294
 32.3971
 32.4904
 32.4589
 31.7679
 31.8634
 31.6615
 31.7488
 32.1209
 31.9865
 32.0322
 32.0718
 32.3261
 32.3064
 32.1751
 32.2341
 30.1995
 30.266
 30.2788
 30.3208
 32.6028
 32.5346
 32.6432
 32.6022
 32.0963
 31.6562
 31.8497
 31.4712
 31.5338
 31.5765
 31.6643
 31.2463
 31.1423
 31.169
 31.207
 32.8422
 32.8415
 32.8411
 32.6059
 32.6002
 32.6506
 32.5591
 30.9378
 30.9837
 30.8564
 31.0132
 32.4196
 32.4322
 32.3658
 32.4051
 32.8213
 32.8074
 32.8498
 32.9319
 32.41
 32.4308
 32.4426
 32.3979
 31.2624
 31.2453
 31.3346
 31.2686
 32.8209
 32.8387
 32.8215
 32.8278
 32.4179
 32.5351
 32.5685
 32.4328
 32.6682
 32.6078
 32.6568
 30.7816
 30.8016
 30.8428
 30.8972
 32.2952
 32.3611
 32.3559
 32.257
 30.2857
 30.3243
 30.1593
 32.2575
 32.1928
 32.2449
 32.2577
 32.4314
 32.5354
 32.3349
 32.4189
 32.2481
 32.212
 32.1348
 32.074
 32.4605
 32.3162
 32.4898
 32.9145
 32.9522
 32.8419
 32.7185
 32.4758
 32.5455
 32.5076
 32.4926
 32.5919
 32.6451
 32.6303
 32.5908
 30.3329
 30.5236
 30.7201
 30.8119
 32.4543
 32.4372
 32.441
 32.4819
 32.7763
 32.7411
 32.7768
 32.7458
 30.7417
 30.9303
 30.888
 30.7075
 32.5274
 32.6356
 32.5258
 32.5675
 31.8963
 31.9138
 31.8696
 31.8051
 30.3016
 30.2645
 30.3135
 30.3762
 30.2794
 30.4378
 30.3593
 30.3516
 31.3782
 31.3232
 31.3368
 31.3671
 30.37
 30.2514
 30.2719
 30.4378
 30.9022
 30.9062
 30.9117
 30.2379
 30.397
 30.3591
 30.3631
 32.302
 32.2345
 32.2432
 32.2625
 32.5704
 32.7331
 32.7022
 32.7218
 32.6949
 32.6859
 32.6841
 32.6885
 32.6378
 32.607
 32.6493
 32.6367
 30.7032
 30.7619
 30.6653
 30.6507
 32.681
 32.658
 32.7746
 32.6834
 32.6977
 32.6488
 32.6271
 32.7264
 31.4764
 31.4994
 31.4189
 31.5679
 32.755
 32.7847
 32.7947
 32.6438
 31.5043
 31.5738
 31.6389
 32.2661
 32.178
 32.1631
 30.8463
 30.9637
 31.0135
 30.9444
 32.3989
 32.3597
 32.409
 32.3955
 31.8308
 31.9085
 31.8764
 31.7667
 32.6497
 32.7047
 32.6795
 32.6503
 30.2412
 30.3368
 30.6642
 30.7073
 30.7276
 30.5782
 32.3071
 32.2427
 32.1851
 32.1039
 31.834
 31.7757
 31.7317
 31.695
 32.9033
 32.9649
 33.0495
 32.9412
 26.0295
 25.258
 26.0172
 25.7975
 32.6411
 32.6207
 32.6069
 32.6219
 31.6342
 31.7481
 31.6319
 32.5586
 32.5767
 32.6667
 32.5813
 30.3386
 30.4763
 30.351
 30.4754
 32.9176
 32.8568
 32.8783
 32.8009
 31.9393
 31.8425
 31.8613
 31.9291
 32.342
 32.5156
 32.3348
 32.4162
 29.1851
 28.9622
 29.3045
 29.4605
 32.7164
 32.6994
 32.7088
 32.7249
 32.4477
 32.4688
 32.4285
 32.1675
 32.3362
 32.216
 32.2759
 32.7642
 32.8281
 32.7735
 31.4228
 31.4815
 31.3817
 31.3277
 31.4375
 31.2986
 31.4197
 31.3155
 31.6225
 31.7297
 31.6459
 31.6273
 30.5583
 30.7944
 30.7298
 30.6795
 31.3141
 31.3244
 31.192
 32.6157
 32.5436
 32.6075
 32.533
 31.4447
 31.5344
 31.8566
 31.9491
 31.9623
 31.945
 31.6819
 31.7065
 31.6662
 31.6248
 32.9825
 33.0145
 33.0069
 32.9891
 32.8825
 32.8135
 32.8225
 32.7462
 26.1132
 26.4781
 26.5028
 26.3943
 32.6574
 32.6865
 32.6635
 32.5561
 32.5577
 32.5654
 32.5304
 32.1394
 32.1462
 32.1896
 32.2009
 32.6717
 32.6382
 32.5768
 32.6259
 32.2516
 32.3344
 32.2305
 32.2426
 31.1789
 31.3573
 31.2418
 31.2846
 32.6641
 32.6215
 32.6575
 32.685
 30.9901
 30.9977
 31.021
 30.9248
 32.1896
 32.2262
 32.1698
 32.2157
 30.5756
 30.4786
 30.5737
 29.3218
 29.7854
 29.5332
 29.6311
 31.6742
 31.5164
 31.632
 31.6138
 32.3121
 32.3616
 32.3054
 32.3196
 32.7172
 32.5604
 32.5453
 32.5284
 32.5003
 32.5247
 32.5545
 32.5912
 32.5846
 30.861
 30.8225
 30.9293
 30.8655
 30.6502
 30.7146
 30.7859
 30.7854
 32.563
 32.6033
 32.642
 32.5361
 32.4585
 32.4802
 32.7692
 32.7551
 32.7595
 32.7733
 31.3736
 31.4832
 31.3099
 31.2943
 32.2139
 32.0744
 32.1947
 32.1203
 32.7647
 32.815
 32.8256
 32.8468
 32.6763
 32.6695
 32.6716
 32.6801
 32.307
 32.3305
 32.3709
 32.2077
 31.6259
 31.615
 31.6844
 31.7198
 31.4523
 31.4855
 31.5708
 31.4892
 27.8477
 27.6602
 27.5324
 27.3786
 32.658
 32.7588
 32.6797
 32.0439
 32.2033
 32.1068
 32.0351
 31.9767
 32.0938
 31.8894
 30.8223
 30.7488
 30.8047
 30.7014
 32.237
 32.8781
 32.8563
 32.8444
 32.8219
 31.8716
 31.9067
 31.9808
 31.9613
 31.2257
 31.3531
 31.3557
 31.217
 31.3914
 31.3976
 32.7536
 32.8138
 32.7427
 32.7167
 32.157
 32.0383
 32.0586
 32.0742
 32.5113
 32.5822
 32.6271
 32.5837
 31.9618
 32.7788
 32.7683
 32.6513
 32.6328
 32.564
 32.5403
 32.5378
 32.563
 30.8134
 30.9506
 30.6729
 30.6059
 30.5387
 30.622
 30.9693
 30.7113
 30.8159
 30.9229
 31.3634
 31.3592
 31.505
 31.3422
 32.2023
 32.2648
 32.1646
 32.0723
 28.6511
 28.6909
 28.7867
 28.4526
 32.1786
 32.2038
 32.1504
 32.2205
 32.3661
 32.4549
 32.4816
 32.4853
 32.9244
 32.8865
 32.8137
 32.8545
 30.3749
 30.2501
 30.2361
 30.1884
 32.3352
 32.4034
 32.4565
 32.5896
 32.5486
 32.5198
 32.5861
 30.5845
 30.4503
 30.5449
 30.5252
 32.7574
 32.8219
 32.8076
 32.8939
 32.3489
 32.3186
 31.213
 31.246
 31.1596
 31.3206
 32.1603
 32.1171
 32.0317
 32.0111
 30.5801
 30.6329
 30.447
 30.5686
 32.4502
 32.3382
 32.9342
 32.9785
 32.9602
 32.9206
 32.6486
 32.6645
 32.6507
 32.6671
 31.1805
 31.1504
 31.2729
 31.2284
 31.4228
 31.4993
 31.3613
 31.3923
 31.4656
 31.573
 31.4722
 31.4389
 32.6912
 32.6788
 32.6888
 32.6806
 31.1236
 31.05
 31.1302
 31.2379
 30.349
 30.2163
 30.3127
 30.2516
 32.3718
 32.3981
 32.3996
 32.4619
 32.2596
 32.1041
 32.1631
 32.162
 32.861
 32.7752
 32.8367
 32.8101
 32.2532
 32.3748
 32.2114
 31.8448
 31.7455
 31.8276
 31.6677
 32.3682
 32.3264
 32.3449
 32.4072
 31.6632
 31.6165
 31.5745
 31.6986
 31.5732
 31.6155
 31.5824
 31.7198
 28.5007
 29.1302
 28.4956
 32.3207
 32.4317
 32.3776
 32.3464
 31.9909
 32.0431
 32.0171
 32.0378
 31.2541
 31.133
 31.2061
 31.1414
 32.7348
 32.8029
 32.7472
 32.6628
 32.6076
 32.6116
 32.0225
 32.0863
 32.0384
 32.0264
 32.2054
 32.0755
 32.0989
 32.0791
 29.8138
 29.8595
 29.9239
 29.7881
 32.1144
 32.0502
 32.0294
 31.7516
 31.5081
 31.5262
 32.5167
 32.5089
 32.4845
 32.5416
 31.6708
 31.6819
 31.6646
 31.624
 31.9572
 31.966
 31.9108
 31.9077
 32.5588
 32.5537
 32.5113
 32.5799
 31.8597
 31.7726
 31.7677
 31.7686
 32.5582
 32.5825
 32.5728
 32.6036
 32.6024
 32.6293
 32.5885
 32.6143
 31.1642
 31.1134
 31.0548
 30.8976
 32.1735
 32.1447
 32.08
 30.4357
 30.3021
 30.5617
 30.903
 30.8794
 30.8476
 30.7989
 30.9715
 31.0289
 31.053
 31.0553
 32.53
 32.5324
 32.5709
 32.4291
 30.8174
 30.7534
 30.7749
 30.7614
 30.4601
 30.2736
 30.4536
 30.2959
 32.4814
 32.4759
 32.3964
 32.4913
 31.084
 31.0202
 31.0049
 31.0079
 29.8654
 29.8213
 29.933
 29.7976
 31.486
 31.4457
 31.5221
 31.3634
 32.0479
 32.2108
 32.1331
 32.2149
 31.1674
 31.1097
 31.1934
 31.2101
 31.6936
 31.7119
 31.6742
 31.891
 31.818
 31.3509
 31.4458
 31.2837
 31.2587
 31.827
 31.7488
 31.7287
 31.8042
 31.3809
 31.4724
 31.5067
 31.5537
 31.6468
 31.5068
 31.8673
 31.7494
 31.9034
 31.8966
 31.8579
 31.9625
 32.6245
 32.6219
 32.6415
 32.6003
 31.6142
 31.5331
 31.5425
 31.5655
 32.4455
 32.4765
 32.2956
 32.2015
 32.2351
 32.3709
 30.4344
 30.3872
 30.3461
 30.4517
 32.7573
 32.8857
 32.7855
 32.8043
 30.8987
 30.9141
 31.0159
 30.9579
 32.2495
 32.2688
 32.3151
 32.1638
 30.9139
 30.7593
 30.8087
 30.7842
 31.891
 32.0024
 31.9203
 31.9409
 32.7975
 32.7811
 32.7096
 32.7785
 30.0403
 30.1022
 30.0856
 30.1761
 32.672
 32.6468
 32.6595
 32.6639
 32.4828
 32.6823
 32.5997
 32.527
 30.4659
 30.444
 30.5387
 30.4303
 32.5055
 32.6439
 32.6572
 32.6639
 31.2161
 31.1198
 31.1566
 31.2259
 31.1379
 31.1993
 31.1771
 32.6116
 32.763
 32.6663
 32.7418
 31.2752
 31.1518
 31.2146
 31.195
 32.6656
 32.7511
 32.7141
 32.7376
 31.07
 30.9982
 30.9972
 31.0644
 31.0902
 31.1273
 31.052
 31.1176
 32.6553
 32.6394
 32.602
 32.6078
 32.5938
 32.5843
 32.6071
 32.578
 24.1046
 24.317
 23.9772
 24.0789
 31.2034
 31.3448
 31.305
 31.8132
 32.0361
 32.0744
 31.8898
 30.7078
 30.7758
 30.7687
 30.7326
 32.7052
 31.0848
 31.1771
 31.1116
 31.0329
 31.0876
 31.1307
 31.1951
 27.9152
 27.4006
 27.5886
 27.8811
 27.0254
 27.1558
 26.9651
 26.8912
 30.6693
 30.7509
 30.6642
 30.6053
 32.6705
 32.6489
 32.6826
 32.655
 31.7011
 31.7562
 31.6388
 32.6534
 32.6651
 32.6487
 32.6695
 32.5039
 32.4844
 32.5193
 30.9669
 31.0452
 30.853
 32.2064
 32.1069
 32.0794
 32.1499
 32.7157
 32.7354
 32.7654
 32.7132
 32.5647
 32.5794
 32.5623
 32.5727
 31.8009
 31.7552
 31.7356
 32.4861
 32.4714
 32.2656
 32.3216
 32.8455
 32.7054
 32.6681
 32.6577
 32.5516
 32.5109
 32.665
 32.5797
 32.585
 32.6331
 32.6232
 32.6168
 32.6427
 32.6469
 32.6487
 30.8916
 30.9587
 30.9371
 30.9381
 32.6935
 32.7577
 32.6527
 32.6604
 32.6079
 32.7392
 31.9722
 32.058
 31.9852
 32.0843
 30.544
 30.8948
 30.8438
 30.8739
 30.901
 23.6161
 23.4718
 23.5111
 23.4984
 31.2702
 31.1694
 31.2417
 30.3504
 30.4149
 30.4226
 30.3738
 31.5003
 31.6468
 31.6476
 31.6364
 32.5533
 32.5652
 32.5771
 32.5555
 32.5899
 32.624
 32.7357
 32.5433
 30.2741
 30.3119
 30.347
 30.3524
 31.1788
 31.2446
 31.3268
 31.2467
 32.2114
 31.9545
 31.9557
 32.1778
 32.6306
 32.5886
 32.6041
 32.6546
 32.6618
 32.6434
 32.6046
 32.6293
 23.521
 23.522
 23.525
 23.5497
 32.6903
 32.6363
 32.6078
 32.6455
 31.3043
 31.1814
 31.3299
 31.2596
 32.072
 32.0804
 32.0023
 32.0862
 32.3744
 32.2718
 32.2044
 32.4418
 31.6247
 31.5308
 31.5972
 31.5722
 31.8381
 31.8984
 31.7634
 31.8961
 31.4825
 31.4755
 31.5406
 31.3896
 30.0078
 30.1693
 30.1171
 29.9693
 31.2362
 31.2812
 31.2963
 31.4616
 31.621
 31.6562
 31.7659
 31.6757
 31.7337
 32.1721
 32.1667
 32.2368
 32.1055
 30.6811
 30.7354
 30.7466
 30.7415
 32.4572
 32.4858
 32.4395
 32.4551
 32.1057
 32.0964
 32.0508
 32.1477
 32.2685
 32.3564
 32.3099
 32.2463
 32.7233
 32.7811
 32.7374
 32.809
 29.7658
 29.9828
 30.4801
 29.8725
 29.8911
 30.0304
 31.8926
 31.9383
 31.9486
 25.1798
 25.2129
 25.1356
 32.5942
 32.595
 32.6088
 32.6071
 31.5732
 31.6808
 31.4064
 31.347
 32.8063
 32.7743
 32.8009
 32.7022
 30.5808
 30.7228
 30.6595
 30.6427
 32.2399
 32.3354
 32.2825
 32.3672
 31.6783
 31.58
 31.5491
 31.4571
 31.856
 31.9732
 31.949
 32.1522
 31.6491
 31.5612
 31.6745
 31.6241
 32.3983
 32.4016
 31.1719
 31.3696
 31.1894
 31.3462
 31.393
 31.4554
 31.5127
 31.2827
 32.6503
 32.6722
 32.6409
 32.6858
 32.9626
 32.9873
 32.9858
 32.9498
 32.2088
 32.1749
 32.2184
 32.1723
 32.1582
 32.0637
 32.0171
 31.952
 32.6044
 32.5413
 32.4294
 32.7065
 31.3989
 31.5293
 31.569
 31.5563
 30.0706
 30.1233
 30.0587
 30.1172
 31.0696
 31.1235
 31.1324
 31.178
 29.9936
 29.9392
 30.0488
 29.9134
 30.9922
 30.8679
 30.9008
 30.8918
 32.3617
 32.2276
 32.3159
 32.2764
 31.6553
 31.7164
 32.3598
 32.2819
 32.3788
 32.3415
 32.6473
 32.6676
 32.6574
 32.6678
 31.354
 31.192
 31.1924
 31.2724
 32.3708
 32.3957
 32.36
 32.4399
 32.3688
 32.4197
 32.4277
 32.3977
 32.6172
 32.59
 32.6012
 32.6675
 32.7885
 32.6359
 32.7471
 32.676
 32.992
 32.9036
 33.018
 32.9931
 30.178
 30.2582
 30.0666
 30.068
 31.447
 31.3932
 31.483
 31.3976
 31.7817
 31.7886
 30.7508
 30.9677
 30.9242
 30.5938
 32.6822
 32.6583
 31.7713
 31.8396
 31.7611
 31.2395
 31.1908
 32.5683
 32.4951
 32.4987
 32.5658
 30.3735
 30.6756
 30.5592
 30.6487
 32.395
 32.5205
 32.5588
 32.553
 32.7354
 32.5244
 32.5468
 32.6076
 32.0665
 32.1321
 32.152
 32.1285
 31.4347
 31.4768
 31.4948
 31.4978
 32.6006
 32.6313
 32.5871
 32.5767
 32.301
 32.2662
 32.2518
 32.383
 32.0577
 32.1021
 32.1302
 32.0767
 32.3131
 32.2267
 32.1996
 32.1749
 32.0305
 32.1876
 32.06
 32.4317
 32.4719
 32.3997
 32.4154
 32.6229
 32.6009
 32.8231
 32.5512
 32.705
 32.6861
 32.7039
 32.6854
 30.6096
 30.6468
 30.5813
 30.5188
 32.7441
 32.7364
 32.5849
 32.6382
 32.4553
 32.4464
 32.3905
 32.4722
 32.4066
 32.2563
 32.3592
 32.2189
 32.5021
 32.51
 32.4929
 32.5954
 32.7467
 32.7166
 32.7567
 32.7476
 32.9728
 32.942
 32.9366
 32.9261
 31.0404
 30.9733
 30.9547
 30.9172
 32.3343
 32.3287
 32.3381
 32.2851
 31.5409
 31.4282
 31.5001
 31.5723
 32.8399
 32.921
 32.8424
 32.8551
 30.5327
 30.4989
 30.5144
 30.5095
 30.4809
 30.5032
 30.3557
 31.4707
 31.6792
 31.6429
 31.6191
 32.6803
 32.6587
 32.6639
 32.6807
 30.1609
 30.3122
 30.2854
 32.62
 32.7044
 32.5324
 32.6543
 31.0393
 31.0221
 31.2006
 31.172
 31.0818
 31.2265
 32.5487
 32.5608
 32.5459
 32.1583
 32.1978
 32.0626
 32.1194
 33.0097
 32.9065
 32.8504
 32.9248
 32.4191
 32.3074
 32.4772
 30.4833
 30.6338
 30.6132
 31.5319
 31.6642
 31.6792
 31.6066
 30.4665
 30.4805
 30.6181
 30.3712
 32.5413
 32.489
 32.4532
 32.5049
 30.7648
 30.7433
 30.706
 30.8302
 32.1242
 32.1206
 32.1657
 32.2495
 32.6997
 32.7998
 32.7596
 30.2625
 30.3512
 30.31
 30.1833
 31.8062
 32.1017
 31.9925
 32.0627
 32.0993
 31.7555
 31.7254
 31.8184
 32.6073
 32.6616
 32.6399
 32.6399
 32.6476
 32.5949
 32.7692
 32.8365
 32.7778
 32.7335
 32.3893
 32.3047
 32.3359
 32.292
 31.5546
 30.1458
 30.3053
 30.3132
 30.2017
 28.7324
 28.3046
 28.6535
 28.5579
 32.8505
 32.8143
 32.8187
 32.8329
 32.7645
 32.7469
 32.6673
 32.697
 32.6657
 32.7146
 31.4402
 31.5642
 31.5702
 31.4902
 31.3195
 31.3201
 31.4565
 31.2928
 32.6316
 32.749
 31.5974
 31.5323
 31.4061
 31.4846
 31.6526
 31.5431
 31.6422
 31.9965
 32.0922
 32.1398
 32.1567
 32.4819
 32.529
 32.4688
 32.5419
 31.466
 31.3091
 31.3417
 31.4554
 31.1683
 31.2053
 31.0638
 31.2297
 31.1995
 31.1031
 31.146
 31.4345
 31.4467
 31.3817
 31.4657
 32.5802
 32.5647
 32.5459
 32.5993
 31.5059
 31.5532
 31.6256
 31.628
 32.6019
 32.611
 32.6174
 32.6116
 31.1298
 31.2198
 31.2862
 31.2088
 31.8255
 31.9273
 31.9291
 31.8456
 32.8961
 32.8653
 32.8457
 32.8484
 31.8378
 31.9414
 31.84
 31.8439
 32.2217
 32.1889
 32.3009
 32.1719
 32.17
 32.0856
 32.1257
 32.0784
 31.7797
 31.6855
 31.7017
 30.9061
 30.884
 30.9584
 30.9407
 32.6405
 32.602
 32.6163
 32.625
 32.4583
 32.391
 32.3928
 32.4046
 32.0073
 31.8384
 31.7236
 31.8879
 32.884
 32.9857
 32.8875
 32.9676
 32.9875
 32.9629
 32.9491
 32.9202
 32.6222
 32.6862
 32.6872
 32.6575
 32.2577
 32.3046
 32.2745
 32.4051
 32.3894
 32.3724
 32.3929
 32.6429
 32.6712
 32.7402
 32.8093
 30.2207
 30.3553
 30.3577
 30.2454
 32.0637
 32.1006
 32.166
 32.2004
 31.1653
 31.1906
 31.2833
 31.2473
 32.0642
 32.0285
 32.1097
 32.1452
 31.7792
 31.7209
 31.8049
 31.7953
 32.7029
 32.7079
 32.7165
 32.7118
 32.4376
 32.2702
 32.4125
 32.3678
 30.971
 30.8891
 30.9324
 30.8938
 31.925
 31.9615
 31.8213
 31.8418
 32.8284
 32.8851
 32.9173
 32.8434
 30.8386
 30.7945
 30.8511
 30.7785
 32.5885
 32.6134
 32.885
 32.2942
 32.2571
 32.1886
 32.3079
 32.4686
 32.3748
 32.4703
 32.482
 30.9272
 30.8728
 31.1842
 32.5614
 32.6106
 32.6213
 32.6372
 32.0055
 31.8466
 31.926
 31.8048
 32.1044
 32.1014
 32.0954
 32.151
 30.8159
 30.7591
 30.7558
 30.7874
 32.6403
 32.6941
 32.6866
 32.7496
 32.7552
 32.684
 32.7209
 31.6179
 31.3198
 31.3871
 31.6797
 32.7131
 32.6917
 32.7489
 31.936
 31.7664
 31.9035
 32.5768
 32.579
 32.5412
 32.5466
 32.4523
 32.3616
 32.3764
 32.3355
 23.6211
 23.6468
 23.5916
 23.7532
 32.5128
 32.5221
 32.528
 32.665
 32.6763
 32.6641
 32.6506
 32.8107
 32.8125
 32.9043
 32.8586
 32.8251
 32.8861
 32.8908
 32.8279
 31.3877
 31.3403
 31.3926
 31.3126
 31.2334
 31.3454
 31.2845
 31.2098
 30.5198
 30.5134
 30.4479
 30.5965
 32.2044
 32.305
 32.2094
 32.1949
 32.5222
 32.4683
 32.5389
 32.5102
 32.7898
 32.8173
 32.087
 32.0942
 32.066
 32.1072
 32.6621
 32.63
 32.619
 32.4992
 32.5492
 32.6273
 32.6391
 32.6506
 32.6397
 30.5211
 30.4573
 30.6449
 30.6154
 30.6946
 30.7039
 30.7532
 30.725
 32.8602
 32.908
 32.9733
 32.8781
 32.5815
 32.5918
 31.9434
 31.9023
 31.9212
 31.8468
 33.0341
 32.9953
 32.9931
 32.9421
 32.6691
 32.7811
 32.6791
 29.8804
 29.8522
 29.9621
 32.2081
 32.1112
 32.1321
 32.1523
 30.8982
 30.805
 30.9386
 30.9824
 32.0937
 32.0302
 32.0067
 32.1226
 31.559
 31.47
 31.489
 31.5936
 32.5058
 32.552
 32.4855
 32.503
 32.8141
 32.7182
 32.8238
 32.7799
 32.063
 32.1397
 31.9681
 32.078
 32.6661
 32.6106
 32.6052
 32.665
 32.5506
 32.6577
 32.5813
 32.7445
 32.4559
 32.4792
 32.3665
 32.3296
 31.5023
 31.5018
 31.5739
 32.1325
 32.0588
 32.1067
 32.0674
 26.1699
 26.6097
 26.8773
 26.4859
 32.4879
 32.5565
 32.5015
 32.5122
 32.6747
 32.6542
 32.7167
 32.6347
 30.8117
 31.0188
 30.5076
 30.9569
 30.7739
 30.7423
 30.8668
 30.3662
 30.4705
 30.5692
 30.4896
 31.3192
 31.1587
 31.2411
 31.2229
 32.1981
 31.7714
 31.5948
 31.5837
 31.6814
 32.4278
 32.3651
 32.4743
 32.5094
 32.563
 32.3875
 32.516
 32.7095
 32.6861
 32.6417
 32.7122
 26.242
 25.7052
 26.1167
 25.495
 31.3325
 31.2646
 31.4464
 31.1539
 32.6946
 32.6978
 32.6842
 32.6573
 30.2167
 30.3723
 30.3105
 30.3359
 27.4584
 27.4458
 27.8323
 27.7744
 31.5488
 31.441
 31.5936
 31.4878
 32.4105
 32.362
 32.3038
 32.3858
 32.8265
 32.8892
 32.8283
 32.2532
 32.381
 32.3346
 32.3313
 30.3954
 30.3192
 30.3072
 32.6849
 32.6978
 32.7114
 32.7749
 32.772
 32.6992
 32.7067
 32.5545
 32.5692
 32.5839
 32.596
 32.6159
 32.6077
 32.5917
 32.5835
 32.2573
 32.2475
 32.1345
 32.2474
 32.426
 32.3636
 32.4592
 32.3938
 30.4689
 30.6057
 30.6141
 30.6776
 30.8763
 30.8565
 30.8623
 30.8072
 32.4364
 32.3448
 32.4873
 32.3925
 30.9314
 30.8697
 30.8622
 31.0043
 30.6746
 30.5194
 30.5536
 30.6843
 30.7794
 30.8231
 30.938
 30.935
 31.8688
 31.8528
 31.7866
 31.8193
 32.3964
 32.4576
 32.3965
 32.6968
 32.7328
 32.7854
 32.692
 31.2118
 31.2822
 31.3139
 31.1738
 31.3986
 31.3231
 31.2836
 31.3112
 29.8562
 29.8748
 30.0144
 29.9445
 31.1878
 31.3551
 31.2822
 31.3099
 32.0678
 32.0336
 32.0792
 32.2252
 32.5553
 32.6299
 32.7477
 32.6236
 32.4257
 32.5416
 32.4811
 32.5194
 32.9228
 32.9277
 32.9298
 30.6235
 30.5638
 30.4593
 30.5212
 31.2877
 31.334
 31.4097
 31.3726
 32.422
 32.465
 32.4936
 32.4684
 30.8257
 30.7529
 32.0014
 32.0117
 32.0282
 32.0932
 30.9771
 30.9314
 30.7777
 30.8739
 32.1918
 32.1119
 32.2117
 32.0912
 32.6546
 32.6661
 32.7643
 32.8449
 32.1732
 32.0176
 32.1799
 32.1662
 25.9186
 26.3194
 25.6254
 26.1264
 31.0131
 31.0653
 31.0533
 30.9945
 30.4584
 30.4325
 30.4386
 30.3704
 32.7143
 32.8079
 32.783
 32.869
 32.2674
 32.3056
 32.3223
 32.2807
 32.6609
 32.6666
 32.6386
 31.6427
 31.7254
 31.6781
 31.7348
 32.667
 32.6481
 32.6724
 32.6848
 32.5352
 32.5954
 32.6387
 32.5893
 31.8073
 31.8509
 31.8488
 31.7829
 32.1676
 32.19
 32.3122
 30.7231
 30.813
 30.8004
 30.8062
 31.8089
 31.6748
 30.2515
 30.6667
 30.1663
 30.3438
 31.4823
 31.5794
 31.54
 33.0006
 32.9437
 33.0174
 32.9161
 32.1145
 32.1596
 32.1847
 32.164
 32.2906
 32.1978
 32.2045
 31.9323
 32.0331
 31.8684
 31.9862
 31.7764
 31.6746
 28.017
 28.088
 27.7018
 28.0405
 26.7105
 26.1057
 25.8903
 26.4564
 32.3047
 32.3746
 32.341
 32.3874
 32.1026
 32.1737
 32.0615
 32.0781
 28.676
 28.5257
 28.5612
 29.0178
 32.6202
 32.6468
 32.5556
 32.6048
 32.5042
 32.605
 31.6866
 31.754
 31.6134
 31.6563
 32.0004
 31.9422
 31.8805
 32.0264
 31.7796
 31.9019
 31.93
 31.8929
 32.6194
 32.6154
 32.6017
 32.6273
 32.7946
 32.6432
 32.7407
 32.7455
 31.4254
 31.7061
 31.6042
 31.4186
 32.7275
 32.7948
 32.7844
 32.7913
 31.3353
 31.4835
 31.3749
 31.4607
 32.2947
 32.5095
 32.4209
 30.9313
 30.9449
 31.2719
 31.6181
 31.4478
 31.5607
 31.5717
 31.5223
 31.7261
 31.6083
 31.5882
 32.3549
 32.3942
 32.4422
 32.6363
 32.65
 32.538
 32.5871
 32.4683
 32.4581
 32.4329
 32.4377
 31.2685
 31.297
 31.2074
 31.2641
 32.5944
 32.6253
 32.6079
 32.5994
 32.5914
 32.5809
 32.6285
 30.2264
 30.0933
 30.0304
 30.1448
 30.8394
 30.779
 32.6867
 32.677
 32.6739
 32.7094
 32.3508
 32.2497
 32.3949
 32.3392
 32.3761
 32.3708
 32.4089
 32.5006
 32.5672
 32.4353
 31.2898
 31.2285
 31.3313
 31.3069
 32.7865
 32.8069
 32.7616
 32.7561
 31.53
 31.6476
 31.648
 31.5537
 32.5748
 32.5603
 32.7359
 32.7606
 32.8001
 32.7573
 32.9454
 32.9795
 32.9889
 32.9167
 31.4205
 31.2679
 31.0162
 31.2958
 31.4493
 31.3101
 32.6436
 32.6235
 32.6201
 32.6142
 30.3577
 30.408
 30.3794
 30.3401
 32.8317
 32.798
 32.7073
 32.7142
 31.2168
 31.1172
 31.0827
 31.0604
 30.7168
 30.6067
 30.7799
 30.6211
 31.5267
 31.6238
 30.8464
 30.7673
 30.8085
 30.804
 32.4441
 32.402
 32.4153
 32.4779
 30.9015
 30.8633
 30.837
 30.9201
 30.3316
 30.1661
 30.1707
 30.293
 31.7802
 31.7628
 31.6904
 31.7065
 32.4795
 32.4871
 32.3916
 32.3634
 30.7576
 30.912
 30.8348
 30.7425
 30.8043
 30.9316
 30.774
 30.7028
 30.7991
 30.6279
 32.7943
 32.7314
 32.7967
 32.7224
 30.9915
 30.9857
 31.1486
 31.1354
 32.4964
 32.5483
 32.5506
 32.5519
 32.5279
 32.6417
 32.6315
 32.5366
 32.6532
 32.7352
 32.6717
 32.6076
 32.6486
 32.7207
 32.6726
 32.4691
 32.4964
 32.5068
 32.5012
 32.058
 32.1164
 32.1341
 31.062
 31.0488
 30.9776
 30.9983
 32.2723
 32.3279
 32.2762
 32.7385
 32.6717
 32.8065
 32.1627
 32.0093
 32.1273
 32.0628
 31.8705
 31.9111
 31.8539
 31.7456
 32.3256
 32.2263
 32.2266
 32.2687
 32.5532
 32.5797
 32.5851
 32.7491
 32.7383
 32.6836
 32.6781
 32.7026
 32.6379
 32.7327
 30.8995
 31.0566
 30.9414
 31.0226
 31.4065
 31.4855
 31.4446
 31.3761
 32.6956
 32.5526
 32.5656
 32.4359
 32.6198
 32.5845
 32.7124
 32.1701
 32.2159
 32.1605
 32.172
 32.7902
 32.8459
 32.831
 32.8533
 29.5563
 29.7817
 29.5657
 29.4692
 32.6359
 32.6636
 32.6627
 32.6574
 30.8381
 30.8554
 30.7797
 30.7961
 32.5971
 32.5104
 32.5412
 32.5718
 32.4945
 32.473
 32.5431
 32.5244
 32.6095
 32.5064
 32.4224
 32.2868
 32.259
 32.2352
 31.8794
 32.8341
 32.8727
 32.7805
 32.7894
 30.7708
 30.7868
 30.7223
 30.9697
 30.9493
 30.8858
 32.5518
 32.4597
 32.4737
 32.4379
 30.1247
 30.0768
 30.0566
 30.0447
 32.8108
 32.1704
 32.2844
 32.2427
 32.2289
 32.8686
 32.9293
 32.8847
 32.823
 30.7348
 30.6989
 30.8603
 30.7344
 31.5628
 31.3741
 31.4788
 31.525
 31.3013
 31.237
 31.3392
 31.3483
 32.5659
 32.5542
 32.5538
 32.509
 32.7104
 32.6822
 32.7258
 32.7135
 32.4018
 32.4469
 32.3137
 32.4112
 32.5988
 32.6553
 32.4989
 32.6453
 31.7405
 31.7189
 31.6214
 31.6474
 32.8
 32.8961
 32.881
 32.8208
 32.7241
 32.6451
 32.6276
 32.673
 31.9369
 31.9279
 31.9442
 31.8299
 30.5495
 30.3909
 30.4909
 30.4385
 32.4249
 32.5825
 32.4518
 32.612
 31.4821
 31.18
 31.5258
 31.5218
 30.6694
 30.6081
 30.6471
 30.5691
 31.546
 31.2935
 31.7636
 31.6893
 31.5274
 31.7053
 32.2977
 32.247
 32.3166
 32.3606
 32.6171
 32.6328
 32.6279
 32.6711
 29.9119
 29.8673
 29.8746
 29.9626
 30.8141
 30.8213
 30.7
 31.5513
 31.5521
 31.497
 31.6239
 32.8186
 32.8024
 32.7278
 32.8379
 32.6702
 32.6549
 32.656
 32.6474
 32.6594
 32.6702
 31.6374
 31.4965
 31.5374
 31.5866
 31.6735
 31.6605
 31.7456
 31.6543
 31.4274
 31.3983
 31.5487
 31.4275
 30.3486
 30.3198
 30.5072
 30.2972
 31.3254
 31.2953
 31.4113
 32.5797
 32.1603
 32.1291
 32.0772
 32.1631
 32.0742
 32.1739
 32.1775
 32.2339
 31.1431
 31.23
 31.214
 31.2837
 31.3423
 31.3836
 31.3988
 31.2778
 32.0497
 32.1381
 32.1125
 32.8761
 32.7488
 32.7325
 32.9416
 32.0971
 31.9278
 32.0613
 31.9753
 32.6052
 32.5857
 32.6301
 27.5438
 27.5917
 27.2433
 27.6914
 31.111
 30.9865
 31.0295
 30.9261
 31.0576
 30.8874
 30.9768
 28.2969
 32.0895
 32.0577
 32.0858
 31.9766
 32.1028
 32.0646
 31.9422
 32.0477
 32.008
 31.9584
 32.6536
 32.6507
 32.6926
 32.5788
 32.9185
 32.8654
 32.6991
 32.6127
 32.5845
 32.6021
 32.6891
 32.6442
 32.6395
 32.6687
 32.5637
 32.5416
 32.5358
 32.6436
 32.6636
 32.6341
 29.7926
 29.8078
 32.87
 32.8019
 32.7324
 32.7658
 32.377
 32.3719
 32.4133
 32.4814
 32.2182
 32.3103
 32.2315
 32.1042
 31.0003
 30.9568
 31.1308
 31.0708
 30.9179
 31.0028
 30.9135
 31.0069
 31.5973
 31.5575
 31.5234
 31.5594
 32.3834
 32.406
 32.2612
 32.3422
 32.3811
 32.4232
 32.6778
 31.4569
 31.346
 31.3889
 31.3557
 30.3846
 30.3876
 30.2353
 30.4269
 30.9768
 30.8499
 30.9937
 30.9356
 23.666
 23.5921
 23.5519
 23.7754
 30.5138
 30.5009
 30.5747
 30.5566
 32.6878
 32.6611
 32.6378
 32.7306
 32.9322
 32.9194
 32.9385
 32.97
 31.7548
 31.7553
 31.6428
 31.6845
 31.731
 31.7299
 31.7957
 31.7785
 32.5149
 32.6397
 32.6047
 32.5743
 30.6303
 30.5599
 30.633
 30.6201
 30.9954
 30.9117
 30.9501
 30.8838
 31.2997
 31.2753
 31.2112
 31.2093
 30.6289
 30.6989
 30.7098
 30.6342
 32.7792
 32.7508
 32.7618
 32.7165
 32.8692
 32.7852
 32.8789
 32.7907
 31.0239
 31.1219
 31.1366
 31.1136
 32.7184
 32.6015
 32.7301
 32.7789
 32.2021
 32.2295
 32.2317
 32.1945
 26.6129
 26.856
 27.0508
 26.8488
 30.4803
 30.4695
 30.7698
 30.7451
 30.8451
 30.7103
 32.19
 32.0779
 32.0458
 32.307
 32.7963
 32.7988
 32.7839
 32.7676
 30.933
 31.0196
 30.9164
 30.8704
 32.8467
 32.8136
 32.8255
 32.7619
 32.4591
 32.4307
 32.5006
 32.4826
 30.3448
 30.3413
 30.3928
 30.4713
 32.2205
 32.2282
 32.2074
 32.1762
 32.3568
 32.3304
 32.3589
 32.3959
 31.3885
 31.336
 31.2919
 31.3002
 31.6388
 31.6343
 31.7031
 31.7566
 32.5279
 32.5298
 32.5732
 32.6855
 32.6771
 32.6998
 32.6699
 31.9861
 31.7814
 31.8509
 32.0118
 32.5437
 32.4686
 32.4771
 32.4663
 32.3198
 32.3567
 32.3031
 32.387
 30.2268
 30.206
 30.2357
 30.3678
 32.6157
 32.5743
 32.5929
 32.6157
 32.5449
 32.5204
 32.4765
 32.3002
 31.4798
 31.4284
 31.473
 31.5545
 31.7862
 31.7655
 31.8279
 32.3331
 32.1952
 32.2049
 32.1654
 31.5552
 31.534
 31.5224
 31.6827
 32.0613
 32.1307
 32.0963
 32.1779
 30.7716
 30.789
 30.7349
 30.7469
 32.2004
 32.0651
 32.1686
 31.9808
 32.4641
 32.4501
 32.4328
 32.4474
 32.8577
 32.9276
 32.9282
 32.8743
 29.7289
 29.753
 29.7052
 29.7026
 32.8805
 32.895
 32.886
 32.8857
 31.8902
 32.0455
 31.9845
 31.976
 29.8516
 29.8253
 29.9019
 29.9021
 30.8528
 30.735
 30.7778
 31.4494
 31.4935
 31.3522
 31.3222
 30.8778
 30.9248
 30.7564
 30.9244
 29.2411
 29.54
 29.7731
 29.6758
 32.7663
 32.6885
 32.6736
 30.4505
 30.2901
 30.3144
 30.3407
 32.0191
 32.0501
 31.9449
 32.0482
 31.1838
 31.2313
 31.1008
 31.2716
 32.4862
 32.4667
 32.3355
 32.3536
 32.8879
 32.8426
 32.9212
 32.8759
 31.6183
 31.7605
 31.743
 32.1447
 32.3014
 32.3751
 32.2957
 32.7375
 32.5297
 32.6277
 32.5797
 32.6009
 30.3338
 30.2985
 30.2912
 30.2269
 29.9712
 29.9495
 29.6191
 29.5186
 31.3683
 31.2261
 31.2816
 31.2244
 31.7646
 31.8155
 31.7352
 31.8694
 27.6739
 31.0142
 31.1093
 30.9643
 30.4886
 30.3847
 30.4638
 30.443
 32.6517
 32.5514
 32.4323
 32.589
 31.8178
 31.8304
 31.7703
 31.864
 32.6391
 32.6079
 32.2905
 32.3187
 32.323
 32.2413
 32.8238
 32.8268
 32.7593
 32.7281
 32.6852
 32.6927
 32.6304
 32.5904
 31.5682
 31.6157
 31.5589
 31.5106
 30.7412
 30.691
 30.6763
 30.9728
 32.5229
 32.5117
 32.5079
 32.5045
 31.5994
 31.6095
 32.5094
 32.4837
 32.4624
 32.4804
 32.3981
 32.2292
 32.4331
 32.3116
 30.3823
 30.4638
 30.5098
 30.5318
 32.0559
 32.0287
 32.0736
 31.9134
 32.6315
 32.5772
 32.5543
 32.6113
 31.9967
 32.0186
 32.0276
 31.9586
 30.2897
 30.2978
 32.0518
 32.0055
 32.0237
 32.0238
 30.3567
 30.2943
 30.3787
 30.0589
 29.9688
 30.0478
 29.8518
 30.4329
 30.5303
 30.4781
 30.544
 32.5744
 32.5975
 32.5641
 32.5808
 32.4821
 32.4705
 32.4906
 30.2691
 30.3113
 30.3145
 30.2504
 32.0496
 32.1291
 32.0297
 32.1156
 32.4155
 32.3758
 32.2989
 32.3868
 32.4422
 32.5048
 32.5335
 32.6859
 32.5679
 32.6083
 31.9066
 32.0079
 31.9429
 30.2394
 30.3964
 30.4181
 30.3123
 32.4894
 32.4381
 32.4868
 32.4867
 32.5647
 32.5867
 32.7229
 32.8898
 32.8596
 32.9379
 30.7045
 30.7249
 31.0235
 32.2736
 32.2272
 32.3384
 32.3569
 30.479
 30.4696
 30.4543
 31.5048
 31.4793
 31.4327
 32.3133
 32.4387
 32.3996
 32.4301
 31.6166
 31.6321
 31.7421
 31.7087
 29.1395
 28.9915
 29.1247
 29.2002
 31.0199
 31.0007
 31.0792
 31.0857
 31.4934
 31.6264
 31.61
 31.5957
 30.8547
 30.8197
 30.89
 30.4016
 30.3999
 30.2037
 30.2825
 32.171
 32.2491
 32.1651
 32.1866
 30.718
 30.7432
 30.8107
 30.8045
 32.6572
 32.6418
 32.6328
 32.6524
 30.2944
 31.8785
 32.3216
 32.3651
 32.2996
 32.3925
 31.8328
 31.8332
 31.9454
 31.9545
 31.3894
 31.3569
 31.4152
 31.5207
 31.8185
 31.8733
 31.7667
 31.8065
 31.1193
 31.1731
 31.0689
 31.091
 32.3539
 32.3914
 32.357
 32.3039
 32.3986
 32.3729
 32.3592
 32.3357
 32.5694
 32.5609
 32.5737
 32.5302
 32.3106
 32.3002
 32.3892
 32.6948
 32.6828
 32.7342
 32.8183
 32.313
 31.8015
 31.5936
 31.5878
 31.7306
 30.5454
 30.535
 30.6635
 32.7706
 32.8314
 32.7968
 32.8338
 32.2198
 32.1114
 32.1301
 31.7382
 31.6894
 31.8285
 31.7768
 31.6735
 31.6708
 31.5464
 31.5452
 30.775
 30.7301
 30.6611
 30.7436
 32.6971
 32.633
 32.682
 32.6112
 32.0993
 32.2198
 32.2546
 32.2311
 32.4301
 32.4957
 32.5315
 32.5152
 32.4718
 32.5424
 32.5278
 32.5876
 32.3252
 32.3636
 32.3249
 32.3843
 31.3088
 31.4692
 31.2879
 31.3924
 32.4291
 32.51
 32.479
 32.4704
 31.977
 32.0003
 31.9584
 31.9812
 31.5481
 31.7193
 31.6475
 32.3646
 32.3787
 32.3134
 32.3072
 32.4003
 32.2374
 32.2616
 32.2825
 32.3599
 32.4626
 32.3441
 32.2837
 30.5965
 30.596
 30.7045
 30.7246
 31.3756
 31.4727
 31.467
 31.355
 32.6273
 32.6405
 32.6062
 32.6141
 32.7258
 32.7966
 32.6957
 32.6394
 30.9606
 31
 31.0531
 30.9614
 30.0128
 29.5976
 29.6557
 30.0982
 32.4597
 32.4119
 32.4281
 32.4477
 32.4065
 32.5676
 32.5238
 32.9241
 32.778
 32.8572
 32.9587
 31.478
 31.5647
 31.4741
 31.5884
 32.6303
 32.5946
 32.6027
 32.6101
 31.8997
 32.2965
 32.0002
 29.5595
 29.7645
 29.9693
 29.7411
 30.2265
 30.1951
 30.1443
 30.0806
 32.6466
 32.6336
 32.6612
 32.6602
 31.8944
 32.017
 32.0073
 31.903
 30.7086
 30.7908
 30.8573
 30.8025
 31.2032
 31.0768
 31.2537
 31.1689
 32.5516
 32.5836
 32.5684
 32.5781
 32.5323
 32.3862
 32.2369
 32.4276
 32.1899
 32.1266
 32.2039
 32.1507
 32.3641
 32.5564
 32.6928
 32.815
 32.8258
 32.7093
 32.3113
 32.3191
 32.3511
 32.285
 32.3501
 32.3494
 32.3659
 32.6059
 32.5918
 32.5871
 31.7467
 31.7565
 31.7329
 31.6913
 31.9894
 31.9974
 32.0632
 31.9225
 32.6616
 32.6646
 32.661
 32.671
 31.3541
 31.2204
 31.3875
 31.318
 32.336
 32.4022
 32.3661
 32.3136
 32.6486
 32.6533
 32.6321
 32.6346
 32.8901
 32.9306
 32.9396
 32.0001
 31.9932
 32.0871
 31.9672
 32.2536
 32.2266
 32.1524
 30.2213
 30.3111
 30.2965
 30.347
 31.4454
 31.2554
 31.5085
 31.1415
 32.6579
 32.6324
 32.6329
 32.6592
 32.6362
 32.6535
 32.681
 32.6583
 30.1268
 30.1652
 30.0329
 29.9457
 31.4259
 31.3504
 31.373
 32.8826
 32.9925
 32.9014
 33.0027
 31.0344
 31.1745
 31.0986
 32.6335
 32.6439
 32.6175
 32.6231
 25.757
 26.0781
 25.9158
 26.1933
 30.6444
 30.6197
 30.6017
 30.7092
 32.6305
 32.5806
 32.5118
 32.493
 30.4529
 30.5376
 30.5524
 30.5185
 32.7241
 32.6825
 32.6728
 32.723
 26.1104
 25.526
 25.9746
 25.9975
 32.0102
 31.9741
 32.1362
 32.045
 32.7832
 32.7325
 32.8714
 32.7558
 32.256
 32.3883
 32.5197
 32.6383
 32.5329
 32.5219
 32.0435
 32.1329
 32.1642
 32.1954
 32.5192
 32.5165
 32.6203
 32.5076
 30.7867
 30.8894
 30.6812
 30.6756
 30.8797
 30.9797
 30.9329
 30.8393
 31.1732
 31.1543
 31.1674
 31.2972
 30.8647
 30.8513
 30.8283
 30.9071
 31.5604
 31.615
 31.5062
 31.5868
 31.1281
 31.0331
 31.0638
 31.1284
 31.6921
 31.466
 31.4087
 31.7332
 30.6407
 30.5976
 30.6138
 30.63
 32.6977
 32.797
 32.6954
 32.6413
 31.4113
 31.5272
 31.5135
 30.9197
 30.8214
 30.8227
 30.9137
 32.6199
 32.4894
 32.4937
 32.4897
 32.0856
 32.0682
 32.0583
 32.0792
 31.3517
 31.3616
 31.4713
 31.2842
 32.3342
 32.368
 32.4541
 32.407
 31.6685
 31.7452
 31.6685
 31.6066
 31.607
 31.6087
 31.4633
 32.6937
 32.6867
 32.764
 31.7631
 31.7501
 32.1766
 32.3289
 30.2157
 30.1596
 30.174
 30.2194
 32.2068
 32.1329
 32.1842
 32.0642
 31.6568
 31.7538
 31.5946
 31.7236
 32.2154
 32.1551
 32.143
 32.0682
 31.1863
 31.1144
 31.0545
 31.1363
 31.1342
 32.4823
 32.4998
 32.5598
 32.5623
 32.6829
 32.6889
 32.6845
 32.6672
 31.5168
 31.6317
 31.5266
 31.6119
 31.6816
 31.8416
 31.8154
 31.726
 26.9503
 27.3402
 27.5106
 27.9719
 32.4082
 32.36
 32.4131
 32.4188
 32.3196
 32.4043
 32.4131
 32.327
 31.7359
 31.8183
 32.4741
 32.5011
 32.5254
 32.4903
 32.6641
 32.6441
 32.6706
 32.6868
 32.6149
 32.6099
 32.5822
 32.5527
 32.6046
 32.576
 32.5781
 32.6261
 32.8781
 32.8778
 32.8312
 32.83
 31.4297
 31.4415
 31.3809
 31.3126
 30.6552
 30.6272
 30.7378
 30.6766
 32.7749
 32.7553
 32.742
 32.6948
 32.4601
 32.6069
 32.5107
 32.4754
 31.1709
 31.31
 31.2381
 31.2935
 32.7428
 32.7238
 32.6644
 32.631
 32.7269
 32.7124
 32.2236
 32.3214
 32.348
 32.2197
 32.8243
 32.8441
 32.7915
 32.8998
 31.0091
 31.0525
 31.0528
 30.9457
 30.6012
 30.6788
 30.6751
 30.5584
 28.3238
 28.4607
 32.5958
 32.5611
 32.4827
 32.5398
 32.4744
 32.5792
 32.507
 32.5475
 32.6563
 32.7493
 32.6423
 32.6598
 32.6529
 32.6558
 32.5503
 32.3899
 32.433
 31.7869
 31.9763
 31.9675
 32.0457
 30.7952
 30.7334
 30.8481
 30.7868
 30.6388
 30.623
 30.6192
 30.197
 30.2549
 30.328
 30.2869
 32.2236
 32.0236
 32.1407
 32.0818
 32.2671
 32.1805
 32.3121
 32.2316
 31.278
 31.1516
 31.0878
 31.1842
 31.6361
 31.6081
 31.5197
 31.6229
 31.861
 31.7243
 31.7648
 32.3359
 32.3285
 32.3462
 32.249
 31.6164
 31.4457
 31.5099
 31.6074
 32.5216
 32.5267
 32.5004
 32.4988
 32.3977
 32.3905
 32.3417
 32.504
 31.7996
 31.8231
 31.8533
 31.74
 32.3354
 32.4107
 32.4409
 32.3501
 26.2687
 26.1056
 26.5693
 26.5579
 32.6113
 32.6045
 32.5922
 32.572
 31.5932
 31.5603
 31.4989
 31.4876
 32.8113
 32.8063
 32.809
 32.7988
 32.582
 32.4853
 32.5867
 32.6416
 30.8814
 30.8685
 30.7937
 30.9467
 30.8601
 30.9613
 30.8874
 30.8895
 30.5963
 30.7046
 30.5848
 30.59
 31.1434
 31.1554
 31.0663
 31.0867
 32.721
 32.5918
 32.7351
 32.5917
 32.9818
 32.9868
 32.9549
 32.9193
 31.7632
 31.8795
 31.7721
 31.8715
 32.9717
 32.9764
 32.9476
 32.9829
 32.4107
 32.3784
 32.4833
 32.5096
 32.4186
 32.367
 32.4018
 32.3374
 32.6069
 32.6375
 32.6348
 32.7641
 32.7878
 32.7277
 32.7992
 32.4424
 32.3474
 32.2613
 32.3839
 32.6606
 32.6684
 32.65
 32.6547
 31.6904
 31.6218
 31.6797
 31.5967
 32.4348
 32.3463
 32.3363
 30.2135
 30.3158
 30.3341
 30.2546
 30.5273
 30.4205
 30.3779
 30.4576
 32.8861
 32.8506
 32.8966
 32.8526
 31.9211
 31.8684
 32.58
 32.5677
 32.5058
 32.6417
 32.421
 32.4383
 32.5586
 32.5146
 30.5375
 30.5251
 30.6274
 30.5524
 32.7618
 32.7557
 32.6971
 32.7304
 32.7766
 32.6769
 32.7801
 32.7902
 32.6671
 32.7271
 32.7608
 32.3497
 32.2845
 32.2694
 32.3674
 32.2245
 32.1949
 32.1504
 32.2107
 32.1748
 32.0786
 32.1247
 32.1067
 32.3294
 32.265
 31.1166
 31.1313
 30.9626
 31.1097
 32.2608
 32.3429
 32.3022
 32.2743
 31.8571
 31.9942
 31.9673
 32.3314
 32.2602
 32.2747
 32.2424
 31.9873
 32.0281
 32.0742
 31.9954
 32.6974
 32.6376
 32.6815
 32.6166
 32.5546
 32.5601
 32.4985
 32.1922
 32.207
 32.0295
 32.2474
 32.4481
 32.4482
 32.3974
 32.5583
 32.6132
 32.5603
 31.9499
 31.9585
 31.9597
 32.0425
 32.222
 32.1297
 32.1597
 28.4436
 28.65
 28.8707
 28.0711
 31.7056
 31.787
 31.8168
 31.7097
 32.5961
 32.6272
 32.6283
 32.6256
 31.2524
 31.2683
 31.2375
 31.1303
 31.0333
 31.1338
 30.9973
 31.0222
 32.701
 32.7421
 32.6364
 32.6888
 32.263
 32.3819
 32.3934
 32.5792
 32.6589
 32.647
 32.612
 30.796
 30.964
 30.8886
 32.2798
 32.2341
 32.2746
 32.1757
 31.7125
 31.6876
 31.6863
 31.6709
 30.842
 30.7597
 30.7773
 30.8492
 23.9897
 23.6436
 23.7059
 24.1207
 32.6656
 32.6775
 32.6652
 32.6701
 32.1357
 31.9773
 32.0205
 32.0191
 32.2861
 32.2442
 32.1193
 32.145
 32.077
 32.1055
 32.1635
 30.5954
 31.7582
 31.7981
 31.9915
 31.886
 31.2046
 31.2026
 31.1565
 31.1213
 31.4069
 31.528
 31.5416
 31.4834
 32.1478
 32.21
 32.1831
 32.281
 32.2812
 32.273
 29.4421
 29.84
 29.3188
 29.6222
 32.6603
 32.6734
 32.6769
 32.6751
 32.6649
 32.6687
 32.6751
 30.6999
 30.4662
 30.7108
 30.7076
 32.3557
 32.3678
 32.2862
 32.2905
 31.8971
 31.93
 31.9975
 31.9336
 31.0261
 31.0702
 30.989
 31.0818
 32.3404
 32.3711
 32.2816
 32.4532
 31.7877
 31.7181
 31.5166
 31.611
 32.4073
 32.4386
 32.412
 32.4297
 32.6395
 32.6257
 32.6323
 32.6421
 32.819
 32.7873
 32.7218
 32.7611
 32.4796
 32.5039
 32.4942
 32.4596
 30.9607
 30.8469
 30.5837
 30.9778
 30.1087
 30.2602
 30.206
 30.2097
 30.2667
 30.3465
 29.9469
 30.434
 32.3775
 32.41
 32.3598
 32.4288
 30.1737
 30.2119
 30.2449
 30.2395
 32.6227
 32.6221
 32.6076
 32.5795
 32.6391
 30.8454
 30.9015
 30.8758
 30.79
 32.9549
 31.5801
 31.8997
 31.8773
 31.5662
 32.1407
 32.0235
 31.3332
 31.4781
 31.3516
 31.4647
 30.8071
 30.8357
 30.7626
 30.7852
 30.0624
 30.1715
 30.0593
 31.2497
 31.1472
 31.1254
 31.1121
 32.5142
 30.4216
 31.6898
 31.7541
 31.769
 30.7285
 30.6695
 30.6293
 30.7236
 32.5473
 32.5394
 32.5525
 32.577
 32.9009
 32.9557
 32.8367
 32.9748
 31.7097
 31.8002
 31.7893
 31.6315
 30.4061
 30.3089
 30.4245
 30.3941
 30.9659
 31.0033
 30.9364
 31.0068
 31.8806
 31.7548
 31.765
 31.0405
 30.8406
 31.3117
 30.9421
 24.4236
 25.0653
 24.8671
 24.9313
 32.1203
 31.9756
 31.9112
 32.0039
 32.0631
 32.008
 32.1303
 31.4078
 31.6044
 31.538
 31.3803
 31.0039
 31.0228
 30.911
 31.3405
 31.269
 31.3652
 31.3279
 32.8053
 32.8133
 31.6949
 31.4613
 29.8392
 29.9353
 29.8376
 30.179
 30.1671
 30.1643
 30.1242
 32.4795
 32.5203
 32.448
 32.4846
 32.6467
 32.6403
 32.65
 32.6368
 32.5073
 32.5822
 32.5299
 32.4951
 30.5196
 30.514
 30.5051
 30.5336
 31.6166
 31.6005
 31.6356
 31.6939
 32.3239
 32.3133
 32.4037
 32.4222
 31.6768
 31.6573
 31.7188
 31.5954
 32.2517
 32.193
 32.3056
 32.2081
 31.6425
 31.5246
 31.5674
 23.5205
 23.5175
 23.5391
 32.5745
 32.6004
 32.5417
 32.5626
 32.5525
 32.532
 31.5208
 31.4075
 31.5123
 31.5008
 31.5982
 31.5658
 31.4429
 31.614
 31.6131
 31.6341
 31.4974
 28.9667
 28.9469
 32.4805
 32.4274
 32.4651
 32.4914
 32.057
 28.7635
 28.2331
 28.4501
 28.3217
 32.6793
 32.6805
 32.6839
 32.7054
 32.5647
 32.5298
 30.9885
 31.5012
 31.3382
 31.0894
 30.0732
 29.9513
 30.0329
 30.0541
 30.3852
 30.3896
 30.4552
 30.2649
 32.6885
 32.7638
 32.7221
 32.7457
 32.886
 32.9432
 32.8476
 32.9074
 32.5835
 32.639
 32.591
 31.461
 31.4589
 31.5412
 31.445
 32.5697
 32.6058
 32.6701
 32.6433
 32.5184
 32.4284
 32.5266
 32.0765
 32.0947
 32.0237
 31.9488
 32.632
 32.6305
 32.5778
 32.6127
 32.8973
 32.8828
 32.8831
 32.8486
 32.6177
 32.5862
 32.6058
 32.6294
 32.6664
 32.5302
 32.5984
 32.723
 31.6887
 31.7657
 32.698
 32.6807
 32.6402
 32.6581
 30.1989
 30.3555
 30.336
 30.3274
 32.539
 32.5672
 32.5431
 32.5718
 31.9181
 31.8962
 32.0858
 31.9897
 32.1862
 32.0678
 30.2606
 30.2778
 30.0212
 30.4785
 32.7161
 32.8192
 32.7183
 30.6697
 30.7424
 30.6306
 30.6329
 30.6048
 30.3351
 30.5543
 32.6469
 32.6424
 32.6796
 32.6674
 31.3452
 32.9349
 32.8741
 32.9571
 32.8976
 32.2849
 32.3184
 32.2712
 32.3511
 32.3575
 32.3408
 32.313
 32.3666
 30.5482
 30.4277
 32.3532
 32.3532
 32.394
 32.3943
 32.7764
 32.7155
 32.7449
 32.7533
 32.6523
 32.6111
 32.6393
 32.647
 30.8283
 30.9004
 30.884
 30.8975
 32.6805
 32.6837
 32.6137
 32.6071
 32.2037
 31.0194
 30.9404
 31.033
 32.6675
 32.6672
 32.6847
 32.6249
 31.6291
 31.6436
 31.5908
 31.726
 32.7185
 32.7114
 32.7378
 32.6551
 30.5529
 30.6561
 30.6657
 30.6153
 29.8731
 29.8236
 29.9345
 32.6595
 32.6822
 32.6947
 32.6616
 32.0544
 31.9157
 32.0782
 32.0534
 31.5483
 31.5429
 31.46
 31.4086
 32.5564
 32.6339
 32.8672
 32.99
 32.9337
 32.9539
 32.7895
 32.6853
 31.7548
 31.7423
 31.7866
 31.8072
 31.6243
 31.5829
 31.5184
 31.6614
 32.5194
 32.5722
 32.4593
 32.4443
 31.8512
 31.8419
 31.8254
 30.8361
 30.9959
 31.0051
 30.9675
 31.2623
 31.2902
 31.2244
 32.609
 32.4725
 32.5334
 32.5238
 32.7321
 32.7302
 32.7194
 32.7263
 31.5462
 31.6428
 31.6596
 31.5647
 32.4365
 32.4503
 32.4989
 32.5495
 32.562
 32.5693
 32.5731
 32.6088
 32.6474
 32.5983
 32.5891
 31.319
 31.2767
 31.4284
 30.1492
 30.2779
 30.3001
 31.6807
 31.6287
 31.6411
 32.6255
 32.6496
 32.6401
 32.6387
 30.3403
 30.3647
 30.351
 30.281
 31.8518
 31.8869
 31.8296
 31.7681
 31.1459
 31.0959
 30.9313
 30.9858
 31.3092
 31.2742
 31.3353
 31.3226
 32.1529
 31.8793
 31.9863
 32.4292
 32.4018
 32.439
 32.4035
 31.2815
 31.1886
 31.3172
 31.3185
 32.4585
 32.4215
 32.4353
 32.3604
 31.5141
 31.508
 31.5366
 31.6365
 30.4939
 30.4561
 32.2805
 32.4464
 32.3651
 32.4327
 31.2851
 31.3403
 31.2215
 31.3347
 32.578
 32.627
 32.6179
 32.57
 31.6905
 31.736
 30.4074
 30.403
 30.4752
 30.3394
 31.1395
 31.0359
 31.1744
 30.9452
 30.2635
 30.2746
 30.1668
 30.0944
 31.5084
 31.5552
 31.4952
 31.6395
 31.4751
 31.5496
 31.5577
 31.5006
 31.5996
 31.5754
 31.6579
 32.7021
 32.7126
 32.6897
 32.7097
 31.5718
 31.56
 31.7362
 32.423
 32.4086
 32.4249
 30.8905
 30.9793
 30.9058
 31.014
 32.4114
 32.3691
 32.3168
 32.3523
 32.7827
 32.673
 32.5987
 32.7505
 32.4666
 32.6145
 32.547
 32.6331
 32.6779
 32.5881
 32.6412
 30.4351
 30.3861
 30.5033
 30.5038
 32.5963
 32.647
 32.5149
 32.5413
 32.5509
 31.5898
 31.5844
 31.6488
 31.5026
 32.5682
 32.5357
 32.4198
 32.5882
 32.7809
 32.8363
 32.8102
 32.7972
 32.1555
 32.2942
 32.3102
 32.1721
 32.6133
 32.5993
 32.6409
 32.5935
 30.8685
 30.8538
 30.7183
 32.6251
 32.6734
 32.5897
 32.6023
 32.0141
 31.9735
 32.6243
 32.661
 32.5661
 32.6602
 32.8234
 32.6914
 32.7503
 32.7507
 30.6394
 30.729
 32.5688
 32.6631
 32.5726
 32.5892
 32.2759
 32.3601
 32.3104
 32.302
 32.7714
 31.8798
 31.6193
 31.7194
 32.196
 32.1615
 32.1234
 32.2504
 30.714
 30.7106
 30.7683
 30.6639
 31.7871
 31.9416
 31.8731
 31.6912
 32.5247
 32.5472
 32.5304
 32.5278
 31.5254
 31.4343
 31.4221
 32.0103
 31.9522
 32.0803
 32.0823
 30.1777
 30.3228
 30.2138
 30.1708
 32.4063
 32.504
 32.5597
 32.3569
 31.7832
 31.8731
 31.8016
 31.7051
 32.6835
 32.6383
 32.6501
 32.6768
 32.5544
 32.5892
 32.6293
 32.6101
 32.5355
 32.6322
 32.5779
 32.6001
 32.5746
 32.6598
 32.6208
 32.5015
 32.4657
 32.4759
 31.4285
 31.4773
 31.3885
 31.374
 31.4675
 32.5042
 32.2698
 32.3913
 32.3989
 30.6527
 30.7367
 30.7492
 30.7414
 32.1454
 32.0731
 32.1781
 32.0954
 31.5945
 31.5243
 31.5858
 31.6472
 32.6292
 32.5912
 32.6364
 32.8943
 32.8802
 31.9896
 32.045
 32.0277
 31.9573
 30.743
 30.6196
 32.0513
 32.0191
 32.073
 31.9975
 32.4664
 32.46
 32.5487
 30.8496
 30.8316
 30.915
 30.8561
 32.1555
 32.2173
 32.2415
 32.1815
 32.4899
 32.4626
 32.4877
 32.511
 32.4604
 32.4833
 32.3838
 32.435
 31.9042
 31.7382
 32.0458
 31.9656
 31.9773
 31.9198
 32.7602
 32.7659
 32.749
 32.8082
 32.7806
 32.7512
 32.6334
 32.6393
 32.5664
 32.5846
 32.3914
 32.31
 32.3801
 31.7315
 31.7923
 31.7973
 31.8604
 32.9747
 32.9618
 32.9306
 32.9767
 32.606
 32.5925
 31.9428
 32.0339
 32.1043
 32.1548
 32.0887
 32.0759
 32.3681
 32.2904
 32.284
 32.3427
 30.4835
 30.798
 30.7176
 30.9416
 32.0004
 32.6599
 32.6782
 32.675
 32.6174
 30.4185
 30.3785
 30.4547
 31.4999
 31.5957
 31.6168
 31.4956
 32.3466
 32.2852
 32.3196
 32.4296
 32.3363
 32.2591
 32.3426
 32.6204
 32.6415
 32.6306
 32.6039
 30.7051
 30.6353
 30.8356
 30.6852
 31.8978
 31.9253
 31.8261
 31.8364
 30.7784
 30.7646
 30.8909
 30.8263
 32.3677
 32.3664
 32.2972
 32.3065
 32.6856
 32.6672
 31.4942
 31.5426
 31.5966
 31.5519
 30.6096
 30.6603
 30.6514
 30.6689
 29.9264
 29.8932
 29.9556
 29.8361
 30.8104
 30.8739
 30.7789
 31.8935
 31.863
 31.9525
 31.8977
 31.0573
 31.0016
 30.9407
 30.9988
 32.4083
 32.4185
 32.6477
 32.4583
 31.0712
 31.0287
 31.0002
 31.8848
 31.9067
 31.9138
 31.8994
 32.5314
 32.5816
 32.5859
 32.4984
 31.4992
 31.3631
 31.4847
 31.4569
 31.9252
 31.8678
 31.8472
 31.9006
 32.7282
 32.5973
 32.7403
 32.619
 32.1701
 32.2073
 32.0221
 32.014
 32.3767
 32.3168
 32.2552
 32.3321
 29.7255
 29.73
 30.3873
 30.0561
 32.8403
 32.8847
 32.8694
 32.8354
 32.8542
 32.7862
 32.7384
 27.8748
 27.9273
 27.4999
 28.0748
 30.9588
 31.0493
 31.046
 31.1276
 31.1494
 31.0496
 31.0786
 32.9611
 32.897
 32.9166
 31.6308
 31.754
 31.5665
 32.3621
 32.3216
 32.3467
 32.4362
 32.6546
 32.6634
 32.6549
 32.6721
 31.8536
 31.7513
 31.8317
 31.842
 30.5006
 30.3648
 30.4939
 30.1856
 32.0748
 32.2003
 32.2106
 32.1022
 31.1987
 31.1095
 31.2622
 31.1928
 32.2453
 32.1973
 32.0976
 32.0516
 32.5149
 32.5435
 32.4607
 32.7181
 32.6793
 32.7946
 32.7679
 30.7685
 30.6712
 30.6664
 30.6659
 31.1153
 31.0222
 31.1123
 31.1373
 32.6781
 32.6432
 32.6414
 32.7204
 30.409
 30.3722
 30.3308
 30.7367
 30.6106
 30.7245
 30.6927
 30.6693
 30.6037
 30.7342
 30.6644
 31.0265
 30.9482
 27.4703
 27.6153
 27.3128
 27.8552
 31.7096
 31.7484
 31.7895
 32.2987
 32.3705
 32.2259
 32.3229
 32.4259
 32.342
 32.3796
 32.4043
 23.6092
 32.5416
 31.912
 31.8107
 31.2673
 31.1849
 31.2467
 31.2074
 31.7131
 32.4782
 32.4371
 32.4724
 29.8092
 29.8844
 29.8814
 29.882
 32.3684
 32.4391
 32.3935
 32.3352
 30.2581
 30.3614
 30.2897
 30.357
 32.5839
 32.4779
 32.5608
 32.7136
 32.7117
 32.7153
 31.0634
 30.9956
 31.1342
 31.0532
 32.1227
 32.145
 32.1897
 32.2964
 32.472
 32.4395
 32.531
 32.5369
 31.1165
 30.9255
 30.9916
 30.4849
 30.3699
 30.3594
 30.4931
 31.166
 31.1752
 31.2722
 31.1672
 33.0039
 33.0283
 33.0167
 33.0192
 32.6188
 32.6543
 32.6422
 32.668
 30.9061
 30.8218
 30.8291
 30.8267
 32.4775
 32.6678
 32.6338
 31.387
 31.3576
 31.4231
 31.4617
 32.7582
 32.7997
 32.7055
 32.7342
 31.9332
 31.9532
 32.0101
 31.9848
 32.5826
 32.5979
 32.543
 32.6022
 32.055
 31.8831
 31.9385
 31.9623
 31.2732
 31.2306
 31.1525
 31.3745
 32.4521
 32.4224
 32.4332
 32.0768
 32.0201
 31.1104
 31.2006
 31.1851
 31.2742
 32.5678
 32.6044
 32.5915
 32.3643
 32.152
 32.1948
 32.2656
 31.7375
 31.6913
 31.7778
 31.6688
 31.8656
 31.9035
 31.7453
 31.8597
 25.6847
 25.7363
 26.1716
 25.7453
 32.5937
 32.6468
 32.5926
 29.1263
 29.4355
 29.5961
 32.1976
 32.2445
 32.3467
 32.3745
 32.4506
 32.3411
 32.4872
 32.3495
 32.4818
 32.4646
 32.4315
 32.407
 31.2194
 31.2405
 31.244
 31.2778
 32.4371
 32.3856
 32.3549
 32.3543
 32.4359
 32.4247
 32.4176
 29.9364
 29.9937
 30.0343
 30.1112
 32.8497
 32.8034
 32.839
 32.9068
 32.1323
 32.1637
 32.1518
 32.2018
 32.6226
 32.6323
 32.5837
 32.6088
 30.9771
 30.8864
 30.9107
 31.0248
 25.378
 25.7836
 25.4206
 25.9543
 31.5713
 31.6877
 31.5708
 31.566
 31.8677
 31.7989
 31.9104
 31.8951
 31.1772
 31.3617
 31.3423
 31.2618
 31.0916
 31.1873
 31.2248
 31.1331
 31.5041
 31.4345
 33.0467
 33.0357
 33.0451
 33.024
 30.6817
 30.7031
 30.6911
 31.3311
 31.4967
 31.4111
 31.3154
 32.715
 32.7292
 32.6974
 32.6831
 32.5407
 32.5807
 32.5026
 23.3949
 23.3525
 23.3221
 23.3774
 32.3692
 32.5625
 32.4506
 30.8199
 30.7233
 30.7656
 30.8075
 31.1492
 31.2053
 30.7632
 30.6912
 30.5963
 30.7569
 31.3414
 31.3113
 32.0609
 31.8706
 31.8204
 32.0318
 31.2841
 31.3177
 31.2955
 31.4162
 32.196
 32.101
 32.6504
 32.6315
 32.6389
 32.6495
 31.508
 31.4685
 31.3785
 31.4592
 32.9886
 32.8818
 32.8586
 32.935
 30.8344
 30.8548
 30.7782
 30.5924
 31.8435
 31.8008
 31.9457
 31.9373
 31.8653
 31.8413
 31.9526
 31.8149
 31.8598
 31.8997
 31.9222
 32.7862
 32.7445
 32.8439
 32.828
 32.9333
 32.9244
 32.9074
 24.7861
 24.7583
 24.7843
 25.1902
 32.3404
 32.5178
 32.5809
 32.4835
 31.0158
 31.1023
 31.0062
 31.0958
 32.6737
 32.6641
 32.7321
 32.5168
 32.5487
 32.5484
 32.5563
 32.6222
 32.5076
 32.5358
 32.5642
 32.5393
 31.6457
 31.5042
 31.4807
 31.5907
 32.6261
 32.6232
 32.7529
 31.5161
 31.8939
 31.8321
 31.9551
 31.8124
 32.6425
 32.6829
 28.1155
 28.0258
 32.5435
 32.6009
 32.5384
 32.4956
 31.5308
 31.4546
 31.1384
 31.1427
 31.0814
 31.1603
 33.0085
 32.989
 32.8976
 33
 30.574
 30.5539
 30.4489
 30.5651
 32.7173
 32.7354
 32.8232
 32.7815
 31.3866
 31.369
 31.4049
 31.5495
 32.6075
 32.6025
 32.6235
 32.6346
 31.2028
 31.1312
 31.2606
 31.1613
 32.5031
 32.4547
 30.6796
 30.7119
 31.7814
 31.7233
 31.7997
 31.7178
 31.7862
 31.7838
 31.7736
 31.6783
 32.1129
 32.1511
 32.0881
 32.0817
 31.2551
 31.404
 31.2862
 31.1649
 32.5639
 32.5196
 32.5606
 32.5458
 30.6889
 30.6728
 30.7234
 30.4945
 30.5038
 30.6074
 30.531
 32.658
 32.7106
 32.6764
 32.6151
 31.3528
 31.5203
 31.4751
 31.4646
 32.6823
 32.6685
 32.7177
 32.7384
 32.282
 32.3866
 32.248
 32.2706
 32.4399
 31.0634
 31.0481
 31.0376
 31.1488
 29.6422
 29.357
 29.4486
 29.8936
 31.4358
 31.3644
 31.278
 31.3682
 32.3176
 32.1561
 32.3691
 32.2479
 31.6239
 31.7123
 31.7174
 31.6978
 31.5771
 29.9947
 30.0457
 30.1724
 30.1009
 31.2123
 31.2169
 31.3591
 31.3078
 28.5453
 28.62
 28.9255
 28.3807
 32.5606
 32.602
 32.6131
 32.5797
 32.9095
 32.0303
 32.1073
 32.0627
 31.9711
 30.8396
 30.8428
 30.9191
 30.9843
 31.007
 30.9705
 30.9096
 30.8441
 31.0535
 30.9382
 31.0014
 25.2555
 25.5906
 31.4057
 31.3813
 31.3138
 32.5464
 32.5776
 32.5303
 32.5273
 31.5085
 31.5574
 31.4596
 31.555
 32.1004
 31.6829
 31.7569
 31.6492
 31.7528
 30.4733
 30.6347
 30.6075
 30.4793
 31.6663
 31.6089
 31.4732
 31.6392
 32.624
 32.6323
 32.7131
 32.5777
 32.4544
 32.4625
 32.4608
 32.4758
 30.138
 30.2801
 30.0862
 30.1487
 31.4716
 31.5129
 31.4204
 31.5306
 30.2631
 30.322
 30.2824
 30.1735
 32.7719
 32.816
 32.7752
 32.7561
 31.9622
 32.0094
 30.6337
 30.5149
 30.653
 30.5805
 32.0665
 32.0217
 32.0042
 31.933
 32.3711
 32.2894
 32.3272
 32.103
 32.1577
 32.2887
 30.9486
 31.008
 31.0276
 30.9335
 32.5856
 32.6192
 32.6505
 32.6213
 31.8038
 31.8591
 31.7495
 31.7536
 32.371
 32.4476
 32.4503
 32.3652
 32.8528
 32.8862
 32.8855
 32.9895
 32.3925
 32.5132
 32.3932
 32.4756
 32.5639
 32.5303
 32.5011
 32.277
 32.3488
 32.3445
 32.3326
 31.835
 31.9742
 31.9536
 32.8023
 32.6811
 32.6303
 32.62
 32.234
 32.2607
 32.213
 32.2972
 32.8269
 32.803
 32.8029
 32.7877
 32.6332
 32.6371
 32.6265
 32.6407
 32.0021
 31.9861
 31.9178
 31.8634
 32.5135
 32.5706
 32.5599
 32.6148
 31.6962
 31.7287
 31.644
 31.6628
 32.2733
 32.3195
 32.347
 31.1584
 31.1852
 31.0839
 31.1913
 32.7385
 32.6881
 32.6487
 32.6808
 32.7153
 32.8171
 32.8224
 32.7043
 32.471
 32.4359
 32.3708
 31.7192
 31.7615
 31.7099
 31.6242
 31.7459
 31.7206
 31.6696
 31.7708
 31.6189
 31.6274
 31.5057
 31.042
 30.9292
 31.0005
 31.9219
 31.9814
 32.0451
 31.8942
 30.7915
 30.7161
 30.8498
 30.7507
 30.7488
 30.7729
 30.8642
 32.5038
 32.6448
 32.5842
 32.6017
 32.7024
 32.7421
 32.7418
 32.7204
 32.7256
 30.9575
 31.0175
 30.8858
 30.9318
 30.8504
 31.0348
 24.5071
 24.2629
 24.5671
 24.664
 31.3572
 31.4456
 32.5188
 32.6662
 32.5757
 30.2458
 30.1177
 31.8107
 31.9511
 31.9285
 31.9232
 32.3782
 32.3552
 32.3411
 31.4354
 31.2505
 31.3948
 31.2861
 32.7641
 32.7356
 32.7519
 32.7458
 27.6808
 27.9646
 27.9773
 27.568
 31.9875
 31.9778
 32.0213
 31.9059
 31.0355
 30.8878
 31.0678
 31.2799
 31.2676
 31.255
 31.3476
 32.8875
 32.8392
 32.8335
 32.8232
 32.9412
 32.8163
 32.7471
 32.7709
 32.7435
 30.1579
 30.248
 30.9721
 31.0697
 30.9405
 31.1201
 32.302
 32.109
 32.155
 31.4396
 31.5372
 31.378
 31.3609
 32.9056
 32.8867
 32.8703
 32.8732
 32.2105
 32.1972
 32.1372
 32.1158
 32.3532
 32.3164
 32.2994
 32.3521
 32.8646
 32.8259
 32.7062
 32.9974
 33.0197
 33.0298
 33.039
 29.8628
 29.7597
 29.8438
 29.7213
 32.3938
 32.2329
 30.7063
 30.7321
 30.7187
 30.8183
 32.6298
 32.5737
 32.5965
 32.6359
 32.1804
 32.1278
 32.1142
 32.1362
 32.5603
 32.5469
 32.0597
 32.1203
 32.1329
 32.1518
 32.5292
 32.5401
 32.5594
 32.5107
 31.1904
 31.2368
 31.2734
 31.2212
 32.3517
 32.3289
 32.2932
 32.4156
 32.6992
 32.7308
 31.9381
 31.9422
 31.9825
 31.8984
 31.5237
 31.5806
 31.4864
 32.1686
 32.078
 32.0964
 32.0762
 32.6678
 32.725
 32.6622
 32.6981
 26.9272
 27.3721
 27.3774
 26.9002
 32.5136
 32.5495
 32.5053
 32.4245
 32.0613
 31.9419
 32.025
 32.0641
 32.3975
 32.3755
 32.455
 32.439
 32.5682
 32.6198
 32.6141
 32.5588
 31.14
 31.0223
 31.9583
 31.9832
 32.0416
 30.1555
 29.9624
 29.8714
 30.3208
 32.8086
 32.7448
 32.8411
 32.7506
 32.1799
 32.1395
 32.1994
 32.2285
 31.1888
 31.1528
 31.1328
 32.5863
 32.578
 32.6814
 32.6991
 32.6721
 32.5846
 32.6583
 32.668
 31.45
 31.5509
 31.5704
 31.4903
 31.6904
 31.7325
 31.7577
 31.7404
 30.9689
 30.9497
 30.9362
 31.3645
 31.3555
 31.3649
 31.3353
 32.7313
 32.7897
 32.7456
 32.8871
 32.4843
 32.4774
 32.3907
 27.5811
 27.6455
 27.6494
 27.2307
 32.8492
 32.8994
 31.9338
 31.8095
 31.9364
 32.1461
 32.8218
 32.5995
 30.7964
 32.6431
 32.6119
 32.6501
 32.6067
 30.1654
 31.8048
 31.8884
 31.8043
 31.9169
 32.9375
 32.9066
 32.9406
 32.5953
 32.5527
 32.5524
 31.0183
 31.0134
 31.176
 31.0435
 31.261
 31.3465
 31.2382
 31.3124
 32.4521
 32.3752
 32.329
 32.4477
 30.4592
 30.4348
 30.4395
 30.5587
 32.4294
 32.4471
 32.5197
 31.2813
 31.1974
 31.2502
 31.9684
 32.1017
 32.0658
 31.9678
 32.6433
 32.6184
 32.6317
 32.628
 32.2703
 32.122
 32.2494
 32.6382
 32.6309
 32.6174
 32.6402
 32.4724
 32.4001
 31.1568
 31.0965
 31.067
 30.9863
 30.7938
 30.6533
 30.7159
 30.7789
 32.5986
 32.5784
 32.6737
 32.726
 31.412
 31.5526
 31.5243
 31.3845
 32.0411
 32.1896
 32.0505
 32.0008
 32.7599
 32.7335
 32.6641
 32.7345
 30.8279
 30.861
 30.8939
 30.926
 32.7239
 32.7626
 32.6619
 32.5841
 32.2921
 32.3447
 32.3518
 32.2405
 32.286
 32.3313
 32.2883
 32.2654
 32.7404
 32.7845
 32.5844
 32.6521
 32.6474
 32.6071
 31.7842
 31.5525
 31.7586
 31.8344
 32.0756
 32.0723
 31.9879
 31.9333
 31.9143
 32.0636
 31.9966
 30.6626
 30.637
 30.6045
 30.607
 30.0782
 30.0429
 30.1116
 30.6269
 30.6013
 30.742
 32.0477
 31.9532
 31.8656
 32.0033
 31.5307
 31.4462
 31.3918
 31.5759
 31.2242
 31.1218
 31.2206
 31.1156
 32.5297
 32.5844
 32.5611
 32.5365
 32.1606
 32.2797
 32.3706
 32.3539
 30.1809
 30.183
 30.258
 30.0621
 32.614
 32.6655
 32.6228
 32.5971
 31.9792
 31.9707
 31.919
 31.9865
 30.0838
 30.1705
 30.2678
 30.0529
 31.5864
 31.6765
 31.5743
 31.6072
 32.5146
 32.5409
 32.5228
 32.5286
 32.6619
 32.6818
 32.6574
 32.4589
 32.5562
 32.5086
 32.4158
 32.5562
 32.5333
 32.5508
 32.5286
 32.5247
 32.7249
 32.7999
 32.8401
 32.828
 31.0004
 31.0542
 31.0722
 31.1085
 30.8264
 30.9156
 30.8691
 30.9037
 31.7662
 31.767
 31.7837
 31.8639
 32.3682
 30.6343
 30.5959
 30.6224
 30.6628
 32.6107
 32.546
 32.6165
 32.5532
 30.3259
 30.221
 30.3551
 30.1913
 32.5882
 32.7674
 32.6183
 31.5528
 32.2661
 32.1746
 32.1279
 33.0338
 32.9893
 32.9633
 32.9873
 32.1864
 32.2199
 32.3538
 32.3089
 31.2887
 31.2666
 31.3714
 31.2247
 32.2651
 31.6516
 31.6893
 31.7378
 32.3503
 32.406
 32.3768
 32.2901
 32.6979
 32.6952
 32.6997
 32.7007
 32.6018
 32.622
 32.6073
 32.5951
 31.5724
 32.7708
 32.8099
 32.728
 31.1535
 31.2082
 31.1319
 31.1768
 31.0498
 31.0662
 30.9557
 31.1086
 30.6485
 30.6181
 30.6709
 32.643
 32.6334
 32.7021
 32.6241
 32.4473
 32.2734
 32.3882
 30.9172
 30.9724
 30.7626
 30.8064
 30.8812
 30.8629
 32.5376
 32.5682
 32.5159
 30.2873
 30.328
 30.2612
 30.3669
 31.1439
 31.2067
 31.1692
 31.0983
 31.6742
 31.8249
 31.6857
 31.6801
 32.307
 32.2798
 32.2826
 32.392
 32.7212
 32.7833
 32.7562
 32.6842
 30.8457
 30.8157
 30.8723
 30.7205
 32.7808
 32.7913
 32.7912
 32.6098
 32.5607
 32.5676
 32.549
 30.8244
 30.8152
 30.69
 30.7807
 31.6496
 31.6732
 31.7217
 31.7425
 30.3574
 30.42
 30.5179
 30.392
 32.555
 32.4661
 32.4554
 32.4732
 32.1484
 32.1006
 32.2164
 32.0427
 31.0842
 31.0933
 31.0253
 31.0915
 32.1219
 32.0029
 32.0949
 32.0623
 30.3416
 30.1814
 30.3111
 32.5964
 32.6357
 32.6188
 32.6151
 32.1851
 32.1936
 32.1697
 32.2881
 31.7632
 31.6349
 31.7331
 31.7448
 32.1544
 32.2571
 32.1023
 32.1926
 31.0316
 31.0437
 30.9217
 30.9862
 32.527
 32.5745
 32.6044
 32.6051
 31.9068
 31.9284
 31.9024
 31.9977
 32.4721
 32.5027
 32.4797
 32.4461
 31.2868
 31.2538
 31.3645
 31.4057
 32.6234
 32.6331
 32.5827
 32.9753
 32.9743
 32.955
 32.9509
 32.843
 32.9285
 32.9198
 32.8866
 31.2176
 31.3094
 31.2243
 31.1463
 31.5639
 31.4011
 31.5105
 31.5323
 32.4582
 32.506
 32.5676
 32.5608
 30.043
 30.0983
 30.1885
 27.9809
 27.9855
 31.9176
 31.8322
 31.9567
 31.935
 31.1626
 30.9262
 30.5928
 30.7763
 31.5881
 31.6053
 31.4615
 31.4775
 32.6931
 32.6274
 32.6263
 32.6323
 32.637
 31.4319
 31.3683
 31.3643
 31.3146
 31.054
 31.0711
 30.9738
 31.0836
 32.5222
 32.5296
 31.6327
 31.5978
 31.4486
 31.5816
 32.0498
 32.2219
 32.0657
 32.1489
 32.8313
 32.7858
 32.8531
 32.7073
 32.6529
 32.6808
 32.6664
 32.6341
 31.1548
 31.2554
 31.0597
 30.7396
 30.7867
 30.7768
 30.816
 30.1312
 30.1127
 30.0967
 32.6584
 32.6983
 32.6706
 32.6661
 30.611
 30.729
 30.7391
 30.7634
 32.4947
 32.4739
 32.4897
 32.5231
 31.7222
 31.6215
 31.6696
 31.7552
 32.2837
 32.1688
 32.2444
 32.2288
 30.6847
 30.714
 30.7345
 30.6052
 31.5896
 31.5195
 31.6488
 31.6937
 30.2917
 30.102
 30.019
 30.2411
 32.3401
 32.4613
 32.3486
 32.4884
 32.864
 32.6562
 32.744
 32.7849
 31.4009
 31.3331
 31.4239
 31.5355
 32.6388
 32.62
 32.6741
 32.5927
 32.0278
 32.1103
 31.992
 31.8912
 32.6601
 32.7168
 32.6767
 32.1429
 32.1763
 31.9811
 32.1718
 31.7485
 31.6542
 31.8067
 31.5997
 31.6374
 31.7175
 32.6241
 32.5861
 32.5591
 32.9337
 32.9642
 32.9655
 32.996
 30.6895
 24.0762
 24.3102
 24.1118
 23.7792
 31.0775
 31.1746
 31.0014
 31.093
 32.7194
 32.5801
 32.5867
 32.5964
 32.5329
 32.8725
 32.8841
 32.7956
 32.6348
 32.6378
 32.6274
 32.6952
 30.3325
 30.3891
 30.5232
 30.0027
 32.5018
 32.5392
 32.5799
 32.2173
 32.2628
 32.2403
 32.6837
 32.6913
 29.9151
 30.0325
 30.0473
 32.6843
 32.7278
 32.6043
 32.4535
 32.3978
 32.4086
 30.574
 30.4655
 30.5083
 31.3532
 31.3473
 31.2448
 31.363
 32.7604
 32.6665
 32.7029
 32.1916
 32.0915
 30.5091
 30.6317
 30.4859
 30.5201
 31.4322
 31.3409
 31.1342
 31.5218
 32.7878
 32.7742
 27.1004
 26.7953
 28.9295
 28.9277
 29.0526
 32.6089
 32.5596
 32.617
 30.4876
 30.6349
 30.6472
 31.5904
 31.5537
 31.4691
 32.6565
 32.5662
 32.4824
 32.4795
 32.5387
 30.9347
 32.5341
 32.5602
 32.5568
 32.5562
 32.9371
 32.8069
 32.8491
 32.9407
 31.4899
 31.5498
 31.4741
 31.3247
 31.3293
 31.3861
 31.3441
 32.6615
 32.7236
 32.6861
 32.6313
 31.7489
 31.6739
 31.6279
 31.6359
 31.2886
 31.3848
 31.3321
 31.2234
 32.4417
 31.4406
 31.5327
 31.4449
 31.4008
 30.4291
 30.3706
 30.4218
 30.5116
 32.8072
 32.7512
 32.7372
 32.8125
 30.5267
 30.483
 30.5338
 30.5536
 26.4789
 26.7796
 26.5121
 30.4454
 30.5015
 30.3104
 30.416
 32.6351
 32.6331
 32.6208
 32.612
 31.2854
 31.3825
 31.3228
 31.2453
 32.8909
 32.928
 32.7469
 32.7871
 30.225
 31.0503
 31.1914
 31.1459
 31.2409
 30.9253
 30.8302
 30.871
 32.4997
 32.5041
 32.4009
 32.372
 31.2377
 31.3513
 31.3042
 31.3661
 31.9716
 31.9303
 31.9094
 31.9127
 32.0674
 32.0303
 32.1473
 32.1517
 30.1214
 30.2352
 32.4699
 32.4501
 32.4175
 32.9347
 32.8886
 32.8732
 32.7676
 31.5914
 31.6535
 31.4511
 31.4609
 31.4993
 31.4352
 31.438
 31.3756
 31.8236
 31.8399
 31.7137
 31.8127
 32.8935
 32.7807
 32.6885
 32.6896
 32.7019
 32.5082
 32.4838
 32.4355
 32.4148
 31.862
 31.7323
 31.7821
 31.8015
 32.9541
 32.8789
 32.9465
 30.6866
 30.7477
 30.8629
 32.6453
 32.6285
 32.6257
 32.6183
 32.808
 32.8076
 32.8075
 32.442
 31.5698
 31.5602
 31.4458
 32.7786
 32.8564
 32.823
 32.7277
 32.679
 32.6579
 32.802
 32.7689
 32.5521
 32.4892
 32.4854
 32.4737
 31.0593
 31.1276
 30.0255
 30.1076
 30.1704
 30.0219
 31.437
 31.5237
 31.4216
 31.5973
 32.4975
 32.524
 32.5148
 32.5016
 30.3333
 30.3234
 30.1629
 30.3881
 30.5046
 30.4503
 30.4329
 32.3148
 32.3692
 32.4182
 32.3109
 32.437
 32.469
 32.4594
 32.5721
 32.5862
 32.4928
 32.542
 32.2993
 32.3339
 32.4692
 32.2523
 31.6505
 31.6683
 31.6417
 31.8668
 32.5504
 32.5497
 32.5163
 32.5425
 32.8428
 32.7712
 32.7716
 32.8461
 30.3931
 30.5158
 30.3975
 30.4721
 31.9934
 32.0054
 32.0727
 32.0003
 32.5249
 32.5819
 32.5128
 32.5726
 31.7001
 31.6544
 31.1196
 30.9487
 30.97
 30.9851
 32.6936
 32.6364
 32.6728
 32.599
 32.416
 32.3657
 32.4186
 32.419
 32.6287
 32.7208
 32.6411
 32.4298
 32.4708
 32.5107
 25.1113
 24.6959
 25.083
 24.8756
 32.75
 32.689
 32.4987
 32.3934
 32.3603
 32.2351
 31.8206
 31.8891
 31.8265
 31.9285
 30.778
 31.1315
 31.2556
 30.976
 32.6606
 32.6315
 32.5807
 31.7694
 31.7176
 31.7225
 31.7663
 32.6084
 32.6237
 32.6068
 32.4555
 32.4341
 32.3621
 32.4524
 32.4988
 32.5681
 32.5561
 32.4804
 31.2616
 31.0019
 29.0007
 29.1924
 32.6437
 32.6575
 32.4845
 32.5217
 32.5069
 32.5112
 31.7347
 31.6932
 31.7502
 31.6164
 32.1446
 32.1719
 32.1177
 32.0883
 32.3062
 32.1659
 32.2166
 32.3192
 32.0246
 32.12
 32.0711
 32.5387
 32.5618
 32.5333
 32.5284
 30.6873
 30.656
 30.5938
 30.6936
 31.8216
 31.825
 31.8576
 31.9367
 32.7667
 32.7237
 32.7503
 32.6015
 32.6736
 32.6119
 32.5501
 32.5149
 32.4521
 32.4607
 32.3687
 32.4609
 32.4303
 32.4473
 32.9391
 32.9245
 32.9355
 32.9189
 32.8512
 32.9016
 32.9683
 32.9369
 30.4565
 30.5331
 30.6588
 30.5826
 31.9825
 31.796
 31.8016
 31.9329
 32.5495
 32.5943
 32.5468
 32.1834
 32.2227
 32.201
 30.8042
 30.8927
 30.8054
 30.8553
 31.8296
 31.7734
 31.9015
 31.7505
 32.8242
 32.7657
 32.6501
 32.7723
 32.3068
 32.2189
 32.7458
 32.7066
 32.8362
 32.8422
 28.0046
 27.8804
 27.4891
 28.0289
 31.4849
 31.4418
 31.4695
 31.489
 32.8605
 32.8971
 32.8194
 32.8364
 32.2429
 32.3478
 32.2747
 32.377
 32.0372
 31.8689
 31.9849
 31.8823
 32.1254
 32.1749
 32.2175
 32.2097
 32.3111
 31.3423
 31.509
 31.4577
 31.4451
 32.7248
 32.8126
 32.8462
 32.7014
 32.4979
 32.4655
 32.4573
 32.4445
 32.5127
 32.5278
 32.5165
 32.5956
 32.7554
 32.7589
 32.8356
 31.0338
 31.0087
 30.9606
 31.1532
 32.4403
 32.4369
 32.4513
 32.4742
 31.1636
 31.105
 31.0509
 31.7833
 31.8364
 31.7609
 31.8498
 31.2548
 31.1534
 31.206
 31.1251
 32.3655
 32.3671
 32.3147
 23.6842
 23.9739
 23.9746
 31.5129
 31.3802
 31.424
 32.2152
 32.0608
 32.1574
 32.0797
 32.7101
 32.6164
 32.5861
 32.5522
 32.7014
 32.6095
 32.7145
 32.7005
 30.0545
 30.3677
 29.7
 30.3163
 32.1134
 32.1529
 32.1495
 32.1613
 32.1437
 32.1741
 31.9443
 32.0338
 32.5236
 32.5631
 32.6759
 32.6726
 32.6807
 32.6793
 31.7045
 31.7903
 31.7506
 31.7108
 32.5744
 32.673
 31.9492
 31.9673
 32.5643
 24.5261
 24.3741
 24.7289
 25.0808
 31.7282
 31.8999
 30.2218
 30.127
 30.2122
 32.3788
 32.5262
 32.6544
 32.52
 31.5913
 31.5561
 32.982
 32.9654
 32.9533
 32.9791
 32.6275
 32.5633
 32.655
 31.3817
 31.4169
 31.412
 31.2799
 31.8491
 31.7823
 31.9136
 31.8485
 31.0705
 31.0535
 30.9679
 32.5247
 32.5669
 32.5395
 32.5937
 32.3814
 30.9638
 31.1302
 31.0115
 31.0494
 32.4865
 32.5215
 32.4904
 32.5506
 32.3296
 32.3627
 32.1704
 32.2659
 31.4123
 31.5781
 31.4567
 31.5261
 26.8826
 27.0185
 27.1013
 27.1461
 32.4954
 30.237
 32.6018
 32.5098
 32.5623
 32.6154
 32.2051
 32.0867
 32.2095
 32.247
 32.8921
 32.9574
 32.8698
 32.9538
 32.191
 32.2399
 32.2201
 32.2005
 32.4316
 32.492
 32.4925
 32.6745
 32.7227
 32.7075
 32.7104
 32.6025
 32.4622
 32.587
 32.5776
 31.441
 31.3118
 31.5452
 29.9104
 29.8189
 29.915
 29.9684
 29.4371
 29.1745
 29.1046
 32.4149
 32.4313
 32.4846
 32.4115
 32.5382
 32.4294
 30.8029
 30.7883
 30.8559
 30.6929
 31.5249
 31.5856
 31.5665
 31.6405
 32.8014
 32.8372
 32.8159
 31.5769
 32.5657
 32.5991
 32.583
 32.562
 32.4044
 32.3426
 32.3383
 31.7795
 31.8447
 31.7928
 31.752
 31.4915
 31.606
 31.5276
 31.5733
 32.5701
 32.6135
 31.7352
 31.728
 31.7713
 31.675
 32.1755
 32.1968
 32.1627
 32.0979
 30.6547
 30.5765
 31.7691
 31.8739
 31.8456
 31.8642
 31.6625
 31.6224
 31.6149
 31.5195
 31.8362
 31.7804
 31.8196
 31.8544
 32.3869
 32.3469
 32.6894
 32.663
 32.7138
 32.7403
 32.5452
 32.581
 32.5764
 32.549
 32.0837
 31.9745
 32.0248
 31.999
 32.6432
 32.7488
 32.6421
 32.711
 32.8957
 32.9631
 32.9435
 32.9613
 28.6787
 28.7312
 28.757
 28.3714
 32.5927
 32.6762
 32.0478
 32.2088
 32.0981
 32.1301
 32.6567
 32.6923
 32.6603
 32.6174
 32.2116
 32.1366
 32.0662
 32.1962
 32.5133
 32.5153
 31.346
 31.3635
 30.3598
 30.3321
 30.313
 30.3107
 32.5611
 32.5387
 32.5468
 32.5271
 32.4953
 32.6613
 32.7327
 32.6581
 32.5987
 32.6215
 32.675
 32.6253
 32.7231
 31.5448
 31.6713
 31.5938
 31.7098
 32.0471
 32.1026
 32.1127
 32.0353
 32.475
 32.4455
 32.4769
 32.6396
 32.5635
 32.6558
 32.6069
 32.664
 32.6487
 32.7833
 32.7357
 32.6696
 32.8605
 32.6985
 32.6772
 32.6779
 32.6781
 32.8344
 32.8612
 32.8523
 32.859
 32.4093
 32.3103
 32.3931
 32.3854
 32.7221
 32.641
 32.6857
 32.7351
 32.3385
 32.3227
 32.4464
 32.9159
 32.9239
 32.9684
 32.9287
 30.8235
 31.0157
 32.2365
 32.2067
 32.1693
 32.5004
 32.3936
 32.4288
 32.3821
 32.3106
 32.4079
 32.4586
 32.0427
 32.0891
 32.1799
 32.0554
 31.9286
 31.9874
 31.8399
 31.868
 32.2694
 32.3852
 32.2866
 31.3453
 31.5511
 31.4471
 32.4315
 32.4897
 32.4724
 31.0132
 31.0561
 30.9715
 28.129
 27.8415
 27.8418
 28.1031
 30.6529
 30.6066
 30.6799
 30.6017
 32.7896
 32.7821
 32.1719
 32.1333
 32.7123
 32.741
 32.6872
 32.7495
 31.9547
 32.0607
 31.9245
 31.2357
 31.1704
 31.1939
 31.1729
 30.9386
 31.0817
 32.6388
 32.6667
 32.6397
 32.144
 32.1237
 32.1868
 32.8121
 32.7473
 32.7317
 32.4016
 32.4467
 32.4634
 32.2752
 32.5498
 32.5384
 32.5749
 32.5137
 32.5989
 32.6099
 32.6118
 32.6041
 31.5464
 31.5471
 31.5942
 31.5006
 31.4611
 31.5601
 31.5105
 31.6281
 32.8403
 32.7391
 32.7782
 31.9908
 32.0404
 32.0818
 31.8777
 31.7427
 31.7772
 31.6756
 29.7206
 29.7788
 29.7069
 32.4257
 32.5452
 32.5399
 31.6164
 31.5551
 31.6596
 32.5248
 32.5093
 32.5078
 32.7183
 32.7133
 32.7124
 32.4961
 32.5389
 32.478
 32.4213
 32.3192
 32.6232
 32.5346
 32.582
 33.0097
 32.9968
 32.9895
 32.7157
 32.7551
 31.8599
 31.9363
 31.8013
 31.8618
 31.7826
 31.6932
 31.8449
 31.881
 32.7492
 32.7334
 32.7426
 32.8217
 32.5631
 32.5242
 32.5278
 32.5692
 31.8508
 31.7575
 31.8141
 31.6939
 30.5541
 30.5174
 31.1085
 31.2418
 31.1603
 31.0837
 30.4658
 32.7644
 32.6847
 32.6984
 32.3563
 32.341
 32.3826
 32.4308
 32.8034
 32.7133
 32.6461
 32.6546
 32.4996
 32.4884
 32.5594
 31.2076
 31.2179
 31.1071
 31.3065
 30.8113
 30.8676
 30.6636
 30.8134
 31.5039
 31.4558
 31.5371
 32.6735
 32.6306
 32.6505
 30.7596
 30.789
 30.7433
 30.7346
 32.9492
 32.8802
 32.919
 32.8983
 31.4288
 31.49
 31.5427
 31.444
 32.9005
 32.8716
 32.8421
 32.8556
 32.7045
 32.7386
 32.7193
 30.5066
 30.3491
 30.4295
 30.4803
 32.5719
 32.5087
 32.5131
 32.708
 32.7157
 32.4849
 32.8183
 30.4727
 30.3736
 30.419
 32.7485
 32.7532
 32.6172
 32.6328
 31.7126
 30.7357
 30.661
 30.8645
 30.7672
 32.4407
 32.457
 32.5121
 32.4516
 31.8895
 32.0417
 31.9244
 31.8957
 32.4705
 32.4808
 32.4948
 32.6346
 32.483
 32.5619
 32.4353
 31.9058
 31.9902
 31.8473
 32.652
 32.6604
 28.3206
 27.9831
 28.4405
 28.7173
 31.6744
 31.0269
 31.038
 30.7153
 30.7564
 30.6913
 30.8183
 30.8716
 30.8015
 32.0029
 32.0257
 31.851
 32.1042
 32.6103
 32.5891
 32.6053
 32.5673
 32.5165
 32.598
 32.5982
 32.5871
 32.0486
 32.1031
 31.9746
 32.0369
 32.1488
 32.2788
 32.1984
 32.2606
 30.5752
 32.4984
 32.4907
 32.4921
 32.5057
 30.6383
 30.7051
 30.5943
 32.3043
 32.3544
 32.4239
 32.4284
 32.569
 32.6458
 32.6698
 32.1093
 32.1986
 32.1641
 32.1712
 32.4922
 31.5789
 31.5638
 31.428
 31.4855
 32.8564
 32.9418
 32.8678
 32.4179
 32.3522
 32.4553
 30.568
 30.6158
 30.7092
 30.625
 32.3852
 32.3353
 32.4206
 26.8229
 26.9432
 26.437
 32.3965
 32.4429
 32.366
 32.511
 31.6069
 31.472
 31.565
 32.3761
 32.3515
 31.1473
 31.0635
 31.1998
 31.1538
 31.5456
 31.4379
 31.4839
 31.5191
 30.3809
 30.4211
 30.4961
 30.5747
 32.3632
 32.4929
 32.4106
 32.3549
 31.4346
 31.5035
 31.5076
 31.5164
 31.167
 31.0829
 31.0029
 32.8618
 32.9086
 32.8671
 32.8397
 32.4275
 32.3576
 32.6583
 32.6659
 32.6555
 32.657
 31.7672
 31.7527
 31.7865
 31.7171
 32.4201
 32.3777
 32.3666
 32.4533
 31.9473
 32.0056
 31.9087
 32.0217
 32.3899
 32.3715
 32.3093
 32.3174
 32.4876
 32.5268
 32.5383
 31.146
 31.207
 31.1776
 30.8219
 30.8332
 30.847
 30.7137
 31.3152
 31.3055
 31.222
 31.6377
 31.4692
 31.5934
 29.7797
 29.4478
 29.3967
 32.3631
 32.266
 32.3221
 31.2601
 31.2216
 31.3024
 31.2708
 32.3709
 32.3435
 32.3994
 32.2619
 32.2735
 32.1143
 32.3327
 31.8325
 32.0193
 31.9815
 31.9574
 32.6686
 32.5844
 32.6225
 32.5647
 32.6699
 32.6761
 32.6787
 32.6779
 32.3589
 32.319
 32.367
 32.304
 32.4767
 32.4859
 32.4909
 32.4601
 32.482
 32.1994
 32.245
 32.2034
 32.2576
 32.4739
 32.4492
 32.483
 32.4216
 31.8324
 31.9031
 31.7285
 31.6673
 32.9383
 32.8948
 32.9397
 32.9351
 30.0849
 30.1851
 30.1388
 30.1957
 31.3577
 31.4107
 31.5473
 31.5221
 32.9706
 32.9816
 33.0168
 32.2732
 32.215
 32.0622
 32.1449
 32.6278
 32.6334
 32.686
 32.623
 32.5731
 32.4754
 32.4772
 32.4207
 32.333
 30.9231
 30.9902
 31.0129
 30.7711
 30.7963
 30.7328
 30.8379
 32.5126
 32.5194
 30.3258
 30.2512
 30.3444
 31.1616
 31.1717
 31.1217
 31.1067
 32.6056
 32.5628
 32.6508
 30.5328
 30.4776
 30.6166
 30.4415
 32.5408
 32.5098
 32.494
 32.5603
 32.8082
 32.6982
 32.6717
 32.7817
 31.9778
 32.21
 32.143
 32.0373
 30.5853
 30.611
 30.2841
 30.3807
 31.9899
 31.8649
 31.9597
 31.8504
 32.6121
 32.6224
 32.6219
 32.6579
 30.495
 30.6444
 30.4981
 26.4516
 26.9901
 26.6556
 27.2246
 31.8951
 32.125
 31.9391
 32.0753
 30.6649
 30.4664
 30.5807
 30.5802
 32.5913
 32.6151
 32.525
 31.0672
 30.9661
 30.9242
 32.7938
 32.8149
 32.7636
 30.4317
 30.5784
 30.5741
 30.4648
 30.8744
 30.8971
 30.9033
 31.0224
 32.664
 32.6615
 32.6383
 32.6619
 32.8193
 32.8846
 32.8029
 32.8384
 31.4121
 31.3991
 31.3636
 31.2625
 32.2994
 32.3214
 32.3553
 32.3516
 31.2941
 31.5002
 31.5528
 31.387
 30.9657
 31.1609
 31.0429
 31.0757
 30.3041
 32.1326
 32.1292
 32.0686
 32.0765
 30.8156
 30.7666
 30.7771
 30.6875
 32.6422
 32.6508
 32.6129
 32.6299
 30.4883
 30.4024
 30.5131
 30.556
 32.6117
 32.5953
 32.6312
 32.6391
 32.6252
 32.5993
 31.4694
 31.5684
 31.5749
 31.5947
 32.1241
 32.0149
 32.0092
 32.5313
 32.582
 32.5195
 31.4399
 31.4215
 31.5498
 31.5812
 31.3343
 31.3866
 31.2875
 31.3553
 32.6063
 32.5285
 32.5506
 32.5461
 32.4443
 32.4369
 32.5135
 31.2505
 31.5144
 31.7664
 31.4526
 31.1897
 30.3811
 30.5547
 30.3616
 30.5549
 32.5362
 32.5395
 32.6107
 32.5344
 30.7054
 30.6529
 32.6596
 32.805
 32.8234
 32.6072
 32.5745
 32.6206
 32.6268
 30.4901
 30.484
 30.4681
 30.4265
 32.5735
 32.6246
 32.5914
 32.6796
 32.6662
 32.6854
 32.672
 32.8733
 32.8195
 32.8434
 32.8941
 31.7706
 31.548
 31.6311
 31.569
 32.6921
 32.6963
 32.7295
 32.705
 31.3852
 32.1496
 32.0482
 31.9952
 32.1416
 30.7746
 30.7318
 30.8328
 30.5685
 30.6013
 30.625
 30.6816
 31.971
 31.9553
 32.0512
 32.0047
 30.0951
 30.0883
 30.0696
 30.1884
 32.6519
 31.985
 32.1054
 32.14
 32.0255
 32.5037
 32.6064
 32.6071
 32.4932
 30.5828
 30.8678
 30.9538
 30.522
 32.3065
 32.274
 32.2621
 32.3304
 32.6029
 32.5799
 32.5543
 32.5505
 32.7801
 32.7481
 32.7266
 30.9744
 31.0921
 31.1424
 32.7957
 32.8448
 32.8005
 32.8006
 30.8171
 30.6573
 30.7391
 32.3339
 32.3233
 32.3039
 32.2682
 32.2928
 32.1653
 32.1528
 32.124
 32.6019
 32.5699
 32.4433
 32.4925
 30.9714
 30.9022
 30.899
 32.6507
 30.7508
 32.0908
 31.9954
 32.0507
 32.2126
 32.568
 32.4957
 32.4913
 32.8063
 32.768
 32.8228
 32.2691
 32.2819
 32.3306
 32.312
 32.3367
 32.2441
 32.2213
 32.3602
 32.4251
 32.3499
 32.4677
 26.2607
 26.3115
 25.9448
 31.393
 31.527
 31.3836
 32.6789
 32.5995
 30.9888
 31.1757
 31.1476
 31.1486
 31.9114
 31.832
 31.8945
 30.7156
 30.921
 30.6183
 30.7703
 32.6821
 32.8561
 32.8433
 32.5247
 32.5756
 32.5151
 32.5355
 32.4876
 31.854
 31.9811
 31.9275
 31.88
 32.9124
 32.8544
 32.9189
 32.927
 31.3609
 31.4262
 31.4066
 32.5245
 32.5544
 32.56
 32.5695
 31.6793
 31.5723
 31.5962
 31.6088
 32.5883
 32.5232
 32.4888
 32.5448
 32.5846
 32.5665
 32.6048
 32.6351
 32.6544
 32.646
 32.6554
 32.8436
 32.8167
 32.8435
 32.8316
 32.4333
 32.4527
 32.3465
 32.3344
 30.7073
 30.6247
 30.6547
 30.6184
 32.4579
 32.4898
 32.471
 32.4998
 32.5818
 32.5466
 32.5804
 32.5975
 32.0411
 31.8842
 31.9694
 31.8973
 32.6025
 32.6745
 32.6085
 32.5746
 29.8913
 29.8294
 29.8343
 29.8454
 32.8183
 32.8757
 32.8241
 32.5529
 32.4765
 32.509
 32.6532
 32.4433
 32.4276
 32.4318
 32.4328
 32.7712
 32.6113
 31.8059
 31.8479
 31.7739
 31.8872
 30.0902
 30.1923
 30.1468
 30.1536
 32.5884
 32.6267
 32.5916
 32.6141
 32.7288
 32.6446
 32.6851
 31.8337
 31.9133
 31.946
 31.8425
 32.5639
 32.6904
 32.4569
 32.5606
 32.6273
 32.6436
 32.6536
 32.6579
 32.6013
 32.7156
 32.6487
 31.258
 31.1629
 31.1175
 31.2146
 31.3324
 31.2693
 31.4005
 32.6483
 32.5454
 32.4981
 32.5983
 32.7106
 32.8396
 32.6856
 32.8347
 32.8718
 32.8991
 32.7497
 31.8111
 31.7809
 31.915
 32.7333
 32.6723
 32.6542
 32.3706
 32.238
 32.3241
 31.1873
 31.3277
 31.2935
 31.6382
 31.6887
 32.652
 32.6054
 32.6109
 32.6017
 32.5313
 32.5803
 32.704
 32.7922
 32.9323
 32.3291
 32.3329
 32.2306
 30.8338
 30.8563
 31.0067
 32.4432
 32.433
 32.4435
 32.5133
 32.9142
 32.3985
 32.3431
 31.9666
 32.0006
 31.9872
 31.9087
 32.443
 32.6313
 32.5145
 32.6271
 32.6044
 32.7299
 32.5611
 32.6386
 32.5285
 32.7712
 32.7961
 32.7791
 32.6638
 30.9788
 31.0673
 31.0843
 31.0039
 30.9688
 30.8949
 30.7566
 30.8012
 32.7938
 32.8331
 32.3151
 32.4523
 32.4362
 32.4913
 32.2041
 32.1745
 32.158
 32.1196
 31.7453
 31.6634
 31.7789
 31.7854
 32.5704
 32.5789
 32.6006
 32.5432
 32.5406
 32.5144
 32.5233
 32.5681
 31.1826
 31.3236
 31.2079
 31.2379
 32.6704
 32.6509
 32.7137
 32.6513
 32.6828
 32.6881
 32.6658
 31.3479
 31.2492
 31.1323
 31.1167
 32.6001
 32.6217
 32.6256
 32.6406
 30.9098
 30.9696
 30.8835
 30.9228
 31.294
 31.3701
 31.3452
 31.376
 32.5372
 32.5235
 32.5797
 32.5217
 31.662
 31.6358
 31.7082
 31.793
 32.7196
 32.7139
 32.6735
 32.6742
 31.5619
 31.604
 31.5578
 32.6252
 32.7017
 32.6126
 32.5874
 32.1305
 32.1438
 32.1135
 32.0688
 32.5339
 32.5255
 31.574
 31.4909
 31.5311
 31.5965
 31.476
 31.4855
 31.5396
 32.5666
 32.5186
 32.5676
 31.3844
 31.4135
 31.3702
 31.2622
 31.2624
 31.2557
 31.4036
 31.3935
 32.7118
 32.7057
 32.7013
 32.7298
 31.9577
 32.068
 32.0612
 31.9448
 30.8104
 30.82
 30.879
 30.8376
 31.1495
 31.0623
 31.0435
 31.1523
 30.5831
 30.5489
 30.5515
 30.918
 30.9069
 32.5248
 32.4772
 32.4974
 32.4792
 32.7383
 32.6968
 32.6604
 32.7483
 32.69
 32.6668
 32.8779
 32.8682
 32.8932
 32.8912
 32.5723
 32.5764
 32.5088
 32.5714
 32.9141
 32.9196
 32.8675
 32.1118
 32.1715
 32.1325
 32.2072
 29.8889
 29.9214
 30.0131
 32.7946
 32.7802
 32.7438
 32.7393
 30.9725
 31.0836
 31.0028
 30.9757
 31.6802
 31.5401
 31.5513
 32.2569
 32.3086
 32.1828
 31.8109
 31.6967
 31.8802
 31.1681
 31.2931
 31.7725
 31.7474
 31.7487
 32.6435
 32.6913
 32.6947
 32.6694
 30.8203
 30.752
 30.83
 30.8686
 32.1401
 32.0262
 32.1413
 30.1648
 29.6826
 29.5863
 30.1127
 32.6331
 32.6634
 32.1361
 32.9062
 32.8788
 32.8855
 32.8815
 32.5272
 32.461
 32.4712
 31.7243
 31.6571
 31.7455
 31.7208
 30.9085
 30.8441
 32.4177
 32.4523
 32.4428
 32.4759
 32.402
 32.2565
 32.283
 32.2784
 31.1989
 31.121
 31.1592
 31.1999
 31.7969
 31.7616
 31.7998
 27.2515
 27.0159
 26.5915
 26.6332
 32.5241
 32.5496
 32.4629
 32.7741
 32.829
 32.8108
 32.8289
 32.0798
 32.0746
 32.1331
 32.0217
 32.3872
 32.3122
 32.5436
 32.577
 32.5552
 32.5833
 31.785
 31.67
 33.0104
 32.9997
 32.8447
 32.8955
 32.4664
 32.4513
 32.5197
 32.4592
 32.5528
 32.5047
 32.4069
 32.4971
 32.6179
 32.6302
 32.6357
 31.6406
 31.8079
 31.6699
 31.7474
 31.2799
 31.2028
 31.1001
 31.2933
 31.2695
 31.2831
 31.3076
 31.1594
 32.1688
 32.1282
 32.0925
 32.0264
 32.3816
 32.4332
 29.1569
 28.9088
 28.9365
 28.5956
 32.8136
 32.9223
 32.9011
 30.3388
 25.0272
 25.1855
 25.2424
 24.5798
 32.2961
 32.2174
 32.2645
 32.2498
 32.6288
 32.6162
 32.614
 31.1937
 31.1412
 31.0771
 31.236
 31.2493
 31.2814
 31.1816
 31.1992
 31.1799
 31.1528
 31.2325
 31.2678
 32.6949
 32.68
 32.6542
 32.6994
 32.5104
 32.5899
 32.3927
 32.5164
 31.9055
 31.916
 31.8115
 31.918
 32.7366
 32.7957
 32.7444
 32.7801
 30.0069
 30.7743
 30.6931
 32.0586
 32.0726
 32.4046
 32.406
 32.4263
 30.7712
 30.6263
 30.7178
 30.7376
 32.3277
 32.3625
 32.2063
 32.2632
 30.6804
 30.9476
 30.7068
 31.0322
 32.6199
 32.6102
 32.6046
 32.6339
 31.8196
 31.714
 31.827
 31.6993
 31.0705
 30.8394
 31.0443
 31.1257
 30.0901
 30.1662
 30.0468
 30.1461
 30.8656
 31.015
 30.681
 30.7352
 30.812
 30.6716
 31.3081
 31.2349
 32.663
 32.5843
 32.5923
 25.9775
 26.4787
 25.8678
 25.9938
 31.3462
 31.4813
 31.5571
 31.356
 30.8266
 30.7327
 30.8255
 30.884
 31.5439
 31.3634
 31.4268
 32.3687
 32.4369
 32.5046
 32.3663
 32.7157
 32.6823
 32.626
 32.6427
 30.8646
 30.7892
 30.8833
 30.7332
 32.3937
 32.2964
 32.6525
 32.6172
 31.7954
 31.7219
 31.872
 31.843
 32.7473
 32.6443
 32.7391
 32.6981
 32.5941
 32.5885
 32.5093
 26.7099
 27.446
 27.3675
 27.1883
 32.709
 32.7011
 32.732
 32.6907
 31.1325
 31.0925
 31.2698
 31.1641
 31.2529
 31.1618
 32.6668
 32.6785
 32.714
 32.6499
 31.4857
 31.5495
 31.456
 31.8514
 31.8951
 31.8056
 31.9006
 31.2087
 31.083
 31.1991
 31.0861
 32.6592
 32.6608
 32.6617
 32.659
 30.6053
 30.7535
 32.5423
 29.6946
 29.957
 30.0495
 30.2538
 31.4411
 31.482
 31.3992
 31.6624
 31.4801
 31.4446
 31.4847
 31.6065
 31.6119
 31.5714
 31.4866
 32.6474
 32.6478
 32.5656
 32.6447
 32.5725
 32.5496
 32.5865
 32.587
 31.8357
 31.7578
 31.742
 32.6439
 32.6332
 32.6466
 32.6432
 32.1208
 32.1135
 32.0686
 32.1851
 31.9993
 32.1643
 30.9883
 30.9613
 30.9835
 31.8314
 31.7994
 31.8225
 29.725
 29.8267
 30.1992
 29.8986
 32.8299
 32.8136
 32.76
 32.8323
 30.8788
 31.0145
 31.0497
 31.0648
 31.4257
 31.4808
 32.9059
 32.9648
 32.9752
 31.7406
 31.8695
 31.8717
 31.9743
 31.8828
 31.9268
 31.9554
 32.6646
 32.6584
 32.6701
 32.6691
 30.5907
 30.6314
 32.8848
 32.8919
 32.8814
 32.8916
 32.9923
 32.9913
 33.006
 31.8106
 31.7822
 32.4068
 32.3799
 32.5055
 32.3394
 32.5257
 32.4851
 31.9521
 32.0304
 32.6468
 32.6258
 32.6002
 32.6681
 32.1588
 32.1096
 32.2398
 32.0936
 32.1453
 32.2038
 32.1786
 32.1644
 32.1194
 32.1121
 32.3114
 31.3631
 31.3934
 31.5195
 31.5137
 31.6525
 31.686
 31.7657
 31.7102
 30.8482
 30.8326
 30.8909
 30.8958
 32.0763
 32.0397
 32.1457
 32.3502
 32.4176
 32.4327
 32.3885
 32.2726
 31.2813
 31.2537
 32.6485
 32.6316
 32.6635
 32.6507
 32.6165
 30.8343
 30.8605
 30.9368
 30.8828
 32.4404
 32.5402
 32.5381
 32.4813
 27.2996
 27.5302
 32.5706
 32.6411
 32.5651
 29.4082
 29.4993
 29.3825
 29.7851
 32.0624
 32.1138
 32.0728
 32.1151
 32.6293
 32.6933
 32.7578
 32.6243
 32.5793
 30.5297
 30.5241
 30.5438
 30.7323
 30.725
 30.7659
 32.5248
 32.6496
 32.9537
 33.0002
 28.5884
 28.2153
 28.1143
 28.2898
 30.8037
 30.9773
 30.8017
 32.6211
 32.6289
 32.653
 32.6154
 32.8153
 32.8395
 32.7895
 32.8311
 31.756
 31.6938
 31.6842
 31.7387
 32.1543
 31.9117
 32.0517
 31.7271
 31.7382
 31.8199
 31.7307
 31.4261
 31.5409
 31.3299
 31.5811
 32.6834
 32.6816
 32.8406
 32.858
 32.7841
 32.1467
 32.1984
 32.257
 32.2372
 32.6096
 32.6051
 32.6616
 32.6619
 31.6564
 31.7401
 31.7224
 31.6788
 32.5891
 32.5638
 30.9976
 31.0541
 31.0032
 31.0888
 31.5596
 31.7175
 31.6435
 31.5381
 32.6262
 32.6182
 32.6359
 32.6039
 31.2018
 31.0717
 32.5746
 32.5689
 32.5431
 32.5359
 31.6863
 31.6702
 31.6815
 31.7445
 32.6841
 32.7424
 32.6407
 32.7224
 30.5567
 30.5
 30.4194
 30.4534
 30.8658
 30.9142
 30.9524
 32.6917
 32.6817
 32.6862
 30.5935
 30.5153
 32.7053
 32.5994
 32.6196
 32.4778
 31.0637
 31.1518
 31.0679
 31.1565
 32.9274
 32.9267
 32.8977
 32.8701
 32.0828
 32.1913
 32.3
 31.3076
 31.1967
 31.1954
 31.3048
 32.529
 32.4211
 32.4459
 32.5027
 32.7564
 32.7578
 32.75
 32.6736
 32.1763
 32.1826
 32.3312
 32.0384
 32.2012
 32.0444
 32.2905
 32.2811
 32.3324
 32.2486
 32.1997
 32.1989
 32.0919
 32.2092
 32.7334
 32.6256
 32.6984
 32.6699
 32.6235
 32.6228
 32.6484
 32.6072
 32.599
 32.5977
 31.8253
 31.6923
 31.8202
 31.8143
 32.2397
 32.3474
 32.2569
 32.3105
 32.2158
 32.3262
 32.3543
 32.5505
 32.4192
 32.3784
 29.8581
 30.022
 30.2804
 30.1034
 30.8773
 30.7096
 30.8037
 32.8347
 32.8437
 32.7854
 32.9081
 32.2757
 32.3162
 32.2749
 32.5373
 32.5512
 32.5059
 32.5255
 32.5774
 32.547
 32.5893
 32.5846
 32.593
 32.5798
 32.5684
 32.7256
 32.6957
 31.4906
 31.5392
 31.3953
 30.4033
 30.3477
 30.4652
 30.4025
 32.7965
 32.6235
 32.7197
 32.5675
 32.358
 32.3014
 32.3021
 32.4251
 31.3048
 31.2944
 31.3537
 31.3814
 32.5751
 32.6175
 32.6019
 32.627
 32.6605
 32.682
 32.6917
 32.6775
 31.2494
 31.3368
 31.4365
 31.4232
 32.6755
 32.636
 31.0109
 31.048
 30.9661
 32.3509
 32.405
 32.0546
 32.0939
 31.8655
 31.9611
 32.6001
 32.5844
 32.5739
 32.583
 32.0066
 32.0219
 32.0964
 32.4793
 32.493
 32.0611
 32.0169
 31.8841
 32.0569
 32.4684
 32.4544
 31.766
 31.7031
 32.6366
 32.6512
 32.6446
 32.6338
 31.8836
 32.0012
 31.8897
 31.8191
 31.4493
 31.3417
 31.2579
 31.3262
 30.5602
 30.5337
 30.593
 30.5879
 32.4639
 32.4299
 32.7639
 32.7227
 32.6597
 32.6096
 31.2682
 31.3636
 32.513
 32.6005
 32.4801
 30.5314
 30.5634
 31.0666
 30.9153
 29.9517
 30.3227
 30.1205
 32.5747
 32.4681
 32.464
 32.4881
 32.6222
 32.5896
 32.6205
 32.8972
 32.6903
 32.6537
 32.6807
 32.6463
 32.889
 32.9428
 32.8366
 32.8396
 32.5176
 32.5499
 32.5108
 32.5609
 31.8721
 32.0579
 32.0659
 31.8993
 30.639
 30.6811
 30.6919
 30.5884
 32.549
 32.5669
 32.4853
 32.4954
 31.216
 31.2677
 31.1073
 31.1418
 32.6754
 31.7064
 31.8351
 31.7825
 31.8223
 32.309
 32.2887
 32.3029
 32.3683
 31.6465
 31.5609
 31.556
 32.5731
 30.8598
 30.8289
 30.9026
 30.8018
 30.6884
 30.6521
 30.6498
 30.764
 30.9053
 30.7999
 30.7594
 32.3725
 32.3859
 32.3781
 32.4462
 30.8338
 30.7899
 30.7539
 30.7381
 32.7149
 32.6301
 32.6586
 32.5448
 31.8839
 31.919
 31.9202
 32.0077
 32.4618
 32.3662
 32.385
 32.4453
 31.077
 31.2301
 31.213
 32.0227
 32.4705
 32.4817
 32.4983
 32.4437
 30.7261
 30.6459
 30.6444
 30.6197
 30.6592
 30.5654
 30.492
 30.5343
 31.7569
 31.7884
 31.7249
 31.7893
 32.5553
 32.6054
 32.6153
 32.6174
 32.4649
 32.3961
 32.473
 30.7199
 30.6984
 30.7427
 30.8437
 30.6015
 30.5438
 30.5894
 30.6255
 32.84
 32.7805
 32.7772
 31.3912
 31.2921
 30.8214
 30.863
 30.8604
 32.8733
 32.8059
 32.8573
 32.8662
 31.5734
 31.4766
 31.66
 31.6533
 32.6024
 32.292
 32.2625
 32.2306
 32.3075
 31.9708
 32.066
 31.9719
 32.1182
 30.6084
 30.563
 31.0604
 30.9411
 31.0163
 30.9447
 31.1019
 30.957
 31.0116
 30.9233
 31.2569
 31.3549
 31.2302
 31.3586
 31.4811
 31.4206
 31.4433
 31.4002
 31.3885
 31.5412
 30.8202
 30.7825
 30.7226
 32.5497
 32.5768
 32.5865
 32.6604
 32.6942
 32.6757
 32.6689
 31.5109
 31.5694
 31.5011
 31.4032
 32.5183
 32.5708
 32.552
 32.5396
 30.2746
 30.3709
 30.2643
 30.1995
 32.1911
 32.2114
 32.1639
 32.1887
 31.165
 31.0896
 31.1641
 31.655
 31.658
 32.3584
 32.4905
 32.3877
 32.3529
 32.2919
 32.4818
 32.2425
 32.3948
 32.5518
 32.4526
 32.4827
 31.9207
 31.8093
 31.8734
 31.7767
 32.7502
 32.7074
 32.6679
 30.9843
 31.0034
 30.8886
 31.0241
 30.6902
 32.1444
 32.2242
 32.2408
 32.1538
 31.6744
 31.6095
 31.6135
 31.6313
 31.9989
 32.0714
 32.0943
 26.1982
 25.9913
 26.4118
 26.3638
 32.6392
 32.6776
 32.6228
 32.5626
 32.4683
 32.5686
 32.6107
 32.5223
 23.5584
 23.6874
 30.3756
 30.3347
 30.3014
 30.2208
 31.5941
 31.3847
 32.5251
 32.5389
 32.54
 32.5462
 32.4559
 32.4463
 32.4098
 32.4361
 31.1024
 30.9868
 31.0393
 31.1553
 32.6135
 32.602
 32.6159
 32.6157
 32.4982
 32.4653
 32.4156
 32.4617
 30.9628
 30.8789
 30.8915
 30.8023
 32.5972
 32.5731
 32.5074
 32.694
 30.6945
 30.7887
 30.7638
 30.8039
 31.8212
 31.7572
 31.7584
 32.7345
 32.7038
 32.6475
 32.6925
 32.0432
 32.1328
 32.0948
 32.1321
 32.2222
 32.2875
 32.6491
 32.5841
 32.6044
 31.8436
 31.8615
 31.7441
 31.7305
 30.5804
 30.5839
 30.4615
 30.4479
 30.8559
 30.7802
 30.7318
 30.8655
 32.8133
 32.7603
 32.7478
 32.7395
 32.5113
 32.471
 32.5093
 32.5152
 32.8541
 32.7607
 32.7239
 32.7886
 32.2011
 32.1909
 32.1705
 32.3184
 32.3308
 32.3017
 32.4091
 31.3646
 31.3082
 31.6368
 31.5079
 31.6047
 31.5883
 31.3377
 31.2567
 31.3899
 32.9448
 32.9601
 32.9436
 32.9655
 32.3485
 32.3406
 32.2887
 32.3082
 30.3072
 30.3004
 30.2755
 30.2002
 32.0466
 32.089
 32.1655
 32.0658
 31.9885
 32.0971
 31.9726
 32.0321
 30.8345
 30.7639
 30.8542
 30.8787
 32.5099
 32.2939
 32.4973
 32.5084
 31.5802
 31.6689
 32.413
 32.3694
 31.1183
 31.1911
 31.0881
 31.0121
 32.2831
 32.319
 32.3232
 32.4051
 31.791
 31.8757
 31.7517
 32.7529
 32.7997
 32.6276
 32.741
 32.8943
 32.9769
 32.2553
 32.285
 32.2308
 32.2692
 31.8227
 31.8405
 31.7755
 32.7651
 32.7981
 32.9251
 32.7954
 32.5721
 32.4833
 32.5555
 32.4894
 31.4776
 31.6127
 31.5829
 31.5527
 31.9662
 31.9392
 32.0946
 30.4611
 30.4341
 30.5394
 30.5328
 32.0001
 32.0238
 31.9952
 32.5564
 32.5723
 32.59
 30.7598
 30.7476
 30.8421
 30.6939
 31.2476
 32.6775
 32.6609
 32.631
 32.6394
 30.7579
 30.902
 30.873
 30.7998
 31.8943
 31.8115
 31.839
 30.5503
 30.5457
 30.5419
 30.5355
 30.8179
 30.9074
 30.8825
 30.7546
 30.7605
 31.6435
 31.7721
 32.465
 32.4823
 32.4093
 32.4492
 31.9555
 31.873
 31.8817
 31.8856
 32.657
 32.0459
 31.9764
 32.1374
 31.6103
 31.5309
 31.4265
 31.5934
 32.6743
 32.6578
 32.7072
 32.6378
 32.9504
 32.9715
 32.0906
 32.0555
 32.0353
 32.6651
 32.6473
 32.6563
 32.6716
 32.617
 32.6292
 32.6369
 32.6393
 30.8221
 30.7295
 32.6665
 32.6439
 32.6651
 32.6549
 32.2029
 32.4166
 32.0889
 32.2691
 32.846
 32.8406
 32.7962
 32.8065
 32.3342
 32.3387
 32.4342
 31.2729
 31.3677
 31.1738
 31.602
 31.6413
 30.8398
 30.8217
 30.8951
 32.65
 32.6298
 32.6623
 32.4867
 32.7773
 32.801
 32.7548
 25.3871
 25.8137
 25.3987
 25.0321
 31.3496
 31.4979
 31.3607
 31.295
 32.7915
 32.8523
 32.7767
 32.7855
 32.0318
 32.1116
 32.1045
 32.0377
 31.2986
 31.3292
 31.458
 31.3574
 32.9462
 32.909
 32.9332
 32.9078
 32.4704
 32.4099
 32.4677
 31.5678
 31.5775
 31.4951
 31.9986
 32.0495
 31.989
 31.8605
 32.3679
 32.4561
 32.4372
 32.425
 32.0562
 32.0062
 31.9719
 32.2447
 32.5077
 32.3315
 32.3719
 32.4381
 32.436
 32.4194
 32.4792
 32.7713
 32.7241
 32.6871
 32.8329
 32.7599
 32.6033
 32.8181
 32.7853
 30.1925
 30.055
 30.2437
 32.4941
 32.5079
 32.4758
 30.1285
 31.2326
 31.2066
 31.3363
 31.3023
 32.4783
 31.5666
 32.6732
 32.6704
 32.6889
 32.6904
 32.1808
 32.1014
 32.0151
 32.0994
 31.7627
 32.538
 30.4312
 30.4747
 30.4491
 30.4606
 25.8778
 26.4171
 26.2032
 32.994
 33.029
 33.0873
 32.2367
 32.3591
 29.9903
 29.9251
 30.0465
 29.9877
 32.5876
 32.6401
 32.6021
 32.6063
 31.2395
 31.1437
 31.1337
 31.9344
 32.0073
 31.8431
 31.8871
 31.731
 31.8423
 30.6566
 30.7383
 30.741
 30.6667
 32.4886
 32.441
 32.3447
 32.3973
 30.9136
 30.8378
 30.9323
 30.8583
 32.5484
 32.4499
 32.3623
 32.4751
 31.5118
 31.4645
 31.4248
 31.5517
 31.2113
 31.3164
 31.2315
 31.008
 32.7601
 32.7533
 32.7407
 32.7304
 32.2193
 30.5808
 30.4607
 30.5037
 30.4894
 32.1387
 32.1423
 32.2925
 32.1543
 32.0433
 31.9944
 32.3326
 32.4501
 32.2717
 32.3542
 32.6438
 32.706
 32.6698
 32.3505
 32.3739
 32.4049
 32.4267
 30.1691
 30.2673
 30.2929
 30.2377
 32.6685
 32.6635
 32.6468
 32.6504
 31.6701
 31.8128
 31.8202
 31.7676
 32.2485
 32.2581
 32.2891
 32.5482
 32.5439
 32.5306
 32.5921
 30.6416
 30.532
 30.1366
 30.6596
 32.7563
 32.7063
 32.6465
 31.1869
 31.1803
 31.1012
 32.0244
 31.3007
 31.4415
 31.4138
 31.4001
 32.9694
 32.9809
 33.0019
 33.0054
 31.0897
 30.8993
 30.997
 31.018
 32.3766
 32.4907
 31.7803
 31.8533
 31.8101
 31.7594
 31.8339
 31.8748
 32.0259
 30.3436
 30.5131
 30.0373
 30.3824
 29.926
 29.776
 29.8322
 29.9092
 32.557
 32.5125
 32.5452
 32.7603
 32.7061
 32.7101
 32.7226
 31.581
 31.7784
 31.7224
 27.6369
 27.1858
 26.9714
 27.2956
 31.3457
 31.3121
 31.2293
 31.2408
 31.303
 31.2879
 32.5037
 32.5455
 32.5159
 32.4301
 32.5206
 32.5231
 32.5425
 32.5153
 31.4475
 31.7079
 31.712
 31.3588
 32.5048
 31.0868
 31.0843
 31.0083
 31.2706
 31.4948
 31.573
 31.618
 31.6357
 32.5186
 32.4789
 31.4475
 31.4002
 31.3918
 31.5085
 31.1758
 31.1232
 31.1949
 31.1221
 30.3211
 30.269
 30.2734
 30.1398
 25.918
 25.7047
 26.355
 31.9674
 31.8647
 31.9061
 31.9105
 31.1714
 31.1584
 31.222
 31.206
 30.3018
 30.6023
 30.7284
 30.2583
 31.8132
 31.4639
 31.4405
 31.3853
 31.487
 30.8117
 30.7616
 30.8107
 32.4274
 32.3496
 32.364
 32.3341
 30.4048
 30.2822
 30.241
 30.2918
 32.147
 32.0896
 32.1448
 32.1536
 32.0285
 32.6936
 32.6845
 32.6851
 32.1961
 32.2721
 32.2405
 32.1584
 32.3408
 32.3164
 32.2313
 32.3962
 32.6665
 32.6824
 32.6699
 32.2272
 31.063
 31.3041
 30.7854
 31.8722
 31.8361
 31.8521
 31.4255
 31.4167
 31.4853
 32.8184
 32.8308
 32.766
 32.8443
 31.6906
 31.7685
 30.7671
 30.8367
 30.8523
 30.8224
 30.6274
 30.6448
 30.6532
 31.0149
 30.9405
 31.9817
 31.8912
 31.9564
 31.1416
 31.3036
 31.2075
 32.7765
 27.3692
 27.2298
 27.5498
 27.4505
 31.8531
 31.8255
 31.9062
 31.8677
 28.5946
 28.6606
 29.1437
 28.5383
 31.5561
 31.5086
 31.4902
 32.5657
 32.5579
 32.685
 32.6909
 32.7442
 32.8202
 32.7628
 32.7417
 32.1778
 32.1695
 32.0761
 31.6689
 31.5662
 32.5997
 32.4903
 32.5053
 32.6291
 32.6704
 32.6577
 32.6775
 32.842
 32.8012
 32.8192
 32.1228
 32.024
 31.9878
 32.1132
 31.3392
 31.2121
 31.3128
 31.2655
 29.9107
 29.9865
 29.8839
 29.9772
 32.2898
 32.3355
 29.866
 29.9567
 29.9806
 31.7804
 32.3674
 32.4388
 32.542
 32.5425
 32.6121
 32.6342
 32.6879
 32.6304
 31.6536
 31.7134
 31.6667
 30.9633
 30.8891
 32.4392
 32.4361
 32.4008
 32.4502
 31.4707
 31.5276
 32.3311
 32.2949
 32.201
 32.1931
 32.2399
 32.0114
 31.9794
 32.1004
 32.8792
 32.9349
 32.9215
 32.9877
 31.0044
 30.9852
 30.9477
 31.02
 32.4137
 32.3795
 32.4039
 32.4746
 32.5913
 32.5604
 32.4666
 30.6113
 30.7682
 30.7528
 30.759
 30.4948
 30.4629
 30.3284
 32.3571
 32.4309
 32.4039
 31.3754
 31.3182
 31.6872
 31.7021
 31.811
 31.7899
 29.6871
 29.9508
 29.9233
 29.8311
 32.5071
 32.5167
 32.5793
 32.5585
 31.3538
 31.3257
 31.2779
 31.2742
 31.1961
 31.2638
 31.2284
 31.3027
 32.5451
 32.5846
 32.5405
 32.5476
 30.132
 29.9883
 30.0152
 30.1606
 32.8999
 32.9244
 32.9237
 29.7886
 29.6683
 29.8331
 32.1211
 32.0181
 31.5544
 31.5183
 31.5866
 31.5727
 30.9536
 31.0048
 30.8698
 30.8554
 32.5277
 32.4173
 32.6443
 32.6053
 32.5538
 32.5289
 25.2984
 24.5999
 24.8134
 25.3115
 31.3853
 31.4373
 32.6366
 32.6646
 32.6852
 32.6735
 32.6842
