 -85.6126
 -85.6161
 -85.6154
 -85.6172
 -85.6704
 -85.6709
 -85.6722
 -85.673
 -85.6572
 -85.6553
 -85.6576
 -85.6558
 -85.6597
 -85.6577
 -85.6573
 -85.6562
 -85.6907
 -85.6919
 -85.6898
 -85.6892
 -85.6879
 -85.6866
 -85.6889
 -85.6871
 -85.5998
 -85.5977
 -85.5983
 -85.5997
 -85.603
 -85.6035
 -85.6035
 -85.6024
 -85.6876
 -85.687
 -85.6853
 -85.6868
 -85.6872
 -85.6874
 -85.6869
 -85.6892
 -85.5919
 -85.5906
 -85.5926
 -85.593
 -85.6562
 -85.6566
 -85.6545
 -85.6558
 -85.6236
 -85.6235
 -85.6216
 -85.6254
 -85.6739
 -85.6712
 -85.6701
 -85.6721
 -85.6473
 -85.6465
 -85.6479
 -85.6494
 -85.6068
 -85.6051
 -85.6081
 -85.6052
 -85.6831
 -85.6841
 -85.6827
 -85.6844
 -85.6619
 -85.6605
 -85.6624
 -85.661
 -85.6487
 -85.6496
 -85.6499
 -85.6512
 -85.6799
 -85.68
 -85.6809
 -85.6821
 -85.6019
 -85.5991
 -85.602
 -85.6001
 -85.6939
 -85.6943
 -85.6956
 -85.6954
 -85.5587
 -85.5572
 -85.5565
 -85.559
 -85.6689
 -85.6695
 -85.6674
 -85.6671
 -85.6446
 -85.643
 -85.6447
 -85.6458
 -85.6525
 -85.6531
 -85.652
 -85.6514
 -85.6353
 -85.6378
 -85.6391
 -85.6354
 -85.6056
 -85.6037
 -85.6059
 -85.6054
 -85.6229
 -85.6222
 -85.6201
 -85.6216
 -85.6718
 -85.6717
 -85.6705
 -85.6692
 -85.6459
 -85.649
 -85.645
 -85.6464
 -85.6241
 -85.626
 -85.6259
 -85.6241
 -85.6652
 -85.6632
 -85.6658
 -85.6636
 -85.6705
 -85.6696
 -85.6694
 -85.6699
 -85.6247
 -85.6229
 -85.6253
 -85.6215
 -85.6101
 -85.6096
 -85.6094
 -85.6096
 -85.6632
 -85.6602
 -85.6629
 -85.6621
 -85.5905
 -85.5918
 -85.5921
 -85.593
 -85.6661
 -85.6662
 -85.6695
 -85.6685
 -85.6968
 -85.6956
 -85.6964
 -85.6952
 -85.6548
 -85.6544
 -85.6554
 -85.6524
 -85.6701
 -85.6718
 -85.6709
 -85.6706
 -85.5956
 -85.5952
 -85.597
 -85.594
 -85.662
 -85.6607
 -85.6612
 -85.6634
 -85.6873
 -85.6869
 -85.6885
 -85.6877
 -85.6181
 -85.62
 -85.6191
 -85.6183
 -85.6634
 -85.6662
 -85.6654
 -85.6654
 -85.6078
 -85.6099
 -85.6079
 -85.6055
 -85.627
 -85.6255
 -85.6248
 -85.6238
 -85.6492
 -85.6474
 -85.6469
 -85.6457
 -85.6044
 -85.6036
 -85.6028
 -85.6043
 -85.6509
 -85.649
 -85.6491
 -85.6506
 -85.6294
 -85.6265
 -85.6293
 -85.6255
 -85.6552
 -85.6564
 -85.655
 -85.6565
 -85.6211
 -85.6232
 -85.622
 -85.6248
 -85.6555
 -85.6551
 -85.657
 -85.6538
 -85.6668
 -85.6671
 -85.6683
 -85.6693
 -85.6696
 -85.6687
 -85.6698
 -85.6668
 -85.6182
 -85.6184
 -85.6151
 -85.6196
 -85.6336
 -85.6325
 -85.6329
 -85.6357
 -85.5637
 -85.5618
 -85.5604
 -85.5623
 -85.6226
 -85.6224
 -85.6202
 -85.622
 -85.646
 -85.6489
 -85.6478
 -85.6484
 -85.6309
 -85.6304
 -85.6336
 -85.6287
 -85.6296
 -85.6323
 -85.6293
 -85.632
 -85.6051
 -85.6038
 -85.6058
 -85.6057
 -85.6815
 -85.6835
 -85.6841
 -85.6813
 -85.691
 -85.6915
 -85.692
 -85.6924
 -85.651
 -85.6536
 -85.6491
 -85.6505
 -85.6233
 -85.6228
 -85.6247
 -85.6221
 -85.6658
 -85.6669
 -85.668
 -85.6657
 -85.6017
 -85.5977
 -85.5989
 -85.5987
 -85.6011
 -85.599
 -85.5987
 -85.6014
 -85.5603
 -85.5587
 -85.5613
 -85.5608
 -85.6562
 -85.6584
 -85.6572
 -85.6593
 -85.617
 -85.6196
 -85.6202
 -85.6171
 -85.6123
 -85.6103
 -85.6127
 -85.6142
 -85.6928
 -85.6941
 -85.6935
 -85.6943
 -85.6093
 -85.6086
 -85.6069
 -85.6091
 -85.6133
 -85.6121
 -85.6104
 -85.613
 -85.6169
 -85.6187
 -85.6169
 -85.6151
 -85.6383
 -85.6377
 -85.6398
 -85.6394
 -85.6142
 -85.6167
 -85.615
 -85.6157
 -85.6266
 -85.6282
 -85.6288
 -85.6273
 -85.6335
 -85.6329
 -85.632
 -85.6311
 -85.6083
 -85.6058
 -85.6092
 -85.6065
 -85.5534
 -85.5527
 -85.5566
 -85.5566
 -85.6036
 -85.6044
 -85.6058
 -85.6046
 -85.6573
 -85.6561
 -85.6583
 -85.6547
 -85.6579
 -85.6572
 -85.6591
 -85.6573
 -85.6689
 -85.6682
 -85.6675
 -85.6702
 -85.6012
 -85.6009
 -85.6014
 -85.6022
 -85.6947
 -85.6947
 -85.6937
 -85.6957
 -85.6681
 -85.6699
 -85.668
 -85.6684
 -85.5921
 -85.592
 -85.5897
 -85.5898
 -85.6276
 -85.6276
 -85.6266
 -85.6307
 -85.6121
 -85.6135
 -85.6102
 -85.6114
 -85.6129
 -85.6116
 -85.6118
 -85.6023
 -85.602
 -85.6019
 -85.6011
 -85.662
 -85.6606
 -85.6595
 -85.6627
 -85.6352
 -85.6384
 -85.6371
 -85.6353
 -85.6594
 -85.6615
 -85.66
 -85.6225
 -85.6195
 -85.6213
 -85.6202
 -85.6423
 -85.6436
 -85.643
 -85.6408
 -85.6783
 -85.6764
 -85.6765
 -85.6796
 -85.6023
 -85.6028
 -85.6062
 -85.6047
 -85.6088
 -85.607
 -85.6061
 -85.6074
 -85.6571
 -85.6548
 -85.6542
 -85.6549
 -85.6662
 -85.665
 -85.6684
 -85.668
 -85.5957
 -85.5957
 -85.5946
 -85.5928
 -85.6072
 -85.6077
 -85.6114
 -85.6104
 -85.6319
 -85.6347
 -85.6362
 -85.6323
 -85.6882
 -85.6894
 -85.6886
 -85.689
 -85.6564
 -85.6586
 -85.6591
 -85.6583
 -85.6426
 -85.6389
 -85.6424
 -85.6424
 -85.5682
 -85.5647
 -85.5684
 -85.568
 -85.6382
 -85.636
 -85.6389
 -85.6404
 -85.6779
 -85.676
 -85.678
 -85.6751
 -85.6152
 -85.6116
 -85.617
 -85.6156
 -85.6104
 -85.6109
 -85.6085
 -85.6099
 -85.6092
 -85.6068
 -85.6074
 -85.6081
 -85.5887
 -85.5884
 -85.5884
 -85.5893
 -85.6122
 -85.6088
 -85.6089
 -85.609
 -85.6581
 -85.6577
 -85.6581
 -85.6565
 -85.5989
 -85.5998
 -85.6007
 -85.6014
 -85.6864
 -85.685
 -85.6858
 -85.6864
 -85.6004
 -85.5974
 -85.5978
 -85.6
 -85.6776
 -85.6748
 -85.6776
 -85.6759
 -85.6373
 -85.6352
 -85.6353
 -85.6367
 -85.6273
 -85.6294
 -85.6304
 -85.6279
 -85.6199
 -85.6201
 -85.6229
 -85.6206
 -85.6154
 -85.6153
 -85.6137
 -85.6128
 -85.6936
 -85.6947
 -85.6951
 -85.695
 -85.6176
 -85.6164
 -85.6175
 -85.6167
 -85.6968
 -85.6958
 -85.6964
 -85.6951
 -85.6671
 -85.6667
 -85.6692
 -85.6673
 -85.5771
 -85.5801
 -85.5796
 -85.5768
 -85.6894
 -85.689
 -85.6904
 -85.691
 -85.607
 -85.6099
 -85.6076
 -85.6054
 -85.5746
 -85.5731
 -85.5725
 -85.5742
 -85.6743
 -85.6739
 -85.673
 -85.674
 -85.6914
 -85.6927
 -85.6919
 -85.6915
 -85.6485
 -85.6493
 -85.648
 -85.6476
 -85.6712
 -85.669
 -85.6717
 -85.6697
 -85.6124
 -85.6097
 -85.6111
 -85.6107
 -85.6538
 -85.6529
 -85.6538
 -85.656
 -85.6263
 -85.625
 -85.6271
 -85.6272
 -85.6035
 -85.6045
 -85.6032
 -85.6031
 -85.5932
 -85.5929
 -85.5927
 -85.5947
 -85.636
 -85.6351
 -85.6375
 -85.6343
 -85.6427
 -85.6428
 -85.642
 -85.6404
 -85.6111
 -85.6106
 -85.6123
 -85.6133
 -85.6108
 -85.6079
 -85.6108
 -85.6103
 -85.6604
 -85.6609
 -85.659
 -85.6591
 -85.6882
 -85.6878
 -85.6895
 -85.6897
 -85.6857
 -85.6844
 -85.686
 -85.6864
 -85.6849
 -85.6827
 -85.6833
 -85.6842
 -85.6623
 -85.6612
 -85.6631
 -85.6608
 -85.6105
 -85.6077
 -85.6099
 -85.609
 -85.6117
 -85.6131
 -85.6138
 -85.6144
 -85.6417
 -85.641
 -85.6375
 -85.6375
 -85.6673
 -85.666
 -85.6694
 -85.6682
 -85.6667
 -85.6654
 -85.666
 -85.6675
 -85.65
 -85.648
 -85.6492
 -85.6496
 -85.656
 -85.6578
 -85.6552
 -85.6558
 -85.5945
 -85.594
 -85.5951
 -85.5973
 -85.5407
 -85.539
 -85.541
 -85.5375
 -85.6164
 -85.616
 -85.6132
 -85.6147
 -85.5512
 -85.5547
 -85.5538
 -85.6166
 -85.6163
 -85.6176
 -85.6148
 -85.68
 -85.6787
 -85.6796
 -85.6783
 -85.6476
 -85.649
 -85.6493
 -85.6511
 -85.688
 -85.6873
 -85.6892
 -85.6871
 -85.6103
 -85.6107
 -85.6082
 -85.6104
 -85.6639
 -85.6631
 -85.6662
 -85.6655
 -85.6503
 -85.6504
 -85.6476
 -85.6487
 -85.6921
 -85.6928
 -85.6934
 -85.6913
 -85.676
 -85.6756
 -85.6764
 -85.6784
 -85.6165
 -85.619
 -85.6173
 -85.6164
 -85.6636
 -85.6633
 -85.6613
 -85.6635
 -85.6786
 -85.6756
 -85.6774
 -85.6759
 -85.5742
 -85.5706
 -85.5724
 -85.5709
 -85.6464
 -85.6475
 -85.6485
 -85.6488
 -85.6782
 -85.6786
 -85.6798
 -85.6783
 -85.6585
 -85.6605
 -85.6568
 -85.6614
 -85.6758
 -85.6737
 -85.6762
 -85.6758
 -85.6116
 -85.6138
 -85.615
 -85.615
 -85.6754
 -85.6792
 -85.6754
 -85.6786
 -85.6335
 -85.6349
 -85.6306
 -85.633
 -85.6392
 -85.6406
 -85.642
 -85.6388
 -85.6752
 -85.675
 -85.6733
 -85.6761
 -85.6967
 -85.6958
 -85.6959
 -85.6966
 -85.5947
 -85.596
 -85.5971
 -85.5978
 -85.6251
 -85.6269
 -85.6284
 -85.6257
 -85.6535
 -85.6522
 -85.651
 -85.6517
 -85.6756
 -85.6769
 -85.6766
 -85.6769
 -85.6186
 -85.6168
 -85.6174
 -85.6176
 -85.5985
 -85.6013
 -85.6026
 -85.599
 -85.6654
 -85.6655
 -85.6631
 -85.6631
 -85.6584
 -85.6604
 -85.6584
 -85.6592
 -85.6899
 -85.6909
 -85.6921
 -85.6899
 -85.6048
 -85.6077
 -85.6042
 -85.6066
 -85.6913
 -85.6925
 -85.6923
 -85.6914
 -85.6232
 -85.6262
 -85.6246
 -85.6236
 -85.5431
 -85.5424
 -85.5434
 -85.5445
 -85.6835
 -85.6848
 -85.6854
 -85.6848
 -85.6621
 -85.6635
 -85.6611
 -85.6586
 -85.6852
 -85.6852
 -85.6842
 -85.6839
 -85.6417
 -85.639
 -85.641
 -85.6422
 -85.6363
 -85.6378
 -85.6384
 -85.6368
 -85.6724
 -85.67
 -85.6706
 -85.6708
 -85.6103
 -85.6112
 -85.6092
 -85.6108
 -85.6065
 -85.6079
 -85.6081
 -85.6072
 -85.5626
 -85.5612
 -85.5612
 -85.5604
 -85.6501
 -85.6519
 -85.6527
 -85.6539
 -85.6433
 -85.6419
 -85.6457
 -85.6432
 -85.659
 -85.6557
 -85.6577
 -85.6596
 -85.6255
 -85.6286
 -85.6289
 -85.6247
 -85.6883
 -85.6881
 -85.6893
 -85.6868
 -85.6912
 -85.6934
 -85.6913
 -85.6908
 -85.6606
 -85.6616
 -85.6637
 -85.6637
 -85.5247
 -85.5244
 -85.5252
 -85.5264
 -85.633
 -85.6315
 -85.6335
 -85.6303
 -85.6349
 -85.6342
 -85.6316
 -85.6342
 -85.6332
 -85.6336
 -85.6308
 -85.6308
 -85.6733
 -85.6724
 -85.6749
 -85.672
 -85.5704
 -85.5733
 -85.5684
 -85.5701
 -85.5572
 -85.5574
 -85.5546
 -85.554
 -85.6736
 -85.6721
 -85.6737
 -85.6715
 -85.6207
 -85.6237
 -85.6195
 -85.6234
 -85.6307
 -85.6306
 -85.6315
 -85.6316
 -85.6603
 -85.6588
 -85.6585
 -85.6562
 -85.6085
 -85.6097
 -85.6107
 -85.6095
 -85.6765
 -85.6742
 -85.6749
 -85.6762
 -85.6258
 -85.6213
 -85.6238
 -85.6206
 -85.6218
 -85.6214
 -85.6192
 -85.6213
 -85.5991
 -85.5974
 -85.6001
 -85.5966
 -85.6325
 -85.6358
 -85.6335
 -85.636
 -85.6799
 -85.6809
 -85.6809
 -85.6795
 -85.6633
 -85.6659
 -85.6667
 -85.6643
 -85.6076
 -85.6071
 -85.6095
 -85.6092
 -85.6176
 -85.6206
 -85.6207
 -85.6176
 -85.6861
 -85.6866
 -85.6876
 -85.6873
 -85.6756
 -85.6742
 -85.6752
 -85.6743
 -85.6351
 -85.6342
 -85.6326
 -85.6341
 -85.6006
 -85.6011
 -85.601
 -85.6017
 -85.5815
 -85.5858
 -85.585
 -85.582
 -85.6608
 -85.6587
 -85.6575
 -85.6599
 -85.6003
 -85.5977
 -85.6001
 -85.5947
 -85.6816
 -85.6795
 -85.6794
 -85.6814
 -85.6539
 -85.6571
 -85.6553
 -85.6532
 -85.6798
 -85.6793
 -85.6786
 -85.6791
 -85.6657
 -85.6635
 -85.6634
 -85.6647
 -85.6346
 -85.6335
 -85.6345
 -85.6363
 -85.612
 -85.6082
 -85.6091
 -85.6107
 -85.5857
 -85.59
 -85.5863
 -85.5864
 -85.5954
 -85.5917
 -85.5956
 -85.5947
 -85.6106
 -85.6075
 -85.607
 -85.6081
 -85.6394
 -85.6402
 -85.6397
 -85.636
 -85.6401
 -85.6405
 -85.6413
 -85.6385
 -85.643
 -85.6406
 -85.6448
 -85.6423
 -85.6618
 -85.6604
 -85.6624
 -85.6621
 -85.5707
 -85.5678
 -85.5685
 -85.5683
 -85.6497
 -85.6502
 -85.6491
 -85.6513
 -85.607
 -85.6042
 -85.6053
 -85.6061
 -85.6301
 -85.6331
 -85.6312
 -85.6329
 -85.6901
 -85.6877
 -85.6899
 -85.6894
 -85.638
 -85.6367
 -85.6367
 -85.6356
 -85.6015
 -85.6004
 -85.6011
 -85.5982
 -85.6288
 -85.6286
 -85.6303
 -85.6317
 -85.6129
 -85.6145
 -85.6142
 -85.6123
 -85.6351
 -85.6322
 -85.6356
 -85.6335
 -85.5725
 -85.5702
 -85.5712
 -85.573
 -85.6314
 -85.6316
 -85.6339
 -85.634
 -85.6627
 -85.662
 -85.6635
 -85.6623
 -85.6558
 -85.6561
 -85.6571
 -85.6561
 -85.6858
 -85.6828
 -85.6854
 -85.684
 -85.6181
 -85.6176
 -85.6198
 -85.6182
 -85.6112
 -85.613
 -85.6112
 -85.6155
 -85.6843
 -85.6821
 -85.6845
 -85.6841
 -85.6137
 -85.6134
 -85.6163
 -85.6137
 -85.6798
 -85.6791
 -85.6808
 -85.679
 -85.6468
 -85.6501
 -85.6479
 -85.6493
 -85.6398
 -85.6363
 -85.6398
 -85.6404
 -85.6119
 -85.6142
 -85.6137
 -85.6117
 -85.6365
 -85.6363
 -85.6387
 -85.636
 -85.6809
 -85.68
 -85.6812
 -85.6812
 -85.5419
 -85.5424
 -85.5431
 -85.54
 -85.5999
 -85.5995
 -85.5995
 -85.6
 -85.5994
 -85.5997
 -85.5993
 -85.5977
 -85.6211
 -85.622
 -85.6199
 -85.6233
 -85.6303
 -85.6285
 -85.6301
 -85.6289
 -85.6188
 -85.6175
 -85.6166
 -85.6193
 -85.6903
 -85.6894
 -85.6919
 -85.6889
 -85.6105
 -85.6091
 -85.6095
 -85.6122
 -85.6591
 -85.6595
 -85.6604
 -85.6582
 -85.6396
 -85.6748
 -85.6725
 -85.6733
 -85.6732
 -85.6549
 -85.6565
 -85.658
 -85.657
 -85.5937
 -85.5956
 -85.5963
 -85.5948
 -85.6237
 -85.6225
 -85.6242
 -85.626
 -85.6148
 -85.6122
 -85.6141
 -85.6148
 -85.6784
 -85.6767
 -85.6768
 -85.6769
 -85.6328
 -85.6288
 -85.6316
 -85.6306
 -85.6808
 -85.6813
 -85.679
 -85.6789
 -85.6648
 -85.6662
 -85.6641
 -85.6669
 -85.5946
 -85.596
 -85.595
 -85.5976
 -85.6096
 -85.6068
 -85.6116
 -85.6097
 -85.663
 -85.6645
 -85.6645
 -85.663
 -85.6368
 -85.6335
 -85.6362
 -85.6006
 -85.599
 -85.5998
 -85.6017
 -85.6599
 -85.6565
 -85.6586
 -85.6565
 -85.6152
 -85.6124
 -85.6125
 -85.6144
 -85.6376
 -85.6338
 -85.6356
 -85.6376
 -85.6845
 -85.6845
 -85.6822
 -85.6842
 -85.6204
 -85.6193
 -85.6181
 -85.6201
 -85.6752
 -85.6731
 -85.675
 -85.6757
 -85.6423
 -85.6411
 -85.6426
 -85.6399
 -85.6697
 -85.6685
 -85.6669
 -85.668
 -85.6829
 -85.683
 -85.6847
 -85.6838
 -85.6219
 -85.6216
 -85.6234
 -85.6233
 -85.5414
 -85.5457
 -85.5448
 -85.5471
 -85.6913
 -85.6902
 -85.6905
 -85.6899
 -85.6583
 -85.6574
 -85.6559
 -85.6571
 -85.6041
 -85.6041
 -85.6083
 -85.6049
 -85.629
 -85.6304
 -85.6313
 -85.6286
 -85.5766
 -85.5774
 -85.5775
 -85.5749
 -85.6813
 -85.6822
 -85.6845
 -85.6824
 -85.6024
 -85.6012
 -85.6019
 -85.6021
 -85.6483
 -85.6504
 -85.6472
 -85.6489
 -85.6078
 -85.6031
 -85.6066
 -85.607
 -85.6939
 -85.6935
 -85.6938
 -85.6919
 -85.6932
 -85.693
 -85.6919
 -85.6912
 -85.6649
 -85.6627
 -85.6621
 -85.6653
 -85.6506
 -85.6515
 -85.6506
 -85.6488
 -85.6514
 -85.601
 -85.6015
 -85.5981
 -85.6004
 -85.6067
 -85.6057
 -85.6049
 -85.6077
 -85.6603
 -85.6625
 -85.6627
 -85.6625
 -85.6047
 -85.6064
 -85.6063
 -85.6046
 -85.6124
 -85.6118
 -85.6114
 -85.614
 -85.6636
 -85.6645
 -85.6639
 -85.6619
 -85.6236
 -85.6265
 -85.6236
 -85.6265
 -85.6621
 -85.6623
 -85.6627
 -85.6643
 -85.6147
 -85.6143
 -85.6121
 -85.6146
 -85.6217
 -85.6238
 -85.6238
 -85.6241
 -85.6339
 -85.6359
 -85.6327
 -85.6355
 -85.6501
 -85.6526
 -85.6509
 -85.6534
 -85.672
 -85.6709
 -85.6738
 -85.6737
 -85.6464
 -85.6458
 -85.6444
 -85.6446
 -85.6466
 -85.6475
 -85.6485
 -85.6477
 -85.5946
 -85.5945
 -85.5957
 -85.5966
 -85.6589
 -85.6594
 -85.6601
 -85.6597
 -85.6405
 -85.6411
 -85.642
 -85.6402
 -85.6448
 -85.6448
 -85.6431
 -85.6446
 -85.6257
 -85.6264
 -85.6236
 -85.6252
 -85.6004
 -85.6001
 -85.6014
 -85.5984
 -85.6689
 -85.6689
 -85.6703
 -85.6702
 -85.6015
 -85.5994
 -85.6003
 -85.603
 -85.6913
 -85.6912
 -85.6929
 -85.692
 -85.6761
 -85.6746
 -85.6773
 -85.6765
 -85.6775
 -85.6775
 -85.6775
 -85.6769
 -85.6762
 -85.6758
 -85.6754
 -85.6774
 -85.6649
 -85.6658
 -85.6637
 -85.6659
 -85.5809
 -85.5793
 -85.5761
 -85.646
 -85.6429
 -85.6457
 -85.6448
 -85.6737
 -85.673
 -85.6723
 -85.6738
 -85.6247
 -85.622
 -85.6236
 -85.6244
 -85.615
 -85.6154
 -85.6141
 -85.6159
 -85.6664
 -85.6667
 -85.6686
 -85.6646
 -85.6329
 -85.632
 -85.6335
 -85.6351
 -85.6173
 -85.6174
 -85.6168
 -85.6161
 -85.6892
 -85.691
 -85.6562
 -85.6556
 -85.6536
 -85.6535
 -85.6348
 -85.6346
 -85.6329
 -85.6498
 -85.6503
 -85.6496
 -85.6479
 -85.5855
 -85.5849
 -85.5879
 -85.5876
 -85.6754
 -85.677
 -85.6768
 -85.675
 -85.6494
 -85.6488
 -85.6475
 -85.6477
 -85.6243
 -85.622
 -85.6231
 -85.6251
 -85.6439
 -85.6412
 -85.6421
 -85.6431
 -85.6037
 -85.6029
 -85.604
 -85.6035
 -85.5964
 -85.6002
 -85.5975
 -85.5982
 -85.6319
 -85.634
 -85.6346
 -85.6332
 -85.6026
 -85.6021
 -85.6024
 -85.6046
 -85.6351
 -85.6338
 -85.6343
 -85.6333
 -85.6778
 -85.6775
 -85.6754
 -85.6751
 -85.6061
 -85.6072
 -85.6081
 -85.607
 -85.5625
 -85.5653
 -85.5626
 -85.5645
 -85.6529
 -85.6488
 -85.6517
 -85.6519
 -85.6292
 -85.631
 -85.6288
 -85.6311
 -85.6035
 -85.603
 -85.6051
 -85.6045
 -85.6359
 -85.6342
 -85.6366
 -85.6368
 -85.6862
 -85.6855
 -85.6866
 -85.6862
 -85.6128
 -85.6127
 -85.6115
 -85.6128
 -85.6546
 -85.6526
 -85.6525
 -85.6521
 -85.6282
 -85.6306
 -85.6287
 -85.6323
 -85.6642
 -85.6654
 -85.665
 -85.6669
 -85.6782
 -85.6778
 -85.6789
 -85.6772
 -85.6048
 -85.6067
 -85.6053
 -85.6091
 -85.6198
 -85.6215
 -85.621
 -85.6206
 -85.6496
 -85.6493
 -85.6464
 -85.6481
 -85.6026
 -85.6032
 -85.6031
 -85.6038
 -85.5438
 -85.5416
 -85.5419
 -85.5433
 -85.6432
 -85.641
 -85.6411
 -85.6405
 -85.5378
 -85.5373
 -85.5379
 -85.5401
 -85.5431
 -85.5464
 -85.5458
 -85.5441
 -85.5863
 -85.5883
 -85.5877
 -85.5855
 -85.6584
 -85.6569
 -85.6555
 -85.6545
 -85.6577
 -85.6591
 -85.6594
 -85.6607
 -85.6609
 -85.6595
 -85.6607
 -85.6584
 -85.6539
 -85.6515
 -85.6521
 -85.6544
 -85.5758
 -85.5736
 -85.5755
 -85.5749
 -85.6071
 -85.6061
 -85.6085
 -85.6075
 -85.6038
 -85.6012
 -85.6022
 -85.6016
 -85.6242
 -85.627
 -85.6244
 -85.6273
 -85.646
 -85.6445
 -85.6461
 -85.6449
 -85.6646
 -85.6639
 -85.663
 -85.6647
 -85.6098
 -85.6127
 -85.6138
 -85.611
 -85.6587
 -85.6374
 -85.6392
 -85.6394
 -85.6382
 -85.6926
 -85.6931
 -85.6947
 -85.6937
 -85.6322
 -85.6328
 -85.6341
 -85.6325
 -85.682
 -85.6842
 -85.6825
 -85.6058
 -85.6069
 -85.6079
 -85.6054
 -85.5518
 -85.5543
 -85.5532
 -85.5545
 -85.6371
 -85.6371
 -85.6402
 -85.6357
 -85.6255
 -85.622
 -85.6224
 -85.6224
 -85.6028
 -85.6043
 -85.6058
 -85.6067
 -85.606
 -85.6069
 -85.6049
 -85.6072
 -85.5832
 -85.5804
 -85.5823
 -85.5822
 -85.6499
 -85.6493
 -85.6506
 -85.654
 -85.6376
 -85.6403
 -85.637
 -85.639
 -85.6193
 -85.6171
 -85.6195
 -85.6183
 -85.6323
 -85.6308
 -85.6352
 -85.6665
 -85.6655
 -85.6652
 -85.6104
 -85.6109
 -85.6076
 -85.607
 -85.5888
 -85.588
 -85.588
 -85.5886
 -85.6148
 -85.6166
 -85.6163
 -85.6143
 -85.5883
 -85.5857
 -85.5891
 -85.5849
 -85.671
 -85.6735
 -85.6716
 -85.6724
 -85.6645
 -85.6656
 -85.6661
 -85.6675
 -85.603
 -85.6022
 -85.6026
 -85.6022
 -85.579
 -85.5752
 -85.5779
 -85.5788
 -85.6435
 -85.6403
 -85.6431
 -85.6419
 -85.6882
 -85.6863
 -85.6886
 -85.6866
 -85.5869
 -85.5867
 -85.5854
 -85.5868
 -85.6574
 -85.6554
 -85.655
 -85.6579
 -85.5616
 -85.5599
 -85.5616
 -85.5603
 -85.6642
 -85.6652
 -85.6639
 -85.6669
 -85.6261
 -85.6239
 -85.6273
 -85.6233
 -85.6713
 -85.6714
 -85.673
 -85.6731
 -85.6051
 -85.6058
 -85.6062
 -85.6081
 -85.6214
 -85.6194
 -85.6196
 -85.6195
 -85.6099
 -85.6089
 -85.6117
 -85.6116
 -85.6149
 -85.614
 -85.6169
 -85.6126
 -85.6434
 -85.645
 -85.6445
 -85.6423
 -85.6313
 -85.6294
 -85.6318
 -85.6317
 -85.6733
 -85.6716
 -85.6701
 -85.6705
 -85.6909
 -85.692
 -85.6895
 -85.6896
 -85.6278
 -85.6275
 -85.6257
 -85.6273
 -85.6772
 -85.6763
 -85.6759
 -85.6783
 -85.6618
 -85.6645
 -85.6659
 -85.6639
 -85.5725
 -85.5713
 -85.5685
 -85.5723
 -85.5988
 -85.6032
 -85.6021
 -85.6008
 -85.6254
 -85.6238
 -85.6232
 -85.6239
 -85.5838
 -85.582
 -85.5816
 -85.5799
 -85.6454
 -85.6479
 -85.6476
 -85.6467
 -85.6698
 -85.6736
 -85.6716
 -85.6717
 -85.5856
 -85.5895
 -85.5856
 -85.5855
 -85.6332
 -85.6352
 -85.6338
 -85.6342
 -85.6162
 -85.6161
 -85.6162
 -85.6149
 -85.5442
 -85.5465
 -85.5464
 -85.5442
 -85.6234
 -85.623
 -85.6225
 -85.6251
 -85.6389
 -85.6405
 -85.6403
 -85.6407
 -85.6633
 -85.6656
 -85.6641
 -85.6662
 -85.6143
 -85.615
 -85.6157
 -85.6385
 -85.638
 -85.6372
 -85.6383
 -85.6195
 -85.6195
 -85.6225
 -85.6204
 -85.6581
 -85.656
 -85.6576
 -85.6572
 -85.6573
 -85.6598
 -85.6595
 -85.6588
 -85.6798
 -85.6782
 -85.6793
 -85.6773
 -85.6079
 -85.6085
 -85.61
 -85.608
 -85.6867
 -85.6874
 -85.6881
 -85.687
 -85.6121
 -85.6142
 -85.6125
 -85.6115
 -85.6372
 -85.6399
 -85.6397
 -85.6413
 -85.6418
 -85.6395
 -85.6398
 -85.6388
 -85.5406
 -85.5382
 -85.5403
 -85.5402
 -85.6177
 -85.616
 -85.6178
 -85.6181
 -85.6351
 -85.6349
 -85.637
 -85.6397
 -85.6337
 -85.6346
 -85.6346
 -85.632
 -85.6917
 -85.6917
 -85.6901
 -85.6915
 -85.6119
 -85.6142
 -85.6155
 -85.6127
 -85.616
 -85.6145
 -85.6167
 -85.6139
 -85.6635
 -85.6653
 -85.6636
 -85.665
 -85.6051
 -85.6045
 -85.603
 -85.6027
 -85.6039
 -85.6034
 -85.6048
 -85.6032
 -85.6557
 -85.6526
 -85.6555
 -85.6539
 -85.6586
 -85.6583
 -85.6565
 -85.6584
 -85.6432
 -85.6433
 -85.6463
 -85.6455
 -85.614
 -85.6128
 -85.6513
 -85.6495
 -85.6526
 -85.6501
 -85.6154
 -85.6167
 -85.6156
 -85.616
 -85.6289
 -85.6314
 -85.6322
 -85.6311
 -85.6824
 -85.6814
 -85.6805
 -85.6829
 -85.6293
 -85.6301
 -85.6314
 -85.6318
 -85.6672
 -85.6687
 -85.6698
 -85.6665
 -85.6087
 -85.6132
 -85.6116
 -85.6129
 -85.6251
 -85.6231
 -85.6224
 -85.6238
 -85.6349
 -85.6388
 -85.6366
 -85.6376
 -85.608
 -85.6061
 -85.6053
 -85.6067
 -85.5637
 -85.5642
 -85.5631
 -85.5614
 -85.6884
 -85.6882
 -85.6878
 -85.6884
 -85.5874
 -85.5869
 -85.5881
 -85.5864
 -85.6469
 -85.6479
 -85.6455
 -85.6456
 -85.5633
 -85.5633
 -85.5654
 -85.5625
 -85.6505
 -85.6525
 -85.6508
 -85.6506
 -85.6129
 -85.6125
 -85.6118
 -85.6118
 -85.6128
 -85.6133
 -85.6112
 -85.6124
 -85.6416
 -85.6427
 -85.6397
 -85.6417
 -85.6738
 -85.6714
 -85.6732
 -85.671
 -85.6234
 -85.6266
 -85.6259
 -85.6264
 -85.6026
 -85.6018
 -85.6027
 -85.6035
 -85.6726
 -85.6754
 -85.6739
 -85.6759
 -85.6107
 -85.6084
 -85.6118
 -85.612
 -85.6234
 -85.626
 -85.6252
 -85.6268
 -85.6624
 -85.6661
 -85.6654
 -85.664
 -85.6403
 -85.6427
 -85.643
 -85.6431
 -85.6318
 -85.6303
 -85.632
 -85.6331
 -85.682
 -85.6834
 -85.6842
 -85.6847
 -85.6758
 -85.6765
 -85.6765
 -85.6755
 -85.647
 -85.6471
 -85.6443
 -85.6457
 -85.6317
 -85.6332
 -85.631
 -85.6358
 -85.618
 -85.6189
 -85.6191
 -85.6225
 -85.6
 -85.5997
 -85.5981
 -85.6665
 -85.668
 -85.6671
 -85.6692
 -85.5607
 -85.5588
 -85.5567
 -85.5568
 -85.6577
 -85.6548
 -85.6563
 -85.6559
 -85.6092
 -85.6065
 -85.6079
 -85.6081
 -85.6049
 -85.6031
 -85.6037
 -85.6035
 -85.6763
 -85.6742
 -85.6753
 -85.6781
 -85.6422
 -85.6405
 -85.6429
 -85.6412
 -85.6325
 -85.6317
 -85.6151
 -85.6282
 -85.6308
 -85.6278
 -85.6294
 -85.564
 -85.566
 -85.655
 -85.656
 -85.6571
 -85.5938
 -85.5954
 -85.5918
 -85.5939
 -85.6556
 -85.653
 -85.6538
 -85.6539
 -85.6231
 -85.6256
 -85.625
 -85.6249
 -85.6143
 -85.6176
 -85.6155
 -85.6156
 -85.6821
 -85.6822
 -85.6846
 -85.6831
 -85.5946
 -85.5968
 -85.5943
 -85.5969
 -85.6534
 -85.6537
 -85.6539
 -85.6554
 -85.6851
 -85.6857
 -85.6835
 -85.6837
 -85.6397
 -85.6373
 -85.6398
 -85.638
 -85.6532
 -85.6501
 -85.6514
 -85.6511
 -85.6352
 -85.6375
 -85.6358
 -85.6322
 -85.6936
 -85.691
 -85.6928
 -85.6906
 -85.6916
 -85.6916
 -85.6908
 -85.6898
 -85.6901
 -85.6894
 -85.6892
 -85.6902
 -85.6291
 -85.6269
 -85.629
 -85.6288
 -85.647
 -85.6445
 -85.6453
 -85.6468
 -85.6306
 -85.6303
 -85.6285
 -85.6299
 -85.6266
 -85.6257
 -85.6291
 -85.6258
 -85.6585
 -85.6594
 -85.6599
 -85.6576
 -85.6732
 -85.6759
 -85.6751
 -85.676
 -85.6722
 -85.6731
 -85.6708
 -85.6737
 -85.6388
 -85.6402
 -85.6384
 -85.6399
 -85.6339
 -85.6335
 -85.6331
 -85.632
 -85.612
 -85.6106
 -85.6114
 -85.6138
 -85.664
 -85.666
 -85.6658
 -85.6634
 -85.5841
 -85.5841
 -85.5818
 -85.5857
 -85.6691
 -85.6705
 -85.6687
 -85.6681
 -85.6445
 -85.648
 -85.6442
 -85.6471
 -85.6424
 -85.6438
 -85.6428
 -85.6415
 -85.5955
 -85.5953
 -85.5937
 -85.5916
 -85.5327
 -85.5344
 -85.5322
 -85.5326
 -85.6198
 -85.6221
 -85.6198
 -85.6205
 -85.669
 -85.6662
 -85.6673
 -85.6688
 -85.605
 -85.6032
 -85.6046
 -85.606
 -85.6462
 -85.6474
 -85.6449
 -85.6478
 -85.6499
 -85.6518
 -85.6539
 -85.653
 -85.6631
 -85.6642
 -85.6612
 -85.6623
 -85.5794
 -85.5774
 -85.5776
 -85.5793
 -85.5817
 -85.5817
 -85.5806
 -85.5804
 -85.6684
 -85.6716
 -85.6702
 -85.6702
 -85.6593
 -85.656
 -85.6561
 -85.6582
 -85.6191
 -85.6194
 -85.6181
 -85.6183
 -85.6362
 -85.6352
 -85.6373
 -85.6386
 -85.6442
 -85.6452
 -85.6444
 -85.6438
 -85.6172
 -85.6159
 -85.6192
 -85.6162
 -85.6537
 -85.6524
 -85.6525
 -85.6509
 -85.6988
 -85.6974
 -85.6984
 -85.6986
 -85.6482
 -85.6507
 -85.6506
 -85.6523
 -85.6366
 -85.6377
 -85.6358
 -85.6392
 -85.6366
 -85.6362
 -85.6342
 -85.6367
 -85.6446
 -85.6459
 -85.6446
 -85.6426
 -85.6876
 -85.688
 -85.6865
 -85.6876
 -85.6736
 -85.6719
 -85.6731
 -85.6523
 -85.6522
 -85.6539
 -85.6521
 -85.6027
 -85.6024
 -85.6042
 -85.6023
 -85.6261
 -85.6263
 -85.6244
 -85.6269
 -85.6723
 -85.6695
 -85.6694
 -85.6695
 -85.6121
 -85.6128
 -85.6134
 -85.6144
 -85.6224
 -85.6204
 -85.6203
 -85.6229
 -85.6254
 -85.6244
 -85.6213
 -85.6238
 -85.6575
 -85.656
 -85.6555
 -85.6553
 -85.6448
 -85.6426
 -85.6452
 -85.6407
 -85.6526
 -85.6483
 -85.6498
 -85.6504
 -85.6069
 -85.6076
 -85.6081
 -85.6071
 -85.6256
 -85.6274
 -85.628
 -85.6258
 -85.6556
 -85.6539
 -85.656
 -85.6574
 -85.6207
 -85.6218
 -85.6231
 -85.6196
 -85.6482
 -85.6503
 -85.6504
 -85.6489
 -85.6056
 -85.605
 -85.6061
 -85.6047
 -85.6853
 -85.6858
 -85.6838
 -85.6853
 -85.6109
 -85.609
 -85.6114
 -85.6124
 -85.607
 -85.603
 -85.6054
 -85.6054
 -85.6613
 -85.6613
 -85.6628
 -85.6634
 -85.6115
 -85.6121
 -85.6126
 -85.6123
 -85.6509
 -85.6502
 -85.6512
 -85.6488
 -85.5932
 -85.5937
 -85.5906
 -85.5912
 -85.6425
 -85.6416
 -85.6422
 -85.6442
 -85.68
 -85.6827
 -85.6802
 -85.6819
 -85.6437
 -85.6405
 -85.6403
 -85.6424
 -85.6632
 -85.6643
 -85.6632
 -85.6632
 -85.6498
 -85.6487
 -85.6493
 -85.6509
 -85.6483
 -85.6493
 -85.6497
 -85.6517
 -85.6876
 -85.6876
 -85.6884
 -85.6855
 -85.6065
 -85.6054
 -85.6043
 -85.6041
 -85.6082
 -85.6072
 -85.6052
 -85.6071
 -85.6759
 -85.6757
 -85.6746
 -85.6773
 -85.6815
 -85.6825
 -85.6811
 -85.6167
 -85.6159
 -85.6157
 -85.6172
 -85.6535
 -85.6558
 -85.6532
 -85.6531
 -85.6458
 -85.6467
 -85.6441
 -85.647
 -85.6053
 -85.6073
 -85.6035
 -85.6054
 -85.6637
 -85.6653
 -85.6647
 -85.6647
 -85.6346
 -85.6317
 -85.6323
 -85.6345
 -85.6423
 -85.6397
 -85.64
 -85.6394
 -85.6658
 -85.6675
 -85.6675
 -85.667
 -85.6
 -85.5993
 -85.6002
 -85.6012
 -85.6164
 -85.6134
 -85.6144
 -85.614
 -85.6897
 -85.6878
 -85.6895
 -85.6888
 -85.6073
 -85.607
 -85.6075
 -85.6104
 -85.6013
 -85.6005
 -85.6009
 -85.6011
 -85.6362
 -85.6368
 -85.6357
 -85.6389
 -85.5655
 -85.5665
 -85.5644
 -85.5683
 -85.6404
 -85.6409
 -85.6396
 -85.6407
 -85.668
 -85.6672
 -85.6666
 -85.6661
 -85.6745
 -85.673
 -85.6738
 -85.5949
 -85.595
 -85.5964
 -85.5953
 -85.6117
 -85.6141
 -85.6109
 -85.6133
 -85.6059
 -85.6051
 -85.6033
 -85.6033
 -85.6153
 -85.6134
 -85.6147
 -85.6143
 -85.6909
 -85.6919
 -85.6925
 -85.692
 -85.5982
 -85.5984
 -85.5975
 -85.5959
 -85.6108
 -85.609
 -85.6106
 -85.6134
 -85.6736
 -85.6752
 -85.6738
 -85.6731
 -85.6232
 -85.6228
 -85.6244
 -85.6133
 -85.6111
 -85.6134
 -85.6436
 -85.6427
 -85.6404
 -85.5696
 -85.5732
 -85.5736
 -85.5708
 -85.6415
 -85.6432
 -85.6423
 -85.644
 -85.6398
 -85.6414
 -85.638
 -85.6383
 -85.6761
 -85.6774
 -85.6755
 -85.6753
 -85.6822
 -85.6818
 -85.6847
 -85.6818
 -85.6036
 -85.6011
 -85.601
 -85.6055
 -85.6457
 -85.6481
 -85.6484
 -85.6471
 -85.6449
 -85.6469
 -85.6478
 -85.6472
 -85.6327
 -85.636
 -85.6345
 -85.6365
 -85.62
 -85.6208
 -85.6215
 -85.618
 -85.646
 -85.6433
 -85.6454
 -85.646
 -85.607
 -85.6077
 -85.6068
 -85.6083
 -85.6803
 -85.6796
 -85.6804
 -85.6808
 -85.6161
 -85.6153
 -85.6164
 -85.6182
 -85.674
 -85.6721
 -85.6734
 -85.673
 -85.6845
 -85.6836
 -85.682
 -85.6839
 -85.6847
 -85.6842
 -85.6839
 -85.6834
 -85.6111
 -85.6096
 -85.6614
 -85.6608
 -85.6595
 -85.6607
 -85.6061
 -85.6092
 -85.6079
 -85.6067
 -85.6664
 -85.6698
 -85.6689
 -85.6695
 -85.6733
 -85.6722
 -85.6745
 -85.6723
 -85.6169
 -85.6189
 -85.6191
 -85.6179
 -85.6457
 -85.6458
 -85.6476
 -85.6471
 -85.615
 -85.615
 -85.617
 -85.6152
 -85.6277
 -85.6276
 -85.6281
 -85.6303
 -85.5476
 -85.5516
 -85.5465
 -85.5499
 -85.6787
 -85.6776
 -85.6805
 -85.6785
 -85.6163
 -85.6145
 -85.6171
 -85.6189
 -85.5949
 -85.5931
 -85.5932
 -85.5955
 -85.6312
 -85.6299
 -85.6325
 -85.6328
 -85.5943
 -85.5906
 -85.5897
 -85.5944
 -85.6302
 -85.6279
 -85.6265
 -85.6293
 -85.6603
 -85.6597
 -85.662
 -85.6586
 -85.6344
 -85.6328
 -85.6328
 -85.6337
 -85.6766
 -85.6794
 -85.6768
 -85.6315
 -85.6338
 -85.6313
 -85.6336
 -85.5476
 -85.5461
 -85.5463
 -85.5455
 -85.6922
 -85.6926
 -85.6931
 -85.6922
 -85.6447
 -85.6439
 -85.6453
 -85.6434
 -85.6676
 -85.6663
 -85.6642
 -85.6667
 -85.603
 -85.605
 -85.5998
 -85.6021
 -85.6194
 -85.6215
 -85.6178
 -85.6203
 -85.6199
 -85.6236
 -85.6213
 -85.6234
 -85.6832
 -85.682
 -85.6838
 -85.6848
 -85.6234
 -85.6216
 -85.6201
 -85.621
 -85.6902
 -85.6897
 -85.6907
 -85.6888
 -85.6583
 -85.6557
 -85.6559
 -85.6585
 -85.6074
 -85.608
 -85.6087
 -85.6073
 -85.5639
 -85.5648
 -85.5672
 -85.5632
 -85.6281
 -85.6247
 -85.6267
 -85.6239
 -85.6358
 -85.636
 -85.638
 -85.6356
 -85.6615
 -85.6618
 -85.6605
 -85.6588
 -85.5508
 -85.5475
 -85.5517
 -85.5503
 -85.629
 -85.6273
 -85.6303
 -85.6293
 -85.6884
 -85.6871
 -85.6867
 -85.687
 -85.6715
 -85.6731
 -85.6724
 -85.6716
 -85.6706
 -85.671
 -85.6725
 -85.6701
 -85.6681
 -85.6665
 -85.6658
 -85.6667
 -85.6712
 -85.6741
 -85.6726
 -85.6723
 -85.6511
 -85.6517
 -85.6512
 -85.6514
 -85.61
 -85.6141
 -85.6165
 -85.6166
 -85.6155
 -85.6573
 -85.6549
 -85.6557
 -85.6552
 -85.6568
 -85.6573
 -85.6542
 -85.6548
 -85.5886
 -85.5895
 -85.5895
 -85.5887
 -85.6779
 -85.6779
 -85.677
 -85.678
 -85.6666
 -85.6683
 -85.6707
 -85.6693
 -85.6072
 -85.61
 -85.6097
 -85.6101
 -85.6102
 -85.6095
 -85.6139
 -85.6154
 -85.6147
 -85.6166
 -85.608
 -85.6053
 -85.6017
 -85.6037
 -85.6562
 -85.6585
 -85.6578
 -85.6562
 -85.6901
 -85.6902
 -85.6897
 -85.6905
 -85.6374
 -85.636
 -85.6374
 -85.6349
 -85.6828
 -85.6799
 -85.6786
 -85.6786
 -85.6298
 -85.6296
 -85.6283
 -85.6306
 -85.6554
 -85.6538
 -85.6524
 -85.6526
 -85.6047
 -85.6041
 -85.6038
 -85.6012
 -85.6466
 -85.6488
 -85.6455
 -85.6472
 -85.6501
 -85.653
 -85.6541
 -85.6506
 -85.6105
 -85.6096
 -85.6078
 -85.6087
 -85.6228
 -85.6213
 -85.6256
 -85.6236
 -85.6306
 -85.6304
 -85.6283
 -85.6268
 -85.6464
 -85.6478
 -85.6468
 -85.6476
 -85.5867
 -85.5875
 -85.5883
 -85.5908
 -85.6515
 -85.6492
 -85.6507
 -85.6521
 -85.623
 -85.6202
 -85.6233
 -85.6251
 -85.6607
 -85.66
 -85.6606
 -85.6589
 -85.6753
 -85.6736
 -85.6751
 -85.674
 -85.6856
 -85.6847
 -85.6843
 -85.685
 -85.6819
 -85.683
 -85.6801
 -85.6917
 -85.692
 -85.6929
 -85.6932
 -85.6702
 -85.6684
 -85.6661
 -85.6685
 -85.6351
 -85.6345
 -85.6363
 -85.6359
 -85.6833
 -85.682
 -85.6808
 -85.683
 -85.6416
 -85.642
 -85.6405
 -85.6401
 -85.6471
 -85.6484
 -85.6476
 -85.6833
 -85.6846
 -85.6838
 -85.6835
 -85.6794
 -85.6778
 -85.6784
 -85.6438
 -85.6426
 -85.6449
 -85.6456
 -85.6218
 -85.6234
 -85.6216
 -85.6251
 -85.6587
 -85.6572
 -85.6565
 -85.6562
 -85.684
 -85.6852
 -85.6845
 -85.6837
 -85.6119
 -85.6114
 -85.6129
 -85.6104
 -85.6346
 -85.634
 -85.632
 -85.6319
 -85.6375
 -85.6406
 -85.637
 -85.6377
 -85.6607
 -85.6585
 -85.6601
 -85.6605
 -85.6128
 -85.6111
 -85.6145
 -85.6115
 -85.6038
 -85.6019
 -85.6041
 -85.6031
 -85.6379
 -85.638
 -85.6376
 -85.64
 -85.6889
 -85.6878
 -85.6876
 -85.688
 -85.6174
 -85.6148
 -85.6177
 -85.6164
 -85.6056
 -85.6076
 -85.605
 -85.6074
 -85.6514
 -85.6482
 -85.6514
 -85.6511
 -85.6147
 -85.6155
 -85.6141
 -85.6064
 -85.6081
 -85.6075
 -85.6478
 -85.6466
 -85.6498
 -85.6473
 -85.6072
 -85.6063
 -85.6048
 -85.6071
 -85.6083
 -85.6058
 -85.6077
 -85.6078
 -85.6518
 -85.6526
 -85.6511
 -85.6074
 -85.607
 -85.6743
 -85.6746
 -85.6778
 -85.678
 -85.6583
 -85.6615
 -85.6616
 -85.6603
 -85.5867
 -85.5891
 -85.5847
 -85.5897
 -85.5699
 -85.5703
 -85.5678
 -85.5704
 -85.6141
 -85.6098
 -85.6124
 -85.6127
 -85.6809
 -85.6807
 -85.6817
 -85.6809
 -85.6554
 -85.6538
 -85.6527
 -85.6538
 -85.6
 -85.5997
 -85.5995
 -85.5993
 -85.6155
 -85.6159
 -85.617
 -85.6191
 -85.6169
 -85.6171
 -85.6165
 -85.611
 -85.6128
 -85.613
 -85.613
 -85.6128
 -85.6111
 -85.6135
 -85.614
 -85.6052
 -85.6031
 -85.6049
 -85.6028
 -85.6878
 -85.6888
 -85.6881
 -85.688
 -85.6828
 -85.6844
 -85.682
 -85.6375
 -85.6359
 -85.6377
 -85.6348
 -85.6131
 -85.61
 -85.6135
 -85.6125
 -85.6926
 -85.6936
 -85.6061
 -85.6047
 -85.6051
 -85.6039
 -85.6427
 -85.6469
 -85.6442
 -85.6457
 -85.6528
 -85.6521
 -85.6074
 -85.6071
 -85.6096
 -85.6074
 -85.6847
 -85.6856
 -85.684
 -85.6867
 -85.6904
 -85.6893
 -85.6896
 -85.6917
 -85.6313
 -85.6325
 -85.6313
 -85.5859
 -85.588
 -85.5867
 -85.6094
 -85.6124
 -85.6091
 -85.6099
 -85.6648
 -85.6628
 -85.6663
 -85.6629
 -85.6196
 -85.6173
 -85.6174
 -85.6154
 -85.6181
 -85.6165
 -85.619
 -85.6159
 -85.6562
 -85.6557
 -85.6571
 -85.6595
 -85.5525
 -85.5536
 -85.5515
 -85.5493
 -85.6626
 -85.6632
 -85.665
 -85.6645
 -85.6645
 -85.6642
 -85.6659
 -85.6669
 -85.6033
 -85.6035
 -85.6005
 -85.6026
 -85.6793
 -85.6801
 -85.6804
 -85.6787
 -85.5473
 -85.5439
 -85.5449
 -85.5424
 -85.6853
 -85.682
 -85.6821
 -85.6816
 -85.6721
 -85.6706
 -85.6156
 -85.6172
 -85.6165
 -85.6184
 -85.6011
 -85.5989
 -85.6
 -85.6018
 -85.6781
 -85.6796
 -85.6793
 -85.6788
 -85.6216
 -85.6225
 -85.6224
 -85.6208
 -85.6885
 -85.6873
 -85.6881
 -85.614
 -85.6118
 -85.6109
 -85.5982
 -85.6005
 -85.6012
 -85.6856
 -85.6864
 -85.6857
 -85.6851
 -85.615
 -85.6137
 -85.6137
 -85.6137
 -85.6789
 -85.6792
 -85.5987
 -85.6001
 -85.5983
 -85.5991
 -85.64
 -85.6423
 -85.6425
 -85.6401
 -85.618
 -85.6166
 -85.6265
 -85.6311
 -85.6305
 -85.6277
 -85.6157
 -85.6153
 -85.6156
 -85.6131
 -85.6897
 -85.6917
 -85.6892
 -85.69
 -85.6025
 -85.6016
 -85.6021
 -85.6723
 -85.549
 -85.5487
 -85.549
 -85.5476
 -85.6776
 -85.6781
 -85.6791
 -85.6757
 -85.618
 -85.6182
 -85.6218
 -85.621
 -85.6615
 -85.6606
 -85.6608
 -85.6612
 -85.6154
 -85.6138
 -85.6127
 -85.615
 -85.6558
 -85.5886
 -85.5881
 -85.588
 -85.5889
 -85.6553
 -85.6554
 -85.6547
 -85.6528
 -85.6705
 -85.6716
 -85.6724
 -85.6689
 -85.6706
 -85.6684
 -85.6712
 -85.6785
 -85.6803
 -85.6795
 -85.6793
 -85.6033
 -85.6041
 -85.6067
 -85.6054
 -85.6759
 -85.6759
 -85.6757
 -85.6775
 -85.5948
 -85.5943
 -85.595
 -85.5923
 -85.6737
 -85.6749
 -85.6757
 -85.6758
 -85.6363
 -85.6349
 -85.6345
 -85.6337
 -85.6607
 -85.6622
 -85.6629
 -85.6634
 -85.6436
 -85.6425
 -85.6417
 -85.641
 -85.6852
 -85.6826
 -85.6432
 -85.641
 -85.6411
 -85.6429
 -85.5879
 -85.5871
 -85.59
 -85.587
 -85.5936
 -85.5925
 -85.5966
 -85.5931
 -85.6435
 -85.6456
 -85.6459
 -85.6461
 -85.6642
 -85.6643
 -85.6636
 -85.6664
 -85.6674
 -85.6657
 -85.6666
 -85.6681
 -85.6831
 -85.6808
 -85.6815
 -85.6802
 -85.668
 -85.6705
 -85.6692
 -85.6678
 -85.5936
 -85.5938
 -85.5954
 -85.5922
 -85.606
 -85.6061
 -85.6054
 -85.6092
 -85.6931
 -85.6922
 -85.6918
 -85.6918
 -85.6476
 -85.6486
 -85.6481
 -85.6515
 -85.6091
 -85.6121
 -85.6091
 -85.6116
 -85.5589
 -85.5582
 -85.5619
 -85.5575
 -85.6778
 -85.6789
 -85.6769
 -85.6808
 -85.6121
 -85.6122
 -85.6129
 -85.6145
 -85.6276
 -85.63
 -85.6262
 -85.6281
 -85.5941
 -85.5932
 -85.5938
 -85.5953
 -85.6544
 -85.6533
 -85.6544
 -85.6546
 -85.683
 -85.6832
 -85.6825
 -85.6831
 -85.6498
 -85.6469
 -85.6477
 -85.6471
 -85.6313
 -85.6315
 -85.6343
 -85.633
 -85.5899
 -85.5911
 -85.5922
 -85.5883
 -85.6825
 -85.6581
 -85.6598
 -85.6572
 -85.6595
 -85.6271
 -85.626
 -85.6238
 -85.6246
 -85.6635
 -85.6649
 -85.6646
 -85.6662
 -85.6092
 -85.6078
 -85.6082
 -85.6105
 -85.6541
 -85.6555
 -85.6527
 -85.5871
 -85.5903
 -85.5877
 -85.5872
 -85.6727
 -85.669
 -85.6714
 -85.6702
 -85.6031
 -85.6027
 -85.6042
 -85.6032
 -85.6968
 -85.6963
 -85.6966
 -85.6975
 -85.6128
 -85.6132
 -85.6135
 -85.6131
 -85.5673
 -85.5734
 -85.5728
 -85.5708
 -85.5849
 -85.5846
 -85.5871
 -85.5865
 -85.693
 -85.6923
 -85.6916
 -85.6912
 -85.6865
 -85.6862
 -85.6873
 -85.6875
 -85.6374
 -85.6397
 -85.6389
 -85.6397
 -85.6147
 -85.6142
 -85.6158
 -85.6438
 -85.6438
 -85.6405
 -85.6418
 -85.6579
 -85.6567
 -85.6594
 -85.6595
 -85.6429
 -85.6473
 -85.6459
 -85.6454
 -85.6397
 -85.6406
 -85.644
 -85.6422
 -85.6913
 -85.69
 -85.6902
 -85.6895
 -85.6071
 -85.6064
 -85.6092
 -85.6071
 -85.5852
 -85.5808
 -85.5812
 -85.6636
 -85.6619
 -85.6629
 -85.662
 -85.6774
 -85.6792
 -85.6778
 -85.6774
 -85.6107
 -85.6098
 -85.6113
 -85.6077
 -85.6081
 -85.6091
 -85.6062
 -85.6803
 -85.6792
 -85.681
 -85.6781
 -85.6341
 -85.6338
 -85.6357
 -85.6339
 -85.6085
 -85.6059
 -85.608
 -85.6081
 -85.6271
 -85.6258
 -85.626
 -85.6277
 -85.6731
 -85.6729
 -85.6712
 -85.6729
 -85.6095
 -85.6128
 -85.6078
 -85.6121
 -85.6294
 -85.6258
 -85.627
 -85.6281
 -85.6181
 -85.6203
 -85.6185
 -85.6865
 -85.6861
 -85.6849
 -85.6854
 -85.6346
 -85.6351
 -85.6333
 -85.6359
 -85.6932
 -85.6927
 -85.695
 -85.6423
 -85.6434
 -85.6431
 -85.6422
 -85.5898
 -85.5919
 -85.5885
 -85.5894
 -85.65
 -85.6506
 -85.6522
 -85.6541
 -85.6385
 -85.6416
 -85.6376
 -85.6117
 -85.6125
 -85.6146
 -85.6129
 -85.6021
 -85.6026
 -85.6014
 -85.6031
 -85.6114
 -85.6125
 -85.6142
 -85.611
 -85.5654
 -85.5656
 -85.569
 -85.5693
 -85.6228
 -85.6222
 -85.621
 -85.6209
 -85.6184
 -85.6175
 -85.6208
 -85.6169
 -85.6811
 -85.6787
 -85.6792
 -85.6821
 -85.5988
 -85.602
 -85.601
 -85.6003
 -85.6563
 -85.6552
 -85.6569
 -85.6576
 -85.6878
 -85.6881
 -85.687
 -85.6862
 -85.6884
 -85.6863
 -85.6874
 -85.6881
 -85.6709
 -85.6724
 -85.6708
 -85.6719
 -85.6895
 -85.6914
 -85.6912
 -85.6882
 -85.6822
 -85.6826
 -85.6824
 -85.6934
 -85.6908
 -85.6916
 -85.6915
 -85.5943
 -85.593
 -85.5941
 -85.5923
 -85.6266
 -85.6243
 -85.6232
 -85.6246
 -85.6188
 -85.6217
 -85.6196
 -85.6219
 -85.623
 -85.6218
 -85.6215
 -85.6209
 -85.6846
 -85.683
 -85.6841
 -85.6847
 -85.6266
 -85.6268
 -85.6246
 -85.6236
 -85.6118
 -85.6091
 -85.609
 -85.6109
 -85.6594
 -85.6587
 -85.6611
 -85.6581
 -85.6137
 -85.6163
 -85.6136
 -85.6152
 -85.6647
 -85.6631
 -85.6628
 -85.6433
 -85.6458
 -85.6458
 -85.6792
 -85.6772
 -85.6779
 -85.6782
 -85.6273
 -85.6282
 -85.6264
 -85.6264
 -85.6545
 -85.6526
 -85.6531
 -85.6549
 -85.6218
 -85.6187
 -85.6203
 -85.6224
 -85.6936
 -85.6928
 -85.6882
 -85.6875
 -85.6867
 -85.6887
 -85.5911
 -85.5904
 -85.5905
 -85.5893
 -85.6554
 -85.6573
 -85.6576
 -85.659
 -85.6114
 -85.6144
 -85.6122
 -85.6103
 -85.5383
 -85.5334
 -85.5378
 -85.5362
 -85.6137
 -85.6129
 -85.6114
 -85.6127
 -85.6636
 -85.6615
 -85.6633
 -85.5993
 -85.5989
 -85.6018
 -85.6016
 -85.6869
 -85.6852
 -85.6874
 -85.6859
 -85.6144
 -85.6154
 -85.6145
 -85.6155
 -85.6542
 -85.6562
 -85.655
 -85.6544
 -85.591
 -85.5922
 -85.5893
 -85.5913
 -85.5572
 -85.5569
 -85.5586
 -85.5594
 -85.6095
 -85.6112
 -85.6093
 -85.6088
 -85.6242
 -85.6233
 -85.625
 -85.6457
 -85.6423
 -85.6461
 -85.6447
 -85.604
 -85.604
 -85.6012
 -85.6649
 -85.6642
 -85.6655
 -85.6668
 -85.6712
 -85.6743
 -85.6714
 -85.674
 -85.6615
 -85.6596
 -85.6613
 -85.6615
 -85.6855
 -85.6816
 -85.6832
 -85.6836
 -85.6692
 -85.6675
 -85.6684
 -85.6172
 -85.6188
 -85.6186
 -85.6197
 -85.6666
 -85.6647
 -85.6583
 -85.6559
 -85.6552
 -85.6573
 -85.6634
 -85.6625
 -85.6627
 -85.6641
 -85.6105
 -85.6117
 -85.6111
 -85.6087
 -85.6122
 -85.614
 -85.6122
 -85.6139
 -85.5392
 -85.5411
 -85.5417
 -85.5403
 -85.612
 -85.6135
 -85.6119
 -85.6178
 -85.6168
 -85.6163
 -85.6171
 -85.6378
 -85.6377
 -85.6364
 -85.6359
 -85.6181
 -85.6206
 -85.6208
 -85.6191
 -85.5913
 -85.5928
 -85.5911
 -85.5908
 -85.6716
 -85.6691
 -85.6713
 -85.6694
 -85.6365
 -85.6382
 -85.6362
 -85.6348
 -85.6848
 -85.6849
 -85.6842
 -85.6852
 -85.6482
 -85.646
 -85.648
 -85.6468
 -85.6833
 -85.684
 -85.6835
 -85.5622
 -85.565
 -85.5637
 -85.5642
 -85.662
 -85.6651
 -85.6625
 -85.6628
 -85.6305
 -85.6283
 -85.6308
 -85.6297
 -85.6063
 -85.6048
 -85.6209
 -85.6212
 -85.6225
 -85.6219
 -85.6292
 -85.6266
 -85.6274
 -85.6802
 -85.6808
 -85.6794
 -85.6805
 -85.681
 -85.6799
 -85.6784
 -85.6793
 -85.6067
 -85.6058
 -85.6071
 -85.6063
 -85.6346
 -85.6335
 -85.6139
 -85.6164
 -85.6149
 -85.6128
 -85.6672
 -85.6659
 -85.6689
 -85.6689
 -85.589
 -85.5888
 -85.5886
 -85.5896
 -85.6094
 -85.6104
 -85.6085
 -85.6083
 -85.6137
 -85.616
 -85.6171
 -85.616
 -85.6418
 -85.6412
 -85.6417
 -85.6447
 -85.6654
 -85.665
 -85.6637
 -85.6638
 -85.6691
 -85.667
 -85.6656
 -85.6677
 -85.5499
 -85.5495
 -85.5486
 -85.5476
 -85.6001
 -85.6022
 -85.6031
 -85.6461
 -85.6423
 -85.6445
 -85.6489
 -85.6512
 -85.6488
 -85.6513
 -85.6835
 -85.6846
 -85.6837
 -85.6852
 -85.6342
 -85.6126
 -85.6124
 -85.6097
 -85.6107
 -85.6557
 -85.6543
 -85.6524
 -85.6535
 -85.6707
 -85.6685
 -85.669
 -85.6712
 -85.6777
 -85.6782
 -85.6069
 -85.6061
 -85.605
 -85.6047
 -85.6388
 -85.6407
 -85.6399
 -85.6412
 -85.6008
 -85.6002
 -85.6007
 -85.6014
 -85.6497
 -85.6239
 -85.6221
 -85.6261
 -85.6271
 -85.6192
 -85.6208
 -85.6217
 -85.6203
 -85.6843
 -85.682
 -85.6872
 -85.6883
 -85.6886
 -85.6877
 -85.5748
 -85.5732
 -85.574
 -85.5751
 -85.6684
 -85.6689
 -85.6663
 -85.6698
 -85.6498
 -85.6468
 -85.6477
 -85.6501
 -85.555
 -85.556
 -85.556
 -85.5542
 -85.6379
 -85.638
 -85.6391
 -85.6366
 -85.6361
 -85.6334
 -85.632
 -85.6325
 -85.6047
 -85.602
 -85.605
 -85.604
 -85.6924
 -85.6934
 -85.6936
 -85.6936
 -85.6332
 -85.6308
 -85.6311
 -85.6159
 -85.6185
 -85.6184
 -85.6162
 -85.6889
 -85.6913
 -85.6898
 -85.6901
 -85.6161
 -85.6146
 -85.6125
 -85.617
 -85.6297
 -85.6314
 -85.6737
 -85.6741
 -85.6756
 -85.6722
 -85.6457
 -85.6458
 -85.6485
 -85.6481
 -85.6864
 -85.6852
 -85.6867
 -85.6861
 -85.6323
 -85.6359
 -85.6107
 -85.6116
 -85.6122
 -85.612
 -85.6163
 -85.6164
 -85.6178
 -85.6187
 -85.6762
 -85.6761
 -85.6738
 -85.6745
 -85.6706
 -85.6698
 -85.6712
 -85.6714
 -85.6671
 -85.6643
 -85.667
 -85.6659
 -85.6184
 -85.6213
 -85.6201
 -85.6184
 -85.5752
 -85.5736
 -85.5747
 -85.5753
 -85.689
 -85.6905
 -85.6891
 -85.6897
 -85.6036
 -85.604
 -85.6044
 -85.6059
 -85.6437
 -85.6452
 -85.6462
 -85.6439
 -85.6217
 -85.6257
 -85.623
 -85.6244
 -85.6433
 -85.6405
 -85.6427
 -85.654
 -85.6566
 -85.6539
 -85.6567
 -85.6379
 -85.6398
 -85.6384
 -85.6368
 -85.6624
 -85.6631
 -85.6649
 -85.6618
 -85.6621
 -85.6616
 -85.6625
 -85.6591
 -85.5544
 -85.5589
 -85.5548
 -85.5913
 -85.5942
 -85.5951
 -85.594
 -85.643
 -85.6413
 -85.642
 -85.6419
 -85.6746
 -85.6763
 -85.6751
 -85.6768
 -85.6112
 -85.6082
 -85.6111
 -85.6149
 -85.6161
 -85.6162
 -85.6511
 -85.6502
 -85.6519
 -85.6519
 -85.6423
 -85.6441
 -85.6452
 -85.6454
 -85.6981
 -85.6979
 -85.6973
 -85.6983
 -85.5848
 -85.5856
 -85.5839
 -85.5805
 -85.6658
 -85.667
 -85.6251
 -85.628
 -85.6279
 -85.6257
 -85.6606
 -85.6618
 -85.6617
 -85.6623
 -85.6478
 -85.6485
 -85.6501
 -85.6487
 -85.6287
 -85.6284
 -85.6307
 -85.6268
 -85.6582
 -85.6602
 -85.6593
 -85.6599
 -85.6069
 -85.6077
 -85.6078
 -85.6093
 -85.5984
 -85.5968
 -85.5987
 -85.5978
 -85.672
 -85.6727
 -85.6748
 -85.6771
 -85.6424
 -85.6438
 -85.6455
 -85.5691
 -85.5683
 -85.5701
 -85.6773
 -85.6786
 -85.6789
 -85.6794
 -85.6806
 -85.68
 -85.679
 -85.6786
 -85.638
 -85.6387
 -85.6395
 -85.6404
 -85.6838
 -85.6849
 -85.6848
 -85.6846
 -85.686
 -85.6878
 -85.6863
 -85.6882
 -85.6285
 -85.6297
 -85.6315
 -85.6292
 -85.6691
 -85.6701
 -85.671
 -85.6708
 -85.6972
 -85.6974
 -85.6967
 -85.6979
 -85.6687
 -85.6685
 -85.6674
 -85.6701
 -85.6445
 -85.6417
 -85.6428
 -85.6405
 -85.6756
 -85.6761
 -85.6748
 -85.6742
 -85.662
 -85.6614
 -85.6631
 -85.6518
 -85.6538
 -85.5776
 -85.5785
 -85.577
 -85.5761
 -85.6504
 -85.6529
 -85.652
 -85.6519
 -85.5792
 -85.58
 -85.5804
 -85.5806
 -85.5793
 -85.5784
 -85.5819
 -85.582
 -85.6463
 -85.6477
 -85.6477
 -85.6458
 -85.6248
 -85.6249
 -85.6228
 -85.6255
 -85.6546
 -85.6571
 -85.6563
 -85.6562
 -85.6406
 -85.6389
 -85.595
 -85.5939
 -85.5945
 -85.5962
 -85.689
 -85.6898
 -85.6904
 -85.6896
 -85.6257
 -85.6243
 -85.6281
 -85.6263
 -85.6754
 -85.6746
 -85.6732
 -85.6746
 -85.5955
 -85.5934
 -85.5952
 -85.5942
 -85.6812
 -85.6834
 -85.683
 -85.6832
 -85.6508
 -85.6481
 -85.6504
 -85.6503
 -85.6126
 -85.6098
 -85.6079
 -85.6094
 -85.6968
 -85.6964
 -85.6964
 -85.6958
 -85.6196
 -85.6219
 -85.6199
 -85.6197
 -85.6283
 -85.625
 -85.6274
 -85.6254
 -85.6904
 -85.6907
 -85.6894
 -85.6911
 -85.6378
 -85.6344
 -85.6357
 -85.6357
 -85.6768
 -85.6782
 -85.6771
 -85.6767
 -85.6746
 -85.6732
 -85.6737
 -85.6304
 -85.6266
 -85.6278
 -85.628
 -85.6749
 -85.6764
 -85.6753
 -85.6759
 -85.6052
 -85.6074
 -85.6071
 -85.6051
 -85.6802
 -85.6813
 -85.6812
 -85.6806
 -85.6792
 -85.6785
 -85.6795
 -85.6788
 -85.6082
 -85.6075
 -85.6115
 -85.6094
 -85.611
 -85.6105
 -85.6126
 -85.6095
 -85.5276
 -85.5281
 -85.5262
 -85.5269
 -85.667
 -85.6646
 -85.6648
 -85.5799
 -85.5832
 -85.5839
 -85.5818
 -85.6873
 -85.6857
 -85.6861
 -85.6863
 -85.6066
 -85.6763
 -85.6742
 -85.6744
 -85.6759
 -85.6766
 -85.6745
 -85.675
 -85.5484
 -85.5459
 -85.547
 -85.548
 -85.5431
 -85.5441
 -85.543
 -85.5422
 -85.6855
 -85.6838
 -85.6851
 -85.6863
 -85.6108
 -85.6098
 -85.6117
 -85.6093
 -85.6611
 -85.6604
 -85.6625
 -85.6213
 -85.6193
 -85.6212
 -85.6183
 -85.6307
 -85.6308
 -85.6304
 -85.6755
 -85.675
 -85.6776
 -85.6501
 -85.6522
 -85.6521
 -85.6503
 -85.6225
 -85.6198
 -85.6199
 -85.6219
 -85.6093
 -85.6103
 -85.609
 -85.61
 -85.6614
 -85.6629
 -85.6631
 -85.5925
 -85.5942
 -85.5901
 -85.5898
 -85.6092
 -85.6133
 -85.6101
 -85.6278
 -85.632
 -85.6308
 -85.6296
 -85.6034
 -85.6058
 -85.606
 -85.605
 -85.6096
 -85.6122
 -85.6128
 -85.612
 -85.6769
 -85.6754
 -85.6758
 -85.6755
 -85.6336
 -85.6315
 -85.6327
 -85.6343
 -85.6162
 -85.6164
 -85.644
 -85.6426
 -85.6434
 -85.6411
 -85.6825
 -85.6878
 -85.6884
 -85.6881
 -85.6879
 -85.5239
 -85.5235
 -85.5233
 -85.5241
 -85.6719
 -85.674
 -85.6725
 -85.6933
 -85.693
 -85.6923
 -85.6931
 -85.6676
 -85.6649
 -85.6659
 -85.6651
 -85.6082
 -85.6089
 -85.6102
 -85.6083
 -85.6316
 -85.6297
 -85.6293
 -85.6286
 -85.6944
 -85.6944
 -85.6941
 -85.6937
 -85.6669
 -85.6652
 -85.664
 -85.6657
 -85.5911
 -85.589
 -85.5887
 -85.5926
 -85.6282
 -85.6282
 -85.6288
 -85.6248
 -85.6258
 -85.627
 -85.628
 -85.6259
 -85.524
 -85.5236
 -85.5236
 -85.5242
 -85.605
 -85.6046
 -85.6041
 -85.6058
 -85.6675
 -85.6702
 -85.6678
 -85.6689
 -85.6516
 -85.6514
 -85.6538
 -85.6508
 -85.6344
 -85.6357
 -85.638
 -85.6357
 -85.6637
 -85.666
 -85.665
 -85.6652
 -85.6519
 -85.6523
 -85.6542
 -85.6519
 -85.6643
 -85.664
 -85.6628
 -85.6664
 -85.6969
 -85.6951
 -85.6955
 -85.6972
 -85.6711
 -85.6697
 -85.6694
 -85.6664
 -85.662
 -85.6603
 -85.6593
 -85.6618
 -85.6598
 -85.6439
 -85.6437
 -85.6421
 -85.6461
 -85.6883
 -85.6878
 -85.6874
 -85.6873
 -85.6339
 -85.6321
 -85.6343
 -85.6335
 -85.6503
 -85.6513
 -85.6524
 -85.6488
 -85.6401
 -85.6374
 -85.6394
 -85.6415
 -85.6219
 -85.6182
 -85.6212
 -85.6188
 -85.5629
 -85.5641
 -85.5678
 -85.5632
 -85.6981
 -85.6964
 -85.6581
 -85.6567
 -85.6566
 -85.5332
 -85.5334
 -85.5335
 -85.6136
 -85.6117
 -85.6128
 -85.6108
 -85.5782
 -85.579
 -85.5748
 -85.5743
 -85.6003
 -85.599
 -85.601
 -85.5972
 -85.6878
 -85.6852
 -85.6866
 -85.6865
 -85.645
 -85.6425
 -85.6432
 -85.6421
 -85.6603
 -85.663
 -85.6626
 -85.6646
 -85.6515
 -85.6517
 -85.6494
 -85.6485
 -85.6653
 -85.666
 -85.6644
 -85.6647
 -85.6365
 -85.6362
 -85.6759
 -85.6714
 -85.6759
 -85.6722
 -85.6654
 -85.6639
 -85.6628
 -85.6665
 -85.6126
 -85.61
 -85.613
 -85.6105
 -85.6137
 -85.6145
 -85.6144
 -85.6147
 -85.6492
 -85.6493
 -85.6486
 -85.6503
 -85.6451
 -85.6462
 -85.6478
 -85.6493
 -85.6009
 -85.5976
 -85.5972
 -85.601
 -85.6629
 -85.6616
 -85.6609
 -85.6605
 -85.6952
 -85.6944
 -85.695
 -85.6947
 -85.6785
 -85.6774
 -85.6777
 -85.677
 -85.697
 -85.6976
 -85.6967
 -85.6978
 -85.6813
 -85.6829
 -85.6824
 -85.6826
 -85.6428
 -85.6457
 -85.6429
 -85.6435
 -85.6622
 -85.6604
 -85.6379
 -85.6407
 -85.6372
 -85.639
 -85.6131
 -85.6149
 -85.615
 -85.6157
 -85.6706
 -85.6726
 -85.6728
 -85.6708
 -85.6368
 -85.6359
 -85.637
 -85.6343
 -85.6288
 -85.6269
 -85.6263
 -85.6274
 -85.6084
 -85.6088
 -85.61
 -85.6113
 -85.6166
 -85.6157
 -85.6149
 -85.6186
 -85.6086
 -85.61
 -85.6108
 -85.6094
 -85.5674
 -85.5682
 -85.5665
 -85.5667
 -85.6683
 -85.6691
 -85.6667
 -85.6685
 -85.6591
 -85.6598
 -85.5714
 -85.5734
 -85.573
 -85.5697
 -85.6207
 -85.6212
 -85.6567
 -85.6552
 -85.6569
 -85.6785
 -85.6785
 -85.6047
 -85.6046
 -85.6036
 -85.6058
 -85.571
 -85.5729
 -85.5728
 -85.5734
 -85.599
 -85.6
 -85.6016
 -85.6023
 -85.62
 -85.6214
 -85.6222
 -85.6228
 -85.6526
 -85.6498
 -85.6497
 -85.6501
 -85.6594
 -85.6584
 -85.6582
 -85.6577
 -85.6191
 -85.6218
 -85.6217
 -85.6211
 -85.6506
 -85.6503
 -85.6512
 -85.6479
 -85.6413
 -85.6396
 -85.6391
 -85.6404
 -85.6453
 -85.6471
 -85.6483
 -85.6472
 -85.6468
 -85.6439
 -85.6472
 -85.6374
 -85.6359
 -85.6395
 -85.638
 -85.624
 -85.625
 -85.6225
 -85.6233
 -85.6106
 -85.6125
 -85.6095
 -85.6122
 -85.6874
 -85.687
 -85.688
 -85.6888
 -85.6331
 -85.633
 -85.6354
 -85.6354
 -85.5977
 -85.5974
 -85.5947
 -85.5969
 -85.5913
 -85.591
 -85.5906
 -85.5897
 -85.6018
 -85.6006
 -85.6007
 -85.6013
 -85.6081
 -85.608
 -85.6107
 -85.6112
 -85.6104
 -85.609
 -85.6084
 -85.6094
 -85.6855
 -85.6865
 -85.6863
 -85.6865
 -85.6297
 -85.6297
 -85.6291
 -85.6315
 -85.6667
 -85.6676
 -85.6663
 -85.6655
 -85.6105
 -85.6132
 -85.6095
 -85.6122
 -85.689
 -85.6898
 -85.6895
 -85.691
 -85.6913
 -85.6912
 -85.6923
 -85.6639
 -85.6594
 -85.6609
 -85.6612
 -85.6157
 -85.6166
 -85.6141
 -85.6158
 -85.6948
 -85.6932
 -85.6936
 -85.6273
 -85.6251
 -85.6265
 -85.6231
 -85.681
 -85.6814
 -85.6781
 -85.6787
 -85.6805
 -85.6783
 -85.6231
 -85.6214
 -85.6222
 -85.5921
 -85.593
 -85.59
 -85.5912
 -85.6095
 -85.6076
 -85.6101
 -85.6105
 -85.6412
 -85.6438
 -85.6407
 -85.6893
 -85.6865
 -85.6869
 -85.6647
 -85.6627
 -85.6617
 -85.663
 -85.6899
 -85.69
 -85.6877
 -85.6916
 -85.6305
 -85.633
 -85.6342
 -85.6322
 -85.6805
 -85.6811
 -85.6821
 -85.6792
 -85.6423
 -85.6428
 -85.6411
 -85.6402
 -85.6172
 -85.615
 -85.6163
 -85.6936
 -85.6923
 -85.6929
 -85.6948
 -85.6596
 -85.6512
 -85.6539
 -85.6533
 -85.6519
 -85.6537
 -85.6538
 -85.6521
 -85.6153
 -85.6142
 -85.6139
 -85.6138
 -85.6137
 -85.6166
 -85.6323
 -85.6297
 -85.6293
 -85.6286
 -85.6289
 -85.6318
 -85.6295
 -85.6311
 -85.6633
 -85.6952
 -85.6933
 -85.6928
 -85.6942
 -85.5544
 -85.5513
 -85.5537
 -85.5536
 -85.6221
 -85.6203
 -85.6159
 -85.615
 -85.616
 -85.6166
 -85.6137
 -85.614
 -85.611
 -85.6121
 -85.6664
 -85.664
 -85.6646
 -85.6657
 -85.6687
 -85.67
 -85.6673
 -85.6689
 -85.6169
 -85.6147
 -85.661
 -85.6608
 -85.6637
 -85.6619
 -85.6632
 -85.6653
 -85.6632
 -85.648
 -85.6465
 -85.6452
 -85.6443
 -85.6335
 -85.6312
 -85.633
 -85.6312
 -85.6672
 -85.6698
 -85.6694
 -85.6677
 -85.6741
 -85.6749
 -85.6761
 -85.6744
 -85.6699
 -85.6722
 -85.6704
 -85.6686
 -85.6694
 -85.669
 -85.667
 -85.6321
 -85.6328
 -85.6328
 -85.6311
 -85.5841
 -85.5841
 -85.5856
 -85.5857
 -85.6253
 -85.6247
 -85.6236
 -85.6242
 -85.6735
 -85.6717
 -85.6705
 -85.6724
 -85.6601
 -85.6596
 -85.6592
 -85.6616
 -85.6246
 -85.6262
 -85.6268
 -85.6273
 -85.6605
 -85.6581
 -85.6595
 -85.6603
 -85.6467
 -85.6476
 -85.6437
 -85.6473
 -85.648
 -85.6504
 -85.6495
 -85.6499
 -85.6598
 -85.6608
 -85.661
 -85.6876
 -85.6878
 -85.6871
 -85.6874
 -85.6242
 -85.6265
 -85.6253
 -85.626
 -85.6391
 -85.6417
 -85.6412
 -85.6404
 -85.5841
 -85.5822
 -85.5826
 -85.5852
 -85.6079
 -85.6096
 -85.6095
 -85.608
 -85.6116
 -85.6074
 -85.6092
 -85.607
 -85.6076
 -85.6086
 -85.6084
 -85.6093
 -85.6458
 -85.6442
 -85.645
 -85.5996
 -85.5993
 -85.6003
 -85.6006
 -85.6034
 -85.6044
 -85.6064
 -85.6032
 -85.6933
 -85.6921
 -85.6919
 -85.6927
 -85.6476
 -85.6461
 -85.6456
 -85.6446
 -85.6755
 -85.6757
 -85.6749
 -85.6736
 -85.6519
 -85.653
 -85.6513
 -85.6499
 -85.6592
 -85.661
 -85.6594
 -85.6599
 -85.6142
 -85.612
 -85.6133
 -85.6102
 -85.6388
 -85.6434
 -85.6401
 -85.6404
 -85.6748
 -85.6759
 -85.6741
 -85.6747
 -85.6541
 -85.6533
 -85.656
 -85.6552
 -85.6044
 -85.6035
 -85.6066
 -85.6072
 -85.6872
 -85.6879
 -85.6875
 -85.688
 -85.6254
 -85.6232
 -85.6029
 -85.6397
 -85.6408
 -85.6422
 -85.639
 -85.6332
 -85.635
 -85.6323
 -85.6322
 -85.5751
 -85.5746
 -85.5777
 -85.6218
 -85.6197
 -85.6191
 -85.6178
 -85.6522
 -85.656
 -85.6546
 -85.6564
 -85.6416
 -85.6437
 -85.6424
 -85.6417
 -85.6835
 -85.6842
 -85.6844
 -85.6839
 -85.6097
 -85.6131
 -85.6107
 -85.6128
 -85.6126
 -85.6121
 -85.6152
 -85.5778
 -85.574
 -85.5758
 -85.5779
 -85.6085
 -85.6111
 -85.6094
 -85.6504
 -85.6551
 -85.6511
 -85.6079
 -85.6077
 -85.6058
 -85.6068
 -85.6331
 -85.6356
 -85.6362
 -85.6358
 -85.5243
 -85.5242
 -85.5242
 -85.5255
 -85.6311
 -85.63
 -85.6305
 -85.5974
 -85.5971
 -85.5975
 -85.5976
 -85.6305
 -85.6293
 -85.6269
 -85.6291
 -85.6062
 -85.6083
 -85.6081
 -85.6091
 -85.6614
 -85.6623
 -85.6609
 -85.6629
 -85.6674
 -85.6659
 -85.6675
 -85.6682
 -85.6913
 -85.6914
 -85.6919
 -85.6906
 -85.6487
 -85.6458
 -85.6484
 -85.6492
 -85.605
 -85.6031
 -85.6047
 -85.6036
 -85.6156
 -85.6143
 -85.5888
 -85.5886
 -85.5899
 -85.5896
 -85.636
 -85.637
 -85.6217
 -85.6254
 -85.6246
 -85.6128
 -85.6141
 -85.6152
 -85.6137
 -85.6867
 -85.687
 -85.6847
 -85.6851
 -85.685
 -85.6845
 -85.6837
 -85.6846
 -85.6141
 -85.6152
 -85.6138
 -85.6115
 -85.5996
 -85.6002
 -85.6526
 -85.653
 -85.6524
 -85.6546
 -85.6121
 -85.6109
 -85.6132
 -85.6128
 -85.6252
 -85.6221
 -85.6275
 -85.6973
 -85.6977
 -85.6967
 -85.6416
 -85.6446
 -85.6431
 -85.6435
 -85.6795
 -85.6815
 -85.679
 -85.6782
 -85.6451
 -85.6474
 -85.6478
 -85.645
 -85.6666
 -85.6684
 -85.6687
 -85.6655
 -85.6045
 -85.6063
 -85.6048
 -85.604
 -85.6098
 -85.613
 -85.6088
 -85.612
 -85.6464
 -85.644
 -85.6481
 -85.6452
 -85.6228
 -85.6258
 -85.6265
 -85.6226
 -85.6029
 -85.6036
 -85.6048
 -85.6069
 -85.6335
 -85.6347
 -85.6363
 -85.6375
 -85.6576
 -85.6581
 -85.6566
 -85.6449
 -85.647
 -85.6456
 -85.647
 -85.5373
 -85.5405
 -85.5415
 -85.5397
 -85.6002
 -85.6
 -85.6005
 -85.6003
 -85.6216
 -85.6211
 -85.6215
 -85.6239
 -85.5695
 -85.5717
 -85.5679
 -85.5705
 -85.6791
 -85.6787
 -85.6774
 -85.6926
 -85.6917
 -85.6908
 -85.6916
 -85.6698
 -85.6734
 -85.6718
 -85.6718
 -85.6441
 -85.6572
 -85.6598
 -85.6608
 -85.659
 -85.6391
 -85.6408
 -85.6378
 -85.638
 -85.5977
 -85.5948
 -85.5965
 -85.612
 -85.613
 -85.6137
 -85.61
 -85.5394
 -85.5365
 -85.5392
 -85.5351
 -85.5757
 -85.5755
 -85.577
 -85.5753
 -85.6198
 -85.6197
 -85.6214
 -85.623
 -85.6943
 -85.6924
 -85.693
 -85.6926
 -85.5465
 -85.5462
 -85.5493
 -85.5478
 -85.6641
 -85.6657
 -85.6627
 -85.6645
 -85.645
 -85.6453
 -85.6475
 -85.6454
 -85.6144
 -85.6101
 -85.61
 -85.6357
 -85.633
 -85.6324
 -85.6324
 -85.6928
 -85.6931
 -85.6935
 -85.5998
 -85.604
 -85.6047
 -85.6323
 -85.6339
 -85.6363
 -85.6359
 -85.6205
 -85.6199
 -85.6194
 -85.6186
 -85.6235
 -85.6231
 -85.6257
 -85.6264
 -85.5969
 -85.5953
 -85.5953
 -85.5982
 -85.6359
 -85.6375
 -85.6349
 -85.638
 -85.6872
 -85.6843
 -85.6845
 -85.6832
 -85.6832
 -85.6826
 -85.682
 -85.684
 -85.5926
 -85.5927
 -85.5935
 -85.5922
 -85.6774
 -85.6779
 -85.6777
 -85.6757
 -85.6853
 -85.6873
 -85.6866
 -85.6846
 -85.6765
 -85.6766
 -85.6742
 -85.6746
 -85.6578
 -85.6571
 -85.6589
 -85.6579
 -85.6407
 -85.6389
 -85.6418
 -85.6199
 -85.6162
 -85.6175
 -85.618
 -85.6682
 -85.6667
 -85.665
 -85.6675
 -85.6711
 -85.6715
 -85.6728
 -85.6721
 -85.6983
 -85.6982
 -85.6969
 -85.6975
 -85.576
 -85.5778
 -85.5772
 -85.5776
 -85.5896
 -85.5887
 -85.589
 -85.5902
 -85.5971
 -85.5969
 -85.6003
 -85.5968
 -85.6215
 -85.6182
 -85.6205
 -85.6204
 -85.6261
 -85.6264
 -85.6262
 -85.6864
 -85.6877
 -85.6894
 -85.6884
 -85.6734
 -85.6727
 -85.6716
 -85.6712
 -85.638
 -85.6363
 -85.6357
 -85.6372
 -85.6841
 -85.6854
 -85.652
 -85.6523
 -85.6523
 -85.65
 -85.6833
 -85.6841
 -85.6858
 -85.6841
 -85.6477
 -85.6506
 -85.647
 -85.6511
 -85.6192
 -85.6212
 -85.6173
 -85.6191
 -85.5874
 -85.5852
 -85.5871
 -85.5893
 -85.5362
 -85.5387
 -85.5348
 -85.5375
 -85.6802
 -85.6791
 -85.679
 -85.6805
 -85.6836
 -85.6837
 -85.684
 -85.6852
 -85.6303
 -85.6271
 -85.6293
 -85.6278
 -85.6438
 -85.6425
 -85.6422
 -85.644
 -85.6102
 -85.6081
 -85.6118
 -85.6535
 -85.6519
 -85.6522
 -85.6508
 -85.6109
 -85.6104
 -85.6118
 -85.6121
 -85.6397
 -85.6372
 -85.6354
 -85.6369
 -85.6592
 -85.6579
 -85.6588
 -85.6594
 -85.6455
 -85.6447
 -85.6438
 -85.6774
 -85.6754
 -85.6762
 -85.6762
 -85.6554
 -85.6583
 -85.5661
 -85.5698
 -85.5651
 -85.5672
 -85.6686
 -85.6674
 -85.6684
 -85.6144
 -85.6151
 -85.6153
 -85.6142
 -85.6555
 -85.6556
 -85.6546
 -85.6392
 -85.6367
 -85.6397
 -85.6378
 -85.6539
 -85.651
 -85.655
 -85.6529
 -85.6555
 -85.6581
 -85.5519
 -85.5519
 -85.5502
 -85.5515
 -85.5394
 -85.5367
 -85.535
 -85.5379
 -85.6417
 -85.6388
 -85.6398
 -85.6386
 -85.6532
 -85.6517
 -85.6531
 -85.6512
 -85.5525
 -85.5524
 -85.5527
 -85.5549
 -85.6137
 -85.611
 -85.5944
 -85.5951
 -85.5957
 -85.5977
 -85.6563
 -85.6558
 -85.6588
 -85.6572
 -85.6516
 -85.652
 -85.6541
 -85.6506
 -85.6542
 -85.6518
 -85.6514
 -85.6516
 -85.6211
 -85.6216
 -85.6233
 -85.6211
 -85.6045
 -85.6032
 -85.6012
 -85.6048
 -85.5791
 -85.5821
 -85.5818
 -85.579
 -85.6064
 -85.6064
 -85.6065
 -85.6102
 -85.6684
 -85.667
 -85.6692
 -85.6682
 -85.6417
 -85.636
 -85.639
 -85.5727
 -85.5746
 -85.5765
 -85.661
 -85.6643
 -85.6627
 -85.6627
 -85.6628
 -85.6594
 -85.661
 -85.662
 -85.6306
 -85.629
 -85.628
 -85.6347
 -85.6356
 -85.6379
 -85.6356
 -85.6056
 -85.6043
 -85.6039
 -85.604
 -85.6764
 -85.6757
 -85.6772
 -85.6767
 -85.6017
 -85.6012
 -85.6013
 -85.602
 -85.5977
 -85.5965
 -85.5978
 -85.6915
 -85.6937
 -85.6945
 -85.6931
 -85.6752
 -85.6766
 -85.6174
 -85.6162
 -85.6186
 -85.6182
 -85.6398
 -85.6426
 -85.6401
 -85.6348
 -85.6339
 -85.6343
 -85.6318
 -85.6027
 -85.605
 -85.6038
 -85.6747
 -85.676
 -85.6734
 -85.674
 -85.6019
 -85.6055
 -85.603
 -85.6022
 -85.6648
 -85.663
 -85.6617
 -85.6624
 -85.6025
 -85.6034
 -85.6052
 -85.6025
 -85.6043
 -85.6035
 -85.6148
 -85.6134
 -85.6141
 -85.6148
 -85.577
 -85.5757
 -85.573
 -85.5756
 -85.6692
 -85.6712
 -85.6237
 -85.6252
 -85.6257
 -85.6254
 -85.6916
 -85.691
 -85.6913
 -85.6921
 -85.6201
 -85.6182
 -85.6211
 -85.6233
 -85.6725
 -85.6746
 -85.6751
 -85.6749
 -85.6838
 -85.6858
 -85.6828
 -85.6851
 -85.6644
 -85.6619
 -85.6876
 -85.6889
 -85.6884
 -85.6879
 -85.6031
 -85.6032
 -85.6022
 -85.605
 -85.6878
 -85.6882
 -85.6883
 -85.6877
 -85.6933
 -85.695
 -85.6944
 -85.6933
 -85.6504
 -85.6505
 -85.6528
 -85.652
 -85.6351
 -85.6339
 -85.6368
 -85.6382
 -85.6812
 -85.6789
 -85.6805
 -85.6813
 -85.5694
 -85.5725
 -85.5701
 -85.569
 -85.68
 -85.6825
 -85.6228
 -85.6247
 -85.6248
 -85.6274
 -85.6802
 -85.6791
 -85.6775
 -85.6777
 -85.6062
 -85.6084
 -85.608
 -85.6077
 -85.6265
 -85.6226
 -85.624
 -85.626
 -85.6076
 -85.6067
 -85.6103
 -85.6052
 -85.604
 -85.6052
 -85.6033
 -85.6003
 -85.602
 -85.6014
 -85.6023
 -85.6523
 -85.6505
 -85.6499
 -85.6782
 -85.6783
 -85.6799
 -85.6799
 -85.6466
 -85.6453
 -85.6441
 -85.6056
 -85.6041
 -85.6053
 -85.6398
 -85.6431
 -85.6402
 -85.6424
 -85.6557
 -85.6554
 -85.6556
 -85.6583
 -85.6324
 -85.635
 -85.6354
 -85.6345
 -85.6311
 -85.6301
 -85.6291
 -85.6257
 -85.6242
 -85.6236
 -85.6268
 -85.6285
 -85.6298
 -85.6258
 -85.6789
 -85.6782
 -85.679
 -85.6772
 -85.661
 -85.6595
 -85.6609
 -85.6618
 -85.6358
 -85.6362
 -85.6349
 -85.6387
 -85.6004
 -85.5984
 -85.6002
 -85.6475
 -85.646
 -85.6472
 -85.6479
 -85.6157
 -85.6124
 -85.6142
 -85.6124
 -85.5586
 -85.5599
 -85.5582
 -85.5573
 -85.6273
 -85.6259
 -85.627
 -85.6268
 -85.6812
 -85.6806
 -85.6826
 -85.6819
 -85.6248
 -85.6274
 -85.6258
 -85.6243
 -85.6024
 -85.6024
 -85.603
 -85.6038
 -85.6043
 -85.603
 -85.6033
 -85.634
 -85.6346
 -85.6336
 -85.6572
 -85.624
 -85.6198
 -85.6225
 -85.6223
 -85.6842
 -85.684
 -85.685
 -85.6814
 -85.6818
 -85.6826
 -85.6232
 -85.6257
 -85.6238
 -85.6253
 -85.6928
 -85.6936
 -85.6941
 -85.694
 -85.6069
 -85.6513
 -85.6487
 -85.6503
 -85.6498
 -85.6063
 -85.6071
 -85.6068
 -85.6074
 -85.6832
 -85.6845
 -85.6822
 -85.6834
 -85.6589
 -85.6621
 -85.661
 -85.6595
 -85.6708
 -85.6722
 -85.6695
 -85.6701
 -85.6003
 -85.6011
 -85.6018
 -85.6004
 -85.6181
 -85.6202
 -85.6179
 -85.6183
 -85.6475
 -85.6459
 -85.6477
 -85.6452
 -85.6195
 -85.6166
 -85.6205
 -85.6177
 -85.6572
 -85.6582
 -85.6604
 -85.6599
 -85.6079
 -85.607
 -85.6094
 -85.6092
 -85.616
 -85.6167
 -85.619
 -85.618
 -85.6512
 -85.6515
 -85.6515
 -85.6538
 -85.6835
 -85.6854
 -85.6843
 -85.6856
 -85.5952
 -85.5964
 -85.5981
 -85.5977
 -85.5775
 -85.5737
 -85.5775
 -85.5769
 -85.6852
 -85.6869
 -85.686
 -85.6861
 -85.5815
 -85.5791
 -85.5811
 -85.5795
 -85.5788
 -85.5815
 -85.6406
 -85.6414
 -85.6394
 -85.6384
 -85.6174
 -85.6189
 -85.6189
 -85.6167
 -85.698
 -85.6981
 -85.6982
 -85.6975
 -85.6831
 -85.6829
 -85.685
 -85.6581
 -85.6579
 -85.6599
 -85.6573
 -85.6047
 -85.6053
 -85.6031
 -85.606
 -85.6158
 -85.6153
 -85.6147
 -85.6141
 -85.6157
 -85.617
 -85.6589
 -85.6627
 -85.6614
 -85.6598
 -85.6546
 -85.6544
 -85.6523
 -85.6551
 -85.6616
 -85.6612
 -85.6592
 -85.6615
 -85.6924
 -85.6925
 -85.6901
 -85.6932
 -85.6663
 -85.6662
 -85.6641
 -85.627
 -85.6443
 -85.6434
 -85.6441
 -85.6423
 -85.6459
 -85.643
 -85.6439
 -85.6453
 -85.6767
 -85.676
 -85.6758
 -85.6747
 -85.6667
 -85.6653
 -85.6656
 -85.6673
 -85.6535
 -85.6515
 -85.6512
 -85.6216
 -85.6194
 -85.6219
 -85.6182
 -85.6436
 -85.6474
 -85.6453
 -85.6454
 -85.6262
 -85.628
 -85.625
 -85.5465
 -85.5462
 -85.5444
 -85.5476
 -85.6775
 -85.6807
 -85.6793
 -85.6771
 -85.6742
 -85.6777
 -85.6758
 -85.5498
 -85.647
 -85.6473
 -85.6467
 -85.6494
 -85.6529
 -85.6533
 -85.5878
 -85.588
 -85.5876
 -85.5888
 -85.5978
 -85.5987
 -85.6018
 -85.5981
 -85.6115
 -85.613
 -85.612
 -85.6124
 -85.6101
 -85.6114
 -85.612
 -85.6096
 -85.6094
 -85.6111
 -85.6267
 -85.6244
 -85.6236
 -85.6238
 -85.6294
 -85.632
 -85.6984
 -85.6982
 -85.6031
 -85.607
 -85.6028
 -85.6052
 -85.6351
 -85.6343
 -85.6361
 -85.6331
 -85.5935
 -85.5945
 -85.5903
 -85.5913
 -85.6797
 -85.6808
 -85.6782
 -85.6793
 -85.6734
 -85.6716
 -85.6732
 -85.6715
 -85.6574
 -85.6592
 -85.6595
 -85.6582
 -85.6478
 -85.6484
 -85.6517
 -85.6506
 -85.6412
 -85.6403
 -85.6031
 -85.6645
 -85.6666
 -85.6665
 -85.6667
 -85.6903
 -85.6898
 -85.6919
 -85.6894
 -85.6753
 -85.6777
 -85.6748
 -85.6759
 -85.5245
 -85.5244
 -85.5249
 -85.5255
 -85.6908
 -85.6913
 -85.6907
 -85.6908
 -85.6121
 -85.6122
 -85.61
 -85.6132
 -85.6222
 -85.6195
 -85.6206
 -85.6185
 -85.6623
 -85.6626
 -85.6639
 -85.6643
 -85.6634
 -85.6626
 -85.6616
 -85.6622
 -85.605
 -85.608
 -85.6063
 -85.6074
 -85.6898
 -85.6903
 -85.6896
 -85.6899
 -85.6806
 -85.6815
 -85.6811
 -85.6821
 -85.6644
 -85.6647
 -85.6663
 -85.6665
 -85.6814
 -85.6799
 -85.6809
 -85.6812
 -85.616
 -85.6186
 -85.6187
 -85.6194
 -85.605
 -85.6055
 -85.6062
 -85.6067
 -85.6781
 -85.6769
 -85.6762
 -85.6766
 -85.6323
 -85.6315
 -85.631
 -85.6288
 -85.6352
 -85.6341
 -85.6335
 -85.635
 -85.5406
 -85.5427
 -85.5432
 -85.543
 -85.6897
 -85.6901
 -85.683
 -85.6831
 -85.6819
 -85.6842
 -85.5932
 -85.5912
 -85.5905
 -85.5934
 -85.6188
 -85.6155
 -85.6153
 -85.6144
 -85.6811
 -85.6799
 -85.6823
 -85.6824
 -85.6296
 -85.6304
 -85.6291
 -85.6318
 -85.6245
 -85.6252
 -85.6224
 -85.6227
 -85.6917
 -85.6922
 -85.6914
 -85.6912
 -85.6463
 -85.6455
 -85.6462
 -85.6472
 -85.6405
 -85.6412
 -85.6408
 -85.639
 -85.6716
 -85.6722
 -85.673
 -85.6714
 -85.6587
 -85.6579
 -85.6572
 -85.6558
 -85.6302
 -85.6302
 -85.6273
 -85.6192
 -85.6213
 -85.62
 -85.6238
 -85.5836
 -85.582
 -85.5821
 -85.5861
 -85.6221
 -85.6236
 -85.6241
 -85.6245
 -85.6439
 -85.6426
 -85.6435
 -85.6419
 -85.6908
 -85.6913
 -85.6912
 -85.6892
 -85.6237
 -85.6278
 -85.6257
 -85.6251
 -85.5935
 -85.5933
 -85.5912
 -85.5896
 -85.6627
 -85.665
 -85.6638
 -85.6623
 -85.6541
 -85.6535
 -85.6524
 -85.6436
 -85.6466
 -85.6474
 -85.6481
 -85.58
 -85.5796
 -85.5798
 -85.582
 -85.6477
 -85.6458
 -85.6464
 -85.6452
 -85.6888
 -85.6888
 -85.689
 -85.6891
 -85.6452
 -85.645
 -85.6459
 -85.6464
 -85.599
 -85.5977
 -85.5987
 -85.5993
 -85.6083
 -85.61
 -85.6082
 -85.6062
 -85.6986
 -85.6982
 -85.6986
 -85.6986
 -85.6158
 -85.6165
 -85.6161
 -85.6125
 -85.6535
 -85.6504
 -85.6511
 -85.6523
 -85.698
 -85.6983
 -85.6976
 -85.6973
 -85.684
 -85.6864
 -85.685
 -85.6634
 -85.6632
 -85.6659
 -85.6666
 -85.6787
 -85.6792
 -85.6813
 -85.6781
 -85.5588
 -85.5608
 -85.5626
 -85.5618
 -85.6078
 -85.6107
 -85.6064
 -85.6875
 -85.6892
 -85.6888
 -85.6892
 -85.6523
 -85.6514
 -85.6538
 -85.6506
 -85.6702
 -85.6696
 -85.6722
 -85.6682
 -85.5963
 -85.596
 -85.5939
 -85.593
 -85.6289
 -85.6321
 -85.6287
 -85.6307
 -85.6576
 -85.6539
 -85.6553
 -85.5904
 -85.591
 -85.592
 -85.592
 -85.607
 -85.6016
 -85.6028
 -85.602
 -85.6255
 -85.6882
 -85.6892
 -85.6884
 -85.6895
 -85.5628
 -85.5626
 -85.5602
 -85.5605
 -85.6706
 -85.6741
 -85.6725
 -85.6745
 -85.655
 -85.6534
 -85.6537
 -85.6514
 -85.5469
 -85.6755
 -85.6741
 -85.6765
 -85.6875
 -85.6895
 -85.6881
 -85.6883
 -85.6363
 -85.636
 -85.64
 -85.6374
 -85.6606
 -85.6606
 -85.6621
 -85.6595
 -85.6117
 -85.6095
 -85.641
 -85.6399
 -85.6396
 -85.642
 -85.6113
 -85.6097
 -85.6083
 -85.6102
 -85.6196
 -85.6186
 -85.6221
 -85.6223
 -85.6645
 -85.6629
 -85.6645
 -85.6649
 -85.5716
 -85.5712
 -85.571
 -85.5744
 -85.6053
 -85.6042
 -85.6051
 -85.6037
 -85.5772
 -85.5792
 -85.5978
 -85.598
 -85.5983
 -85.5979
 -85.5939
 -85.5922
 -85.5947
 -85.5926
 -85.6913
 -85.6905
 -85.6893
 -85.6892
 -85.6506
 -85.6504
 -85.6494
 -85.6528
 -85.628
 -85.6316
 -85.6297
 -85.6296
 -85.6438
 -85.6428
 -85.6422
 -85.6445
 -85.6899
 -85.6895
 -85.5897
 -85.5887
 -85.589
 -85.5898
 -85.6893
 -85.6899
 -85.6885
 -85.5665
 -85.566
 -85.5663
 -85.5651
 -85.6855
 -85.6832
 -85.6848
 -85.6838
 -85.6209
 -85.6192
 -85.6215
 -85.6189
 -85.6349
 -85.6347
 -85.6339
 -85.6881
 -85.6871
 -85.6875
 -85.6884
 -85.6501
 -85.6477
 -85.65
 -85.6486
 -85.6353
 -85.6368
 -85.6383
 -85.6363
 -85.6219
 -85.6206
 -85.6285
 -85.6238
 -85.6269
 -85.6255
 -85.6544
 -85.6518
 -85.6533
 -85.6914
 -85.6895
 -85.6891
 -85.6911
 -85.6341
 -85.6356
 -85.6338
 -85.6347
 -85.6292
 -85.6276
 -85.6179
 -85.6154
 -85.6147
 -85.6171
 -85.5724
 -85.573
 -85.5757
 -85.6501
 -85.6508
 -85.6477
 -85.6477
 -85.6904
 -85.6906
 -85.6906
 -85.5768
 -85.5759
 -85.577
 -85.6327
 -85.6309
 -85.632
 -85.6298
 -85.66
 -85.6602
 -85.6578
 -85.6586
 -85.5597
 -85.5583
 -85.5591
 -85.56
 -85.6796
 -85.6802
 -85.6792
 -85.6789
 -85.662
 -85.6606
 -85.6607
 -85.6597
 -85.675
 -85.6756
 -85.6743
 -85.6871
 -85.6875
 -85.6896
 -85.6882
 -85.6429
 -85.64
 -85.6426
 -85.6431
 -85.6872
 -85.6865
 -85.6862
 -85.6857
 -85.6221
 -85.6216
 -85.6232
 -85.6203
 -85.6909
 -85.6574
 -85.6398
 -85.6391
 -85.6412
 -85.6384
 -85.6544
 -85.6537
 -85.6521
 -85.6516
 -85.6673
 -85.6677
 -85.6663
 -85.6649
 -85.6557
 -85.655
 -85.6573
 -85.6562
 -85.6696
 -85.6683
 -85.67
 -85.6698
 -85.6397
 -85.6383
 -85.6388
 -85.6409
 -85.6357
 -85.6362
 -85.6367
 -85.6379
 -85.6287
 -85.6279
 -85.6272
 -85.6299
 -85.6368
 -85.6367
 -85.6345
 -85.6024
 -85.6028
 -85.6024
 -85.604
 -85.6427
 -85.6591
 -85.6616
 -85.6619
 -85.6611
 -85.6887
 -85.6888
 -85.6867
 -85.6179
 -85.6142
 -85.6154
 -85.6144
 -85.6453
 -85.6481
 -85.6471
 -85.6551
 -85.6543
 -85.6533
 -85.6525
 -85.6603
 -85.6614
 -85.6633
 -85.664
 -85.6827
 -85.6835
 -85.6849
 -85.6832
 -85.6101
 -85.6098
 -85.6112
 -85.6079
 -85.6452
 -85.6436
 -85.6436
 -85.6422
 -85.6373
 -85.6364
 -85.6346
 -85.6375
 -85.6354
 -85.6342
 -85.6336
 -85.632
 -85.6409
 -85.6402
 -85.6416
 -85.6389
 -85.6667
 -85.6632
 -85.6674
 -85.6648
 -85.6351
 -85.6316
 -85.633
 -85.6337
 -85.5892
 -85.5892
 -85.5891
 -85.5899
 -85.5816
 -85.583
 -85.5823
 -85.6405
 -85.6409
 -85.6427
 -85.6434
 -85.6415
 -85.642
 -85.6432
 -85.6442
 -85.6364
 -85.6341
 -85.6378
 -85.6377
 -85.6862
 -85.6866
 -85.6843
 -85.6845
 -85.6677
 -85.6659
 -85.6653
 -85.6674
 -85.6161
 -85.6176
 -85.6172
 -85.6178
 -85.5992
 -85.6024
 -85.6019
 -85.5979
 -85.6816
 -85.6807
 -85.6797
 -85.6815
 -85.5651
 -85.5626
 -85.5633
 -85.5664
 -85.6239
 -85.6263
 -85.625
 -85.6247
 -85.5954
 -85.5965
 -85.5963
 -85.6082
 -85.6097
 -85.61
 -85.612
 -85.6642
 -85.6638
 -85.6655
 -85.6619
 -85.6077
 -85.6049
 -85.6056
 -85.6071
 -85.5825
 -85.5881
 -85.5845
 -85.5594
 -85.5621
 -85.5635
 -85.562
 -85.6937
 -85.6942
 -85.6945
 -85.6956
 -85.6137
 -85.6121
 -85.6132
 -85.6144
 -85.6512
 -85.6481
 -85.6488
 -85.6504
 -85.6844
 -85.6837
 -85.6822
 -85.6835
 -85.6745
 -85.6764
 -85.6737
 -85.6745
 -85.6157
 -85.6164
 -85.6146
 -85.6156
 -85.5906
 -85.5877
 -85.5851
 -85.5883
 -85.6484
 -85.6497
 -85.6472
 -85.6485
 -85.5931
 -85.5958
 -85.6297
 -85.6257
 -85.6266
 -85.6287
 -85.6322
 -85.632
 -85.6305
 -85.633
 -85.6287
 -85.6289
 -85.6277
 -85.6007
 -85.6016
 -85.6007
 -85.6524
 -85.6524
 -85.6534
 -85.6539
 -85.6495
 -85.6491
 -85.6478
 -85.6513
 -85.6153
 -85.6178
 -85.6165
 -85.6156
 -85.6687
 -85.6705
 -85.6678
 -85.6686
 -85.6394
 -85.6364
 -85.638
 -85.6401
 -85.6009
 -85.6009
 -85.6005
 -85.6009
 -85.6258
 -85.628
 -85.626
 -85.6518
 -85.6515
 -85.6497
 -85.6511
 -85.6429
 -85.6445
 -85.6456
 -85.6929
 -85.6926
 -85.6922
 -85.6918
 -85.5781
 -85.5766
 -85.5785
 -85.5744
 -85.6228
 -85.6249
 -85.625
 -85.6232
 -85.6195
 -85.619
 -85.617
 -85.6197
 -85.6938
 -85.6935
 -85.6953
 -85.6963
 -85.6722
 -85.6733
 -85.673
 -85.6093
 -85.6092
 -85.6078
 -85.6095
 -85.6717
 -85.6694
 -85.6704
 -85.6136
 -85.6141
 -85.6123
 -85.6128
 -85.5355
 -85.5371
 -85.536
 -85.5375
 -85.6858
 -85.6862
 -85.6873
 -85.6851
 -85.6011
 -85.6004
 -85.5994
 -85.5976
 -85.6918
 -85.6914
 -85.6911
 -85.6914
 -85.607
 -85.6096
 -85.6074
 -85.6088
 -85.5378
 -85.5344
 -85.5369
 -85.5372
 -85.5862
 -85.5839
 -85.586
 -85.5869
 -85.6023
 -85.6039
 -85.6053
 -85.6019
 -85.6383
 -85.6352
 -85.5987
 -85.5992
 -85.5948
 -85.5953
 -85.6538
 -85.6521
 -85.6516
 -85.6503
 -85.6359
 -85.6358
 -85.635
 -85.6382
 -85.6839
 -85.682
 -85.6852
 -85.6854
 -85.6799
 -85.6791
 -85.6808
 -85.6808
 -85.6753
 -85.6735
 -85.6749
 -85.6735
 -85.6826
 -85.683
 -85.6834
 -85.6821
 -85.6601
 -85.6598
 -85.6616
 -85.6601
 -85.6764
 -85.6781
 -85.6777
 -85.6771
 -85.5806
 -85.5768
 -85.5765
 -85.5807
 -85.681
 -85.6821
 -85.6819
 -85.6816
 -85.6287
 -85.6266
 -85.6253
 -85.6264
 -85.6708
 -85.6678
 -85.6682
 -85.6802
 -85.6817
 -85.682
 -85.6812
 -85.6018
 -85.5992
 -85.599
 -85.6002
 -85.587
 -85.5864
 -85.5852
 -85.5856
 -85.6641
 -85.6639
 -85.6626
 -85.666
 -85.6304
 -85.6303
 -85.6297
 -85.6281
 -85.661
 -85.6599
 -85.6609
 -85.6604
 -85.6603
 -85.6601
 -85.664
 -85.6251
 -85.6245
 -85.6224
 -85.6586
 -85.6598
 -85.6461
 -85.6431
 -85.6911
 -85.6921
 -85.692
 -85.6911
 -85.643
 -85.6438
 -85.6423
 -85.6451
 -85.6584
 -85.6576
 -85.6605
 -85.6576
 -85.6513
 -85.6523
 -85.6512
 -85.6531
 -85.6764
 -85.6722
 -85.673
 -85.6716
 -85.6713
 -85.6327
 -85.6335
 -85.631
 -85.6311
 -85.5969
 -85.5969
 -85.5968
 -85.5969
 -85.6589
 -85.657
 -85.6593
 -85.6579
 -85.6616
 -85.6605
 -85.6597
 -85.6624
 -85.5444
 -85.5464
 -85.5473
 -85.5488
 -85.6403
 -85.6423
 -85.641
 -85.6396
 -85.6375
 -85.6354
 -85.6345
 -85.6364
 -85.6578
 -85.6561
 -85.6039
 -85.6043
 -85.6051
 -85.604
 -85.6211
 -85.6224
 -85.622
 -85.6207
 -85.607
 -85.606
 -85.6054
 -85.6057
 -85.6172
 -85.6189
 -85.6186
 -85.6168
 -85.606
 -85.6057
 -85.6049
 -85.6063
 -85.6733
 -85.6722
 -85.6728
 -85.6741
 -85.6808
 -85.6804
 -85.6786
 -85.6798
 -85.6143
 -85.6132
 -85.6118
 -85.6142
 -85.6402
 -85.6384
 -85.6402
 -85.6389
 -85.6754
 -85.6735
 -85.6751
 -85.6742
 -85.6319
 -85.6302
 -85.6304
 -85.6334
 -85.6138
 -85.6159
 -85.5915
 -85.5925
 -85.593
 -85.5911
 -85.6363
 -85.6356
 -85.6337
 -85.6328
 -85.676
 -85.6751
 -85.6753
 -85.6776
 -85.6896
 -85.6884
 -85.6887
 -85.6898
 -85.5513
 -85.5509
 -85.6279
 -85.6304
 -85.6307
 -85.6319
 -85.6246
 -85.621
 -85.6233
 -85.6233
 -85.6224
 -85.6218
 -85.6083
 -85.6092
 -85.6093
 -85.6098
 -85.6362
 -85.6385
 -85.6395
 -85.5805
 -85.5823
 -85.5824
 -85.5838
 -85.6812
 -85.6825
 -85.6798
 -85.6815
 -85.6891
 -85.6891
 -85.6889
 -85.6938
 -85.693
 -85.6915
 -85.6926
 -85.6497
 -85.6531
 -85.6521
 -85.6523
 -85.64
 -85.6431
 -85.6392
 -85.6418
 -85.6695
 -85.6723
 -85.6732
 -85.6717
 -85.6569
 -85.6564
 -85.6586
 -85.6566
 -85.6537
 -85.6558
 -85.6546
 -85.6444
 -85.6447
 -85.6436
 -85.6467
 -85.665
 -85.6691
 -85.6676
 -85.6653
 -85.6321
 -85.6304
 -85.6317
 -85.6322
 -85.6416
 -85.6411
 -85.6438
 -85.6404
 -85.6602
 -85.6597
 -85.6585
 -85.6603
 -85.6404
 -85.6391
 -85.6385
 -85.6409
 -85.5389
 -85.538
 -85.5413
 -85.5411
 -85.6108
 -85.6099
 -85.6096
 -85.6083
 -85.6649
 -85.6647
 -85.6672
 -85.6674
 -85.6068
 -85.607
 -85.6036
 -85.6028
 -85.6003
 -85.597
 -85.6004
 -85.6026
 -85.6772
 -85.6767
 -85.6779
 -85.6755
 -85.6744
 -85.6723
 -85.6743
 -85.6737
 -85.6822
 -85.6804
 -85.6819
 -85.6827
 -85.6677
 -85.6676
 -85.6696
 -85.6687
 -85.6279
 -85.6273
 -85.6257
 -85.6273
 -85.6114
 -85.6105
 -85.6125
 -85.6101
 -85.6612
 -85.6579
 -85.6614
 -85.6586
 -85.6123
 -85.6132
 -85.6134
 -85.6133
 -85.593
 -85.5937
 -85.5944
 -85.5953
 -85.6385
 -85.6405
 -85.6388
 -85.6405
 -85.6232
 -85.6215
 -85.6199
 -85.6248
 -85.6258
 -85.629
 -85.6266
 -85.5933
 -85.5918
 -85.5896
 -85.5917
 -85.6139
 -85.6134
 -85.6127
 -85.6129
 -85.6637
 -85.665
 -85.6639
 -85.6645
 -85.6431
 -85.6451
 -85.6457
 -85.6948
 -85.6934
 -85.6936
 -85.6943
 -85.6855
 -85.6871
 -85.6882
 -85.6865
 -85.6219
 -85.6238
 -85.6208
 -85.6237
 -85.6471
 -85.6489
 -85.5964
 -85.5961
 -85.5932
 -85.5974
 -85.643
 -85.6407
 -85.6398
 -85.6419
 -85.6816
 -85.6821
 -85.6804
 -85.682
 -85.6114
 -85.612
 -85.6127
 -85.6297
 -85.6304
 -85.6308
 -85.6276
 -85.6227
 -85.6258
 -85.6257
 -85.6252
 -85.6388
 -85.6409
 -85.6415
 -85.6386
 -85.6344
 -85.6358
 -85.6376
 -85.6356
 -85.642
 -85.6433
 -85.6415
 -85.644
 -85.6322
 -85.634
 -85.6715
 -85.67
 -85.6731
 -85.671
 -85.6337
 -85.6315
 -85.6324
 -85.6338
 -85.6534
 -85.6503
 -85.6518
 -85.6331
 -85.6354
 -85.6338
 -85.6351
 -85.6544
 -85.6532
 -85.652
 -85.6536
 -85.6076
 -85.6053
 -85.607
 -85.6039
 -85.6333
 -85.6328
 -85.6356
 -85.6482
 -85.6487
 -85.6512
 -85.6469
 -85.6374
 -85.6368
 -85.6385
 -85.6069
 -85.6075
 -85.6056
 -85.6558
 -85.6554
 -85.6551
 -85.6529
 -85.6385
 -85.6403
 -85.6407
 -85.5539
 -85.5547
 -85.5556
 -85.5514
 -85.6568
 -85.6551
 -85.6539
 -85.6571
 -85.6249
 -85.6224
 -85.6228
 -85.6219
 -85.6751
 -85.675
 -85.6758
 -85.6766
 -85.6795
 -85.6779
 -85.6804
 -85.6799
 -85.5999
 -85.6034
 -85.599
 -85.5997
 -85.6472
 -85.6455
 -85.644
 -85.617
 -85.6144
 -85.6163
 -85.6162
 -85.6787
 -85.6761
 -85.6777
 -85.6421
 -85.6443
 -85.6428
 -85.6447
 -85.6627
 -85.6636
 -85.6634
 -85.6628
 -85.6845
 -85.6849
 -85.6857
 -85.6843
 -85.5279
 -85.5263
 -85.5266
 -85.5279
 -85.6168
 -85.6174
 -85.6187
 -85.6165
 -85.6455
 -85.6496
 -85.6481
 -85.649
 -85.5892
 -85.5872
 -85.5861
 -85.6384
 -85.6404
 -85.64
 -85.6379
 -85.6868
 -85.6589
 -85.6571
 -85.6546
 -85.6571
 -85.6775
 -85.6774
 -85.6777
 -85.6785
 -85.6693
 -85.6687
 -85.6682
 -85.67
 -85.6471
 -85.6463
 -85.6425
 -85.6398
 -85.6401
 -85.6399
 -85.5573
 -85.5601
 -85.5576
 -85.559
 -85.6211
 -85.6202
 -85.6192
 -85.6174
 -85.6172
 -85.619
 -85.6177
 -85.6878
 -85.6901
 -85.6881
 -85.6877
 -85.6389
 -85.6388
 -85.6411
 -85.6413
 -85.6465
 -85.6455
 -85.6436
 -85.6452
 -85.6795
 -85.678
 -85.6805
 -85.6782
 -85.6409
 -85.6403
 -85.6431
 -85.6411
 -85.5781
 -85.5788
 -85.5762
 -85.5771
 -85.6365
 -85.6358
 -85.6374
 -85.6363
 -85.6158
 -85.6161
 -85.6165
 -85.6179
 -85.6107
 -85.6088
 -85.609
 -85.61
 -85.5967
 -85.5975
 -85.5966
 -85.5965
 -85.5732
 -85.5721
 -85.5714
 -85.5751
 -85.6928
 -85.6918
 -85.6922
 -85.6919
 -85.5639
 -85.5649
 -85.5621
 -85.566
 -85.6393
 -85.6376
 -85.6392
 -85.6372
 -85.6914
 -85.6915
 -85.6903
 -85.6907
 -85.6278
 -85.627
 -85.6286
 -85.629
 -85.5964
 -85.6833
 -85.6824
 -85.6827
 -85.6848
 -85.6063
 -85.5768
 -85.5803
 -85.5804
 -85.5772
 -85.6501
 -85.6531
 -85.6705
 -85.6681
 -85.6713
 -85.6687
 -85.6766
 -85.6765
 -85.6778
 -85.6775
 -85.6945
 -85.6932
 -85.695
 -85.6715
 -85.6739
 -85.6735
 -85.6732
 -85.6283
 -85.6893
 -85.6612
 -85.6608
 -85.6599
 -85.689
 -85.6899
 -85.6902
 -85.6896
 -85.6296
 -85.6292
 -85.6294
 -85.6276
 -85.6151
 -85.616
 -85.6137
 -85.613
 -85.6589
 -85.6574
 -85.6581
 -85.6613
 -85.6872
 -85.6883
 -85.6866
 -85.6862
 -85.6817
 -85.6812
 -85.682
 -85.681
 -85.6531
 -85.6566
 -85.6562
 -85.5704
 -85.5684
 -85.5743
 -85.5703
 -85.5309
 -85.534
 -85.5321
 -85.5336
 -85.5898
 -85.5866
 -85.5858
 -85.5878
 -85.6441
 -85.6462
 -85.6438
 -85.58
 -85.5823
 -85.5814
 -85.5797
 -85.6727
 -85.6721
 -85.6744
 -85.6745
 -85.6748
 -85.6736
 -85.6745
 -85.6063
 -85.6053
 -85.6628
 -85.664
 -85.6984
 -85.6975
 -85.6983
 -85.6929
 -85.6936
 -85.6933
 -85.694
 -85.6324
 -85.6306
 -85.6339
 -85.6324
 -85.6202
 -85.6197
 -85.6185
 -85.6214
 -85.6373
 -85.637
 -85.6395
 -85.6385
 -85.6909
 -85.6908
 -85.6912
 -85.6908
 -85.6633
 -85.6646
 -85.6639
 -85.6625
 -85.5956
 -85.5953
 -85.5955
 -85.5971
 -85.6635
 -85.6644
 -85.6628
 -85.6649
 -85.6482
 -85.6488
 -85.6464
 -85.6492
 -85.6599
 -85.6614
 -85.6612
 -85.5233
 -85.5238
 -85.5241
 -85.6189
 -85.6174
 -85.6297
 -85.6297
 -85.6279
 -85.6312
 -85.6696
 -85.6718
 -85.67
 -85.6696
 -85.6638
 -85.6644
 -85.6669
 -85.6654
 -85.6654
 -85.6643
 -85.6678
 -85.5575
 -85.5575
 -85.5948
 -85.5944
 -85.5958
 -85.595
 -85.6482
 -85.556
 -85.5532
 -85.5542
 -85.5546
 -85.6149
 -85.6176
 -85.6158
 -85.6153
 -85.6332
 -85.6319
 -85.5744
 -85.5793
 -85.5791
 -85.5764
 -85.6928
 -85.6944
 -85.6939
 -85.6931
 -85.6865
 -85.6872
 -85.6865
 -85.6885
 -85.6034
 -85.608
 -85.6044
 -85.6067
 -85.6182
 -85.6169
 -85.6215
 -85.6206
 -85.6195
 -85.6184
 -85.6196
 -85.6671
 -85.6685
 -85.6655
 -85.6671
 -85.5957
 -85.5979
 -85.5989
 -85.5992
 -85.6374
 -85.638
 -85.6371
 -85.6565
 -85.6572
 -85.658
 -85.6599
 -85.6181
 -85.6187
 -85.6201
 -85.6192
 -85.6091
 -85.6113
 -85.6129
 -85.6103
 -85.6112
 -85.6096
 -85.6101
 -85.612
 -85.6269
 -85.6278
 -85.6301
 -85.6279
 -85.6562
 -85.6547
 -85.6154
 -85.6157
 -85.6163
 -85.6143
 -85.6938
 -85.6914
 -85.6919
 -85.692
 -85.6077
 -85.6091
 -85.6079
 -85.6094
 -85.5853
 -85.5843
 -85.587
 -85.586
 -85.6487
 -85.6486
 -85.5676
 -85.5678
 -85.5657
 -85.5684
 -85.6227
 -85.6245
 -85.6216
 -85.6878
 -85.6875
 -85.6886
 -85.6886
 -85.5711
 -85.5697
 -85.5705
 -85.6096
 -85.6093
 -85.6113
 -85.6105
 -85.5745
 -85.6076
 -85.6066
 -85.607
 -85.6048
 -85.6408
 -85.6392
 -85.6413
 -85.6408
 -85.6299
 -85.6304
 -85.6317
 -85.6297
 -85.6894
 -85.6911
 -85.6448
 -85.6462
 -85.6456
 -85.6448
 -85.605
 -85.6019
 -85.6056
 -85.6016
 -85.6204
 -85.625
 -85.6224
 -85.6208
 -85.6825
 -85.6815
 -85.6815
 -85.6818
 -85.631
 -85.6322
 -85.6344
 -85.6334
 -85.6492
 -85.6759
 -85.6767
 -85.6751
 -85.6208
 -85.6215
 -85.6189
 -85.6221
 -85.6628
 -85.6621
 -85.663
 -85.6609
 -85.624
 -85.6218
 -85.6226
 -85.6248
 -85.6887
 -85.6874
 -85.6868
 -85.6881
 -85.6973
 -85.6979
 -85.6969
 -85.6102
 -85.6114
 -85.6136
 -85.6123
 -85.6542
 -85.655
 -85.6523
 -85.6534
 -85.6608
 -85.6616
 -85.6628
 -85.6637
 -85.6167
 -85.6171
 -85.6081
 -85.607
 -85.6063
 -85.6089
 -85.6264
 -85.6303
 -85.6504
 -85.6513
 -85.6501
 -85.6493
 -85.6553
 -85.6561
 -85.6579
 -85.6553
 -85.6276
 -85.6292
 -85.631
 -85.6296
 -85.648
 -85.6481
 -85.6483
 -85.6794
 -85.6774
 -85.6767
 -85.6778
 -85.6699
 -85.6691
 -85.6702
 -85.6277
 -85.6307
 -85.6269
 -85.6295
 -85.6108
 -85.6075
 -85.6062
 -85.6099
 -85.6619
 -85.6593
 -85.6595
 -85.661
 -85.6311
 -85.6307
 -85.6279
 -85.5996
 -85.5993
 -85.5996
 -85.5993
 -85.618
 -85.6178
 -85.6188
 -85.6196
 -85.6727
 -85.6717
 -85.6707
 -85.6941
 -85.6925
 -85.6928
 -85.6597
 -85.6608
 -85.661
 -85.6179
 -85.6157
 -85.6188
 -85.6169
 -85.6937
 -85.6939
 -85.6936
 -85.6944
 -85.6571
 -85.6557
 -85.6567
 -85.6584
 -85.6755
 -85.6763
 -85.6786
 -85.6784
 -85.6732
 -85.6743
 -85.6734
 -85.6736
 -85.5836
 -85.5808
 -85.5813
 -85.6265
 -85.6272
 -85.6256
 -85.6274
 -85.6758
 -85.6766
 -85.6749
 -85.675
 -85.6346
 -85.6356
 -85.6356
 -85.638
 -85.6637
 -85.6639
 -85.6635
 -85.6614
 -85.6836
 -85.6848
 -85.5951
 -85.5966
 -85.5965
 -85.5976
 -85.6685
 -85.6671
 -85.6702
 -85.6678
 -85.6279
 -85.6272
 -85.6262
 -85.6287
 -85.6606
 -85.6577
 -85.6914
 -85.6914
 -85.6899
 -85.6918
 -85.675
 -85.6774
 -85.6742
 -85.6782
 -85.6943
 -85.6946
 -85.6958
 -85.6962
 -85.6673
 -85.6673
 -85.6683
 -85.6606
 -85.6634
 -85.6631
 -85.6621
 -85.6624
 -85.661
 -85.6618
 -85.6595
 -85.6142
 -85.6148
 -85.6129
 -85.6121
 -85.5784
 -85.5772
 -85.5803
 -85.6394
 -85.6393
 -85.6397
 -85.6791
 -85.6772
 -85.6783
 -85.6768
 -85.6286
 -85.6302
 -85.6322
 -85.6303
 -85.6062
 -85.6031
 -85.604
 -85.6065
 -85.641
 -85.6387
 -85.6376
 -85.6377
 -85.6229
 -85.6263
 -85.6231
 -85.6919
 -85.6924
 -85.6906
 -85.6904
 -85.5972
 -85.5979
 -85.6052
 -85.6065
 -85.6066
 -85.6648
 -85.6654
 -85.6634
 -85.6669
 -85.6378
 -85.6408
 -85.6403
 -85.6398
 -85.6025
 -85.6029
 -85.6047
 -85.6029
 -85.6464
 -85.6422
 -85.6427
 -85.6449
 -85.622
 -85.6203
 -85.6232
 -85.6234
 -85.6819
 -85.6827
 -85.6852
 -85.6185
 -85.6183
 -85.62
 -85.6199
 -85.6461
 -85.6478
 -85.6008
 -85.6034
 -85.6025
 -85.6012
 -85.6044
 -85.6023
 -85.6034
 -85.6024
 -85.6836
 -85.6828
 -85.6086
 -85.6106
 -85.6095
 -85.6074
 -85.6419
 -85.6398
 -85.6408
 -85.6421
 -85.6253
 -85.5841
 -85.5817
 -85.5825
 -85.649
 -85.6484
 -85.6489
 -85.6471
 -85.6853
 -85.6854
 -85.6844
 -85.6862
 -85.5838
 -85.5848
 -85.5853
 -85.5827
 -85.6062
 -85.6078
 -85.6057
 -85.6062
 -85.6593
 -85.6603
 -85.6604
 -85.5872
 -85.5869
 -85.5889
 -85.5893
 -85.6941
 -85.6927
 -85.6934
 -85.6944
 -85.595
 -85.5963
 -85.5968
 -85.5941
 -85.6572
 -85.6551
 -85.6565
 -85.6585
 -85.6266
 -85.6284
 -85.6276
 -85.6261
 -85.6028
 -85.6035
 -85.6027
 -85.6224
 -85.625
 -85.6223
 -85.6244
 -85.6029
 -85.601
 -85.6022
 -85.6022
 -85.6069
 -85.6053
 -85.6061
 -85.6697
 -85.6678
 -85.6702
 -85.6668
 -85.665
 -85.6363
 -85.6411
 -85.6379
 -85.638
 -85.6879
 -85.6872
 -85.6862
 -85.6871
 -85.6497
 -85.6523
 -85.6484
 -85.6516
 -85.6563
 -85.658
 -85.6562
 -85.6557
 -85.6056
 -85.6048
 -85.6069
 -85.6086
 -85.6076
 -85.6562
 -85.6539
 -85.6553
 -85.657
 -85.6866
 -85.6887
 -85.6437
 -85.6445
 -85.6421
 -85.6449
 -85.6022
 -85.6018
 -85.6032
 -85.6815
 -85.6827
 -85.681
 -85.6817
 -85.6444
 -85.6412
 -85.6424
 -85.643
 -85.605
 -85.604
 -85.6052
 -85.6059
 -85.6375
 -85.6373
 -85.6406
 -85.6382
 -85.6549
 -85.6587
 -85.5918
 -85.5908
 -85.5913
 -85.5902
 -85.6067
 -85.611
 -85.6122
 -85.6111
 -85.613
 -85.6123
 -85.6114
 -85.6084
 -85.6091
 -85.6107
 -85.643
 -85.6424
 -85.6422
 -85.6521
 -85.6512
 -85.6503
 -85.6493
 -85.6141
 -85.6138
 -85.6143
 -85.6139
 -85.6282
 -85.6275
 -85.647
 -85.6455
 -85.6464
 -85.645
 -85.6473
 -85.6473
 -85.6378
 -85.6399
 -85.6406
 -85.6381
 -85.5659
 -85.5697
 -85.569
 -85.5702
 -85.6462
 -85.6029
 -85.6047
 -85.6034
 -85.603
 -85.6916
 -85.6927
 -85.6914
 -85.6656
 -85.6651
 -85.6636
 -85.6659
 -85.6362
 -85.6372
 -85.6362
 -85.6329
 -85.6443
 -85.6459
 -85.6431
 -85.6095
 -85.6112
 -85.6105
 -85.6093
 -85.6824
 -85.6838
 -85.681
 -85.683
 -85.6578
 -85.657
 -85.6588
 -85.658
 -85.6826
 -85.6833
 -85.6805
 -85.6821
 -85.5948
 -85.5947
 -85.5931
 -85.5932
 -85.613
 -85.6148
 -85.6692
 -85.6684
 -85.6674
 -85.6687
 -85.6865
 -85.6862
 -85.6866
 -85.6859
 -85.6974
 -85.6979
 -85.6969
 -85.6982
 -85.6845
 -85.6831
 -85.6843
 -85.6559
 -85.6581
 -85.6555
 -85.6572
 -85.6854
 -85.6862
 -85.6865
 -85.6862
 -85.5961
 -85.5981
 -85.5998
 -85.5977
 -85.6762
 -85.6778
 -85.678
 -85.657
 -85.6563
 -85.6556
 -85.6556
 -85.6025
 -85.6016
 -85.6025
 -85.6012
 -85.6596
 -85.6619
 -85.6606
 -85.6607
 -85.6502
 -85.6519
 -85.6528
 -85.6503
 -85.6148
 -85.6157
 -85.6174
 -85.6188
 -85.5939
 -85.5942
 -85.5918
 -85.5919
 -85.6307
 -85.6314
 -85.6334
 -85.6311
 -85.5601
 -85.5603
 -85.5646
 -85.562
 -85.6052
 -85.6067
 -85.6049
 -85.6103
 -85.6078
 -85.6077
 -85.6071
 -85.5485
 -85.5492
 -85.5464
 -85.5501
 -85.6814
 -85.6802
 -85.6804
 -85.6734
 -85.6737
 -85.6755
 -85.6751
 -85.6118
 -85.6157
 -85.6145
 -85.5796
 -85.5807
 -85.5793
 -85.5926
 -85.5909
 -85.593
 -85.5932
 -85.6143
 -85.6141
 -85.6158
 -85.6125
 -85.6573
 -85.6606
 -85.6591
 -85.6586
 -85.5671
 -85.5667
 -85.5683
 -85.5655
 -85.6525
 -85.6489
 -85.6487
 -85.6518
 -85.6729
 -85.6738
 -85.6713
 -85.6728
 -85.6477
 -85.6476
 -85.6511
 -85.6494
 -85.6329
 -85.6311
 -85.6344
 -85.6041
 -85.604
 -85.604
 -85.6052
 -85.6835
 -85.6848
 -85.6853
 -85.6845
 -85.6765
 -85.6778
 -85.6763
 -85.6751
 -85.6138
 -85.6157
 -85.6145
 -85.6127
 -85.687
 -85.6879
 -85.6887
 -85.6862
 -85.6886
 -85.687
 -85.6871
 -85.6883
 -85.6884
 -85.687
 -85.6877
 -85.574
 -85.5734
 -85.5491
 -85.5497
 -85.5483
 -85.5515
 -85.6538
 -85.6528
 -85.6512
 -85.6367
 -85.6352
 -85.6387
 -85.6356
 -85.6418
 -85.6444
 -85.6436
 -85.6421
 -85.5252
 -85.6294
 -85.6515
 -85.6537
 -85.6762
 -85.6773
 -85.6768
 -85.6767
 -85.5798
 -85.623
 -85.625
 -85.623
 -85.6987
 -85.6981
 -85.6982
 -85.6981
 -85.6423
 -85.6406
 -85.6425
 -85.6444
 -85.6884
 -85.6874
 -85.6887
 -85.6869
 -85.6322
 -85.6349
 -85.6301
 -85.6256
 -85.6285
 -85.6267
 -85.6822
 -85.6825
 -85.6807
 -85.6825
 -85.6527
 -85.6512
 -85.6497
 -85.6488
 -85.5972
 -85.5956
 -85.5985
 -85.598
 -85.6741
 -85.6775
 -85.6763
 -85.6889
 -85.691
 -85.6911
 -85.6889
 -85.675
 -85.6744
 -85.6732
 -85.6744
 -85.6123
 -85.6121
 -85.6164
 -85.6119
 -85.618
 -85.6164
 -85.6167
 -85.6167
 -85.6825
 -85.6836
 -85.6835
 -85.6836
 -85.6288
 -85.6292
 -85.6267
 -85.6705
 -85.6706
 -85.67
 -85.6688
 -85.6008
 -85.603
 -85.5996
 -85.6001
 -85.655
 -85.6561
 -85.6531
 -85.6543
 -85.6
 -85.6017
 -85.6001
 -85.6
 -85.6462
 -85.6475
 -85.6454
 -85.647
 -85.6725
 -85.6725
 -85.6742
 -85.6712
 -85.5952
 -85.5944
 -85.5962
 -85.6431
 -85.6452
 -85.6791
 -85.6783
 -85.678
 -85.6769
 -85.6284
 -85.6268
 -85.6266
 -85.5974
 -85.5957
 -85.595
 -85.5959
 -85.6613
 -85.6621
 -85.6611
 -85.6629
 -85.6551
 -85.6549
 -85.6584
 -85.6558
 -85.5351
 -85.5352
 -85.538
 -85.536
 -85.6409
 -85.6381
 -85.6397
 -85.5582
 -85.5605
 -85.5613
 -85.6419
 -85.641
 -85.6394
 -85.6412
 -85.6386
 -85.5943
 -85.5953
 -85.5912
 -85.5928
 -85.633
 -85.6356
 -85.636
 -85.6765
 -85.6765
 -85.6765
 -85.6756
 -85.6353
 -85.6365
 -85.6378
 -85.6378
 -85.6388
 -85.6382
 -85.6379
 -85.6968
 -85.6964
 -85.696
 -85.6951
 -85.6076
 -85.6124
 -85.6113
 -85.6099
 -85.5912
 -85.5912
 -85.5923
 -85.5923
 -85.6245
 -85.6239
 -85.6271
 -85.6247
 -85.6802
 -85.6805
 -85.6811
 -85.6788
 -85.5335
 -85.5357
 -85.5334
 -85.5369
 -85.6707
 -85.6684
 -85.6697
 -85.6698
 -85.5901
 -85.5886
 -85.5901
 -85.5896
 -85.6763
 -85.672
 -85.6734
 -85.6753
 -85.6688
 -85.6677
 -85.6666
 -85.6679
 -85.6709
 -85.6717
 -85.6135
 -85.6118
 -85.6116
 -85.6131
 -85.6841
 -85.6843
 -85.6843
 -85.6671
 -85.6644
 -85.6654
 -85.6676
 -85.6097
 -85.6119
 -85.6105
 -85.6085
 -85.6222
 -85.6214
 -85.6242
 -85.5234
 -85.5235
 -85.5226
 -85.5234
 -85.6377
 -85.635
 -85.6384
 -85.6845
 -85.6857
 -85.6841
 -85.6836
 -85.6721
 -85.6706
 -85.6811
 -85.6831
 -85.684
 -85.6821
 -85.6634
 -85.6637
 -85.5861
 -85.5864
 -85.5837
 -85.5881
 -85.6703
 -85.6701
 -85.6703
 -85.6682
 -85.6416
 -85.6428
 -85.622
 -85.6234
 -85.6226
 -85.6219
 -85.675
 -85.6761
 -85.6765
 -85.676
 -85.6146
 -85.6106
 -85.611
 -85.6139
 -85.6828
 -85.6828
 -85.6845
 -85.6864
 -85.6496
 -85.6501
 -85.6477
 -85.5857
 -85.5846
 -85.5841
 -85.5855
 -85.657
 -85.6568
 -85.656
 -85.6545
 -85.6077
 -85.6053
 -85.605
 -85.6036
 -85.6106
 -85.6075
 -85.6097
 -85.531
 -85.5306
 -85.5311
 -85.5324
 -85.5938
 -85.5968
 -85.5975
 -85.5947
 -85.6717
 -85.6708
 -85.6728
 -85.6707
 -85.6388
 -85.6397
 -85.6371
 -85.625
 -85.6036
 -85.6049
 -85.604
 -85.6052
 -85.629
 -85.6269
 -85.6286
 -85.6297
 -85.6647
 -85.6679
 -85.6682
 -85.6653
 -85.6001
 -85.6002
 -85.6045
 -85.5805
 -85.6489
 -85.6498
 -85.6473
 -85.651
 -85.6044
 -85.6072
 -85.5539
 -85.5514
 -85.6028
 -85.6047
 -85.603
 -85.6005
 -85.6643
 -85.6659
 -85.679
 -85.6789
 -85.6795
 -85.6786
 -85.622
 -85.6241
 -85.6242
 -85.6242
 -85.69
 -85.6905
 -85.6915
 -85.6905
 -85.6197
 -85.6203
 -85.6156
 -85.6156
 -85.6697
 -85.6701
 -85.6686
 -85.6667
 -85.6107
 -85.6108
 -85.612
 -85.6119
 -85.6694
 -85.6704
 -85.6679
 -85.6695
 -85.6291
 -85.6318
 -85.6859
 -85.6853
 -85.6622
 -85.664
 -85.6617
 -85.6643
 -85.6608
 -85.6599
 -85.6602
 -85.6626
 -85.6457
 -85.6446
 -85.6466
 -85.6464
 -85.669
 -85.6669
 -85.6698
 -85.6709
 -85.6096
 -85.6074
 -85.6086
 -85.6085
 -85.6849
 -85.6845
 -85.6843
 -85.6866
 -85.6876
 -85.6861
 -85.6871
 -85.6001
 -85.6026
 -85.6025
 -85.6014
 -85.6626
 -85.6602
 -85.6605
 -85.6617
 -85.5971
 -85.5998
 -85.5998
 -85.6022
 -85.644
 -85.6354
 -85.6386
 -85.6387
 -85.6357
 -85.6754
 -85.6755
 -85.6753
 -85.6735
 -85.5623
 -85.56
 -85.5615
 -85.5642
 -85.6615
 -85.6627
 -85.6642
 -85.6623
 -85.6406
 -85.6428
 -85.6381
 -85.64
 -85.667
 -85.6654
 -85.6651
 -85.6648
 -85.6574
 -85.6967
 -85.6963
 -85.6947
 -85.6954
 -85.6713
 -85.6717
 -85.6691
 -85.6695
 -85.5522
 -85.5533
 -85.5553
 -85.5519
 -85.6294
 -85.627
 -85.6259
 -85.6279
 -85.6168
 -85.6423
 -85.6426
 -85.6432
 -85.6451
 -85.6825
 -85.6826
 -85.6809
 -85.68
 -85.6767
 -85.6764
 -85.6786
 -85.682
 -85.6787
 -85.6803
 -85.6796
 -85.5342
 -85.5352
 -85.6691
 -85.6683
 -85.6681
 -85.6144
 -85.6143
 -85.6137
 -85.6163
 -85.665
 -85.664
 -85.665
 -85.6632
 -85.6456
 -85.6614
 -85.6592
 -85.6615
 -85.6609
 -85.6858
 -85.6826
 -85.6837
 -85.6855
 -85.6606
 -85.6621
 -85.6644
 -85.6609
 -85.628
 -85.629
 -85.6254
 -85.6308
 -85.6021
 -85.6025
 -85.6015
 -85.6029
 -85.6949
 -85.6933
 -85.695
 -85.6945
 -85.6653
 -85.6646
 -85.666
 -85.6637
 -85.6934
 -85.6929
 -85.6931
 -85.6941
 -85.6151
 -85.6115
 -85.6151
 -85.6156
 -85.6442
 -85.643
 -85.6856
 -85.6878
 -85.6856
 -85.6866
 -85.645
 -85.6454
 -85.6453
 -85.6477
 -85.6371
 -85.6393
 -85.6447
 -85.6452
 -85.6472
 -85.6446
 -85.6779
 -85.6779
 -85.6772
 -85.6794
 -85.6214
 -85.6185
 -85.6173
 -85.6198
 -85.5824
 -85.5844
 -85.5826
 -85.5825
 -85.5969
 -85.5958
 -85.596
 -85.5956
 -85.6185
 -85.6202
 -85.6205
 -85.6182
 -85.6303
 -85.6271
 -85.6293
 -85.6348
 -85.6313
 -85.6332
 -85.6338
 -85.6428
 -85.6416
 -85.6405
 -85.6426
 -85.5818
 -85.5816
 -85.5826
 -85.6265
 -85.6245
 -85.6276
 -85.627
 -85.6466
 -85.6487
 -85.6485
 -85.6457
 -85.6117
 -85.6088
 -85.6124
 -85.609
 -85.62
 -85.6219
 -85.6217
 -85.6213
 -85.6488
 -85.6486
 -85.6502
 -85.6518
 -85.6415
 -85.6393
 -85.6411
 -85.6406
 -85.6628
 -85.6618
 -85.6624
 -85.6615
 -85.5949
 -85.5956
 -85.5963
 -85.6744
 -85.6732
 -85.6756
 -85.6738
 -85.6122
 -85.6146
 -85.6126
 -85.611
 -85.6311
 -85.6301
 -85.6288
 -85.632
 -85.635
 -85.6372
 -85.6377
 -85.6525
 -85.6526
 -85.6534
 -85.6549
 -85.6598
 -85.6598
 -85.6614
 -85.6587
 -85.6621
 -85.663
 -85.6644
 -85.6787
 -85.6792
 -85.6796
 -85.6597
 -85.6587
 -85.6572
 -85.6584
 -85.6787
 -85.6795
 -85.6774
 -85.6842
 -85.6843
 -85.684
 -85.6826
 -85.6361
 -85.6317
 -85.6345
 -85.633
 -85.6155
 -85.6139
 -85.6166
 -85.6146
 -85.6076
 -85.6786
 -85.6779
 -85.6807
 -85.6777
 -85.6791
 -85.6758
 -85.529
 -85.528
 -85.5292
 -85.5305
 -85.6697
 -85.6681
 -85.6303
 -85.6293
 -85.632
 -85.6932
 -85.6943
 -85.6535
 -85.6504
 -85.6514
 -85.6522
 -85.6288
 -85.63
 -85.6301
 -85.6705
 -85.674
 -85.6723
 -85.6732
 -85.617
 -85.6178
 -85.6161
 -85.6191
 -85.5457
 -85.5481
 -85.5474
 -85.5448
 -85.6509
 -85.6513
 -85.6507
 -85.6531
 -85.6766
 -85.68
 -85.677
 -85.6728
 -85.6723
 -85.6731
 -85.6715
 -85.6102
 -85.6071
 -85.6071
 -85.6057
 -85.6136
 -85.6154
 -85.6005
 -85.6026
 -85.5996
 -85.6925
 -85.6912
 -85.6752
 -85.6731
 -85.6752
 -85.6731
 -85.6437
 -85.6466
 -85.6458
 -85.6691
 -85.6669
 -85.6709
 -85.6705
 -85.612
 -85.6079
 -85.6087
 -85.6107
 -85.6393
 -85.6389
 -85.6413
 -85.6418
 -85.6386
 -85.6401
 -85.6407
 -85.6388
 -85.607
 -85.6081
 -85.6065
 -85.6147
 -85.6131
 -85.6144
 -85.614
 -85.6973
 -85.6982
 -85.6976
 -85.6988
 -85.5895
 -85.5861
 -85.6831
 -85.6844
 -85.6841
 -85.683
 -85.6327
 -85.6351
 -85.634
 -85.6327
 -85.6472
 -85.6488
 -85.6487
 -85.6491
 -85.5966
 -85.5981
 -85.6414
 -85.6397
 -85.6397
 -85.6381
 -85.6307
 -85.6297
 -85.629
 -85.6315
 -85.6767
 -85.6765
 -85.6758
 -85.677
 -85.6354
 -85.6375
 -85.6377
 -85.6347
 -85.6159
 -85.6162
 -85.6556
 -85.6557
 -85.6544
 -85.656
 -85.665
 -85.6645
 -85.6661
 -85.644
 -85.6464
 -85.6455
 -85.6469
 -85.6047
 -85.6062
 -85.604
 -85.6075
 -85.5442
 -85.5471
 -85.5465
 -85.5436
 -85.6371
 -85.636
 -85.6383
 -85.6406
 -85.6489
 -85.6515
 -85.6492
 -85.6492
 -85.6279
 -85.6293
 -85.6266
 -85.6271
 -85.6173
 -85.6159
 -85.6178
 -85.619
 -85.6775
 -85.6789
 -85.6554
 -85.6543
 -85.6532
 -85.5678
 -85.5667
 -85.565
 -85.5685
 -85.6088
 -85.607
 -85.6096
 -85.6057
 -85.6448
 -85.6452
 -85.6443
 -85.643
 -85.6775
 -85.6781
 -85.678
 -85.6328
 -85.6316
 -85.6289
 -85.6289
 -85.614
 -85.6172
 -85.6159
 -85.6139
 -85.6671
 -85.6644
 -85.6644
 -85.6658
 -85.6523
 -85.6516
 -85.6507
 -85.6508
 -85.6721
 -85.6724
 -85.6722
 -85.671
 -85.6711
 -85.6714
 -85.671
 -85.6253
 -85.6261
 -85.6239
 -85.6231
 -85.6354
 -85.6341
 -85.6364
 -85.5497
 -85.5504
 -85.55
 -85.5484
 -85.6159
 -85.6161
 -85.5877
 -85.5859
 -85.5887
 -85.5904
 -85.6065
 -85.5982
 -85.6806
 -85.617
 -85.6146
 -85.6162
 -85.6136
 -85.6949
 -85.6552
 -85.6538
 -85.6551
 -85.6524
 -85.616
 -85.6177
 -85.6166
 -85.6262
 -85.6285
 -85.6285
 -85.6739
 -85.6744
 -85.672
 -85.6742
 -85.6747
 -85.6737
 -85.675
 -85.6736
 -85.602
 -85.5987
 -85.5987
 -85.6009
 -85.6878
 -85.6879
 -85.689
 -85.6869
 -85.6394
 -85.6375
 -85.6352
 -85.6741
 -85.6752
 -85.6748
 -85.6476
 -85.6454
 -85.6462
 -85.648
 -85.6171
 -85.6185
 -85.6157
 -85.6164
 -85.6492
 -85.6524
 -85.649
 -85.6204
 -85.6216
 -85.6215
 -85.6191
 -85.6326
 -85.6358
 -85.6755
 -85.6769
 -85.6774
 -85.6789
 -85.6808
 -85.6829
 -85.6816
 -85.6812
 -85.6055
 -85.608
 -85.6048
 -85.6074
 -85.665
 -85.6622
 -85.6638
 -85.6657
 -85.6536
 -85.6502
 -85.6528
 -85.6548
 -85.6287
 -85.6265
 -85.63
 -85.6281
 -85.6784
 -85.6774
 -85.6769
 -85.6758
 -85.6335
 -85.631
 -85.635
 -85.6337
 -85.6399
 -85.6387
 -85.6385
 -85.642
 -85.6326
 -85.631
 -85.6331
 -85.6334
 -85.6092
 -85.612
 -85.6025
 -85.6042
 -85.606
 -85.6028
 -85.5827
 -85.579
 -85.5821
 -85.583
 -85.6544
 -85.6541
 -85.6534
 -85.6561
 -85.6498
 -85.648
 -85.6476
 -85.6897
 -85.69
 -85.6901
 -85.69
 -85.692
 -85.6931
 -85.6914
 -85.6832
 -85.6841
 -85.6818
 -85.6481
 -85.6508
 -85.6521
 -85.6489
 -85.6615
 -85.6625
 -85.6637
 -85.6602
 -85.6755
 -85.677
 -85.6761
 -85.6773
 -85.6185
 -85.6161
 -85.6167
 -85.6181
 -85.59
 -85.5918
 -85.5932
 -85.5932
 -85.6937
 -85.6941
 -85.6924
 -85.6951
 -85.6127
 -85.6119
 -85.6105
 -85.613
 -85.6444
 -85.6441
 -85.6454
 -85.6436
 -85.6947
 -85.6946
 -85.6928
 -85.6958
 -85.6552
 -85.6529
 -85.656
 -85.6551
 -85.6311
 -85.6301
 -85.6314
 -85.6302
 -85.6142
 -85.6123
 -85.6127
 -85.5982
 -85.601
 -85.5993
 -85.5978
 -85.6069
 -85.6063
 -85.6074
 -85.6059
 -85.6037
 -85.6034
 -85.6109
 -85.6124
 -85.6079
 -85.6711
 -85.6697
 -85.6696
 -85.6692
 -85.6883
 -85.6876
 -85.6878
 -85.6877
 -85.6596
 -85.6586
 -85.6596
 -85.6567
 -85.6341
 -85.6791
 -85.6799
 -85.6798
 -85.6784
 -85.6003
 -85.6003
 -85.6
 -85.5998
 -85.6897
 -85.6904
 -85.6894
 -85.6914
 -85.6232
 -85.6218
 -85.6251
 -85.6647
 -85.5985
 -85.5983
 -85.5963
 -85.6093
 -85.6077
 -85.6061
 -85.6101
 -85.643
 -85.6428
 -85.6394
 -85.642
 -85.6685
 -85.6685
 -85.667
 -85.6701
 -85.6341
 -85.6644
 -85.6632
 -85.6631
 -85.6355
 -85.6353
 -85.6357
 -85.6381
 -85.6207
 -85.6213
 -85.6196
 -85.6194
 -85.6264
 -85.6237
 -85.6256
 -85.6264
 -85.6653
 -85.6122
 -85.6127
 -85.6137
 -85.6703
 -85.669
 -85.6711
 -85.6697
 -85.6783
 -85.6777
 -85.6799
 -85.677
 -85.6867
 -85.6876
 -85.6865
 -85.6194
 -85.6196
 -85.618
 -85.6195
 -85.5929
 -85.5915
 -85.5929
 -85.6735
 -85.6735
 -85.6773
 -85.6766
 -85.6757
 -85.6756
 -85.6349
 -85.6359
 -85.6371
 -85.691
 -85.6908
 -85.6919
 -85.6907
 -85.6777
 -85.6772
 -85.678
 -85.6785
 -85.6571
 -85.6575
 -85.6586
 -85.6593
 -85.6458
 -85.6466
 -85.6451
 -85.6431
 -85.6142
 -85.614
 -85.6132
 -85.615
 -85.6769
 -85.6769
 -85.6758
 -85.6782
 -85.6211
 -85.6219
 -85.6187
 -85.6278
 -85.6297
 -85.6304
 -85.6306
 -85.6873
 -85.6868
 -85.6889
 -85.688
 -85.6633
 -85.6634
 -85.663
 -85.6619
 -85.692
 -85.6911
 -85.6897
 -85.6916
 -85.625
 -85.6265
 -85.6276
 -85.6273
 -85.6447
 -85.6452
 -85.643
 -85.647
 -85.6818
 -85.6814
 -85.6827
 -85.682
 -85.6423
 -85.6442
 -85.6412
 -85.6418
 -85.6923
 -85.6934
 -85.6923
 -85.6176
 -85.6166
 -85.6165
 -85.6169
 -85.6498
 -85.6498
 -85.6487
 -85.6475
 -85.6547
 -85.6566
 -85.6548
 -85.6554
 -85.639
 -85.6378
 -85.6415
 -85.6387
 -85.6783
 -85.6784
 -85.6804
 -85.6788
 -85.6376
 -85.6349
 -85.6365
 -85.6359
 -85.6545
 -85.6539
 -85.6539
 -85.6529
 -85.5993
 -85.5993
 -85.599
 -85.5993
 -85.6731
 -85.6734
 -85.6718
 -85.6708
 -85.5962
 -85.596
 -85.5961
 -85.6143
 -85.6131
 -85.6131
 -85.6145
 -85.6032
 -85.6046
 -85.6092
 -85.6053
 -85.6671
 -85.6667
 -85.6679
 -85.6691
 -85.6597
 -85.6623
 -85.66
 -85.6607
 -85.6226
 -85.6202
 -85.6206
 -85.619
 -85.6964
 -85.6956
 -85.6947
 -85.5509
 -85.5502
 -85.6537
 -85.6552
 -85.6525
 -85.6539
 -85.5744
 -85.5712
 -85.568
 -85.5707
 -85.6594
 -85.6601
 -85.6623
 -85.661
 -85.6287
 -85.6222
 -85.621
 -85.6205
 -85.619
 -85.6697
 -85.67
 -85.6705
 -85.6713
 -85.6829
 -85.6817
 -85.6839
 -85.6824
 -85.5992
 -85.5992
 -85.664
 -85.6651
 -85.6681
 -85.6649
 -85.6487
 -85.6446
 -85.6494
 -85.6471
 -85.6128
 -85.6127
 -85.6114
 -85.6161
 -85.6376
 -85.6352
 -85.6349
 -85.6376
 -85.6754
 -85.6733
 -85.6778
 -85.689
 -85.6885
 -85.6886
 -85.6884
 -85.694
 -85.694
 -85.6946
 -85.6233
 -85.6221
 -85.6224
 -85.6241
 -85.6833
 -85.6824
 -85.6816
 -85.6816
 -85.6046
 -85.603
 -85.6036
 -85.6039
 -85.6589
 -85.6578
 -85.6592
 -85.6562
 -85.6487
 -85.6514
 -85.6492
 -85.6492
 -85.6887
 -85.6888
 -85.6885
 -85.6896
 -85.6622
 -85.663
 -85.6618
 -85.6604
 -85.5659
 -85.5644
 -85.5639
 -85.5661
 -85.6338
 -85.6298
 -85.6333
 -85.6311
 -85.6225
 -85.6252
 -85.6255
 -85.622
 -85.668
 -85.6685
 -85.6667
 -85.6657
 -85.607
 -85.6056
 -85.605
 -85.6051
 -85.6526
 -85.6509
 -85.6507
 -85.6533
 -85.6186
 -85.6175
 -85.6164
 -85.5887
 -85.5873
 -85.5869
 -85.5865
 -85.6524
 -85.6546
 -85.6515
 -85.6574
 -85.6572
 -85.6562
 -85.6121
 -85.6104
 -85.6087
 -85.6051
 -85.6049
 -85.6059
 -85.6068
 -85.6823
 -85.5263
 -85.5274
 -85.5269
 -85.5252
 -85.6778
 -85.6769
 -85.6791
 -85.6776
 -85.5988
 -85.6268
 -85.6263
 -85.6261
 -85.6286
 -85.6227
 -85.6208
 -85.6258
 -85.609
 -85.6125
 -85.6108
 -85.6098
 -85.5696
 -85.5692
 -85.5712
 -85.5671
 -85.6041
 -85.6057
 -85.6053
 -85.6464
 -85.6453
 -85.6452
 -85.6233
 -85.6224
 -85.6979
 -85.6965
 -85.6964
 -85.6034
 -85.6058
 -85.6027
 -85.6246
 -85.6264
 -85.6274
 -85.6831
 -85.6847
 -85.6847
 -85.6697
 -85.6698
 -85.6714
 -85.6701
 -85.6126
 -85.6136
 -85.6147
 -85.5958
 -85.5935
 -85.6883
 -85.6874
 -85.6892
 -85.6887
 -85.578
 -85.5792
 -85.5755
 -85.581
 -85.603
 -85.6022
 -85.5437
 -85.5416
 -85.5582
 -85.5577
 -85.5587
 -85.6261
 -85.6281
 -85.6253
 -85.6868
 -85.6852
 -85.6839
 -85.6632
 -85.663
 -85.6648
 -85.6152
 -85.6152
 -85.6176
 -85.6189
 -85.6167
 -85.6809
 -85.5952
 -85.5951
 -85.5961
 -85.5962
 -85.6236
 -85.6277
 -85.6245
 -85.6252
 -85.6679
 -85.6679
 -85.6693
 -85.6624
 -85.6628
 -85.6614
 -85.662
 -85.6263
 -85.6252
 -85.6276
 -85.6296
 -85.6654
 -85.6658
 -85.668
 -85.6677
 -85.6706
 -85.6693
 -85.6703
 -85.6721
 -85.6396
 -85.6644
 -85.6656
 -85.6656
 -85.6665
 -85.6915
 -85.6923
 -85.6913
 -85.6907
 -85.6082
 -85.604
 -85.6031
 -85.6058
 -85.6887
 -85.6902
 -85.6895
 -85.6892
 -85.5409
 -85.5427
 -85.5403
 -85.6864
 -85.6854
 -85.6879
 -85.6874
 -85.6095
 -85.6091
 -85.6067
 -85.6068
 -85.6743
 -85.6725
 -85.6739
 -85.6753
 -85.6036
 -85.6038
 -85.5985
 -85.5997
 -85.6915
 -85.6741
 -85.6717
 -85.673
 -85.6711
 -85.6823
 -85.6835
 -85.6833
 -85.5955
 -85.5967
 -85.595
 -85.5942
 -85.6665
 -85.6652
 -85.665
 -85.6638
 -85.652
 -85.6544
 -85.6545
 -85.6534
 -85.6483
 -85.6494
 -85.647
 -85.6465
 -85.6961
 -85.6947
 -85.63
 -85.6301
 -85.6297
 -85.6263
 -85.6285
 -85.6295
 -85.6304
 -85.6653
 -85.6637
 -85.6669
 -85.6676
 -85.6634
 -85.6642
 -85.664
 -85.6659
 -85.6535
 -85.6543
 -85.6554
 -85.6528
 -85.6114
 -85.6111
 -85.6185
 -85.6171
 -85.6169
 -85.6249
 -85.6266
 -85.6266
 -85.6269
 -85.5899
 -85.5878
 -85.5887
 -85.5884
 -85.6239
 -85.6216
 -85.6197
 -85.5691
 -85.5691
 -85.5717
 -85.6239
 -85.6239
 -85.6219
 -85.6256
 -85.61
 -85.6127
 -85.6086
 -85.6381
 -85.6667
 -85.6655
 -85.6682
 -85.6299
 -85.6295
 -85.6312
 -85.6324
 -85.6019
 -85.6019
 -85.6076
 -85.6049
 -85.6415
 -85.6435
 -85.6439
 -85.6439
 -85.6728
 -85.6716
 -85.6962
 -85.6953
 -85.6947
 -85.6962
 -85.6659
 -85.6662
 -85.6673
 -85.6645
 -85.6329
 -85.6326
 -85.6323
 -85.6339
 -85.6913
 -85.6915
 -85.6937
 -85.6904
 -85.6907
 -85.6911
 -85.6916
 -85.6436
 -85.6413
 -85.6398
 -85.6424
 -85.6016
 -85.601
 -85.6026
 -85.6301
 -85.63
 -85.6328
 -85.63
 -85.5928
 -85.5901
 -85.5935
 -85.5897
 -85.6593
 -85.6595
 -85.6601
 -85.6549
 -85.5997
 -85.5997
 -85.5996
 -85.6001
 -85.6133
 -85.6145
 -85.6152
 -85.6142
 -85.6872
 -85.6854
 -85.6878
 -85.6859
 -85.6428
 -85.643
 -85.6409
 -85.6431
 -85.6233
 -85.6219
 -85.624
 -85.6221
 -85.6692
 -85.6692
 -85.6711
 -85.6741
 -85.673
 -85.6727
 -85.6276
 -85.6303
 -85.6293
 -85.6327
 -85.6337
 -85.6353
 -85.6344
 -85.6344
 -85.602
 -85.6035
 -85.6016
 -85.6259
 -85.6242
 -85.6228
 -85.5327
 -85.5304
 -85.5326
 -85.5312
 -85.6149
 -85.6157
 -85.5952
 -85.5967
 -85.5954
 -85.593
 -85.6494
 -85.647
 -85.6491
 -85.6465
 -85.5706
 -85.5741
 -85.5751
 -85.5725
 -85.608
 -85.6075
 -85.6055
 -85.6618
 -85.6622
 -85.6618
 -85.6608
 -85.6066
 -85.6088
 -85.6058
 -85.6005
 -85.6009
 -85.598
 -85.599
 -85.6236
 -85.6224
 -85.6226
 -85.6252
 -85.6698
 -85.6744
 -85.5573
 -85.5587
 -85.6129
 -85.6112
 -85.6345
 -85.6323
 -85.6332
 -85.6326
 -85.6588
 -85.6607
 -85.6591
 -85.6615
 -85.6381
 -85.6384
 -85.6396
 -85.64
 -85.5937
 -85.5895
 -85.5924
 -85.5917
 -85.6506
 -85.6483
 -85.6491
 -85.6022
 -85.6011
 -85.602
 -85.6018
 -85.6834
 -85.6829
 -85.6845
 -85.6822
 -85.6601
 -85.6602
 -85.6605
 -85.6582
 -85.6046
 -85.606
 -85.6039
 -85.6328
 -85.63
 -85.6326
 -85.6337
 -85.5944
 -85.5937
 -85.5947
 -85.6068
 -85.6096
 -85.6086
 -85.6072
 -85.6065
 -85.6061
 -85.6083
 -85.6068
 -85.6321
 -85.6298
 -85.6295
 -85.6285
 -85.6913
 -85.6906
 -85.6898
 -85.6901
 -85.654
 -85.6567
 -85.6555
 -85.6563
 -85.6304
 -85.6274
 -85.6294
 -85.6447
 -85.6437
 -85.6434
 -85.6819
 -85.6794
 -85.6817
 -85.6802
 -85.6544
 -85.6544
 -85.6526
 -85.6556
 -85.6284
 -85.6305
 -85.6307
 -85.6311
 -85.59
 -85.5903
 -85.6042
 -85.6031
 -85.6052
 -85.6052
 -85.5502
 -85.5491
 -85.5462
 -85.5495
 -85.6681
 -85.6683
 -85.6683
 -85.6672
 -85.6089
 -85.6065
 -85.6072
 -85.607
 -85.6386
 -85.6367
 -85.6378
 -85.6351
 -85.585
 -85.5838
 -85.5842
 -85.5835
 -85.646
 -85.6452
 -85.6441
 -85.644
 -85.6325
 -85.6645
 -85.6642
 -85.662
 -85.6626
 -85.6287
 -85.6257
 -85.6252
 -85.6277
 -85.6264
 -85.6279
 -85.6296
 -85.6287
 -85.6205
 -85.618
 -85.6186
 -85.6177
 -85.603
 -85.6006
 -85.6044
 -85.6752
 -85.6756
 -85.6761
 -85.6725
 -85.6268
 -85.6262
 -85.6261
 -85.6252
 -85.6733
 -85.6739
 -85.6755
 -85.6612
 -85.6594
 -85.6607
 -85.6601
 -85.6703
 -85.6732
 -85.6718
 -85.6736
 -85.5974
 -85.5999
 -85.597
 -85.525
 -85.526
 -85.5263
 -85.6623
 -85.665
 -85.6644
 -85.6463
 -85.6501
 -85.6484
 -85.6509
 -85.6232
 -85.6242
 -85.6252
 -85.6229
 -85.6304
 -85.6311
 -85.6279
 -85.6286
 -85.5635
 -85.5653
 -85.5608
 -85.5658
 -85.6389
 -85.6378
 -85.6374
 -85.6372
 -85.6522
 -85.6528
 -85.6542
 -85.6511
 -85.6086
 -85.6091
 -85.6143
 -85.6102
 -85.6122
 -85.6125
 -85.6627
 -85.6611
 -85.6623
 -85.6619
 -85.6074
 -85.6094
 -85.655
 -85.6539
 -85.5948
 -85.5298
 -85.5294
 -85.5297
 -85.5317
 -85.584
 -85.5868
 -85.6937
 -85.6952
 -85.694
 -85.5903
 -85.5926
 -85.5947
 -85.5926
 -85.6652
 -85.6648
 -85.6133
 -85.6128
 -85.6131
 -85.6133
 -85.6202
 -85.6243
 -85.6229
 -85.6649
 -85.6663
 -85.6653
 -85.6676
 -85.6562
 -85.6584
 -85.6561
 -85.6572
 -85.6775
 -85.6779
 -85.6798
 -85.6307
 -85.6284
 -85.631
 -85.6278
 -85.638
 -85.6778
 -85.6752
 -85.6773
 -85.6768
 -85.596
 -85.5956
 -85.5966
 -85.5975
 -85.6434
 -85.6411
 -85.6431
 -85.6408
 -85.6683
 -85.6657
 -85.6676
 -85.666
 -85.5421
 -85.543
 -85.5441
 -85.5447
 -85.6047
 -85.6913
 -85.6252
 -85.6283
 -85.6261
 -85.6238
 -85.6424
 -85.6442
 -85.6414
 -85.6409
 -85.6094
 -85.6064
 -85.6081
 -85.6087
 -85.6465
 -85.6456
 -85.6466
 -85.6471
 -85.603
 -85.6033
 -85.6051
 -85.5999
 -85.6016
 -85.6031
 -85.6015
 -85.6295
 -85.6316
 -85.6279
 -85.6297
 -85.6684
 -85.6698
 -85.6661
 -85.6962
 -85.6974
 -85.6963
 -85.6958
 -85.5621
 -85.5599
 -85.5591
 -85.6363
 -85.6365
 -85.6314
 -85.6324
 -85.6299
 -85.6334
 -85.6855
 -85.6849
 -85.6852
 -85.6861
 -85.6624
 -85.6609
 -85.6619
 -85.6603
 -85.6025
 -85.606
 -85.6037
 -85.5787
 -85.6284
 -85.6262
 -85.6268
 -85.6287
 -85.6338
 -85.6349
 -85.6345
 -85.6606
 -85.6596
 -85.6596
 -85.6613
 -85.6697
 -85.6671
 -85.6689
 -85.6678
 -85.6259
 -85.6245
 -85.6636
 -85.6634
 -85.6646
 -85.6661
 -85.6482
 -85.6475
 -85.6478
 -85.6498
 -85.6899
 -85.6905
 -85.6527
 -85.6506
 -85.6529
 -85.6517
 -85.6638
 -85.6647
 -85.6654
 -85.666
 -85.6605
 -85.6618
 -85.6603
 -85.6606
 -85.6367
 -85.6378
 -85.6299
 -85.6311
 -85.6291
 -85.6278
 -85.619
 -85.617
 -85.6181
 -85.6184
 -85.6476
 -85.6492
 -85.6492
 -85.6476
 -85.6011
 -85.6028
 -85.6039
 -85.6049
 -85.6092
 -85.6086
 -85.6077
 -85.6086
 -85.5557
 -85.557
 -85.5564
 -85.5538
 -85.6187
 -85.6152
 -85.6448
 -85.6415
 -85.6442
 -85.6428
 -85.6254
 -85.6245
 -85.6264
 -85.6277
 -85.6407
 -85.6422
 -85.6431
 -85.6416
 -85.6316
 -85.6315
 -85.6644
 -85.6635
 -85.6935
 -85.6938
 -85.6938
 -85.6943
 -85.5924
 -85.6302
 -85.6301
 -85.6309
 -85.6324
 -85.6405
 -85.638
 -85.6387
 -85.6387
 -85.6147
 -85.6132
 -85.6125
 -85.6105
 -85.6597
 -85.6571
 -85.6596
 -85.6573
 -85.6421
 -85.6405
 -85.6397
 -85.6419
 -85.6027
 -85.6022
 -85.6036
 -85.6009
 -85.6001
 -85.6227
 -85.6258
 -85.6228
 -85.6253
 -85.6225
 -85.6262
 -85.6232
 -85.6218
 -85.6034
 -85.6034
 -85.6015
 -85.6033
 -85.6095
 -85.6104
 -85.6135
 -85.6123
 -85.6317
 -85.6338
 -85.6303
 -85.6301
 -85.6038
 -85.6027
 -85.602
 -85.6026
 -85.6454
 -85.6464
 -85.6432
 -85.6155
 -85.6154
 -85.6151
 -85.6146
 -85.5738
 -85.5758
 -85.6443
 -85.6457
 -85.6465
 -85.6427
 -85.6456
 -85.6443
 -85.6456
 -85.5961
 -85.5976
 -85.5987
 -85.5897
 -85.5908
 -85.5908
 -85.5897
 -85.6541
 -85.6538
 -85.655
 -85.6526
 -85.6425
 -85.6394
 -85.6428
 -85.6725
 -85.6694
 -85.6707
 -85.6349
 -85.633
 -85.6335
 -85.6774
 -85.6776
 -85.6777
 -85.5487
 -85.5468
 -85.5473
 -85.5487
 -85.6902
 -85.6906
 -85.69
 -85.6907
 -85.6187
 -85.6168
 -85.6479
 -85.6453
 -85.6021
 -85.6024
 -85.6022
 -85.6043
 -85.6514
 -85.6507
 -85.6533
 -85.6659
 -85.6676
 -85.6674
 -85.6677
 -85.6768
 -85.6741
 -85.5966
 -85.5968
 -85.5961
 -85.6453
 -85.6448
 -85.6429
 -85.6122
 -85.6097
 -85.6122
 -85.5968
 -85.5967
 -85.5956
 -85.595
 -85.6285
 -85.6292
 -85.6271
 -85.63
 -85.6255
 -85.6229
 -85.6239
 -85.625
 -85.6578
 -85.657
 -85.6569
 -85.6592
 -85.6652
 -85.664
 -85.6648
 -85.6627
 -85.6223
 -85.6217
 -85.6242
 -85.6542
 -85.6538
 -85.6525
 -85.6617
 -85.6634
 -85.6619
 -85.6623
 -85.6982
 -85.6976
 -85.6985
 -85.6377
 -85.6372
 -85.637
 -85.6599
 -85.6611
 -85.6583
 -85.6346
 -85.6361
 -85.6334
 -85.6169
 -85.6142
 -85.6146
 -85.5973
 -85.5986
 -85.5978
 -85.5982
 -85.6351
 -85.6344
 -85.6369
 -85.6349
 -85.6122
 -85.6111
 -85.6093
 -85.602
 -85.6043
 -85.6592
 -85.6577
 -85.661
 -85.6591
 -85.6593
 -85.6608
 -85.6587
 -85.657
 -85.6039
 -85.6062
 -85.6073
 -85.6082
 -85.6026
 -85.6006
 -85.6015
 -85.6003
 -85.5821
 -85.5809
 -85.5823
 -85.5801
 -85.6842
 -85.6851
 -85.6746
 -85.6725
 -85.6735
 -85.6748
 -85.6896
 -85.6157
 -85.6182
 -85.6152
 -85.6396
 -85.6404
 -85.6385
 -85.6381
 -85.6043
 -85.6039
 -85.6326
 -85.6325
 -85.634
 -85.594
 -85.5949
 -85.6717
 -85.672
 -85.6738
 -85.6706
 -85.6785
 -85.6782
 -85.6809
 -85.6797
 -85.6677
 -85.6683
 -85.6661
 -85.6182
 -85.6199
 -85.6197
 -85.677
 -85.6768
 -85.6776
 -85.6781
 -85.6117
 -85.6086
 -85.611
 -85.6121
 -85.6694
 -85.6681
 -85.668
 -85.6694
 -85.6123
 -85.6094
 -85.6088
 -85.6136
 -85.5984
 -85.5995
 -85.5972
 -85.69
 -85.6923
 -85.691
 -85.6906
 -85.6005
 -85.6013
 -85.601
 -85.6282
 -85.6294
 -85.6312
 -85.6294
 -85.6864
 -85.6881
 -85.6873
 -85.6115
 -85.6095
 -85.6115
 -85.61
 -85.6537
 -85.683
 -85.6838
 -85.6805
 -85.6826
 -85.5937
 -85.5944
 -85.5954
 -85.5943
 -85.6607
 -85.6573
 -85.6597
 -85.6608
 -85.6383
 -85.6392
 -85.6357
 -85.5984
 -85.5969
 -85.5991
 -85.5937
 -85.6559
 -85.6557
 -85.6571
 -85.609
 -85.6083
 -85.5518
 -85.5493
 -85.5523
 -85.5535
 -85.5831
 -85.5782
 -85.5776
 -85.678
 -85.6771
 -85.6815
 -85.679
 -85.6788
 -85.6797
 -85.5878
 -85.589
 -85.5859
 -85.5893
 -85.6254
 -85.6267
 -85.6266
 -85.6271
 -85.6325
 -85.6294
 -85.6297
 -85.6309
 -85.6435
 -85.6427
 -85.6454
 -85.6429
 -85.6451
 -85.6415
 -85.6439
 -85.6422
 -85.6862
 -85.6024
 -85.6016
 -85.6025
 -85.6018
 -85.6874
 -85.6866
 -85.6883
 -85.6472
 -85.6448
 -85.6439
 -85.6446
 -85.5966
 -85.599
 -85.5996
 -85.6413
 -85.6392
 -85.6408
 -85.6391
 -85.6353
 -85.6573
 -85.658
 -85.6602
 -85.6594
 -85.6131
 -85.6131
 -85.613
 -85.6358
 -85.6399
 -85.6386
 -85.6878
 -85.6869
 -85.6856
 -85.6869
 -85.6336
 -85.6325
 -85.6321
 -85.5424
 -85.5438
 -85.5408
 -85.6335
 -85.6319
 -85.6332
 -85.6298
 -85.6586
 -85.6606
 -85.6602
 -85.6377
 -85.6378
 -85.6774
 -85.6781
 -85.6764
 -85.6766
 -85.6678
 -85.6694
 -85.6683
 -85.6683
 -85.6918
 -85.6914
 -85.6904
 -85.6898
 -85.6442
 -85.6399
 -85.6429
 -85.6441
 -85.6634
 -85.6629
 -85.662
 -85.661
 -85.6774
 -85.6787
 -85.6798
 -85.6103
 -85.6117
 -85.6081
 -85.6094
 -85.6307
 -85.6331
 -85.621
 -85.6195
 -85.6216
 -85.6205
 -85.6588
 -85.6582
 -85.6586
 -85.6597
 -85.6335
 -85.6358
 -85.6348
 -85.633
 -85.6576
 -85.6566
 -85.6595
 -85.6571
 -85.6369
 -85.6378
 -85.6392
 -85.6397
 -85.635
 -85.6329
 -85.6334
 -85.6752
 -85.674
 -85.6752
 -85.6842
 -85.6837
 -85.6834
 -85.6861
 -85.6804
 -85.6802
 -85.6815
 -85.664
 -85.6664
 -85.6643
 -85.5603
 -85.5595
 -85.5576
 -85.6304
 -85.6334
 -85.6311
 -85.6739
 -85.6749
 -85.6741
 -85.6737
 -85.6303
 -85.6314
 -85.63
 -85.6447
 -85.6461
 -85.6454
 -85.6437
 -85.6535
 -85.6488
 -85.6506
 -85.6501
 -85.6352
 -85.637
 -85.6368
 -85.6385
 -85.6062
 -85.6078
 -85.6064
 -85.6056
 -85.6312
 -85.6448
 -85.6448
 -85.6461
 -85.6419
 -85.6002
 -85.6008
 -85.6011
 -85.601
 -85.5973
 -85.5991
 -85.5978
 -85.5989
 -85.603
 -85.6037
 -85.6036
 -85.602
 -85.6546
 -85.6546
 -85.6569
 -85.6581
 -85.6105
 -85.609
 -85.61
 -85.6105
 -85.6914
 -85.6898
 -85.6912
 -85.69
 -85.5779
 -85.5792
 -85.5812
 -85.5807
 -85.6078
 -85.608
 -85.6075
 -85.5928
 -85.5914
 -85.5907
 -85.5908
 -85.6003
 -85.5989
 -85.6018
 -85.602
 -85.6024
 -85.6391
 -85.6387
 -85.6401
 -85.6437
 -85.6847
 -85.6831
 -85.6824
 -85.6842
 -85.6839
 -85.6848
 -85.6833
 -85.6049
 -85.6035
 -85.6891
 -85.6904
 -85.6887
 -85.6756
 -85.6753
 -85.6755
 -85.6772
 -85.6003
 -85.5993
 -85.6003
 -85.6909
 -85.6914
 -85.6902
 -85.6919
 -85.6196
 -85.6203
 -85.6219
 -85.6182
 -85.6036
 -85.6006
 -85.6017
 -85.6038
 -85.5921
 -85.5952
 -85.5939
 -85.5933
 -85.5688
 -85.5694
 -85.5674
 -85.5673
 -85.6499
 -85.6537
 -85.6521
 -85.6531
 -85.622
 -85.6223
 -85.6212
 -85.6184
 -85.69
 -85.6887
 -85.69
 -85.5386
 -85.5417
 -85.5399
 -85.543
 -85.5828
 -85.5856
 -85.5838
 -85.5863
 -85.6899
 -85.6917
 -85.6908
 -85.6906
 -85.6368
 -85.637
 -85.6392
 -85.6799
 -85.6821
 -85.6826
 -85.6041
 -85.6037
 -85.6007
 -85.6903
 -85.6895
 -85.689
 -85.6898
 -85.6754
 -85.6744
 -85.6739
 -85.6724
 -85.6131
 -85.6145
 -85.6163
 -85.6142
 -85.6221
 -85.6196
 -85.6217
 -85.6187
 -85.6688
 -85.6688
 -85.669
 -85.6711
 -85.6423
 -85.6412
 -85.6395
 -85.6405
 -85.5741
 -85.5769
 -85.5772
 -85.5765
 -85.6776
 -85.6741
 -85.6763
 -85.6753
 -85.6922
 -85.6386
 -85.6392
 -85.6409
 -85.6408
 -85.6831
 -85.6842
 -85.6836
 -85.6855
 -85.6006
 -85.6007
 -85.601
 -85.6011
 -85.6887
 -85.6897
 -85.688
 -85.6874
 -85.634
 -85.6333
 -85.6231
 -85.6219
 -85.6238
 -85.6244
 -85.6668
 -85.6646
 -85.6646
 -85.6646
 -85.645
 -85.6474
 -85.6467
 -85.6215
 -85.6211
 -85.622
 -85.668
 -85.6675
 -85.6655
 -85.6658
 -85.6625
 -85.6614
 -85.6635
 -85.6618
 -85.6052
 -85.6039
 -85.6033
 -85.6354
 -85.6402
 -85.6405
 -85.6373
 -85.5784
 -85.5774
 -85.5802
 -85.5763
 -85.574
 -85.6904
 -85.6871
 -85.6904
 -85.6882
 -85.6392
 -85.6381
 -85.6368
 -85.6393
 -85.6795
 -85.6806
 -85.6294
 -85.6257
 -85.6262
 -85.6116
 -85.6096
 -85.6128
 -85.6122
 -85.6891
 -85.6884
 -85.6899
 -85.6898
 -85.6031
 -85.6035
 -85.6034
 -85.6132
 -85.6125
 -85.6144
 -85.6127
 -85.6207
 -85.6236
 -85.6214
 -85.6185
 -85.658
 -85.6617
 -85.659
 -85.6602
 -85.6089
 -85.6119
 -85.6103
 -85.6099
 -85.6653
 -85.6508
 -85.6534
 -85.6542
 -85.6501
 -85.6837
 -85.6843
 -85.6823
 -85.6873
 -85.6868
 -85.6866
 -85.6855
 -85.6525
 -85.654
 -85.6514
 -85.6527
 -85.6941
 -85.6939
 -85.6938
 -85.6922
 -85.6212
 -85.6467
 -85.6434
 -85.6435
 -85.6458
 -85.6395
 -85.6358
 -85.6377
 -85.6383
 -85.5695
 -85.5724
 -85.5733
 -85.5705
 -85.6322
 -85.6329
 -85.6337
 -85.6309
 -85.6285
 -85.6287
 -85.6294
 -85.6308
 -85.6303
 -85.6307
 -85.6327
 -85.6798
 -85.6782
 -85.6775
 -85.6284
 -85.6254
 -85.6263
 -85.6272
 -85.6773
 -85.6799
 -85.6786
 -85.636
 -85.6341
 -85.6418
 -85.6434
 -85.6427
 -85.6412
 -85.6404
 -85.6411
 -85.6383
 -85.6388
 -85.6418
 -85.6408
 -85.6819
 -85.6826
 -85.6826
 -85.6216
 -85.6864
 -85.6448
 -85.6465
 -85.6444
 -85.6423
 -85.6002
 -85.6001
 -85.5976
 -85.6059
 -85.6085
 -85.6097
 -85.6411
 -85.642
 -85.6394
 -85.6342
 -85.6341
 -85.6352
 -85.6366
 -85.6396
 -85.6376
 -85.641
 -85.6378
 -85.5403
 -85.541
 -85.5382
 -85.668
 -85.666
 -85.6676
 -85.6341
 -85.6347
 -85.673
 -85.6704
 -85.6713
 -85.6702
 -85.648
 -85.65
 -85.6479
 -85.5703
 -85.5714
 -85.5679
 -85.569
 -85.6279
 -85.6252
 -85.6276
 -85.6252
 -85.607
 -85.6061
 -85.6051
 -85.6045
 -85.6572
 -85.6543
 -85.6562
 -85.6572
 -85.6176
 -85.6153
 -85.6172
 -85.6141
 -85.5781
 -85.5776
 -85.5778
 -85.621
 -85.6201
 -85.6189
 -85.6195
 -85.6575
 -85.66
 -85.6589
 -85.6593
 -85.6368
 -85.6395
 -85.6397
 -85.6383
 -85.6106
 -85.6096
 -85.6109
 -85.6258
 -85.6239
 -85.6247
 -85.6245
 -85.6062
 -85.6036
 -85.6064
 -85.6043
 -85.5941
 -85.5972
 -85.5962
 -85.5932
 -85.689
 -85.6897
 -85.689
 -85.6896
 -85.604
 -85.6056
 -85.6052
 -85.6056
 -85.6094
 -85.6078
 -85.6099
 -85.6099
 -85.6537
 -85.6563
 -85.6557
 -85.6573
 -85.6193
 -85.6188
 -85.6212
 -85.62
 -85.6972
 -85.6975
 -85.6975
 -85.6978
 -85.6304
 -85.6293
 -85.6314
 -85.5984
 -85.597
 -85.5974
 -85.5995
 -85.6031
 -85.6023
 -85.6028
 -85.6022
 -85.6032
 -85.5995
 -85.6619
 -85.6596
 -85.6617
 -85.6589
 -85.6965
 -85.6957
 -85.6962
 -85.696
 -85.6248
 -85.6226
 -85.6237
 -85.6224
 -85.6057
 -85.6047
 -85.6044
 -85.6565
 -85.6542
 -85.6543
 -85.656
 -85.6302
 -85.6301
 -85.6308
 -85.633
 -85.6118
 -85.6122
 -85.6117
 -85.6136
 -85.5967
 -85.5999
 -85.598
 -85.6695
 -85.6717
 -85.6726
 -85.67
 -85.6762
 -85.6758
 -85.6743
 -85.6251
 -85.6246
 -85.6263
 -85.6279
 -85.6271
 -85.6261
 -85.6289
 -85.6105
 -85.6132
 -85.6145
 -85.6134
 -85.6557
 -85.6547
 -85.6533
 -85.603
 -85.603
 -85.6006
 -85.6384
 -85.6408
 -85.6399
 -85.6761
 -85.6739
 -85.6755
 -85.6596
 -85.6592
 -85.6201
 -85.6217
 -85.6195
 -85.6214
 -85.6224
 -85.6213
 -85.6335
 -85.6306
 -85.6117
 -85.5945
 -85.5948
 -85.593
 -85.6783
 -85.6781
 -85.6751
 -85.6251
 -85.6272
 -85.6265
 -85.6248
 -85.6135
 -85.637
 -85.6383
 -85.6564
 -85.6572
 -85.6557
 -85.658
 -85.6366
 -85.6347
 -85.6372
 -85.6257
 -85.6269
 -85.6234
 -85.6259
 -85.6206
 -85.6246
 -85.6282
 -85.6263
 -85.625
 -85.6292
 -85.6807
 -85.6789
 -85.6786
 -85.6801
 -85.6821
 -85.6832
 -85.6848
 -85.6846
 -85.6028
 -85.6045
 -85.6355
 -85.6356
 -85.6345
 -85.6324
 -85.6464
 -85.647
 -85.6481
 -85.649
 -85.6529
 -85.6549
 -85.6529
 -85.6524
 -85.6338
 -85.632
 -85.6314
 -85.6339
 -85.6293
 -85.6311
 -85.6298
 -85.6289
 -85.6757
 -85.6731
 -85.6757
 -85.6754
 -85.6046
 -85.6074
 -85.6083
 -85.6101
 -85.6056
 -85.6082
 -85.607
 -85.6685
 -85.6703
 -85.6726
 -85.6736
 -85.6107
 -85.6125
 -85.6117
 -85.6131
 -85.6863
 -85.6852
 -85.6863
 -85.686
 -85.6773
 -85.6763
 -85.6771
 -85.6757
 -85.6229
 -85.6242
 -85.622
 -85.6232
 -85.6602
 -85.661
 -85.6601
 -85.6579
 -85.6123
 -85.6135
 -85.6154
 -85.6159
 -85.6679
 -85.6666
 -85.6671
 -85.6041
 -85.6054
 -85.6038
 -85.6047
 -85.65
 -85.6489
 -85.6504
 -85.6513
 -85.6208
 -85.6214
 -85.665
 -85.6683
 -85.6667
 -85.6662
 -85.6693
 -85.6688
 -85.6673
 -85.6309
 -85.634
 -85.6313
 -85.6715
 -85.6716
 -85.6725
 -85.6737
 -85.5804
 -85.5811
 -85.583
 -85.5824
 -85.6115
 -85.6126
 -85.6141
 -85.615
 -85.6501
 -85.6472
 -85.6476
 -85.6502
 -85.6817
 -85.6823
 -85.681
 -85.6826
 -85.6771
 -85.6788
 -85.6789
 -85.6775
 -85.6819
 -85.6815
 -85.6821
 -85.6812
 -85.682
 -85.6162
 -85.6176
 -85.616
 -85.6182
 -85.6055
 -85.6061
 -85.6028
 -85.605
 -85.6155
 -85.6155
 -85.6206
 -85.623
 -85.6212
 -85.6206
 -85.6274
 -85.6272
 -85.6298
 -85.6272
 -85.6073
 -85.6074
 -85.6056
 -85.64
 -85.6384
 -85.6388
 -85.6379
 -85.698
 -85.6976
 -85.6966
 -85.617
 -85.6165
 -85.6175
 -85.6199
 -85.6721
 -85.6694
 -85.6711
 -85.6718
 -85.6579
 -85.6603
 -85.6594
 -85.6365
 -85.6352
 -85.6377
 -85.6599
 -85.6623
 -85.66
 -85.6755
 -85.6742
 -85.658
 -85.6582
 -85.658
 -85.6129
 -85.6136
 -85.6141
 -85.6117
 -85.6841
 -85.6852
 -85.6842
 -85.6837
 -85.6505
 -85.6528
 -85.6516
 -85.5635
 -85.5603
 -85.5591
 -85.5628
 -85.5977
 -85.5964
 -85.6445
 -85.621
 -85.6243
 -85.6221
 -85.621
 -85.6398
 -85.6424
 -85.6423
 -85.6665
 -85.6666
 -85.6651
 -85.6667
 -85.6877
 -85.6883
 -85.6361
 -85.6353
 -85.6354
 -85.6337
 -85.5945
 -85.5921
 -85.592
 -85.5945
 -85.6781
 -85.6791
 -85.679
 -85.6782
 -85.6496
 -85.6506
 -85.6492
 -85.5442
 -85.5427
 -85.5408
 -85.541
 -85.6045
 -85.604
 -85.6025
 -85.6163
 -85.6182
 -85.6147
 -85.6168
 -85.6494
 -85.6498
 -85.6487
 -85.6515
 -85.6362
 -85.6379
 -85.5994
 -85.6
 -85.5998
 -85.5998
 -85.6514
 -85.6538
 -85.6166
 -85.6132
 -85.6145
 -85.6155
 -85.625
 -85.626
 -85.6232
 -85.6252
 -85.637
 -85.6395
 -85.6403
 -85.6383
 -85.614
 -85.6127
 -85.61
 -85.6572
 -85.6545
 -85.6574
 -85.655
 -85.6694
 -85.6713
 -85.673
 -85.6698
 -85.6667
 -85.6669
 -85.6673
 -85.6688
 -85.5924
 -85.59
 -85.5914
 -85.5892
 -85.6387
 -85.6369
 -85.5562
 -85.5536
 -85.5543
 -85.5518
 -85.6247
 -85.6224
 -85.6212
 -85.6886
 -85.532
 -85.533
 -85.5331
 -85.5294
 -85.633
 -85.6342
 -85.6329
 -85.633
 -85.6198
 -85.6221
 -85.6204
 -85.6679
 -85.6697
 -85.6698
 -85.6677
 -85.6688
 -85.668
 -85.6704
 -85.6703
 -85.6663
 -85.6674
 -85.6656
 -85.6648
 -85.6137
 -85.6156
 -85.6126
 -85.6153
 -85.6035
 -85.6025
 -85.6011
 -85.6013
 -85.6525
 -85.6527
 -85.655
 -85.6525
 -85.6259
 -85.6227
 -85.6273
 -85.6252
 -85.6961
 -85.6823
 -85.6827
 -85.6477
 -85.6477
 -85.6272
 -85.6254
 -85.6259
 -85.6839
 -85.6863
 -85.6849
 -85.6843
 -85.6314
 -85.6304
 -85.6476
 -85.6458
 -85.57
 -85.573
 -85.5698
 -85.5728
 -85.6136
 -85.6127
 -85.6111
 -85.612
 -85.6506
 -85.6535
 -85.6511
 -85.6526
 -85.5754
 -85.5728
 -85.5749
 -85.5761
 -85.6923
 -85.6916
 -85.6932
 -85.6921
 -85.6825
 -85.6805
 -85.6871
 -85.686
 -85.6845
 -85.6874
 -85.6704
 -85.672
 -85.6216
 -85.6226
 -85.6208
 -85.5362
 -85.5387
 -85.5354
 -85.5358
 -85.5788
 -85.5807
 -85.5812
 -85.5791
 -85.6835
 -85.6848
 -85.6835
 -85.6828
 -85.6609
 -85.6638
 -85.6621
 -85.6417
 -85.6393
 -85.6377
 -85.6402
 -85.6165
 -85.62
 -85.6172
 -85.6165
 -85.6758
 -85.6775
 -85.6768
 -85.6842
 -85.6384
 -85.6415
 -85.613
 -85.6139
 -85.6575
 -85.6602
 -85.657
 -85.6578
 -85.6031
 -85.6005
 -85.6041
 -85.6002
 -85.6018
 -85.5996
 -85.6004
 -85.5407
 -85.5447
 -85.5438
 -85.5429
 -85.616
 -85.6175
 -85.6173
 -85.6194
 -85.6769
 -85.6772
 -85.6731
 -85.6746
 -85.674
 -85.6746
 -85.6119
 -85.6116
 -85.6138
 -85.6107
 -85.6666
 -85.6654
 -85.6673
 -85.6585
 -85.6586
 -85.6591
 -85.6572
 -85.6739
 -85.6749
 -85.6729
 -85.6754
 -85.6167
 -85.619
 -85.6182
 -85.6169
 -85.6876
 -85.6853
 -85.6291
 -85.5639
 -85.5653
 -85.5668
 -85.5681
 -85.6658
 -85.6655
 -85.6671
 -85.5792
 -85.5773
 -85.578
 -85.5763
 -85.6572
 -85.6569
 -85.6567
 -85.6588
 -85.5993
 -85.5992
 -85.5969
 -85.5998
 -85.6082
 -85.6077
 -85.6095
 -85.6099
 -85.6543
 -85.6558
 -85.6557
 -85.6214
 -85.6222
 -85.621
 -85.6195
 -85.6519
 -85.6512
 -85.6527
 -85.6494
 -85.6453
 -85.6439
 -85.6708
 -85.6715
 -85.6714
 -85.6585
 -85.6589
 -85.6569
 -85.5628
 -85.5632
 -85.5658
 -85.5635
 -85.603
 -85.605
 -85.602
 -85.6057
 -85.6762
 -85.6735
 -85.6738
 -85.6736
 -85.6718
 -85.6714
 -85.6094
 -85.614
 -85.6098
 -85.6589
 -85.6566
 -85.6574
 -85.6561
 -85.6581
 -85.6577
 -85.6567
 -85.6148
 -85.6136
 -85.6151
 -85.6154
 -85.6843
 -85.6846
 -85.6223
 -85.6215
 -85.6223
 -85.6239
 -85.6123
 -85.6126
 -85.6134
 -85.661
 -85.6617
 -85.6351
 -85.6338
 -85.6353
 -85.6371
 -85.6014
 -85.6008
 -85.6534
 -85.653
 -85.6233
 -85.6199
 -85.6203
 -85.6221
 -85.6402
 -85.6403
 -85.6386
 -85.642
 -85.6401
 -85.6387
 -85.6402
 -85.587
 -85.5871
 -85.586
 -85.5908
 -85.578
 -85.5782
 -85.58
 -85.5796
 -85.6584
 -85.6565
 -85.6545
 -85.6563
 -85.678
 -85.6783
 -85.6769
 -85.6768
