 30.9444
 30.8014
 30.8695
 30.7887
 28.8184
 28.8267
 28.7455
 28.7119
 29.3711
 29.4367
 29.3523
 29.4484
 29.2777
 29.3206
 29.4077
 29.4059
 28.3238
 28.2285
 28.3554
 28.37
 28.3573
 28.4116
 28.3075
 28.3915
 31.4941
 31.617
 31.5835
 31.4801
 31.3726
 31.3387
 31.3434
 31.4151
 28.3127
 28.3489
 28.4204
 28.3365
 28.3776
 28.3705
 28.3945
 28.2903
 31.7807
 31.8795
 31.7337
 31.7152
 29.2471
 29.2463
 29.3141
 29.262
 30.4103
 30.4405
 30.5035
 30.353
 28.9151
 28.9991
 29.0403
 28.9783
 29.6675
 29.6768
 29.6316
 29.5764
 31.1331
 31.2216
 31.0831
 31.2219
 28.6119
 28.558
 28.6099
 28.5284
 29.0746
 29.1201
 29.057
 29.1116
 29.7342
 29.7221
 29.7139
 29.6695
 28.5305
 28.5525
 28.5096
 28.4383
 31.2512
 31.3699
 31.263
 31.3259
 28.1325
 28.1404
 28.0534
 28.0353
 32.2961
 32.3544
 32.3102
 32.2301
 29.0662
 29.0078
 29.0763
 29.0985
 29.8547
 29.8945
 29.774
 29.7763
 29.5736
 29.5716
 29.6105
 29.6373
 30.1554
 30.0763
 30.0304
 30.1306
 31.1232
 31.1966
 31.0934
 31.0987
 30.4303
 30.4613
 30.5563
 30.4915
 28.9797
 28.9952
 29.0142
 29.0762
 29.75
 29.599
 29.7755
 29.7309
 30.367
 30.2759
 30.2992
 30.3596
 29.2251
 29.3029
 29.2281
 29.294
 28.7843
 28.82
 28.8199
 28.8153
 30.4176
 30.5168
 30.4138
 30.5478
 31.0649
 31.0757
 31.1143
 31.109
 29.3368
 29.4267
 29.3694
 29.3537
 31.4172
 31.4001
 31.3443
 31.3667
 29.0671
 29.051
 28.9248
 28.9526
 27.9215
 28.0012
 27.9307
 28.0192
 29.5218
 29.5495
 29.512
 29.6072
 29.0062
 28.9447
 28.9694
 29.0191
 31.4269
 31.4353
 31.3176
 31.4946
 29.2431
 29.3039
 29.2799
 29.2012
 28.2683
 28.2956
 28.2335
 28.2728
 30.6449
 30.5603
 30.6029
 30.6434
 29.2037
 29.0937
 29.1233
 29.0983
 31.0244
 30.9032
 30.9528
 31.0583
 30.4358
 30.4841
 30.5168
 30.5432
 29.7153
 29.7699
 29.785
 29.8464
 31.203
 31.2691
 31.301
 31.1634
 29.4587
 29.541
 29.5161
 29.4748
 30.3543
 30.4363
 30.3065
 30.4623
 29.5535
 29.4953
 29.5123
 29.5032
 30.5831
 30.4924
 30.5641
 30.4436
 29.3175
 29.3292
 29.265
 29.3974
 28.9676
 28.9845
 28.9269
 28.8692
 28.9928
 29.054
 29.0194
 29.1211
 30.6755
 30.7174
 30.8194
 30.6511
 30.0566
 30.0963
 30.1149
 29.9982
 32.3007
 32.2934
 32.3916
 32.323
 30.5294
 30.5476
 30.6287
 30.542
 29.8417
 29.7077
 29.7804
 29.7682
 30.2623
 30.2625
 30.1681
 30.3265
 30.4374
 30.3469
 30.4261
 30.339
 31.2074
 31.2695
 31.1513
 31.1833
 28.5281
 28.4461
 28.3927
 28.5282
 28.3352
 28.3148
 28.272
 28.2473
 29.6966
 29.5887
 29.7514
 29.6979
 30.4938
 30.5121
 30.4596
 30.5542
 29.0235
 28.9976
 28.9505
 29.0305
 31.3019
 31.4718
 31.4217
 31.4346
 31.2734
 31.3939
 31.4027
 31.3235
 32.5657
 32.6461
 32.582
 32.5636
 29.435
 29.3166
 29.3971
 29.3179
 30.7126
 30.6345
 30.6137
 30.713
 30.8539
 30.9288
 30.778
 30.8302
 28.2168
 28.1289
 28.1561
 28.1177
 31.1231
 31.1997
 31.2859
 31.1654
 30.8922
 30.9343
 30.9962
 30.8886
 30.7108
 30.6453
 30.7257
 30.794
 29.9159
 29.9101
 29.8453
 29.8434
 30.7924
 30.6814
 30.7643
 30.7246
 30.4322
 30.384
 30.3591
 30.4008
 30.0041
 30.0259
 30.0713
 30.0852
 31.0198
 31.1495
 31.0085
 31.1639
 32.6884
 32.6323
 32.5953
 32.6327
 31.2656
 31.2568
 31.171
 31.2161
 29.3188
 29.4106
 29.3179
 29.4377
 29.3335
 29.3945
 29.3235
 29.4315
 28.9521
 29.0423
 29.0289
 28.9863
 31.5731
 31.6014
 31.5769
 31.5236
 28.0308
 28.0529
 28.1196
 28.0014
 29.1198
 29.0467
 29.1417
 29.1023
 31.415
 31.3886
 31.4842
 31.5536
 30.4289
 30.4462
 30.4528
 30.3445
 30.8915
 30.8298
 30.9769
 30.9174
 30.8747
 30.9201
 30.9149
 31.4367
 31.4636
 31.4669
 31.5347
 29.1814
 29.2398
 29.292
 29.1677
 30.1823
 30.0703
 30.0971
 30.1529
 29.3343
 29.2401
 29.345
 30.6148
 30.7405
 30.6472
 30.6841
 29.9083
 29.8372
 29.8612
 29.9517
 28.6199
 28.7512
 28.7373
 28.5879
 31.3761
 31.3778
 31.2353
 31.3021
 31.0237
 31.1082
 31.1847
 31.0847
 29.4244
 29.5137
 29.5205
 29.4893
 29.1539
 29.1992
 29.0852
 29.0944
 31.4282
 31.3547
 31.4047
 31.4739
 31.0791
 31.0527
 30.8681
 30.9114
 30.1828
 30.0839
 30.0262
 30.1839
 28.4395
 28.3912
 28.4152
 28.3925
 29.3811
 29.3022
 29.2617
 29.3075
 29.8745
 29.997
 29.9089
 29.8764
 32.4265
 32.599
 32.4621
 32.4665
 30.0228
 30.0601
 29.9503
 29.9188
 28.6033
 28.7066
 28.6043
 28.7149
 30.8088
 30.956
 30.7616
 30.7782
 31.1485
 31.121
 31.2316
 31.1578
 30.9934
 31.0956
 31.0991
 31.066
 32.0394
 32.0595
 32.0519
 31.978
 30.8464
 31.0085
 30.9912
 30.9859
 29.4265
 29.4217
 29.4081
 29.4753
 31.5067
 31.4252
 31.3852
 31.3667
 28.5635
 28.6372
 28.5637
 28.549
 31.341
 31.4633
 31.4768
 31.3446
 28.661
 28.7777
 28.6452
 28.7179
 30.0815
 30.1463
 30.1407
 30.1074
 30.228
 30.1252
 30.1142
 30.1856
 30.5971
 30.5992
 30.4786
 30.5654
 30.8108
 30.8098
 30.9208
 30.9178
 28.141
 28.0504
 28.0301
 28.038
 30.7189
 30.8107
 30.7128
 30.7901
 27.9049
 27.9778
 27.9346
 28.044
 29.0278
 29.082
 28.9685
 29.0514
 32.2599
 32.1786
 32.1758
 32.2596
 28.2017
 28.211
 28.1633
 28.1375
 31.1582
 31.0678
 31.1685
 31.2654
 31.973
 32.098
 32.1447
 31.9728
 28.8377
 28.8675
 28.9071
 28.8759
 28.2573
 28.1717
 28.2316
 28.2701
 29.5571
 29.556
 29.5722
 29.6164
 28.9219
 29.0112
 28.9074
 29.0098
 30.984
 31.1062
 31.0247
 31.0902
 29.4097
 29.4583
 29.4258
 29.3596
 30.3517
 30.3314
 30.2625
 30.2588
 31.3688
 31.3029
 31.3898
 31.4026
 31.8236
 31.8144
 31.8743
 31.7325
 30.04
 30.0618
 29.9864
 30.0928
 29.8863
 29.9281
 29.9305
 30.0035
 31.13
 31.1363
 31.0235
 31.0567
 30.999
 31.1719
 31.0338
 31.0291
 29.305
 29.2577
 29.3122
 29.3557
 28.3276
 28.4064
 28.2757
 28.2532
 28.4572
 28.4937
 28.4448
 28.413
 28.5036
 28.5839
 28.5583
 28.5233
 29.115
 29.1526
 29.0605
 29.1397
 30.9676
 31.1176
 31.0171
 31.0487
 30.8998
 30.8327
 30.8057
 30.7891
 29.7706
 29.8514
 29.9121
 29.9512
 29.1834
 29.2299
 29.1244
 29.1885
 29.1706
 29.2108
 29.1667
 29.1065
 29.6378
 29.7136
 29.6498
 29.6325
 29.3295
 29.2508
 29.3342
 29.3313
 31.5789
 31.6139
 31.5616
 31.4485
 32.756
 32.8324
 32.7156
 32.7308
 30.8008
 30.8264
 30.9144
 30.8673
 32.7474
 32.6912
 32.6751
 30.8301
 30.8419
 30.7639
 30.8417
 28.4685
 28.5216
 28.4801
 28.5306
 29.6905
 29.6572
 29.6277
 29.5651
 28.4035
 28.4466
 28.3779
 28.4702
 31.0524
 31.0429
 31.1746
 31.0989
 29.1825
 29.1691
 29.0239
 29.0621
 29.6331
 29.6884
 29.7732
 29.6738
 28.1576
 28.1022
 28.094
 28.2442
 28.8181
 28.8417
 28.8105
 28.7371
 30.7116
 30.6307
 30.6875
 30.7087
 29.0835
 29.0871
 29.1703
 29.0522
 28.7238
 28.8294
 28.792
 28.8133
 31.9508
 32.0425
 32.0742
 32.0302
 29.7229
 29.6979
 29.642
 29.6316
 28.6367
 28.6139
 28.6194
 28.7044
 29.3852
 29.3167
 29.4443
 29.273
 28.6216
 28.7126
 28.6214
 28.6153
 30.9397
 30.8399
 30.785
 30.8487
 28.8198
 28.6969
 28.8377
 28.7199
 30.1824
 30.1331
 30.2675
 30.1812
 29.9919
 29.9467
 29.9037
 29.9953
 28.8306
 28.877
 28.9238
 28.7914
 27.9563
 28.0144
 28.0145
 27.9712
 31.7423
 31.7002
 31.6268
 31.5896
 30.4586
 30.3787
 30.3335
 30.4393
 29.347
 29.4166
 29.4336
 29.4097
 28.9173
 28.8531
 28.8858
 28.8417
 30.7061
 30.8381
 30.7766
 30.7534
 31.4205
 31.3517
 31.2971
 31.4155
 29.0622
 29.055
 29.1704
 29.151
 29.1767
 29.1134
 29.1882
 29.1491
 28.2371
 28.1616
 28.0984
 28.2284
 31.1739
 31.0505
 31.1924
 31.1101
 28.3359
 28.246
 28.2559
 28.3228
 30.5503
 30.4816
 30.5864
 30.6118
 32.722
 32.7324
 32.6536
 32.6521
 28.5255
 28.5049
 28.44
 28.4917
 29.2714
 29.2267
 29.3168
 29.3882
 28.6168
 28.6016
 28.6592
 28.6576
 29.8803
 30.0066
 29.9688
 29.8889
 30.1421
 30.1214
 30.1016
 30.1483
 28.9161
 29.01
 29.0105
 28.9704
 30.9911
 30.956
 31.0551
 30.973
 31.2974
 31.2527
 31.2216
 31.3095
 32.5246
 32.5421
 32.6409
 32.6618
 29.5534
 29.4991
 29.4604
 29.4311
 29.8493
 29.8801
 29.7181
 29.8386
 29.4249
 29.5718
 29.4339
 29.395
 30.416
 30.2945
 30.2802
 30.4345
 28.2665
 28.2495
 28.2138
 28.3598
 28.2426
 28.1316
 28.241
 28.2579
 29.305
 29.2874
 29.2087
 29.1958
 32.9711
 33.0112
 32.965
 32.8772
 30.036
 30.0781
 30.0263
 30.1552
 29.9985
 30.0078
 30.1319
 30.012
 30.048
 30.0114
 30.1544
 30.1328
 28.8657
 28.89
 28.7905
 28.9025
 32.3944
 32.2578
 32.4276
 32.4027
 32.2859
 32.3743
 32.3251
 32.4823
 28.6898
 28.7462
 28.7034
 28.7916
 30.6279
 30.5068
 30.6754
 30.5525
 30.2865
 30.3059
 30.2711
 30.2641
 29.1616
 29.1929
 29.2397
 29.2888
 31.0971
 31.0361
 30.9986
 31.0511
 28.8015
 28.8645
 28.8403
 28.7817
 30.4515
 30.6221
 30.5416
 30.6697
 30.5289
 30.4872
 30.5908
 30.5698
 31.4102
 31.4824
 31.4052
 31.5267
 30.1752
 30.0819
 30.1055
 30.0389
 28.7005
 28.667
 28.6741
 28.7212
 29.1673
 29.0843
 29.0455
 29.1242
 31.086
 31.0893
 31.0088
 31.053
 30.8524
 30.7392
 30.7398
 30.851
 28.4821
 28.4513
 28.3971
 28.435
 28.8841
 28.9604
 28.9195
 28.9305
 29.9498
 29.9799
 30.0348
 29.9789
 31.632
 31.6018
 31.5991
 31.5696
 31.8887
 31.8048
 31.8625
 31.9459
 29.2917
 29.3977
 29.4336
 29.358
 31.36
 31.4602
 31.3528
 31.5399
 28.5556
 28.6511
 28.6405
 28.5658
 29.4774
 29.3513
 29.4131
 29.4736
 28.8828
 28.9146
 28.9503
 28.8855
 29.0961
 29.1945
 29.1841
 29.1225
 30.0734
 30.125
 30.0645
 30.005
 30.9018
 31.076
 31.0467
 30.9523
 31.762
 31.6096
 31.7025
 31.7634
 31.4445
 31.577
 31.4402
 31.4342
 30.916
 31.0089
 31.021
 30.9204
 30.0485
 30.011
 29.9956
 30.1822
 30.0461
 29.9267
 30.006
 30.04
 29.954
 30.0374
 29.9137
 30.0023
 29.3889
 29.4325
 29.3448
 29.3598
 32.2213
 32.3475
 32.177
 32.1747
 29.6902
 29.6618
 29.7018
 29.6107
 31.1193
 31.2162
 31.1644
 31.1388
 30.3052
 30.2124
 30.2673
 30.2208
 28.3539
 28.4879
 28.3801
 28.4261
 29.8963
 29.9361
 29.9276
 29.9903
 31.2985
 31.3442
 31.3087
 31.4345
 30.2534
 30.2887
 30.2114
 30.1576
 30.8604
 30.7902
 30.8002
 30.8964
 30.0494
 30.1702
 30.0677
 30.1673
 31.9601
 32.0451
 32.0275
 31.9148
 30.3215
 30.2982
 30.2489
 30.2409
 29.2664
 29.2954
 29.228
 29.3005
 29.2819
 29.2698
 29.243
 29.2623
 28.4204
 28.5611
 28.4529
 28.504
 30.6352
 30.6444
 30.5416
 30.6171
 30.9755
 30.9061
 31.004
 30.8098
 28.3128
 28.4412
 28.3368
 28.3607
 30.9504
 30.9764
 30.8779
 30.9471
 28.7344
 28.7578
 28.6733
 28.7753
 29.6599
 29.5399
 29.6041
 29.5372
 30.069
 30.2066
 30.0622
 30.075
 30.9436
 30.8372
 30.851
 30.9435
 30.0658
 30.0463
 29.9242
 30.0421
 28.7198
 28.736
 28.7006
 28.6979
 32.9544
 32.8782
 32.7953
 32.9776
 31.6896
 31.7179
 31.7187
 31.6881
 31.5466
 31.4932
 31.5486
 31.6363
 30.5508
 30.5018
 30.6036
 30.4739
 30.3185
 30.3901
 30.3365
 30.3778
 30.7608
 30.8543
 30.8782
 30.7773
 28.1987
 28.2308
 28.1151
 28.2456
 30.9853
 31.0499
 31.0414
 30.9142
 29.4332
 29.4528
 29.4159
 29.5212
 29.942
 28.7808
 28.8683
 28.8646
 28.8931
 29.5004
 29.4228
 29.3609
 29.4263
 31.7009
 31.6713
 31.6624
 31.7053
 30.4535
 30.4935
 30.4183
 30.3629
 30.7596
 30.8894
 30.822
 30.8544
 28.6294
 28.7208
 28.698
 28.6856
 30.3001
 30.431
 30.344
 30.3534
 28.4935
 28.4831
 28.5587
 28.5559
 29.1516
 29.1053
 29.1764
 29.077
 31.7414
 31.6891
 31.7142
 31.5957
 31.0168
 31.1152
 30.9378
 31.0244
 29.4526
 29.3883
 29.3746
 29.4305
 30.062
 30.165
 30.0181
 31.526
 31.5816
 31.4944
 31.4825
 29.3083
 29.4594
 29.3464
 29.4207
 30.8539
 31.0309
 30.9652
 30.9618
 30.0917
 30.2281
 30.1513
 30.0895
 28.4998
 28.5016
 28.6233
 28.5224
 30.5574
 30.5995
 30.6546
 30.5805
 28.8326
 28.9541
 28.8682
 28.8266
 29.8643
 29.9321
 29.8715
 29.9759
 28.9374
 28.9868
 29.0536
 29.0099
 28.6012
 28.5997
 28.5072
 28.5559
 30.4413
 30.4579
 30.3757
 30.3803
 32.6711
 32.6282
 32.5471
 32.578
 28.0469
 28.0905
 28.1083
 28.103
 29.3002
 29.3687
 29.3704
 29.3049
 31.2138
 31.214
 31.0264
 31.1711
 30.2874
 30.2088
 30.2012
 30.292
 32.0945
 32.0601
 32.1368
 32.1969
 28.5563
 28.4816
 28.3891
 28.4553
 31.5564
 31.6401
 31.5868
 31.566
 29.5371
 29.4513
 29.5699
 29.5069
 31.0604
 31.2287
 31.0973
 31.0902
 28.0029
 28.0237
 28.0158
 28.1009
 28.1298
 28.1351
 28.1998
 28.2289
 29.0184
 29.0908
 29.1332
 28.9772
 29.4955
 29.4954
 29.5186
 29.6036
 29.5167
 31.2462
 31.248
 31.3408
 31.2875
 31.1197
 31.1651
 31.212
 31.1103
 29.2469
 29.1705
 29.1657
 29.1519
 31.3038
 31.1955
 31.2192
 31.3064
 30.9309
 30.9971
 30.9896
 30.8868
 29.0902
 29.0529
 29.0578
 29.1583
 30.4235
 30.2933
 30.4134
 30.3086
 29.2443
 29.2371
 29.2478
 29.1662
 30.7796
 30.7783
 30.8649
 30.8477
 30.5652
 30.5121
 30.4864
 30.4749
 30.1277
 30.0371
 30.1563
 30.0715
 29.5603
 29.4608
 29.5067
 29.4126
 28.8979
 28.9414
 28.8109
 28.8395
 29.5809
 29.6009
 29.6527
 29.6369
 29.6529
 29.5791
 29.5856
 29.585
 31.8631
 31.8624
 31.7737
 31.7315
 29.3909
 29.3976
 29.3398
 29.3858
 30.0161
 30.0029
 29.9323
 29.9963
 29.8091
 29.8305
 29.882
 29.8368
 30.5453
 30.5437
 30.6256
 30.5614
 31.4367
 31.4648
 31.3803
 31.5694
 29.038
 29.0753
 29.0334
 28.9943
 31.3815
 31.4562
 31.4102
 31.3319
 28.239
 28.2425
 28.1297
 28.2004
 28.9142
 28.9846
 28.8797
 28.9189
 28.9145
 28.8972
 28.8788
 28.9206
 28.6649
 28.718
 28.7212
 28.6173
 29.1271
 29.098
 29.1765
 29.1022
 32.1605
 32.2128
 32.3104
 29.6935
 29.8145
 29.7122
 29.715
 28.9516
 28.9984
 29.0196
 28.9761
 30.4965
 30.5968
 30.5467
 30.5141
 30.8876
 30.8184
 30.9359
 30.8126
 29.1666
 29.1477
 29.097
 29.2322
 30.1475
 30.1843
 30.1507
 30.0514
 30.7842
 30.7638
 30.8464
 30.8406
 28.2459
 28.1317
 29.3881
 29.3978
 29.4893
 29.4765
 30.091
 30.1243
 30.1693
 29.6677
 29.6389
 29.6457
 29.7387
 31.7301
 31.8266
 31.6956
 31.7102
 28.8358
 28.7819
 28.7792
 28.88
 29.684
 29.7069
 29.76
 29.746
 30.5131
 30.5875
 30.5264
 30.4526
 29.6958
 29.7815
 29.7546
 29.705
 31.466
 31.5126
 31.4136
 31.4349
 31.6472
 31.4732
 31.5979
 31.5547
 30.09
 30.0245
 29.9661
 30.0326
 31.1957
 31.1918
 31.2547
 31.1446
 29.9443
 29.9948
 29.9693
 30.0073
 28.725
 28.7497
 28.8349
 28.8457
 31.1928
 31.1411
 31.0781
 31.1491
 32.5272
 32.423
 32.3399
 32.3088
 29.4403
 29.6092
 29.521
 29.4445
 30.1962
 30.1315
 30.232
 30.1373
 31.3247
 31.3662
 31.2329
 31.2784
 30.0853
 30.1347
 30.0401
 30.0498
 28.6239
 28.6579
 28.615
 28.628
 30.9772
 30.9982
 31.0607
 31.0222
 29.6226
 29.6436
 29.6458
 29.6997
 30.3952
 30.2585
 30.3365
 30.2064
 29.1751
 29.1129
 29.1124
 29.0606
 28.809
 28.8018
 28.7638
 28.8423
 31.1556
 31.0796
 31.1356
 30.9763
 30.5481
 30.4687
 30.4926
 30.5199
 29.5042
 29.5143
 29.6455
 29.5479
 31.3646
 31.3284
 31.3348
 31.2958
 32.8874
 33.028
 33.0022
 32.9701
 29.7463
 29.8179
 29.8466
 29.8284
 33.0279
 33.0464
 32.9153
 32.8931
 32.9516
 32.8751
 32.8048
 32.8012
 31.8484
 31.779
 31.7612
 31.878
 29.4086
 29.457
 29.5176
 29.5366
 29.441
 29.3547
 29.3592
 29.2944
 29.2847
 29.3688
 29.3045
 29.3972
 29.4596
 29.5449
 29.5262
 29.424
 32.0956
 32.2035
 32.1156
 32.2325
 31.2115
 31.2861
 31.1503
 31.1866
 31.15
 31.3736
 31.362
 31.2424
 30.3624
 30.2572
 30.3617
 30.2314
 29.5833
 29.6415
 29.5855
 29.615
 29.2137
 29.2078
 29.2518
 29.1719
 31.0886
 30.9898
 30.9738
 31.0718
 29.3604
 30.1746
 30.1359
 30.107
 30.1636
 28.1376
 28.1305
 28.0363
 28.0916
 30.2123
 30.218
 30.1453
 30.2115
 28.6017
 28.5216
 28.5849
 31.3593
 31.2579
 31.2378
 31.391
 32.8712
 32.8168
 32.7461
 32.7374
 30.0604
 30.0687
 29.9721
 30.1186
 30.5512
 30.6504
 30.6709
 30.6531
 31.3276
 31.2111
 31.1712
 31.1707
 31.1777
 31.1259
 31.2401
 31.1224
 31.8122
 32.041
 31.9056
 31.9461
 29.6067
 29.6115
 29.545
 29.4329
 30.1174
 30.0262
 30.1159
 30.0743
 30.7881
 30.8244
 30.7627
 30.7777
 30.1681
 30.2595
 30.0524
 28.9551
 29.0165
 29.0352
 30.9867
 30.9732
 31.0819
 31.0883
 32.0534
 32.1353
 32.1334
 32.0743
 30.6785
 30.6318
 30.6105
 30.7066
 31.8585
 31.9539
 31.808
 31.9958
 29.0519
 28.9219
 29.0133
 28.9967
 28.9848
 28.9629
 28.9314
 28.8873
 31.3988
 31.4556
 31.4296
 31.4586
 31.8771
 32.0369
 31.9679
 31.9336
 29.7902
 29.8988
 29.8106
 29.869
 28.33
 28.3933
 28.2717
 28.374
 32.0326
 32.0267
 32.1206
 32.0176
 29.3081
 29.3935
 29.3912
 29.2923
 32.5247
 32.5506
 32.4493
 32.4929
 29.175
 29.0985
 29.2048
 29.0331
 30.3751
 30.4523
 30.3316
 30.4969
 29.0444
 29.0444
 28.949
 28.9689
 31.3082
 31.2749
 31.2301
 31.1291
 30.4856
 30.5653
 30.5448
 30.5719
 30.8516
 30.8936
 30.807
 30.7917
 30.8876
 30.961
 30.8437
 30.9386
 29.7712
 29.7187
 29.7568
 29.8301
 30.1905
 30.2734
 30.1872
 30.1887
 28.9431
 29.0366
 29.052
 28.9892
 28.1991
 28.1289
 28.2888
 28.3096
 30.2015
 30.2121
 30.2835
 30.2183
 28.7383
 28.7654
 28.7985
 28.6891
 29.2377
 29.1074
 29.0781
 29.1298
 32.1637
 32.2627
 32.356
 32.2293
 31.3902
 31.2054
 31.2342
 31.2992
 30.362
 30.441
 30.4661
 30.409
 31.8936
 32.0035
 32.02
 32.0594
 29.6403
 29.5339
 29.552
 29.6124
 29.044
 28.8999
 28.9781
 28.9516
 31.7912
 31.6695
 31.7902
 31.7914
 30.0403
 29.9687
 30.0365
 30.0052
 30.7346
 30.7619
 30.7625
 30.8188
 32.8135
 32.7953
 32.6597
 32.7328
 30.5346
 30.5534
 30.5577
 30.475
 30.0317
 29.9808
 29.9985
 29.961
 29.3205
 29.2603
 29.3067
 29.227
 30.9418
 30.9083
 30.9
 30.0062
 30.0192
 30.0427
 30.0281
 30.6347
 30.7225
 30.5041
 30.6172
 29.4065
 29.488
 29.4093
 29.4605
 29.3552
 29.2298
 29.3103
 29.2772
 28.5709
 28.6177
 28.5838
 28.6891
 31.0969
 31.1522
 31.045
 31.1465
 28.2986
 28.2823
 28.2482
 28.2873
 30.8877
 30.8066
 30.8772
 30.9246
 30.1282
 30.0317
 30.0418
 29.987
 30.0127
 30.0965
 30.0848
 30.1315
 32.9434
 33.0074
 32.9197
 32.9885
 30.5491
 30.6143
 30.5419
 30.5195
 30.1131
 30.1638
 30.0534
 29.9466
 30.1206
 30.0977
 30.0756
 30.1988
 28.0537
 28.0643
 28.1455
 28.1122
 30.9118
 30.801
 30.7381
 30.8763
 30.7775
 30.8439
 30.7337
 30.8634
 29.237
 29.1378
 29.208
 29.1794
 31.1313
 31.1685
 31.2311
 31.2594
 31.339
 31.368
 31.3049
 31.3923
 29.3888
 29.5083
 29.3932
 29.4903
 29.4141
 29.3988
 29.4791
 29.401
 29.8555
 29.8416
 29.7177
 29.7649
 30.805
 30.8567
 29.6614
 29.715
 29.6167
 29.6923
 30.8149
 30.7458
 30.8342
 30.7793
 30.3204
 30.225
 30.1874
 30.2134
 28.6067
 28.6574
 28.6848
 28.6082
 30.1621
 30.1367
 30.0884
 30.0707
 29.1145
 29.0785
 29.0481
 29.1473
 31.0325
 30.8858
 30.9347
 30.9048
 30.4801
 30.5674
 30.577
 30.5479
 30.1534
 29.9633
 30.048
 30.0774
 31.254
 31.3344
 31.3647
 31.2744
 32.3839
 32.2141
 32.3289
 32.3483
 28.4622
 28.4738
 28.5203
 28.4872
 31.8563
 31.8316
 31.8028
 31.8967
 29.5624
 29.5357
 29.6287
 29.631
 32.3246
 32.2584
 32.3536
 32.4771
 29.6443
 29.5612
 29.6112
 29.6198
 30.9463
 30.9666
 31.0106
 30.9635
 30.9283
 30.9002
 30.9935
 30.9373
 29.778
 29.748
 29.839
 29.8108
 28.875
 28.9502
 28.8717
 28.9682
 30.4935
 30.3658
 30.3857
 30.3856
 31.4256
 31.4862
 31.4207
 31.3577
 28.8549
 28.7383
 28.7912
 28.7107
 30.9128
 30.8772
 30.8059
 30.7675
 30.4304
 30.3194
 30.3789
 30.2956
 29.1556
 28.989
 29.0382
 29.0758
 29.8961
 29.8144
 29.7813
 29.7769
 30.1292
 30.1397
 30.1071
 30.0463
 28.5514
 28.5146
 28.4602
 28.4382
 28.9101
 28.865
 28.8865
 28.9206
 29.7385
 29.7182
 29.828
 29.7866
 30.234
 30.1858
 30.2862
 30.0869
 30.7368
 30.7051
 30.7094
 30.5744
 31.4825
 31.478
 31.5928
 29.0017
 28.9796
 28.9594
 28.9186
 32.2267
 32.2637
 32.4472
 32.3117
 29.2269
 29.3299
 29.2752
 29.3146
 31.0961
 31.242
 31.1586
 31.1429
 31.3595
 31.4774
 31.4165
 31.4422
 28.6851
 28.7665
 28.7165
 28.6186
 29.9287
 29.9822
 29.9164
 29.9783
 30.034
 30.063
 30.8588
 30.2654
 30.171
 30.3171
 30.2332
 32.5048
 32.3815
 29.3901
 29.3688
 29.3456
 31.4489
 31.4441
 31.5526
 31.4811
 29.283
 29.3796
 29.3444
 29.3337
 30.3521
 30.2724
 30.2936
 30.318
 30.8301
 30.6926
 30.7736
 30.7576
 28.6746
 28.6766
 28.5874
 28.6378
 31.5589
 31.4687
 31.5938
 31.4783
 29.5408
 29.5467
 29.5078
 29.4656
 28.4377
 28.4258
 28.526
 28.5184
 30.0275
 30.1195
 30.0587
 30.1128
 29.4633
 29.6057
 29.5643
 29.5645
 30.177
 30.1214
 30.1912
 30.3257
 28.1322
 28.2682
 28.1556
 28.268
 28.2742
 28.2531
 28.2964
 28.3764
 28.4026
 28.4578
 28.4795
 28.4
 30.3072
 30.3835
 30.2966
 30.3126
 29.6756
 29.7897
 29.7432
 29.6993
 30.1517
 30.1499
 30.2284
 30.1661
 30.5149
 30.5027
 30.4124
 30.5467
 29.3495
 29.33
 29.3167
 29.4225
 28.8902
 28.8075
 28.8528
 28.7877
 28.8184
 28.7855
 28.8578
 28.7226
 29.8303
 29.7955
 29.8672
 29.7875
 30.1552
 30.1535
 30.1823
 30.2261
 30.9807
 31.0092
 30.9998
 30.8746
 29.1121
 29.0442
 29.032
 29.1428
 31.6844
 31.6603
 31.8122
 31.782
 29.1054
 29.0626
 29.1036
 29.1096
 29.8695
 29.7397
 29.8647
 29.7639
 29.8898
 29.9082
 29.859
 30.0081
 31.5425
 31.5038
 31.524
 31.6573
 32.8489
 32.7895
 32.9693
 32.9238
 30.534
 30.4371
 30.5384
 30.5098
 29.0549
 29.1217
 29.0565
 29.041
 31.3157
 31.4331
 31.3346
 31.2976
 29.6626
 29.6039
 29.7264
 29.6227
 29.6417
 29.581
 29.4992
 29.5224
 29.2221
 29.179
 29.296
 29.2659
 32.041
 32.0292
 32.0856
 31.9591
 31.9954
 31.9507
 32.0221
 32.0497
 29.0013
 28.8831
 28.9
 28.947
 29.362
 29.4761
 29.5486
 29.4528
 30.6728
 30.6512
 30.7189
 30.7244
 30.0671
 30.0913
 30.0114
 29.9693
 29.9398
 29.8919
 29.903
 29.9687
 30.6313
 30.7233
 30.5545
 30.697
 29.5081
 29.5896
 29.5233
 29.603
 27.8021
 27.9164
 27.8392
 27.8214
 29.6545
 29.5328
 29.5532
 29.5018
 30.1195
 30.0972
 30.1537
 30.042
 30.0942
 30.096
 30.1704
 30.1187
 29.8322
 29.7697
 29.8175
 29.8918
 28.3316
 28.3228
 28.3822
 28.3405
 28.9594
 29.0379
 28.9984
 29.5773
 29.5557
 29.531
 29.5791
 31.4997
 31.5259
 31.3713
 31.503
 30.311
 30.3253
 30.3955
 30.2767
 28.8629
 28.9832
 29.0399
 28.9737
 30.9777
 30.9148
 30.9148
 30.8581
 30.5953
 30.6535
 30.6564
 30.5613
 30.4295
 30.5001
 30.589
 30.4693
 29.3896
 29.4646
 29.4866
 29.459
 29.8407
 29.9167
 29.8394
 29.9983
 29.5712
 29.7151
 29.6645
 29.6364
 31.2021
 31.1298
 31.13
 31.1732
 30.4728
 30.4164
 30.3932
 30.4814
 29.4265
 29.4832
 29.4065
 29.3285
 30.4647
 30.4331
 30.3691
 30.5141
 29.5869
 29.4767
 29.4908
 29.5268
 31.2468
 31.2875
 31.2148
 31.3026
 28.5071
 28.4959
 28.5772
 28.5068
 30.9889
 31.042
 30.9369
 30.9019
 31.0638
 31.2689
 31.1501
 31.1524
 29.1454
 29.1219
 29.0623
 29.0498
 31.0964
 31.0793
 31.0507
 31.0464
 29.5865
 29.6409
 29.5925
 29.6812
 31.5089
 31.5411
 31.6321
 31.6304
 29.815
 29.858
 29.8363
 29.7654
 28.6151
 28.4872
 28.5822
 28.5177
 29.757
 29.9031
 29.8978
 29.8562
 29.2846
 29.2546
 29.2693
 29.2904
 29.614
 29.6437
 29.5925
 29.5768
 29.5869
 29.5756
 29.5166
 29.4638
 28.3812
 28.3531
 28.325
 28.4429
 31.2068
 31.2374
 31.3371
 31.3082
 31.0492
 31.1076
 31.2232
 31.1232
 28.7577
 28.7409
 28.8012
 28.6842
 28.6768
 28.6309
 28.6824
 30.687
 30.7464
 30.7469
 30.6571
 29.6886
 29.5972
 29.6565
 29.6672
 29.5805
 29.5604
 29.6437
 29.5485
 31.1152
 31.0115
 31.1564
 31.0728
 29.2338
 29.1803
 29.1964
 29.1717
 30.1455
 30.2419
 30.2284
 30.1335
 29.8334
 29.9488
 29.9124
 29.9751
 29.1558
 29.0996
 29.0768
 29.0911
 31.59
 31.6342
 31.5831
 31.5236
 30.7823
 30.9099
 30.9123
 30.8577
 28.344
 28.4679
 28.373
 28.4051
 31.1743
 31.1976
 31.1629
 31.0047
 31.597
 31.6583
 31.6192
 31.6205
 30.1116
 30.0723
 30.1203
 30.0029
 32.4288
 32.4149
 32.4422
 32.3486
 30.0256
 29.9994
 30.0424
 30.016
 29.1086
 29.1664
 29.188
 29.1992
 28.859
 28.9075
 28.888
 31.6541
 31.6402
 31.6398
 31.6765
 30.918
 30.8037
 30.9439
 30.829
 30.9939
 31.0231
 31.0334
 31.1266
 30.8552
 30.9604
 30.8772
 30.9382
 28.2918
 28.2292
 28.2032
 28.2273
 31.4373
 31.4108
 31.469
 31.5251
 30.9134
 31.0036
 30.9303
 30.8332
 28.9408
 28.9066
 28.9462
 28.9815
 30.4998
 30.5381
 30.475
 30.7234
 30.8944
 30.82
 29.6749
 29.7917
 29.8409
 32.2979
 32.202
 32.188
 32.2596
 30.0183
 29.9776
 30.0393
 29.9396
 29.9582
 29.9164
 30.0337
 30.0011
 28.7026
 28.66
 28.7497
 28.7664
 28.5658
 28.5978
 28.4629
 28.5882
 31.1487
 31.1957
 31.2024
 31.0606
 29.8084
 29.694
 29.7178
 29.6894
 29.6315
 29.5679
 29.5269
 29.5628
 30.1315
 30.0138
 30.0614
 29.9806
 30.6105
 30.5568
 30.5629
 30.674
 29.8
 29.8644
 29.8544
 29.7568
 31.1558
 31.1262
 31.179
 31.0998
 28.7308
 28.7626
 28.7242
 28.6985
 30.9709
 30.9764
 30.8994
 30.8869
 28.8163
 28.9067
 28.8727
 28.7929
 28.5203
 28.5694
 28.6121
 28.534
 28.671
 28.7028
 28.6915
 28.7147
 30.9314
 30.999
 29.3477
 29.3494
 29.423
 29.388
 31.119
 31.0254
 31.0559
 31.1051
 29.0959
 28.9615
 29.0119
 28.98
 28.7723
 28.8811
 28.7537
 28.8567
 30.5877
 30.5566
 30.5208
 30.5792
 29.8327
 29.8161
 29.7533
 29.8002
 30.7854
 30.7753
 30.703
 30.7762
 30.2952
 30.2643
 30.267
 30.1663
 32.7091
 32.5959
 32.6936
 32.5784
 28.6055
 28.6487
 28.5434
 28.6352
 30.7662
 30.9313
 30.7719
 30.7919
 31.5254
 31.6355
 31.622
 31.51
 30.1987
 30.2261
 30.1485
 30.0827
 31.4743
 31.6765
 31.6326
 31.5315
 30.3841
 30.4848
 30.5035
 30.4428
 29.339
 29.372
 29.2655
 29.3951
 29.9698
 30.0261
 30.0332
 29.9948
 28.714
 28.5736
 28.7186
 30.2161
 30.1075
 30.3141
 30.1692
 32.8421
 32.8245
 32.8614
 32.9066
 28.2041
 28.1704
 28.1471
 28.2223
 29.9165
 29.9217
 29.8722
 29.9325
 29.1943
 29.2549
 29.328
 29.2422
 31.2335
 31.1485
 31.3485
 31.27
 30.5029
 30.4457
 30.6278
 30.5574
 30.6349
 30.4847
 30.5354
 30.481
 28.6177
 28.6597
 28.5862
 28.5478
 30.4031
 30.4844
 30.5438
 30.5129
 28.2502
 28.269
 28.2365
 28.3139
 29.3088
 29.3921
 29.3939
 29.3028
 31.1033
 31.0722
 31.0427
 31.102
 32.3921
 32.4416
 32.3617
 32.4532
 30.3222
 30.455
 30.3916
 30.4639
 29.9557
 29.9672
 29.8869
 29.9984
 29.1799
 29.2
 29.2319
 29.3129
 32.5341
 32.5355
 32.4704
 32.5839
 30.2366
 30.3165
 30.1866
 30.2061
 28.3663
 28.4014
 28.4298
 28.407
 29.0304
 28.944
 28.9749
 28.9994
 28.8821
 28.9248
 28.8402
 28.9501
 28.8755
 28.9577
 28.9679
 28.939
 28.9577
 28.8586
 28.9251
 28.9271
 29.6543
 29.6259
 29.6573
 29.6549
 31.0911
 30.8505
 30.7539
 30.7363
 30.7964
 29.4879
 29.6281
 29.578
 29.5531
 29.5027
 29.4731
 29.5805
 29.5889
 32.0666
 31.9976
 31.9713
 32.0611
 28.8232
 28.8307
 28.8739
 28.8382
 29.1357
 29.0827
 28.9927
 29.0423
 31.2336
 31.0581
 31.0955
 30.9291
 30.9323
 30.9655
 30.8476
 30.7777
 30.7952
 30.7357
 31.0062
 31.1128
 31.2503
 31.1856
 29.4553
 29.3649
 29.3853
 29.4835
 28.4117
 28.4
 28.444
 28.3941
 30.0241
 30.0642
 30.0067
 30.106
 28.5531
 28.6833
 28.7129
 28.7294
 30.2301
 30.264
 30.2894
 30.1862
 29.4001
 29.4851
 29.5286
 29.5114
 30.945
 30.9561
 30.9953
 31.0447
 29.7847
 29.6767
 29.8155
 29.7203
 29.707
 29.6031
 29.5516
 29.7064
 30.9668
 31.0193
 31.1005
 31.0704
 30.4946
 30.5567
 30.3794
 30.4275
 30.1839
 30.198
 30.2759
 30.3538
 29.6874
 29.6556
 29.6932
 29.6507
 31.6269
 31.6638
 31.6347
 31.5173
 29.4184
 29.5169
 29.4832
 29.4033
 30.5867
 30.7074
 30.5718
 30.5212
 29.3594
 29.3689
 29.3575
 29.4102
 28.6214
 28.6998
 28.6434
 28.667
 28.5354
 28.5999
 28.5794
 28.5591
 28.5513
 28.5023
 28.6318
 28.2374
 28.1894
 28.155
 28.1099
 28.9113
 29.0061
 29.0797
 28.9655
 29.9631
 29.9808
 29.9186
 29.9323
 28.434
 28.4827
 28.5303
 28.4498
 29.9386
 29.9409
 29.9867
 29.9973
 29.606
 29.5509
 29.5721
 28.776
 28.6891
 28.7365
 28.7408
 28.7211
 28.8174
 28.7749
 29.74
 29.7495
 29.6956
 29.6779
 30.6326
 30.5594
 30.6362
 30.5116
 29.3856
 29.4509
 29.4756
 29.4846
 28.5619
 28.5052
 28.5565
 28.5889
 30.8143
 30.8791
 30.8647
 30.9507
 30.0873
 30.1152
 30.1734
 30.1964
 29.9786
 29.8345
 29.9478
 29.9737
 29.2314
 29.33
 29.2798
 29.2869
 30.9851
 31.0788
 30.9548
 31.0515
 31.3135
 31.4285
 31.3029
 31.2582
 30.1251
 30.1288
 30.1354
 30.0554
 28.2108
 28.2543
 28.2624
 28.2613
 30.7342
 30.8354
 30.7188
 30.7839
 31.1262
 31.0868
 31.2114
 31.0585
 29.5171
 29.6194
 29.5116
 29.5354
 30.7886
 30.6981
 30.7661
 31.1991
 31.1032
 31.1432
 29.6708
 29.7441
 29.6117
 29.7081
 31.1323
 31.2127
 31.2427
 31.1234
 31.2545
 31.3721
 31.2478
 31.2832
 29.4261
 29.4143
 29.4451
 30.8619
 30.8645
 28.7541
 28.7417
 28.6378
 28.6229
 29.4017
 29.2994
 29.3006
 29.3195
 31.8016
 31.7348
 31.8497
 31.7015
 32.2659
 32.1042
 32.3062
 32.1999
 30.7264
 30.9231
 30.8278
 30.7834
 28.7275
 28.7317
 28.6812
 28.7148
 29.2782
 29.3464
 29.372
 29.3484
 31.6556
 31.6625
 31.6873
 31.7007
 30.7781
 30.7818
 30.7088
 30.7762
 30.8613
 30.8056
 30.8159
 31.1139
 31.0377
 31.0383
 31.0454
 31.0235
 31.1271
 31.0479
 30.9839
 31.2369
 31.3785
 31.3007
 31.3768
 28.537
 28.4556
 28.519
 28.4967
 28.4834
 28.416
 28.5468
 30.0744
 30.1343
 30.0602
 30.1538
 30.8134
 30.9545
 30.799
 30.8213
 28.222
 28.1544
 31.2367
 31.3365
 31.2943
 31.3573
 29.874
 29.7397
 29.8229
 29.7508
 29.5547
 29.5933
 31.1696
 31.1453
 31.0642
 31.1614
 28.5041
 28.4453
 28.5326
 28.3979
 28.3077
 28.3691
 28.3197
 28.2098
 30.2103
 30.1713
 30.1981
 32.0511
 31.93
 31.9776
 30.9425
 30.8012
 30.9543
 30.9378
 29.134
 29.2095
 29.0736
 29.1856
 30.523
 30.5621
 30.6292
 30.6577
 30.6496
 30.7016
 30.6236
 30.7121
 29.4751
 29.4662
 29.4368
 29.3403
 32.6403
 32.4673
 32.6188
 32.6628
 29.207
 29.2093
 29.1097
 29.1163
 29.2293
 29.2354
 29.1729
 29.1503
 31.319
 31.2823
 31.4478
 31.3453
 28.7588
 28.6981
 28.6887
 28.7741
 32.7728
 32.7942
 32.8994
 32.9022
 28.5492
 28.6791
 28.6824
 28.6668
 28.8168
 28.9254
 30.7596
 30.6777
 30.6875
 30.6253
 31.4246
 31.5572
 31.49
 31.3904
 28.8136
 28.7348
 28.7375
 28.7767
 30.586
 30.5721
 30.5755
 30.6279
 28.183
 28.2249
 28.2024
 30.8637
 30.9787
 30.957
 31.5967
 31.4622
 31.4145
 28.5912
 28.5322
 28.5684
 28.601
 30.845
 30.9293
 30.9381
 30.8946
 28.7774
 28.7684
 31.6273
 31.5326
 31.6206
 31.5725
 30.0404
 29.9355
 29.9539
 29.9853
 30.87
 30.8802
 30.4505
 30.2883
 30.2794
 30.3743
 30.6702
 30.6707
 30.6599
 30.7866
 28.2913
 28.2185
 28.3385
 28.31
 31.5126
 31.584
 31.5616
 29.0021
 32.5884
 32.7299
 32.684
 32.6954
 28.7629
 28.7121
 28.691
 28.8239
 30.6749
 30.6648
 30.5158
 30.5571
 29.1413
 29.2086
 29.1817
 29.1448
 30.6382
 30.7233
 30.7649
 30.6609
 29.4568
 32.0622
 32.1259
 32.1308
 32.0479
 29.406
 29.4294
 29.4391
 29.5084
 28.8778
 28.8608
 28.7861
 28.9488
 28.9688
 29.0715
 28.9651
 28.7284
 28.6135
 28.7108
 28.6745
 31.3211
 31.3009
 31.1797
 31.2501
 28.6161
 28.6098
 28.6297
 28.553
 31.5392
 31.5913
 31.5453
 31.6629
 28.6886
 28.6397
 28.6256
 28.6234
 30.1304
 30.1747
 30.1906
 30.2073
 29.2435
 29.1957
 29.1652
 29.149
 29.6691
 29.7132
 29.7381
 29.7576
 28.5027
 28.6031
 30.0128
 30.1027
 30.0795
 30.0208
 31.8839
 31.9168
 31.792
 31.9152
 31.5916
 31.6332
 31.4907
 31.6175
 29.7055
 29.6394
 29.6021
 29.6108
 29.1893
 29.1924
 29.1979
 29.097
 29.0092
 29.0886
 29.0354
 28.996
 28.6633
 28.7513
 28.7379
 28.795
 29.0247
 28.9537
 28.9959
 29.0483
 31.4325
 31.5143
 31.4239
 31.5684
 31.1271
 31.1132
 31.145
 31.0153
 28.1731
 28.2416
 28.2794
 28.2669
 29.711
 29.6376
 29.6869
 29.5462
 30.9104
 30.7654
 30.8692
 30.8518
 32.269
 32.2648
 32.1989
 32.4256
 28.7512
 28.7095
 28.7773
 28.6443
 30.9257
 30.8767
 30.8494
 30.7846
 30.3751
 30.3018
 30.4181
 30.3641
 31.6896
 31.6988
 31.689
 31.6018
 29.5365
 29.5883
 29.5531
 29.5524
 28.5852
 28.5797
 28.6124
 28.5828
 29.6267
 29.7528
 29.7006
 29.7225
 30.3529
 30.2799
 30.2204
 30.2769
 31.863
 31.7872
 31.7316
 31.8887
 28.557
 29.3115
 29.2556
 29.3559
 29.2436
 30.2679
 30.3133
 30.3947
 30.3089
 29.0761
 29.0277
 29.0548
 28.9622
 30.859
 31.0265
 30.9136
 30.8814
 29.662
 29.5848
 29.6881
 31.8562
 31.6428
 31.7947
 31.7327
 28.8879
 29.0253
 28.9448
 28.9859
 31.3898
 31.4134
 31.3161
 31.3848
 27.9311
 27.9725
 27.9458
 27.8891
 31.0384
 31.0366
 30.9969
 31.0393
 32.3206
 32.1069
 32.163
 32.2432
 31.9354
 31.9487
 31.8671
 31.7929
 28.1843
 28.25
 28.2663
 28.3123
 28.4679
 28.486
 28.4515
 28.4331
 30.0995
 30.0279
 30.0504
 30.0093
 30.9218
 30.9976
 30.9366
 29.9354
 29.9282
 30.0372
 29.9998
 29.3622
 29.4279
 29.2869
 29.3304
 29.7556
 29.6087
 29.6579
 29.6864
 29.9426
 29.9234
 29.7774
 29.8438
 28.1145
 28.1671
 28.1736
 28.2048
 31.1582
 31.1818
 31.0449
 31.1545
 31.7963
 31.8884
 31.9343
 29.1292
 29.1796
 29.197
 29.2583
 28.8771
 28.8
 28.8284
 28.8529
 30.9723
 30.9882
 30.9539
 31.0996
 31.0761
 31.0279
 31.1683
 28.6543
 28.6931
 28.602
 28.7213
 30.0964
 30.1186
 30.0275
 30.0866
 31.0985
 31.2208
 31.1328
 31.1697
 30.2456
 30.2946
 30.2927
 30.224
 28.918
 28.9071
 28.9787
 28.9191
 30.9624
 30.8493
 31.0223
 30.8801
 30.1794
 30.337
 30.3308
 30.2206
 30.6534
 30.527
 30.6184
 28.5255
 28.5407
 28.5766
 28.607
 29.991
 30.0197
 30.0524
 29.9443
 28.1529
 28.1848
 28.0553
 29.8885
 29.8282
 29.8673
 29.8882
 31.7544
 31.6934
 31.8014
 31.7619
 29.751
 29.7248
 29.6667
 29.6
 30.0279
 29.8922
 30.0606
 30.973
 30.9677
 30.8328
 30.8153
 31.4646
 31.4466
 31.5258
 31.3867
 30.8938
 30.8533
 30.7881
 30.8989
 32.3738
 32.3375
 32.2652
 32.2587
 30.3565
 30.367
 30.4011
 30.4286
 30.7347
 30.7579
 30.657
 30.7833
 28.5229
 28.658
 28.6284
 28.4933
 31.3817
 31.2598
 31.2672
 31.3232
 29.471
 29.4944
 29.4487
 29.4014
 28.1995
 28.1743
 28.214
 28.2594
 28.1838
 28.3007
 28.2442
 28.2329
 29.0021
 28.9569
 28.9798
 28.9899
 28.2298
 28.1373
 28.1509
 28.2799
 28.6153
 28.6159
 28.6216
 28.1208
 28.2413
 28.2115
 28.2136
 31.7951
 31.8569
 31.7824
 31.9232
 30.3108
 30.4694
 30.4688
 30.4501
 30.6178
 30.5286
 30.5957
 30.5206
 30.532
 30.5702
 30.5849
 30.6021
 28.4874
 28.5343
 28.464
 28.4511
 30.4435
 30.4277
 30.547
 30.5233
 30.9003
 30.9988
 31.0091
 30.9481
 29.1681
 29.1893
 29.1153
 29.2357
 30.7991
 30.7358
 30.8189
 30.678
 29.1376
 29.1975
 29.2424
 29.8578
 29.7657
 29.7454
 28.6094
 28.6988
 28.7258
 28.6791
 30.2346
 30.1904
 30.2638
 30.2584
 29.4382
 29.5114
 29.4824
 29.3973
 30.5621
 30.6901
 30.6341
 30.5356
 28.1257
 28.1905
 28.4247
 28.456
 28.4759
 28.3683
 31.8765
 31.9236
 31.9009
 31.9892
 29.4401
 29.3833
 29.3542
 29.3085
 30.9562
 30.8866
 31.0156
 31.0196
 32.9144
 32.9064
 32.8964
 32.9198
 30.8825
 30.9237
 30.9849
 30.9145
 29.2273
 29.316
 29.2268
 31.4786
 31.5021
 31.3557
 31.3434
 28.2322
 28.3287
 28.2344
 28.3217
 30.9775
 30.9091
 30.9512
 30.8733
 29.5302
 29.4464
 29.4684
 29.5227
 31.5704
 31.6071
 31.6832
 31.6018
 32.6807
 32.4959
 32.6283
 32.5488
 31.0725
 30.9768
 31.0666
 31.109
 30.3392
 30.38
 30.3049
 29.7518
 29.9058
 29.7736
 29.833
 31.2636
 31.2759
 31.3668
 29.0738
 29.1171
 29.0447
 28.9989
 29.0354
 28.9263
 29.0294
 28.943
 29.2366
 29.3303
 29.2583
 29.2415
 28.3754
 28.552
 28.5011
 28.4659
 28.981
 29.0027
 28.9153
 30.6206
 30.5296
 30.5731
 30.4964
 29.0854
 29.1588
 29.4177
 29.4963
 29.5156
 29.4784
 29.2622
 29.2872
 29.2608
 29.2214
 31.0986
 31.0639
 31.0812
 31.1673
 31.0497
 30.9405
 31.022
 30.9073
 33.1115
 33.0846
 33.0255
 33.084
 30.953
 30.8768
 30.9546
 30.5398
 30.5747
 30.5985
 30.556
 29.8495
 29.8525
 29.9028
 29.9193
 30.6053
 30.5136
 30.4808
 30.5565
 31.7402
 31.6789
 31.7556
 31.751
 28.8685
 28.9975
 28.9092
 28.9505
 30.2081
 30.1476
 30.2033
 30.2574
 28.6692
 28.6733
 28.6929
 28.6272
 29.7684
 29.8246
 29.7604
 29.8112
 28.4036
 28.3393
 28.399
 32.5049
 32.4414
 32.4154
 32.4575
 29.273
 29.1436
 29.2397
 29.2257
 30.1
 30.1775
 30.0848
 30.121
 31.159
 31.179
 30.5198
 30.4925
 30.4387
 30.4663
 30.2756
 30.3724
 30.3551
 28.6057
 28.5772
 28.656
 28.6061
 28.4698
 28.5175
 28.5739
 28.5652
 31.178
 31.2207
 31.1647
 31.1827
 30.1469
 30.1729
 30.8275
 30.7302
 30.7908
 30.8692
 29.0284
 29.1098
 28.9735
 28.9632
 31.6237
 31.5144
 31.6351
 31.4833
 31.0936
 31.0792
 31.1802
 31.1958
 30.8183
 30.7155
 30.6732
 30.7243
 29.8765
 29.8933
 29.9127
 29.7711
 29.2074
 29.2061
 29.26
 29.2798
 29.0602
 29.0939
 29.1608
 29.0924
 32.9619
 32.9461
 33.0197
 33.0413
 31.4977
 31.4005
 31.3194
 29.6683
 29.8258
 29.7306
 29.6296
 29.5683
 29.6641
 29.5156
 28.5678
 28.5116
 28.5538
 28.4796
 29.9802
 30.9515
 30.94
 31.0325
 31.0084
 29.4353
 29.4735
 29.543
 29.5165
 28.9106
 29.0072
 29.0066
 28.9017
 28.9699
 28.97
 31.2576
 31.3348
 31.3645
 31.3724
 29.8416
 29.7413
 29.7659
 29.7557
 31.5808
 31.6562
 31.6292
 31.5514
 29.5697
 30.5196
 30.563
 30.3994
 30.3657
 30.5778
 30.5107
 30.4753
 30.5395
 28.5647
 28.6608
 28.4467
 28.394
 28.3464
 28.4094
 31.9073
 32.015
 31.9218
 31.9063
 29.0125
 29.0064
 29.1154
 28.9866
 29.7063
 29.7874
 29.7178
 29.6284
 32.8661
 32.8095
 32.8495
 32.911
 29.8871
 29.8986
 29.8459
 29.933
 30.0189
 30.1233
 30.1753
 30.1746
 31.2725
 31.3684
 31.178
 31.2452
 28.2222
 28.1339
 28.1243
 28.0946
 30.0582
 30.1516
 30.1716
 30.6369
 30.539
 30.5224
 30.6282
 28.3858
 28.2851
 28.3579
 28.3435
 30.7444
 30.8245
 30.8924
 30.7851
 30.1378
 30.0803
 28.8759
 28.8938
 28.8276
 28.9548
 29.744
 29.718
 29.6263
 29.6188
 28.3897
 28.4306
 28.3057
 28.3842
 30.1457
 30.0041
 31.1251
 31.1025
 31.0695
 31.0604
 30.719
 30.7056
 30.6367
 30.6172
 28.8327
 28.8127
 28.9078
 28.8734
 29.0387
 29.0912
 28.9969
 29.014
 29.0814
 29.1697
 29.0883
 29.0761
 30.7272
 30.6157
 30.6628
 30.7147
 32.1811
 32.2903
 32.2719
 32.2334
 28.2172
 28.1225
 28.1961
 28.1521
 31.1085
 31.1192
 31.0977
 31.0631
 29.8275
 29.7182
 29.7378
 29.7721
 30.6187
 30.4713
 30.5742
 30.5224
 29.8279
 29.943
 29.8135
 29.4513
 29.3585
 29.4404
 29.3102
 30.016
 29.9583
 29.9935
 30.068
 29.2456
 29.2083
 29.1626
 29.2699
 29.1939
 29.2285
 29.1974
 29.32
 32.6695
 32.5924
 32.6692
 31.502
 31.4147
 31.3109
 31.3494
 29.6781
 29.7354
 29.7093
 29.7234
 28.9048
 28.8136
 28.8663
 28.8171
 30.8741
 31.0273
 30.8801
 30.7916
 30.7104
 30.7031
 29.6058
 29.6591
 29.6074
 29.6007
 29.8184
 29.7113
 29.7089
 29.6932
 27.802
 27.833
 27.8805
 27.7806
 31.832
 31.734
 31.8389
 31.9276
 29.1275
 29.1298
 30.3649
 30.2967
 30.273
 30.3736
 29.2778
 29.2628
 29.2578
 29.229
 29.599
 29.5953
 29.5408
 29.5519
 30.3174
 30.3087
 30.2324
 30.3703
 29.424
 29.3491
 29.3562
 29.3509
 31.161
 31.1183
 31.1291
 31.0507
 31.5571
 31.7022
 31.534
 31.6148
 28.8553
 28.8187
 28.7699
 28.6528
 29.8016
 29.7601
 29.6962
 32.0659
 32.152
 32.0459
 28.6781
 28.6507
 28.6306
 28.5962
 28.6834
 28.7206
 28.7451
 28.7478
 30.0672
 30.0569
 30.0626
 29.9699
 28.5637
 28.5158
 28.5325
 28.523
 28.3119
 28.1848
 28.3045
 28.1937
 30.2481
 30.2157
 30.1314
 30.238
 28.8343
 28.788
 28.7696
 28.7738
 27.8448
 27.8119
 27.8974
 27.7953
 29.0931
 29.0705
 29.1265
 29.0041
 29.6897
 29.8336
 29.767
 29.853
 28.8326
 28.7876
 28.851
 28.8665
 29.2839
 29.3011
 29.2588
 29.5007
 29.4328
 31.7298
 31.7718
 31.7449
 31.8047
 29.4772
 29.4011
 29.4009
 29.4443
 32.2333
 32.2222
 32.1994
 32.2102
 32.0413
 32.0159
 31.9748
 31.8525
 29.5797
 29.5561
 29.5337
 29.6219
 30.4335
 30.4349
 30.5069
 30.3931
 29.3042
 29.2267
 29.2408
 29.2565
 29.9968
 30.0509
 31.6262
 31.6794
 31.6573
 31.5716
 28.2833
 28.2501
 28.2171
 28.2914
 30.4655
 30.5762
 30.4217
 30.4748
 28.6652
 28.6824
 28.7555
 28.7088
 31.56
 31.6908
 31.587
 31.5801
 28.6389
 28.521
 28.5585
 28.5397
 29.5083
 29.6152
 29.533
 29.5478
 30.8561
 30.9425
 30.9896
 30.9566
 27.981
 28.0252
 28.0136
 28.0784
 30.6469
 30.5399
 30.6201
 30.6444
 30.2339
 30.4187
 30.3138
 30.3218
 28.2967
 28.2812
 28.3517
 28.2726
 30.0555
 30.1991
 30.1806
 30.1857
 28.8585
 28.7904
 28.821
 28.866
 28.8256
 28.8767
 28.8568
 30.2703
 30.4505
 30.356
 30.4105
 28.9084
 28.822
 28.8701
 28.8514
 31.3276
 31.2233
 31.2227
 31.3628
 28.7415
 28.6892
 28.6901
 28.7355
 28.7625
 28.7905
 28.7378
 28.7814
 31.0442
 31.0636
 30.8527
 30.957
 30.9535
 30.9923
 30.8961
 31.039
 33.0076
 33.0128
 33.0706
 33.0834
 28.9264
 29.0325
 29.0075
 31.9619
 31.8056
 31.8411
 31.8552
 28.4653
 28.5195
 28.5113
 28.4882
 31.1056
 28.7706
 28.8443
 28.8029
 28.7431
 28.7713
 28.8145
 28.8475
 32.7854
 32.9384
 32.9364
 32.8905
 32.713
 32.8535
 32.7872
 32.8381
 28.446
 28.5093
 28.4446
 28.3993
 30.9703
 31.0109
 30.9213
 31.0354
 29.2995
 29.344
 29.2488
 30.5474
 30.622
 30.5511
 30.6755
 30.2124
 30.1995
 30.2429
 28.706
 28.7569
 28.6206
 29.7129
 29.6384
 29.619
 29.6805
 30.5601
 30.6484
 30.6673
 30.5818
 31.0623
 31.0286
 31.0828
 31.0372
 29.3543
 29.3101
 29.2972
 31.6879
 31.6223
 31.7558
 31.7702
 31.0769
 30.8293
 30.933
 30.3343
 30.1887
 30.1888
 30.2998
 31.0291
 30.9246
 30.9603
 30.9925
 31.0358
 30.9059
 30.8822
 30.9165
 28.6521
 28.7041
 28.6907
 28.6963
 30.2489
 30.3324
 30.2445
 30.2168
 30.6278
 30.7093
 29.6524
 29.7264
 29.6685
 29.763
 28.3933
 28.589
 28.5533
 28.5754
 28.5931
 32.9513
 32.9929
 33.0465
 32.9653
 28.935
 28.8545
 28.9061
 28.2132
 28.2542
 28.2678
 28.2306
 29.1175
 29.2343
 29.2261
 29.2269
 31.0797
 31.0401
 30.9833
 31.0879
 30.2451
 30.3086
 30.3765
 30.2847
 28.1551
 28.1767
 28.2027
 28.2088
 28.9108
 28.9662
 29.027
 28.9641
 31.6558
 31.6862
 31.6985
 31.5866
 30.3571
 30.3226
 30.3167
 30.4464
 30.4754
 30.4315
 30.3757
 30.4453
 33.0554
 33.0969
 33.073
 33.0656
 31.3501
 31.3551
 31.389
 31.2756
 28.9838
 28.8868
 28.9985
 28.9443
 29.6169
 29.6248
 29.5511
 29.6413
 30.0582
 29.9731
 29.8987
 30.0741
 29.2295
 29.1502
 29.1914
 29.182
 29.479
 29.5073
 29.4089
 29.51
 29.1284
 29.1242
 29.1814
 29.0464
 27.9567
 28.0785
 28.039
 27.9259
 28.9086
 28.9448
 28.9597
 29.0825
 29.2137
 29.2519
 29.3279
 29.2491
 29.3253
 29.7747
 29.7764
 29.8378
 29.7013
 28.462
 28.4996
 28.5104
 28.5064
 30.1496
 30.1985
 30.1182
 30.1469
 29.6674
 29.6449
 29.6008
 29.7125
 29.8953
 29.991
 29.929
 29.8568
 30.5361
 30.6724
 30.5677
 30.6688
 32.3403
 32.3099
 32.2623
 32.4429
 27.8643
 27.973
 29.444
 29.4872
 29.4953
 32.7453
 32.7881
 32.8323
 30.7927
 30.8579
 30.8172
 30.9018
 31.9125
 31.948
 32.0833
 32.0586
 31.3743
 31.4218
 31.3356
 31.4578
 28.3775
 28.4829
 28.4366
 28.4237
 29.8213
 29.9255
 29.8759
 29.9484
 29.2764
 29.1906
 29.1784
 29.1032
 29.4932
 29.5619
 29.5785
 29.7047
 29.2186
 29.1621
 29.2442
 29.2107
 30.0522
 30.0514
 28.8283
 28.9863
 28.8425
 28.9706
 29.0584
 29.1097
 29.1532
 28.9795
 30.8411
 30.9749
 30.824
 30.9603
 31.027
 31.0071
 31.0096
 30.9821
 29.7459
 29.7241
 29.7624
 29.7104
 29.7381
 29.6676
 29.6179
 29.5571
 31.3429
 31.4979
 31.5059
 31.3429
 29.0841
 29.1737
 29.2054
 29.2022
 28.007
 28.0467
 28.0007
 28.0426
 28.7556
 28.7968
 28.7996
 28.8349
 27.9469
 27.9061
 27.9866
 27.8861
 28.6868
 28.5979
 28.6215
 28.6153
 29.9004
 29.7766
 29.8707
 29.8371
 29.2673
 29.3182
 30.0075
 29.9047
 30.0333
 29.9791
 30.9077
 30.8205
 30.8311
 30.8004
 28.9954
 28.8751
 28.8739
 28.9422
 30.0329
 30.0581
 30.0257
 30.1282
 30.1827
 30.2597
 30.2826
 30.2375
 31.0576
 31.0439
 30.9936
 30.929
 30.7526
 30.6922
 30.7897
 30.6263
 31.1105
 31.0048
 31.0425
 31.0759
 32.4397
 32.4497
 32.5494
 32.4749
 29.0667
 29.029
 29.105
 29.0368
 29.3632
 29.356
 32.0125
 32.1161
 32.1069
 32.1689
 30.5848
 30.5437
 29.3841
 29.4473
 29.3733
 28.8686
 28.8365
 31.2992
 31.2904
 31.3622
 31.2227
 32.1754
 32.1751
 32.1387
 32.1147
 31.4
 31.3715
 31.3064
 31.2798
 30.6283
 30.477
 30.4698
 30.4817
 29.5955
 29.6782
 29.6884
 29.6734
 29.1424
 29.1775
 29.1916
 29.1989
 30.6002
 30.5422
 30.5098
 30.5288
 29.7807
 29.7689
 29.7404
 29.8687
 29.7484
 29.8042
 29.83
 29.7776
 29.8392
 29.7657
 29.7313
 29.7428
 29.6521
 29.7955
 29.6645
 30.0457
 30.1089
 29.9887
 30.0308
 30.4167
 30.3759
 30.5589
 30.3942
 31.0118
 30.9178
 31.0721
 30.9169
 28.4177
 28.4437
 28.3964
 28.3499
 30.2726
 30.2687
 30.1399
 30.168
 31.4998
 31.4896
 31.7081
 31.5482
 31.752
 31.6669
 31.7593
 31.7616
 31.4738
 31.5834
 31.5691
 31.5388
 31.0239
 31.0262
 30.9205
 30.8957
 31.1702
 31.2299
 31.2582
 31.2049
 28.6984
 28.6499
 28.639
 28.614
 30.1342
 30.133
 30.151
 30.0637
 29.1418
 29.0588
 29.1189
 29.1689
 31.0455
 30.9608
 31.0709
 30.9859
 28.3548
 28.3281
 28.3379
 28.3192
 28.2957
 28.312
 28.2097
 29.1121
 29.2787
 29.2391
 29.2244
 30.8221
 30.7667
 30.8728
 30.7963
 28.0705
 28.1807
 28.1604
 30.3717
 30.4656
 30.3493
 30.4945
 28.7164
 28.7034
 28.8518
 28.8291
 28.7613
 28.8638
 30.4461
 30.4925
 30.4541
 31.3306
 31.2914
 31.3937
 31.3735
 31.088
 31.0958
 30.9718
 30.9995
 29.958
 29.8507
 30.0005
 28.301
 28.4195
 28.4052
 29.1483
 29.252
 29.2709
 29.2139
 28.2919
 28.308
 28.4066
 28.2232
 30.2798
 30.1867
 30.1394
 30.2027
 28.5428
 28.527
 28.4958
 28.5956
 29.7682
 29.7553
 29.8105
 29.8758
 30.7428
 30.8797
 30.8136
 28.1447
 28.211
 28.1782
 28.0812
 29.3802
 29.6543
 29.5535
 29.6033
 29.6435
 29.4039
 29.3837
 29.4599
 30.7438
 30.8268
 30.8022
 30.8065
 30.8128
 30.6731
 30.3618
 30.4597
 30.435
 30.4273
 30.1673
 30.0543
 30.1244
 30.0603
 29.1805
 28.0581
 28.1757
 28.1846
 28.1038
 32.4305
 32.5364
 32.5971
 32.5989
 30.6957
 30.729
 30.8722
 30.9116
 30.8345
 30.803
 30.8387
 30.8425
 30.9679
 30.9375
 29.0801
 29.1804
 29.1797
 29.1199
 28.9934
 28.9801
 29.0827
 28.9744
 30.6068
 30.7276
 29.2335
 29.195
 29.091
 29.1572
 29.2512
 29.1609
 29.2432
 29.6108
 29.6902
 29.7376
 29.7601
 30.1343
 30.2136
 30.1314
 30.2239
 29.091
 28.9708
 28.9927
 29.0817
 28.8451
 28.8569
 28.7679
 28.8783
 28.8958
 28.8179
 28.8612
 29.0584
 29.0554
 29.0287
 29.0951
 30.2791
 30.254
 30.2364
 30.3132
 31.8758
 31.9596
 31.8571
 31.8414
 30.4599
 30.4728
 30.5165
 30.4931
 28.8224
 28.8968
 28.9498
 28.8846
 29.3543
 29.4197
 29.422
 29.3521
 30.5756
 30.5224
 30.4891
 30.4819
 29.3708
 29.4577
 29.3843
 29.3758
 29.7665
 29.7349
 29.855
 29.7256
 29.7438
 29.6607
 29.6959
 29.6578
 29.3587
 29.2883
 29.2996
 28.6057
 28.5864
 28.6388
 28.6248
 30.5064
 30.4136
 30.4541
 30.4509
 30.0581
 29.9736
 29.981
 29.9988
 31.7872
 31.8159
 31.7543
 31.6809
 31.1664
 31.1294
 31.0987
 31.1887
 31.085
 31.246
 31.1557
 31.2502
 31.1253
 31.0837
 31.1004
 31.0413
 29.7969
 29.8441
 29.8215
 31.5888
 31.6162
 31.5307
 31.5072
 31.2501
 31.2147
 31.1646
 31.3036
 28.1137
 28.2091
 28.2114
 28.1348
 29.6736
 29.7169
 29.7727
 29.808
 28.8502
 28.861
 28.9231
 28.9153
 29.6024
 29.5664
 29.6323
 29.6754
 29.3672
 29.3116
 29.3799
 29.3666
 30.784
 30.8634
 30.8364
 30.9475
 29.9936
 29.8237
 29.9607
 29.9302
 28.7299
 28.6692
 28.7108
 28.6828
 29.5111
 29.5444
 29.4234
 29.4425
 31.2303
 31.319
 31.213
 31.1334
 28.5627
 28.5319
 28.5669
 28.5196
 30.3649
 30.4419
 31.4017
 29.9186
 29.8764
 29.8093
 29.9354
 30.1454
 30.046
 30.1541
 30.1754
 32.3318
 32.3426
 32.2566
 30.472
 30.5713
 30.594
 30.6524
 29.5615
 29.4233
 29.4875
 29.3959
 29.7703
 29.7334
 29.7514
 29.7947
 28.5624
 28.5218
 28.5177
 28.5416
 31.0166
 30.8627
 30.9801
 30.8429
 30.8507
 30.856
 30.7491
 32.051
 32.2134
 32.0738
 32.1078
 31.1051
 30.9657
 31.0816
 29.5434
 29.3841
 29.5149
 31.1286
 31.146
 31.2387
 31.1858
 30.1233
 30.028
 30.0232
 30.0067
 33.0728
 33.1031
 33.0347
 32.9245
 30.2408
 30.2672
 30.2691
 31.6162
 31.6525
 31.6186
 31.6173
 30.3876
 30.4192
 30.5211
 30.4455
 31.3341
 31.251
 31.2601
 31.1814
 29.0928
 29.055
 29.101
 29.0333
 28.9397
 29.0214
 28.9701
 28.9184
 28.3187
 28.3148
 28.2688
 28.3755
 29.7209
 29.8262
 29.7353
 29.7135
 31.2489
 31.3776
 31.268
 31.3433
 30.7562
 30.8002
 32.0597
 32.0528
 31.991
 32.0068
 30.1929
 30.1562
 30.49
 30.3236
 30.3687
 30.8937
 30.8359
 30.795
 30.8431
 28.3505
 28.3056
 28.4375
 28.4179
 28.4812
 28.4924
 28.5274
 28.5008
 30.8774
 30.8641
 30.9472
 30.9898
 31.6752
 31.6315
 29.5429
 29.5078
 29.5286
 29.4548
 31.0619
 31.0866
 31.0024
 30.9907
 30.4185
 30.556
 30.3642
 27.8603
 27.8365
 27.9198
 29.8379
 29.7284
 29.7607
 29.7686
 28.6383
 28.5608
 28.6645
 28.7005
 29.7096
 29.6379
 29.6175
 29.7267
 29.1461
 29.0778
 29.0818
 29.1785
 31.2952
 31.1886
 31.2654
 31.3334
 30.9379
 30.7758
 30.9786
 30.8332
 29.6758
 29.7587
 29.5895
 29.6982
 30.4894
 30.383
 30.3644
 30.4952
 31.2694
 31.2682
 31.1922
 31.1569
 30.1217
 30.1061
 30.0182
 29.9743
 29.1996
 29.1938
 29.2529
 29.7499
 29.6667
 29.7217
 29.6774
 32.8038
 32.7941
 32.6577
 32.6702
 31.6371
 31.6658
 31.6116
 31.6353
 30.537
 30.5295
 30.5647
 30.452
 32.335
 32.2122
 32.291
 32.3153
 28.5597
 28.5443
 28.6291
 28.2116
 28.284
 28.3564
 28.2968
 28.9685
 28.839
 28.899
 28.8893
 29.8002
 29.3496
 29.2213
 29.2028
 29.2808
 29.9819
 29.9151
 30.0293
 30.0456
 31.3046
 31.3498
 31.3381
 30.8254
 30.7925
 30.7455
 30.9082
 32.9336
 32.9605
 32.9131
 32.9372
 32.187
 32.1641
 32.1725
 32.0443
 30.593
 30.5977
 30.5356
 30.4812
 28.1107
 28.2258
 28.1822
 28.1999
 32.7194
 32.5758
 32.551
 32.501
 29.1727
 29.0883
 29.2156
 29.1279
 29.9009
 29.8736
 29.8027
 29.8799
 30.8313
 31.0234
 30.9921
 29.9591
 30.0804
 30.0694
 30.0644
 28.246
 28.1976
 28.1852
 31.2766
 31.1137
 31.0959
 30.3712
 30.3507
 30.2466
 30.2643
 30.537
 30.5671
 30.598
 30.6232
 30.4911
 30.5032
 30.4137
 30.3923
 31.3676
 31.4558
 31.3938
 31.2952
 30.0681
 30.0001
 30.1001
 30.0112
 28.3052
 28.412
 28.4153
 28.4662
 28.6083
 28.6046
 28.6077
 28.5587
 31.769
 31.7039
 31.7477
 31.7339
 28.6702
 28.6266
 28.625
 28.7286
 28.4485
 28.3357
 28.3624
 28.4602
 28.5877
 28.6126
 28.7016
 28.6971
 29.4337
 29.4333
 29.3714
 29.4024
 29.9606
 30.027
 29.9422
 30.5941
 30.7371
 30.7203
 30.6527
 28.9292
 28.9862
 29.0196
 28.9086
 29.0195
 28.9685
 28.9344
 28.9567
 27.8402
 27.8516
 27.9639
 27.905
 32.3799
 32.3004
 32.3118
 32.2855
 31.9777
 32.0569
 32.0272
 31.9452
 31.4567
 31.5153
 31.396
 31.5233
 30.3809
 30.5435
 30.4397
 30.4632
 30.5528
 30.5478
 30.5521
 28.4111
 28.3646
 28.287
 28.3331
 28.9364
 28.9728
 29.0271
 29.0068
 30.0635
 30.1241
 30.1549
 30.1098
 28.568
 28.5166
 29.5908
 29.5948
 29.6041
 29.6742
 28.6704
 28.6355
 28.5261
 28.5997
 29.7519
 29.6591
 29.775
 29.644
 30.588
 30.5452
 30.7057
 30.7008
 31.8302
 31.8772
 31.849
 31.7189
 33.0239
 32.8981
 32.9655
 33.0025
 28.7159
 28.7519
 28.7505
 28.7019
 28.3334
 28.3166
 28.318
 28.2661
 30.3389
 30.4616
 30.3997
 30.4813
 29.8676
 29.9127
 29.9285
 29.8718
 30.9511
 31.0653
 30.8729
 29.3365
 29.4075
 29.3813
 29.4241
 31.0055
 31.0219
 30.954
 30.9604
 30.0845
 30.1628
 30.2319
 30.1721
 29.3808
 29.4214
 29.4104
 29.3642
 29.7678
 29.7952
 29.8687
 28.5448
 28.6161
 28.6018
 28.6057
 29.4184
 29.3088
 32.1955
 31.9746
 32.1199
 32.0752
 29.0903
 29.1595
 29.1269
 30.9042
 30.8491
 30.8845
 30.8619
 29.6002
 29.6299
 29.6542
 29.8498
 29.9615
 29.8618
 29.8982
 29.5009
 29.595
 29.4483
 29.5426
 29.3844
 29.2948
 32.775
 32.7882
 32.8808
 32.7335
 32.606
 32.7191
 32.6551
 32.6278
 29.882
 29.98
 29.9362
 29.984
 29.6151
 29.6744
 29.5986
 29.637
 32.7334
 32.7407
 32.6283
 32.6493
 30.7937
 30.9189
 31.5069
 31.5003
 31.4029
 31.3266
 29.3354
 29.3832
 29.2647
 29.3137
 29.5896
 29.5472
 29.4818
 29.6193
 29.4019
 29.5065
 29.5314
 29.5001
 30.5789
 30.5739
 30.4903
 30.5832
 31.2703
 31.2181
 31.3832
 31.2347
 31.7446
 31.6675
 31.6337
 31.7082
 31.2355
 31.2719
 31.2624
 31.0784
 29.002
 29.0999
 29.0162
 29.078
 29.8789
 30.1034
 29.9987
 32.379
 32.2507
 32.2407
 29.2468
 29.1097
 29.1944
 29.2013
 29.1573
 29.3224
 29.23
 29.21
 30.1346
 30.1956
 30.2425
 30.2093
 30.196
 30.0926
 30.1622
 31.2092
 31.2939
 31.3172
 31.3165
 28.894
 28.9181
 28.8519
 28.8925
 31.5989
 31.6475
 31.6293
 31.562
 31.6287
 31.7172
 31.6546
 28.1251
 28.0259
 27.9789
 28.0618
 28.6328
 28.5841
 30.742
 30.7761
 30.6879
 30.7317
 29.9463
 29.8446
 29.9684
 30.0444
 30.0967
 30.0757
 30.148
 31.228
 31.1569
 31.1502
 28.9327
 28.8845
 28.9759
 28.9503
 31.339
 31.1908
 31.2847
 31.3066
 29.1538
 29.2429
 29.2552
 29.1927
 31.5268
 31.4425
 31.1993
 31.3484
 31.2572
 31.305
 30.9304
 30.9953
 30.9724
 30.9114
 32.2235
 32.2151
 32.3246
 32.3227
 29.0565
 28.9547
 30.5328
 30.4757
 30.4658
 30.4707
 28.2257
 28.2615
 28.2391
 28.2112
 30.645
 30.6719
 30.5287
 30.4774
 28.8888
 28.81
 28.7836
 28.77
 28.4893
 28.4065
 28.5403
 28.4196
 29.1573
 29.2404
 28.5587
 28.4968
 28.5258
 28.5298
 31.1892
 31.1925
 31.1902
 31.1046
 28.5964
 28.5671
 28.5505
 28.6075
 28.1828
 28.0668
 28.0715
 28.1569
 29.449
 29.4378
 29.3665
 29.3853
 30.0746
 30.1008
 29.9942
 29.9554
 28.5311
 28.6434
 28.584
 28.5222
 32.159
 31.9584
 31.9983
 32.1951
 28.5658
 28.4431
 30.6007
 30.5246
 30.5383
 30.4391
 28.6933
 28.7003
 28.8091
 28.7995
 31.1947
 31.0911
 31.1138
 31.1187
 30.3052
 30.4615
 30.42
 30.3229
 30.9928
 31.0532
 30.906
 31.2556
 31.3466
 31.2995
 31.4106
 31.5053
 31.3844
 31.4253
 31.3581
 29.5889
 29.6433
 29.666
 28.7556
 28.7455
 28.6849
 28.7012
 29.8159
 29.8681
 29.8605
 31.3018
 31.3759
 31.3602
 29.8314
 29.6859
 29.8043
 29.7318
 29.4615
 29.491
 29.4491
 29.3531
 30.0692
 29.9558
 29.9472
 29.9917
 30.2792
 30.3252
 30.3461
 30.4605
 30.4957
 30.4791
 30.3597
 30.3352
 30.2665
 30.4165
 28.6554
 28.75
 28.6792
 28.7407
 29.1049
 29.1671
 29.1275
 29.0793
 30.23
 30.141
 30.1759
 30.0327
 31.2187
 31.2875
 31.2734
 29.752
 29.8031
 29.7477
 29.7462
 30.7192
 30.8612
 30.8136
 30.8741
 32.5625
 32.6109
 32.6433
 32.6826
 30.4203
 30.4725
 30.4514
 30.4557
 28.6006
 28.6137
 28.5507
 28.5681
 30.4206
 30.2917
 30.3525
 30.4096
 31.4245
 31.4247
 31.3899
 31.3267
 31.2609
 31.2996
 31.262
 30.0022
 29.9785
 29.9795
 29.4419
 30.5709
 30.7106
 30.5954
 30.601
 28.5259
 28.5391
 28.4909
 28.6738
 28.6577
 28.6135
 30.4248
 30.3091
 30.3714
 30.3102
 28.0574
 28.0236
 28.0063
 27.9973
 31.2842
 29.6894
 29.7801
 29.7285
 29.7368
 31.2068
 31.1811
 31.1786
 31.1294
 28.5114
 28.4811
 28.6001
 28.5123
 29.2245
 29.0808
 29.1534
 29.1938
 28.9632
 28.9142
 29
 28.9972
 31.5419
 31.4892
 31.4196
 31.5193
 30.6866
 30.5992
 30.6992
 30.693
 29.8738
 29.9231
 29.816
 29.9105
 30.5119
 30.6248
 30.4343
 30.5844
 29.3425
 29.3165
 29.2368
 29.2578
 31.1934
 31.286
 31.1588
 31.1377
 30.7334
 30.6463
 30.5705
 30.6378
 29.5447
 29.536
 29.5523
 29.4448
 28.3879
 28.2761
 28.345
 28.3014
 31.3551
 31.4071
 31.225
 31.3546
 32.071
 32.1691
 32.062
 32.0675
 28.4655
 28.415
 28.443
 28.3935
 32.0919
 32.1811
 31.8192
 31.855
 31.801
 31.7015
 29.911
 29.8571
 29.9364
 29.9953
 30.6465
 30.5997
 30.5991
 30.7073
 27.8859
 27.851
 27.8575
 27.9224
 28.5616
 28.5677
 28.4741
 29.2209
 29.2244
 29.1684
 29.2724
 31.4098
 31.3651
 31.4711
 31.3393
 30.7343
 30.7465
 30.7826
 30.8189
 30.7625
 30.6985
 29.267
 29.1439
 29.1809
 29.2282
 29.3399
 29.3314
 29.4065
 29.3207
 29.1112
 29.0994
 29.2082
 29.1121
 28.2048
 28.1848
 28.3246
 28.1648
 28.9987
 28.9823
 29.0705
 30.3526
 29.7561
 29.7529
 29.7135
 29.7909
 29.6983
 29.7969
 29.7826
 29.7988
 28.8214
 28.8807
 28.8751
 28.9239
 29.0098
 29.0488
 29.0563
 28.9657
 29.5952
 29.6743
 29.6618
 30.6249
 30.6122
 30.5352
 30.7517
 29.7354
 29.5801
 29.6887
 29.6358
 30.4338
 30.3799
 30.4833
 32.4669
 32.4447
 32.4698
 32.3907
 28.7844
 28.681
 28.7178
 28.671
 28.7743
 28.643
 28.7126
 32.743
 29.6883
 29.6596
 29.6918
 29.5833
 29.6326
 29.6051
 32.0222
 32.0106
 32.0159
 31.9334
 31.4419
 31.3995
 31.3077
 31.4332
 30.9536
 30.8785
 30.814
 30.8907
 30.9963
 30.9495
 30.9178
 31.0236
 31.035
 30.951
 30.3196
 30.3581
 30.3764
 30.4366
 30.3203
 30.2421
 27.7876
 27.7959
 31.3157
 31.1006
 31.2668
 31.1594
 30.0811
 30.0961
 30.0752
 30.1727
 31.3193
 31.329
 31.532
 31.3881
 28.7012
 28.6636
 28.795
 28.7476
 28.7011
 28.7672
 28.6996
 28.7714
 29.275
 29.2314
 29.2088
 29.2429
 29.8856
 29.8796
 29.7478
 29.8153
 29.9198
 29.9683
 31.2588
 29.1023
 29.0132
 29.0433
 29.0187
 28.2313
 28.237
 28.1229
 28.2647
 28.7147
 28.6218
 28.7288
 28.6878
 33.0454
 32.9899
 32.9842
 32.9708
 28.3226
 28.3119
 28.3616
 28.351
 30.9114
 30.8953
 30.9931
 30.8688
 30.6567
 30.739
 30.7113
 30.7935
 29.3028
 29.2993
 29.2257
 29.2406
 29.2908
 29.2981
 29.3481
 29.331
 31.2364
 31.0796
 31.1698
 31.1067
 28.4177
 28.3696
 28.4214
 28.4114
 28.6937
 28.6359
 28.6628
 28.6136
 29.0154
 28.9968
 28.9428
 28.9417
 28.4622
 28.5165
 28.5145
 28.4646
 30.735
 30.6338
 30.6416
 30.585
 31.3888
 31.3235
 31.3282
 31.2487
 28.7298
 28.8009
 28.816
 28.7978
 30.2875
 30.2404
 30.3229
 30.4014
 29.938
 29.9784
 29.9908
 29.9387
 32.8958
 32.9416
 32.7463
 32.9286
 28.3151
 28.3038
 28.5267
 28.509
 28.5834
 28.4787
 31.6581
 31.7927
 31.8423
 31.6679
 30.7258
 30.8496
 30.8366
 30.881
 28.6527
 28.7146
 28.6346
 28.6037
 30.476
 30.438
 30.4886
 30.3867
 30.343
 30.3066
 30.4259
 30.4114
 28.2115
 28.205
 28.2453
 28.2944
 29.7976
 29.8139
 29.7891
 29.7555
 29.9781
 29.9476
 29.9753
 30.0301
 29.0098
 28.9653
 28.9358
 28.9532
 29.2878
 29.2965
 29.3419
 29.3889
 30.2716
 30.2609
 30.3681
 30.6698
 30.5936
 30.6519
 30.5256
 31.8407
 31.7968
 31.8894
 31.6758
 30.457
 30.3781
 30.3653
 30.3478
 29.8967
 29.9439
 29.8936
 29.9718
 28.1266
 28.109
 28.1285
 28.2252
 30.4964
 30.3477
 30.4237
 30.4344
 31.6476
 31.6346
 31.7283
 31.747
 29.1254
 29.0707
 29.1071
 29.1706
 29.4235
 29.4185
 29.4685
 29.8736
 29.7454
 29.7425
 29.7083
 31.7313
 31.7044
 31.6888
 31.6302
 29.6674
 29.7433
 29.7083
 29.7849
 28.5094
 28.5155
 28.4877
 28.4899
 29.7817
 29.7144
 29.7543
 29.6433
 31.5414
 31.6343
 31.5679
 31.5159
 31.2018
 31.1483
 31.2436
 31.3218
 27.7362
 27.7561
 27.7187
 27.7163
 30.8
 30.7867
 30.7934
 30.9148
 29.4887
 29.6285
 29.5795
 29.5602
 27.8362
 27.8191
 27.8793
 27.879
 28.5718
 28.4799
 28.5175
 29.1078
 29.1323
 29.0262
 29.0011
 28.6286
 28.6515
 28.5325
 28.661
 32.7913
 32.7433
 32.6341
 32.6848
 31.0231
 30.893
 31.0316
 28.2898
 28.1793
 28.1967
 28.2092
 29.5728
 29.5978
 29.507
 29.6106
 28.886
 28.9166
 28.8166
 28.9554
 31.3226
 31.328
 31.3895
 31.4715
 30.5118
 30.4199
 30.5434
 30.4607
 29.2673
 29.3943
 29.3677
 31.9616
 31.9538
 31.8838
 31.8682
 31.2135
 31.2824
 31.2322
 31.2659
 30.4312
 28.2245
 28.1941
 28.197
 28.1464
 32.5149
 32.4965
 32.5536
 32.5798
 29.0054
 28.8895
 28.9409
 28.8826
 29.4053
 29.4585
 29.4039
 29.5117
 32.8951
 28.7436
 28.8139
 28.7061
 28.318
 28.2346
 28.2942
 28.2794
 30.1972
 30.135
 29.9989
 30.1321
 29.3879
 29.3963
 29.3375
 29.4325
 30.9186
 31.0204
 29.9184
 29.9576
 29.9568
 29.8626
 30.9979
 31.0661
 31.1001
 30.9905
 30.6014
 30.6394
 30.4964
 30.4804
 29.184
 29.2291
 29.179
 29.1452
 31.9757
 31.9303
 31.9246
 31.8228
 31.2896
 31.3717
 31.3071
 31.4133
 32.0506
 31.8823
 31.699
 31.6998
 31.6695
 31.6782
 31.8218
 31.8843
 31.7548
 31.8804
 28.2421
 28.2944
 28.3384
 28.3498
 29.6045
 29.5913
 29.6304
 29.4929
 30.3896
 30.2715
 30.3269
 30.339
 29.6706
 29.6979
 29.7134
 29.6364
 28.182
 28.1886
 32.0189
 32.1032
 32.0863
 31.9995
 28.219
 28.1803
 28.2419
 32.2176
 32.3067
 32.2171
 32.2839
 28.3099
 28.384
 28.3384
 28.3916
 30.4872
 30.5526
 30.451
 30.5417
 30.1504
 30.1319
 30.1715
 28.1761
 28.2111
 28.2096
 28.1623
 29.6342
 29.7128
 29.6172
 29.6953
 30.0726
 30.0287
 29.9399
 30.033
 30.3769
 30.4487
 30.2666
 30.4527
 30.3104
 30.3788
 29.4831
 29.5735
 29.5238
 28.1388
 28.2557
 28.2707
 28.1893
 30.1837
 30.119
 30.1881
 30.1734
 30.3265
 30.3751
 30.6888
 30.8559
 30.8641
 30.8195
 32.4241
 32.3888
 32.3193
 29.7703
 29.7401
 29.8502
 29.8608
 28.309
 28.3028
 28.2924
 31.9459
 32.1176
 31.9219
 30.0587
 30.1621
 30.1138
 30.1848
 29.2477
 29.2567
 29.3521
 29.3209
 32.433
 32.4473
 32.4136
 32.4304
 28.7171
 28.6998
 28.7553
 28.7621
 29.1669
 29.259
 29.246
 29.2503
 28.6453
 28.6191
 28.6728
 28.2677
 28.2626
 28.1252
 28.1868
 29.808
 29.9065
 29.8142
 29.8173
 28.4909
 28.5095
 28.5535
 28.5537
 30.5276
 30.5498
 30.4928
 30.5938
 28.1785
 29.4434
 29.9603
 30.0061
 29.9263
 30.0348
 29.4369
 29.4446
 29.5358
 29.5449
 29.0415
 29.0166
 29.0636
 29.1438
 29.4339
 29.4783
 29.3833
 29.4208
 28.8519
 28.8976
 28.8195
 28.8349
 29.9728
 30.024
 29.9832
 29.9146
 30.0617
 30.0265
 30.0111
 29.9763
 30.348
 30.3599
 30.3926
 30.2875
 29.9704
 29.9682
 30.0598
 31.5143
 31.4805
 31.5303
 31.456
 29.9146
 29.3472
 29.2017
 29.1956
 29.2898
 28.3535
 28.3465
 28.4404
 30.6495
 30.7987
 30.7324
 30.785
 29.8021
 29.6944
 29.7169
 29.3741
 29.3548
 29.4506
 29.4289
 29.2749
 29.2616
 29.1685
 29.1597
 28.5546
 28.5183
 28.4682
 28.5304
 31.0091
 31.0071
 30.9526
 31.1039
 29.7056
 29.7941
 29.8207
 29.8272
 30.0453
 30.1085
 30.1624
 30.0906
 30.1291
 30.2017
 30.2015
 30.2719
 29.9463
 29.9846
 29.9357
 30.0206
 28.9942
 29.1253
 28.9764
 29.0638
 30.0918
 30.2279
 30.1754
 30.1603
 32.0447
 32.0486
 32.0397
 31.9686
 31.91
 31.8291
 31.8075
 29.966
 29.9652
 29.8883
 29.8821
 29.95
 29.8495
 29.8436
 29.8399
 30.0141
 30.112
 29.9771
 29.9477
 28.3956
 28.3936
 28.4786
 28.4854
 29.0241
 29.1032
 29.1017
 29.0125
 30.7308
 30.6777
 30.6742
 30.655
 31.3586
 31.2534
 31.231
 31.3787
 28.676
 28.7004
 28.7428
 28.6745
 32.4677
 32.4113
 32.3759
 32.3366
 30.3531
 30.2585
 30.3075
 30.325
 31.5888
 31.5511
 31.548
 31.164
 31.0345
 31.0562
 31.0271
 29.1322
 29.1864
 29.1155
 29.2212
 30.9623
 31.1187
 31.0498
 31.0173
 31.8968
 31.7261
 31.837
 32.564
 32.4084
 32.3496
 32.3042
 28.1235
 28.1006
 28.059
 28.0094
 30.8844
 30.9503
 30.9011
 30.8638
 29.5069
 29.6239
 29.6091
 29.5211
 28.4787
 28.5386
 28.5916
 28.5473
 28.8709
 28.7713
 28.9086
 28.844
 30.7527
 30.7459
 30.8062
 30.7696
 31.6903
 31.7948
 31.8625
 31.7714
 29.7469
 29.6894
 29.7711
 29.7209
 31.5846
 31.4596
 30.338
 30.4956
 30.4777
 30.3733
 30.072
 30.0816
 30.133
 30.0404
 30.1642
 30.1579
 30.1993
 31.4032
 31.3534
 31.3974
 29.414
 29.4178
 29.3947
 29.3619
 29.6042
 29.6126
 29.6775
 29.5378
 30.7909
 30.6833
 30.7274
 30.7846
 29.0036
 28.9039
 29.0322
 28.9816
 29.9631
 30.0623
 30.0076
 29.9306
 31.646
 31.6481
 31.6751
 31.6459
 30.5848
 30.5552
 30.6057
 29.5899
 29.5876
 29.6701
 29.579
 29.8673
 29.8266
 29.7602
 28.1206
 28.1787
 28.1752
 28.208
 32.086
 32.0988
 32.0915
 32.2115
 30.5631
 30.469
 30.4806
 30.5438
 30.593
 30.6191
 30.7081
 30.5978
 28.0486
 28.0783
 27.9808
 27.9151
 29.0257
 28.9725
 28.9864
 31.0301
 31.1049
 31.1058
 31.0982
 28.7812
 28.8851
 28.8322
 30.8775
 30.8747
 30.9431
 30.9215
 32.761
 32.6848
 32.8608
 32.8009
 28.4508
 28.4291
 28.4039
 28.4886
 31.3917
 31.4147
 31.4565
 31.5816
 28.2802
 28.3333
 28.3445
 28.3204
 31.121
 30.9645
 31.0632
 31.0284
 33.0142
 33.0302
 32.9356
 33.0096
 31.7575
 31.9372
 31.8411
 31.7066
 31.4147
 31.2877
 31.2611
 31.4271
 29.9098
 30.0525
 31.2993
 31.3201
 31.4793
 31.4418
 29.5808
 29.6436
 29.6725
 29.7124
 30.1109
 30.1087
 30.1875
 30.0608
 28.5365
 28.6197
 28.4617
 28.4537
 28.6349
 28.7015
 28.6597
 28.6007
 28.8426
 28.8494
 28.8423
 28.9305
 28.6136
 28.6021
 28.5839
 28.6414
 29.2049
 29.2437
 29.1574
 29.2225
 28.8089
 28.7328
 28.7566
 28.8029
 32.0069
 32.1494
 32.1789
 31.9908
 28.4719
 28.4358
 28.4497
 28.4623
 30.3683
 30.469
 30.4565
 30.4006
 29.0187
 29.1257
 29.1036
 28.6514
 28.5779
 28.5805
 28.6363
 31.3
 31.401
 31.4184
 31.3577
 31.9236
 31.9866
 32.0842
 32.0345
 29.0444
 29.0558
 29.1286
 28.9874
 30.1066
 30.1309
 30.1861
 30.202
 29.2693
 29.3317
 29.2714
 29.2445
 29.243
 29.2437
 29.1104
 30.4622
 30.4796
 30.5794
 29.3373
 29.317
 29.75
 29.8835
 28.1258
 28.0842
 28.091
 28.1261
 29.8042
 29.7472
 29.7976
 29.6884
 29.2833
 29.3479
 29.2248
 29.3324
 29.7052
 29.6526
 29.6648
 29.5937
 28.8442
 28.8218
 28.7781
 28.8364
 28.838
 30.1946
 30.1942
 30.2865
 30.2901
 31.6726
 31.6733
 31.668
 31.6465
 29.2002
 29.294
 29.2054
 29.2686
 29.2716
 29.3719
 29.3674
 29.2869
 32.7502
 32.7661
 32.7034
 32.636
 29.99
 29.9247
 29.968
 30.0054
 29.9578
 30.0465
 30.0699
 29.9803
 29.3471
 29.415
 31.3293
 31.3006
 31.2493
 31.3177
 30.5944
 30.5397
 30.5786
 30.6348
 31.1748
 31.2328
 31.2745
 31.2468
 30.6636
 30.5881
 30.6027
 30.6872
 31.2149
 31.227
 31.2683
 31.1829
 29.0243
 29.0419
 29.0008
 28.9483
 28.4753
 28.4616
 28.5437
 28.4963
 30.8918
 30.931
 30.9887
 30.8516
 30.0069
 30.1255
 30.0363
 30.0379
 28.8427
 28.9455
 28.8862
 28.9293
 30.3865
 30.4099
 30.3938
 30.2987
 30.8799
 30.8086
 31.7814
 31.7486
 31.7132
 31.7973
 30.3012
 30.3305
 30.3352
 30.4144
 28.7369
 28.7718
 28.7721
 28.6854
 28.3875
 28.4432
 28.4363
 28.3622
 32.5118
 32.4636
 30.3022
 30.2347
 30.1756
 30.1903
 30.3379
 30.4958
 30.3919
 30.4065
 30.5381
 30.6068
 31.0564
 30.9979
 31.0164
 30.9548
 30.1391
 30.0146
 30.0131
 31.9821
 31.9198
 31.9226
 31.866
 28.5718
 28.5209
 28.6153
 28.5646
 28.4282
 28.4209
 28.4174
 28.0951
 28.1449
 28.2007
 28.1644
 29.7343
 29.5759
 29.6569
 29.6186
 29.9222
 29.8196
 29.9707
 29.8764
 28.9485
 28.8434
 28.7958
 28.8699
 29.2868
 29.2762
 29.1999
 29.2811
 29.4724
 29.3708
 29.4082
 29.885
 29.8716
 29.9084
 29.8051
 29.1994
 29.0584
 29.1096
 29.1889
 30.242
 30.2743
 30.2254
 30.2147
 29.9478
 29.9604
 29.882
 30.0287
 29.3692
 29.3888
 29.4205
 29.3314
 29.9536
 30.0276
 30.0579
 29.9557
 32.912
 32.9458
 32.9286
 32.8982
 30.9842
 31.0278
 31.0218
 31.0973
 29.1921
 29.1752
 29.112
 29.1022
 31.0659
 31.0414
 31.1747
 31.2138
 31.3095
 31.4526
 31.3033
 31.2256
 28.6428
 28.6397
 28.5839
 28.6969
 28.6562
 28.7355
 28.6724
 28.6793
 28.4393
 28.5171
 28.431
 28.4304
 28.8841
 28.8925
 28.8217
 28.8411
 30.4089
 30.358
 30.4719
 30.3596
 31.1401
 31.183
 31.0778
 31.1741
 29.3227
 29.4312
 29.3244
 29.4136
 31.0752
 31.0432
 31.0179
 31.0384
 31.8818
 31.8213
 31.8207
 31.7381
 30.0499
 29.9831
 30.0328
 29.9612
 30.4876
 30.551
 30.6131
 30.5096
 30.4985
 30.3893
 30.4916
 31.662
 31.7142
 31.8342
 31.7373
 30.8623
 30.8798
 30.9209
 30.8918
 29.2631
 29.2093
 29.2546
 29.1987
 29.9375
 29.8557
 29.8432
 28.1061
 28.1821
 28.1908
 28.1344
 28.3578
 28.283
 28.2458
 28.309
 30.6428
 30.566
 30.6768
 30.5727
 29.5791
 29.5223
 31.4172
 31.4191
 31.5334
 31.3904
 29.9209
 29.9732
 30.0553
 29.9952
 28.3971
 28.3841
 28.4606
 28.4023
 31.0051
 30.9781
 30.9099
 30.3691
 30.3783
 30.3187
 30.449
 30.5512
 30.394
 30.4371
 30.4759
 29.9905
 29.9045
 29.8921
 30.011
 29.9668
 29.9214
 29.8638
 29.9363
 29.7885
 29.7158
 29.7704
 29.7188
 30.0803
 30.0069
 28.8461
 28.8658
 28.7356
 28.8461
 29.9962
 30.0933
 30.053
 30.0043
 29.4604
 29.5883
 29.5537
 30.0545
 29.9673
 30.0068
 29.9618
 29.5486
 29.5878
 29.6305
 29.5626
 31.0401
 31.1372
 31.0633
 31.1848
 30.2407
 30.2537
 30.1582
 29.7222
 29.7241
 29.5884
 29.7736
 30.0939
 30.1025
 30.0394
 31.1545
 31.1343
 31.2346
 29.4869
 29.4949
 29.4946
 29.5773
 29.892
 29.8107
 29.8211
 32.7653
 32.8053
 32.7399
 32.8997
 29.3323
 29.3972
 29.4291
 29.3299
 30.4222
 30.5305
 30.5191
 30.5379
 28.8979
 28.9074
 28.8822
 28.809
 28.7423
 28.8101
 28.7115
 28.7278
 31.2908
 31.1555
 31.3028
 31.2898
 29.793
 29.8848
 29.9127
 30.5997
 30.732
 30.6629
 30.6461
 28.5751
 28.6997
 28.6407
 29.9011
 29.839
 29.8871
 29.7945
 29.2899
 29.2647
 29.2641
 29.2627
 28.5743
 28.5189
 28.525
 28.5808
 32.7599
 32.864
 32.8129
 32.7591
 30.7657
 30.7543
 30.6938
 30.7744
 29.7275
 29.5783
 29.6254
 29.6093
 31.7789
 31.9064
 31.8723
 29.8525
 29.7754
 29.8066
 29.8738
 28.395
 29.3546
 29.3973
 29.5385
 29.4492
 28.8445
 28.8443
 28.8146
 28.7872
 29.0265
 29.1019
 29.1136
 29.0658
 29.7221
 29.7689
 29.8081
 29.9144
 29.9163
 29.9055
 32.4285
 32.3828
 32.3776
 32.3476
 30.615
 30.6573
 30.6936
 30.7526
 30.7363
 30.6725
 30.7351
 28.4598
 28.2934
 28.4668
 28.4659
 29.9954
 30.0058
 29.9043
 29.9117
 29.5749
 29.6091
 29.6771
 29.6159
 28.7166
 28.754
 28.6858
 28.7617
 29.9191
 29.9462
 29.8516
 29.98
 32.0959
 31.9795
 32.0819
 32.056
 30.0786
 30.1138
 30.0689
 30.0994
 30.7794
 30.7713
 30.7595
 30.701
 31.0677
 31.1442
 31.0937
 31.0646
 31.7116
 31.6659
 31.7245
 31.7119
 32.1181
 32.1727
 32.1128
 32.0111
 28.0365
 28.1398
 28.1009
 28.1083
 32.4402
 32.3796
 32.4252
 32.2282
 30.0104
 30.0593
 29.9978
 30.0808
 28.098
 28.1236
 28.1536
 28.1485
 30.3789
 30.3884
 30.3416
 30.3041
 31.6686
 28.577
 28.6206
 28.6022
 28.5356
 31.2006
 32.0999
 32.0148
 31.9577
 32.0181
 29.664
 29.5606
 28.9745
 29.0826
 28.9813
 29.0718
 28.613
 28.6321
 28.5773
 28.5914
 28.0012
 28.083
 27.9998
 28.926
 28.8422
 28.8315
 28.826
 30.2673
 28.2717
 29.2866
 29.3313
 29.3493
 28.4764
 28.4292
 28.4041
 28.4633
 30.3167
 30.3138
 30.3259
 30.3807
 30.8551
 30.8574
 30.8647
 30.9752
 29.3068
 29.3737
 29.3589
 29.2333
 28.285
 28.2133
 28.2991
 28.282
 28.6681
 28.6943
 28.6455
 28.6978
 29.4727
 29.3562
 29.3677
 32.0954
 32.1344
 31.9756
 32.0422
 32.859
 32.8732
 32.9
 32.7742
 31.4089
 31.5486
 31.5227
 31.4667
 29.7059
 29.6422
 29.7484
 31.7173
 31.6217
 31.6685
 31.7676
 28.7539
 28.7715
 28.6837
 28.9509
 28.9077
 28.9742
 28.9441
 31.0799
 31.1318
 29.253
 29.1067
 27.8304
 27.9034
 27.8259
 28.0886
 28.0757
 28.0771
 28.0442
 30.1551
 30.2319
 30.109
 30.1686
 30.6326
 30.6477
 30.6954
 30.593
 30.1162
 30.1507
 30.0732
 30.063
 28.3226
 28.3212
 28.3117
 28.3318
 29.2248
 29.2021
 29.2296
 29.2784
 31.6223
 31.6197
 31.6462
 31.5228
 29.2375
 29.219
 29.2733
 29.1756
 29.7657
 29.7264
 29.8193
 29.7251
 29.2767
 29.1932
 29.2193
 33.0835
 33.0248
 33.0202
 30.584
 30.6349
 30.3055
 30.3137
 30.3715
 30.2701
 29.1099
 29.0239
 29.095
 29.0999
 29.196
 29.1656
 29.0677
 29.1873
 29.1847
 29.2101
 29.0933
 32.7074
 32.7276
 31.8233
 31.8196
 31.7355
 31.8165
 29.6632
 32.8245
 32.8777
 32.8327
 32.7811
 30.8287
 30.7178
 30.8089
 30.8314
 30.2609
 30.2722
 32.0792
 31.9554
 31.9274
 31.9911
 28.0138
 27.9206
 27.9793
 27.9981
 28.2615
 28.2588
 28.3036
 28.1725
 31.2143
 31.0426
 31.1694
 31.0698
 30.7499
 30.8244
 30.628
 30.6874
 30.5967
 30.6756
 30.6013
 29.0917
 29.0742
 29.156
 29.0823
 31.6244
 31.5618
 31.517
 31.4788
 30.0804
 30.0131
 30.0935
 29.5618
 29.565
 29.512
 29.4496
 30.6689
 30.6517
 30.5676
 30.6241
 31.0703
 30.9607
 30.9046
 30.9937
 30.9904
 31.0614
 31.0479
 30.965
 30.3969
 30.3056
 30.2876
 30.3979
 29.3232
 29.3884
 30.8221
 30.7933
 30.7465
 30.8396
 28.0842
 28.2022
 28.1877
 28.1811
 31.1115
 31.0581
 31.1122
 31.0453
 32.0746
 32.1111
 31.9628
 32.0499
 29.7131
 29.6452
 32.4634
 32.3741
 32.5379
 32.3862
 30.5235
 30.527
 30.5582
 28.4543
 28.5017
 28.4267
 28.4244
 32.3043
 32.2823
 32.2805
 31.0205
 31.0223
 30.9347
 30.9654
 32.0346
 31.1677
 31.1955
 31.2082
 31.3134
 29.9121
 29.9615
 29.9007
 29.9424
 30.1437
 30.1222
 30.0757
 30.1532
 28.3593
 28.2691
 29.8746
 29.851
 29.8793
 29.8931
 31.1585
 31.275
 31.1322
 31.2936
 30.5821
 30.4061
 30.4972
 30.5774
 28.5686
 28.6245
 28.6135
 28.6204
 30.311
 30.2874
 30.1984
 30.2136
 29.7274
 28.7375
 28.6795
 28.7505
 30.5516
 30.5333
 30.6205
 30.4836
 29.2309
 29.2477
 29.2038
 29.3125
 30.4631
 30.5088
 30.5225
 30.4046
 28.3581
 28.4378
 28.4455
 28.4071
 27.8538
 27.8145
 27.8958
 31.0278
 30.9557
 30.8628
 30.9215
 29.5711
 29.4837
 29.6098
 29.581
 29.1946
 29.1834
 29.1198
 29.0796
 30.6012
 30.634
 31.0551
 31.1586
 31.1724
 31.0571
 30.4737
 30.327
 29.4373
 29.4185
 29.4593
 29.4837
 29.2987
 29.2644
 29.2071
 29.319
 30.2738
 30.2748
 30.1711
 30.1925
 29.5241
 29.5151
 29.5053
 28.593
 28.7063
 28.7182
 28.6849
 28.9409
 28.9636
 28.9122
 30.3407
 30.1807
 30.3031
 30.2508
 30.9001
 31.024
 31.0871
 30.9501
 29.1954
 29.2804
 29.2868
 29.2135
 30.1904
 30.1999
 30.2904
 31.6904
 31.7185
 31.6891
 31.7196
 30.6471
 30.6762
 30.6125
 30.5783
 28.9494
 28.9312
 29.0298
 28.067
 28.1616
 28.1716
 29.2923
 29.2504
 29.255
 30.6536
 30.7491
 30.6286
 30.7179
 28.2021
 28.2141
 28.2105
 28.1589
 29.4344
 29.4713
 29.4225
 29.3665
 28.8211
 28.7832
 28.6617
 28.6979
 28.9447
 28.9136
 28.9585
 28.9494
 31.9249
 31.9155
 31.9891
 30.2744
 30.2456
 30.3115
 30.2391
 28.9046
 28.8438
 28.9335
 28.9337
 30.1244
 30.0795
 30.0765
 29.9836
 29.1486
 29.1455
 29.1681
 29.2537
 28.3549
 28.3205
 31.6392
 31.584
 31.5729
 31.525
 28.9833
 29.0278
 28.9296
 29.016
 30.3664
 30.4203
 30.4378
 30.3454
 29.3036
 29.3665
 28.2492
 28.2478
 28.3025
 28.2028
 28.8198
 28.736
 28.8477
 28.6749
 28.1372
 28.1434
 28.0691
 28.0157
 29.1187
 29.1479
 29.1015
 29.2678
 29.1431
 29.1888
 29.2038
 29.1459
 29.2204
 29.1987
 29.2745
 30.8319
 30.8074
 30.8968
 30.9325
 32.0872
 32.1886
 32.0231
 29.9858
 29.9701
 29.9768
 28.6314
 28.7005
 28.6475
 28.7255
 30.2046
 30.1431
 30.0669
 30.1311
 31.2013
 31.2917
 31.2367
 31.1802
 30.0017
 30.1204
 30.1176
 30.1571
 30.4595
 30.3271
 30.4368
 28.2686
 28.2335
 28.3225
 28.3208
 31.5991
 31.5628
 31.2646
 31.1996
 31.1901
 29.2003
 29.1848
 29.2489
 29.127
 30.1155
 30.0454
 29.9875
 30.0942
 31.4028
 31.3998
 31.2805
 31.3851
 29.7066
 29.8483
 29.853
 29.7383
 30.5308
 30.5827
 30.5023
 30.4863
 28.597
 28.5835
 28.4808
 30.6557
 30.6948
 30.5813
 30.5947
 29.6469
 29.597
 31.386
 31.2402
 31.2497
 31.3711
 31.2669
 31.3273
 31.2949
 31.3427
 28.441
 28.5044
 30.9808
 30.9257
 30.9389
 31.0272
 29.898
 29.9886
 29.9359
 29.9099
 30.4995
 32.0823
 32.1474
 32.1322
 29.7083
 29.6983
 29.6662
 29.7646
 28.482
 28.478
 28.5241
 28.4443
 31.6657
 31.7368
 31.6044
 31.6714
 31.1842
 31.0951
 31.2178
 31.1918
 29.1916
 29.1295
 29.1221
 31.5856
 31.5216
 31.507
 31.4546
 28.081
 28.1814
 28.1075
 28.0733
 31.6328
 31.5632
 31.552
 31.6852
 29.3813
 29.4638
 29.3996
 29.3136
 30.4365
 30.3744
 30.3928
 30.4538
 31.2495
 31.2174
 31.255
 30.4752
 30.3589
 30.4924
 30.3989
 31.4512
 31.5864
 31.5235
 31.5093
 31.0424
 31.1092
 31.0472
 29.0479
 29.0989
 29.0213
 29.0326
 29.111
 30.093
 29.8757
 29.9999
 30.0005
 28.4364
 28.4889
 28.5084
 28.4911
 29.689
 29.6107
 29.7323
 29.6392
 29.2704
 29.2102
 29.2669
 29.308
 31.268
 31.312
 31.1854
 31.0911
 31.116
 29.5238
 29.6014
 29.553
 29.5051
 28.501
 28.4055
 29.7058
 29.6796
 29.7462
 29.657
 31.3772
 31.413
 31.3167
 28.5989
 28.5787
 28.6424
 28.6034
 29.7801
 29.8712
 29.8644
 29.8234
 31.2705
 31.3394
 31.2709
 31.224
 30.0454
 30.0653
 29.9458
 30.0216
 29.466
 29.3271
 31.807
 31.863
 31.814
 31.9136
 31.0678
 30.9162
 30.8296
 30.9135
 30.8248
 30.831
 30.7901
 30.9052
 30.8271
 30.7774
 29.9226
 29.8835
 29.9278
 29.4015
 29.448
 29.4638
 29.513
 31.0151
 31.0215
 30.9882
 31.0259
 30.3959
 30.3988
 29.6014
 29.6804
 29.6976
 29.7569
 29.6817
 29.6675
 30.0318
 29.9317
 29.9237
 30.0026
 32.3612
 32.2725
 32.2849
 32.2252
 29.6479
 31.4856
 31.3589
 31.4494
 31.4589
 28.2646
 28.2256
 28.2867
 29.112
 29.1699
 29.1974
 29.1057
 30.014
 29.9536
 29.9907
 30.1224
 29.9069
 29.8335
 29.928
 31.0626
 30.9842
 31.0255
 31.079
 28.4906
 28.4364
 28.5847
 28.4744
 29.4555
 29.481
 29.4016
 29.4169
 28.5349
 28.5211
 28.6204
 28.5688
 31.4194
 31.3892
 31.5082
 31.5053
 30.848
 30.7655
 29.0968
 29.1324
 29.1749
 29.1345
 28.4154
 28.4389
 28.4307
 28.454
 27.8899
 27.8631
 27.9123
 27.8212
 28.5423
 28.5918
 28.5224
 29.4556
 29.4163
 29.494
 29.4471
 28.71
 28.6726
 28.6286
 28.6682
 31.6214
 31.4924
 31.4738
 31.5351
 28.775
 28.7382
 28.7173
 29.4567
 29.4785
 29.4916
 29.4842
 31.4506
 31.538
 31.4711
 31.548
 29.1795
 29.0769
 29.1597
 29.1425
 29.5529
 29.4939
 29.474
 29.5336
 30.7153
 30.6128
 30.6509
 30.5385
 31.6129
 31.5994
 31.7349
 31.7157
 30.1228
 30.0754
 29.9988
 30.0903
 32.5412
 32.4221
 32.4296
 32.3713
 31.2396
 31.1865
 31.264
 31.0122
 31.1261
 31.0999
 31.1088
 32.8206
 32.6512
 32.8384
 32.8019
 28.6671
 28.7312
 28.7278
 28.8412
 28.8486
 28.7761
 28.7963
 30.9823
 30.819
 30.869
 32.046
 32.0678
 32.0901
 31.5679
 31.7148
 31.5651
 31.5885
 30.8011
 30.8181
 30.7327
 30.8911
 29.4187
 29.3257
 29.3898
 29.4005
 32.3199
 32.2284
 32.0838
 32.2097
 29.603
 29.7265
 29.741
 29.6373
 28.8754
 28.808
 28.9273
 28.8713
 29.7658
 29.7463
 29.6366
 29.6392
 30.2217
 30.2756
 30.1486
 31.4252
 31.4223
 31.4563
 31.3638
 28.5243
 28.4534
 28.4456
 28.4504
 28.8017
 28.7407
 28.8022
 28.8306
 30.7568
 30.673
 30.7138
 30.8125
 28.2802
 28.2487
 28.2177
 28.5001
 28.4033
 28.4891
 28.4659
 28.437
 28.3974
 28.4847
 28.4423
 32.3622
 32.3776
 32.6346
 32.6564
 32.7163
 32.569
 29.3681
 29.403
 29.4482
 29.9618
 30.035
 29.8862
 29.9976
 29.9566
 29.8677
 29.9011
 29.9373
 32.9326
 30.2643
 29.515
 29.4299
 28.893
 28.8351
 28.8753
 28.8538
 32.0986
 30.3935
 30.3087
 30.3926
 27.8014
 27.8576
 27.8554
 27.8552
 29.9215
 29.9904
 29.9334
 29.8659
 28.1719
 28.2416
 28.1932
 28.2454
 30.2591
 30.1458
 30.2948
 30.5035
 30.4239
 30.4734
 28.7321
 28.6879
 28.7875
 28.7243
 29.6355
 29.6651
 29.7162
 29.7894
 31.6145
 31.7106
 31.5266
 31.5818
 28.8048
 28.6653
 28.7151
 28.3098
 28.2175
 28.2121
 28.3127
 28.8422
 28.8521
 28.9242
 28.8429
 31.0187
 31.0437
 30.8855
 31.0494
 30.6484
 30.7279
 30.7099
 30.729
 28.6258
 28.5649
 28.57
 28.5656
 30.2574
 30.3449
 30.3882
 29.0187
 28.9993
 29.0446
 29.079
 31.4055
 31.3101
 31.4523
 31.4531
 29.5037
 29.4964
 29.5733
 29.5397
 31.4808
 31.3939
 31.4597
 31.4692
 29.6813
 29.5637
 29.6248
 29.6201
 28.93
 28.9028
 28.8394
 29.0023
 31.754
 31.7875
 31.6763
 29.729
 29.6635
 28.7861
 28.8455
 28.838
 28.8997
 30.2974
 30.3555
 30.3535
 31.479
 31.5354
 31.5951
 31.5504
 29.3167
 29.2812
 29.3412
 29.2589
 29.4418
 29.4647
 29.3332
 29.4297
 32.9141
 32.9837
 32.8945
 32.8277
 30.0673
 30.1458
 30.085
 32.8186
 32.7274
 32.7405
 29.8269
 29.8636
 29.9387
 29.9317
 30.0229
 31.3376
 31.3904
 31.5287
 31.5314
 30.1672
 30.1024
 30.0656
 28.8665
 28.8775
 28.8807
 28.9082
 30.0737
 30.0248
 29.9811
 29.9817
 30.0279
 30.0443
 30.0551
 27.9002
 27.9443
 27.9692
 28.0283
 31.0203
 30.8195
 30.8775
 30.9663
 31.7872
 31.7799
 31.7153
 31.7563
 30.4748
 30.5068
 30.3698
 30.4569
 28.6842
 28.6234
 28.6336
 28.7266
 32.9912
 32.9313
 32.8823
 32.8284
 29.1296
 29.2186
 29.1388
 29.1337
 31.6375
 31.7419
 31.7227
 31.7364
 28.8306
 28.9808
 28.9571
 28.8917
 28.8435
 28.9098
 28.9432
 28.8764
 29.0953
 29.0449
 31.0203
 31.0779
 31.0882
 31.0255
 28.4816
 28.4931
 28.4873
 29.0002
 29.1292
 29.0645
 28.9843
 31.0556
 30.943
 31.0055
 31.1131
 30.4295
 30.4798
 30.3508
 33.0798
 33.0753
 33.1115
 33.0688
 29.9831
 30.1502
 30.0224
 28.5588
 28.4931
 28.533
 28.5613
 28.8472
 28.8944
 28.5457
 28.4856
 28.419
 28.5357
 29.0425
 29.0242
 31.7747
 31.6165
 31.8225
 31.5773
 28.9511
 28.9749
 28.9603
 29.0539
 29.8178
 29.7435
 30.5557
 30.4846
 30.5044
 30.5447
 29.0603
 29.0281
 28.9714
 29.0236
 30.9403
 31.0602
 31.0438
 30.9508
 28.578
 28.5921
 28.5303
 28.4016
 29.4984
 29.4664
 29.5833
 32.1347
 32.2066
 32.2151
 32.1212
 29.4121
 29.4424
 29.4785
 29.5096
 30.9823
 31.0635
 31.1387
 31.1704
 30.9672
 31.0743
 30.9908
 32.9631
 32.9271
 33.0462
 32.9953
 31.6565
 31.4916
 31.4638
 31.6338
 28.7696
 28.8288
 28.7536
 28.8268
 30.1585
 30.1402
 30.2237
 30.3513
 31.306
 31.2359
 31.2871
 31.2178
 30.3338
 30.4019
 30.3649
 30.33
 29.2259
 29.1145
 29.0973
 29.1895
 31.3638
 31.3568
 31.1954
 32.1277
 29.5346
 29.4867
 29.5926
 29.4589
 31.2989
 31.138
 32.6081
 32.7191
 31.2783
 31.2038
 31.2802
 31.4232
 29.1523
 29.0892
 28.7941
 28.7972
 28.7556
 28.8104
 30.7408
 30.6661
 30.6131
 30.6766
 28.3649
 28.3502
 28.2764
 28.3563
 30.5598
 30.5605
 30.7606
 30.7296
 29.03
 29.0177
 29.0489
 29.1603
 31.0012
 30.9922
 30.9478
 30.9456
 28.9025
 28.849
 28.9486
 28.8764
 30.2352
 30.1627
 28.4542
 28.4828
 29.3508
 29.299
 29.3708
 29.2882
 29.3473
 29.3627
 29.3562
 29.2738
 29.72
 29.7683
 29.6967
 29.6899
 28.9324
 29.0426
 28.9471
 28.8617
 31.02
 31.122
 31.0647
 31.0658
 28.4736
 28.4755
 28.5055
 28.338
 28.337
 28.4135
 28.358
 31.4554
 31.3204
 31.3116
 31.356
 29.0587
 29.1803
 29.1521
 29.1315
 31.4324
 31.329
 31.3304
 31.2366
 29.8741
 30.0486
 29.9113
 29.921
 30.0717
 28.7688
 28.7565
 28.7501
 28.8378
 32.5309
 32.59
 32.4815
 32.4525
 29.1197
 29.0652
 28.9994
 29.072
 29.9117
 29.7902
 29.9842
 29.889
 29.2074
 29.2721
 29.2796
 29.2713
 29.2511
 27.9412
 27.9845
 28.0791
 28.0252
 28.894
 28.8962
 29.0101
 28.9723
 32.4852
 32.359
 32.2996
 32.4716
 30.2713
 30.364
 30.4013
 30.3168
 30.7958
 29.7331
 29.7777
 29.7402
 29.6627
 28.5814
 28.5836
 28.6454
 28.6908
 28.7425
 28.7256
 28.669
 28.5847
 28.7451
 28.6603
 28.704
 32.7707
 32.704
 29.0312
 29.0208
 28.9841
 30.6888
 30.7076
 30.713
 30.6069
 29.1172
 29.1559
 29.0876
 29.1615
 29.7107
 29.2809
 29.3493
 29.2618
 29.3236
 28.3288
 28.4504
 28.4253
 28.3337
 29.276
 29.2246
 29.1142
 29.2545
 30.3324
 30.3092
 30.4367
 30.2389
 31.4503
 31.4232
 31.502
 31.3957
 28.0491
 28.1512
 28.014
 28.0572
 29.1143
 29.1485
 29.0762
 29.1682
 28.1463
 28.1877
 28.1614
 28.0857
 30.7769
 30.9264
 30.7754
 30.7534
 29.6469
 29.6928
 28.4242
 28.3316
 28.4375
 28.3827
 29.7003
 29.6651
 29.6564
 29.5818
 30.0224
 29.9218
 29.8567
 29.726
 29.7266
 29.8379
 28.6972
 28.7324
 28.7507
 28.676
 30.5045
 30.6213
 30.681
 30.5748
 31.6827
 31.5589
 31.6139
 31.6139
 31.5814
 31.6521
 31.6647
 31.6312
 30.7085
 30.68
 30.6747
 30.7958
 30.1447
 30.2874
 30.1716
 30.1554
 30.2853
 30.2254
 30.1872
 29.8884
 29.9547
 29.971
 29.9253
 31.815
 31.9362
 31.8451
 30.4722
 30.4557
 30.3512
 30.3603
 29.7966
 29.7687
 29.7511
 29.8447
 30.9063
 30.9883
 30.8486
 30.9954
 30.6457
 30.5737
 30.5891
 30.601
 29.6104
 29.5991
 29.536
 29.4825
 30.0755
 30.1491
 30.1001
 30.14
 29.2657
 29.2969
 29.2405
 29.261
 31.5757
 31.5535
 31.51
 28.8433
 28.8706
 28.7873
 28.8713
 30.8643
 30.7555
 30.7955
 30.8797
 30.3164
 30.3991
 30.4305
 30.2917
 30.0918
 30.0274
 29.9837
 29.3896
 29.4137
 29.3747
 29.305
 29.3321
 29.3152
 29.2688
 29.358
 29.2147
 29.2115
 29.1265
 28.7336
 28.6677
 28.7058
 29.4397
 29.4843
 29.5395
 29.44
 28.5749
 28.5237
 28.6231
 28.5133
 28.511
 28.5302
 28.5976
 30.0739
 30.2421
 30.1542
 30.1875
 30.7045
 30.7844
 30.7063
 30.7719
 31.1658
 28.6871
 28.7302
 28.6232
 28.673
 28.6119
 28.7514
 32.9649
 33.0205
 32.9634
 33.0106
 29.0026
 29.0708
 30.2186
 30.3503
 30.2332
 28.1335
 28.0425
 29.43
 29.5573
 29.5288
 29.5174
 30.1851
 30.1415
 30.1333
 29.0394
 28.8974
 28.999
 28.9279
 30.7478
 30.7144
 30.7847
 30.687
 32.5251
 32.421
 32.4629
 32.5174
 29.5804
 29.5683
 29.6087
 29.5009
 28.7437
 28.6245
 28.7593
 28.9295
 28.9246
 28.9114
 28.9818
 30.9919
 31.1298
 31.0864
 31.1903
 31.0248
 30.8927
 31.3211
 31.2349
 31.356
 28.0753
 28.137
 28.7115
 28.7881
 28.6925
 28.8198
 29.8427
 29.6898
 29.7212
 29.0701
 29.1531
 29.017
 29.0063
 30.9459
 31.0825
 31.0513
 30.9833
 29.8805
 29.8794
 29.8053
 29.7855
 29.9773
 29.9193
 29.9108
 29.979
 31.1022
 31.0329
 31.0182
 30.9647
 31.0273
 30.9896
 31.0041
 27.8429
 27.7629
 27.8261
 27.7313
 31.7344
 31.8715
 28.5028
 28.5074
 28.5041
 28.5698
 30.2723
 30.1869
 30.221
 30.2689
 29.7697
 29.7137
 29.7088
 29.7155
 31.7077
 31.5733
 29.7453
 29.8078
 29.8164
 29.8555
 30.2217
 30.2537
 30.2763
 30.1951
 28.8436
 28.8722
 28.8998
 28.8585
 30.0197
 29.9727
 29.9443
 30.0811
 30.7808
 30.7891
 29.5039
 29.5049
 29.5453
 29.4743
 29.1445
 29.1857
 29.1136
 29.7717
 29.684
 29.7087
 29.6741
 31.2182
 31.1809
 31.2378
 31.1047
 32.8934
 32.8339
 32.8549
 32.8839
 30.0905
 30.1407
 30.0797
 29.9805
 29.6614
 29.5481
 29.6296
 29.6603
 30.223
 30.1753
 30.2862
 30.2639
 30.5383
 30.6117
 30.5506
 30.4879
 28.8089
 28.7232
 29.5029
 29.535
 29.5763
 32.2796
 32.3156
 32.3883
 32.3193
 31.0604
 31.1241
 31.0128
 31.166
 29.7919
 29.7563
 29.8145
 29.8449
 28.8374
 28.8084
 28.7984
 30.2153
 30.2351
 30.3585
 30.3696
 30.816
 30.6552
 30.7252
 30.8215
 29.071
 29.1573
 29.1699
 29.1065
 29.3785
 29.4113
 29.4382
 29.4262
 28.7385
 28.7238
 28.7188
 28.998
 28.9885
 28.9943
 28.9772
 30.4742
 30.4849
 30.521
 30.6196
 30.1146
 30.1242
 30.0356
 32.7964
 32.7781
 32.8713
 32.8885
 30.8867
 30.9031
 31.7442
 31.8121
 31.6886
 31.6814
 31.1591
 31.5978
 28.5623
 30.7082
 30.7956
 30.7327
 30.8415
 28.0718
 29.4186
 29.4945
 29.4178
 29.5218
 30.8792
 30.7768
 30.8394
 30.3915
 30.3168
 30.3147
 28.7557
 28.7507
 28.8694
 28.7714
 28.9057
 28.9649
 28.8889
 28.9464
 31.2641
 31.4162
 31.4009
 31.3199
 28.3165
 28.2984
 28.2934
 28.3821
 29.9863
 30.0434
 30.1184
 28.9203
 28.857
 28.8986
 29.6043
 29.7075
 29.6765
 29.5977
 30.7013
 30.6435
 30.7626
 30.7217
 29.7654
 29.634
 29.7497
 30.6082
 30.5806
 30.5693
 30.6752
 30.1775
 30.0625
 28.8228
 28.7767
 28.7561
 28.6924
 28.5564
 28.4541
 28.5017
 28.5434
 30.987
 30.873
 31.065
 30.9976
 29.0732
 29.1863
 29.1524
 29.0512
 29.5634
 29.6951
 29.5786
 29.528
 30.4247
 30.4743
 30.3507
 30.4217
 28.6047
 28.6336
 28.6582
 28.6881
 30.2705
 30.3442
 30.2067
 30.1933
 29.9134
 29.9796
 29.9838
 29.8504
 30.0463
 30.1064
 30.035
 30.0171
 30.9828
 30.8975
 31.093
 31.0416
 30.9649
 31.0754
 31.9648
 32.1523
 32.061
 32.0118
 29.5589
 29.5592
 29.5231
 29.4565
 29.5277
 29.6392
 29.6063
 28.4269
 28.4088
 28.3865
 28.3905
 28.0227
 27.9937
 28.0495
 28.4377
 28.4135
 28.5205
 29.6455
 29.553
 29.4795
 29.6046
 29.1831
 29.1195
 29.0727
 29.2209
 28.8732
 28.7977
 28.867
 28.7908
 30.5745
 30.6919
 30.6591
 30.5884
 31.802
 31.7098
 31.6737
 31.6658
 28.0896
 28.0898
 28.1459
 28.0017
 30.813
 30.8719
 30.8994
 30.7843
 29.6522
 29.6486
 29.6006
 29.6676
 28.0188
 28.0749
 28.1524
 27.9882
 29.2788
 29.3598
 29.262
 29.2904
 30.2576
 30.3003
 30.2642
 30.2923
 30.7974
 30.8918
 30.8706
 31.4796
 31.3676
 31.4451
 31.5001
 31.1942
 31.2422
 31.1783
 31.253
 31.083
 31.2599
 30.9487
 30.9074
 31.0756
 28.768
 28.8115
 28.826
 28.8482
 28.5441
 28.6069
 28.5768
 28.5985
 29.3461
 29.3579
 29.363
 29.451
 30.0565
 28.4789
 28.4485
 28.4663
 28.5018
 31.6514
 31.6366
 31.6742
 31.6815
 28.2053
 28.1345
 28.2271
 28.1085
 30.3989
 30.5444
 30.3712
 29.1721
 31.2911
 31.2644
 31.3386
 31.2166
 31.2541
 31.3157
 31.1433
 29.7999
 29.8245
 29.9547
 29.8883
 28.9836
 28.9709
 29.0459
 28.9302
 29.9982
 29.234
 29.2677
 29.2989
 30.018
 30.0573
 30.0287
 29.9339
 30.6493
 30.6235
 30.6947
 30.6949
 30.3781
 30.4811
 30.4052
 30.3895
 29.1809
 30.9904
 30.9918
 30.9056
 28.8674
 28.9133
 28.8494
 28.8896
 28.7362
 28.7536
 28.668
 28.7824
 28.4474
 28.4193
 28.4625
 30.6312
 30.621
 30.7154
 30.6118
 31.6784
 31.7199
 31.6666
 28.696
 28.7299
 28.5699
 28.6025
 28.6537
 28.6449
 30.1333
 30.1402
 30.0782
 28.1803
 28.21
 28.1564
 28.2342
 28.8065
 28.848
 28.8185
 28.7717
 29.3372
 29.4045
 29.3179
 29.3094
 29.8247
 29.7982
 29.8272
 29.9168
 30.8692
 30.9123
 30.9293
 30.8167
 28.6247
 28.6077
 28.6491
 28.5386
 30.6409
 30.62
 30.7229
 30.3963
 30.3164
 30.3098
 30.2847
 28.5442
 28.5432
 28.4479
 28.5117
 29.2358
 29.2434
 29.2793
 29.3008
 28.2093
 28.2585
 28.3271
 28.2405
 30.3696
 30.2822
 30.2505
 30.2669
 29.7532
 29.7128
 29.8222
 29.6526
 28.75
 28.7579
 28.7076
 28.7517
 29.771
 29.679
 29.7733
 29.748
 28.2033
 28.0899
 28.1823
 30.6384
 30.6855
 30.6985
 30.6834
 29.6816
 29.6872
 29.6875
 29.7728
 29.3931
 29.2911
 29.3693
 29.3699
 29.8387
 29.9185
 29.7695
 29.8661
 28.7336
 28.7407
 28.6473
 28.6992
 30.1018
 30.1845
 30.1591
 30.1785
 29.4962
 29.5172
 29.4993
 29.5741
 31.6977
 31.6992
 31.7248
 31.6877
 28.9408
 28.9182
 28.9963
 29.0303
 31.7619
 31.7667
 31.7532
 31.0082
 31.0597
 31.0503
 30.9865
 31.3305
 31.3077
 31.1058
 31.2467
 28.9335
 28.9926
 28.93
 28.8722
 29.2127
 29.0892
 29.1775
 29.1825
 30.3454
 30.4372
 30.4552
 30.4969
 27.9815
 28.0259
 28.0919
 32.8552
 32.9059
 29.5007
 29.4252
 29.5398
 29.5134
 32.002
 32.0654
 32.132
 32.0156
 29.2299
 29.2348
 29.1267
 29.1495
 30.4021
 30.5755
 30.6067
 30.6316
 30.6838
 29.0562
 29.0164
 29.0093
 28.9735
 28.7219
 28.7396
 28.6663
 28.743
 31.7087
 31.7113
 29.2078
 29.1759
 29.0568
 29.1715
 29.6161
 29.7743
 29.6158
 29.6951
 30.8328
 30.8099
 30.9023
 30.6609
 30.1702
 30.2329
 30.2381
 30.156
 28.8239
 28.9053
 28.7498
 28.4925
 28.5245
 28.5158
 28.5391
 28.0472
 28.0371
 28.0227
 30.537
 30.6011
 30.5726
 30.5249
 28.4267
 28.5069
 28.5186
 28.5356
 31.2825
 31.3926
 31.3503
 31.331
 29.322
 29.2757
 29.288
 29.3722
 29.7723
 29.6679
 29.7425
 29.7322
 28.4559
 28.4724
 28.485
 28.4002
 29.218
 29.1633
 29.2568
 29.2983
 32.0224
 32.0607
 32.122
 32.0672
 30.0372
 30.1774
 30.0493
 30.1714
 30.6032
 30.4081
 30.4556
 30.5611
 29.0469
 28.9967
 29.0714
 29.1518
 31.1771
 31.2623
 31.3304
 31.2836
 29.5591
 29.627
 29.5636
 29.4712
 30.5846
 30.6735
 30.6681
 31.5684
 31.6883
 31.5527
 31.7386
 29.402
 29.3217
 29.4548
 29.2598
 29.283
 29.3426
 30.8947
 30.9873
 31.0537
 31.2461
 31.2696
 31.2183
 31.1852
 28.4819
 32.9761
 32.9326
 32.8692
 32.9473
 28.7646
 28.833
 28.706
 28.7751
 31.4541
 30.3546
 30.3714
 30.3943
 30.2709
 30.615
 30.6682
 30.4848
 30.8454
 30.7259
 30.7745
 30.8473
 32.1795
 32.2549
 32.188
 32.2798
 31.289
 31.1996
 31.2243
 29.7938
 29.8398
 29.8265
 30.5668
 30.5996
 27.8847
 27.9726
 27.9824
 31.2443
 31.1625
 31.2662
 30.3183
 30.2388
 30.2181
 28.4046
 28.3264
 28.3512
 29.0025
 28.9978
 28.9194
 29.0051
 30.8667
 30.7688
 30.7564
 31.538
 31.6754
 28.3306
 28.4132
 28.3098
 28.3364
 31.9537
 31.8679
 31.9772
 31.8125
 31.2527
 31.2897
 32.8773
 32.9831
 32.5786
 32.6094
 32.5052
 30.3903
 30.33
 30.4311
 28.3303
 28.432
 28.4477
 29.1989
 29.1762
 29.1047
 30.767
 30.6582
 30.5385
 30.489
 30.5908
 28.6515
 31.8226
 31.8319
 31.7635
 31.7527
 30.6244
 30.4405
 30.5448
 30.5829
 29.1024
 29.1401
 29.0826
 29.0437
 29.0423
 29.0893
 29.0589
 30.4454
 30.4938
 30.4131
 30.3413
 29.273
 29.2253
 29.1803
 29.1854
 28.9483
 29.0204
 28.9798
 28.8947
 30.0018
 29.1067
 29.1443
 29.095
 29.0634
 28.2633
 28.221
 28.2588
 28.3217
 31.0329
 31.1987
 31.2217
 31.1091
 28.3579
 28.3215
 28.3603
 28.3726
 32.7737
 32.8937
 32.9584
 28.2972
 28.34
 28.2029
 28.2706
 30.9145
 30.9433
 31.0364
 31.0187
 28.9392
 29.0133
 28.9643
 28.9071
 31.3062
 31.3138
 31.5037
 31.4621
 28.1223
 28.7714
 28.8805
 28.8429
 28.9176
 28.6416
 28.5701
 28.6013
 31.5877
 31.5083
 31.5977
 31.648
 28.9485
 29.0276
 29.0024
 29.0502
 29.5654
 29.5099
 29.496
 29.5111
 29.6643
 29.6211
 29.7376
 29.7423
 28.0377
 28.1224
 30.2048
 30.1877
 30.1799
 30.5535
 30.4773
 30.4466
 30.3639
 29.167
 29.2178
 29.0688
 29.0695
 29.1256
 29.0788
 29.0807
 29.0252
 29.432
 29.435
 29.3467
 29.437
 31.0258
 30.978
 30.7075
 30.7673
 30.7778
 30.3441
 30.285
 30.2621
 30.2445
 31.5986
 31.6856
 31.6966
 31.7082
 30.626
 30.6408
 30.7379
 32.1372
 32.1801
 32.0133
 30.4714
 30.4726
 30.5379
 30.4182
 30.9757
 30.8516
 31.0002
 30.0678
 29.1538
 29.1592
 29.0672
 30.3843
 30.4399
 30.3817
 30.3031
 31.2865
 31.2706
 31.0626
 31.1818
 30.0498
 29.9897
 29.9691
 29.9626
 28.7863
 28.8383
 27.9641
 28.0259
 28.0724
 27.9593
 29.0729
 29.1272
 29.0511
 29.1825
 30.2214
 30.2412
 30.2465
 30.2041
 28.193
 28.1861
 28.0632
 28.2352
 28.336
 28.2971
 28.2829
 29.8724
 29.9653
 30.0053
 29.8948
 31.491
 31.5489
 31.4192
 30.2246
 30.2367
 30.1265
 30.2103
 31.4201
 31.6304
 31.5005
 31.5994
 29.267
 29.2779
 29.2553
 29.4404
 31.6943
 31.6896
 31.6935
 31.6525
 30.9744
 30.8802
 30.8549
 30.9337
 28.2681
 28.3565
 28.2658
 28.3268
 29.6834
 29.6882
 29.7608
 29.6832
 30.4339
 30.5081
 30.4045
 30.4924
 29.2194
 29.1904
 28.8363
 28.7085
 28.7315
 28.743
 30.3784
 30.282
 30.3187
 30.208
 30.0899
 30.0305
 30.0798
 30.0879
 31.4513
 31.4026
 31.4875
 30.267
 30.3347
 30.3931
 32.9563
 33.093
 33.0498
 33.1069
 30.8685
 30.7998
 31.5683
 31.4516
 31.4926
 31.5699
 29.4867
 29.5589
 29.4938
 29.5907
 32.2473
 32.1874
 32.1192
 32.2117
 31.1203
 31.1417
 31.2542
 29.3307
 29.2961
 29.3033
 29.3404
 31.0181
 30.9407
 31.0589
 31.1054
 31.0865
 31.1621
 31.1909
 30.3608
 30.4327
 30.4171
 30.3105
 28.9308
 28.7358
 32.8064
 32.7764
 30.8622
 30.9554
 30.1753
 30.2457
 30.2164
 30.2283
 29.3386
 29.2938
 29.3461
 29.2372
 29.86
 29.8696
 29.8163
 29.7927
 31.4082
 31.5931
 31.4045
 31.562
 29.606
 29.7015
 29.6501
 31.49
 31.5297
 31.4554
 31.4557
 28.4908
 28.4719
 28.4228
 28.5041
 29.3881
 29.3916
 29.4074
 29.4794
 31.4039
 31.2996
 31.4398
 30.219
 30.3209
 30.2299
 30.1743
 31.6708
 31.6536
 31.603
 30.9634
 30.8937
 30.9171
 30.9842
 31.3576
 31.3782
 31.2633
 31.3324
 30.4111
 30.4868
 30.5355
 30.542
 28.296
 28.3478
 28.4298
 28.3834
 29.5329
 29.3987
 29.4215
 29.475
 30.2526
 30.3558
 30.2709
 29.7904
 29.8319
 29.8187
 28.5751
 28.6507
 28.5778
 28.6221
 29.4304
 29.3933
 29.4973
 29.369
 30.4475
 30.3703
 30.297
 30.3586
 31.7648
 31.6871
 31.4358
 31.5071
 31.3999
 31.3992
 32.8028
 32.8327
 32.8676
 32.7353
 29.0993
 29.0729
 29.085
 29.1094
 31.0838
 31.2231
 31.1542
 31.1713
 29.9009
 30.0034
 29.9347
 30.0431
 31.9201
 31.943
 31.9475
 31.998
 29.7221
 29.7709
 29.8163
 29.8077
 30.0665
 29.0432
 29.1476
 29.1378
 29.1233
 30.3757
 30.492
 30.5215
 30.3837
 30.2874
 30.2385
 30.1922
 30.2059
 30.4934
 30.5753
 30.539
 30.6299
 31.3245
 31.4612
 31.2848
 28.7549
 28.7357
 28.7031
 28.8487
 30.2775
 30.2993
 30.3063
 30.3423
 28.8457
 28.8044
 28.7584
 29.3463
 29.3968
 29.3374
 29.3981
 28.9401
 28.8476
 28.8968
 28.8314
 31.1611
 31.0634
 31.16
 32.9961
 32.9872
 32.9621
 29.155
 29.0522
 29.0824
 29.7615
 29.6178
 29.6986
 29.6209
 30.5117
 30.4385
 30.391
 30.434
 30.3186
 30.2537
 30.3862
 30.3599
 32.4417
 32.3794
 32.5154
 32.3753
 29.8208
 29.8649
 29.8683
 29.8804
 29.6501
 29.6634
 29.5202
 29.6093
 30.9665
 30.9761
 30.7866
 30.974
 30.8819
 30.8657
 29.2817
 29.35
 29.3126
 29.2937
 31.1282
 31.0412
 29.5208
 29.5468
 31.4717
 32.868
 32.8924
 32.9438
 32.9281
 31.7541
 31.6563
 28.1195
 28.0446
 28.1109
 31.6668
 31.5873
 31.5238
 31.6053
 29.1876
 29.1661
 31.0453
 31.0626
 31.0427
 31.0464
 30.5883
 30.4287
 30.5231
 29.0581
 29.0631
 29.0681
 28.9708
 29.4364
 29.3684
 29.462
 29.4193
 28.7599
 28.7504
 28.6815
 30.2575
 30.3357
 30.2598
 30.3786
 30.0325
 28.6881
 28.8163
 28.7228
 28.7523
 31.6865
 31.7457
 31.6319
 31.5906
 29.895
 29.9515
 29.8032
 29.894
 29.05
 29.1776
 29.0846
 29.1431
 32.56
 32.6067
 32.5494
 32.6056
 31.2466
 28.1385
 30.4018
 30.2597
 30.3474
 30.4393
 29.8146
 29.7176
 29.8305
 29.8644
 31.0109
 31.179
 31.0662
 31.0667
 29.7766
 29.8226
 29.7938
 29.7755
 31.3842
 31.3774
 31.2439
 31.4839
 31.3843
 31.2998
 31.3921
 30.2674
 30.1459
 30.2911
 30.2522
 29.0504
 28.9609
 29.1326
 27.8869
 27.8116
 27.8881
 27.9299
 32.3765
 32.5522
 32.5357
 30.0905
 30.1001
 30.1782
 30.1209
 30.2412
 30.1096
 28.5389
 28.5329
 28.5761
 28.4637
 29.1648
 29.2186
 29.2005
 29.2625
 31.3497
 31.1829
 31.3038
 32.0842
 30.3191
 30.4176
 30.3805
 30.3235
 30.0872
 30.0215
 30.0289
 29.3467
 29.3967
 29.3662
 29.3226
 29.1056
 29.1947
 29.1323
 29.1719
 30.3548
 30.4239
 29.2702
 29.27
 29.2827
 29.2131
 29.7426
 29.766
 29.7396
 29.6709
 28.4194
 28.3648
 29.4338
 29.5202
 29.4732
 29.4988
 29.247
 29.2117
 29.2022
 29.1398
 29.3894
 29.3413
 29.3806
 29.3977
 30.0501
 30
 30.3604
 30.3027
 30.3762
 30.4274
 30.5343
 30.6279
 30.5895
 30.5568
 29.6926
 29.6128
 29.6338
 29.648
 31.3977
 31.3397
 31.2296
 31.2026
 31.0334
 31.0818
 31.1153
 31.0836
 32.624
 32.4407
 32.4585
 32.5792
 30.5547
 30.7266
 29.6891
 29.8374
 29.7308
 29.7679
 30.4188
 30.4487
 30.4028
 30.338
 29.8459
 29.7782
 29.725
 29.8226
 30.2383
 30.2288
 29.034
 29.0547
 28.2075
 28.1891
 28.1758
 28.1711
 31.6205
 30.2925
 30.3027
 30.2728
 30.214
 30.1286
 30.2114
 30.1607
 30.1229
 30.7411
 30.8229
 30.8239
 30.9472
 29.1989
 29.3033
 29.2282
 29.3223
 29.7284
 29.7857
 29.806
 29.7248
 31.4106
 31.4523
 31.3458
 31.5259
 31.5687
 30.4765
 30.3807
 30.4977
 30.4492
 30.5901
 30.4676
 30.5205
 30.6229
 31.2964
 31.2806
 31.3997
 31.2857
 31.0522
 31.0344
 30.9066
 30.9651
 30.1284
 30.0311
 30.1474
 30.1477
 31.4539
 31.5076
 31.5776
 31.5442
 29.847
 29.8249
 29.9437
 30.9386
 30.9426
 30.9784
 30.9791
 32.3804
 32.3183
 29.8001
 29.7551
 29.728
 29.9937
 29.8896
 29.9277
 29.8811
 31.5069
 31.4383
 31.4047
 31.9569
 31.8845
 31.915
 31.9307
 29.5081
 29.5428
 29.4429
 29.4893
 29.8525
 29.9681
 29.8552
 28.9785
 29.1332
 29.0572
 30.0788
 30.1478
 30.1292
 28.7325
 28.759
 28.7063
 32.4205
 32.4983
 32.5448
 32.43
 28.4161
 28.3831
 28.4342
 28.3782
 30.7033
 30.7728
 29.7281
 29.745
 31.2385
 31.2454
 31.2563
 31.171
 29.5521
 29.6195
 29.5096
 28.9651
 28.9098
 28.9271
 28.9124
 28.6783
 28.7878
 31.7119
 31.7035
 31.7701
 29.7541
 29.7493
 29.8226
 31.0271
 31.1009
 30.9767
 31.4686
 31.4802
 31.522
 31.5139
 30.3081
 30.2736
 30.3566
 30.2381
 30.4159
 30.5001
 30.4836
 30.4252
 29.2239
 29.2333
 29.2608
 29.1787
 29.1014
 29.1756
 29.1366
 29.2311
 30.5934
 30.5359
 30.5048
 29.547
 29.5835
 29.6251
 29.3839
 29.2896
 29.3234
 29.264
 27.7329
 27.7805
 27.7198
 30.0596
 30.1305
 30.1276
 29.2418
 29.1924
 29.2845
 30.157
 30.1196
 30.1913
 30.6973
 30.7991
 30.7678
 31.6247
 31.5923
 31.586
 31.5333
 30.0168
 30.2853
 30.182
 30.2456
 30.9836
 31.0071
 31.0714
 31.3594
 31.2436
 29.4154
 29.4745
 29.3584
 29.4219
 29.3693
 29.2961
 29.4161
 29.4545
 31.2695
 31.1424
 31.0862
 31.0873
 31.3587
 31.4937
 31.4015
 31.5189
 32.1571
 32.2263
 32.1452
 32.283
 28.3832
 28.3536
 28.8078
 28.9105
 28.8494
 28.7918
 28.2988
 30.7621
 30.6312
 30.7303
 29.9815
 29.9599
 30.0181
 30.0601
 31.3977
 31.3698
 30.249
 30.2683
 30.1407
 31.7536
 31.7184
 28.8919
 28.8954
 28.8117
 28.9626
 28.5933
 28.6309
 28.4832
 28.5862
 29.1096
 29.0826
 29.153
 30.6621
 30.5802
 30.5954
 28.5748
 28.5942
 28.5613
 28.5514
 31.0159
 31.1093
 31.0323
 30.9766
 29.0491
 29.0976
 29.1307
 29.058
 30.9309
 31.0205
 31.0309
 30.8735
 31.4184
 31.3779
 31.4573
 28.3226
 28.2046
 28.263
 28.3005
 31.6555
 31.567
 31.6022
 30.4152
 30.3972
 30.2196
 30.4136
 28.3136
 28.2393
 28.2747
 30.8587
 30.9327
 30.7681
 30.8322
 29.3711
 28.5026
 28.4496
 28.6039
 28.5263
 31.8754
 31.842
 31.7784
 31.8517
 29.4175
 29.5444
 29.4452
 29.4191
 30.1121
 30.0986
 30.1782
 31.3463
 31.37
 31.3064
 31.5024
 29.4711
 29.525
 29.4243
 30.9734
 31.0238
 32.3993
 32.5274
 32.5211
 32.41
 31.8609
 31.9892
 32.003
 28.5345
 28.5672
 28.4895
 28.5877
 28.6226
 28.5708
 31.8934
 31.8556
 31.9596
 31.8263
 30.4495
 30.4089
 30.4231
 30.3679
 30.2063
 30.3268
 30.3226
 30.2945
 29.7036
 29.7473
 29.6352
 29.7087
 29.7509
 29.8856
 29.8013
 29.872
 28.3969
 31.4552
 31.518
 31.4426
 31.498
 28.4222
 28.4745
 28.3909
 29.8077
 29.8785
 29.933
 29.9152
 31.6012
 31.4951
 31.4605
 29.7926
 29.8756
 29.8278
 29.8647
 30.1211
 29.2503
 29.233
 29.1293
 29.1711
 30.9832
 31.0238
 30.9905
 30.0957
 29.9794
 30.0616
 28.3645
 28.3981
 28.471
 28.4063
 30.0757
 30.0629
 30.1272
 32.9186
 32.9289
 32.9454
 30.0827
 30.1431
 30.0711
 30.2312
 29.2485
 29.1506
 29.207
 30.0155
 29.9904
 28.8117
 28.7553
 28.8524
 28.824
 29.1364
 29.0572
 29.0935
 29.1163
 28.242
 28.2708
 28.3235
 28.3808
 29.8941
 30.0457
 29.941
 29.901
 29.1199
 29.1614
 29.1749
 29.1918
 28.8226
 28.7614
 28.7028
 31.1383
 31.0903
 31.2488
 31.1694
 30.1516
 30.0629
 30.6061
 30.6712
 30.5972
 30.6278
 29.3673
 29.3646
 29.3841
 29.3269
 30.1028
 30.0329
 30.0409
 30.1385
 29.4938
 29.5428
 29.4519
 29.5464
 30.0356
 30.0141
 29.935
 29.9386
 30.1583
 30.2242
 30.2281
 28.825
 28.875
 28.8476
 28.5631
 28.568
 28.5828
 28.4787
 28.9027
 28.8987
 28.839
 29.2264
 29.0992
 29.1967
 32.5268
 32.3495
 32.5475
 30.1368
 30.0187
 30.1011
 28.9084
 28.8768
 28.9326
 28.9176
 30.142
 30.1015
 30.1608
 29.8121
 29.8048
 29.7273
 29.8747
 29.4284
 29.5982
 29.5514
 29.5429
 30.2044
 30.1241
 30.1534
 30.0902
 31.1852
 31.1165
 31.1722
 31.2421
 30.1131
 29.8461
 29.8732
 29.8172
 29.9832
 31.635
 31.5821
 31.5498
 31.5672
 31.3924
 31.2899
 31.3486
 31.3008
 31.3016
 31.2012
 31.2682
 31.2982
 29.4322
 29.4731
 29.3438
 29.2955
 31.0933
 31.1418
 31.1153
 31.1
 28.0359
 28.1126
 28.0713
 28.1175
 31.9307
 31.8528
 31.7908
 31.7804
 31.1146
 31.1075
 31.1469
 31.7484
 31.8557
 31.8905
 31.8876
 31.3182
 31.4165
 31.267
 31.5811
 31.5382
 30.0382
 30.0477
 29.9862
 29.8766
 28.6264
 28.6812
 28.6996
 28.532
 28.5501
 28.5017
 28.5791
 31.269
 31.3704
 28.2076
 28.1551
 28.2236
 28.8222
 28.833
 28.8001
 28.7767
 31.325
 31.3735
 31.3259
 28.3415
 28.3025
 28.3934
 28.2782
 30.5121
 30.4823
 30.4196
 30.5718
 31.3553
 31.4804
 31.389
 31.315
 31.7611
 31.5883
 31.6712
 31.6747
 32.3568
 32.2677
 32.365
 32.3997
 29.585
 29.4577
 29.5386
 29.4585
 30.4859
 30.4889
 30.5188
 30.6432
 28.3111
 28.4183
 28.3145
 32.7279
 32.7022
 32.7328
 32.6507
 31.9771
 31.9005
 31.9228
 31.8483
 28.4239
 28.2872
 28.3648
 28.3661
 30.1607
 30.1625
 30.0793
 28.7581
 28.6729
 28.6467
 31.1872
 31.201
 31.3275
 28.2685
 28.3714
 28.3691
 28.2962
 28.6553
 28.6766
 28.6864
 28.7686
 30.862
 30.8107
 30.7187
 30.8041
 30.612
 30.7197
 30.6093
 30.7187
 29.0471
 29.0397
 29.0127
 28.9335
 29.9063
 29.9444
 29.9946
 29.97
 32.0181
 31.9127
 31.9567
 31.8542
 28.6938
 28.8459
 28.7517
 28.7811
 28.1778
 29.8372
 29.8231
 29.7629
 29.7675
 28.5576
 28.5191
 28.5281
 28.4584
 31.6753
 31.6788
 31.6393
 31.6456
 28.3104
 28.2467
 28.3302
 28.362
 30.2147
 30.2223
 30.4772
 30.5222
 30.4645
 30.4255
 29.0837
 29.1633
 29.1714
 29.1786
 29.7331
 29.631
 29.6351
 30.4722
 30.5065
 30.4491
 29.0715
 29.0642
 29.1621
 29.1785
 29.05
 29.0928
 29.0116
 29.0693
 31.1873
 31.2777
 31.2981
 30.1521
 29.9923
 29.9902
 30.0871
 32.1879
 32.0481
 31.97
 32.1133
 32.1545
 28.2362
 28.3648
 28.2237
 28.3592
 30.0596
 30.0913
 30.1474
 30.0619
 28.5181
 28.4741
 30.3323
 30.4952
 30.4988
 30.9081
 30.999
 30.8502
 30.8799
 28.3254
 28.3299
 28.3052
 28.2829
 31.4717
 31.4421
 31.4501
 30.9219
 30.9588
 30.8869
 30.9522
 30.6641
 30.5652
 30.633
 30.7536
 29.3514
 29.1815
 29.2571
 29.212
 31.0872
 30.9428
 31.0399
 31.0381
 29.0497
 29.6826
 29.5881
 29.55
 29.6876
 28.5434
 28.513
 28.589
 28.3769
 28.4029
 28.4177
 28.4636
 29.569
 29.5428
 29.6398
 29.5928
 28.026
 28.0231
 28.0127
 28.1006
 30.5975
 29.6232
 29.7412
 29.7616
 29.66
 30.0288
 30.1554
 30.121
 30.0484
 32.3395
 32.2494
 32.2252
 32.2962
 30.0627
 30.0324
 30.007
 30.1082
 30.3745
 30.3501
 30.3168
 30.2868
 30.3901
 30.3641
 30.3083
 28.6872
 28.7718
 28.8077
 30.4516
 30.5466
 30.5157
 30.4674
 28.6062
 28.488
 28.5496
 30.0159
 30.0465
 29.9234
 29.8755
 29.9021
 29.8066
 29.8141
 29.7858
 30.1174
 30.09
 29.9665
 30.0115
 28.6686
 28.6198
 28.6192
 30.5688
 28.507
 29.719
 29.6423
 29.7025
 29.8238
 31.1907
 31.1254
 31.2676
 31.0886
 30.9787
 30.9585
 29.9047
 29.8934
 29.9654
 30.0226
 30.038
 29.9666
 29.9281
 30.0073
 30.0782
 29.9657
 30.0856
 33.0465
 33.0405
 33.1093
 29.0389
 29.1401
 29.0356
 30.2493
 30.1942
 28.7422
 28.8761
 28.8518
 28.8621
 29.5676
 29.4948
 29.5569
 32.1568
 32.2874
 32.3743
 32.3406
 30.3703
 30.5345
 30.4665
 30.3426
 31.1435
 31.1795
 31.2574
 31.2771
 29.4095
 29.5209
 29.4696
 29.4259
 30.8266
 30.867
 30.8428
 30.9507
 32.1014
 32.1479
 32.1782
 30.4879
 30.5324
 30.5806
 30.5639
 29.3071
 29.2167
 29.24
 29.2468
 30.1393
 30.0537
 30.0312
 30.0892
 31.0017
 31.0536
 31.0027
 30.4621
 30.5287
 30.4961
 30.5152
 31.1498
 31.2612
 31.1255
 31.2326
 31.4753
 31.3104
 31.2616
 31.4603
 28.4598
 28.4023
 28.4253
 28.3999
 31.3268
 31.2303
 31.2638
 31.2322
 31.0467
 31.1145
 31.0072
 31.0252
 29.585
 29.4569
 29.5186
 29.4553
 30.5228
 30.5846
 30.4797
 30.4906
 27.8593
 27.8149
 27.8195
 27.8233
 30.451
 30.5073
 30.4201
 31.5816
 31.6705
 31.6287
 31.5529
 31.3818
 31.4464
 31.4007
 31.4524
 31.2895
 31.4146
 29.3529
 29.405
 29.3416
 29.4448
 28.0192
 28.0905
 28.0567
 28.063
 30.4037
 30.4952
 30.4353
 30.4899
 31.3065
 31.3579
 31.3882
 29.4205
 29.4975
 29.5189
 29.4321
 30.2524
 30.3236
 30.1784
 30.1883
 30.9284
 30.9338
 30.9452
 30.8597
 31.6773
 31.4983
 31.6005
 28.9344
 28.8597
 28.8253
 28.9063
 28.9386
 28.9056
 28.9984
 30.4193
 30.3687
 30.3021
 30.321
 30.402
 30.4944
 30.3487
 31.0336
 30.9593
 30.9341
 30.8822
 29.4199
 29.4154
 29.508
 31.3033
 31.2792
 31.4116
 29.975
 29.8583
 29.9213
 28.8541
 28.9582
 28.9238
 29.2734
 29.3073
 30.582
 30.5059
 30.5722
 30.5009
 30.4428
 30.4962
 30.2701
 30.3845
 30.9744
 31.7425
 31.7106
 31.814
 28.6046
 28.6193
 28.7333
 30.3376
 30.2802
 30.3058
 30.38
 31.005
 30.0321
 29.9651
 29.4775
 29.4842
 29.4942
 29.4242
 30.0768
 30.2092
 30.098
 30.3713
 30.326
 30.4856
 30.3269
 30.5393
 30.3584
 30.4325
 30.4961
 30.5171
 30.3506
 28.6901
 28.7584
 28.7736
 28.7163
 28.673
 28.6172
 28.5134
 28.5483
 31.384
 31.2872
 29.9914
 30.0721
 30.0806
 30.1496
 29.7892
 29.763
 29.7397
 29.703
 29.4011
 29.3292
 29.4209
 29.4301
 30.2291
 30.2685
 30.3024
 30.2079
 30.3103
 30.2558
 30.2906
 30.3449
 28.8493
 28.9598
 28.8683
 28.8934
 31.0897
 30.9591
 30.9763
 30.8737
 31.1405
 31.0122
 31.0746
 28.9988
 28.9244
 28.8359
 28.8188
 30.9713
 30.8999
 30.9289
 30.8593
 28.6172
 28.6586
 28.5969
 28.6285
 28.9087
 28.9623
 28.9418
 28.9696
 30.4335
 30.3881
 30.4813
 30.4215
 29.2694
 29.2458
 29.3034
 29.3779
 30.9398
 30.8793
 30.7886
 30.7619
 29.1427
 29.1801
 29.1501
 31.3679
 31.3155
 31.384
 31.3063
 29.6889
 29.7093
 29.6706
 29.6326
 30.4919
 30.4632
 29.179
 29.0924
 29.1324
 29.1778
 29.0934
 29.1037
 29.1495
 30.2886
 30.1841
 30.281
 29.0022
 29.019
 28.9864
 28.9088
 32.0447
 31.9442
 31.8758
 31.9456
 30.9205
 30.8838
 30.7968
 30.7918
 29.5676
 29.676
 29.6652
 29.5558
 28.5739
 28.5756
 28.6225
 28.5847
 28.8168
 28.7498
 28.7354
 28.8139
 28.4232
 28.4044
 28.4016
 28.6455
 28.6319
 30.6098
 30.5345
 30.6061
 30.5176
 31.2015
 31.1399
 31.3116
 31.2338
 30.7996
 30.786
 30.6914
 30.6072
 30.6791
 30.6774
 30.3465
 30.3375
 30.2343
 30.3361
 31.3185
 31.318
 31.3924
 29.8008
 29.8616
 29.8334
 29.8907
 27.8582
 27.8835
 27.9525
 30.7118
 30.7234
 30.6816
 30.6072
 28.7391
 28.8302
 28.7669
 28.7441
 29.3031
 29.1936
 29.2114
 29.9432
 29.9986
 29.8821
 29.3638
 29.2709
 29.3987
 28.8422
 28.9289
 29.3739
 29.3564
 29.3567
 30.8703
 30.8526
 30.8252
 30.9332
 28.5596
 28.5091
 28.5657
 28.5932
 29.6876
 29.5812
 29.6674
 32.3478
 32.3889
 32.4153
 32.3386
 31.3817
 31.4651
 29.7502
 30.6828
 30.5736
 30.6435
 30.6691
 30.0466
 29.9646
 29.9722
 29.2556
 29.2144
 29.2835
 29.2532
 28.6047
 28.5579
 30.0933
 30.1334
 30.1262
 30.1803
 31.4208
 31.457
 31.4835
 31.3057
 28.8363
 28.7811
 28.8049
 28.8363
 29.4736
 29.4399
 29.4819
 32.7313
 32.6997
 32.8305
 32.8683
 31.2731
 31.3088
 31.4004
 30.7712
 30.7285
 30.8374
 30.7716
 29.6625
 29.6558
 29.7104
 29.603
 30.0311
 29.9525
 31.71
 31.6722
 31.6799
 31.6845
 29.4411
 29.3445
 30.9259
 31.0295
 30.8986
 30.891
 30.342
 30.3043
 30.4234
 30.3356
 30.116
 30.0397
 29.9691
 30.0545
 30.7212
 30.7746
 30.8791
 29.2838
 29.4168
 29.2983
 29.3739
 28.9443
 28.8818
 28.8084
 28.9475
 28.9721
 28.982
 28.9917
 28.8885
 31.3602
 31.4994
 31.3565
 31.4361
 30.0476
 30.1073
 32.452
 32.654
 32.4763
 32.6139
 30.5349
 30.6548
 30.6785
 28.2219
 32.9712
 32.986
 33.0377
 33.1116
 30.0312
 29.9598
 30.0147
 30.0012
 30.6254
 30.5408
 30.5811
 28.9123
 28.8629
 28.8253
 28.9373
 28.94
 28.9667
 28.8861
 28.8962
 28.9198
 28.8935
 28.9585
 28.9871
 30.859
 30.7719
 30.9007
 30.7794
 31.1637
 31.2448
 31.217
 31.2625
 29.5034
 29.5117
 29.4143
 29.5152
 30.4425
 30.5688
 30.4224
 30.5012
 27.9572
 28.5361
 28.4832
 29.6598
 29.6711
 30.2235
 30.2794
 30.2744
 28.52
 28.4092
 28.4795
 28.496
 30.0815
 30.1239
 29.7782
 29.8436
 32.1078
 32.0444
 32.1623
 32.103
 30.8404
 30.8735
 30.9486
 30.9036
 29.4689
 29.3715
 29.4654
 29.3747
 31.8154
 31.9516
 31.8685
 31.8225
 28.0325
 28.0843
 27.9972
 28.0721
 28.6
 28.7058
 28.4602
 28.5044
 28.5629
 28.4547
 28.9642
 28.9044
 30.5215
 30.4472
 30.4988
 32.5977
 32.5696
 32.6078
 32.6769
 31.7311
 31.6738
 31.6821
 31.7587
 28.5691
 28.5014
 28.5682
 28.611
 29.1893
 29.0533
 29.1091
 29.929
 30.0072
 30.0755
 29.9518
 30.7732
 30.6583
 30.7137
 30.7563
 28.654
 28.5918
 28.6579
 28.5169
 29.9848
 29.879
 30.7674
 30.7195
 29.3915
 29.3181
 29.4409
 29.412
 31.2057
 31.319
 31.1656
 31.36
 31.3999
 31.5444
 31.4569
 32.7556
 32.5904
 32.5554
 32.7095
 30.7261
 30.6736
 30.696
 30.604
 28.8065
 28.7824
 28.924
 28.8458
 28.905
 28.8452
 30.9088
 30.9184
 30.8354
 30.9772
 29.112
 29.1615
 29.0866
 29.4016
 29.4236
 29.3682
 29.4442
 28.8761
 28.7878
 28.8751
 28.7874
 30.7725
 30.688
 30.7157
 30.7538
 28.3971
 28.5113
 30.3092
 32.3488
 32.3678
 32.2523
 32.261
 29.0859
 29.1154
 29.0485
 32.0182
 32.0627
 31.9212
 32.1319
 29.2641
 29.2704
 29.2492
 29.1759
 31.5646
 31.5707
 31.7004
 31.5149
 31.1053
 31.1134
 31.0219
 30.9963
 29.4423
 29.3758
 29.3632
 30.5699
 30.5266
 30.5918
 30.6385
 29.6678
 29.6698
 29.6223
 29.74
 29.6661
 29.7827
 28.7646
 28.7416
 28.7568
 29.385
 29.3647
 29.4009
 32.6704
 32.6894
 32.6123
 32.6702
 31.3898
 31.2553
 31.4239
 31.2223
 28.6464
 28.751
 28.77
 28.7799
 29.0358
 29.0728
 31.0978
 30.9413
 31.1135
 29.3468
 29.4527
 29.4461
 29.5172
 29.4372
 29.4691
 29.4981
 30.8493
 30.8968
 30.8406
 30.8176
 28.4025
 28.4241
 30.6243
 30.6547
 30.6225
 30.5865
 31.0772
 31.0688
 31.0388
 29.3608
 29.3367
 30.0797
 30.0915
 30.1419
 30.0097
 31.533
 31.5799
 29.5341
 29.5892
 30.5197
 30.6159
 30.5832
 30.5539
 29.8198
 29.7971
 29.8945
 29.7602
 29.821
 29.8807
 29.841
 31.6641
 31.6202
 31.6878
 31.5129
 31.8067
 31.828
 31.7459
 31.8262
 29.2778
 29.32
 29.388
 29.3383
 28.6159
 28.6052
 28.6524
 28.6548
 29.6978
 29.6563
 29.7462
 30.0056
 30.0686
 30.1013
 30.0535
 29.9675
 28.9847
 28.9632
 30.6858
 30.5956
 30.6863
 30.7059
 31.0764
 28.6069
 28.6253
 28.6829
 28.6462
 30.0361
 30.1722
 30.1465
 30.0721
 32.5226
 32.499
 30.2817
 30.394
 30.2816
 32.4928
 32.4779
 32.5464
 32.4767
 29.6186
 29.6741
 29.6288
 29.6645
 31.5829
 31.4496
 31.4432
 30.8545
 30.7515
 28.3432
 28.3431
 28.3537
 28.4952
 28.4898
 28.5238
 31.2414
 31.1202
 31.0239
 31.0498
 32.5862
 32.5994
 32.6338
 32.7562
 28.5913
 28.7148
 28.5838
 31.1464
 31.1291
 31.0731
 31.2169
 31.0312
 31.0817
 30.9469
 31.0767
 29.334
 29.2909
 29.2718
 29.3167
 29.6782
 29.4819
 29.5862
 29.3423
 29.3414
 29.4218
 29.3401
 29.0625
 29.1523
 28.989
 29.187
 31.6751
 31.6607
 31.3604
 31.3596
 31.2716
 29.7061
 29.7505
 29.8201
 29.7935
 31.0384
 31.0449
 30.9446
 30.9892
 29.2463
 29.306
 29.2907
 29.2512
 31.5887
 31.4109
 28.7047
 28.7506
 28.7157
 28.7815
 29.1986
 29.3313
 29.2699
 29.1798
 30.716
 30.7028
 30.7418
 30.648
 28.8603
 28.7652
 30.31
 30.2911
 30.2572
 30.2403
 32.2262
 32.1725
 32.2098
 32.2024
 31.622
 31.5624
 31.611
 31.5252
 28.3452
 28.3067
 28.256
 28.278
 28.5986
 28.6338
 28.6619
 30.7821
 30.7945
 30.8096
 28.3777
 28.323
 30.3337
 30.2593
 30.3115
 30.1645
 28.7693
 28.8307
 28.7665
 28.8337
 31.1054
 31.1625
 31.0775
 31.1543
 31.6563
 31.5539
 31.6835
 28.9492
 28.8616
 28.8637
 28.9245
 30.4078
 30.2682
 30.2947
 30.3433
 31.2447
 31.2062
 31.1301
 31.2947
 31.404
 31.6445
 31.4231
 29.6694
 29.793
 29.6485
 29.931
 29.9146
 29.9806
 29.8827
 29.7508
 29.7567
 29.6633
 29.7701
 30.5739
 30.4576
 30.5551
 30.4787
 30.8918
 30.8677
 30.8217
 30.933
 31.3222
 31.4462
 29.4201
 29.308
 29.4201
 29.4174
 29.8597
 29.9788
 29.8821
 29.9383
 29.826
 29.9461
 29.968
 30.0924
 29.9446
 29.958
 32.4874
 32.4061
 32.3819
 32.3981
 28.5987
 28.4888
 28.5606
 30.5191
 30.5277
 30.5187
 30.6235
 30.054
 30.1212
 30.0552
 31.4376
 31.3476
 31.4853
 31.447
 31.1103
 31.2127
 31.1489
 31.1763
 30.4415
 30.4191
 30.3573
 31.0159
 31.0632
 29.1675
 29.2096
 29.0957
 28.2404
 28.2068
 28.2872
 28.2435
 31.1824
 31.2276
 31.2642
 31.0576
 30.1092
 30.0312
 30.0167
 30.1258
 28.9966
 28.9826
 29.0416
 29.054
 31.0145
 30.9905
 31.0696
 30.9209
 30.7878
 30.7436
 30.7171
 30.6387
 28.9146
 28.9825
 29.0654
 29.0514
 30.8233
 30.7034
 28.7057
 28.734
 28.6697
 29.8295
 29.8935
 31.7916
 31.8933
 31.8321
 31.9243
 30.4197
 30.3809
 30.3553
 30.3747
 31.9736
 32.0658
 31.9985
 30.1807
 30.1963
 29.6158
 29.5668
 29.4644
 29.6106
 30.3681
 30.3559
 29.3907
 29.3259
 30.4977
 30.5512
 30.5062
 30.4763
 29.4442
 29.5282
 29.4326
 29.3921
 29.0962
 29.0104
 28.9409
 28.996
 28.3721
 28.3553
 28.3966
 28.3923
 30.1088
 30.063
 31.1332
 31.1195
 31.278
 31.3138
 28.9894
 29.0704
 31.3345
 31.2484
 31.2777
 32.3285
 32.3028
 32.1797
 32.2403
 32.4472
 32.4405
 32.4629
 30.0575
 29.9489
 29.9546
 29.9728
 30.4781
 30.3999
 30.4648
 31.2803
 30.7674
 30.6817
 30.8038
 30.6929
 31.2921
 31.2344
 31.3539
 31.2442
 30.5048
 30.584
 30.488
 30.5837
 29.3954
 29.5492
 29.5508
 29.4184
 28.4119
 28.443
 28.4485
 28.3749
 30.2869
 30.3147
 30.1901
 30.2192
 28.9011
 28.9411
 28.813
 28.8395
 30.76
 29.3039
 29.415
 29.367
 29.3931
 31.8919
 31.9872
 31.8984
 31.9188
 29.266
 29.1913
 29.186
 30.5995
 28.6141
 28.5962
 28.6477
 28.5562
 28.4727
 28.4535
 28.4503
 28.5031
 28.6018
 28.5287
 28.502
 30.0046
 30.0207
 30.0027
 30.102
 28.558
 28.5341
 28.5058
 28.4984
 31.2266
 31.2722
 31.3089
 31.293
 29.4772
 29.5097
 29.505
 29.5874
 30.2687
 30.1484
 30.1706
 30.2531
 32.0697
 31.9648
 32.1127
 29.5943
 30.1513
 30.1726
 30.2087
 30.111
 28.5013
 28.4417
 28.4409
 28.4218
 28.4703
 28.4064
 28.3485
 28.378
 29.4367
 29.4642
 29.4089
 29.4711
 30.6981
 30.7778
 30.8167
 30.7801
 30.3431
 30.2376
 30.3192
 28.534
 28.5087
 28.5481
 28.6225
 28.4251
 28.3819
 28.4081
 28.444
 31.3006
 31.3495
 31.3404
 29.0002
 28.9272
 28.543
 28.5705
 28.5653
 31.2602
 31.3119
 31.2016
 31.1987
 29.1913
 29.097
 29.2417
 29.246
 30.4249
 29.7968
 29.7722
 29.7301
 29.8017
 29.5452
 29.6223
 29.5388
 29.6741
 28.4434
 28.4074
 28.7807
 28.6884
 28.7478
 28.6865
 28.8126
 28.7018
 28.7452
 28.6725
 28.9152
 28.9969
 28.8922
 28.9902
 29.1524
 29.096
 29.1311
 29.0933
 31.8469
 31.7001
 28.5643
 28.5352
 28.4898
 31.6758
 31.7155
 31.6808
 30.9144
 31.0696
 31.0921
 30.9583
 29.1455
 29.1919
 29.1336
 29.0596
 30.2452
 30.3329
 30.2962
 30.2851
 28.1606
 28.229
 28.1545
 28.1046
 29.7668
 29.7868
 29.7327
 29.7563
 28.8604
 28.8015
 28.8656
 29.3317
 29.3342
 29.8675
 30.0035
 29.8969
 29.8827
 29.9232
 30.0806
 29.9182
 30.0262
 31.2993
 31.1969
 31.1942
 29.4955
 29.4097
 29.4562
 29.3785
 30.5674
 30.5177
 30.4449
 28.6964
 28.7124
 28.6217
 28.7296
 28.4636
 29.6911
 29.7956
 29.808
 29.7256
 29.3531
 29.2956
 29.2933
 29.3152
 29.5498
 29.6045
 29.6316
 33.0475
 33.1626
 33.0885
 33.07
 30.9464
 30.8793
 31.5314
 31.638
 30.1862
 30.3344
 30.3206
 30.2408
 32.9648
 32.9566
 28.2305
 28.2021
 28.1779
 28.118
 29.1948
 29.0362
 31.329
 31.3559
 31.2748
 31.284
 30.1472
 30.1372
 30.0752
 30.106
 28.8103
 28.7258
 28.7636
 28.8513
 30.8027
 30.8353
 30.7596
 30.7949
 30.2457
 30.2855
 30.1863
 30.2437
 28.7184
 28.6627
 28.6676
 28.5974
 30.3054
 30.2723
 30.2419
 30.4099
 28.448
 28.5153
 28.4969
 28.5254
 29.4568
 29.3951
 29.4056
 30.9879
 30.9744
 31.1059
 30.9912
 29.6288
 29.7064
 29.6625
 29.7121
 29.8437
 29.9125
 30.5902
 30.4448
 30.4353
 29.4432
 29.46
 29.3608
 29.3474
 28.3686
 28.373
 28.2901
 28.2842
 28.6147
 28.5574
 28.5167
 28.6237
 31.1385
 31.14
 31.2261
 31.1955
 31.6293
 31.6302
 31.6773
 31.6599
 31.3848
 31.5126
 31.3778
 31.4687
 31.6673
 31.6391
 31.6965
 29.9604
 29.9755
 29.9528
 30.0788
 28.9902
 28.948
 29.2246
 29.1226
 29.1928
 29.1886
 29.0091
 28.9497
 29.0504
 31.0796
 31.1727
 31.1341
 31.2085
 29.9889
 29.975
 29.9182
 29.9348
 28.1751
 28.169
 28.1498
 28.0996
 29.7339
 29.7808
 29.8388
 29.7389
 29.6414
 29.7451
 29.6279
 29.7039
 28.5902
 28.5402
 28.6078
 28.6186
 31.3916
 31.5108
 31.5045
 31.4431
 29.2103
 29.2536
 31.4215
 31.5095
 28.8412
 28.9071
 28.8298
 28.7682
 29.8644
 29.8888
 29.8656
 29.9678
 31.7595
 31.6227
 31.68
 31.5936
 31.6604
 31.6594
 31.7001
 30.7844
 30.9182
 29.8461
 29.8815
 29.8222
 29.8735
 29.4004
 29.413
 29.3544
 30.492
 30.569
 30.6131
 30.4937
 30.4694
 30.323
 30.4666
 30.3659
 29.0877
 29.1809
 29.1549
 29.1397
 31.6012
 31.5975
 31.5868
 28.2902
 28.2713
 28.3557
 28.3476
 29.5718
 29.597
 29.5764
 31.0872
 31.0518
 31.0178
 28.5042
 28.4988
 28.5682
 28.4601
 28.9063
 30.7177
 30.8188
 30.7901
 30.756
 28.5293
 28.6472
 28.6136
 28.5569
 29.5348
 29.446
 29.4753
 28.3451
 28.3389
 28.3364
 28.3359
 28.5617
 28.6256
 28.6128
 28.5249
 28.52
 31.6385
 31.5849
 30.1521
 30.1819
 30.0722
 30.1374
 32.1126
 32.204
 32.1979
 32.1358
 30.6201
 29.5838
 29.5362
 29.6755
 29.2203
 29.1574
 29.0818
 29.2138
 30.6167
 30.5993
 30.6842
 30.681
 31.0114
 31.0434
 29.6638
 29.6206
 29.6159
 30.7986
 30.8501
 30.7874
 30.7384
 30.8973
 30.897
 30.8487
 30.8245
 28.5425
 28.4857
 30.5823
 30.5105
 30.5761
 30.5826
 31.6555
 31.5148
 31.6162
 31.5123
 31.042
 31.0167
 30.8146
 30.9752
 31.7028
 31.8066
 31.7332
 28.9486
 29.0239
 28.8972
 29.2313
 29.2446
 28.577
 28.5621
 28.6178
 31.3327
 31.4684
 31.4317
 31.4049
 31.2289
 31.1738
 31.1098
 32.9705
 32.8025
 32.9497
 32.9722
 29.0071
 29.1212
 29.0114
 28.96
 30.862
 30.8362
 30.8667
 30.73
 29.5904
 29.6599
 29.64
 29.5871
 29.0105
 29.0342
 29.1315
 29.0641
 31.2695
 31.2495
 31.2136
 31.1565
 30.1722
 30.0932
 30.1772
 29.2374
 29.2357
 29.1725
 29.5595
 29.5841
 29.5734
 29.4677
 30.1751
 30.2898
 30.2853
 30.2693
 29.5708
 29.5291
 29.4969
 31.7293
 31.5469
 31.7121
 31.6927
 30.0797
 30.0729
 30.057
 30.1422
 31.2652
 31.3579
 31.3416
 31.3496
 31.4662
 31.6023
 31.4602
 31.4877
 28.0906
 27.9906
 28.1276
 31.1732
 31.2718
 31.1667
 28.0625
 28.9203
 28.9032
 29.0079
 28.9756
 31.5093
 29.209
 30.7462
 30.7529
 30.8265
 30.8053
 31.6954
 31.7758
 31.833
 31.7693
 29.3765
 30.2393
 28.2749
 28.3034
 28.289
 28.2994
 32.8118
 32.8637
 32.8986
 30.9074
 30.9977
 31.0446
 31.527
 31.7051
 27.9492
 27.901
 27.9962
 27.9537
 30.3964
 30.5348
 30.4431
 30.4253
 28.8884
 28.8105
 28.8036
 29.5114
 29.5799
 29.3955
 29.4323
 29.3001
 29.3884
 28.4576
 28.5164
 28.5243
 28.4702
 30.2094
 30.1932
 30.0602
 30.114
 28.637
 28.584
 28.6576
 28.6074
 30.1063
 30.0326
 29.9381
 30.0623
 29.098
 29.0724
 29.0388
 29.1347
 28.9189
 29.0047
 28.9318
 28.7582
 31.0541
 31.2136
 31.0054
 30.9436
 29.913
 28.3902
 28.2941
 28.3311
 28.3186
 29.7301
 29.7213
 29.8484
 29.7136
 29.6153
 29.5886
 31.185
 31.311
 31.2781
 31.1628
 30.6252
 30.7378
 30.637
 29.9938
 30.0149
 30.0528
 30.0991
 28.1021
 28.1778
 28.1945
 28.1581
 30.8581
 30.8585
 30.9279
 30.9534
 29.2607
 29.3787
 29.3781
 29.3318
 29.9931
 29.984
 30.0473
 31.4027
 31.2776
 31.3274
 31.324
 32.1828
 32.1198
 32.2088
 32.0832
 30.6789
 30.7331
 30.737
 28.8321
 28.8283
 28.7731
 29.6844
 29.016
 29.1246
 29.0917
 29.0855
 30.9467
 30.9812
 30.9731
 30.9757
 28.7369
 28.6028
 28.6713
 28.6909
 29.9031
 30.0295
 29.395
 29.4542
 29.4229
 29.3781
 29.3863
 29.4171
 29.5525
 32.4036
 32.3717
 32.5149
 32.4302
 27.8958
 27.7772
 27.8197
 27.8837
 30.5554
 30.4611
 30.5092
 31.1243
 31.0311
 31.1923
 31.0055
 29.2632
 29.3996
 29.3531
 32.8831
 32.9397
 33.0187
 32.8812
 29.0441
 29.0272
 28.9386
 28.9344
 28.9941
 28.9801
 31.5583
 31.6678
 31.6051
 31.6642
 31.2587
 31.2572
 31.2207
 31.3107
 32.0455
 31.9848
 31.8953
 31.9989
 30.226
 32.0609
 31.8957
 31.9009
 31.936
 29.0938
 29.1666
 29.1953
 29.2178
 31.2126
 31.0757
 29.1468
 29.1021
 29.0987
 29.1969
 28.8239
 28.7817
 28.8333
 28.7845
 28.1891
 28.1474
 28.1521
 28.0556
 32.7118
 32.7184
 32.6828
 29.5587
 29.4672
 29.5009
 29.51
 28.8834
 28.8688
 28.9304
 28.9051
 32.414
 32.3803
 32.3552
 32.4441
 29.5007
 29.0778
 29.0531
 29.0173
 29.0994
 28.5541
 28.5156
 28.5539
 30.199
 30.1393
 30.1534
 30.0959
 28.256
 28.1612
 28.1273
 28.1687
 29.719
 29.6721
 29.7216
 29.7316
 29.6176
 30.9298
 31.0677
 30.9003
 29.7954
 29.8856
 29.8486
 29.757
 29.9245
 29.8936
 29.8419
 29.9781
 30.593
 30.7094
 30.6733
 31.6204
 32.2648
 32.1827
 32.3704
 29.4439
 29.3943
 29.4175
 29.0809
 29.0677
 29.1188
 31.0857
 30.9832
 31.0174
 30.8988
 29.2755
 29.3342
 28.5615
 28.6081
 28.6271
 28.6003
 28.4215
 28.4363
 28.4415
 28.7161
 28.6595
 29.5258
 29.4534
 29.5101
 28.8163
 28.9295
 28.8602
 31.311
 32.9902
 33.0591
 32.967
 32.9637
 29.5331
 29.5079
 29.5845
 29.5548
 32.7197
 32.6766
 32.609
 32.7135
 29.1712
 29.1497
 29.118
 30.0744
 30.0966
 30.198
 30.2115
 30.8869
 30.8497
 30.9887
 30.9234
 29.7243
 29.7109
 29.6252
 29.2043
 29.1344
 30.2033
 30.0897
 30.1474
 30.1844
 30.5686
 30.5078
 30.5539
 31.3482
 31.3267
 31.3265
 29.6146
 29.5642
 29.5137
 29.6273
 29.0061
 28.9124
 28.9852
 28.9442
 27.8863
 27.9424
 27.865
 27.9353
 29.8799
 29.9026
 27.8499
 27.9164
 27.9377
 29.3745
 31.524
 31.43
 31.3655
 31.4214
 30.8267
 30.7625
 30.8468
 30.7829
 29.3364
 29.3923
 29.3534
 28.6667
 28.6088
 31.6975
 31.65
 31.7791
 31.6125
 29.104
 29.1465
 31.5234
 31.5786
 29.746
 29.7473
 29.7915
 31.7985
 31.9231
 31.7611
 30.8949
 30.9336
 30.974
 30.9821
 28.6794
 28.6693
 28.6377
 28.6881
 30.325
 30.3017
 30.3063
 30.192
 30.333
 30.2681
 30.2207
 28.4313
 28.5401
 28.5315
 28.5391
 32.1654
 32.0729
 32.2036
 29.9821
 30.0744
 30.0329
 29.0063
 28.9615
 29.2888
 29.3055
 29.3945
 29.3792
 32.2114
 32.1313
 32.2122
 32.2304
 30.8915
 30.8923
 30.9057
 30.8244
 28.9479
 28.9237
 28.8895
 28.883
 28.8528
 28.8953
 28.8793
 28.9309
 30.2904
 30.385
 30.2965
 30.3189
 28.0656
 27.9571
 27.9782
 28.0783
 31.3314
 31.2409
 31.3812
 32.4235
 32.5964
 32.6077
 29.717
 29.6508
 29.2241
 29.1982
 29.2595
 29.234
 28.6715
 28.7101
 28.6051
 28.5971
 30.4654
 29.9509
 30.3538
 30.2798
 30.2303
 30.18
 32.8519
 32.8508
 32.9222
 32.7581
 29.0311
 29.0672
 30.9587
 30.9218
 30.8639
 30.6458
 30.6861
 30.5871
 30.5599
 31.6005
 31.7214
 30.6194
