 14.1724
 14.0252
 14.065
 13.9642
 11.2659
 11.2406
 11.1455
 11.0961
 12.0834
 12.1886
 12.0567
 12.1942
 11.9672
 12.0577
 12.1166
 12.1535
 10.1595
 10.0134
 10.2311
 10.272
 10.2356
 10.3599
 10.1409
 10.3135
 14.7161
 14.8238
 14.7892
 14.7169
 14.6789
 14.6342
 14.6337
 14.7083
 10.1569
 10.2168
 10.3511
 10.2068
 10.2869
 10.2656
 10.3169
 10.1022
 15.074
 15.14
 15.0382
 15.0187
 12.0362
 12.0261
 12.1343
 12.0623
 13.6233
 13.6415
 13.7256
 13.545
 11.2331
 11.4054
 11.4584
 11.3534
 12.5783
 12.6017
 12.5331
 12.4464
 14.3758
 14.4549
 14.3193
 14.4511
 10.6912
 10.595
 10.6864
 10.5346
 11.7413
 11.8151
 11.709
 11.7908
 12.5647
 12.5401
 12.5215
 12.4517
 10.6656
 10.6762
 10.6099
 10.5041
 14.6151
 14.7366
 14.6069
 14.6938
 9.80557
 9.80441
 9.65556
 9.63245
 15.929
 15.9922
 15.9923
 15.9031
 11.5511
 11.4838
 11.5997
 11.6207
 12.7329
 12.8018
 12.6935
 12.6659
 12.4083
 12.3908
 12.4546
 12.4905
 13.2213
 13.1044
 13.0494
 13.2052
 14.4012
 14.4821
 14.3863
 14.3922
 13.6937
 13.723
 13.8238
 13.761
 11.3684
 11.3907
 11.437
 11.5238
 12.6685
 12.4828
 12.6992
 12.6392
 13.6131
 13.521
 13.5289
 13.6084
 11.819
 11.9498
 11.8136
 11.925
 11.2271
 11.2883
 11.2891
 11.272
 13.6265
 13.7438
 13.6155
 13.7917
 14.2668
 14.2762
 14.2933
 14.2885
 11.884
 12.0384
 11.9201
 11.9384
 14.8608
 14.8174
 14.7953
 14.7804
 11.5961
 11.5792
 11.3689
 11.4211
 9.38722
 9.54339
 9.4351
 9.57259
 12.2719
 12.3083
 12.2504
 12.3994
 11.4495
 11.3445
 11.3888
 11.4532
 14.7524
 14.7558
 14.6647
 14.8247
 11.798
 11.9021
 11.8572
 11.7425
 10.1729
 10.221
 10.094
 10.1718
 13.9114
 13.8218
 13.8617
 13.9034
 11.8126
 11.6327
 11.6807
 11.651
 14.2412
 14.1429
 14.2178
 14.3221
 13.6087
 13.6791
 13.718
 13.7485
 12.5522
 12.6398
 12.6562
 12.7561
 14.4211
 14.4628
 14.4952
 14.4107
 12.346
 12.4498
 12.436
 12.3662
 13.4092
 13.5264
 13.3936
 13.5722
 12.2615
 12.1926
 12.2581
 12.198
 13.7398
 13.6476
 13.7173
 13.5807
 12.1112
 12.1266
 12.0261
 12.2062
 11.495
 11.4898
 11.4149
 11.3394
 11.4097
 11.5006
 11.4418
 11.6073
 13.8341
 13.8603
 13.9817
 13.7897
 13.1661
 13.2258
 13.2191
 13.0838
 15.7582
 15.8084
 15.8655
 15.7949
 13.7389
 13.7718
 13.8686
 13.7543
 12.712
 12.5546
 12.6346
 12.6112
 13.3915
 13.3942
 13.2381
 13.4709
 13.5086
 13.3951
 13.5186
 13.4148
 14.5207
 14.5822
 14.4983
 14.4977
 10.5964
 10.4426
 10.3766
 10.6052
 10.2183
 10.1646
 10.1012
 10.0554
 12.4694
 12.327
 12.5658
 12.4834
 13.6967
 13.7281
 13.655
 13.7873
 11.5614
 11.5091
 11.4414
 11.5695
 14.5644
 14.7769
 14.692
 14.6874
 14.6181
 14.7004
 14.7429
 14.6039
 15.9532
 16.0214
 15.936
 15.9536
 12.1865
 12.0424
 12.1339
 12.0188
 13.8971
 13.7796
 13.7579
 13.882
 14.1426
 14.22
 14.0952
 14.0825
 9.94503
 9.79168
 9.84861
 9.77175
 14.3617
 14.4109
 14.4945
 14.3849
 14.1602
 14.2145
 14.2761
 14.1672
 13.9679
 13.8879
 13.9824
 14.0675
 12.9774
 13.003
 12.9062
 12.9217
 14.0878
 13.9665
 14.0556
 14.0157
 13.6287
 13.5724
 13.5385
 13.5947
 13.1606
 13.1931
 13.2392
 13.2779
 14.3015
 14.4298
 14.2732
 14.4176
 16.1875
 16.2031
 16.0958
 16.0943
 14.5335
 14.4946
 14.4276
 14.484
 12.0872
 12.1766
 12.052
 12.2348
 12.0695
 12.1217
 12.0244
 12.1383
 11.4474
 11.5358
 11.5517
 11.4414
 14.7715
 14.7856
 14.7539
 14.7086
 9.64217
 9.66199
 9.7696
 9.55862
 11.6014
 11.489
 11.6224
 11.5835
 14.8238
 14.8192
 14.9146
 14.9333
 13.5642
 13.5733
 13.6117
 13.4312
 14.1968
 14.1188
 14.2865
 14.2213
 14.1698
 14.2204
 14.2289
 14.7329
 14.7452
 14.7574
 14.7995
 11.8219
 11.9001
 11.9848
 11.7793
 13.1807
 13.0241
 13.0774
 13.1551
 12.0243
 11.9006
 12.0067
 13.7051
 13.8522
 13.7534
 13.7954
 12.911
 12.8123
 12.8477
 12.9774
 10.8043
 11.0083
 10.9932
 10.7378
 14.5562
 14.5417
 14.4109
 14.458
 14.2363
 14.3093
 14.3688
 14.2982
 12.1863
 12.3232
 12.3469
 12.296
 11.6293
 11.7107
 11.5117
 11.524
 14.729
 14.7074
 14.7499
 14.822
 14.2906
 14.2586
 14.0933
 14.1431
 13.273
 13.1453
 13.0735
 13.2533
 10.3222
 10.235
 10.2842
 10.2565
 12.1357
 12.0013
 11.9467
 12.0131
 12.7842
 12.9605
 12.8194
 12.7848
 15.792
 15.8968
 15.7896
 15.7933
 13.0639
 13.149
 13.0125
 12.9425
 10.8073
 10.9546
 10.807
 10.9948
 13.9945
 14.1531
 13.9293
 13.9716
 14.3233
 14.3031
 14.4069
 14.3459
 14.347
 14.449
 14.4239
 14.3961
 15.2197
 15.2298
 15.2271
 15.1793
 14.0507
 14.2103
 14.196
 14.1998
 12.1517
 12.1611
 12.1419
 12.2379
 14.7798
 14.7431
 14.7117
 14.6755
 10.5609
 10.6829
 10.5761
 10.5394
 14.6006
 14.7277
 14.7163
 14.6101
 10.8752
 11.0761
 10.852
 10.9814
 13.1887
 13.2818
 13.2776
 13.2057
 13.4285
 13.32
 13.2872
 13.3909
 13.8549
 13.8539
 13.7065
 13.8149
 14.0705
 14.0709
 14.1648
 14.1865
 9.79813
 9.66021
 9.61781
 9.64171
 13.9832
 14.0552
 13.9817
 14.0393
 9.41335
 9.54458
 9.45542
 9.64233
 11.5959
 11.641
 11.4858
 11.6011
 15.5206
 15.4157
 15.4368
 15.5225
 10.0246
 10.0496
 9.94623
 9.89776
 14.3686
 14.2631
 14.3613
 14.4484
 15.48
 15.5475
 15.5813
 15.4867
 11.1622
 11.2092
 11.2785
 11.217
 10.0774
 9.89617
 10.0358
 10.1128
 12.4721
 12.4523
 12.5015
 12.5389
 11.3209
 11.4728
 11.2882
 11.456
 14.227
 14.3516
 14.28
 14.3116
 12.2529
 12.3033
 12.26
 12.1519
 13.5194
 13.5499
 13.4623
 13.4525
 14.6495
 14.5963
 14.6739
 14.6748
 15.0127
 15.0337
 15.0433
 14.9473
 13.1285
 13.1713
 13.0611
 13.2108
 12.786
 12.8021
 12.8331
 12.9132
 14.2627
 14.2774
 14.1928
 14.1776
 14.2687
 14.4183
 14.2833
 14.2975
 11.9916
 11.9662
 12.0584
 12.063
 10.1933
 10.293
 10.0969
 10.0563
 10.4616
 10.5417
 10.4322
 10.3951
 10.5366
 10.6858
 10.6513
 10.5664
 11.6779
 11.7564
 11.6422
 11.7605
 14.2704
 14.4206
 14.3088
 14.3505
 14.2172
 14.1363
 14.1087
 14.0909
 12.8031
 12.8729
 12.9938
 13.0215
 11.6396
 11.7045
 11.5297
 11.6201
 11.6897
 11.7603
 11.7071
 11.6131
 12.5096
 12.6216
 12.5339
 12.5099
 12.1178
 12.0093
 12.143
 12.1223
 14.8747
 14.8859
 14.8285
 14.7359
 16.5139
 16.5769
 16.5034
 16.61
 13.9698
 13.9798
 14.0963
 14.0265
 16.2539
 16.1516
 16.1755
 14.0449
 14.0726
 14.0034
 14.1231
 10.6228
 10.7128
 10.6521
 10.7397
 12.628
 12.5737
 12.5371
 12.4439
 10.3523
 10.4144
 10.2679
 10.4392
 14.3065
 14.2904
 14.4103
 14.3145
 11.7167
 11.7236
 11.5173
 11.5708
 12.4768
 12.503
 12.6354
 12.5505
 9.85954
 9.77117
 9.73643
 9.99161
 11.1399
 11.1687
 11.1099
 10.9949
 13.9409
 13.8321
 13.9057
 13.9449
 11.6743
 11.6883
 11.8085
 11.6587
 10.912
 11.1141
 11.0081
 11.0814
 15.4552
 15.5722
 15.5398
 15.5649
 12.6575
 12.614
 12.5362
 12.5202
 10.9076
 10.8548
 10.8391
 10.9575
 12.0288
 11.9178
 12.1094
 11.8454
 10.9108
 11.0561
 10.8952
 10.9037
 14.1708
 14.0689
 14.0117
 14.0292
 11.0819
 10.8452
 11.1059
 10.8922
 13.1831
 13.1219
 13.3039
 13.1865
 12.9611
 12.9158
 12.8402
 12.9887
 11.1456
 11.1994
 11.2923
 11.0795
 9.4591
 9.5741
 9.5799
 9.49771
 14.9027
 14.8436
 14.7858
 14.7504
 13.6735
 13.5664
 13.5149
 13.6469
 12.188
 12.2698
 12.3211
 12.2864
 11.2009
 11.1068
 11.1395
 11.0942
 13.9355
 14.0299
 13.9851
 13.9746
 14.6897
 14.5745
 14.5188
 14.6652
 11.6035
 11.5949
 11.765
 11.7461
 11.9139
 11.8065
 11.9206
 11.8707
 9.98955
 9.86262
 9.75138
 9.97815
 14.439
 14.2997
 14.4669
 14.3783
 10.1284
 9.9967
 10.0188
 10.1041
 13.6822
 13.5666
 13.6563
 13.6928
 16.4457
 16.4569
 16.4098
 16.3899
 10.5811
 10.517
 10.4239
 10.497
 11.8508
 11.7802
 11.922
 12.0302
 10.6816
 10.6622
 10.7539
 10.7614
 12.8791
 13.0131
 12.9258
 12.8686
 13.1372
 13.079
 13.0541
 13.1213
 11.3125
 11.4748
 11.4621
 11.4047
 14.2882
 14.2335
 14.3417
 14.2638
 14.4993
 14.4399
 14.4271
 14.4809
 15.9038
 15.9513
 15.9654
 15.984
 12.3959
 12.3191
 12.2628
 12.2135
 12.7573
 12.8057
 12.6089
 12.7431
 12.0916
 12.2869
 12.142
 12.0526
 13.6064
 13.4436
 13.4266
 13.6282
 10.0955
 10.1005
 10.0149
 10.2484
 10.0545
 9.82851
 10.0521
 10.0837
 11.9792
 11.9201
 11.8209
 11.8104
 17.078
 17.0931
 17.0604
 17.001
 13.1828
 13.2522
 13.1628
 13.3141
 13.1301
 13.1599
 13.2897
 13.1596
 13.1919
 13.1632
 13.3101
 13.3012
 11.1601
 11.2198
 11.0455
 11.2324
 15.6642
 15.5552
 15.7222
 15.6661
 15.9621
 15.9773
 16.0419
 16.0852
 11.0467
 11.1471
 11.0491
 11.1966
 13.7795
 13.6383
 13.832
 13.6624
 13.4383
 13.4647
 13.4161
 13.4108
 11.8196
 11.8718
 11.9236
 12.0436
 14.4285
 14.3663
 14.327
 14.3865
 11.0857
 11.1929
 11.1792
 11.0706
 13.5776
 13.7723
 13.685
 13.8381
 13.7381
 13.7517
 13.847
 13.7704
 14.7026
 14.7623
 14.6503
 14.7705
 13.3032
 13.159
 13.2373
 13.1376
 10.8312
 10.761
 10.7768
 10.8702
 11.7201
 11.5819
 11.5321
 11.6588
 14.3907
 14.4043
 14.3088
 14.3095
 13.9561
 13.8183
 13.8184
 13.9504
 10.4657
 10.4057
 10.3069
 10.3756
 11.1893
 11.3013
 11.2396
 11.27
 13.0819
 13.1291
 13.2015
 13.1244
 14.8203
 14.7949
 14.8012
 14.7582
 15.2734
 15.1181
 15.154
 15.2557
 11.9294
 12.0672
 12.1238
 12.0076
 14.5753
 14.675
 14.5799
 14.7798
 10.6174
 10.7894
 10.7791
 10.631
 12.2075
 12.0339
 12.1335
 12.2375
 11.086
 11.1293
 11.182
 11.1079
 11.6433
 11.8077
 11.7906
 11.6902
 13.1618
 13.2334
 13.153
 13.0757
 14.1808
 14.3708
 14.3275
 14.2447
 15.1025
 14.9475
 15.082
 15.0679
 14.7415
 14.8766
 14.7303
 14.7725
 14.2136
 14.3303
 14.3513
 14.282
 12.9808
 12.9371
 12.9373
 13.1403
 13.0041
 12.9283
 12.9526
 13.0543
 12.8766
 12.978
 12.7853
 12.8904
 12.032
 12.1037
 11.9773
 12.0011
 15.5757
 15.6827
 15.6297
 15.6392
 12.5677
 12.5316
 12.5879
 12.4593
 14.4112
 14.5225
 14.473
 14.4476
 13.4607
 13.3053
 13.419
 13.3356
 10.1719
 10.411
 10.2109
 10.2802
 12.9685
 13.0287
 13.0338
 13.0868
 14.6051
 14.6657
 14.6311
 14.7483
 13.4067
 13.4383
 13.3421
 13.2814
 14.1512
 14.0888
 14.0941
 14.1915
 13.0774
 13.2269
 13.0787
 13.2004
 15.5213
 15.6033
 15.5638
 15.4821
 13.462
 13.4513
 13.3632
 13.3461
 11.9096
 11.9442
 11.844
 11.9496
 12.0776
 12.0642
 12.0135
 12.0559
 10.3413
 10.6158
 10.4018
 10.5033
 13.9281
 13.943
 13.8335
 13.9106
 14.1793
 14.1047
 14.1968
 13.9927
 10.3137
 10.5081
 10.3212
 10.3582
 14.1507
 14.1477
 14.0326
 14.1452
 10.8973
 10.9463
 10.7952
 10.961
 12.5777
 12.4001
 12.5055
 12.4225
 13.0046
 13.1771
 13.0178
 12.9772
 14.2541
 14.1345
 14.1483
 14.2561
 13.0862
 13.0814
 12.9313
 13.0707
 10.8528
 10.8914
 10.8352
 10.8187
 16.5198
 16.4853
 16.4586
 16.5815
 14.8654
 14.8896
 14.8902
 14.8547
 14.7523
 14.7296
 14.7556
 14.8316
 13.7738
 13.7203
 13.8348
 13.6739
 13.4716
 13.5679
 13.4969
 13.5533
 13.9002
 13.9668
 13.9933
 13.892
 9.97055
 10.0358
 9.80164
 10.0492
 14.299
 14.3745
 14.3682
 14.2159
 12.1279
 12.1229
 12.0753
 12.2144
 12.9086
 11.0875
 11.2333
 11.2177
 11.2508
 12.271
 12.1579
 12.0648
 12.1546
 14.982
 14.9237
 14.9005
 14.9447
 13.6707
 13.7198
 13.6267
 13.553
 13.9864
 14.1016
 14.0256
 14.0187
 10.8001
 10.9513
 10.9237
 10.9071
 13.3412
 13.5173
 13.393
 13.4425
 10.6541
 10.634
 10.7897
 10.7652
 11.7029
 11.6225
 11.7632
 11.5886
 14.9336
 14.8604
 14.9021
 14.7704
 14.2402
 14.357
 14.1646
 14.2461
 12.0288
 11.9427
 11.9229
 12.0189
 13.0502
 13.1996
 13.0339
 14.6777
 14.7277
 14.6836
 14.6345
 11.9342
 12.164
 12.0084
 12.1145
 14.0316
 14.1653
 14.1412
 14.0838
 13.0922
 13.2658
 13.1739
 13.0762
 10.506
 10.5068
 10.7201
 10.545
 13.7942
 13.841
 13.9108
 13.8147
 11.133
 11.3098
 11.1727
 11.1167
 12.8756
 12.9679
 12.8826
 13.0224
 11.3719
 11.463
 11.5829
 11.5003
 10.6735
 10.6718
 10.5049
 10.5803
 13.7184
 13.7364
 13.6435
 13.6523
 16.4565
 16.3246
 16.3356
 16.2687
 9.74533
 9.8406
 9.84537
 9.86515
 12.0499
 12.1151
 12.1624
 12.0835
 14.4285
 14.4427
 14.2372
 14.3962
 13.4384
 13.3385
 13.3254
 13.4433
 15.3872
 15.3594
 15.3735
 15.4554
 10.6478
 10.558
 10.3838
 10.5191
 14.7418
 14.8136
 14.776
 14.7623
 12.4568
 12.3382
 12.5116
 12.423
 14.3195
 14.5262
 14.3608
 14.3758
 9.61309
 9.63778
 9.62829
 9.78514
 9.80658
 9.84532
 9.9421
 10.0418
 11.5852
 11.7115
 11.7514
 11.5517
 12.3821
 12.3357
 12.3697
 12.4685
 12.3501
 14.5227
 14.5024
 14.6242
 14.5458
 14.3786
 14.4202
 14.4576
 14.346
 11.8947
 11.775
 11.768
 11.7532
 14.5867
 14.4942
 14.4936
 14.5921
 14.1423
 14.182
 14.1951
 14.0928
 11.6341
 11.5833
 11.6017
 11.7335
 13.6474
 13.5064
 13.6461
 13.5115
 11.8936
 11.8824
 11.8709
 11.7728
 14.092
 14.1183
 14.2056
 14.1118
 13.8097
 13.7366
 13.7068
 13.6962
 13.2321
 13.1076
 13.2747
 13.1526
 12.4235
 12.2797
 12.3555
 12.2202
 11.2504
 11.3199
 11.112
 11.1485
 12.551
 12.5882
 12.6569
 12.6408
 12.5881
 12.5167
 12.489
 12.5143
 14.996
 14.9984
 14.9381
 14.9026
 12.1002
 12.0887
 12.0214
 12.0711
 12.9221
 12.8968
 12.8351
 12.9228
 12.7812
 12.798
 12.8813
 12.8111
 13.6474
 13.6181
 13.7385
 13.6587
 14.6772
 14.6899
 14.6309
 14.7799
 11.4982
 11.5396
 11.4695
 11.4208
 14.6381
 14.7177
 14.6901
 14.5598
 9.98069
 9.99291
 9.79261
 9.91156
 11.2263
 11.3231
 11.1531
 11.2163
 11.1679
 11.1449
 11.1337
 11.1875
 10.9444
 11.0065
 11.0204
 10.865
 11.7188
 11.6562
 11.7796
 11.6575
 15.3936
 15.4533
 15.553
 12.6364
 12.8111
 12.6635
 12.6825
 11.2955
 11.3586
 11.3986
 11.3111
 13.7075
 13.8373
 13.7689
 13.7391
 14.1116
 14.0736
 14.1559
 14.0613
 11.6521
 11.6273
 11.5316
 11.769
 13.2466
 13.2795
 13.2395
 13.1254
 14.0086
 13.9994
 14.0495
 14.0602
 10.0237
 9.83247
 12.1409
 12.1578
 12.2945
 12.2745
 13.1827
 13.2262
 13.2933
 12.5424
 12.4986
 12.5165
 12.6467
 15.1231
 15.1652
 15.0516
 15.0658
 11.1326
 11.0356
 11.0341
 11.1926
 12.5898
 12.6221
 12.6962
 12.678
 13.7188
 13.8163
 13.7561
 13.6536
 12.6966
 12.8212
 12.7823
 12.7259
 14.6381
 14.6941
 14.5955
 14.6443
 14.8729
 14.692
 14.8246
 14.7899
 13.2491
 13.1545
 13.1154
 13.1857
 14.5634
 14.5874
 14.5774
 14.4939
 13.0845
 13.1478
 13.1226
 13.1686
 10.942
 10.9783
 11.1317
 11.1479
 14.5145
 14.4503
 14.4032
 14.4749
 15.8697
 15.7792
 15.8272
 15.7789
 12.2052
 12.4398
 12.3049
 12.2461
 13.3927
 13.3079
 13.4141
 13.3102
 14.6363
 14.6535
 14.5462
 14.5679
 13.18
 13.2409
 13.113
 13.1338
 10.6241
 10.6699
 10.5845
 10.611
 14.2139
 14.2224
 14.2773
 14.226
 12.3123
 12.3849
 12.3817
 12.4263
 13.4623
 13.3244
 13.4153
 13.252
 11.7657
 11.6684
 11.6768
 11.5823
 11.0192
 11.0287
 10.9554
 11.0818
 14.446
 14.3557
 14.4147
 14.2579
 13.8438
 13.7581
 13.7802
 13.8068
 12.4037
 12.417
 12.5745
 12.4727
 14.692
 14.649
 14.6662
 14.6322
 16.4596
 16.5434
 16.5366
 16.4876
 12.7185
 12.8234
 12.8304
 12.8373
 16.6571
 16.681
 16.6352
 16.5737
 16.4942
 16.3957
 16.3947
 16.4412
 15.0827
 15.0176
 15.0269
 15.1126
 12.0721
 12.1629
 12.2419
 12.2865
 12.1546
 12.0406
 12.0389
 11.9496
 11.9538
 12.064
 11.9811
 12.1207
 12.2645
 12.4014
 12.3738
 12.2148
 15.5108
 15.5859
 15.5333
 15.5523
 14.457
 14.5132
 14.3935
 14.4373
 14.4538
 14.5887
 14.5704
 14.5405
 13.6055
 13.4772
 13.598
 13.4647
 12.5647
 12.64
 12.561
 12.6169
 11.7686
 11.7831
 11.8429
 11.7329
 14.295
 14.1732
 14.1521
 14.2731
 12.0391
 13.2009
 13.1134
 13.1109
 13.1843
 9.77029
 9.73644
 9.5618
 9.67001
 13.3637
 13.3613
 13.2708
 13.3551
 10.7195
 10.5487
 10.6735
 14.5419
 14.4781
 14.4412
 14.5618
 16.2495
 16.1623
 16.1939
 16.1395
 13.0212
 13.0388
 12.8979
 13.1069
 13.6605
 13.8087
 13.7756
 13.7942
 14.5693
 14.4938
 14.431
 14.4043
 14.3723
 14.3329
 14.4293
 14.3221
 15.2007
 15.3508
 15.2607
 15.2635
 12.4355
 12.4549
 12.3652
 12.1924
 13.0793
 12.9567
 13.1087
 13.0116
 13.9609
 14.0559
 13.9644
 14.0006
 13.2312
 13.3245
 13.0941
 11.4845
 11.5617
 11.5881
 14.1913
 14.1828
 14.3202
 14.3439
 15.2381
 15.281
 15.2784
 15.2416
 13.9984
 13.9262
 13.9313
 14.0241
 15.1126
 15.2077
 15.0932
 15.2476
 11.4686
 11.2616
 11.414
 11.3752
 11.5927
 11.5415
 11.4997
 11.4208
 14.6963
 14.7384
 14.7191
 14.7334
 15.3066
 15.4346
 15.3514
 15.3144
 12.6789
 12.8414
 12.708
 12.7736
 10.1819
 10.3079
 10.1111
 10.2754
 15.1934
 15.1951
 15.2492
 15.1866
 12.0326
 12.1662
 12.1718
 12.0063
 15.9418
 15.9987
 15.9318
 15.9747
 11.7702
 11.6856
 11.8043
 11.5826
 13.5253
 13.6176
 13.4756
 13.6494
 11.4852
 11.4804
 11.3402
 11.3581
 14.5684
 14.5318
 14.5095
 14.409
 13.7349
 13.8298
 13.8144
 13.8241
 14.1195
 14.1586
 14.0467
 14.0476
 14.0526
 14.0977
 13.9691
 14.1464
 12.7283
 12.6492
 12.6657
 12.7754
 13.3215
 13.4235
 13.3074
 13.3146
 11.2728
 11.3949
 11.459
 11.4035
 9.9538
 9.82904
 10.1041
 10.121
 13.4276
 13.4405
 13.5275
 13.4518
 10.9539
 11.0015
 11.0695
 10.8609
 11.8443
 11.6639
 11.5994
 11.6848
 15.5234
 15.5775
 15.6699
 15.5435
 14.6633
 14.48
 14.5144
 14.5721
 13.5586
 13.6401
 13.6725
 13.6236
 15.1662
 15.2383
 15.2589
 15.3074
 12.6094
 12.4759
 12.4941
 12.5521
 11.4663
 11.2321
 11.3618
 11.3307
 15.1049
 14.9655
 15.0942
 15.1067
 13.1907
 13.0923
 13.1639
 13.144
 14.0165
 14.0322
 14.0282
 14.084
 16.4137
 16.3462
 16.3228
 16.4007
 13.7709
 13.7901
 13.7946
 13.6954
 13.0917
 13.0147
 13.0374
 12.9959
 11.9612
 11.8426
 11.9223
 11.8051
 14.1448
 14.1189
 14.0976
 13.0712
 13.0931
 13.1241
 13.0985
 13.8261
 13.8809
 13.6897
 13.8003
 12.1578
 12.2765
 12.167
 12.2272
 12.0978
 11.952
 11.9983
 12.0059
 10.6966
 10.8015
 10.7314
 10.8947
 14.3755
 14.3806
 14.3013
 14.4012
 10.2088
 10.1683
 10.1119
 10.1775
 14.1998
 14.1017
 14.19
 14.2481
 13.0918
 12.9598
 12.977
 12.9069
 12.9461
 13.0814
 13.0271
 13.1036
 16.571
 16.6501
 16.5733
 16.5975
 13.8732
 13.9417
 13.8629
 13.844
 13.127
 13.1579
 13.0437
 12.9114
 13.23
 13.198
 13.1733
 13.3342
 9.74452
 9.75486
 9.89851
 9.79693
 14.2051
 14.0884
 14.0214
 14.1726
 14.0607
 14.1271
 14.0003
 14.1563
 11.8458
 11.6985
 11.8109
 11.7508
 14.4882
 14.5092
 14.5706
 14.5818
 14.5214
 14.543
 14.476
 14.5536
 12.1671
 12.3253
 12.1823
 12.278
 12.1363
 12.1276
 12.2407
 12.1263
 12.8475
 12.8319
 12.6499
 12.7259
 14.0978
 14.1528
 12.4514
 12.5505
 12.3961
 12.5233
 14.0825
 14.0205
 14.0866
 14.0537
 13.4945
 13.3719
 13.3286
 13.3654
 10.6515
 10.7395
 10.7994
 10.6394
 13.3743
 13.3383
 13.2794
 13.2559
 11.6211
 11.5271
 11.4744
 11.6562
 14.2532
 14.0758
 14.138
 14.0859
 13.6823
 13.7899
 13.8033
 13.7568
 13.1671
 12.9562
 13.0657
 13.0513
 14.4363
 14.5312
 14.5679
 14.4975
 15.8063
 15.7611
 15.8145
 15.8615
 10.3909
 10.4242
 10.4934
 10.4367
 15.1209
 15.1247
 15.0792
 15.1572
 12.5307
 12.4823
 12.6079
 12.601
 15.8051
 15.7913
 15.7519
 15.8498
 12.5311
 12.4048
 12.4854
 12.5017
 14.1912
 14.2037
 14.2429
 14.2229
 14.2323
 14.1992
 14.306
 14.2416
 12.7764
 12.7314
 12.8701
 12.7875
 11.1805
 11.3175
 11.197
 11.3445
 13.7167
 13.541
 13.5693
 13.5715
 14.7236
 14.7585
 14.7178
 14.6664
 11.2175
 11.0218
 11.1153
 10.9771
 14.1547
 14.2184
 14.0876
 14.0743
 13.6257
 13.5147
 13.546
 13.477
 11.7914
 11.5351
 11.597
 11.6782
 12.9073
 12.7927
 12.7565
 12.7547
 13.2812
 13.3246
 13.2655
 13.2003
 10.6522
 10.5651
 10.4843
 10.4317
 11.1944
 11.1359
 11.1515
 11.2162
 12.6706
 12.643
 12.8041
 12.7431
 13.3007
 13.2357
 13.3511
 13.108
 13.8735
 13.836
 13.8321
 13.6861
 14.7128
 14.7195
 14.8017
 11.6066
 11.5371
 11.5467
 11.4539
 15.8549
 15.9132
 16.004
 15.9763
 11.9715
 12.1291
 12.0447
 12.0801
 14.3569
 14.4949
 14.4188
 14.4086
 14.5946
 14.7053
 14.6719
 14.686
 10.9208
 11.0588
 10.9927
 10.8065
 12.9584
 13.027
 12.9156
 12.9962
 13.1995
 13.2402
 14.0949
 13.4441
 13.3255
 13.4685
 13.3886
 15.8159
 15.7368
 12.1873
 12.1401
 12.0972
 14.8847
 14.8342
 14.9623
 14.8854
 12.0725
 12.2114
 12.1691
 12.1613
 13.6127
 13.5021
 13.5347
 13.548
 14.134
 13.9674
 14.0656
 14.0444
 10.7902
 10.7888
 10.6089
 10.7399
 14.8681
 14.7693
 14.8767
 14.7587
 12.3526
 12.3567
 12.3107
 12.2369
 10.3901
 10.3654
 10.5382
 10.5403
 12.9645
 13.0968
 12.9943
 13.0765
 12.2654
 12.4594
 12.3987
 12.3998
 13.1995
 13.1032
 13.1919
 13.367
 9.75058
 10.04
 9.79241
 10.0356
 10.021
 10.0046
 10.0857
 10.2145
 10.2907
 10.3659
 10.3743
 10.2764
 13.488
 13.5862
 13.4706
 13.4861
 12.602
 12.7663
 12.7007
 12.6331
 13.3205
 13.3359
 13.4191
 13.3545
 13.5523
 13.5793
 13.4444
 13.5941
 12.0483
 12.0137
 11.9957
 12.1436
 11.2439
 11.0971
 11.1666
 11.0717
 11.1808
 11.126
 11.2634
 11.0569
 12.9145
 12.8518
 12.9417
 12.8619
 13.2751
 13.2678
 13.3127
 13.3678
 14.2239
 14.283
 14.2478
 14.1282
 11.6856
 11.5721
 11.563
 11.727
 15.1061
 15.095
 15.1933
 15.0761
 11.5865
 11.5127
 11.5865
 11.6036
 12.7728
 12.5715
 12.7531
 12.616
 12.8187
 12.7902
 12.7941
 12.9051
 14.7653
 14.7742
 14.8206
 14.9033
 16.788
 16.7234
 16.817
 16.8056
 13.8286
 13.7177
 13.8268
 13.804
 11.5327
 11.6864
 11.6241
 11.5338
 14.5643
 14.6659
 14.5919
 14.5195
 12.5786
 12.5098
 12.6591
 12.5126
 12.4478
 12.356
 12.2343
 12.2778
 11.815
 11.7462
 11.9391
 11.8839
 15.3146
 15.3653
 15.3715
 15.2926
 15.2918
 15.2748
 15.3227
 15.3449
 11.4776
 11.2864
 11.3479
 11.3864
 12.0376
 12.2204
 12.2437
 12.1268
 13.9135
 13.8967
 13.9596
 13.9574
 13.1612
 13.1936
 13.0825
 13.0216
 12.834
 12.8075
 12.8138
 12.8849
 13.9123
 14.0007
 13.8137
 13.9659
 12.29
 12.3773
 12.3395
 12.434
 9.21817
 9.41102
 9.2671
 9.2385
 12.4976
 12.3356
 12.3574
 12.2768
 13.1375
 13.0813
 13.1642
 13.0226
 13.0884
 13.0938
 13.1954
 13.0932
 12.8068
 12.7185
 12.7914
 12.8969
 10.229
 10.231
 10.3575
 10.2452
 11.3036
 11.4276
 11.3529
 12.3182
 12.3117
 12.2459
 12.3348
 14.7073
 14.7219
 14.6237
 14.7285
 13.5169
 13.5163
 13.6058
 13.4794
 11.2221
 11.3978
 11.4544
 11.389
 14.2219
 14.1778
 14.1586
 14.1117
 13.7156
 13.7923
 13.8016
 13.6838
 13.5559
 13.6121
 13.7388
 13.6233
 12.0493
 12.1428
 12.175
 12.1557
 12.7362
 12.8331
 12.7248
 12.9298
 12.3111
 12.5267
 12.4453
 12.4082
 14.5154
 14.4578
 14.4491
 14.4946
 13.6795
 13.6057
 13.5806
 13.6907
 12.1742
 12.2661
 12.1489
 12.036
 13.7396
 13.6921
 13.6281
 13.7877
 12.5004
 12.3743
 12.3787
 12.4414
 14.5658
 14.6056
 14.5388
 14.6236
 10.554
 10.509
 10.6612
 10.5554
 14.2614
 14.3305
 14.2246
 14.1845
 14.3574
 14.5568
 14.4329
 14.4319
 11.7875
 11.7831
 11.689
 11.6594
 14.2717
 14.2491
 14.227
 14.2367
 12.4726
 12.5348
 12.4765
 12.6017
 14.8148
 14.8074
 14.9311
 14.9089
 12.8129
 12.8766
 12.8534
 12.7305
 10.7486
 10.5176
 10.7047
 10.5817
 12.7316
 12.8986
 12.8974
 12.8162
 11.8859
 11.8303
 11.877
 11.8935
 12.474
 12.5197
 12.4794
 12.4201
 12.4976
 12.4609
 12.4192
 12.3283
 10.3244
 10.295
 10.2429
 10.4655
 14.4481
 14.5148
 14.5704
 14.5801
 14.3146
 14.3617
 14.4567
 14.3675
 11.0189
 11.0006
 11.0933
 10.8926
 10.8058
 10.7276
 10.8121
 13.9912
 14.039
 14.0436
 13.9627
 12.4769
 12.3349
 12.4563
 12.4774
 12.5756
 12.5357
 12.663
 12.5191
 14.3549
 14.2652
 14.4153
 14.339
 11.8165
 11.7259
 11.7571
 11.7262
 13.2385
 13.3618
 13.3515
 13.2165
 12.7744
 12.9075
 12.8875
 12.9313
 11.7055
 11.6057
 11.5809
 11.6123
 14.7969
 14.8406
 14.7884
 14.7353
 13.9504
 14.077
 14.0528
 14.0437
 10.2261
 10.4448
 10.2744
 10.3321
 14.4482
 14.4653
 14.4298
 14.2792
 14.7945
 14.8442
 14.822
 14.8107
 13.2121
 13.1606
 13.2203
 13.0613
 15.8217
 15.79
 15.8516
 15.7298
 12.9447
 12.9214
 12.9825
 12.9327
 11.5979
 11.6649
 11.7015
 11.7243
 11.1811
 11.2681
 11.2297
 14.8835
 14.8697
 14.8412
 14.8771
 14.218
 14.0961
 14.2394
 14.1226
 14.3549
 14.3924
 14.4326
 14.472
 14.0497
 14.1325
 14.0799
 14.1096
 10.1
 10.0005
 9.9438
 9.98035
 14.7215
 14.7136
 14.749
 14.8144
 14.1172
 14.203
 14.1328
 14.0165
 11.296
 11.2243
 11.3068
 11.3646
 13.7177
 13.7629
 13.6848
 14.0145
 14.1326
 14.0453
 12.6701
 12.7912
 12.882
 15.623
 15.5182
 15.5004
 15.586
 12.923
 12.86
 12.9143
 12.814
 12.954
 12.896
 13.0654
 13.0255
 10.9692
 10.8874
 11.033
 11.0607
 10.6254
 10.6839
 10.4244
 10.6624
 14.4393
 14.5235
 14.5351
 14.3665
 12.6558
 12.5183
 12.5203
 12.5446
 12.6292
 12.535
 12.4807
 12.5213
 13.2033
 13.0578
 13.1219
 13.0207
 13.7781
 13.7214
 13.7138
 13.853
 12.6879
 12.8024
 12.7377
 12.6708
 14.4873
 14.462
 14.5108
 14.4315
 10.8788
 10.9324
 10.8696
 10.8317
 14.0721
 14.0905
 14.0359
 13.9843
 11.1761
 11.3047
 11.2304
 11.1917
 10.4959
 10.5867
 10.6653
 10.5229
 10.7205
 10.7689
 10.7662
 10.8028
 14.2487
 14.325
 11.9964
 12.0184
 12.1094
 12.0479
 14.384
 14.2443
 14.3168
 14.3591
 11.6372
 11.411
 11.4919
 11.4433
 11.1419
 11.2733
 11.0951
 11.2572
 13.8586
 13.7896
 13.7707
 13.8295
 12.7625
 12.7719
 12.6611
 12.7188
 14.0698
 14.0594
 13.9823
 14.0574
 13.4393
 13.4376
 13.4204
 13.3205
 16.3023
 16.1651
 16.3265
 16.2048
 10.7866
 10.8635
 10.6738
 10.819
 13.9983
 14.1018
 13.9748
 13.9337
 14.8752
 14.9541
 14.9499
 14.8426
 13.3128
 13.3603
 13.2511
 13.2061
 14.7765
 14.9132
 14.9405
 14.7793
 13.4111
 13.5402
 13.565
 13.4698
 11.9426
 11.988
 11.8374
 12.032
 13.1226
 13.2023
 13.2031
 13.1535
 10.9586
 10.7385
 10.9571
 13.2941
 13.1798
 13.3437
 13.2089
 16.3497
 16.3921
 16.3885
 16.4288
 9.95209
 9.89949
 9.84743
 9.95964
 12.8775
 12.889
 12.8186
 12.9079
 11.6472
 11.7386
 11.8402
 11.7053
 14.4997
 14.4042
 14.6356
 14.5341
 13.7844
 13.6986
 13.8779
 13.7775
 13.791
 13.6308
 13.7125
 13.6364
 10.6958
 10.7965
 10.6748
 10.5872
 13.6675
 13.7576
 13.8196
 13.7877
 10.0051
 10.0559
 9.96351
 10.1363
 12.0394
 12.179
 12.1832
 12.0273
 14.4494
 14.425
 14.3832
 14.4404
 15.8705
 15.8458
 15.7683
 15.9
 13.4079
 13.5679
 13.4724
 13.5964
 13.0682
 13.0712
 12.9678
 13.0941
 11.8155
 11.8249
 11.8928
 12.0095
 16.2291
 16.3075
 16.188
 16.2509
 13.3968
 13.485
 13.335
 13.3761
 10.2965
 10.3874
 10.4154
 10.3804
 11.4346
 11.3156
 11.3629
 11.4079
 11.3596
 11.3846
 11.2567
 11.4215
 11.3855
 11.4962
 11.528
 11.4727
 11.3346
 11.1611
 11.2673
 11.2785
 12.515
 12.4637
 12.5201
 12.5227
 14.321
 14.1431
 14.0297
 14.0055
 14.0844
 12.1843
 12.339
 12.2851
 12.2852
 12.2126
 12.176
 12.3375
 12.3198
 15.2486
 15.1962
 15.2046
 15.2481
 11.0471
 11.0497
 11.115
 11.0511
 11.6597
 11.5506
 11.4261
 11.5152
 14.4689
 14.3132
 14.3422
 14.1678
 14.1699
 14.1929
 14.1307
 14.0598
 14.0842
 14.0139
 14.2569
 14.3793
 14.5298
 14.4424
 12.2081
 12.0724
 12.1079
 12.2411
 10.2665
 10.2284
 10.2998
 10.2284
 13.092
 13.1447
 13.0608
 13.2059
 10.5725
 10.7993
 10.858
 10.8781
 13.3731
 13.4026
 13.4489
 13.3271
 12.1601
 12.2774
 12.3505
 12.3312
 14.3474
 14.3655
 14.3886
 14.4701
 12.7236
 12.5793
 12.7719
 12.6554
 12.4896
 12.3515
 12.2786
 12.4791
 14.2735
 14.3221
 14.4176
 14.3687
 13.7098
 13.7809
 13.5677
 13.6379
 13.3126
 13.3284
 13.4169
 13.4814
 12.6193
 12.568
 12.6178
 12.5543
 15.011
 15.0037
 14.9663
 14.8892
 12.3026
 12.434
 12.364
 12.2745
 13.6921
 13.8288
 13.6701
 13.6136
 12.0113
 12.0366
 12.0131
 12.1008
 10.92
 11.0459
 10.9445
 11.0024
 10.5867
 10.6809
 10.6716
 10.6313
 10.591
 10.5012
 10.7412
 9.97195
 9.87603
 9.81237
 9.74537
 11.3245
 11.4717
 11.6066
 11.4253
 13.0999
 13.1257
 13.0406
 13.0592
 10.4655
 10.5535
 10.6391
 10.4897
 12.9564
 12.9506
 13.0202
 13.0358
 12.5434
 12.4773
 12.512
 10.8729
 10.7401
 10.818
 10.8293
 10.9016
 11.0462
 10.9865
 12.6874
 12.7207
 12.6235
 12.5919
 13.7576
 13.7055
 13.7748
 13.6271
 12.1006
 12.2005
 12.2349
 12.2539
 10.6595
 10.5614
 10.6363
 10.694
 14.0909
 14.126
 14.0796
 14.1797
 13.1775
 13.2181
 13.2971
 13.3317
 12.9829
 12.8107
 12.9809
 12.9782
 11.9158
 12.0408
 11.9562
 11.9491
 14.1577
 14.2318
 14.0815
 14.2106
 14.5335
 14.6181
 14.5249
 14.534
 13.0831
 13.0838
 13.1012
 12.9913
 10.0531
 10.1386
 10.1536
 10.1302
 14.0053
 14.1289
 13.9894
 14.0655
 14.4282
 14.3422
 14.4635
 14.3455
 12.3455
 12.5057
 12.3414
 12.3677
 14.0387
 13.9845
 14.0497
 14.5274
 14.4357
 14.4763
 12.5914
 12.6887
 12.4964
 12.6439
 14.3674
 14.4141
 14.4879
 14.3745
 14.4378
 14.5559
 14.4574
 14.4635
 12.2831
 12.2494
 12.3132
 14.2429
 14.2586
 11.0656
 11.0327
 10.8468
 10.8233
 12.0988
 11.9174
 11.9242
 11.979
 15.0485
 14.9743
 15.1122
 14.944
 15.6434
 15.6002
 15.7154
 15.6104
 13.9689
 14.1629
 14.0492
 14.0338
 10.8597
 10.8614
 10.7826
 10.8415
 12.0896
 12.1791
 12.2363
 12.1855
 14.8418
 14.8663
 14.8732
 14.8881
 14.0485
 14.0425
 13.9819
 13.9167
 14.0133
 13.9825
 14.0077
 14.2937
 14.2184
 14.2062
 14.2096
 14.2238
 14.303
 14.2053
 14.1719
 14.4932
 14.614
 14.5203
 14.5926
 10.5166
 10.3758
 10.4861
 10.4737
 10.5011
 10.3735
 10.5868
 13.1502
 13.2303
 13.1337
 13.2629
 14.0767
 14.2142
 14.0568
 14.0935
 9.96062
 9.84462
 14.5179
 14.5932
 14.5726
 14.6371
 12.7601
 12.5615
 12.6894
 12.593
 12.4025
 12.4501
 14.3762
 14.3985
 14.296
 14.3696
 10.4612
 10.3534
 10.5165
 10.2606
 10.1028
 10.2142
 10.123
 9.90285
 13.353
 13.3033
 13.3417
 15.2181
 15.1349
 15.1715
 14.1772
 14.0415
 14.1879
 14.157
 11.6522
 11.7786
 11.5636
 11.7549
 13.7884
 13.8631
 13.8976
 13.9601
 13.9608
 14.0199
 13.9199
 14.0377
 12.1633
 12.1597
 12.1149
 11.9645
 16.1469
 16.0731
 16.1553
 16.2293
 11.8496
 11.8284
 11.7081
 11.7263
 11.771
 11.7863
 11.6779
 11.6354
 14.5467
 14.5386
 14.6855
 14.578
 10.9406
 10.8492
 10.8325
 10.9713
 16.3187
 16.4185
 16.4216
 16.4911
 10.5391
 10.7968
 10.793
 10.7936
 11.2262
 11.3563
 13.9515
 13.8758
 13.8927
 13.8166
 14.6578
 14.7629
 14.6998
 14.6206
 11.0345
 10.9084
 10.927
 10.9859
 13.8311
 13.8069
 13.8145
 13.8826
 10.0035
 10.093
 10.0346
 14.1215
 14.2152
 14.2486
 14.7919
 14.6706
 14.6419
 10.643
 10.5625
 10.6081
 10.6637
 14.1051
 14.1716
 14.1762
 14.1633
 10.9689
 10.955
 14.8385
 14.7594
 14.8394
 14.8128
 13.0186
 12.8929
 12.9015
 12.9908
 13.9781
 14.0235
 13.5535
 13.3411
 13.3597
 13.4796
 13.8952
 13.9103
 13.9003
 14.0135
 10.0986
 9.96996
 10.1809
 10.1241
 14.725
 14.7753
 14.7521
 11.3822
 16.268
 16.3017
 16.292
 16.3271
 10.9887
 10.95
 10.8793
 11.105
 13.949
 13.9368
 13.7516
 13.8035
 11.7881
 11.8584
 11.8372
 11.8054
 13.921
 14.001
 14.0481
 13.95
 12.2213
 15.2363
 15.2653
 15.266
 15.2234
 12.1812
 12.1867
 12.2165
 12.3142
 11.2943
 11.2361
 11.1571
 11.4023
 11.3533
 11.5011
 11.3397
 10.9493
 10.7862
 10.906
 10.8777
 14.4862
 14.4509
 14.3283
 14.393
 10.9036
 10.9021
 10.9244
 10.7952
 14.847
 14.8655
 14.846
 14.9523
 11.0355
 10.9537
 10.9088
 10.9048
 13.2119
 13.2763
 13.2913
 13.319
 11.8542
 11.778
 11.7345
 11.7042
 12.6883
 12.7489
 12.7856
 12.8195
 10.4483
 10.6422
 12.9237
 13.0307
 13.0059
 12.926
 15.1327
 15.1769
 15.0525
 15.1733
 14.8146
 14.8566
 14.7155
 14.8366
 12.703
 12.6041
 12.5829
 12.5756
 11.7687
 11.7772
 11.7906
 11.6323
 11.4965
 11.623
 11.5411
 11.4655
 10.7783
 10.9281
 10.8864
 10.9857
 11.5114
 11.339
 11.435
 11.5059
 14.7868
 14.8007
 14.7321
 14.8656
 14.3913
 14.404
 14.4243
 14.2745
 9.84917
 9.96953
 10.0173
 10.0015
 12.5435
 12.475
 12.5143
 12.3324
 14.2465
 14.1122
 14.2319
 14.164
 15.9095
 15.9217
 15.816
 15.9721
 10.9373
 10.8747
 10.9968
 10.7429
 14.2073
 14.1757
 14.1493
 14.081
 13.4641
 13.3685
 13.5285
 13.4405
 14.9543
 14.9807
 14.9627
 14.8829
 12.3214
 12.3936
 12.3378
 12.3311
 10.6561
 10.645
 10.7027
 10.6589
 12.5093
 12.6925
 12.6253
 12.6558
 13.3522
 13.3105
 13.2128
 13.2741
 15.0571
 15.0033
 14.9547
 15.0979
 10.615
 12.0041
 11.9123
 12.0622
 11.9092
 13.432
 13.4889
 13.5859
 13.53
 11.6703
 11.5968
 11.6215
 11.5022
 14.2061
 14.3105
 14.25
 14.1833
 12.3927
 12.3033
 12.4426
 15.1165
 14.9691
 15.0789
 15.078
 11.2609
 11.5018
 11.358
 11.4287
 14.6871
 14.7078
 14.6287
 14.6889
 9.40398
 9.46684
 9.4202
 9.32137
 14.2302
 14.2149
 14.1956
 14.217
 15.6977
 15.4882
 15.5121
 15.5912
 15.1484
 15.1605
 15.0806
 15.0739
 9.90245
 9.99595
 10.0387
 10.093
 10.4387
 10.4488
 10.3742
 10.3559
 13.1501
 13.0475
 13.0907
 13.0283
 14.0856
 14.1261
 14.0572
 12.8072
 12.8242
 12.978
 12.9238
 12.0636
 12.1324
 11.9772
 11.9872
 12.7213
 12.4946
 12.5712
 12.5997
 12.9595
 12.9351
 12.7325
 12.8286
 9.85236
 9.96206
 9.96088
 10.0175
 14.4614
 14.5078
 14.3474
 14.4594
 15.1094
 15.2685
 15.2527
 11.749
 11.8254
 11.8126
 11.8865
 11.127
 11.001
 11.0774
 11.1032
 14.1976
 14.2104
 14.1761
 14.4175
 14.3968
 14.3325
 14.4929
 10.7811
 10.865
 10.7238
 10.9318
 13.2011
 13.232
 13.1123
 13.1958
 14.3318
 14.4481
 14.3538
 14.3599
 13.4789
 13.5425
 13.5324
 13.4513
 11.2836
 11.2749
 11.3964
 11.2764
 14.1872
 14.0444
 14.2524
 14.0916
 13.3508
 13.5311
 13.4949
 13.4111
 13.9106
 13.7763
 13.8716
 10.4969
 10.5247
 10.6104
 10.6274
 13.0757
 13.0744
 13.1484
 13.0134
 9.79698
 9.86873
 9.59157
 12.915
 12.839
 12.8806
 12.9139
 14.9888
 14.9113
 15.0394
 14.9949
 12.552
 12.5254
 12.4622
 12.3527
 12.9874
 12.8291
 13.0289
 14.157
 14.134
 14.0311
 14.0733
 14.7418
 14.7075
 14.7762
 14.6795
 14.2231
 14.1538
 14.088
 14.2283
 15.7557
 15.7252
 15.6381
 15.6239
 13.6193
 13.6445
 13.6938
 13.7086
 13.9395
 13.9881
 13.8377
 14.0129
 10.6083
 10.8143
 10.7725
 10.5416
 14.6855
 14.5513
 14.5947
 14.6266
 12.2388
 12.2852
 12.2076
 12.1494
 10.0561
 10.0231
 10.108
 10.1821
 10.0287
 10.2323
 10.1398
 10.0948
 11.4125
 11.331
 11.4024
 11.3821
 10.0247
 9.83146
 9.85124
 10.1149
 10.6634
 10.6555
 10.674
 9.7524
 9.98574
 9.92417
 9.92387
 15.0046
 15.0555
 15.0078
 15.0906
 13.4488
 13.5902
 13.6119
 13.5677
 13.8344
 13.7074
 13.8063
 13.7029
 13.7625
 13.8336
 13.8278
 13.8606
 10.5199
 10.6167
 10.4987
 10.4694
 13.5758
 13.5709
 13.676
 13.6999
 14.1805
 14.3033
 14.3196
 14.215
 11.8902
 11.9257
 11.7965
 11.9719
 14.0338
 13.9379
 14.0375
 13.9438
 11.71
 11.8119
 11.8661
 12.8213
 12.6955
 12.6636
 10.7912
 10.9454
 10.9481
 10.8905
 13.4696
 13.424
 13.5107
 13.5106
 12.2237
 12.3361
 12.296
 12.1939
 13.7972
 13.9344
 13.8756
 13.7595
 9.77927
 9.86812
 10.2679
 10.3228
 10.3771
 10.1962
 15.0683
 15.1087
 15.1067
 15.1727
 12.2255
 12.129
 12.1011
 12.0073
 14.1463
 14.0363
 14.1456
 14.2008
 16.6242
 16.7601
 16.6311
 16.6729
 14.1876
 14.239
 14.3061
 14.2285
 11.8234
 11.9483
 11.8289
 14.7341
 14.7486
 14.6102
 14.6227
 10.1344
 10.2823
 10.1073
 10.2431
 14.1659
 14.1179
 14.1534
 14.1016
 12.3565
 12.2323
 12.2736
 12.3448
 14.8994
 14.8731
 14.9741
 14.8986
 16.0552
 16.0371
 16.0167
 15.9713
 14.3388
 14.2515
 14.3393
 14.3701
 13.6012
 13.6477
 13.5607
 12.6647
 12.8617
 12.6696
 12.7518
 14.5125
 14.4962
 14.5931
 11.6162
 11.6736
 11.5823
 11.4992
 11.4083
 11.2243
 11.4218
 11.2636
 11.8727
 12.0248
 11.9104
 11.8831
 10.3058
 10.6174
 10.515
 10.465
 11.4582
 11.5269
 11.4292
 13.8945
 13.8149
 13.8365
 13.7779
 11.6199
 11.7404
 12.0957
 12.2096
 12.2521
 12.162
 11.8739
 11.9223
 11.8928
 11.8206
 14.2569
 14.209
 14.2326
 14.3252
 14.253
 14.1694
 14.2467
 14.1604
 16.643
 16.5812
 16.5581
 16.6008
 14.2572
 14.1632
 14.2569
 13.8142
 13.8575
 13.886
 13.8467
 12.952
 12.952
 13.0176
 13.0426
 13.8315
 13.7248
 13.716
 13.7932
 15.0075
 14.9493
 15.0254
 15.0219
 11.2379
 11.4267
 11.2897
 11.3714
 13.1895
 13.103
 13.1832
 13.2676
 10.7156
 10.7181
 10.7613
 10.6666
 12.6853
 12.7879
 12.692
 12.7664
 10.4201
 10.3406
 10.401
 15.9607
 15.8741
 15.9018
 15.8969
 11.91
 11.7088
 11.8632
 11.8434
 13.3039
 13.4021
 13.2818
 13.3365
 14.4263
 14.5016
 13.7978
 13.7706
 13.7124
 13.7373
 13.4182
 13.5529
 13.5291
 10.7256
 10.6781
 10.8109
 10.716
 10.5791
 10.6592
 10.7679
 10.721
 14.489
 14.5144
 14.4502
 14.5044
 13.2645
 13.2944
 14.0541
 13.9468
 14.0181
 14.1093
 11.5236
 11.6376
 11.4222
 11.4114
 14.9696
 14.9441
 14.9828
 14.9124
 14.341
 14.311
 14.3985
 14.4082
 14.1028
 13.9843
 13.9309
 13.9905
 12.8188
 12.8319
 12.841
 12.6653
 11.7606
 11.7739
 11.8528
 11.8665
 11.4875
 11.56
 11.663
 11.5478
 16.3298
 16.346
 16.3836
 16.4145
 14.7104
 14.6089
 14.5669
 12.606
 12.8202
 12.6932
 12.5009
 12.4052
 12.5205
 12.3679
 10.6317
 10.5247
 10.6053
 10.48
 13.1361
 14.1463
 14.1455
 14.252
 14.2384
 12.1177
 12.1876
 12.2941
 12.2437
 11.3275
 11.4781
 11.4703
 11.3066
 11.2275
 11.213
 14.4938
 14.5405
 14.5873
 14.6013
 12.9071
 12.8066
 12.8414
 12.7954
 14.8117
 14.8454
 14.8148
 14.7713
 12.4297
 13.6354
 13.7027
 13.5289
 13.4881
 13.8627
 13.7884
 13.7413
 13.8142
 10.6287
 10.7749
 10.3672
 10.2587
 10.1839
 10.3019
 15.4429
 15.5277
 15.4767
 15.4434
 11.4825
 11.4658
 11.6273
 11.4182
 12.5054
 12.6487
 12.5802
 12.4467
 16.1817
 16.153
 16.1549
 16.2201
 12.9904
 12.9875
 12.9282
 13.0473
 13.0899
 13.2199
 13.2943
 13.2912
 14.4568
 14.5569
 14.412
 14.4595
 9.95152
 9.80633
 9.79524
 9.76879
 13.2004
 13.3228
 13.3113
 13.9211
 13.8128
 13.8077
 13.9101
 10.2701
 10.0828
 10.2241
 10.199
 13.9646
 14.0308
 14.1174
 13.9444
 13.339
 13.2575
 11.1941
 11.2006
 11.0906
 11.3117
 12.6497
 12.6297
 12.4857
 12.4868
 10.315
 10.396
 10.2294
 10.3192
 13.2721
 13.0895
 14.3094
 14.2711
 14.2454
 14.2505
 14.0017
 13.9805
 13.9047
 13.8692
 11.0552
 11.0306
 11.196
 11.1368
 11.4752
 11.542
 11.4224
 11.4307
 11.5511
 11.6971
 11.5662
 11.581
 13.992
 13.8552
 13.9105
 13.9799
 15.5134
 15.5789
 15.5504
 15.5178
 10.0096
 9.8569
 9.99567
 9.92483
 14.5253
 14.5192
 14.5056
 14.4491
 12.7399
 12.6403
 12.6247
 12.7125
 13.7337
 13.5644
 13.6824
 13.6207
 12.7456
 12.8886
 12.7571
 12.2474
 12.0994
 12.2395
 12.0602
 13.0801
 12.9962
 13.0543
 13.1521
 11.8122
 11.7566
 11.6607
 11.8407
 11.8007
 11.8518
 11.7947
 12.0016
 16.1589
 16.0282
 16.1518
 14.8583
 14.758
 14.7
 14.7413
 12.7066
 12.7896
 12.7551
 12.7644
 11.236
 11.0864
 11.1671
 11.0829
 14.1174
 14.2536
 14.1197
 14.078
 14.0102
 14.0002
 12.4584
 12.5292
 12.4459
 12.4402
 12.8032
 12.6867
 12.6537
 12.6357
 9.17471
 9.21209
 9.29228
 9.12629
 15.1226
 15.0821
 15.1512
 15.2686
 11.6745
 11.6479
 13.5941
 13.4836
 13.4686
 13.5849
 11.9318
 11.8582
 11.8713
 11.8382
 12.5256
 12.503
 12.4216
 12.4614
 13.4849
 13.4763
 13.372
 13.5569
 12.1378
 12.0207
 12.0515
 12.0344
 14.4834
 14.4369
 14.4515
 14.3701
 14.7755
 14.8692
 14.7617
 14.8137
 11.2111
 11.1541
 11.0625
 10.8694
 12.775
 12.7155
 12.6209
 15.6313
 15.6786
 15.5974
 10.9989
 10.922
 10.9009
 10.8511
 10.8442
 10.8894
 10.9517
 10.9615
 13.0244
 12.9986
 12.9743
 12.9058
 10.6235
 10.5354
 10.5689
 10.5559
 10.229
 10.0533
 10.206
 10.0356
 13.4271
 13.3737
 13.2838
 13.4016
 11.3125
 11.2472
 11.1963
 11.2093
 9.2757
 9.22775
 9.3697
 9.19997
 11.5736
 11.5579
 11.6372
 11.4447
 12.6652
 12.8363
 12.762
 12.8792
 11.0903
 11.0125
 11.1163
 11.1519
 11.9281
 11.9572
 11.8689
 12.3226
 12.2147
 15.2847
 15.2724
 15.3072
 15.3418
 12.361
 12.2403
 12.2698
 12.2936
 15.4607
 15.4376
 15.4201
 15.4158
 15.3401
 15.3587
 15.2568
 15.2222
 12.5519
 12.4949
 12.4837
 12.5915
 13.6247
 13.6254
 13.7213
 13.5765
 12.1345
 12.0021
 12.0362
 12.052
 12.9427
 13.0283
 14.9145
 14.9699
 14.9443
 14.8579
 10.1357
 10.0839
 10.0141
 10.1265
 13.5561
 13.6422
 13.465
 13.5392
 10.9444
 10.993
 11.0984
 11.0119
 14.8906
 14.9706
 14.8898
 14.9293
 10.7601
 10.543
 10.6106
 10.5764
 12.3228
 12.4866
 12.3579
 12.377
 14.0749
 14.1822
 14.2617
 14.2002
 9.53124
 9.60182
 9.585
 9.68923
 13.8985
 13.7689
 13.8688
 13.9003
 13.3736
 13.5395
 13.4273
 13.4911
 10.1089
 10.083
 10.2126
 10.0741
 13.0227
 13.1922
 13.1448
 13.1497
 11.1172
 11.0147
 11.0768
 11.1299
 11.1368
 11.2324
 11.1911
 13.342
 13.5426
 13.4511
 13.4915
 11.2187
 11.0956
 11.1777
 11.1356
 14.5763
 14.4604
 14.4726
 14.5818
 10.8884
 10.8007
 10.8107
 10.873
 10.9491
 10.9972
 10.9178
 10.9754
 14.349
 14.3728
 14.1766
 14.28
 14.2831
 14.326
 14.2201
 14.372
 16.9794
 16.9542
 17.0315
 17.0117
 11.4569
 11.6082
 11.5882
 15.2727
 15.1372
 15.1386
 15.1958
 10.3797
 10.4937
 10.466
 10.4405
 14.3786
 11.0031
 11.1395
 11.0938
 10.9911
 11.0002
 11.1064
 11.1133
 16.3044
 16.409
 16.3808
 16.3327
 16.4346
 16.4405
 16.4552
 16.4832
 10.3743
 10.4929
 10.3849
 10.2981
 14.2641
 14.3128
 14.2094
 14.3316
 11.9681
 12.0341
 11.8879
 13.774
 13.8686
 13.7815
 13.9331
 13.3444
 13.337
 13.3869
 10.9731
 11.0307
 10.8315
 12.5224
 12.439
 12.4177
 12.5017
 13.7427
 13.857
 13.8653
 13.7809
 14.3917
 14.3565
 14.4112
 14.3666
 11.9959
 11.9155
 11.9022
 14.9226
 14.8735
 15.0162
 15.0199
 14.2937
 14.0917
 14.222
 13.4334
 13.2521
 13.2838
 13.3681
 14.3755
 14.2713
 14.2803
 14.3179
 14.3454
 14.207
 14.1823
 14.216
 10.8813
 10.9713
 10.9628
 10.985
 13.2351
 13.3373
 13.2563
 13.1999
 13.9006
 13.9291
 12.6612
 12.7471
 12.6882
 12.8076
 10.456
 10.5331
 10.4775
 10.5172
 10.5389
 17.0853
 17.1133
 17.1262
 17.0867
 11.3427
 11.2036
 11.279
 9.96252
 10.0075
 10.0703
 9.99291
 11.6352
 11.8144
 11.7837
 11.8062
 14.4169
 14.3749
 14.318
 14.4243
 13.3261
 13.4075
 13.4452
 13.4212
 9.84764
 9.85908
 9.90429
 9.92738
 11.4436
 11.5406
 11.6236
 11.5264
 14.9811
 15.0619
 15.0687
 14.9378
 13.4886
 13.4568
 13.432
 13.6084
 13.6666
 13.6122
 13.5472
 13.639
 17.106
 17.1214
 17.1204
 17.0992
 14.5866
 14.6081
 14.6424
 14.5412
 11.4744
 11.3158
 11.4868
 11.4005
 12.4068
 12.418
 12.304
 12.4564
 13.1569
 13.0768
 12.9827
 13.1291
 11.8344
 11.7058
 11.7468
 11.7518
 12.3176
 12.3227
 12.2126
 12.3334
 11.7155
 11.713
 11.8117
 11.57
 9.48555
 9.72181
 9.64871
 9.42003
 11.2878
 11.3517
 11.383
 11.5582
 11.7731
 11.8503
 11.9439
 11.8129
 12.0019
 12.7195
 12.7216
 12.8005
 12.6077
 10.4349
 10.491
 10.5182
 10.5115
 13.2668
 13.3323
 13.2193
 13.2621
 12.513
 12.4592
 12.3948
 12.5847
 12.9023
 13.0272
 12.9436
 12.8444
 13.6878
 13.8472
 13.7283
 13.831
 15.8492
 15.8034
 15.6942
 15.8631
 9.29924
 9.5174
 12.1538
 12.2244
 12.2368
 16.7444
 16.7442
 16.7529
 14.1136
 14.1907
 14.1404
 14.2307
 15.3069
 15.297
 15.4336
 15.4372
 14.5821
 14.6344
 14.5576
 14.6918
 10.2391
 10.426
 10.3471
 10.3232
 12.7636
 12.9113
 12.8487
 12.9316
 11.9026
 11.7634
 11.7681
 11.6494
 12.3428
 12.3877
 12.4652
 12.5541
 11.7625
 11.7049
 11.8144
 11.7772
 13.1295
 13.1239
 11.0557
 11.3373
 11.0835
 11.3207
 11.6139
 11.6967
 11.7589
 11.5152
 14.1433
 14.2721
 14.126
 14.2537
 14.2002
 14.17
 14.1731
 14.1584
 12.6146
 12.5955
 12.6459
 12.5639
 12.6363
 12.5607
 12.4827
 12.3952
 14.6227
 14.7594
 14.7988
 14.5881
 11.7104
 11.808
 11.8535
 11.8672
 9.60468
 9.68377
 9.6145
 9.67339
 10.9612
 11.0349
 11.0287
 11.0903
 9.47291
 9.39968
 9.53982
 9.36242
 10.8143
 10.6711
 10.7082
 10.7013
 12.8015
 12.6451
 12.7784
 12.7408
 11.925
 12.0064
 13.0691
 12.9225
 13.1069
 13.0277
 14.2148
 14.1115
 14.1275
 14.0872
 11.428
 11.2425
 11.2373
 11.365
 13.1126
 13.1408
 13.1082
 13.2409
 13.4032
 13.4935
 13.525
 13.4728
 14.3741
 14.3727
 14.3209
 14.2276
 13.9661
 13.9685
 14.0311
 13.8645
 14.2776
 14.2051
 14.193
 14.2416
 15.7857
 15.7716
 15.8396
 15.814
 11.5296
 11.4831
 11.6198
 11.5093
 12.0285
 11.9955
 15.5422
 15.5222
 15.5313
 15.6282
 13.8081
 13.7658
 12.1397
 12.2408
 12.121
 11.0987
 11.0603
 14.5883
 14.6059
 14.6584
 14.5282
 15.6563
 15.6016
 15.6053
 15.5783
 14.7342
 14.6738
 14.6133
 14.5928
 13.8279
 13.7405
 13.7146
 13.6972
 12.347
 12.4973
 12.5028
 12.4919
 11.87
 11.9244
 11.9429
 11.9643
 13.8766
 13.7748
 13.7614
 13.7903
 12.5675
 12.5759
 12.5193
 12.6994
 12.8055
 12.8894
 12.9169
 12.8541
 12.7129
 12.6261
 12.5688
 12.6251
 12.5793
 12.7631
 12.5772
 13.0715
 13.1633
 12.9788
 13.0569
 13.5915
 13.5406
 13.6783
 13.6035
 14.2835
 14.1951
 14.3414
 14.1984
 10.3908
 10.4351
 10.3509
 10.2651
 13.2494
 13.2497
 13.1259
 13.1378
 14.7776
 14.7767
 14.9365
 14.8127
 14.9862
 14.968
 15.0039
 15.0341
 14.7405
 14.8161
 14.8105
 14.7618
 14.2923
 14.3024
 14.1803
 14.157
 14.331
 14.3976
 14.4268
 14.379
 10.7321
 10.6515
 10.6439
 10.6083
 13.3461
 13.3487
 13.3724
 13.257
 11.6614
 11.5421
 11.6481
 11.7069
 14.2639
 14.1327
 14.2896
 14.1941
 10.2629
 10.2131
 10.2228
 10.1124
 10.0592
 10.0895
 9.93396
 11.6632
 11.9101
 11.8293
 11.8188
 14.1052
 14.0499
 14.1669
 14.0734
 9.69709
 9.89461
 9.85385
 13.5068
 13.5982
 13.5287
 13.6761
 10.8385
 10.8156
 11.1133
 11.0688
 10.9565
 11.1107
 13.6915
 13.7611
 13.7155
 14.7975
 14.7578
 14.8756
 14.8375
 14.2429
 14.2958
 14.1884
 14.1859
 12.879
 12.7449
 12.9171
 10.084
 10.3332
 10.3113
 11.6966
 11.8527
 11.8947
 11.8101
 10.0811
 10.1303
 10.2965
 9.96561
 13.4379
 13.3127
 13.254
 13.328
 10.6544
 10.6262
 10.5596
 10.7561
 12.7698
 12.7406
 12.8255
 12.8868
 13.9905
 14.1017
 14.0451
 9.82003
 9.94646
 9.87561
 9.68104
 12.0822
 12.4943
 12.346
 12.4013
 12.4682
 12.2309
 12.2151
 12.3121
 14.0477
 14.1162
 14.1011
 14.1053
 14.1093
 13.9697
 13.3832
 13.5004
 13.5024
 13.5213
 13.3532
 13.2133
 13.3194
 13.2363
 11.7848
 9.6733
 9.8882
 9.92008
 9.78077
 16.0765
 16.1783
 16.1277
 16.1385
 13.851
 13.9153
 14.0931
 14.1298
 14.0742
 14.047
 14.1243
 14.1132
 14.2597
 14.2054
 11.6035
 11.7653
 11.7512
 11.6668
 11.5031
 11.4456
 11.6016
 11.479
 13.8443
 13.9402
 11.9075
 11.8842
 11.7221
 11.828
 11.8674
 11.7248
 11.8551
 12.5117
 12.6048
 12.6717
 12.7111
 13.211
 13.319
 13.2171
 13.3279
 11.5983
 11.4144
 11.4375
 11.583
 11.1645
 11.1351
 11.0415
 11.1797
 11.326
 11.1874
 11.2895
 11.5398
 11.5008
 11.5192
 11.6281
 13.4073
 13.3757
 13.3575
 13.4528
 15.2718
 15.3024
 15.2365
 15.2247
 13.6867
 13.6995
 13.7579
 13.729
 11.1432
 11.2798
 11.3722
 11.2502
 11.9399
 12.0027
 12.0081
 11.8991
 13.6475
 13.5855
 13.54
 13.5314
 11.9861
 12.1158
 12.029
 11.9922
 12.6309
 12.5879
 12.7595
 12.5778
 12.6568
 12.536
 12.583
 12.5353
 12.0472
 11.9541
 11.9695
 10.595
 10.5495
 10.632
 10.6033
 13.7268
 13.6122
 13.6645
 13.6551
 13.0838
 12.9661
 12.9792
 13.0053
 15.129
 15.1879
 15.1744
 15.086
 14.3633
 14.2845
 14.294
 14.3511
 14.2368
 14.4019
 14.3207
 14.4219
 14.4255
 14.3647
 14.3802
 14.3358
 12.6616
 12.7273
 12.7039
 14.8469
 14.8699
 14.8163
 14.7953
 14.5451
 14.5043
 14.4312
 14.5318
 9.77402
 9.92773
 9.93401
 9.82538
 12.5959
 12.6634
 12.7323
 12.7813
 11.1956
 11.187
 11.2627
 11.3094
 12.3802
 12.3215
 12.404
 12.4819
 12.0783
 11.9807
 12.083
 12.0536
 14.041
 14.1337
 14.089
 14.2182
 12.9352
 12.7069
 12.8866
 12.8576
 11.0848
 10.9877
 11.084
 11.0398
 12.3178
 12.3673
 12.1939
 12.2217
 14.4532
 14.5119
 14.3995
 14.3538
 10.5538
 10.5052
 10.5386
 10.4811
 13.5453
 13.647
 14.572
 12.9412
 12.8864
 12.7995
 12.9675
 13.2519
 13.1394
 13.2676
 13.2947
 15.5919
 15.6078
 15.51
 13.7299
 13.8381
 13.8629
 13.9286
 12.3318
 12.1334
 12.2184
 12.1051
 12.7749
 12.6848
 12.7373
 12.7805
 10.6243
 10.5589
 10.5444
 10.587
 14.319
 14.1425
 14.2655
 14.096
 14.1023
 14.1321
 13.9925
 15.3686
 15.5084
 15.4309
 15.3809
 14.3712
 14.2434
 14.3338
 12.3778
 12.137
 12.3394
 14.4494
 14.4641
 14.5535
 14.5082
 13.2099
 13.1001
 13.0756
 13.0808
 17.0907
 17.0953
 17.0886
 17.0245
 13.3886
 13.4274
 13.4271
 14.8081
 14.8301
 14.8095
 14.809
 13.3962
 13.4511
 13.548
 13.4587
 14.5327
 14.4407
 14.4481
 14.3984
 11.7681
 11.7125
 11.7921
 11.6813
 11.4482
 11.559
 11.4693
 11.4069
 10.0687
 10.0682
 9.99281
 10.1736
 12.5312
 12.6893
 12.5675
 12.5253
 14.5648
 14.6821
 14.5749
 14.6409
 13.9536
 13.9972
 15.2062
 15.2028
 15.1697
 15.1718
 13.1512
 13.1034
 13.7145
 13.5398
 13.5775
 14.209
 14.1418
 14.0919
 14.1493
 10.2708
 10.2029
 10.4067
 10.3807
 10.5149
 10.549
 10.6041
 10.5381
 14.0651
 14.0258
 14.0962
 14.1852
 14.8605
 14.8282
 12.3872
 12.3387
 12.3735
 12.2552
 14.1945
 14.236
 14.1485
 14.1551
 13.5436
 13.688
 13.4489
 9.31875
 9.26336
 9.40969
 12.8443
 12.6852
 12.7424
 12.74
 10.7999
 10.638
 10.8305
 10.9043
 12.6258
 12.5161
 12.4886
 12.6404
 11.6263
 11.5267
 11.5068
 11.6955
 14.6065
 14.5078
 14.5918
 14.6382
 14.1575
 14.0164
 14.2007
 14.0584
 12.6038
 12.7271
 12.4896
 12.6472
 13.6625
 13.5394
 13.5062
 13.6725
 14.5824
 14.5434
 14.5047
 14.4105
 13.1919
 13.1377
 13.0671
 13.0052
 11.958
 11.9385
 12.0245
 12.7138
 12.5859
 12.6734
 12.6035
 16.6076
 16.5207
 16.4643
 16.5242
 14.8573
 14.8601
 14.8368
 14.8501
 13.7454
 13.7476
 13.7573
 13.6435
 15.6564
 15.5674
 15.6947
 15.6216
 10.7228
 10.7284
 10.842
 9.89873
 10.0129
 10.145
 10.0302
 11.3827
 11.1529
 11.2406
 11.2382
 12.7632
 12.005
 11.8426
 11.7974
 11.9118
 12.9382
 12.8458
 12.996
 13.001
 14.6277
 14.7248
 14.672
 14.0885
 14.0603
 14.0266
 14.1797
 16.5927
 16.6849
 16.6041
 16.7184
 15.4753
 15.479
 15.4426
 15.4529
 13.7979
 13.7991
 13.7291
 13.6629
 9.76505
 9.97663
 9.90476
 9.92711
 16.3527
 16.3358
 16.2526
 16.2719
 11.766
 11.6389
 11.8483
 11.7055
 12.7664
 12.7554
 12.6419
 12.7461
 14.0313
 14.2228
 14.2112
 13.0577
 13.1878
 13.2059
 13.1976
 10.0231
 9.96813
 9.93159
 14.5545
 14.3905
 14.3679
 13.4062
 13.3698
 13.2377
 13.2646
 13.8143
 13.8453
 13.8777
 13.9018
 13.7159
 13.7389
 13.6089
 13.5847
 14.7733
 14.8386
 14.8298
 14.7214
 13.1058
 13.023
 13.1425
 13.0198
 10.1676
 10.3808
 10.3761
 10.4836
 10.7001
 10.7355
 10.7401
 10.6233
 14.974
 14.9534
 14.947
 14.9677
 10.8798
 10.8196
 10.8309
 10.9912
 10.3762
 10.1846
 10.2369
 10.4146
 10.8607
 10.8737
 11.0305
 11.0144
 12.1546
 12.1743
 12.0717
 12.1247
 12.891
 12.9791
 12.8525
 13.7888
 13.9575
 13.9095
 13.8715
 11.4484
 11.5356
 11.6097
 11.4294
 11.4414
 11.3746
 11.3106
 11.3509
 9.27436
 9.27396
 9.50803
 9.36621
 15.5648
 15.4968
 15.5159
 15.4992
 15.1712
 15.2212
 15.1968
 15.124
 14.7286
 14.7557
 14.6243
 14.761
 13.6776
 13.836
 13.7283
 13.7383
 13.5874
 13.5745
 13.5786
 10.3089
 10.214
 10.0745
 10.1598
 11.3101
 11.3725
 11.4457
 11.4381
 13.1253
 13.2123
 13.2499
 13.182
 10.6167
 10.5323
 12.453
 12.4529
 12.4583
 12.5705
 10.7556
 10.6927
 10.5157
 10.6536
 12.6356
 12.4758
 12.6676
 12.4615
 13.8204
 13.7529
 13.9157
 13.8632
 15.0986
 15.1663
 15.1088
 15.0259
 16.6813
 16.5886
 16.7157
 16.6409
 10.892
 10.9409
 10.962
 10.8671
 10.368
 10.3496
 10.338
 10.2429
 13.3823
 13.5202
 13.4371
 13.509
 12.8546
 12.9199
 12.9393
 12.8523
 14.2543
 14.3612
 14.1805
 12.186
 12.2855
 12.2715
 12.323
 14.3015
 14.3234
 14.2457
 14.2507
 13.0344
 13.1449
 13.241
 13.1663
 12.0773
 12.1436
 12.112
 12.0576
 12.7111
 12.7508
 12.799
 10.789
 10.9214
 10.8788
 10.8817
 12.1801
 12.0286
 15.7083
 15.5551
 15.7163
 15.6517
 11.5687
 11.6623
 11.6072
 14.0395
 14.0014
 14.0061
 14.0321
 12.3084
 12.3329
 12.3708
 12.9075
 13.0269
 12.8989
 12.9742
 12.2486
 12.3867
 12.171
 12.2968
 12.1289
 11.9879
 16.2498
 16.249
 16.3193
 16.2448
 16.4949
 16.6012
 16.6413
 16.5446
 12.8199
 12.9615
 12.9044
 12.9668
 12.3717
 12.4478
 12.3747
 12.4654
 16.172
 16.1909
 16.1605
 16.0922
 14.0997
 14.2222
 14.784
 14.7643
 14.7199
 14.6278
 12.0949
 12.1481
 11.9749
 12.0721
 12.4461
 12.3999
 12.2884
 12.4954
 12.1912
 12.3361
 12.3704
 12.3323
 13.8405
 13.8367
 13.7271
 13.8412
 14.4955
 14.5062
 14.6122
 14.4811
 15.2634
 15.1542
 15.1632
 15.2542
 14.4837
 14.4925
 14.4889
 14.3203
 11.4974
 11.6032
 11.4767
 11.5607
 12.8187
 13.0979
 12.9609
 15.632
 15.5747
 15.5041
 11.9153
 11.7123
 11.8241
 11.8317
 11.756
 12.0009
 11.8719
 11.8316
 13.3249
 13.4034
 13.4449
 13.2093
 13.1698
 13.0603
 13.158
 14.5522
 14.6197
 14.6463
 14.6465
 11.1576
 11.2055
 11.0994
 11.1603
 14.7995
 14.8251
 14.8171
 14.7721
 14.8268
 14.8904
 14.8336
 9.83687
 9.64996
 9.55921
 9.70495
 10.9351
 10.8429
 14.0135
 14.0601
 13.954
 13.9927
 12.9358
 12.8048
 12.9384
 13.1625
 13.2279
 13.1956
 13.3028
 14.5744
 14.4885
 14.5318
 11.2819
 11.1962
 11.3813
 11.3211
 14.5618
 14.4175
 14.5184
 14.5396
 11.7328
 11.8541
 11.8987
 11.8331
 14.7551
 14.6986
 14.4453
 14.5654
 14.4737
 14.5272
 14.0897
 14.1455
 14.1178
 14.0798
 15.468
 15.4992
 15.5939
 15.5308
 11.4945
 11.3466
 13.7641
 13.6935
 13.6817
 13.6919
 10.0182
 10.0817
 10.0389
 9.98425
 13.7892
 13.8468
 13.6994
 13.6178
 11.2465
 11.1073
 11.0644
 11.0551
 10.4972
 10.3405
 10.5951
 10.374
 11.7467
 11.8851
 10.5041
 10.3782
 10.4221
 10.4627
 14.5528
 14.5725
 14.5713
 14.4707
 10.5558
 10.4997
 10.4813
 10.5655
 9.84441
 9.66047
 9.67817
 9.80973
 12.3404
 12.3321
 12.217
 12.2526
 13.0602
 13.1077
 12.9715
 12.9139
 10.6094
 10.7893
 10.6807
 10.6019
 15.5989
 15.4851
 15.5473
 15.6274
 10.6846
 10.491
 13.7376
 13.6616
 13.647
 13.542
 10.8379
 10.8897
 11.0292
 11.0118
 14.5337
 14.4293
 14.4477
 14.4521
 13.4742
 13.6436
 13.5854
 13.4961
 14.2852
 14.3193
 14.1855
 14.541
 14.6025
 14.5397
 14.6448
 14.778
 14.6829
 14.7104
 14.6635
 12.3429
 12.4228
 12.4623
 10.9809
 10.9635
 10.8409
 10.8665
 12.6948
 12.7606
 12.7992
 14.5338
 14.615
 14.559
 12.8851
 12.7025
 12.8587
 12.7546
 12.2366
 12.266
 12.2203
 12.0736
 13.2323
 13.0959
 13.077
 13.1296
 13.4248
 13.4866
 13.5157
 13.5774
 13.6411
 13.6524
 13.4353
 13.38
 13.3027
 13.4969
 10.8915
 10.9725
 10.9065
 11.0105
 11.7784
 11.8679
 11.7935
 11.7367
 13.1973
 13.1431
 13.2016
 13.0284
 14.5199
 14.5958
 14.541
 12.6789
 12.7561
 12.6763
 12.6613
 13.9127
 14.0577
 14.0076
 14.0714
 15.9696
 15.9436
 15.9929
 16.0232
 13.6009
 13.662
 13.6316
 13.6411
 10.7651
 10.7887
 10.6584
 10.7073
 13.6258
 13.4818
 13.5595
 13.6294
 14.708
 14.7149
 14.6674
 14.6267
 14.5517
 14.6128
 14.6052
 13.1237
 13.1014
 13.1265
 12.1612
 13.6889
 13.8623
 13.7575
 13.7623
 10.5405
 10.5742
 10.4838
 10.8015
 10.7707
 10.7045
 13.664
 13.5467
 13.6329
 13.5628
 9.73641
 9.68107
 9.63839
 9.62151
 14.4937
 12.5019
 12.6107
 12.5232
 12.5615
 14.4174
 14.3722
 14.3883
 14.3626
 10.5642
 10.4964
 10.7016
 10.5698
 11.9415
 11.7476
 11.8284
 11.8977
 11.4023
 11.3259
 11.4813
 11.452
 14.7757
 14.739
 14.6898
 14.7744
 13.9264
 13.8284
 13.9345
 13.9336
 12.7018
 12.7743
 12.6595
 12.7826
 13.7493
 13.8721
 13.6997
 13.8222
 12.033
 11.9857
 11.8641
 11.8938
 14.418
 14.469
 14.3594
 14.3597
 13.9751
 13.9104
 13.818
 13.8823
 12.3998
 12.3866
 12.4109
 12.2499
 10.4082
 10.2374
 10.3363
 10.2395
 14.7147
 14.7007
 14.5993
 14.6493
 15.3873
 15.5056
 15.3797
 15.3899
 10.4969
 10.3851
 10.4342
 10.3793
 15.3681
 15.4588
 15.2126
 15.2565
 15.2689
 15.1704
 12.9172
 12.8449
 12.955
 13.0396
 13.9277
 13.8594
 13.8612
 13.9742
 9.36707
 9.29807
 9.31458
 9.42031
 10.6128
 10.6255
 10.4469
 11.9469
 11.9584
 11.8509
 12.004
 14.5984
 14.5667
 14.6762
 14.5333
 14.0091
 14.0295
 14.0696
 14.1186
 14.0488
 13.9671
 11.9537
 11.7503
 11.8142
 11.8948
 12.1466
 12.1408
 12.2545
 12.1157
 11.7628
 11.7726
 11.9062
 11.7659
 9.91507
 9.88511
 10.1487
 9.83218
 11.4851
 11.4751
 11.6088
 13.5278
 12.6778
 12.7032
 12.6632
 12.7617
 12.6259
 12.7604
 12.7228
 12.6992
 11.1035
 11.1822
 11.1883
 11.2614
 11.5182
 11.5965
 11.5945
 11.4659
 12.3946
 12.507
 12.5028
 13.7362
 13.7984
 13.6965
 13.8762
 12.7251
 12.5218
 12.6477
 12.6134
 13.6411
 13.5715
 13.6996
 16.2947
 16.2949
 16.3528
 16.2499
 10.9961
 10.7857
 10.8656
 10.8959
 11.0802
 10.8521
 10.9769
 16.2368
 12.5982
 12.5654
 12.6139
 12.457
 12.4342
 12.4032
 15.2221
 15.1959
 15.207
 15.1722
 14.6983
 14.6649
 14.5704
 14.7139
 14.1398
 14.078
 14.084
 14.2109
 14.3283
 14.2762
 14.2022
 14.3245
 14.3385
 14.2427
 13.467
 13.5476
 13.5811
 13.5998
 13.3843
 13.269
 9.15991
 9.15293
 14.5081
 14.3359
 14.5109
 14.4045
 13.1751
 13.2107
 13.1385
 13.2676
 14.7633
 14.7371
 14.9077
 14.8498
 10.8632
 10.7783
 11.0105
 10.9178
 11.077
 11.189
 11.0819
 11.1998
 12.0564
 11.9695
 11.9487
 12.0087
 12.7509
 12.7106
 12.536
 12.6188
 12.8241
 12.8979
 14.5291
 11.6652
 11.5247
 11.5594
 11.5267
 9.97199
 9.99593
 9.78626
 10.0387
 10.9856
 10.8391
 11.0144
 10.9548
 17.0836
 17.0832
 17.0685
 17.0383
 10.1261
 10.1011
 10.1679
 10.1598
 14.1928
 14.1889
 14.2962
 14.1308
 13.7407
 13.8677
 13.817
 13.9081
 11.8865
 11.8694
 11.7968
 11.7764
 11.8857
 11.913
 11.9818
 11.9507
 14.5606
 14.383
 14.4732
 14.4323
 10.3316
 10.2651
 10.3463
 10.3255
 10.8374
 10.7496
 10.7924
 10.7059
 11.6315
 11.6056
 11.5124
 11.5116
 10.5961
 10.6961
 10.6538
 10.5941
 13.9355
 13.8224
 13.8237
 13.777
 14.566
 14.5374
 14.5115
 14.471
 10.947
 11.0604
 11.0993
 11.0665
 13.2867
 13.2908
 13.3405
 13.4414
 13.0827
 13.14
 13.1635
 13.0911
 16.5346
 16.4918
 16.4371
 16.4866
 10.185
 10.1538
 10.5474
 10.5169
 10.6445
 10.445
 14.9616
 15.067
 15.1015
 14.9396
 13.9153
 14.0605
 14.0596
 14.1164
 10.7843
 10.8779
 10.7307
 10.6904
 13.515
 13.4757
 13.544
 13.4217
 13.6003
 13.5641
 13.6971
 13.6869
 9.98771
 9.9555
 10.0357
 10.0849
 12.7359
 12.7657
 12.7272
 12.6773
 13.0141
 12.9727
 13.0064
 13.0879
 11.4152
 11.3412
 11.3007
 11.3647
 12.0277
 12.0618
 12.1046
 12.1773
 13.4246
 13.4038
 13.5562
 13.91
 13.8183
 13.8799
 13.7217
 15.1607
 15.1903
 15.2179
 15.0595
 13.717
 13.6448
 13.623
 13.6009
 12.863
 12.938
 12.8723
 12.969
 9.84144
 9.79744
 9.82107
 9.99716
 13.7269
 13.5232
 13.6319
 13.6315
 14.8784
 14.8761
 14.9549
 15.0083
 11.6881
 11.5736
 11.6318
 11.7303
 12.2428
 12.2576
 12.3213
 12.7723
 12.5977
 12.587
 12.54
 15.2246
 15.222
 15.216
 15.1415
 12.5837
 12.6999
 12.6489
 12.7511
 10.4395
 10.4234
 10.4236
 10.4004
 12.717
 12.6982
 12.6832
 12.616
 14.8059
 14.8736
 14.8324
 14.7924
 14.4052
 14.3322
 14.4197
 14.5063
 9.06034
 9.10783
 9.0423
 9.03512
 13.9638
 13.94
 13.9569
 14.0995
 12.2959
 12.4943
 12.4338
 12.39
 9.2628
 9.24707
 9.35703
 9.35437
 10.5606
 10.3794
 10.4702
 11.6887
 11.7016
 11.553
 11.5106
 10.7929
 10.7945
 10.6132
 10.8421
 16.0663
 16.003
 15.9369
 15.9613
 14.276
 14.1627
 14.3166
 10.1278
 9.96712
 9.99638
 9.98364
 12.362
 12.3927
 12.2627
 12.432
 11.3083
 11.3381
 11.1799
 11.4207
 14.6657
 14.6773
 14.7647
 14.8162
 13.547
 13.4213
 13.5707
 13.4706
 11.999
 12.1956
 12.1369
 15.144
 15.1033
 15.0456
 15.0547
 14.4598
 14.5953
 14.5289
 14.5699
 13.6386
 10.1029
 10.0292
 10.0726
 9.96938
 15.8706
 15.8684
 15.9472
 15.9551
 11.4282
 11.2197
 11.3272
 11.1917
 12.2036
 12.2933
 12.2407
 12.3749
 16.363
 11.0458
 11.1543
 10.9854
 10.1846
 10.007
 10.1137
 10.0937
 13.1733
 13.1351
 12.9608
 13.0948
 12.076
 12.0828
 11.9799
 12.1528
 14.222
 14.3332
 12.9445
 13.003
 12.9959
 12.8662
 14.2327
 14.2988
 14.3548
 14.2606
 13.8132
 13.8649
 13.7009
 13.7058
 11.7744
 11.858
 11.7698
 11.7288
 15.5284
 15.5322
 15.5313
 15.4163
 14.5941
 14.6596
 14.6132
 14.6932
 15.3681
 15.2821
 14.9023
 14.9067
 14.8921
 14.8956
 15.0047
 15.0774
 14.9578
 15.0576
 10.0358
 10.098
 10.2198
 10.2213
 12.3924
 12.3886
 12.4415
 12.2547
 13.5459
 13.3895
 13.492
 13.4777
 12.6762
 12.7215
 12.7504
 12.636
 9.97303
 9.98783
 15.1926
 15.248
 15.2357
 15.1891
 9.99433
 9.95189
 10.0619
 15.7475
 15.7866
 15.7503
 15.8026
 10.3023
 10.4428
 10.3363
 10.4416
 13.7105
 13.7961
 13.6747
 13.7963
 13.2464
 13.2184
 13.278
 10.0201
 10.0988
 10.0755
 9.99547
 12.504
 12.6185
 12.481
 12.5886
 13.1533
 13.098
 12.9855
 13.0991
 13.6599
 13.7249
 13.3988
 13.5992
 13.4467
 13.531
 12.2387
 12.3698
 12.31
 9.87317
 10.0892
 10.1103
 9.95152
 13.3086
 13.2285
 13.3189
 13.2928
 13.4974
 13.5613
 13.9128
 14.0326
 14.0599
 13.9639
 15.6715
 15.6563
 15.5682
 12.5724
 12.5457
 12.7023
 12.708
 10.1401
 10.1326
 10.1154
 15.3484
 15.4229
 15.3469
 13.2197
 13.3104
 13.2488
 13.3589
 11.9269
 11.9314
 12.081
 12.0286
 15.9761
 16.0108
 15.983
 15.9692
 10.892
 10.8541
 10.9385
 10.9568
 11.8475
 11.9493
 11.9315
 11.9705
 10.958
 10.9166
 11.007
 10.1498
 10.1222
 9.91374
 10.0345
 12.8142
 12.9547
 12.8294
 12.8183
 10.4925
 10.5269
 10.5808
 10.5995
 13.7467
 13.7875
 13.7108
 13.8387
 9.94008
 12.1725
 13.0073
 13.0648
 12.954
 13.1006
 12.219
 12.2456
 12.3594
 12.3762
 11.5474
 11.51
 11.5879
 11.7063
 12.231
 12.2898
 12.1443
 12.2047
 11.3092
 11.396
 11.2774
 11.299
 12.998
 13.0716
 13.0171
 12.9184
 13.148
 13.1032
 13.0823
 13.0309
 13.5323
 13.556
 13.6003
 13.4576
 13.0403
 13.0457
 13.1519
 14.7139
 14.6913
 14.715
 14.6328
 12.9172
 11.9526
 11.7797
 11.7691
 11.871
 10.2034
 10.1929
 10.3572
 13.8234
 13.9874
 13.9159
 13.9671
 12.7366
 12.5856
 12.6231
 12.1607
 12.1688
 12.2703
 12.2742
 11.9025
 11.8623
 11.7332
 11.7045
 10.692
 10.6199
 10.5354
 10.6446
 14.2904
 14.3144
 14.2413
 14.4111
 12.6081
 12.696
 12.7263
 12.7626
 13.0708
 13.1476
 13.22
 13.0929
 13.2116
 13.2938
 13.3041
 13.3844
 12.9708
 13.0197
 12.9495
 13.0766
 11.5082
 11.7236
 11.4763
 11.6247
 13.1781
 13.3688
 13.2965
 13.2766
 15.2219
 15.219
 15.2229
 15.1806
 15.2804
 15.2098
 15.2207
 12.96
 12.942
 12.8365
 12.8248
 12.9033
 12.8404
 12.8017
 12.7685
 13.0733
 13.1761
 13.0066
 13.0053
 10.3066
 10.2942
 10.467
 10.4471
 11.5035
 11.6355
 11.6369
 11.4915
 14.0177
 13.9488
 13.9628
 13.934
 14.606
 14.4893
 14.5045
 14.6526
 10.8284
 10.8576
 10.9377
 10.8207
 15.8367
 15.8904
 15.8698
 15.7776
 13.6127
 13.4981
 13.5634
 13.578
 14.8601
 14.7872
 14.7986
 14.346
 14.2741
 14.2647
 14.1873
 11.741
 11.786
 11.6834
 11.8764
 14.2685
 14.4287
 14.3657
 14.3267
 15.2067
 15.0062
 15.1418
 15.9634
 15.8741
 15.8197
 15.8517
 9.81797
 9.76991
 9.68866
 9.5762
 14.1907
 14.2638
 14.2018
 14.1626
 12.3487
 12.5203
 12.4913
 12.3785
 10.4494
 10.5479
 10.6547
 10.5635
 11.1992
 11.0189
 11.261
 11.1501
 14.0848
 14.0697
 14.1432
 14.0947
 14.9196
 15.0255
 15.1113
 14.9998
 12.6439
 12.5656
 12.6879
 12.6189
 14.8823
 14.7446
 13.4082
 13.5804
 13.5489
 13.4543
 13.249
 13.259
 13.328
 13.2115
 13.3874
 13.3765
 13.4359
 14.6661
 14.6275
 14.6654
 12.281
 12.2775
 12.2387
 12.1995
 12.4994
 12.514
 12.609
 12.3995
 14.0771
 13.946
 14.0032
 14.0667
 11.4573
 11.3104
 11.5088
 11.4395
 12.996
 13.1447
 13.0643
 12.9476
 14.8194
 14.8204
 14.8444
 14.8239
 13.6614
 13.5869
 13.6604
 12.4527
 12.4531
 12.5665
 12.4611
 12.8672
 12.7999
 12.7169
 9.81883
 9.88833
 9.91456
 9.95256
 15.4064
 15.4521
 15.3973
 15.5323
 13.797
 13.6751
 13.6943
 13.767
 13.8463
 13.8741
 13.9705
 13.8445
 9.68335
 9.73746
 9.5692
 9.45403
 11.4081
 11.3341
 11.3479
 14.2362
 14.2667
 14.3063
 14.2562
 11.1777
 11.3345
 11.2672
 14.1846
 14.1795
 14.2603
 14.2365
 16.6645
 16.6021
 16.6594
 16.6056
 10.4834
 10.4313
 10.3379
 10.5091
 14.6474
 14.6791
 14.7277
 14.8213
 10.0546
 10.1083
 10.13
 10.091
 14.3857
 14.2515
 14.3511
 14.2999
 16.6347
 16.7407
 16.6486
 16.652
 15.1002
 15.2128
 15.1221
 15.0629
 14.6127
 14.5277
 14.46
 14.6308
 12.9674
 13.1422
 14.6174
 14.6002
 14.765
 14.7401
 12.3361
 12.3976
 12.4394
 12.5085
 13.1225
 13.1202
 13.1942
 13.032
 10.551
 10.7231
 10.4329
 10.4046
 10.8376
 10.9209
 10.825
 10.7654
 11.1428
 11.2231
 11.1558
 11.2693
 10.7568
 10.7306
 10.6968
 10.7891
 11.8726
 11.916
 11.7924
 11.8896
 11.0837
 10.9392
 10.9837
 11.0522
 15.3037
 15.433
 15.451
 15.2889
 10.6077
 10.529
 10.5647
 10.5857
 13.4671
 13.5596
 13.61
 13.5597
 11.393
 11.6055
 11.5414
 10.8187
 10.69
 10.7028
 10.7569
 14.5912
 14.7095
 14.7213
 14.6778
 15.1531
 15.1903
 15.2455
 15.2151
 11.6221
 11.6475
 11.7255
 11.5239
 13.2747
 13.2927
 13.324
 13.3891
 11.907
 12.0011
 11.9152
 11.9281
 11.9233
 11.9226
 11.6872
 13.5925
 13.6263
 13.7255
 11.978
 11.9345
 12.6497
 12.8133
 9.86912
 9.78879
 9.78983
 9.85803
 12.7611
 12.7047
 12.7717
 12.6357
 11.9677
 12.0347
 11.8676
 12.0294
 12.4762
 12.4043
 12.4567
 12.3486
 11.1148
 11.1624
 11.0935
 11.1756
 11.1879
 13.3295
 13.3173
 13.4351
 13.4398
 14.8416
 14.8416
 14.8392
 14.829
 11.9348
 12.0676
 11.9346
 12.0121
 11.9104
 11.9973
 12.0255
 11.8899
 16.4366
 16.379
 16.3432
 16.2722
 12.9597
 12.8595
 12.9098
 12.9815
 12.9996
 13.1037
 13.1458
 13.0422
 12.0702
 12.1644
 14.6455
 14.6151
 14.5674
 14.6309
 13.8304
 13.764
 13.8059
 13.8737
 14.4707
 14.5197
 14.5638
 14.5526
 13.951
 13.871
 13.8876
 13.9702
 14.423
 14.4316
 14.4816
 14.4074
 11.3918
 11.4456
 11.3945
 11.3109
 10.5957
 10.6029
 10.7403
 10.6536
 14.132
 14.18
 14.244
 14.1211
 12.9717
 13.0875
 12.9868
 13.024
 11.1411
 11.304
 11.1919
 11.2694
 13.4532
 13.5058
 13.5183
 13.3822
 14.1398
 14.0628
 15.039
 14.9919
 14.964
 15.0485
 13.2241
 13.2636
 13.3164
 13.3722
 11.0212
 11.0859
 11.086
 10.9239
 10.2374
 10.3312
 10.3033
 10.2151
 16.1651
 16.1567
 13.4129
 13.3178
 13.2734
 13.2526
 13.5822
 13.7475
 13.6411
 13.6378
 13.7373
 13.7781
 14.3635
 14.3003
 14.3211
 14.2605
 13.148
 13.0371
 12.9926
 15.2761
 15.2117
 15.2061
 15.1542
 10.7275
 10.623
 10.8152
 10.7136
 10.3658
 10.3694
 10.361
 9.73656
 9.85594
 9.96932
 9.86961
 12.5563
 12.3683
 12.446
 12.4153
 12.9768
 12.8314
 13.0395
 12.9101
 11.384
 11.1916
 11.1186
 11.2382
 12.0398
 12.0509
 11.9324
 12.0422
 12.2857
 12.1684
 12.2259
 12.7915
 12.7684
 12.8357
 12.6908
 11.7294
 11.4947
 11.5763
 11.7047
 13.3882
 13.4358
 13.3691
 13.353
 12.872
 12.9052
 12.7779
 12.9487
 12.0555
 12.0839
 12.1435
 12.0185
 12.9708
 13.0609
 13.097
 12.9607
 16.5978
 16.626
 16.537
 16.5379
 14.3038
 14.3492
 14.3451
 14.424
 11.7395
 11.7325
 11.5989
 11.5836
 14.2949
 14.2689
 14.3991
 14.441
 14.6
 14.7419
 14.5952
 14.5076
 10.8741
 10.8906
 10.7987
 10.9793
 11
 11.1373
 11.0113
 11.04
 10.5606
 10.6845
 10.5476
 10.5283
 11.4029
 11.4111
 11.292
 11.336
 13.5034
 13.5124
 13.5955
 13.5113
 14.3004
 14.3387
 14.2498
 14.3548
 11.9225
 12.1127
 11.9163
 12.0647
 14.2467
 14.2133
 14.1979
 14.2049
 15.0314
 15.0036
 14.9748
 14.9202
 13.1074
 13.0144
 13.087
 12.9951
 13.7207
 13.7928
 13.8776
 13.6202
 13.5884
 13.4488
 13.5684
 14.9042
 14.9644
 15.059
 14.9698
 14.1587
 14.1748
 14.2258
 14.1918
 11.8548
 11.7739
 11.841
 11.7765
 12.8342
 12.7288
 12.7129
 9.7504
 9.89091
 9.88268
 9.79105
 10.3002
 10.1806
 10.0868
 10.2196
 13.7543
 13.6718
 13.7996
 13.6715
 12.5275
 12.4362
 14.6982
 14.7039
 14.8142
 14.6622
 12.7984
 12.9007
 12.9692
 12.8764
 10.5
 10.4628
 10.5958
 10.4852
 14.2554
 14.2339
 14.1873
 13.4349
 13.4216
 13.3881
 13.5327
 13.6775
 13.5149
 13.5441
 13.5842
 13.0423
 12.918
 12.9057
 13.0723
 13.1213
 13.0541
 12.9733
 13.0701
 12.7378
 12.6607
 12.7469
 12.6375
 13.2467
 13.1624
 11.2905
 11.3451
 11.1303
 11.3061
 13.1454
 13.2616
 13.2203
 13.1483
 12.2562
 12.442
 12.3775
 13.1969
 13.0858
 13.1552
 13.0928
 12.3479
 12.4079
 12.4706
 12.3774
 14.3239
 14.4335
 14.3502
 14.4861
 13.3613
 13.381
 13.2537
 12.5554
 12.5462
 12.3857
 12.6274
 13.1726
 13.1879
 13.1051
 14.4757
 14.437
 14.5403
 12.1838
 12.1961
 12.1946
 12.3295
 12.9564
 12.8694
 12.8586
 16.1962
 16.1716
 16.1276
 16.2842
 12.0564
 12.1427
 12.2022
 12.0497
 13.627
 13.767
 13.7508
 13.778
 11.2178
 11.2245
 11.1783
 11.0805
 10.9829
 11.0712
 10.9176
 10.939
 14.5579
 14.4155
 14.585
 14.56
 12.6611
 12.7554
 12.8113
 13.8882
 14.0096
 13.9297
 13.9299
 10.7446
 10.9473
 10.8403
 12.9222
 12.8254
 12.8958
 12.7779
 11.9191
 11.871
 11.871
 11.8894
 10.6085
 10.5389
 10.5182
 10.6256
 16.932
 17.0085
 16.9882
 16.9315
 14.0506
 14.0318
 13.9638
 14.0578
 12.6279
 12.4228
 12.499
 12.4535
 15.0309
 15.1175
 15.1317
 12.9392
 12.8332
 12.871
 12.9611
 10.3035
 12.0635
 12.1416
 12.3017
 12.1752
 11.0747
 11.0788
 11.0428
 10.9938
 11.4434
 11.5144
 11.5371
 11.4557
 12.6254
 12.6717
 12.8023
 12.9443
 12.9499
 12.9337
 15.967
 15.8802
 15.9594
 15.9039
 13.8661
 13.915
 13.9596
 14.0278
 14.0109
 13.9303
 14.0057
 10.3616
 10.0913
 10.3697
 10.3735
 13.0491
 13.0609
 12.9163
 12.9304
 12.5488
 12.5996
 12.6947
 12.6132
 10.8702
 10.9484
 10.8069
 10.9568
 12.8819
 12.9106
 12.7862
 12.91
 15.3506
 15.3064
 15.4028
 15.3699
 13.1757
 13.2193
 13.1545
 13.1999
 14.08
 14.0773
 14.0603
 13.9863
 14.3003
 14.3831
 14.36
 14.3194
 14.9188
 14.8818
 14.9239
 14.9217
 15.5335
 15.5797
 15.5977
 15.4723
 9.67265
 9.81185
 9.74887
 9.78586
 15.8023
 15.7653
 15.852
 15.7026
 13.0617
 13.1332
 13.0503
 13.162
 9.84353
 9.87488
 9.95533
 9.94256
 13.5362
 13.5499
 13.4843
 13.4403
 14.8504
 10.6054
 10.6867
 10.6579
 10.5288
 14.3792
 15.3962
 15.2817
 15.2594
 15.3625
 12.4547
 12.3125
 11.3707
 11.5327
 11.363
 11.5158
 10.9161
 10.9376
 10.8472
 10.8617
 9.59837
 9.74552
 9.59872
 11.3464
 11.1945
 11.1975
 11.2028
 13.4385
 10.1102
 11.9407
 11.9923
 12.0309
 10.3792
 10.2777
 10.2532
 10.3125
 13.4963
 13.4949
 13.5072
 13.5782
 14.0321
 14.0066
 14.0759
 14.1342
 11.9512
 12.0367
 12.0037
 11.8244
 10.2348
 10.1117
 10.2639
 10.2578
 10.7842
 10.8224
 10.7395
 10.8319
 12.2621
 12.0751
 12.0976
 15.5327
 15.5929
 15.4101
 15.5256
 16.8496
 16.7534
 16.8061
 16.7531
 14.8696
 14.9995
 15.0097
 14.9431
 12.6851
 12.5835
 12.7111
 15.2507
 15.154
 15.1928
 15.2754
 11.1233
 11.1624
 11.0104
 11.2622
 11.2237
 11.314
 11.2603
 14.3149
 14.3604
 11.7941
 11.6589
 9.27438
 9.39367
 9.24808
 9.75696
 9.7129
 9.73242
 9.65829
 13.2617
 13.3668
 13.1986
 13.2806
 13.8987
 13.9216
 13.9762
 13.8522
 13.1554
 13.1626
 13.0487
 13.0608
 10.1063
 10.1142
 10.0826
 10.1194
 11.8436
 11.7897
 11.8299
 11.9089
 14.897
 14.9017
 14.8983
 14.8117
 11.7673
 11.7329
 11.8241
 11.6795
 12.6059
 12.575
 12.6823
 12.5525
 11.9843
 11.8878
 11.9072
 17.129
 17.1028
 17.0898
 13.8719
 13.931
 13.4776
 13.4746
 13.5786
 13.4227
 11.5561
 11.4251
 11.5112
 11.5526
 11.7611
 11.7009
 11.547
 11.6913
 11.6781
 11.7465
 11.5408
 16.0742
 16.0822
 14.9798
 14.9908
 14.9278
 14.9709
 12.5748
 16.1536
 16.2445
 16.2053
 16.1995
 14.1121
 13.9813
 14.0887
 14.1035
 13.3646
 13.4127
 15.5057
 15.3385
 15.353
 15.4382
 9.65133
 9.48485
 9.5644
 9.61808
 10.1678
 10.134
 10.2016
 10.007
 14.4789
 14.291
 14.4266
 14.3266
 13.8985
 13.9655
 13.7515
 13.8027
 13.8761
 13.947
 13.8785
 11.5954
 11.5302
 11.6976
 11.5903
 14.8449
 14.7816
 14.7334
 14.7154
 13.0517
 12.992
 13.0697
 12.241
 12.2235
 12.1593
 12.0687
 13.9399
 13.92
 13.8415
 13.8944
 14.2557
 14.1448
 14.0821
 14.1961
 14.306
 14.3846
 14.3651
 14.277
 13.5304
 13.4762
 13.3958
 13.4928
 12.076
 12.1686
 14.0877
 14.0622
 14.0266
 14.122
 9.65044
 9.88155
 9.855
 9.83954
 14.4507
 14.3936
 14.4502
 14.3797
 15.2634
 15.2911
 15.1718
 15.2345
 12.5407
 12.4954
 15.7842
 15.7524
 15.8506
 15.7295
 13.6929
 13.6341
 13.7437
 10.4203
 10.478
 10.3747
 10.3559
 15.6581
 15.6939
 15.6644
 14.3238
 14.3271
 14.2252
 14.261
 15.4286
 14.3561
 14.401
 14.3855
 14.4969
 12.9058
 12.9809
 12.8937
 12.9132
 13.3448
 13.3189
 13.2564
 13.3529
 10.23
 10.0604
 12.7715
 12.7141
 12.7413
 12.774
 14.3993
 14.5246
 14.3818
 14.5319
 13.8212
 13.5923
 13.7103
 13.8176
 10.6144
 10.7219
 10.7084
 10.7114
 13.3655
 13.3267
 13.209
 13.2439
 12.5611
 10.9959
 10.9063
 11.0281
 13.7773
 13.7507
 13.8585
 13.7038
 11.8421
 11.8781
 11.8078
 11.9723
 13.5822
 13.6566
 13.6624
 13.53
 10.2091
 10.3638
 10.3825
 10.3081
 9.30261
 9.22345
 9.35146
 14.3231
 14.242
 14.1389
 14.2151
 12.3096
 12.2386
 12.3896
 12.341
 11.8536
 11.8196
 11.7316
 11.6737
 13.9025
 13.8996
 14.2601
 14.3139
 14.3494
 14.2288
 13.565
 13.3926
 12.3441
 12.305
 12.3645
 12.4083
 12.1004
 12.0506
 11.9598
 12.1077
 13.4263
 13.3875
 13.2892
 13.3408
 12.4631
 12.4506
 12.4448
 10.7304
 10.8979
 10.9354
 10.8618
 11.3812
 11.4209
 11.3399
 13.4567
 13.276
 13.4459
 13.3626
 14.1567
 14.2885
 14.3554
 14.213
 11.858
 11.996
 11.9933
 11.8937
 13.3532
 13.3641
 13.4839
 14.8789
 14.8944
 14.8733
 14.8927
 13.9274
 13.9433
 13.8898
 13.8503
 11.2995
 11.3057
 11.417
 9.72469
 9.89196
 9.88038
 11.9749
 11.9129
 11.9084
 13.9347
 14.0389
 13.8957
 14.0042
 9.92691
 9.91918
 9.94179
 9.84778
 12.1866
 12.2506
 12.1788
 12.0892
 11.0937
 11.0309
 10.8362
 10.8797
 11.3019
 11.2389
 11.3087
 11.2953
 15.1688
 15.2376
 15.2465
 13.512
 13.4849
 13.5642
 13.4725
 11.1824
 11.1098
 11.2361
 11.2335
 13.2138
 13.1575
 13.1382
 13.0145
 11.7378
 11.7362
 11.7701
 11.9121
 10.3851
 10.2989
 14.9197
 14.8428
 14.8565
 14.8059
 11.5179
 11.5881
 11.4213
 11.5537
 13.5515
 13.6085
 13.6417
 13.5231
 11.9918
 12.1308
 10.0021
 10.0078
 10.1168
 9.93798
 11.0989
 10.9393
 11.1479
 10.8604
 9.77651
 9.77566
 9.6595
 9.56726
 11.6309
 11.6613
 11.5886
 11.9571
 11.7896
 11.8283
 11.8668
 11.7597
 11.8575
 11.8208
 11.9523
 14.1041
 14.0732
 14.1791
 14.2077
 15.3781
 15.4288
 15.311
 12.956
 12.9319
 12.9332
 10.7833
 10.9065
 10.8268
 10.9447
 13.4086
 13.3327
 13.2363
 13.3262
 14.4442
 14.5664
 14.5424
 14.4388
 12.9266
 13.043
 13.0988
 13.1034
 13.5987
 13.447
 13.5881
 10.0324
 9.97264
 10.1442
 10.1344
 14.8059
 14.7663
 14.5826
 14.5218
 14.512
 11.7796
 11.7309
 11.8558
 11.6586
 13.0801
 12.9638
 12.9464
 13.0186
 14.6046
 14.5859
 14.4969
 14.5861
 12.5383
 12.7394
 12.7364
 12.5981
 13.7709
 13.8494
 13.7086
 13.716
 10.6456
 10.6153
 10.428
 13.9285
 13.9529
 13.854
 13.8633
 12.5925
 12.5083
 14.6479
 14.5163
 14.5514
 14.6274
 14.4873
 14.5814
 14.5354
 14.5766
 10.4433
 10.5354
 14.3215
 14.2254
 14.2788
 14.3593
 12.9127
 13.0317
 12.9634
 12.9141
 13.6125
 15.2844
 15.3711
 15.3438
 12.5083
 12.5238
 12.481
 12.5914
 10.4548
 10.4397
 10.5404
 10.3834
 15.1198
 15.1136
 15.0635
 15.1519
 14.5157
 14.4305
 14.5391
 14.5199
 11.8856
 11.8196
 11.8146
 15.0088
 14.9942
 14.9398
 14.9112
 9.71198
 9.8647
 9.76039
 9.68663
 14.8873
 14.8135
 14.7867
 14.9318
 12.1094
 12.2407
 12.1408
 12.006
 13.5826
 13.5183
 13.5394
 13.6171
 14.5703
 14.5316
 14.55
 13.702
 13.5742
 13.7144
 13.6084
 14.6979
 14.8038
 14.7358
 14.735
 14.4103
 14.4804
 14.4249
 11.4999
 11.609
 11.467
 11.5448
 11.677
 13.0835
 12.8433
 12.9949
 12.9909
 10.3663
 10.4238
 10.4976
 10.4238
 12.5161
 12.3886
 12.591
 12.4386
 12.0515
 11.958
 12.0523
 12.0923
 14.5416
 14.5891
 14.4714
 14.2926
 14.3212
 12.2599
 12.4098
 12.2977
 12.2431
 10.4695
 10.2819
 12.7011
 12.6685
 12.7772
 12.6381
 14.687
 14.7136
 14.616
 10.7257
 10.6663
 10.7798
 10.7324
 12.752
 12.902
 12.8594
 12.8289
 14.5948
 14.656
 14.5958
 14.5523
 13.0337
 13.0537
 12.8882
 13.0016
 12.1773
 11.9735
 15.0798
 15.1313
 15.1025
 15.1641
 14.3247
 14.1592
 14.0755
 14.1355
 14.0491
 14.0741
 14.0888
 14.2156
 14.1675
 14.1019
 12.8482
 12.842
 12.8725
 12.2664
 12.3184
 12.3616
 12.4182
 14.1837
 14.1952
 14.1732
 14.1944
 13.5849
 13.5968
 12.5516
 12.6485
 12.6113
 12.7044
 12.5869
 12.5676
 13.1151
 12.9752
 12.9612
 13.0765
 15.7327
 15.6253
 15.6453
 15.59
 12.6033
 14.7006
 14.5976
 14.6703
 14.6933
 10.0757
 9.95919
 10.0955
 11.6125
 11.6637
 11.7272
 11.5936
 13.0715
 12.9981
 13.0415
 13.2108
 12.8675
 12.7687
 12.9053
 14.3689
 14.2868
 14.334
 14.3931
 10.533
 10.4294
 10.6833
 10.4993
 12.1873
 12.2271
 12.1176
 12.1508
 10.5652
 10.5267
 10.7197
 10.6186
 14.7685
 14.7504
 14.8512
 14.8454
 14.1298
 14.0481
 11.5702
 11.6224
 11.6887
 11.6128
 10.3807
 10.3677
 10.3457
 10.4286
 9.34103
 9.28145
 9.38641
 9.22476
 10.5158
 10.6118
 10.4942
 12.1902
 12.1086
 12.225
 12.1553
 10.7503
 10.6987
 10.6251
 10.6819
 14.8736
 14.7808
 14.7055
 14.8008
 11.0564
 10.9796
 10.9471
 12.2121
 12.248
 12.2797
 12.2759
 14.7144
 14.7636
 14.7127
 14.7925
 11.8893
 11.7534
 11.8411
 11.8293
 12.4376
 12.3453
 12.311
 12.4146
 13.9472
 13.8873
 13.8526
 13.7723
 14.9442
 14.9257
 15.0494
 15.0408
 13.2897
 13.2521
 13.1575
 13.2673
 15.9333
 15.8991
 15.7842
 15.8323
 14.456
 14.3908
 14.4686
 14.2325
 14.3425
 14.3415
 14.3664
 16.3087
 16.2627
 16.3707
 16.2692
 10.793
 10.8924
 10.8846
 11.2364
 11.2219
 11.1143
 11.1419
 14.1485
 13.9858
 14.0368
 15.351
 15.3325
 15.3791
 14.8757
 14.9788
 14.8746
 14.8701
 14.0892
 14.1048
 14.0128
 14.1799
 12.1298
 11.9778
 12.0678
 12.0858
 15.7045
 15.6977
 15.622
 15.7262
 12.3598
 12.545
 12.5714
 12.4233
 11.2273
 11.1204
 11.3211
 11.2222
 12.621
 12.6235
 12.4498
 12.5124
 13.3582
 13.4284
 13.2636
 14.637
 14.6465
 14.639
 14.5718
 10.5296
 10.4143
 10.3818
 10.4122
 11.0876
 11.0112
 11.0943
 11.1684
 14.0004
 13.9147
 13.9686
 14.0505
 10.1954
 10.1237
 10.0628
 10.4952
 10.3026
 10.467
 10.424
 10.325
 10.291
 10.4121
 10.3687
 15.5961
 15.6218
 16.309
 16.294
 16.3528
 16.2311
 12.1895
 12.2422
 12.3231
 13.0334
 13.1173
 12.94
 13.0862
 12.8835
 12.7599
 12.8009
 12.8679
 17.0523
 13.4079
 12.327
 12.2133
 11.1583
 11.0754
 11.1223
 11.1113
 15.3604
 13.6603
 13.5592
 13.663
 9.18951
 9.27681
 9.2729
 9.26858
 12.8293
 12.917
 12.8332
 12.7363
 10.0361
 10.1261
 10.0546
 10.1632
 13.344
 13.2206
 13.4251
 13.6562
 13.5311
 13.6069
 10.8507
 10.7934
 10.9551
 10.8368
 12.3887
 12.4406
 12.525
 12.5943
 14.8468
 14.9228
 14.7744
 14.8072
 11.0835
 10.867
 10.9494
 10.133
 9.92973
 9.92847
 10.1249
 11.1518
 11.1757
 11.2909
 11.1532
 14.158
 14.1765
 13.9979
 14.186
 13.9234
 14.0005
 13.9849
 13.9965
 10.7149
 10.612
 10.6224
 10.6013
 13.4302
 13.4408
 13.5371
 11.46
 11.4364
 11.4968
 11.5622
 14.6118
 14.5176
 14.6675
 14.6599
 12.27
 12.2148
 12.3708
 12.3068
 14.7344
 14.6632
 14.7279
 14.7195
 12.6301
 12.5248
 12.6186
 12.5807
 11.3117
 11.2814
 11.1653
 11.4163
 14.9449
 14.9758
 14.8968
 12.7281
 12.6263
 11.0144
 11.0851
 11.0872
 11.1718
 13.423
 13.4892
 13.5018
 14.798
 14.8946
 14.9218
 14.8728
 11.9708
 11.9215
 11.9914
 11.8782
 12.1601
 12.1806
 11.9883
 12.1303
 16.7012
 16.7085
 16.6164
 16.6693
 12.9571
 13.0777
 12.999
 16.0916
 16.016
 15.9919
 12.8295
 12.8376
 12.9027
 12.8643
 12.9919
 14.7363
 14.7227
 14.8708
 14.8294
 13.2911
 13.1969
 13.143
 11.1443
 11.1486
 11.1556
 11.2062
 13.1307
 13.0734
 13.0143
 13.0164
 13.0254
 13.0709
 13.0976
 9.38332
 9.46132
 9.48648
 9.59596
 14.2433
 14.037
 14.0891
 14.1594
 15.0735
 15.0678
 15.0249
 15.0359
 13.6894
 13.7307
 13.5539
 13.6703
 10.8275
 10.7501
 10.7387
 10.9218
 16.7605
 16.6784
 16.7382
 16.6261
 11.5519
 11.6854
 11.5921
 11.581
 15.0527
 15.128
 15.0879
 15.0985
 11.0538
 11.328
 11.2672
 11.1468
 11.3392
 11.4203
 11.4843
 11.3918
 11.5414
 11.4715
 14.1461
 14.2103
 14.2173
 14.1602
 10.5524
 10.557
 10.5583
 11.4989
 11.6901
 11.6014
 11.4646
 14.3226
 14.2082
 14.2834
 14.3898
 13.6795
 13.7256
 13.5841
 17.1381
 17.1365
 17.1706
 17.1372
 12.9861
 13.1553
 12.9919
 10.5882
 10.4946
 10.5984
 10.6377
 11.2168
 11.3054
 10.6743
 10.5479
 10.4427
 10.6381
 11.6588
 11.6458
 15.1019
 15.0547
 15.1863
 14.9912
 11.3813
 11.4148
 11.3963
 11.5472
 12.8071
 12.7362
 13.7885
 13.7009
 13.7244
 13.7737
 11.3792
 11.3213
 11.2629
 11.3218
 14.0747
 14.2591
 14.2517
 14.1135
 10.6537
 10.6733
 10.5475
 10.3544
 12.3971
 12.3624
 12.5026
 15.2829
 15.3327
 15.3439
 15.2763
 12.1664
 12.1982
 12.2557
 12.3191
 14.2291
 14.3293
 14.365
 14.406
 14.1475
 14.2693
 14.1849
 16.8444
 16.8487
 16.8527
 16.7963
 14.9248
 14.764
 14.7259
 14.8712
 11.1682
 11.2425
 11.114
 11.2474
 13.0753
 13.0453
 13.1537
 13.5638
 14.6068
 14.5518
 14.5888
 14.5124
 13.5379
 13.625
 13.5491
 13.5108
 11.7969
 11.6262
 11.6032
 11.7579
 14.6289
 14.6282
 14.4425
 15.3936
 12.4315
 12.3782
 12.5151
 12.3228
 14.5656
 14.4155
 16.1771
 16.2483
 14.5811
 14.501
 14.5844
 14.7073
 11.7146
 11.6091
 10.9875
 10.9933
 10.9358
 11.015
 13.8152
 13.7207
 13.6998
 13.7281
 10.1849
 10.1572
 10.0432
 10.1591
 13.7425
 13.731
 13.9495
 13.9322
 11.5026
 11.4862
 11.5443
 11.7114
 14.3241
 14.3183
 14.2659
 14.2583
 11.3513
 11.2726
 11.4294
 11.3285
 13.3615
 13.2716
 10.3919
 10.4653
 12.0073
 11.9216
 12.0478
 11.8913
 11.9751
 12.0309
 12.0247
 11.8937
 12.661
 12.7369
 12.6269
 12.62
 11.3525
 11.5155
 11.3529
 11.2361
 14.3596
 14.4664
 14.4019
 14.408
 10.4834
 10.5411
 10.5628
 10.2808
 10.2421
 10.3783
 10.2867
 14.6885
 14.5682
 14.5695
 14.6213
 11.7006
 11.8527
 11.8311
 11.7703
 14.6804
 14.5935
 14.5832
 14.4938
 12.8562
 13.1246
 12.9671
 12.9643
 13.1206
 11.0409
 11.0199
 11.0149
 11.1691
 15.9236
 15.9946
 15.942
 15.8596
 11.779
 11.7027
 11.6107
 11.7227
 12.889
 12.7796
 12.9999
 12.9123
 11.7602
 11.8516
 11.8686
 11.8717
 12.0014
 9.43394
 9.52662
 9.71316
 9.612
 11.2855
 11.2826
 11.4788
 11.4247
 16.1367
 16.0854
 16.0166
 16.1516
 13.3977
 13.5238
 13.5757
 13.4646
 13.9358
 12.7794
 12.8035
 12.7634
 12.6703
 10.649
 10.6528
 10.7775
 10.8463
 11.0598
 11.0655
 10.9368
 10.6568
 10.9482
 10.8066
 10.8688
 16.7199
 16.6723
 11.4636
 11.469
 11.45
 14.0113
 14.0183
 14.047
 13.9211
 11.6089
 11.6696
 11.5806
 11.6919
 12.6513
 11.9226
 12.0418
 11.9147
 11.9562
 10.2832
 10.5027
 10.443
 10.2964
 11.9356
 11.8472
 11.6783
 11.9052
 13.4421
 13.4019
 13.557
 13.3189
 14.7384
 14.7174
 14.773
 14.6936
 9.63153
 9.80258
 9.58341
 9.65087
 11.683
 11.74
 11.6276
 11.7815
 9.83622
 9.90311
 9.87196
 9.75662
 13.9938
 14.1477
 13.9936
 13.9738
 12.6601
 12.7216
 10.3565
 10.1694
 10.3746
 10.2722
 12.6634
 12.6268
 12.6283
 12.5146
 13.0922
 12.9578
 12.7621
 12.6897
 12.6262
 12.7589
 10.9805
 11.0071
 11.0491
 10.9117
 13.7519
 13.8888
 13.9509
 13.8289
 15.1365
 15.0527
 15.1191
 15.1175
 14.8562
 14.8903
 14.8964
 14.8947
 13.8676
 13.8097
 13.8041
 13.9076
 13.3172
 13.4735
 13.3641
 13.2576
 13.432
 13.351
 13.298
 12.8808
 12.9659
 13.002
 12.9118
 15.1906
 15.2228
 15.1761
 13.5533
 13.6088
 13.4748
 13.4972
 12.7002
 12.5965
 12.6044
 12.7475
 14.1233
 14.2244
 14.0666
 14.2384
 13.9202
 13.8239
 13.8498
 13.8582
 12.4983
 12.4919
 12.4007
 12.3175
 13.0508
 13.1494
 13.0605
 13.092
 11.8576
 11.9119
 11.8477
 11.8914
 14.898
 14.87
 14.8323
 11.1719
 11.2349
 11.0781
 11.2248
 14.1204
 14.0181
 14.0867
 14.1661
 13.3575
 13.4257
 13.4754
 13.3224
 13.1259
 13.0268
 12.9931
 12.2489
 12.2605
 12.2142
 12.1203
 12.0011
 11.9824
 11.9048
 12.0478
 11.7833
 11.7617
 11.6528
 10.9275
 10.8769
 10.8915
 12.0783
 12.1339
 12.2167
 12.1208
 10.7579
 10.6906
 10.854
 10.5247
 10.5174
 10.5566
 10.6735
 13.0423
 13.2584
 13.1403
 13.1877
 13.9285
 14.0102
 13.9125
 14.0032
 14.4253
 10.894
 10.9582
 10.7513
 10.8796
 10.7782
 11.0146
 16.9057
 16.9537
 16.8994
 16.8675
 11.4503
 11.5565
 13.3069
 13.4368
 13.2993
 9.82163
 9.67533
 12.2315
 12.4127
 12.3615
 12.3328
 13.3999
 13.3409
 13.338
 11.4298
 11.1975
 11.3415
 11.2598
 13.9693
 13.941
 14.0204
 13.9033
 16.3132
 16.2326
 16.2519
 16.3367
 12.4314
 12.4084
 12.4677
 12.3069
 10.9769
 10.748
 10.9752
 11.2968
 11.3002
 11.2702
 11.3824
 14.1812
 14.3453
 14.3035
 14.4098
 14.2019
 14.1133
 14.5636
 14.4796
 14.5953
 9.74594
 9.83832
 10.9899
 11.1237
 10.974
 11.1527
 12.7293
 12.558
 12.5846
 11.5617
 11.7083
 11.4624
 11.4531
 14.1234
 14.2831
 14.2537
 14.1755
 12.9298
 12.9411
 12.8347
 12.8094
 13.0055
 12.9147
 12.91
 13.0102
 14.3204
 14.2649
 14.3024
 14.1082
 14.164
 14.1219
 14.1324
 9.27286
 9.13003
 9.22537
 9.06484
 14.9855
 15.1161
 10.6021
 10.5521
 10.571
 10.6575
 13.3337
 13.2224
 13.2716
 13.3247
 12.717
 12.6344
 12.6336
 12.6282
 14.8881
 14.8005
 12.794
 12.8769
 12.8818
 12.9526
 13.3258
 13.3655
 13.401
 13.2861
 11.1047
 11.1332
 11.1784
 11.1035
 13.1073
 13.0273
 13.0028
 13.1705
 14.0404
 14.0364
 12.2827
 12.2804
 12.3467
 12.2461
 11.7038
 11.7599
 11.6528
 12.7224
 12.6004
 12.6392
 12.5786
 14.492
 14.4378
 14.5179
 14.3753
 16.4641
 16.3777
 16.3892
 16.4725
 13.0714
 13.144
 13.0596
 12.921
 12.5682
 12.4037
 12.5263
 12.5632
 13.4489
 13.3857
 13.514
 13.4874
 13.804
 13.8723
 13.7913
 13.7372
 11.0544
 10.9152
 12.2342
 12.2942
 12.339
 15.7371
 15.7785
 15.8321
 15.7249
 14.2995
 14.3892
 14.2334
 14.4248
 12.7651
 12.7215
 12.7998
 12.84
 11.0785
 11.0235
 11.0218
 13.2671
 13.31
 13.4469
 13.4531
 14.1005
 13.9515
 14.005
 14.1087
 11.531
 11.6796
 11.6914
 11.5968
 12.258
 12.2964
 12.3424
 12.3319
 11.1339
 11.1104
 11.1194
 11.4155
 11.3939
 11.4008
 11.3852
 13.6104
 13.5877
 13.6718
 13.729
 13.1717
 13.1928
 13.0882
 16.3309
 16.3161
 16.334
 16.3909
 14.0927
 14.0883
 15.1098
 15.1781
 15.0761
 15.0171
 14.3871
 14.8023
 10.6694
 13.9901
 14.1082
 14.0163
 14.1611
 9.68438
 12.2027
 12.3188
 12.2025
 12.3613
 14.0296
 13.9126
 13.9739
 13.5761
 13.4828
 13.4806
 11.0926
 11.0774
 11.2543
 11.1035
 11.2337
 11.3156
 11.2088
 11.3059
 14.616
 14.7536
 14.7584
 14.6595
 10.2563
 10.2258
 10.1787
 10.3422
 12.9283
 13.0391
 13.1276
 11.2492
 11.1454
 11.217
 12.5061
 12.619
 12.5767
 12.4854
 13.9845
 13.9235
 14.0635
 14.0165
 12.5602
 12.3821
 12.5414
 13.8692
 13.8366
 13.829
 13.9549
 13.3082
 13.148
 11.0767
 10.9973
 10.964
 10.8504
 10.6481
 10.4792
 10.5708
 10.6179
 14.3201
 14.2104
 14.3637
 14.2709
 11.6281
 11.8054
 11.7305
 11.5921
 12.3033
 12.4908
 12.3328
 12.255
 13.5142
 13.6095
 13.4594
 13.5228
 10.8111
 10.8678
 10.9156
 10.9805
 13.2661
 13.3697
 13.1974
 13.2393
 12.9307
 13.0235
 13.0258
 12.8385
 13.2223
 13.2973
 13.1977
 13.1837
 14.2484
 14.1381
 14.4252
 14.3495
 14.2729
 14.4016
 15.2612
 15.4043
 15.3077
 15.2703
 12.2333
 12.2395
 12.2464
 12.1146
 12.3587
 12.4859
 12.474
 10.2832
 10.2517
 10.222
 10.2346
 9.70506
 9.63516
 9.7606
 10.4604
 10.3983
 10.5934
 12.5388
 12.4001
 12.3042
 12.4824
 11.842
 11.758
 11.6798
 11.9017
 11.1591
 11.0391
 11.1409
 11.02
 13.8837
 13.9995
 13.9709
 13.8977
 15.0619
 14.9757
 14.9268
 14.9282
 9.75198
 9.74241
 9.85248
 9.60248
 14.1229
 14.164
 14.2112
 14.0988
 12.6522
 12.6532
 12.5898
 12.6839
 9.62429
 9.68645
 9.85649
 9.53104
 12.0932
 12.2189
 12.0558
 12.0975
 13.4174
 13.4741
 13.4271
 13.4677
 14.0858
 14.1778
 14.1654
 14.7779
 14.6627
 14.7332
 14.7976
 14.5076
 14.5556
 14.4979
 14.5647
 14.4366
 14.5136
 14.1851
 14.1215
 14.308
 11.2006
 11.2776
 11.3014
 11.3199
 10.4772
 10.5774
 10.5393
 10.5621
 12.0235
 12.0599
 12.0485
 12.212
 13.1348
 10.6761
 10.62
 10.6409
 10.724
 14.8367
 14.843
 14.8503
 14.872
 10.0094
 9.91348
 10.0415
 9.84492
 13.5828
 13.6849
 13.5172
 11.7599
 14.7126
 14.719
 14.7924
 14.3474
 14.4041
 14.47
 14.2982
 12.7649
 12.7866
 12.9476
 12.8413
 11.5179
 11.5096
 11.6101
 11.4259
 13.1463
 11.8137
 11.8719
 11.9039
 13.1015
 13.1308
 13.0989
 12.9808
 13.8861
 13.8539
 13.9432
 13.9432
 13.5537
 13.6964
 13.5915
 13.5757
 11.7475
 14.235
 14.2221
 14.1654
 11.2832
 11.3693
 11.2567
 11.3351
 10.9088
 10.9541
 10.7981
 10.9921
 10.4427
 10.3682
 10.4621
 13.8843
 13.8774
 13.9591
 13.8701
 14.9181
 14.9862
 14.9238
 11.0561
 11.0835
 10.8113
 10.8641
 10.9314
 10.9345
 13.1391
 13.1291
 13.0471
 9.97807
 10.0295
 9.91394
 10.0482
 11.0353
 11.0883
 11.0338
 10.974
 12.1345
 12.131
 12.061
 12.0364
 12.6839
 12.6471
 12.7173
 12.815
 14.1329
 14.1547
 14.1835
 14.0935
 10.8738
 10.866
 10.933
 10.7589
 13.8123
 13.7798
 13.921
 13.5843
 13.4866
 13.4721
 13.4416
 10.4804
 10.5008
 10.3211
 10.4214
 11.8191
 11.8059
 11.8557
 11.8963
 9.92492
 10.0246
 10.1328
 10.0013
 13.5794
 13.4998
 13.4546
 13.4695
 12.7018
 12.6567
 12.7954
 12.5674
 10.8956
 10.9126
 10.8291
 10.8838
 12.7613
 12.6685
 12.7935
 12.7708
 9.94208
 9.76315
 9.91117
 13.9226
 13.9603
 13.9837
 13.9661
 12.4576
 12.4618
 12.4919
 12.5802
 12.1851
 12.0544
 12.157
 12.1393
 12.911
 12.984
 12.8026
 12.9322
 10.95
 10.9565
 10.793
 10.8882
 13.1072
 13.2307
 13.1548
 13.1958
 12.298
 12.3308
 12.3103
 12.4078
 14.901
 14.8949
 14.9167
 14.8999
 11.3368
 11.3095
 11.4155
 11.4743
 14.9096
 14.9115
 14.9124
 14.1731
 14.225
 14.2228
 14.16
 14.5245
 14.4756
 14.2861
 14.4361
 11.4586
 11.5152
 11.4274
 11.3438
 11.8978
 11.7283
 11.862
 11.8393
 13.586
 13.691
 13.6825
 13.7475
 9.52185
 9.61922
 9.73327
 16.2808
 16.3004
 12.2866
 12.1754
 12.3496
 12.3009
 15.4447
 15.5311
 15.6307
 15.5381
 11.9192
 11.9033
 11.7595
 11.8188
 13.5095
 13.8335
 13.8749
 13.9042
 13.9678
 11.5292
 11.4912
 11.4671
 11.4198
 10.8231
 10.8738
 10.7415
 10.8587
 14.8968
 14.8968
 11.7321
 11.674
 11.4825
 11.6926
 12.4202
 12.6367
 12.4022
 12.5161
 14.0344
 14.0315
 14.1065
 13.8869
 13.115
 13.2172
 13.2415
 13.1036
 11.08
 11.229
 10.9486
 10.4371
 10.481
 10.4621
 10.4803
 9.64919
 9.64609
 9.60483
 13.7626
 13.8314
 13.8102
 13.7446
 10.4454
 10.5522
 10.5908
 10.6132
 14.6011
 14.6897
 14.6536
 14.6271
 12.0138
 12.015
 11.9838
 12.1285
 12.5745
 12.43
 12.5392
 12.5325
 10.3946
 10.3998
 10.411
 10.307
 11.8633
 11.7861
 11.9027
 11.9754
 15.6667
 15.7177
 15.7463
 15.6769
 13.1312
 13.2998
 13.1439
 13.2681
 13.6973
 13.5358
 13.5508
 13.6864
 11.5475
 11.4753
 11.6022
 11.71
 14.4654
 14.5433
 14.5813
 14.5688
 12.3028
 12.3931
 12.3635
 12.2223
 13.7935
 13.8834
 13.8975
 14.9545
 15.0196
 14.9954
 15.0528
 12.2041
 12.0924
 12.2878
 12.0037
 12.0219
 12.0936
 14.2101
 14.3183
 14.3917
 14.4141
 14.4255
 14.376
 14.3369
 10.5305
 17.002
 16.9533
 16.9629
 17.0405
 10.9882
 11.0889
 10.885
 11.0017
 14.6779
 13.5353
 13.557
 13.5866
 13.4315
 13.7247
 13.7927
 13.5779
 14.1516
 14.0096
 14.0767
 14.1249
 15.6577
 15.6837
 15.6219
 15.7521
 14.6047
 14.5207
 14.5263
 12.7302
 12.794
 12.7846
 13.7827
 13.8226
 9.33559
 9.49977
 9.50986
 14.5191
 14.4305
 14.5652
 13.5685
 13.4803
 13.4355
 10.4327
 10.3046
 10.3209
 11.4577
 11.4508
 11.3243
 11.4503
 14.1125
 14.0494
 14.0146
 14.8913
 14.999
 10.1866
 10.3012
 10.1349
 10.1881
 15.3538
 15.3199
 15.4296
 15.2502
 14.4905
 14.5277
 16.4513
 16.527
 16.0513
 16.0672
 16.0176
 13.5704
 13.5085
 13.6298
 10.2534
 10.403
 10.4618
 11.7835
 11.7653
 11.6472
 14.0501
 13.9695
 13.861
 13.798
 13.9003
 10.7699
 14.9665
 14.9684
 14.9228
 14.9174
 13.6846
 13.4852
 13.6201
 13.62
 11.5995
 11.638
 11.5505
 11.6971
 11.683
 11.7577
 11.7206
 13.5918
 13.6307
 13.5281
 13.447
 11.7722
 11.7257
 11.636
 11.6413
 11.3563
 11.4662
 11.4016
 11.2588
 12.9565
 11.723
 11.7008
 11.6715
 11.6285
 10.0269
 9.95487
 10.0239
 10.1191
 14.2699
 14.4544
 14.4797
 14.3427
 10.2905
 10.2083
 10.2814
 10.2949
 16.5259
 16.4949
 16.5624
 10.1892
 10.2732
 10.0513
 10.1211
 14.2337
 14.2584
 14.3594
 14.3447
 11.3253
 11.4448
 11.3579
 11.2706
 14.4917
 14.4862
 14.7013
 14.654
 9.82271
 11.0883
 11.2687
 11.1996
 11.3246
 10.7498
 10.6202
 10.6782
 14.8355
 14.7806
 14.8704
 14.9095
 11.478
 11.5753
 11.5676
 11.6377
 12.4046
 12.2942
 12.2824
 12.3282
 12.5637
 12.4926
 12.6622
 12.6687
 9.62662
 9.77932
 13.3591
 13.3462
 13.3588
 13.5786
 13.4865
 13.4466
 13.3849
 11.6548
 11.7354
 11.5262
 11.5137
 11.6526
 11.5895
 11.5902
 11.4885
 12.1979
 12.1847
 12.0873
 12.2294
 14.2353
 14.2287
 13.9651
 14.0387
 14.0434
 13.5675
 13.4892
 13.4861
 13.4708
 15.0391
 15.1218
 15.1105
 15.1122
 13.6769
 13.7447
 13.8405
 15.6127
 15.6162
 15.5174
 13.6644
 13.6782
 13.7752
 13.5986
 14.2085
 14.0671
 14.2364
 13.1166
 11.6423
 11.6824
 11.5349
 13.4177
 13.4547
 13.3786
 13.3104
 14.5543
 14.545
 14.2965
 14.4264
 12.9612
 12.8875
 12.8462
 12.8419
 11.1417
 11.2247
 9.47323
 9.59046
 9.67139
 9.45879
 11.5742
 11.6309
 11.5176
 11.709
 13.358
 13.3803
 13.3923
 13.3275
 9.89609
 9.88249
 9.64105
 9.98096
 10.2259
 10.1589
 10.1287
 12.81
 12.963
 13.0065
 12.8659
 14.7716
 14.803
 14.715
 13.2759
 13.2889
 13.1531
 13.2745
 14.8077
 14.9421
 14.8116
 14.9446
 11.9139
 11.9219
 11.8871
 12.1552
 14.8805
 14.8777
 14.8879
 14.8544
 14.1927
 14.1218
 14.0942
 14.149
 10.173
 10.3197
 10.1453
 10.2772
 12.7175
 12.714
 12.8171
 12.7077
 13.6846
 13.7547
 13.6489
 13.7372
 11.663
 11.6361
 11.2387
 11.0359
 11.0973
 11.1157
 13.4683
 13.3436
 13.377
 13.2337
 13.1936
 13.1192
 13.1696
 13.184
 14.6908
 14.6263
 14.7141
 13.5022
 13.5819
 13.6432
 16.7903
 16.8826
 16.8095
 16.8572
 14.119
 14.069
 14.8431
 14.7918
 14.8332
 14.9231
 12.3976
 12.5128
 12.4091
 12.5469
 15.6241
 15.52
 15.4685
 15.5669
 14.4056
 14.4354
 14.548
 11.9666
 11.9286
 11.9436
 12.0044
 14.3478
 14.2599
 14.3858
 14.4973
 14.4899
 14.5866
 14.5712
 13.5829
 13.6476
 13.6309
 13.5137
 11.3362
 11.0204
 16.1122
 16.0718
 14.1604
 14.2498
 13.2983
 13.3953
 13.3555
 13.3722
 12.0481
 11.9592
 12.0477
 11.8864
 12.9707
 12.9617
 12.898
 12.8759
 14.791
 14.9565
 14.8204
 14.8885
 12.4564
 12.5989
 12.521
 14.7438
 14.7725
 14.7248
 14.729
 10.5909
 10.5729
 10.4762
 10.6456
 12.0712
 12.0761
 12.0807
 12.1954
 14.612
 14.5382
 14.6453
 13.2464
 13.3763
 13.2605
 13.1995
 14.8926
 14.9012
 14.8609
 14.3933
 14.2897
 14.3227
 14.3859
 14.514
 14.5346
 14.4319
 14.4987
 13.4053
 13.4972
 13.5276
 13.5629
 10.1467
 10.2186
 10.3154
 10.2777
 12.3027
 12.1572
 12.2168
 12.1958
 13.3754
 13.5182
 13.4115
 12.7558
 12.8131
 12.8059
 10.7226
 10.883
 10.7356
 10.8345
 12.2066
 12.1759
 12.3074
 12.1284
 13.5056
 13.4194
 13.3743
 13.3911
 15.0215
 14.992
 14.6389
 14.7054
 14.5824
 14.5803
 16.2764
 16.3051
 16.3858
 16.2694
 11.6032
 11.5799
 11.575
 11.6343
 14.3026
 14.4196
 14.382
 14.3912
 12.9599
 13.0772
 13.0006
 13.1339
 15.1847
 15.2301
 15.2127
 15.2532
 12.6494
 12.7138
 12.7789
 12.7667
 13.2408
 11.6437
 11.7406
 11.7933
 11.7552
 13.4498
 13.5777
 13.6048
 13.4755
 13.4689
 13.4109
 13.3346
 13.3689
 13.7687
 13.8718
 13.8319
 13.9041
 14.5486
 14.6582
 14.4882
 11.0335
 11.0014
 10.96
 11.1963
 13.5061
 13.5437
 13.5445
 13.5843
 11.1647
 11.1065
 11.017
 11.9952
 12.0816
 12.0001
 12.0671
 11.3967
 11.2076
 11.3129
 11.1971
 14.5902
 14.5006
 14.6083
 17.0538
 17.0112
 16.9996
 11.7532
 11.6025
 11.641
 12.6183
 12.4163
 12.5222
 12.4068
 13.6818
 13.6312
 13.5788
 13.6657
 13.3567
 13.31
 13.4634
 13.4281
 15.8254
 15.7559
 15.914
 15.7516
 12.9141
 12.9724
 12.9838
 12.9984
 12.4125
 12.4116
 12.2995
 12.4384
 14.3298
 14.3278
 14.0624
 14.2678
 14.1654
 14.1516
 11.9007
 12.0014
 11.9348
 11.9326
 14.4467
 14.3308
 12.3169
 12.3722
 14.7534
 16.8724
 16.8921
 16.8774
 16.8119
 15.1681
 15.0678
 9.8041
 9.64118
 9.77618
 14.9364
 14.8455
 14.7633
 14.8539
 11.7469
 11.7252
 14.2119
 14.2365
 14.2209
 14.215
 13.8415
 13.6523
 13.7308
 11.6174
 11.5711
 11.6006
 11.4623
 12.1801
 12.0611
 12.1643
 12.1271
 10.9886
 10.9843
 10.8499
 13.409
 13.5105
 13.4
 13.5627
 13.0788
 10.8847
 11.1121
 10.9405
 10.9973
 14.8944
 14.9239
 14.858
 14.8134
 12.826
 12.9217
 12.7785
 12.8897
 11.5404
 11.7372
 11.5953
 11.696
 16.4429
 16.4234
 16.3946
 16.3881
 14.5792
 9.87927
 13.5944
 13.4288
 13.5358
 13.6432
 12.7932
 12.6869
 12.824
 12.8658
 14.2071
 14.3498
 14.2725
 14.2394
 12.7174
 12.7779
 12.7298
 12.7047
 14.6959
 14.6723
 14.571
 14.706
 14.6179
 14.5508
 14.6268
 13.3483
 13.2387
 13.4035
 13.3393
 11.4771
 11.3582
 11.606
 9.39665
 9.23812
 9.37786
 9.46327
 15.9037
 16.0019
 16.0116
 13.1925
 13.1991
 13.2876
 13.24
 13.3587
 13.2013
 10.5183
 10.5284
 10.5716
 10.4093
 11.7821
 11.8741
 11.8392
 11.9351
 14.5502
 14.3926
 14.5085
 15.3836
 13.4816
 13.6189
 13.5692
 13.4919
 13.1972
 13.1219
 13.1412
 12.0014
 12.0698
 12.0456
 11.9614
 11.6064
 11.743
 11.643
 11.7135
 13.5405
 13.6191
 11.7878
 11.7993
 11.7705
 11.6778
 12.6476
 12.6833
 12.6524
 12.5476
 10.2598
 10.1744
 12.289
 12.4011
 12.3022
 12.3523
 11.8432
 11.7819
 11.7612
 11.6925
 12.0578
 11.9825
 12.055
 12.0595
 13.1336
 13.0663
 13.4346
 13.3551
 13.4424
 13.511
 13.8228
 13.9235
 13.8776
 13.8502
 12.6133
 12.5311
 12.5312
 12.5957
 14.6529
 14.5759
 14.514
 14.4674
 14.2332
 14.2549
 14.2963
 14.2592
 16.1156
 16.0534
 16.0621
 16.1556
 13.8196
 13.9916
 12.6631
 12.8463
 12.7089
 12.7658
 13.5697
 13.5929
 13.545
 13.4671
 12.8604
 12.7833
 12.7322
 12.8217
 13.3868
 13.3671
 11.6121
 11.6614
 9.89766
 9.87178
 9.85215
 9.82937
 14.8693
 13.463
 13.4757
 13.4397
 13.3602
 13.0224
 13.1286
 13.0917
 13.0681
 14.0247
 14.092
 14.1177
 14.2094
 11.8774
 12.0317
 11.8964
 12.0321
 12.7664
 12.8431
 12.8809
 12.7728
 14.7042
 14.742
 14.6567
 14.7447
 14.7949
 13.6493
 13.5334
 13.6782
 13.629
 13.7516
 13.5997
 13.7202
 13.7411
 14.546
 14.5413
 14.6355
 14.5464
 14.2708
 14.2405
 14.102
 14.1667
 13.2495
 13.1454
 13.2989
 13.3074
 14.6583
 14.721
 14.7604
 14.7228
 12.7029
 12.6681
 12.8199
 14.1239
 14.1247
 14.1454
 14.1613
 15.6309
 15.5687
 12.7111
 12.63
 12.6042
 12.8882
 12.7561
 12.8091
 12.7463
 14.8383
 14.7621
 14.7246
 15.1578
 15.1076
 15.1067
 15.1428
 12.2882
 12.3163
 12.2171
 12.3213
 12.7812
 12.9346
 12.7739
 11.3725
 11.6044
 11.4976
 13.1374
 13.2254
 13.2041
 10.9891
 11.0156
 10.9645
 16.2122
 16.2782
 16.2789
 16.2184
 10.25
 10.1953
 10.2752
 10.1816
 13.8944
 13.9923
 12.5891
 12.6769
 14.5041
 14.4989
 14.5253
 14.4288
 12.3889
 12.4417
 12.3038
 11.554
 11.457
 11.4802
 11.4611
 10.9042
 11.0923
 14.8752
 14.8629
 14.9114
 12.7104
 12.7217
 12.8307
 14.2562
 14.3517
 14.2361
 14.7914
 14.7899
 14.8176
 14.8593
 13.4784
 13.4304
 13.5404
 13.3882
 13.6156
 13.7351
 13.7115
 13.6274
 11.9673
 12.0012
 12.0164
 11.8846
 11.6473
 11.7508
 11.6912
 11.8383
 13.6983
 13.6806
 13.6055
 12.3326
 12.3761
 12.4422
 11.9557
 11.8453
 11.9087
 11.8672
 9.07772
 9.16721
 9.04018
 13.1028
 13.1362
 13.1378
 11.9076
 11.8341
 11.9871
 13.2111
 13.1488
 13.2892
 13.9234
 14.0472
 14.0185
 14.8708
 14.8319
 14.8496
 14.8243
 13.1178
 13.3622
 13.245
 13.3245
 14.1299
 14.1629
 14.2383
 14.6001
 14.4886
 12.0871
 12.1644
 11.9882
 12.1031
 12.0675
 11.9611
 12.1248
 12.1967
 14.5128
 14.4025
 14.3483
 14.3191
 14.6397
 14.754
 14.6845
 14.7604
 15.3352
 15.3889
 15.3323
 15.4267
 10.3652
 10.305
 11.1252
 11.2982
 11.1994
 11.1054
 10.1302
 13.9889
 13.8662
 13.9859
 13.0144
 12.983
 13.069
 13.1127
 14.5956
 14.6015
 13.2739
 13.3055
 13.186
 14.9441
 14.905
 11.285
 11.2768
 11.1425
 11.3857
 10.8037
 10.847
 10.6163
 10.7574
 11.6022
 11.5822
 11.7063
 13.9025
 13.8219
 13.8276
 10.8451
 10.8671
 10.8174
 10.7878
 14.1879
 14.3164
 14.2194
 14.1704
 11.5
 11.5792
 11.6131
 11.5074
 14.111
 14.2246
 14.248
 14.0662
 14.6521
 14.6105
 14.6863
 10.1365
 9.91279
 10.0178
 10.0834
 14.849
 14.8034
 14.8258
 13.5177
 13.4826
 13.3509
 13.4351
 10.203
 10.066
 10.1375
 14.1092
 14.1905
 14.0705
 14.1386
 12.1917
 10.5112
 10.4292
 10.7087
 10.5529
 15.0188
 14.9913
 14.9392
 14.9985
 12.0514
 12.2333
 12.0926
 12.0477
 13.1673
 13.1293
 13.2749
 14.6298
 14.6963
 14.6175
 14.816
 12.2059
 12.2516
 12.1456
 14.2735
 14.319
 16.1364
 16.2252
 16.1412
 16.0829
 15.22
 15.4394
 15.4483
 10.7543
 10.8149
 10.5685
 10.7506
 10.7888
 10.7044
 15.1564
 15.1315
 15.2292
 15.0982
 13.6602
 13.6127
 13.6247
 13.5609
 13.3202
 13.4693
 13.4627
 13.4245
 12.699
 12.745
 12.6116
 12.7283
 12.6923
 12.8763
 12.7602
 12.8632
 10.3827
 14.727
 14.7734
 14.7201
 14.7539
 10.3264
 10.4287
 10.274
 12.6377
 12.7562
 12.8172
 12.7676
 14.8199
 14.7209
 14.6874
 12.836
 12.9333
 12.8605
 12.9373
 13.1703
 12.0079
 11.9721
 11.834
 11.8847
 14.1978
 14.2061
 14.1997
 13.174
 12.9903
 13.07
 10.2003
 10.2562
 10.4013
 10.2747
 13.1814
 13.2019
 13.2508
 16.5015
 16.4733
 16.5597
 13.1915
 13.2689
 13.1978
 13.3737
 11.9485
 11.83
 11.8692
 13.0683
 13.0364
 11.0524
 10.9773
 11.1241
 11.0959
 11.6332
 11.5182
 11.5752
 11.6022
 10.0584
 10.1064
 10.1952
 10.2908
 12.7833
 12.9976
 12.843
 12.808
 11.7661
 11.8003
 11.8421
 11.885
 11.0585
 10.9604
 10.8627
 14.3456
 14.2821
 14.4459
 14.3816
 13.2983
 13.1893
 13.8535
 13.9352
 13.8445
 13.8842
 12.0947
 12.1049
 12.119
 12.0324
 13.21
 13.108
 13.1342
 13.2501
 12.2231
 12.2913
 12.1457
 12.2824
 13.0982
 13.0722
 12.9611
 12.9601
 13.2619
 13.3512
 13.3502
 11.1154
 11.2097
 11.1486
 10.593
 10.589
 10.6294
 10.4284
 11.081
 11.0856
 10.9922
 11.8114
 11.6273
 11.7759
 15.9182
 15.9139
 15.9939
 13.325
 13.1857
 13.2942
 11.2528
 11.195
 11.2691
 11.2704
 13.3286
 13.2761
 13.3377
 12.6999
 12.6698
 12.6545
 12.7755
 12.1607
 12.407
 12.3258
 12.3299
 13.1757
 13.0827
 13.1163
 13.0354
 14.4644
 14.3978
 14.4516
 14.507
 13.2853
 12.7151
 12.7307
 12.6622
 12.878
 14.8563
 14.8196
 14.8057
 14.8116
 14.7969
 14.7129
 14.7681
 14.7148
 14.6296
 14.5575
 14.6046
 14.6494
 12.1844
 12.2163
 12.0576
 11.9928
 14.2862
 14.349
 14.3075
 14.2944
 9.75217
 9.89451
 9.78916
 9.8908
 15.3654
 15.3136
 15.2468
 15.2519
 14.274
 14.2624
 14.2891
 14.9938
 15.0716
 15.1246
 15.1056
 14.5945
 14.6662
 14.5289
 14.7816
 14.7639
 13.0026
 13.02
 12.9384
 12.7778
 10.659
 10.7733
 10.8096
 10.5823
 10.6101
 10.5189
 10.6531
 14.5839
 14.6588
 10.0223
 9.93489
 10.0616
 11.0707
 11.0966
 11.057
 10.98
 14.6125
 14.6653
 14.5971
 10.1736
 10.111
 10.2275
 10.0749
 13.7967
 13.7733
 13.6948
 13.8661
 14.5628
 14.6919
 14.6302
 14.5382
 15.0685
 14.9121
 14.9764
 15.0069
 15.7031
 15.6646
 15.7531
 15.753
 12.4285
 12.2209
 12.3368
 12.2395
 13.7178
 13.7155
 13.7584
 13.9031
 10.1046
 10.2859
 10.1176
 16.555
 16.4587
 16.5242
 16.4111
 15.2504
 15.1546
 15.2082
 15.1266
 10.2547
 10.0484
 10.1605
 10.1692
 13.1748
 13.1567
 13.0656
 10.9703
 10.7957
 10.7678
 14.4207
 14.4271
 14.5595
 10.0516
 10.2102
 10.212
 10.1137
 10.9591
 11.0095
 11.0406
 11.1502
 14.1488
 14.0915
 13.9983
 14.0876
 13.7391
 13.8542
 13.743
 13.8752
 11.5269
 11.5215
 11.4796
 11.3499
 12.9066
 12.9738
 13.0492
 12.9985
 15.4337
 15.3372
 15.3414
 15.3377
 10.9123
 11.1795
 11.007
 11.0716
 9.9052
 12.9346
 12.9037
 12.8283
 12.8307
 10.5879
 10.5104
 10.5323
 10.3944
 14.841
 14.8405
 14.8236
 14.8222
 10.1244
 10.0135
 10.1666
 10.2223
 13.2447
 13.2708
 13.6922
 13.752
 13.676
 13.6356
 11.5464
 11.6735
 11.6873
 11.6843
 12.6831
 12.5475
 12.566
 13.7434
 13.7628
 13.7184
 11.5705
 11.576
 11.7226
 11.7302
 11.7061
 11.7732
 11.6442
 11.7409
 14.4927
 14.5926
 14.6003
 13.1762
 12.935
 12.9382
 13.0718
 15.4749
 15.3879
 15.2923
 15.4253
 15.5059
 10.0119
 10.2473
 9.99886
 10.2116
 12.9913
 13.0587
 13.1086
 12.9988
 10.6877
 10.596
 13.4189
 13.5854
 13.5808
 14.2308
 14.3324
 14.1628
 14.1923
 10.2138
 10.2596
 10.1622
 10.1584
 14.7145
 14.6773
 14.6935
 14.2122
 14.257
 14.1753
 14.2481
 13.7957
 13.6811
 13.7652
 13.9008
 12.0174
 11.7819
 11.9108
 11.8569
 14.3631
 14.2195
 14.3016
 14.3128
 11.5986
 12.4916
 12.3526
 12.314
 12.5126
 10.6308
 10.583
 10.7198
 10.2805
 10.3375
 10.3495
 10.4506
 12.4213
 12.3649
 12.5188
 12.4477
 9.64364
 9.6486
 9.6457
 9.80001
 13.8478
 12.5643
 12.7263
 12.7362
 12.6117
 12.963
 13.1374
 13.0653
 13.0145
 15.6902
 15.5924
 15.5671
 15.6671
 13.2363
 13.2069
 13.1663
 13.3015
 13.5515
 13.526
 13.4889
 13.4436
 13.4445
 13.4238
 13.3422
 10.8535
 10.9881
 11.0426
 13.5207
 13.637
 13.6217
 13.5405
 10.8521
 10.6573
 10.7636
 13.0861
 13.1598
 12.9503
 12.8771
 12.9128
 12.8178
 12.8517
 12.8158
 13.0503
 13.0223
 12.8731
 12.9248
 10.7647
 10.6868
 10.6943
 13.8052
 10.4837
 12.6705
 12.5871
 12.6774
 12.7933
 14.527
 14.5029
 14.6228
 14.3272
 14.2234
 14.1818
 12.9322
 12.8934
 13.0051
 13.1523
 13.158
 13.0993
 13.0409
 13.0597
 13.148
 12.9836
 13.1283
 16.6023
 16.5857
 16.671
 11.5306
 11.6818
 11.5344
 13.2674
 13.2264
 11.1042
 11.2944
 11.2443
 11.2921
 12.5025
 12.4031
 12.4976
 15.5993
 15.6038
 15.7029
 15.6627
 13.4785
 13.6193
 13.519
 13.5526
 14.459
 14.5113
 14.5664
 14.5997
 12.077
 12.2466
 12.1621
 12.0927
 13.9746
 14.0533
 13.9921
 14.115
 15.4207
 15.4377
 15.4475
 13.7661
 13.8083
 13.8684
 13.8418
 12.0326
 11.8936
 11.9389
 11.9397
 13.1225
 13.0034
 12.983
 13.0536
 14.3287
 14.3837
 14.3233
 13.6615
 13.7476
 13.7057
 13.7276
 14.3541
 14.4656
 14.334
 14.4366
 14.7948
 14.6646
 14.6695
 14.8162
 10.3407
 10.2544
 10.299
 10.2549
 14.6491
 14.5649
 14.5959
 14.5631
 14.3739
 14.4476
 14.3355
 14.3492
 12.3635
 12.198
 12.2646
 12.173
 13.7623
 13.801
 13.6928
 13.7313
 9.2726
 9.20264
 9.21782
 9.19695
 13.4898
 13.5426
 13.4384
 14.8036
 14.8791
 14.8467
 14.7575
 14.6944
 14.7444
 14.7101
 14.7466
 14.5226
 14.6794
 11.976
 12.0868
 11.9872
 12.1541
 9.60472
 9.71027
 9.64864
 9.66685
 13.6075
 13.7159
 13.655
 13.7199
 14.5389
 14.6072
 14.6182
 12.1597
 12.2863
 12.3074
 12.1855
 13.3526
 13.3813
 13.3034
 13.2347
 14.2472
 14.2459
 14.2578
 14.1638
 14.8542
 14.6977
 14.7929
 11.3704
 11.2442
 11.1896
 11.3367
 11.2165
 11.2074
 11.3378
 13.5727
 13.5633
 13.4899
 13.4471
 13.5019
 13.5649
 13.4317
 14.2528
 14.1535
 14.1106
 14.1252
 12.195
 12.2222
 12.3148
 14.549
 14.5455
 14.6596
 12.9677
 12.8371
 12.8923
 11.1588
 11.3194
 11.2388
 11.9774
 12.0107
 13.8254
 13.7492
 13.8316
 13.7407
 13.6992
 13.7475
 13.2862
 13.4238
 14.1386
 14.9664
 14.9464
 15.0335
 10.7926
 10.8106
 11.003
 13.5786
 13.4935
 13.5274
 13.6014
 14.1991
 13.0813
 12.9933
 12.1333
 12.1045
 12.1568
 12.0472
 13.1146
 13.2149
 13.0941
 13.5076
 13.4487
 13.6181
 13.485
 13.7705
 13.574
 13.493
 13.5781
 13.6221
 13.4344
 10.8601
 10.9829
 11.0161
 10.9284
 10.7883
 10.687
 10.504
 10.5697
 14.5873
 14.4957
 13.0614
 13.102
 13.134
 13.219
 12.7354
 12.7029
 12.6645
 12.6128
 12.2437
 12.1364
 12.2556
 12.275
 13.3215
 13.3835
 13.428
 13.3015
 13.4888
 13.4154
 13.4686
 13.5282
 11.148
 11.3377
 11.1785
 11.2258
 14.3808
 14.2563
 14.2429
 14.1631
 14.4204
 14.2967
 14.3641
 11.4408
 11.3226
 11.1824
 11.1399
 14.2976
 14.2179
 14.2452
 14.1665
 10.6493
 10.7099
 10.6109
 10.6762
 11.1672
 11.243
 11.2028
 11.2633
 13.6845
 13.6277
 13.7287
 13.6753
 11.9203
 11.879
 11.9606
 12.0787
 14.2037
 14.1425
 14.0603
 14.0304
 11.6288
 11.6977
 11.6658
 14.6247
 14.5595
 14.6408
 14.588
 12.5577
 12.5935
 12.5264
 12.4779
 13.7661
 13.7332
 11.7192
 11.5373
 11.6198
 11.6787
 11.587
 11.6108
 11.6902
 13.427
 13.275
 13.4147
 11.3936
 11.4072
 11.3572
 11.2413
 15.4074
 15.365
 15.2991
 15.3357
 14.1972
 14.1616
 14.063
 14.0468
 12.4405
 12.5986
 12.5779
 12.426
 10.6978
 10.6766
 10.7684
 10.6799
 11.0741
 10.9533
 10.9263
 11.0518
 10.5113
 10.5107
 10.4833
 10.7916
 10.748
 13.9271
 13.8544
 13.9345
 13.8302
 14.4511
 14.4111
 14.5699
 14.4756
 14.0695
 14.0657
 13.8322
 13.7154
 13.8036
 13.798
 13.5231
 13.5086
 13.3828
 13.5071
 14.4889
 14.4858
 14.5673
 12.8691
 12.9438
 12.9228
 12.9708
 9.267
 9.31339
 9.43748
 13.8973
 13.9162
 13.8808
 13.7824
 11.1276
 11.2936
 11.1888
 11.1454
 12.0167
 11.8654
 11.9123
 13.0346
 13.1017
 12.9792
 11.9964
 11.8564
 12.0045
 11.1463
 11.2679
 12.1068
 12.0873
 12.0856
 14.1689
 14.1264
 14.0975
 14.2215
 10.588
 10.4988
 10.5946
 10.6379
 12.5234
 12.3747
 12.4667
 15.799
 15.8991
 15.9303
 15.8077
 14.6569
 14.711
 12.7126
 13.8035
 13.6619
 13.7553
 13.8023
 12.9911
 12.8701
 12.8769
 11.7625
 11.7275
 11.8293
 11.7591
 10.5826
 10.5024
 13.1943
 13.245
 13.2388
 13.3122
 14.769
 14.8428
 14.8525
 14.7304
 11.0451
 10.9604
 10.9854
 11.042
 12.3939
 12.3424
 12.4152
 16.4004
 16.4382
 16.5173
 16.5188
 14.5845
 14.604
 14.6994
 13.9952
 13.912
 14.055
 13.9658
 12.5447
 12.5333
 12.6103
 12.4527
 13.0977
 13.0032
 14.8932
 14.8601
 14.8704
 14.8666
 12.3111
 12.18
 14.0486
 14.1733
 14.0974
 14.0657
 13.5909
 13.5429
 13.6767
 13.5855
 13.0924
 12.9773
 12.9218
 13.0173
 14.0157
 14.0694
 14.1883
 12.0157
 12.191
 12.0157
 12.1473
 11.3558
 11.2483
 11.1413
 11.341
 11.5093
 11.5235
 11.5142
 11.3825
 14.8089
 14.9146
 14.8351
 14.9129
 13.1239
 13.1975
 16.0122
 16.1152
 16.0662
 16.163
 13.6481
 13.7565
 13.8037
 10.0632
 16.8039
 16.7798
 16.7826
 16.9124
 13.1803
 13.1139
 13.1805
 13.1666
 13.8972
 13.7904
 13.8448
 11.4165
 11.3105
 11.2872
 11.43
 11.4093
 11.4566
 11.3194
 11.329
 11.48
 11.4236
 11.5324
 11.5807
 14.1382
 14.0461
 14.1983
 14.0471
 14.5217
 14.5607
 14.6104
 14.6034
 12.3207
 12.3284
 12.1801
 12.3365
 13.5393
 13.6974
 13.5011
 13.6048
 9.50031
 10.5881
 10.5275
 12.5665
 12.5776
 13.448
 13.5402
 13.5162
 10.5012
 10.2926
 10.4287
 10.4636
 13.2503
 13.3021
 12.6859
 12.7834
 15.5955
 15.5064
 15.6142
 15.5192
 14.1557
 14.1955
 14.2747
 14.2173
 12.3429
 12.1933
 12.323
 12.2288
 15.3917
 15.4967
 15.4176
 15.3746
 9.71952
 9.78439
 9.64108
 9.77324
 10.6834
 10.8506
 10.4143
 10.5072
 10.6164
 10.4094
 11.386
 11.2801
 13.7291
 13.669
 13.7426
 16.6135
 16.5283
 16.64
 16.6336
 15.2804
 15.2149
 15.1985
 15.2835
 10.6285
 10.5175
 10.6277
 10.701
 11.8393
 11.6565
 11.7537
 12.8732
 12.9822
 13.0625
 12.9285
 14.0249
 13.8966
 13.998
 14.0402
 10.9648
 10.8404
 10.94
 10.5992
 12.9625
 12.8213
 14.0454
 14.0068
 12.1274
 11.9972
 12.1714
 12.1233
 14.4591
 14.587
 14.4214
 14.6012
 14.6623
 14.7718
 14.7305
 16.5032
 16.356
 16.3735
 16.4257
 13.9623
 13.9012
 13.9118
 13.8166
 11.0632
 11.0406
 11.2995
 11.1782
 11.2507
 11.1782
 14.2049
 14.2093
 14.1059
 14.2821
 11.6455
 11.7207
 11.6019
 12.0845
 12.0884
 12.0445
 12.1485
 11.2125
 11.0873
 11.228
 11.0781
 14.0612
 13.9592
 13.9939
 14.0398
 10.2811
 10.5054
 13.486
 15.845
 15.8108
 15.7457
 15.714
 11.6282
 11.6674
 11.5594
 15.326
 15.389
 15.3326
 15.4237
 12.0056
 12.0184
 12.0136
 11.899
 14.7621
 14.7665
 14.8788
 14.7292
 14.428
 14.4415
 14.3449
 14.3231
 12.2322
 12.137
 12.1222
 13.812
 13.758
 13.8417
 13.903
 12.4999
 12.5182
 12.4402
 12.6206
 12.6434
 12.7506
 11.2129
 11.1687
 11.1865
 12.0323
 12.0124
 12.0946
 15.9481
 15.9356
 15.8485
 15.9192
 14.5811
 14.4784
 14.6279
 14.4448
 10.9014
 11.0802
 11.0861
 11.0964
 11.4489
 11.4952
 14.2885
 14.0908
 14.2759
 12.0622
 12.2151
 12.1937
 12.2664
 12.1443
 12.1832
 12.2329
 14.1429
 14.1975
 14.1311
 14.1059
 10.3659
 10.3687
 13.7304
 13.7735
 13.7268
 13.6699
 14.2386
 14.2314
 14.1947
 12.0013
 11.9638
 13.15
 13.197
 13.1877
 13.0696
 14.777
 14.8194
 12.3437
 12.4051
 13.7258
 13.8719
 13.8446
 13.7637
 12.858
 12.8615
 12.944
 12.786
 12.8733
 12.9464
 12.8812
 15.0113
 14.9923
 15.0418
 14.864
 15.3166
 15.3166
 15.2452
 15.2815
 11.9493
 12.0345
 12.1343
 12.0585
 10.8047
 10.7913
 10.8819
 10.8816
 12.647
 12.5819
 12.6874
 13.078
 13.1474
 13.1982
 13.1323
 13.0649
 11.5327
 11.5014
 13.9637
 13.8575
 13.9555
 13.9862
 14.3885
 10.8068
 10.8364
 10.9344
 10.8835
 13.0405
 13.2242
 13.1734
 13.0734
 16.3649
 16.3071
 13.4073
 13.5447
 13.4081
 15.9535
 15.9276
 15.9773
 15.8841
 12.4448
 12.5346
 12.459
 12.5085
 14.7849
 14.6684
 14.6442
 14.1627
 14.0709
 10.1911
 10.2097
 10.2107
 10.4777
 10.4702
 10.5448
 14.5677
 14.4204
 14.1872
 14.1925
 16.152
 16.2118
 16.2232
 16.2405
 10.8105
 10.9917
 10.7763
 14.4447
 14.4282
 14.3666
 14.5079
 14.2531
 14.2961
 14.1777
 14.2966
 12.0017
 11.9508
 11.8996
 11.9679
 12.477
 12.2263
 12.3505
 12.0421
 12.0234
 12.1594
 12.0303
 11.56
 11.6978
 11.4475
 11.7558
 14.8438
 14.835
 14.5489
 14.5437
 14.492
 12.5698
 12.6279
 12.7401
 12.6913
 14.3532
 14.3627
 14.2428
 14.2833
 11.854
 11.9292
 11.9043
 11.8343
 14.8014
 14.6769
 10.8901
 10.978
 10.9326
 11.0429
 11.8482
 12.0469
 11.9593
 11.8152
 14.0011
 13.9896
 14.0253
 13.9303
 11.157
 11.0089
 13.4643
 13.4367
 13.3964
 13.3728
 15.3945
 15.3736
 15.3881
 15.3695
 14.7947
 14.7358
 14.7985
 14.7128
 10.1197
 10.0658
 10.0157
 10.0364
 10.6786
 10.7355
 10.7852
 14.0536
 14.0732
 14.0878
 10.2003
 10.1168
 13.3875
 13.3358
 13.4116
 13.2594
 11.0526
 11.1397
 11.0289
 11.1413
 14.302
 14.3572
 14.2853
 14.369
 15.0294
 14.9299
 14.9826
 11.3172
 11.167
 11.1776
 11.2118
 13.6537
 13.5083
 13.5327
 13.5723
 14.4921
 14.4541
 14.384
 14.564
 14.8346
 14.9912
 14.8002
 12.5852
 12.7094
 12.5213
 12.974
 12.9479
 13.0416
 12.9064
 12.6353
 12.6498
 12.5285
 12.6729
 13.7595
 13.6507
 13.7548
 13.6604
 14.202
 14.1771
 14.1174
 14.2514
 14.5935
 14.6874
 12.1748
 12.0082
 12.182
 12.1809
 12.8645
 13.0206
 12.8973
 12.9671
 12.8091
 12.9722
 12.9952
 13.0536
 12.8518
 12.9272
 15.8854
 15.8471
 15.7754
 15.8294
 10.6486
 10.5098
 10.6455
 13.6001
 13.6104
 13.63
 13.713
 13.2489
 13.3407
 13.2518
 14.7026
 14.6316
 14.7467
 14.7125
 14.4279
 14.5249
 14.4555
 14.4824
 13.657
 13.6259
 13.5376
 14.2911
 14.3487
 11.8352
 11.9087
 11.7426
 9.96426
 9.93645
 10.0552
 9.98525
 14.4301
 14.5398
 14.5347
 14.4054
 13.2539
 13.1561
 13.1226
 13.2367
 11.5278
 11.4937
 11.6136
 11.6125
 14.3445
 14.3021
 14.383
 14.2305
 14.0731
 14.01
 13.9744
 13.8847
 11.2975
 11.4088
 11.5534
 11.5241
 14.1051
 13.9862
 10.8532
 10.9005
 10.7829
 12.6362
 12.7385
 15.1176
 15.166
 15.188
 15.2133
 13.6245
 13.5754
 13.542
 13.5672
 15.1811
 15.2272
 15.177
 13.2952
 13.3159
 12.4104
 12.3322
 12.206
 12.4009
 13.6302
 13.6222
 12.1773
 12.0599
 13.7175
 13.7851
 13.7265
 13.6891
 12.1639
 12.2587
 12.1199
 12.0932
 11.6546
 11.5204
 11.3987
 11.4888
 10.2741
 10.2554
 10.3171
 10.3088
 13.1773
 13.1166
 14.3908
 14.3931
 14.5644
 14.6126
 11.5896
 11.7264
 14.6675
 14.5631
 14.6338
 15.6791
 15.6616
 15.5157
 15.5783
 15.845
 15.7664
 15.8123
 12.9474
 12.8087
 12.8245
 12.8437
 13.6983
 13.6009
 13.6799
 14.4671
 14.0271
 13.9427
 14.075
 13.9624
 14.495
 14.4185
 14.5695
 14.47
 13.7953
 13.8805
 13.7765
 13.8742
 12.0068
 12.2291
 12.2213
 12.04
 10.2613
 10.3154
 10.3167
 10.196
 13.4448
 13.4797
 13.3237
 13.3701
 11.3073
 11.3732
 11.1535
 11.1944
 14.0373
 11.9676
 12.142
 12.0594
 12.0866
 15.0624
 15.1216
 15.0682
 15.0628
 11.9403
 11.8167
 11.8078
 13.8872
 10.7763
 10.7656
 10.8385
 10.6182
 10.4752
 10.4701
 10.4614
 10.4189
 10.5743
 10.461
 10.4265
 13.0458
 13.066
 13.0346
 13.1783
 10.5336
 10.5235
 10.4674
 10.472
 14.4873
 14.5596
 14.5792
 14.6033
 12.2647
 12.3152
 12.3006
 12.4263
 13.4782
 13.3457
 13.369
 13.466
 15.4876
 15.416
 15.4739
 12.4241
 13.2631
 13.2943
 13.3465
 13.2077
 10.5303
 10.421
 10.4234
 10.3841
 10.5516
 10.4667
 10.3523
 10.3952
 12.3391
 12.3761
 12.2994
 12.3958
 14.0194
 14.0893
 14.1267
 14.085
 13.5966
 13.4769
 13.5548
 10.73
 10.6546
 10.7469
 10.8697
 10.4676
 10.3931
 10.4064
 10.5067
 14.5143
 14.5726
 14.5712
 11.3702
 11.2626
 10.4863
 10.5215
 10.4982
 14.4508
 14.5228
 14.4014
 14.3931
 11.7899
 11.6009
 11.82
 11.8497
 13.6269
 12.6274
 12.599
 12.5233
 12.6206
 12.3335
 12.4323
 12.3089
 12.5051
 10.5452
 10.474
 11.1095
 10.9497
 11.0577
 10.93
 11.16
 10.976
 11.0565
 10.9158
 11.2697
 11.4142
 11.2246
 11.3827
 11.8074
 11.7057
 11.7934
 11.729
 15.3343
 15.2184
 10.6168
 10.5627
 10.4763
 14.8666
 14.8864
 14.8615
 14.2089
 14.3465
 14.3763
 14.2484
 11.7166
 11.7916
 11.6936
 11.5815
 13.3959
 13.5075
 13.4584
 13.447
 9.88475
 9.99769
 9.88639
 9.78395
 12.6909
 12.7195
 12.6351
 12.6682
 11.2415
 11.1419
 11.2643
 12.1618
 12.1635
 12.7204
 12.9039
 12.7616
 12.7639
 12.9297
 13.0899
 12.9634
 13.051
 14.6253
 14.5804
 14.5646
 12.2662
 12.1631
 12.2119
 12.1118
 13.738
 13.6917
 13.6071
 10.874
 10.9057
 10.7339
 10.9405
 10.4223
 12.5284
 12.7018
 12.7165
 12.6071
 12.1992
 12.1124
 12.0974
 12.1431
 12.3284
 12.394
 12.4422
 16.5976
 16.6596
 16.5717
 16.5743
 14.2545
 14.1625
 14.7534
 14.8408
 13.2947
 13.4757
 13.4253
 13.3491
 17.0749
 17.0413
 10.0021
 9.95963
 9.91252
 9.80832
 11.7631
 11.5307
 14.6242
 14.64
 14.5776
 14.5815
 13.2712
 13.258
 13.1692
 13.2079
 11.151
 11.0238
 11.076
 11.2197
 14.1212
 14.1619
 14.0716
 14.1105
 13.4011
 13.4929
 13.3624
 13.4201
 11.0491
 10.9849
 10.9778
 10.8516
 13.4175
 13.3782
 13.3764
 13.5216
 10.3081
 10.421
 10.3888
 10.4344
 12.3009
 12.2007
 12.2344
 14.2479
 14.2485
 14.396
 14.2692
 12.4879
 12.5927
 12.5193
 12.6052
 12.8448
 12.9361
 13.835
 13.6689
 13.6421
 12.2222
 12.2483
 12.1078
 12.0823
 10.1884
 10.2015
 10.0847
 10.0885
 10.7942
 10.6924
 10.6057
 10.8136
 14.3703
 14.3895
 14.4804
 14.4485
 14.8467
 14.8567
 14.8789
 14.8664
 14.5936
 14.7283
 14.6329
 14.684
 14.9706
 14.9574
 14.9981
 13.0112
 13.0336
 13.0096
 13.176
 11.3865
 11.321
 11.8054
 11.6428
 11.7427
 11.7543
 11.5263
 11.4429
 11.5908
 14.2618
 14.3474
 14.3152
 14.3791
 13.0495
 13.0277
 12.9516
 12.9708
 9.86433
 9.84875
 9.81037
 9.74276
 12.7811
 12.847
 12.8979
 12.7707
 12.6
 12.7378
 12.5857
 12.7092
 10.7102
 10.6339
 10.7523
 10.7453
 14.6915
 14.844
 14.7837
 14.7306
 11.836
 11.8415
 14.7505
 14.8252
 11.2636
 11.3982
 11.2818
 11.173
 12.8198
 12.8403
 12.7816
 12.9361
 15.1614
 15.0655
 15.1333
 14.7735
 14.8064
 14.8602
 14.8545
 13.9449
 14.0692
 12.8152
 12.8693
 12.7837
 12.8635
 12.1209
 12.1378
 12.0405
 13.6084
 13.7046
 13.6906
 13.59
 13.718
 13.5527
 13.7235
 13.6151
 11.5654
 11.683
 11.6359
 11.6325
 15.0132
 15.0196
 14.9719
 10.088
 10.059
 10.2405
 10.214
 12.3933
 12.432
 12.4123
 14.4233
 14.3854
 14.3472
 10.4474
 10.4521
 10.5754
 10.3879
 11.2652
 13.9826
 14.1071
 14.0902
 14.0472
 10.5991
 10.8354
 10.7359
 10.6338
 12.4051
 12.2544
 12.3046
 10.1443
 10.1184
 10.1175
 10.1337
 10.6142
 10.7153
 10.7127
 10.5851
 10.5332
 15.154
 15.0856
 13.2688
 13.3096
 13.1597
 13.2519
 15.2666
 15.3285
 15.3231
 15.2917
 13.8726
 12.3509
 12.3078
 12.493
 11.8305
 11.7311
 11.6288
 11.8305
 13.8541
 13.8367
 13.9204
 13.9567
 14.1889
 14.2138
 12.5205
 12.45
 12.4578
 14.0851
 14.1501
 14.0754
 14.0104
 14.2187
 14.214
 14.1594
 14.132
 10.4831
 10.4308
 13.8168
 13.7309
 13.8112
 13.8247
 14.9981
 14.8359
 15.0019
 14.8761
 14.2541
 14.2333
 14.0188
 14.1999
 14.9503
 15.0153
 14.946
 11.4051
 11.5281
 11.3895
 11.8788
 11.8641
 10.6253
 10.5925
 10.6952
 14.5926
 14.7061
 14.6697
 14.6969
 14.4602
 14.4044
 14.3622
 16.7389
 16.6349
 16.7324
 16.7896
 11.4839
 11.6601
 11.4783
 11.3962
 14.0707
 14.0185
 14.0837
 13.9154
 12.4022
 12.4977
 12.4538
 12.3853
 11.6086
 11.6451
 11.7794
 11.7086
 14.4305
 14.4244
 14.3834
 14.3378
 13.3015
 13.2002
 13.3115
 11.9725
 11.9492
 11.8653
 12.3598
 12.3634
 12.4142
 12.2757
 13.3933
 13.5171
 13.5242
 13.5097
 12.3046
 12.2446
 12.1957
 14.9952
 14.8112
 14.965
 14.944
 13.1416
 13.1302
 13.1109
 13.2295
 14.5121
 14.6103
 14.6093
 14.5647
 14.6667
 14.816
 14.6411
 14.6757
 9.70976
 9.54088
 9.7756
 14.5222
 14.6012
 14.5292
 9.78525
 11.3608
 11.3432
 11.5193
 11.4497
 14.7702
 11.8704
 14.0169
 14.03
 14.1042
 14.0825
 14.9943
 15.0578
 15.1069
 15.0511
 12.1315
 13.3548
 10.0856
 10.1208
 10.1144
 10.1421
 16.64
 16.5657
 16.5952
 14.0333
 14.1213
 14.1427
 14.897
 14.9794
 9.52011
 9.44511
 9.62965
 9.56474
 13.5954
 13.7676
 13.6576
 13.626
 11.1894
 11.0461
 11.0355
 12.3076
 12.414
 12.0481
 12.1027
 11.9007
 12.0271
 10.4894
 10.5838
 10.6219
 10.5298
 13.3573
 13.3662
 13.1987
 13.2558
 10.7496
 10.6732
 10.8126
 10.7438
 13.0923
 13.0246
 12.9021
 13.0639
 11.5445
 11.5311
 11.4703
 11.6164
 11.3828
 11.5259
 11.3951
 11.1338
 14.31
 14.4625
 14.2751
 14.214
 12.9923
 10.3259
 10.1195
 10.2103
 10.1793
 12.6453
 12.6173
 12.768
 12.573
 12.4444
 12.4338
 14.6128
 14.6725
 14.7096
 14.586
 13.8731
 13.9773
 13.8703
 13.0478
 13.0739
 13.1236
 13.1958
 9.8838
 10.0277
 10.0458
 10.0071
 14.1524
 14.155
 14.2359
 14.26
 11.8762
 12.0584
 12.0463
 11.9708
 13.1487
 13.122
 13.2196
 14.6723
 14.5789
 14.6211
 14.5984
 15.6251
 15.6115
 15.7262
 15.5725
 13.8871
 13.9836
 14.0198
 11.0577
 11.056
 10.9757
 12.6774
 11.6257
 11.783
 11.7077
 11.7097
 14.1061
 14.1381
 14.1213
 14.1232
 10.8065
 10.5982
 10.7033
 10.7514
 12.7858
 12.9592
 12.1637
 12.2432
 12.2087
 12.1406
 12.0298
 12.071
 12.2782
 15.7694
 15.7189
 15.8544
 15.7591
 9.39265
 9.16973
 9.23597
 9.37476
 13.84
 13.7382
 13.7852
 14.3688
 14.3019
 14.4507
 14.2693
 12.0387
 12.184
 12.119
 16.3394
 16.426
 16.4742
 16.3953
 11.6551
 11.6539
 11.4412
 11.4021
 11.5265
 11.4985
 14.8329
 14.8966
 14.8624
 14.9285
 14.5754
 14.5735
 14.5347
 14.616
 15.3999
 15.3096
 15.2629
 15.3975
 13.3717
 15.4879
 15.4194
 15.4359
 15.3914
 11.5416
 11.6835
 11.7082
 11.7642
 14.5618
 14.455
 11.862
 11.7796
 11.784
 11.9375
 11.0392
 10.9587
 11.0381
 10.9742
 9.90935
 9.81859
 9.8332
 9.66902
 16.6244
 16.6587
 16.5467
 12.4013
 12.2711
 12.3133
 12.3378
 11.3249
 11.2914
 11.4218
 11.3493
 15.794
 15.7164
 15.6875
 15.7995
 12.4514
 11.546
 11.4897
 11.4501
 11.5882
 10.5761
 10.5015
 10.5773
 13.3783
 13.3355
 13.3499
 13.2683
 10.0785
 9.88593
 9.81212
 9.90521
 12.6228
 12.5654
 12.6312
 12.6477
 12.4905
 14.2108
 14.3474
 14.1834
 12.7515
 12.8878
 12.8334
 12.6988
 12.8852
 12.8446
 12.8037
 12.9531
 13.831
 13.971
 13.9315
 14.9345
 15.568
 15.4766
 15.6588
 12.1862
 12.0795
 12.1305
 11.6456
 11.6063
 11.6792
 14.3181
 14.2028
 14.2676
 14.1057
 11.8769
 11.9573
 10.7533
 10.8125
 10.8699
 10.8087
 10.3627
 10.4009
 10.4066
 10.8981
 10.8004
 12.2853
 12.1878
 12.2724
 11.0869
 11.2499
 11.1431
 14.5435
 16.3986
 16.4434
 16.3638
 16.3822
 12.4896
 12.4558
 12.5632
 12.5325
 16.1414
 16.1156
 16.0224
 16.1557
 11.7583
 11.7608
 11.6748
 12.9956
 13.051
 13.1401
 13.1641
 14.1355
 14.0604
 14.2436
 14.1793
 12.5692
 12.5361
 12.4226
 11.6618
 11.5787
 13.2425
 13.1124
 13.2135
 13.1775
 13.7962
 13.7174
 13.7707
 14.5406
 14.5363
 14.53
 12.3536
 12.3328
 12.2349
 12.3997
 11.5034
 11.3724
 11.4723
 11.3946
 9.38064
 9.47193
 9.33402
 9.45967
 12.8489
 12.8582
 9.3191
 9.41731
 9.47528
 12.0945
 14.8313
 14.7461
 14.6664
 14.7087
 14.1378
 14.0584
 14.1283
 14.0824
 12.1774
 12.2656
 12.2121
 10.7742
 10.6645
 14.917
 14.8836
 14.9761
 14.8579
 11.641
 11.698
 14.848
 14.895
 12.6213
 12.6341
 12.6926
 15.0873
 15.1629
 15.0451
 14.0851
 14.1026
 14.1515
 14.1347
 10.7305
 10.7261
 10.6563
 10.7377
 13.6011
 13.589
 13.5781
 13.321
 13.475
 13.3875
 13.3773
 10.4741
 10.63
 10.6288
 10.6507
 15.6467
 15.6107
 15.6815
 13.0228
 13.1489
 13.088
 11.429
 11.3553
 11.9469
 11.9802
 12.1071
 12.0877
 15.8515
 15.7782
 15.7994
 15.8336
 14.2659
 14.2632
 14.2464
 14.1682
 11.2154
 11.1658
 11.1125
 11.0906
 11.1249
 11.1687
 11.1761
 11.2457
 13.4449
 13.5739
 13.4601
 13.4902
 9.78274
 9.58608
 9.62725
 9.76276
 14.5046
 14.4158
 14.5389
 15.8777
 15.9585
 15.9319
 12.6162
 12.5638
 11.9471
 11.918
 12.0175
 11.9521
 10.8266
 10.8934
 10.6975
 10.6932
 13.7354
 12.8558
 13.4777
 13.3797
 13.3285
 13.2599
 16.755
 16.8703
 16.8531
 16.7418
 11.5137
 11.5632
 14.268
 14.2179
 14.1471
 13.8925
 13.94
 13.822
 13.7861
 14.8214
 14.8944
 13.7242
 13.7396
 13.8125
 13.6755
 14.6199
 14.6997
 14.1245
