 3.19933
 2.90811
 2.97259
 2.78533
 -2.86424
 -2.93311
 -3.11801
 -3.22157
 -1.15248
 -0.926698
 -1.20438
 -0.937263
 -1.4132
 -1.19254
 -1.11913
 -1.01229
 -5.53341
 -5.79096
 -5.37293
 -5.27383
 -5.25649
 -5.00191
 -5.44608
 -5.09658
 4.26415
 4.45852
 4.39637
 4.27047
 4.16435
 4.08816
 4.08679
 4.21569
 -5.3466
 -5.22991
 -4.9446
 -5.22836
 -5.13169
 -5.17703
 -5.07621
 -5.50945
 4.94383
 5.0596
 4.88016
 4.84534
 -1.16211
 -1.1927
 -0.961377
 -1.1109
 2.15116
 2.17879
 2.35033
 1.98997
 -3.11247
 -2.73251
 -2.60598
 -2.85105
 -0.0770651
 -0.011995
 -0.160715
 -0.340126
 3.62342
 3.77664
 3.5128
 3.76501
 -4.34413
 -4.53129
 -4.33697
 -4.639
 -1.81205
 -1.65225
 -1.88019
 -1.70679
 -0.170802
 -0.240814
 -0.278107
 -0.429937
 -4.18975
 -4.18165
 -4.32086
 -4.52096
 4.09851
 4.33412
 4.08447
 4.25158
 -6.22986
 -6.2678
 -6.53721
 -6.54826
 6.70183
 6.81152
 6.82375
 6.66354
 -2.41653
 -2.52305
 -2.25586
 -2.22624
 0.216041
 0.37283
 0.17886
 0.0937064
 -0.504209
 -0.558584
 -0.425912
 -0.352896
 1.23423
 0.983748
 0.868183
 1.20747
 3.69567
 3.85422
 3.67146
 3.69009
 2.28044
 2.33912
 2.53528
 2.41033
 -2.82612
 -2.79025
 -2.65911
 -2.48815
 0.0978321
 -0.27421
 0.171423
 0.0402465
 2.1277
 1.94685
 1.95606
 2.12168
 -1.86474
 -1.58823
 -1.90023
 -1.64681
 -2.9187
 -2.79169
 -2.78154
 -2.82592
 2.12685
 2.34603
 2.09826
 2.45349
 3.37902
 3.40256
 3.42604
 3.4135
 -1.72042
 -1.37064
 -1.66545
 -1.58652
 4.66508
 4.57458
 4.54216
 4.50071
 -2.215
 -2.23942
 -2.68626
 -2.569
 -6.95203
 -6.67454
 -6.85116
 -6.61556
 -0.805691
 -0.743841
 -0.862746
 -0.532583
 -2.61205
 -2.83653
 -2.73629
 -2.63374
 4.41493
 4.4237
 4.26418
 4.55051
 -1.76469
 -1.56428
 -1.65088
 -1.90236
 -5.26384
 -5.17603
 -5.44279
 -5.29281
 2.71401
 2.53998
 2.61649
 2.69517
 -1.78949
 -2.15943
 -2.06276
 -2.10311
 3.3979
 3.21731
 3.37437
 3.57312
 2.03569
 2.17939
 2.25437
 2.32391
 -0.187219
 0.00259776
 0.0405039
 0.230939
 3.72595
 3.79652
 3.85886
 3.72136
 -0.522753
 -0.306804
 -0.328569
 -0.481673
 1.67133
 1.9217
 1.65827
 2.01954
 -0.857661
 -0.997686
 -0.83237
 -0.99107
 2.37419
 2.1915
 2.31639
 2.04811
 -1.03444
 -0.995198
 -1.21336
 -0.842271
 -2.38112
 -2.40791
 -2.56085
 -2.7113
 -2.65196
 -2.49325
 -2.62811
 -2.25809
 2.57548
 2.60645
 2.86247
 2.47745
 1.22404
 1.34689
 1.31787
 1.04538
 6.37607
 6.47991
 6.5747
 6.44953
 2.34687
 2.40062
 2.5977
 2.38217
 0.139951
 -0.175523
 -0.0237796
 -0.0866154
 1.61798
 1.63203
 1.30786
 1.79076
 1.79416
 1.5538
 1.82649
 1.60092
 3.88885
 4.00665
 3.85343
 3.84393
 -4.38594
 -4.70868
 -4.82097
 -4.3601
 -5.45407
 -5.57581
 -5.68585
 -5.76315
 -0.395973
 -0.683854
 -0.182124
 -0.34773
 2.2604
 2.3228
 2.1648
 2.42947
 -2.24612
 -2.37778
 -2.51181
 -2.23153
 4.01423
 4.40757
 4.25564
 4.25096
 4.11697
 4.27071
 4.3447
 4.07991
 6.68999
 6.806
 6.64909
 6.68329
 -0.961996
 -1.24285
 -1.07636
 -1.31969
 2.69488
 2.45805
 2.40975
 2.66792
 3.1841
 3.33922
 3.11372
 3.04877
 -5.97055
 -6.25065
 -6.14054
 -6.285
 3.56195
 3.64025
 3.79991
 3.59189
 3.18277
 3.28838
 3.41558
 3.19941
 2.81972
 2.65686
 2.84066
 3.01109
 0.805504
 0.863384
 0.656722
 0.695878
 3.06367
 2.82771
 2.99605
 2.92254
 2.0784
 1.9528
 1.88682
 2.01173
 1.21677
 1.28056
 1.3703
 1.45652
 3.49994
 3.73829
 3.43593
 3.69499
 7.11979
 7.15669
 6.95149
 6.94583
 3.92955
 3.85126
 3.72794
 3.83643
 -1.13033
 -0.971568
 -1.22861
 -0.829759
 -1.18411
 -1.09688
 -1.309
 -1.09408
 -2.52041
 -2.39483
 -2.31652
 -2.61756
 4.31473
 4.33666
 4.28154
 4.2003
 -6.48123
 -6.46002
 -6.26647
 -6.66517
 -2.32133
 -2.55702
 -2.29666
 -2.35666
 4.58233
 4.5797
 4.75916
 4.77591
 1.94922
 1.95602
 2.04859
 1.66305
 3.27472
 3.12603
 3.4466
 3.32405
 3.21197
 3.31667
 3.32685
 4.25483
 4.27688
 4.29728
 4.36891
 -1.70566
 -1.54188
 -1.37266
 -1.8029
 1.17468
 0.851408
 0.974054
 1.13963
 -1.32582
 -1.58219
 -1.39152
 2.27407
 2.56374
 2.37741
 2.46616
 0.570247
 0.392177
 0.460013
 0.718195
 -3.88587
 -3.51672
 -3.53824
 -4.04713
 3.96457
 3.92804
 3.6661
 3.76283
 3.37277
 3.51659
 3.61681
 3.495
 -0.995048
 -0.715463
 -0.65266
 -0.754851
 -2.19257
 -2.02583
 -2.46407
 -2.4259
 4.35679
 4.33489
 4.41623
 4.55306
 3.49001
 3.43526
 3.11939
 3.21239
 1.40921
 1.14588
 0.995568
 1.36686
 -5.21198
 -5.40421
 -5.28736
 -5.33677
 -1.04073
 -1.32601
 -1.42577
 -1.29232
 0.368296
 0.736652
 0.416403
 0.375426
 6.36397
 6.55481
 6.35382
 6.3647
 0.9227
 1.11806
 0.837894
 0.682611
 -3.88197
 -3.59191
 -3.88883
 -3.48593
 2.87963
 3.19051
 2.7412
 2.8407
 3.4502
 3.40815
 3.61724
 3.49812
 3.56811
 3.76419
 3.70543
 3.65276
 5.19379
 5.21031
 5.20654
 5.126
 3.03649
 3.34409
 3.31927
 3.32536
 -1.10252
 -1.06686
 -1.10505
 -0.914332
 4.38025
 4.32033
 4.26111
 4.18783
 -4.73028
 -4.48701
 -4.66639
 -4.75379
 4.08904
 4.33442
 4.30499
 4.11197
 -3.76893
 -3.34755
 -3.79785
 -3.5327
 1.14362
 1.343
 1.33446
 1.17954
 1.77657
 1.56967
 1.49107
 1.71027
 2.58568
 2.57901
 2.29215
 2.50986
 2.99797
 3.00055
 3.16988
 3.22788
 -6.21182
 -6.44399
 -6.52468
 -6.48655
 2.8216
 2.94559
 2.8234
 2.91954
 -6.88142
 -6.65477
 -6.8144
 -6.48967
 -2.24058
 -2.17133
 -2.49513
 -2.25578
 5.83065
 5.62899
 5.67133
 5.83783
 -5.62947
 -5.56194
 -5.79497
 -5.89545
 3.60245
 3.38096
 3.57164
 3.74339
 5.83006
 5.94219
 5.99887
 5.84555
 -3.20899
 -3.12175
 -2.98387
 -3.12281
 -5.68142
 -6.01667
 -5.76526
 -5.63436
 -0.244783
 -0.309143
 -0.182456
 -0.124964
 -2.83665
 -2.52065
 -2.91935
 -2.58494
 3.29054
 3.53517
 3.40325
 3.4466
 -0.749681
 -0.651413
 -0.747803
 -0.985056
 1.92035
 2.01437
 1.83474
 1.81382
 4.11043
 4.01587
 4.15196
 4.15418
 4.82216
 4.86225
 4.87123
 4.7032
 1.08675
 1.18174
 0.948232
 1.26074
 0.351309
 0.352554
 0.436821
 0.595286
 3.3443
 3.37825
 3.22589
 3.17014
 3.39823
 3.67345
 3.41117
 3.45181
 -1.41317
 -1.44455
 -1.2373
 -1.25904
 -5.31898
 -5.17186
 -5.52903
 -5.59757
 -4.82664
 -4.6341
 -4.87417
 -4.92982
 -4.67604
 -4.34733
 -4.41686
 -4.59445
 -1.91961
 -1.75853
 -1.9858
 -1.73111
 3.41048
 3.69106
 3.47836
 3.55962
 3.30915
 3.15802
 3.10234
 3.06444
 0.464033
 0.570818
 0.868778
 0.898698
 -2.24609
 -2.09946
 -2.5079
 -2.32939
 -2.12712
 -1.96825
 -2.06474
 -2.26307
 -0.261595
 -0.0313729
 -0.203093
 -0.250463
 -1.03879
 -1.26354
 -0.971063
 -1.02545
 4.60581
 4.62976
 4.52604
 4.34961
 7.7469
 7.85027
 7.73111
 7.92324
 2.81669
 2.83867
 3.07547
 2.93674
 7.24157
 7.05106
 7.09881
 2.92291
 2.97487
 2.84711
 3.09546
 -4.23738
 -4.05046
 -4.16996
 -3.98589
 -0.00539818
 -0.134308
 -0.197496
 -0.388195
 -5.08982
 -4.97301
 -5.29773
 -4.93762
 3.45871
 3.42469
 3.65041
 3.45678
 -1.95301
 -1.89746
 -2.3021
 -2.20079
 -0.336871
 -0.316668
 -0.0288381
 -0.170178
 -6.01532
 -6.17643
 -6.26569
 -5.80094
 -3.33907
 -3.28657
 -3.40675
 -3.66606
 2.7847
 2.56246
 2.71237
 2.79378
 -1.98725
 -1.95414
 -1.70356
 -1.99957
 -3.78808
 -3.34928
 -3.59878
 -3.40896
 5.80064
 6.02237
 5.94561
 6.00934
 0.0769705
 -0.0243261
 -0.171341
 -0.204972
 -3.72045
 -3.82436
 -3.91083
 -3.68448
 -1.29909
 -1.53404
 -1.12049
 -1.67237
 -3.61837
 -3.31731
 -3.65973
 -3.63043
 3.23218
 3.03868
 2.92551
 2.93483
 -3.39386
 -3.92817
 -3.36552
 -3.82492
 1.21478
 1.08389
 1.47584
 1.23554
 0.728693
 0.621707
 0.461803
 0.782305
 -3.28418
 -3.20667
 -2.98921
 -3.42343
 -6.86602
 -6.65533
 -6.64403
 -6.79746
 4.63164
 4.51811
 4.41447
 4.35145
 2.18348
 1.97963
 1.86632
 2.13027
 -0.845887
 -0.685429
 -0.563024
 -0.637473
 -3.26841
 -3.45489
 -3.40675
 -3.46416
 2.72069
 2.88819
 2.81374
 2.7996
 4.25551
 4.02346
 3.91654
 4.2055
 -2.18708
 -2.20413
 -1.8544
 -1.88341
 -1.42374
 -1.65604
 -1.41654
 -1.51744
 -5.72375
 -5.95346
 -6.16688
 -5.73442
 3.7615
 3.49856
 3.817
 3.63373
 -5.65038
 -5.88326
 -5.83695
 -5.69246
 2.22416
 1.97056
 2.1321
 2.21132
 7.62346
 7.64639
 7.5717
 7.5312
 -4.52273
 -4.70572
 -4.83341
 -4.71508
 -1.70263
 -1.85716
 -1.56137
 -1.3044
 -4.51036
 -4.53733
 -4.35287
 -4.3182
 0.545866
 0.814976
 0.613291
 0.509321
 1.05477
 0.917039
 0.86447
 1.01762
 -2.8964
 -2.5564
 -2.60279
 -2.6979
 3.44297
 3.33837
 3.5431
 3.39608
 3.81186
 3.68924
 3.6738
 3.76244
 6.59215
 6.68476
 6.69329
 6.7298
 -0.433343
 -0.615796
 -0.718546
 -0.841004
 0.306826
 0.42603
 0.0213159
 0.291496
 -1.2291
 -0.826429
 -1.0893
 -1.30542
 2.07455
 1.74655
 1.71651
 2.1244
 -5.4633
 -5.43522
 -5.62492
 -5.1716
 -5.67482
 -6.13846
 -5.69118
 -5.61345
 -1.44164
 -1.57321
 -1.79729
 -1.81185
 8.70153
 8.72513
 8.67333
 8.58539
 1.25804
 1.40093
 1.21132
 1.52202
 1.12431
 1.19102
 1.44884
 1.18969
 1.2649
 1.21451
 1.50309
 1.49064
 -3.17813
 -3.053
 -3.41436
 -3.01284
 6.13808
 5.94127
 6.25079
 6.14345
 6.766
 6.77791
 6.91482
 6.97406
 -3.32048
 -3.10436
 -3.32731
 -3.0166
 2.44354
 2.16127
 2.54727
 2.19846
 1.68376
 1.72757
 1.6313
 1.62094
 -1.61715
 -1.48655
 -1.40166
 -1.13162
 3.68852
 3.57091
 3.49035
 3.60582
 -3.43381
 -3.17027
 -3.21052
 -3.4328
 2.01447
 2.40913
 2.22128
 2.52278
 2.35491
 2.39706
 2.58349
 2.41156
 4.2574
 4.37414
 4.15586
 4.40035
 1.45438
 1.14524
 1.3363
 1.11636
 -4.00211
 -4.15884
 -4.13706
 -3.92534
 -1.92972
 -2.23772
 -2.33972
 -2.05377
 3.64465
 3.67584
 3.48414
 3.48185
 2.75207
 2.47567
 2.47364
 2.7419
 -4.82577
 -4.94004
 -5.1336
 -5.0203
 -3.25436
 -3.0364
 -3.16343
 -3.07786
 1.05229
 1.14823
 1.30067
 1.14289
 4.39302
 4.34723
 4.36211
 4.2797
 5.41755
 5.11368
 5.17585
 5.37124
 -1.52409
 -1.25942
 -1.13271
 -1.39224
 4.04509
 4.23969
 4.05774
 4.45393
 -4.36358
 -4.01082
 -4.01936
 -4.33279
 -0.850655
 -1.21467
 -1.00115
 -0.775727
 -3.65021
 -3.57249
 -3.46523
 -3.57097
 -2.12823
 -1.79746
 -1.81839
 -2.02032
 1.16686
 1.30715
 1.15795
 0.994053
 3.24725
 3.61024
 3.52437
 3.37271
 5.08667
 4.78727
 5.05133
 5.02138
 4.38611
 4.6494
 4.36356
 4.44912
 3.32692
 3.56399
 3.60929
 3.49176
 0.741667
 0.654377
 0.678654
 1.07146
 0.759118
 0.66209
 0.65326
 0.897956
 0.476246
 0.696353
 0.275871
 0.508854
 -1.42855
 -1.26746
 -1.52746
 -1.47811
 5.99863
 6.19048
 6.11862
 6.13562
 -0.183058
 -0.247207
 -0.131792
 -0.392279
 3.6878
 3.91158
 3.81692
 3.76085
 1.7454
 1.42695
 1.65618
 1.4829
 -5.49838
 -5.02736
 -5.43367
 -5.31813
 0.797183
 0.924344
 0.931409
 1.03937
 4.0752
 4.18756
 4.12286
 4.35077
 1.6956
 1.74592
 1.55786
 1.42896
 3.18286
 3.0564
 3.0712
 3.2541
 1.03465
 1.3329
 1.01602
 1.25052
 5.9259
 6.07573
 6.00335
 5.86127
 1.70674
 1.68991
 1.4898
 1.46243
 -1.61554
 -1.54368
 -1.74245
 -1.55041
 -1.0908
 -1.1191
 -1.23211
 -1.13335
 -4.99715
 -4.44026
 -4.88773
 -4.66574
 2.73695
 2.77366
 2.56215
 2.71196
 3.23957
 3.09237
 3.25987
 2.87105
 -4.89315
 -4.51985
 -4.90622
 -4.84013
 3.14195
 3.13793
 2.90391
 3.13448
 -3.90802
 -3.79074
 -4.0917
 -3.77432
 -0.0550567
 -0.429335
 -0.200596
 -0.363972
 0.760954
 1.11716
 0.785855
 0.698669
 3.35742
 3.13064
 3.16388
 3.36603
 1.00342
 1.01031
 0.722317
 1.00149
 -4.05109
 -3.94283
 -4.0773
 -4.11022
 7.72938
 7.67823
 7.63793
 7.83827
 4.47042
 4.5114
 4.51187
 4.45107
 4.32192
 4.29024
 4.32831
 4.47017
 2.43262
 2.33202
 2.55162
 2.2288
 1.74412
 1.93532
 1.78767
 1.90296
 2.64513
 2.76508
 2.82246
 2.61515
 -5.72901
 -5.59005
 -6.06865
 -5.54684
 3.45633
 3.59718
 3.57837
 3.29565
 -1.16438
 -1.20116
 -1.30265
 -1.0204
 0.65277
 -3.33618
 -3.01889
 -3.08965
 -3.04251
 -0.798506
 -1.01926
 -1.21001
 -1.04993
 4.76889
 4.64211
 4.59416
 4.68815
 2.21995
 2.32152
 2.14192
 1.98715
 2.88187
 3.10064
 2.9453
 2.90862
 -3.93572
 -3.63121
 -3.6729
 -3.70523
 1.46288
 1.83059
 1.57241
 1.68227
 -4.20444
 -4.2615
 -3.91776
 -3.95919
 -2.01702
 -2.19085
 -1.8973
 -2.26902
 4.6833
 4.55073
 4.63043
 4.39093
 3.37442
 3.60541
 3.2239
 3.37724
 -1.51845
 -1.69752
 -1.7291
 -1.51826
 0.935801
 1.25089
 0.938869
 4.16864
 4.27064
 4.19943
 4.08418
 -1.47819
 -1.02278
 -1.31604
 -1.08476
 2.9298
 3.17515
 3.14914
 3.00643
 0.972832
 1.33743
 1.15343
 0.944865
 -4.68842
 -4.68773
 -4.27479
 -4.62145
 2.48502
 2.57888
 2.71329
 2.5202
 -3.30713
 -2.97701
 -3.2539
 -3.35794
 0.525452
 0.698994
 0.528279
 0.812543
 -2.69131
 -2.5056
 -2.2574
 -2.43023
 -4.38099
 -4.38713
 -4.71322
 -4.56473
 2.34027
 2.37309
 2.19457
 2.20959
 7.66161
 7.42178
 7.45493
 7.32779
 -6.08351
 -5.88351
 -5.90625
 -5.83648
 -1.21309
 -1.09523
 -0.958346
 -1.11044
 3.75943
 3.78298
 3.39249
 3.69781
 1.7303
 1.5463
 1.50037
 1.74697
 5.63382
 5.58197
 5.59259
 5.75216
 -4.29561
 -4.45324
 -4.81811
 -4.52111
 4.24507
 4.36867
 4.30526
 4.28366
 -0.270012
 -0.514325
 -0.152023
 -0.336288
 3.52429
 3.92602
 3.61236
 3.62171
 -6.44596
 -6.38996
 -6.41693
 -6.0902
 -6.16363
 -6.09358
 -5.90464
 -5.70564
 -2.17092
 -1.895
 -1.82164
 -2.22679
 -0.447909
 -0.550981
 -0.47211
 -0.273444
 -0.533648
 3.95784
 3.91411
 4.16191
 3.99965
 3.63834
 3.71939
 3.78742
 3.56672
 -1.54593
 -1.80949
 -1.82219
 -1.83831
 3.99565
 3.82715
 3.82289
 4.00421
 3.16383
 3.22595
 3.26236
 3.054
 -2.03555
 -2.13653
 -2.08633
 -1.82604
 2.18551
 1.90521
 2.18521
 1.91195
 -1.62008
 -1.64543
 -1.68986
 -1.88406
 3.05966
 3.11472
 3.2867
 3.07723
 2.47273
 2.30936
 2.27007
 2.24546
 1.29799
 1.05379
 1.39432
 1.1338
 -0.395251
 -0.693581
 -0.521046
 -0.804918
 -2.98489
 -2.84075
 -3.25886
 -3.21475
 -0.0722386
 0.00477727
 0.149646
 0.118466
 -0.0314851
 -0.163151
 -0.236952
 -0.1746
 4.75437
 4.75963
 4.65519
 4.5897
 -1.19916
 -1.249
 -1.36048
 -1.28399
 0.604209
 0.545264
 0.437603
 0.622708
 0.306742
 0.323085
 0.503765
 0.350726
 2.10391
 2.03326
 2.28735
 2.12977
 4.19922
 4.22006
 4.11466
 4.38398
 -2.47094
 -2.42716
 -2.595
 -2.63617
 4.12371
 4.28057
 4.22499
 3.9731
 -5.81796
 -5.79075
 -6.16228
 -5.95434
 -3.22727
 -3.02651
 -3.39492
 -3.26808
 -3.40518
 -3.44078
 -3.44294
 -3.34574
 -3.59608
 -3.49359
 -3.45453
 -3.76587
 -1.98205
 -2.11548
 -1.84862
 -2.12245
 5.58612
 5.69915
 5.8904
 0.0554982
 0.411381
 0.105449
 0.163607
 -3.01873
 -2.91189
 -2.81649
 -3.01716
 2.24205
 2.50163
 2.3609
 2.29902
 3.05709
 3.00193
 3.13995
 2.96831
 -2.16306
 -2.20751
 -2.43646
 -1.9149
 1.35305
 1.41813
 1.31517
 1.11526
 2.85829
 2.84259
 2.91964
 2.95924
 -5.62684
 -5.98555
 -1.02691
 -0.982995
 -0.708638
 -0.737834
 1.20022
 1.26869
 1.41809
 -0.217881
 -0.29767
 -0.244009
 -0.00311454
 5.13443
 5.19719
 4.98578
 5.00998
 -3.31578
 -3.53424
 -3.5242
 -3.21812
 -0.135632
 -0.0673339
 0.0814096
 0.0505934
 2.26783
 2.46962
 2.3608
 2.15683
 0.22135
 0.488271
 0.401178
 0.288652
 4.06178
 4.1609
 3.99609
 4.08188
 4.55663
 4.21679
 4.46409
 4.40295
 1.38442
 1.18528
 1.11556
 1.25711
 4.00247
 4.05288
 4.01617
 3.85602
 1.05763
 1.18691
 1.13641
 1.23267
 -3.69554
 -3.63305
 -3.31145
 -3.27421
 3.86906
 3.7475
 3.66492
 3.78998
 6.54085
 6.37339
 6.49277
 6.39586
 -0.802536
 -0.3225
 -0.616671
 -0.698708
 1.67373
 1.50191
 1.71368
 1.50194
 4.09151
 4.12464
 3.92962
 3.97122
 1.16282
 1.30087
 1.04171
 1.06876
 -4.67223
 -4.57705
 -4.76228
 -4.69983
 3.26151
 3.27303
 3.37666
 3.26687
 -0.765355
 -0.57653
 -0.580492
 -0.514243
 1.77573
 1.51879
 1.70324
 1.36332
 -1.89048
 -2.07714
 -2.04746
 -2.26275
 -3.65733
 -3.6085
 -3.77172
 -3.51917
 3.78683
 3.61163
 3.7254
 3.42017
 2.5782
 2.41017
 2.45383
 2.50171
 -0.398578
 -0.369824
 -0.0477008
 -0.247399
 4.19555
 4.11968
 4.14784
 4.08569
 7.626
 7.762
 7.75085
 7.6663
 0.282693
 0.507081
 0.500856
 0.541646
 7.96871
 8.00768
 7.94619
 7.83415
 7.67281
 7.49558
 7.50832
 7.5966
 5.02447
 4.89625
 4.92545
 5.08166
 -1.23014
 -1.03831
 -0.875172
 -0.768087
 -1.08217
 -1.29169
 -1.3098
 -1.48754
 -1.48301
 -1.28201
 -1.44003
 -1.15158
 -0.758733
 -0.472442
 -0.532966
 -0.85155
 5.85629
 5.99304
 5.89379
 5.91752
 3.74807
 3.8477
 3.62412
 3.71241
 3.813
 4.04056
 3.99324
 3.98293
 2.11385
 1.85534
 2.09867
 1.83179
 -0.0376681
 0.116694
 -0.0501659
 0.0737758
 -1.92668
 -1.86502
 -1.74473
 -1.95801
 3.43262
 3.1926
 3.13247
 3.37387
 -1.28327
 1.13352
 0.94061
 0.94314
 1.08381
 -6.1964
 -6.27868
 -6.60915
 -6.40202
 1.54306
 1.51529
 1.35051
 1.51663
 -4.25928
 -4.62482
 -4.35587
 3.88258
 3.7748
 3.69411
 3.9175
 7.2219
 7.06293
 7.13155
 7.03335
 0.875431
 0.898144
 0.59178
 1.03805
 2.12722
 2.43913
 2.37139
 2.40492
 3.99371
 3.86368
 3.73577
 3.67216
 3.63566
 3.56508
 3.73897
 3.53952
 5.27884
 5.53326
 5.37936
 5.37405
 -0.371356
 -0.318095
 -0.493441
 -0.865871
 0.933762
 0.669012
 1.00098
 0.790717
 2.72822
 2.93466
 2.73938
 2.82378
 1.33619
 1.51269
 1.05792
 -2.38043
 -2.23294
 -2.18129
 3.27416
 3.24846
 3.52531
 3.57447
 5.22174
 5.29185
 5.2873
 5.22572
 2.92237
 2.77418
 2.79598
 2.97188
 5.05332
 5.23674
 5.01334
 5.30786
 -2.64102
 -3.04438
 -2.74626
 -2.8349
 -2.134
 -2.25112
 -2.33435
 -2.50617
 4.19092
 4.26478
 4.22975
 4.25621
 5.50194
 5.74243
 5.57751
 5.50976
 0.18896
 0.525333
 0.242506
 0.372543
 -5.34104
 -5.05371
 -5.4461
 -5.1142
 5.18214
 5.18843
 5.28381
 5.17543
 -1.22851
 -0.958742
 -0.93309
 -1.28494
 6.65834
 6.76762
 6.65344
 6.73157
 -1.88419
 -2.04019
 -1.82584
 -2.25776
 1.93236
 2.12584
 1.82781
 2.17784
 -2.61178
 -2.62857
 -2.89525
 -2.87841
 3.95253
 3.88303
 3.84971
 3.66223
 2.36923
 2.5588
 2.53327
 2.54645
 3.20013
 3.27629
 3.04957
 3.05695
 2.96962
 3.04509
 2.79256
 3.16701
 0.273618
 0.106096
 0.144492
 0.375505
 1.50698
 1.70744
 1.4694
 1.48526
 -3.03185
 -2.79407
 -2.61749
 -2.68689
 -5.8081
 -6.04351
 -5.52519
 -5.51983
 1.76178
 1.7888
 1.96364
 1.81238
 -3.65877
 -3.54869
 -3.42765
 -3.84869
 -1.67967
 -2.03819
 -2.19579
 -1.98542
 5.89824
 5.98851
 6.1623
 5.92347
 4.21583
 3.85711
 3.93236
 4.04004
 2.00846
 2.16814
 2.23264
 2.14576
 5.1982
 5.32603
 5.36398
 5.46181
 0.0399693
 -0.233623
 -0.199277
 -0.0894329
 -2.60265
 -3.1029
 -2.82768
 -2.87288
 5.08658
 4.81542
 5.06894
 5.08999
 1.26467
 1.06108
 1.20676
 1.16626
 2.90367
 2.92578
 2.91861
 3.02782
 7.554
 7.42756
 7.40831
 7.54118
 2.3719
 2.4071
 2.42695
 2.21671
 0.939533
 0.775995
 0.814248
 0.745773
 -1.57886
 -1.84903
 -1.6707
 -1.92699
 3.1236
 3.06893
 3.01447
 0.924037
 0.971844
 1.04035
 0.969656
 2.55062
 2.61314
 2.28118
 2.48564
 -1.07102
 -0.825324
 -1.0353
 -0.94412
 -1.12974
 -1.41924
 -1.37111
 -1.30819
 -4.15343
 -3.91602
 -4.07158
 -3.74804
 3.61018
 3.58612
 3.44753
 3.63735
 -5.20099
 -5.30488
 -5.42807
 -5.26421
 3.27595
 3.08416
 3.25085
 3.36161
 0.96435
 0.688551
 0.72195
 0.56503
 0.619266
 0.895583
 0.795028
 0.941215
 7.81779
 7.95494
 7.82527
 7.85649
 2.67238
 2.81261
 2.65492
 2.61997
 1.10193
 1.14775
 0.925363
 0.651679
 1.29635
 1.22462
 1.1884
 1.49872
 -6.11641
 -6.10096
 -5.82448
 -6.06516
 3.28367
 3.06147
 2.93327
 3.22184
 2.97988
 3.11008
 2.87188
 3.16694
 -1.75191
 -2.03371
 -1.8005
 -1.95127
 3.84387
 3.8829
 4.00119
 4.02155
 3.88312
 3.92705
 3.79532
 3.94029
 -0.959179
 -0.624435
 -0.929479
 -0.74355
 -1.14582
 -1.14076
 -0.913983
 -1.14592
 0.450721
 0.426968
 0.0598632
 0.200358
 3.08374
 3.19207
 -0.415789
 -0.206896
 -0.544456
 -0.266431
 3.01453
 2.89626
 3.01217
 2.96107
 1.82324
 1.57424
 1.49247
 1.57957
 -4.38253
 -4.21168
 -4.0765
 -4.43448
 1.64256
 1.56951
 1.44791
 1.40243
 -2.25635
 -2.46737
 -2.5918
 -2.18158
 3.40035
 3.04309
 3.16818
 3.06013
 2.19675
 2.40462
 2.4401
 2.33576
 1.15096
 0.744798
 0.967252
 0.900442
 3.67855
 3.86168
 3.93418
 3.80751
 6.43411
 6.37914
 6.46325
 6.55713
 -5.07766
 -5.01154
 -4.90046
 -5.0111
 5.07588
 5.09526
 5.00326
 5.14404
 -0.119366
 -0.22429
 0.0386269
 0.0209913
 6.44438
 6.42947
 6.32955
 6.50534
 -0.256522
 -0.511529
 -0.332502
 -0.301249
 3.21773
 3.24195
 3.31349
 3.29299
 3.30276
 3.24462
 3.44882
 3.32663
 0.41015
 0.312177
 0.608552
 0.41904
 -3.19059
 -2.88352
 -3.12678
 -2.83018
 2.29337
 1.95052
 2.01006
 2.00259
 4.23549
 4.29766
 4.22626
 4.13553
 -3.05291
 -3.46478
 -3.25569
 -3.54939
 3.21128
 3.37571
 3.10174
 3.08307
 2.15391
 1.92994
 1.98792
 1.85232
 -1.76796
 -2.29385
 -2.17666
 -1.99469
 0.626711
 0.385485
 0.322182
 0.318495
 1.44251
 1.55573
 1.41777
 1.29665
 -4.32156
 -4.52937
 -4.66891
 -4.76926
 -3.29377
 -3.39929
 -3.3865
 -3.24222
 0.0688259
 0.0254785
 0.354027
 0.215924
 1.45159
 1.31875
 1.54657
 1.05444
 2.63906
 2.56427
 2.54869
 2.25761
 4.25947
 4.27758
 4.42175
 -2.17992
 -2.35322
 -2.28598
 -2.51657
 6.56853
 6.67825
 6.82674
 6.79495
 -1.316
 -0.979137
 -1.15999
 -1.09939
 3.55875
 3.82012
 3.68042
 3.66216
 3.99119
 4.18493
 4.12996
 4.1522
 -3.63983
 -3.34226
 -3.49088
 -3.89701
 0.648884
 0.798077
 0.555426
 0.72651
 1.29986
 1.38152
 3.0368
 1.77106
 1.52895
 1.81078
 1.65392
 6.43042
 6.29562
 -0.895473
 -1.00646
 -1.11356
 4.65113
 4.53834
 4.7946
 4.64464
 -1.09173
 -0.79875
 -0.886728
 -0.897304
 2.16372
 1.93682
 2.00225
 2.02008
 3.12797
 2.80464
 2.99831
 2.96611
 -4.17868
 -4.18478
 -4.58045
 -4.29106
 4.592
 4.407
 4.60938
 4.38727
 -0.618891
 -0.627316
 -0.698066
 -0.860241
 -4.8795
 -4.94727
 -4.58615
 -4.59155
 0.72567
 0.990275
 0.760381
 0.935827
 -0.734982
 -0.346445
 -0.481135
 -0.468184
 1.20696
 0.997119
 1.17197
 1.52591
 -6.28269
 -5.71552
 -6.18282
 -5.69919
 -5.79052
 -5.79984
 -5.63995
 -5.41598
 -5.33208
 -5.20251
 -5.19567
 -5.36315
 1.80825
 2.01302
 1.78516
 1.81115
 -0.0248155
 0.297868
 0.17486
 0.0278963
 1.52739
 1.55996
 1.73026
 1.59655
 1.93841
 2.01328
 1.72029
 2.02158
 -1.25659
 -1.34169
 -1.38499
 -1.09074
 -3.04952
 -3.38532
 -3.25641
 -3.42306
 -3.08257
 -3.19869
 -2.8961
 -3.32041
 0.695352
 0.560593
 0.74642
 0.587649
 1.36346
 1.36287
 1.43992
 1.55155
 3.30238
 3.42388
 3.34912
 3.12243
 -2.00197
 -2.24833
 -2.25288
 -1.91972
 5.12447
 5.11022
 5.28235
 5.03923
 -2.3838
 -2.55889
 -2.36502
 -2.3064
 0.287203
 -0.120786
 0.270953
 -0.025401
 0.423753
 0.320121
 0.3803
 0.553392
 4.41585
 4.43998
 4.54018
 4.6909
 8.22304
 8.11687
 8.25991
 8.24406
 2.55417
 2.33487
 2.55085
 2.50258
 -2.44964
 -2.09128
 -2.20655
 -2.43185
 3.94713
 4.1311
 4.00052
 3.85797
 -0.0281361
 -0.160916
 0.132262
 -0.178485
 -0.361052
 -0.56084
 -0.816801
 -0.714855
 -1.77878
 -1.92259
 -1.52128
 -1.64829
 5.4808
 5.59356
 5.59106
 5.45913
 5.422
 5.40207
 5.4851
 5.52067
 -2.46311
 -2.87465
 -2.71193
 -2.67894
 -1.29852
 -0.909183
 -0.908105
 -1.14802
 2.68202
 2.65133
 2.77329
 2.7603
 1.12738
 1.20539
 0.981318
 0.848709
 0.376238
 0.32037
 0.350708
 0.466118
 2.73618
 2.89485
 2.54174
 2.83565
 -0.728258
 -0.568995
 -0.605155
 -0.419334
 -7.27066
 -6.94625
 -7.19748
 -7.24589
 -0.229177
 -0.53694
 -0.507504
 -0.681314
 1.06939
 0.947427
 1.12592
 0.8223
 1.00323
 1.02114
 1.23074
 0.9993
 0.344443
 0.175863
 0.322202
 0.540434
 -5.22406
 -5.2361
 -4.97641
 -5.20794
 -2.99859
 -2.75052
 -2.91825
 -0.658622
 -0.650006
 -0.816419
 -0.620908
 4.19042
 4.21339
 4.04814
 4.23421
 1.93292
 1.92051
 2.1053
 1.85635
 -3.00348
 -2.63755
 -2.57043
 -2.64863
 3.29795
 3.22189
 3.17696
 3.08696
 2.2884
 2.45363
 2.47071
 2.23889
 2.00344
 2.10564
 2.36961
 2.14247
 -1.22397
 -1.04149
 -0.976845
 -0.987144
 0.214019
 0.42786
 0.18207
 0.620524
 -0.67241
 -0.207461
 -0.382181
 -0.452097
 3.8454
 3.74902
 3.72297
 3.81075
 2.17487
 2.01952
 1.96829
 2.18504
 -0.960472
 -0.760781
 -1.00874
 -1.22729
 2.39938
 2.30035
 2.17435
 2.49531
 -0.21866
 -0.462193
 -0.466147
 -0.320757
 3.95153
 4.02151
 3.90113
 4.05305
 -4.65537
 -4.76192
 -4.43844
 -4.6548
 3.37558
 3.52375
 3.31623
 3.23155
 3.60873
 3.98427
 3.75063
 3.74929
 -1.73396
 -1.73145
 -1.92801
 -1.99985
 3.35117
 3.30268
 3.26075
 3.28816
 -0.345003
 -0.239591
 -0.348065
 -0.0902275
 4.53222
 4.50277
 4.74511
 4.70093
 0.430574
 0.555305
 0.501269
 0.256776
 -4.08194
 -4.55475
 -4.15754
 -4.41893
 0.276622
 0.613321
 0.617941
 0.429229
 -1.69996
 -1.82829
 -1.7039
 -1.69089
 -0.313026
 -0.207079
 -0.280775
 -0.428725
 -0.213076
 -0.303614
 -0.374333
 -0.576125
 -5.11489
 -5.13169
 -5.24768
 -4.7894
 3.74572
 3.86913
 3.96468
 3.99128
 3.51786
 3.60482
 3.77821
 3.61178
 -3.49222
 -3.50494
 -3.32528
 -3.74234
 -4.10562
 -4.26914
 -4.08514
 2.86202
 2.9454
 2.957
 2.80872
 -0.458803
 -0.75341
 -0.472042
 -0.433331
 -0.0135211
 -0.103583
 0.167639
 -0.135767
 3.62409
 3.45564
 3.7519
 3.60729
 -1.81111
 -2.00774
 -1.9356
 -1.97655
 1.28394
 1.54664
 1.51611
 1.25476
 0.376283
 0.645003
 0.612898
 0.686401
 -2.0515
 -2.27214
 -2.29959
 -2.23017
 4.37237
 4.45019
 4.35582
 4.26127
 2.78325
 3.02938
 2.96603
 2.9734
 -5.35462
 -4.94885
 -5.28263
 -5.15857
 3.74054
 3.76983
 3.70624
 3.42429
 4.34131
 4.42582
 4.39017
 4.36798
 1.20534
 1.11144
 1.22966
 0.903985
 6.43582
 6.37363
 6.49542
 6.26425
 0.653875
 0.606919
 0.737056
 0.62498
 -2.31627
 -2.19919
 -2.11789
 -2.06288
 -3.19695
 -3.00418
 -3.09785
 4.60358
 4.58058
 4.50604
 4.57903
 3.30743
 3.07447
 3.35415
 3.1313
 3.64117
 3.71124
 3.81394
 3.85987
 2.95528
 3.11373
 3.01541
 3.05776
 -5.64635
 -5.82541
 -5.946
 -5.87502
 4.30257
 4.29283
 4.3597
 4.48754
 3.16098
 3.31988
 3.18764
 2.95134
 -3.01698
 -3.20321
 -3.0083
 -2.8963
 2.30182
 2.37708
 2.21904
 2.96919
 3.17489
 2.9952
 0.214073
 0.408333
 0.613463
 6.08442
 5.87906
 5.84637
 6.01329
 0.585315
 0.437721
 0.534482
 0.347573
 0.704906
 0.569622
 0.920672
 0.860975
 -3.56384
 -3.74748
 -3.44947
 -3.39944
 -4.38863
 -4.28902
 -4.81479
 -4.3196
 3.78819
 3.96569
 3.98619
 3.64591
 0.0567752
 -0.210297
 -0.23238
 -0.130865
 0.0897369
 -0.111219
 -0.219057
 -0.142945
 1.28668
 0.978171
 1.11317
 0.912867
 2.45429
 2.35145
 2.32195
 2.61179
 0.123516
 0.383504
 0.20611
 0.108552
 3.80583
 3.75441
 3.84287
 3.69531
 -3.97243
 -3.85259
 -3.98699
 -4.05535
 2.94884
 2.99563
 2.89828
 2.77311
 -3.16236
 -2.90335
 -3.07771
 -3.06305
 -4.70567
 -4.53375
 -4.32554
 -4.62705
 -4.42499
 -4.3383
 -4.31478
 -4.23931
 3.37344
 3.51838
 -1.46218
 -1.39787
 -1.22636
 -1.36464
 3.6539
 3.37916
 3.51491
 3.60194
 -2.16498
 -2.63829
 -2.48103
 -2.57833
 -3.17039
 -2.94296
 -3.29221
 -2.96564
 2.66344
 2.50855
 2.48224
 2.59372
 0.232803
 0.255411
 0.0271501
 0.126474
 3.01701
 3.00217
 2.84052
 2.9951
 1.76565
 1.77501
 1.73078
 1.53185
 7.36227
 7.11961
 7.41293
 7.19919
 -3.94008
 -3.77584
 -4.18816
 -3.89243
 2.87436
 3.04556
 2.81474
 2.69693
 4.6044
 4.74821
 4.74149
 4.54411
 1.48835
 1.59632
 1.36394
 1.29876
 4.45892
 4.71393
 4.78049
 4.45257
 1.63378
 1.88288
 1.96159
 1.74215
 -1.50341
 -1.41403
 -1.71644
 -1.30718
 1.13392
 1.29806
 1.2971
 1.19885
 -3.61358
 -4.05728
 -3.62938
 1.44125
 1.21518
 1.49624
 1.24901
 7.41603
 7.49962
 7.48708
 7.55516
 -5.90699
 -5.98997
 -6.10224
 -5.90643
 0.444914
 0.486077
 0.339686
 0.532396
 -2.25438
 -2.0679
 -1.83881
 -2.14181
 3.89577
 3.71446
 4.15842
 3.96634
 2.49748
 2.31801
 2.66356
 2.45058
 2.46899
 2.14671
 2.32795
 2.16364
 -4.36256
 -4.14804
 -4.41636
 -4.60541
 2.22661
 2.40253
 2.53433
 2.46381
 -5.72128
 -5.61282
 -5.80641
 -5.44993
 -1.24074
 -0.939346
 -0.936633
 -1.26476
 3.74554
 3.69958
 3.62098
 3.73344
 6.53532
 6.48024
 6.3378
 6.58268
 1.70364
 2.02848
 1.83239
 2.09291
 1.00862
 1.00401
 0.797645
 1.04944
 -1.70802
 -1.71642
 -1.55968
 -1.32702
 7.22852
 7.38379
 7.16283
 7.26348
 1.67836
 1.85202
 1.55219
 1.64103
 -5.20635
 -4.99297
 -4.95071
 -5.01222
 -2.72301
 -2.95318
 -2.85414
 -2.75465
 -2.7317
 -2.72627
 -2.97286
 -2.63513
 -2.58342
 -2.36125
 -2.28284
 -2.40497
 -2.84314
 -3.22332
 -3.01159
 -2.97683
 -0.306855
 -0.407733
 -0.30685
 -0.304251
 3.46972
 3.14784
 2.92538
 2.88595
 3.02769
 -1.02211
 -0.727601
 -0.831662
 -0.796427
 -0.97549
 -1.0451
 -0.694898
 -0.750146
 5.23811
 5.14984
 5.17027
 5.23882
 -3.58235
 -3.58485
 -3.45616
 -3.59875
 -2.15725
 -2.39128
 -2.67137
 -2.47863
 3.76403
 3.48042
 3.52484
 3.25545
 3.25435
 3.30201
 3.13028
 2.99148
 3.04747
 2.8953
 3.43151
 3.67301
 3.96694
 3.7927
 -0.940494
 -1.22355
 -1.14293
 -0.898069
 -5.39298
 -5.45596
 -5.33741
 -5.46841
 0.991287
 1.10957
 0.942496
 1.23116
 -4.49676
 -4.02593
 -3.87054
 -3.84863
 1.61639
 1.66588
 1.77157
 1.52982
 -0.970248
 -0.736523
 -0.579213
 -0.615805
 3.65508
 3.69339
 3.72991
 3.90353
 0.153359
 -0.122475
 0.262714
 0.0443319
 -0.310826
 -0.613383
 -0.758404
 -0.352005
 3.42003
 3.51014
 3.68863
 3.59362
 2.29629
 2.43646
 2.01501
 2.16997
 1.5086
 1.53952
 1.72449
 1.85098
 0.016576
 -0.105869
 -0.00256847
 -0.121246
 4.94512
 4.91301
 4.84442
 4.69459
 -0.609013
 -0.340718
 -0.500397
 -0.670766
 2.24272
 2.50773
 2.20206
 2.07395
 -1.41319
 -1.34352
 -1.40572
 -1.2068
 -3.57809
 -3.32045
 -3.53447
 -3.39969
 -4.64138
 -4.46725
 -4.445
 -4.54206
 -4.42144
 -4.60946
 -4.11072
 -5.85606
 -6.01224
 -6.15403
 -6.25686
 -2.78588
 -2.4907
 -2.19705
 -2.56298
 1.0801
 1.13384
 0.956754
 0.993523
 -4.65101
 -4.4469
 -4.25832
 -4.59236
 0.662793
 0.637648
 0.784301
 0.820589
 -0.10586
 -0.244644
 -0.167836
 -4.15465
 -4.40146
 -4.2494
 -4.21561
 -3.85771
 -3.5891
 -3.69797
 0.196964
 0.301112
 0.0806813
 0.00253674
 2.37293
 2.26053
 2.40296
 2.10157
 -1.19148
 -0.992221
 -0.920811
 -0.87741
 -4.43009
 -4.63419
 -4.48855
 -4.36554
 3.10957
 3.16362
 3.05483
 3.25853
 1.19362
 1.26967
 1.44029
 1.50065
 0.822792
 0.485066
 0.843004
 0.807261
 -1.51844
 -1.25828
 -1.4492
 -1.47943
 3.16938
 3.30903
 3.00809
 3.27034
 3.90983
 4.06334
 3.89518
 3.93647
 0.918115
 0.914062
 0.952745
 0.718288
 -5.52747
 -5.34435
 -5.315
 -5.38128
 2.86429
 3.10732
 2.83384
 2.97537
 3.7454
 3.56613
 3.79692
 3.5834
 -0.563257
 -0.217969
 -0.563565
 -0.526192
 2.96394
 2.8802
 3.00574
 3.87737
 3.70916
 3.77968
 -0.0700909
 0.106093
 -0.280895
 0.0227341
 3.60081
 3.68078
 3.83066
 3.61583
 3.67631
 3.90321
 3.72527
 3.7229
 -0.648857
 -0.726669
 -0.58076
 3.44451
 3.47888
 -3.3492
 -3.39848
 -3.8348
 -3.87434
 -1.17169
 -1.56489
 -1.55832
 -1.4189
 4.9792
 4.82646
 5.10744
 4.77454
 6.11513
 6.06106
 6.25224
 6.0622
 2.87806
 3.25436
 3.02904
 3.00509
 -4.01474
 -4.01029
 -4.16248
 -4.03789
 -1.05486
 -0.870524
 -0.746419
 -0.860938
 4.43588
 4.47936
 4.48863
 4.51391
 2.9658
 2.94381
 2.83569
 2.67293
 2.86689
 2.8269
 2.87793
 3.4005
 3.24996
 3.22338
 3.22491
 3.26776
 3.41738
 3.20951
 3.15945
 3.84174
 4.05424
 3.88012
 4.02553
 -4.88352
 -5.12637
 -4.94529
 -4.93338
 -4.5898
 -4.86117
 -4.43154
 1.06726
 1.2292
 1.03817
 1.31217
 3.05537
 3.32337
 3.01744
 3.09712
 -5.93628
 -6.14554
 3.86406
 3.99589
 3.96272
 4.08093
 0.322059
 -0.105975
 0.173887
 -0.0156177
 -0.524296
 -0.432726
 3.59875
 3.64639
 3.4408
 3.59118
 -4.77697
 -4.97719
 -4.65943
 -5.17319
 -5.59162
 -5.37225
 -5.52661
 -5.96581
 1.54685
 1.44256
 1.53134
 5.23347
 5.08332
 5.15737
 3.2827
 3.01871
 3.30273
 3.24115
 -2.07177
 -1.80854
 -2.26547
 -1.84426
 2.5029
 2.6705
 2.71192
 2.85416
 2.79561
 2.91398
 2.7102
 2.95826
 -1.00847
 -0.983606
 -1.10834
 -1.41326
 7.07603
 6.96913
 7.10255
 7.23726
 -1.70078
 -1.76179
 -2.00102
 -1.94923
 -1.92209
 -1.88494
 -2.1106
 -2.22337
 3.94613
 3.93772
 4.20853
 4.00682
 -3.81805
 -3.97625
 -4.0163
 -3.74326
 7.38259
 7.56918
 7.55157
 7.68327
 -4.71634
 -4.15098
 -4.17361
 -4.12584
 -2.9949
 -2.75384
 2.82151
 2.6783
 2.72274
 2.56412
 4.15573
 4.34673
 4.23499
 4.0846
 -3.62368
 -3.87024
 -3.81089
 -3.7085
 2.50649
 2.44424
 2.45925
 2.60009
 -5.57108
 -5.37841
 -5.51521
 3.10182
 3.27922
 3.3609
 4.40163
 4.18032
 4.12846
 -4.56327
 -4.70106
 -4.61435
 -4.50664
 3.05673
 3.17697
 3.18107
 3.17344
 -3.76273
 -3.79287
 4.45767
 4.31989
 4.46961
 4.42042
 0.793348
 0.547146
 0.546608
 0.762103
 2.77262
 2.88044
 1.96428
 1.52912
 1.58045
 1.83042
 2.7382
 2.77183
 2.75108
 2.96733
 -5.5526
 -5.85779
 -5.42081
 -5.5572
 4.21986
 4.30576
 4.26324
 -2.82729
 7.30237
 7.34344
 7.33193
 7.39754
 -3.65248
 -3.703
 -3.87392
 -3.38586
 2.77093
 2.74781
 2.38714
 2.48155
 -1.74213
 -1.60792
 -1.64578
 -1.70222
 2.7879
 2.93759
 3.02987
 2.83755
 -0.902152
 5.2201
 5.26645
 5.26771
 5.19768
 -0.923537
 -0.930181
 -0.852105
 -0.645973
 -2.8381
 -2.97758
 -3.12266
 -2.61916
 -2.78845
 -2.48995
 -2.84319
 -3.7372
 -4.04067
 -3.85235
 -3.87111
 3.84238
 3.76825
 3.53765
 3.65521
 -3.63432
 -3.63375
 -3.59551
 -3.86507
 4.56157
 4.59436
 4.55305
 4.75737
 -3.34404
 -3.51475
 -3.62037
 -3.62753
 1.1924
 1.3265
 1.35897
 1.42401
 -1.625
 -1.79703
 -1.88451
 -1.94994
 0.217926
 0.341523
 0.421373
 0.495201
 -4.82661
 -4.41029
 0.538872
 0.760157
 0.723572
 0.548851
 5.09162
 5.17125
 4.94169
 5.16937
 4.515
 4.59419
 4.31345
 4.55395
 0.237073
 0.0238772
 -0.00949509
 -0.0309458
 -1.89205
 -1.88182
 -1.83167
 -2.17465
 -2.42034
 -2.1617
 -2.32571
 -2.495
 -4.23062
 -3.90117
 -4.00595
 -3.797
 -2.42453
 -2.79162
 -2.59136
 -2.43231
 4.49059
 4.49408
 4.3693
 4.61788
 3.66684
 3.68547
 3.72799
 3.42462
 -6.11491
 -5.896
 -5.81434
 -5.83656
 -0.148737
 -0.271704
 -0.208921
 -0.583532
 3.41334
 3.15855
 3.3982
 3.23652
 6.6671
 6.6957
 6.49182
 6.76607
 -3.7403
 -3.87768
 -3.60143
 -4.17335
 3.27388
 3.2328
 3.17728
 3.03793
 1.79168
 1.58553
 1.92602
 1.74114
 4.72432
 4.78379
 4.74302
 4.60253
 -0.711485
 -0.570538
 -0.689914
 -0.711693
 -4.40697
 -4.42628
 -4.31716
 -4.40388
 -0.258135
 0.103755
 -0.0207921
 0.0466368
 1.51278
 1.45768
 1.23034
 1.35385
 4.9274
 4.83227
 4.74473
 5.01978
 -4.41663
 -1.29971
 -1.49971
 -1.18567
 -1.49202
 1.77996
 1.89176
 2.08698
 1.99565
 -1.98941
 -2.15502
 -2.10807
 -2.3419
 3.35363
 3.51891
 3.43433
 3.28205
 -0.625604
 -0.799103
 -0.500888
 5.07812
 4.82194
 5.01692
 5.03276
 -2.99133
 -2.46913
 -2.78913
 -2.63162
 4.1752
 4.21082
 4.06951
 4.1761
 -6.93324
 -6.82625
 -6.90402
 -7.09186
 3.26415
 3.22925
 3.20004
 3.23219
 6.23276
 5.84365
 5.88137
 6.02395
 5.14364
 5.16584
 5.00635
 5.01824
 -6.03074
 -5.87503
 -5.77844
 -5.69646
 -4.91752
 -4.8979
 -5.07275
 -5.10648
 1.06472
 0.845823
 0.935172
 0.820852
 3.01663
 3.07656
 2.94033
 0.356386
 0.384252
 0.714618
 0.59391
 -1.20985
 -1.07467
 -1.3835
 -1.39151
 0.284165
 -0.188514
 -0.0298826
 0.0232533
 0.721327
 0.660615
 0.254461
 0.453222
 -5.95186
 -5.72044
 -5.73803
 -5.62481
 3.76544
 3.84896
 3.55476
 3.76116
 5.10098
 5.41217
 5.37734
 -1.87843
 -1.70032
 -1.76798
 -1.63679
 -3.45859
 -3.72994
 -3.54385
 -3.48329
 3.2735
 3.32005
 3.23124
 3.68983
 3.6514
 3.53436
 3.83223
 -4.08126
 -3.90511
 -4.18263
 -3.74593
 1.24314
 1.29957
 1.06547
 1.24195
 3.51827
 3.74636
 3.5595
 3.55617
 1.85629
 1.98598
 1.96276
 1.80234
 -3.00529
 -2.99646
 -2.74943
 -3.00378
 3.29279
 3.01141
 3.42605
 3.09115
 1.60221
 1.95655
 1.86842
 1.72879
 2.70757
 2.46163
 2.64387
 -4.82828
 -4.77081
 -4.56895
 -4.59155
 1.05686
 1.03384
 1.19733
 0.929194
 -6.18918
 -6.06391
 -6.59181
 0.587453
 0.445158
 0.508676
 0.585892
 4.84315
 4.6925
 4.94037
 4.86101
 -0.228243
 -0.287687
 -0.431257
 -0.660812
 0.791043
 0.473081
 0.87819
 3.19102
 3.13396
 2.94548
 3.05774
 4.26945
 4.20518
 4.32475
 4.16131
 3.32534
 3.19496
 3.06347
 3.3428
 6.33695
 6.2932
 6.11737
 6.09272
 2.17609
 2.23435
 2.33434
 2.35405
 2.73501
 2.83005
 2.52544
 2.87841
 -4.34121
 -3.93619
 -4.01638
 -4.49125
 4.24565
 3.98504
 4.07544
 4.13201
 -0.903019
 -0.788865
 -0.968671
 -1.07061
 -5.45857
 -5.51429
 -5.33355
 -5.19227
 -5.5267
 -5.13138
 -5.313
 -5.42694
 -2.70545
 -2.89486
 -2.70568
 -2.80168
 -5.60841
 -5.99916
 -5.96122
 -5.41319
 -4.36926
 -4.4076
 -4.36839
 -6.2559
 -5.77882
 -5.9179
 -5.919
 4.78877
 4.88308
 4.79978
 4.94189
 1.81355
 2.06837
 2.13145
 2.02668
 2.57119
 2.31342
 2.51164
 2.29628
 2.37188
 2.51004
 2.50475
 2.57123
 -4.65893
 -4.42882
 -4.64709
 -4.71878
 2.00153
 1.99006
 2.19144
 2.26251
 3.24629
 3.48868
 3.51459
 3.31672
 -1.4989
 -1.42145
 -1.70429
 -1.33517
 2.97898
 2.77715
 2.982
 2.82243
 -1.98928
 -1.77467
 -1.69148
 0.406269
 0.141452
 0.0938392
 -3.97195
 -3.65494
 -3.69316
 -3.78372
 1.83943
 1.74949
 1.92099
 1.92283
 -0.842916
 -0.608095
 -0.686373
 -0.893068
 2.44991
 2.72436
 2.60173
 2.38009
 -6.23001
 -6.07432
 -5.27722
 -5.15265
 -5.03168
 -5.38312
 4.93239
 5.00107
 5.00012
 5.11263
 -0.86465
 -1.07725
 -1.12361
 -1.32237
 3.1763
 2.93654
 3.13946
 3.27462
 7.92008
 8.16918
 7.93648
 8.01153
 3.2192
 3.31347
 3.44384
 3.30272
 -1.79698
 -1.53945
 -1.77782
 4.30709
 4.3322
 4.07537
 4.10562
 -5.29349
 -5.00944
 -5.37041
 -5.10567
 3.13503
 3.04915
 3.12078
 3.0302
 -0.634242
 -0.885181
 -0.779278
 -0.658226
 4.69297
 4.62366
 4.82304
 4.68027
 6.87422
 6.86876
 6.8046
 6.73294
 3.52697
 3.36265
 3.53284
 3.5862
 2.11179
 2.20311
 2.03069
 0.10526
 0.488766
 0.0857274
 0.249647
 3.87568
 3.85072
 4.05137
 -2.13862
 -2.02807
 -2.20793
 -2.38668
 -2.74063
 -3.15077
 -2.72651
 -3.08197
 -1.63084
 -1.3264
 -1.56323
 -1.61087
 -5.00454
 -4.36364
 -4.59665
 -4.67763
 -2.53863
 -2.34727
 -2.50482
 2.71086
 2.55712
 2.59136
 2.47969
 -2.19412
 -1.94359
 -1.18093
 -0.925381
 -0.835211
 -1.05672
 -1.72128
 -1.6117
 -1.65521
 -1.82046
 3.34838
 3.24442
 3.29099
 3.48269
 3.31807
 3.16235
 3.31921
 3.16089
 7.929
 7.81947
 7.78321
 7.85739
 3.35869
 3.18584
 3.35829
 2.57456
 2.66398
 2.71398
 2.64119
 0.783461
 0.78587
 0.921226
 0.972851
 2.58681
 2.36853
 2.35489
 2.50782
 4.85289
 4.74051
 4.87971
 4.87891
 -2.96195
 -2.59946
 -2.88526
 -2.67946
 1.12699
 0.951888
 1.13135
 1.29623
 -4.45886
 -4.4687
 -4.36305
 -4.5307
 0.04605
 0.276192
 0.0693786
 0.220466
 -4.70989
 -4.84626
 -4.75023
 6.69423
 6.53129
 6.59379
 6.5746
 -1.58809
 -2.00983
 -1.6783
 -1.71591
 1.50941
 1.7111
 1.46577
 1.57793
 3.71557
 3.8677
 2.47911
 2.43223
 2.3157
 2.36697
 1.69589
 1.96855
 1.91033
 -4.13165
 -4.22843
 -3.96919
 -4.16628
 -4.35217
 -4.18616
 -3.9539
 -4.07516
 3.81299
 3.86379
 3.7421
 3.84472
 1.32325
 1.39742
 3.01499
 2.79898
 2.94051
 3.11778
 -2.36299
 -2.14854
 -2.59032
 -2.60227
 4.83859
 4.81701
 4.86641
 4.75857
 3.52043
 3.4472
 3.61804
 3.63144
 3.09516
 2.86668
 2.76312
 2.87616
 0.444792
 0.480802
 0.463065
 0.131311
 -1.97061
 -1.92692
 -1.76407
 -1.75816
 -2.52578
 -2.3104
 -2.10625
 -2.37359
 7.35675
 7.38693
 7.4478
 7.50453
 4.24625
 4.05281
 3.98384
 0.0157833
 0.449804
 0.194165
 -0.240619
 -0.460236
 -0.216623
 -0.506809
 -4.46269
 -4.66631
 -4.5118
 -4.76313
 1.16004
 3.1607
 3.16404
 3.37918
 3.34105
 -1.04107
 -0.885359
 -0.658599
 -0.776789
 -2.79745
 -2.49164
 -2.5231
 -2.85141
 -3.34585
 -3.39872
 3.79672
 3.87236
 3.96957
 3.99997
 0.68605
 0.484473
 0.563099
 0.452252
 4.38752
 4.43995
 4.38481
 4.31582
 -0.375853
 2.13819
 2.28445
 1.93668
 1.8521
 2.61888
 2.46864
 2.37871
 2.51691
 -4.51574
 -4.19018
 -5.03187
 -5.25969
 -5.37099
 -5.15373
 5.7786
 5.92159
 5.84057
 5.77445
 -2.47864
 -2.5288
 -2.19617
 -2.64472
 -0.297895
 0.0250645
 -0.0924761
 -0.367857
 7.08302
 7.03243
 7.03192
 7.14799
 0.839442
 0.828935
 0.710083
 0.958386
 1.02566
 1.29443
 1.44124
 1.421
 3.77185
 3.97225
 3.71089
 3.79582
 -5.92282
 -6.17436
 -6.19673
 -6.21786
 1.27654
 1.52073
 1.49116
 2.77479
 2.55634
 2.55563
 2.75187
 -5.30308
 -5.70524
 -5.41358
 -5.47037
 2.82457
 2.94642
 3.12501
 2.75657
 1.5817
 1.41569
 -3.15839
 -3.1795
 -3.40441
 -2.93241
 0.0827471
 0.056109
 -0.246226
 -0.225496
 -5.05157
 -4.86939
 -5.15965
 -5.0257
 1.3987
 1.02849
 3.4264
 3.3439
 3.29515
 3.31335
 2.88701
 2.85102
 2.70389
 2.62892
 -3.47554
 -3.49639
 -3.15231
 -3.26946
 -2.60632
 -2.49052
 -2.69988
 -2.71095
 -2.32537
 -1.9991
 -2.29842
 -2.21643
 2.81702
 2.545
 2.65792
 2.80189
 5.84624
 5.96005
 5.90017
 5.84301
 -5.62064
 -5.90642
 -5.63034
 -5.7626
 3.94364
 3.9244
 3.89674
 3.78035
 0.272449
 0.0954428
 0.0264088
 0.240544
 2.33229
 1.98225
 2.22556
 2.09987
 0.298417
 0.589837
 0.341318
 -0.786677
 -1.10063
 -0.796047
 -1.15358
 0.956841
 0.775633
 0.908652
 1.0958
 -1.75657
 -1.8683
 -2.09246
 -1.69824
 -1.75885
 -1.66247
 -1.78221
 -1.34616
 7.06605
 6.81887
 7.05005
 4.63708
 4.43702
 4.34397
 4.42292
 0.264386
 0.440094
 0.366954
 0.384208
 -3.13277
 -3.42108
 -3.25531
 -3.44936
 3.16276
 3.41898
 3.16601
 3.02042
 2.89837
 2.88228
 -0.382137
 -0.252785
 -0.434416
 -0.437753
 0.412816
 0.189452
 0.100682
 0.0692274
 -7.29978
 -7.25095
 -7.11612
 -7.37801
 5.12363
 5.0578
 5.18219
 5.41137
 -2.09078
 -2.19734
 2.07004
 1.83138
 1.81059
 2.03969
 -1.50577
 -1.67678
 -1.64755
 -1.71644
 -0.153638
 -0.213534
 -0.386711
 -0.279219
 1.81143
 1.80472
 1.592
 1.96809
 -1.12644
 -1.36982
 -1.28583
 -1.33907
 3.80221
 3.71808
 3.73763
 3.58579
 4.37977
 4.53321
 4.35443
 4.44279
 -3.00349
 -3.11672
 -3.34896
 -3.73352
 0.372876
 0.23341
 0.0434208
 6.13177
 6.20952
 6.06847
 -3.56078
 -3.75336
 -3.78879
 -3.87602
 -4.01126
 -3.92699
 -3.77416
 -3.73593
 0.838361
 0.777348
 0.705247
 0.598912
 -4.47906
 -4.65619
 -4.60765
 -4.61648
 -5.13365
 -5.45634
 -5.18893
 -5.51667
 1.73902
 1.62834
 1.44814
 1.68106
 -2.73057
 -2.8655
 -2.98282
 -2.95433
 -7.10417
 -7.16196
 -6.95222
 -7.22718
 -2.37833
 -2.38166
 -2.22755
 -2.61607
 0.148873
 0.481923
 0.340492
 0.584806
 -3.39778
 -3.51891
 -3.3119
 -3.23469
 -1.57396
 -1.5035
 -1.70885
 -0.605702
 -0.831454
 5.50111
 5.46333
 5.54345
 5.60337
 -0.492808
 -0.75367
 -0.675256
 -0.64649
 5.70862
 5.66214
 5.63135
 5.61867
 5.52809
 5.57332
 5.36691
 5.32696
 -0.0681577
 -0.198485
 -0.213369
 0.00572128
 2.12105
 2.12042
 2.3148
 2.03407
 -0.960653
 -1.24535
 -1.16709
 -1.1392
 0.653233
 0.836184
 4.66205
 4.76324
 4.71536
 4.55641
 -5.43699
 -5.55236
 -5.68452
 -5.50191
 1.98229
 2.13427
 1.77861
 1.93701
 -3.56124
 -3.45053
 -3.23773
 -3.43199
 4.61501
 4.76149
 4.61527
 4.69805
 -4.14944
 -4.57431
 -4.4524
 -4.50747
 -0.555946
 -0.221784
 -0.49188
 -0.461828
 3.05889
 3.27904
 3.43836
 3.31447
 -6.76245
 -6.65607
 -6.67672
 -6.51393
 2.65493
 2.40654
 2.60349
 2.65536
 1.66909
 1.98312
 1.7569
 1.91616
 -5.59522
 -5.64831
 -5.39621
 -5.69218
 0.845151
 1.18751
 1.07399
 1.08002
 -3.44571
 -3.64502
 -3.50207
 -3.42023
 -3.26553
 -3.0559
 -3.14023
 1.54781
 1.93018
 1.7743
 1.81801
 -3.19656
 -3.42999
 -3.25966
 -3.35691
 3.96262
 3.74495
 3.77451
 3.96413
 -3.94308
 -4.11812
 -4.10189
 -3.98859
 -3.80452
 -3.70113
 -3.85243
 -3.74933
 3.57741
 3.62627
 3.25769
 3.45352
 3.42445
 3.49665
 3.29631
 3.58525
 8.53574
 8.49472
 8.61934
 8.58451
 -2.43596
 -2.12311
 -2.15762
 5.42301
 5.17762
 5.16218
 5.28471
 -5.07073
 -4.81565
 -4.88133
 -4.91014
 3.64401
 -3.55665
 -3.25484
 -3.31716
 -3.53237
 -3.57762
 -3.30581
 -3.3464
 7.35193
 7.52302
 7.46882
 7.38848
 7.60853
 7.59165
 7.63122
 7.67912
 -4.92313
 -4.65729
 -4.87655
 -5.06924
 3.39928
 3.4905
 3.29685
 3.52922
 -1.46932
 -1.34695
 -1.63585
 2.42912
 2.61801
 2.44364
 2.73701
 1.55378
 1.54118
 1.6229
 -3.5406
 -3.44003
 -3.83722
 -0.285591
 -0.471394
 -0.49522
 -0.310827
 2.34337
 2.575
 2.57921
 2.41028
 3.61887
 3.54504
 3.653
 3.56652
 -1.46982
 -1.65042
 -1.67519
 4.69799
 4.59855
 4.88097
 4.8882
 3.44995
 3.0817
 3.34589
 1.74146
 1.36826
 1.45365
 1.59034
 3.70641
 3.50625
 3.51318
 3.58602
 3.54186
 3.28334
 3.23347
 3.30054
 -3.73835
 -3.52778
 -3.56669
 -3.51351
 1.28163
 1.48729
 1.34909
 1.21204
 2.73919
 2.76544
 0.16505
 0.333479
 0.223728
 0.468568
 -4.59872
 -4.91533
 -5.00999
 -4.94731
 -4.90633
 8.72175
 8.76329
 8.77856
 8.72252
 -2.84911
 -3.14565
 -2.96395
 -5.9845
 -5.9335
 -5.7701
 -5.93654
 -2.22842
 -1.85523
 -1.95052
 -1.87537
 3.68098
 3.60346
 3.49308
 3.68998
 1.48917
 1.66195
 1.71039
 1.72998
 -6.21288
 -6.2179
 -6.14488
 -6.08377
 -2.45131
 -2.23984
 -2.07343
 -2.28022
 4.81764
 4.98032
 4.9927
 4.73056
 1.82439
 1.78548
 1.72987
 2.09276
 2.15159
 2.04072
 1.9221
 2.11348
 8.74231
 8.76512
 8.76496
 8.73179
 3.97914
 4.02352
 4.08218
 3.90246
 -2.43498
 -2.78267
 -2.43509
 -2.60235
 -0.491434
 -0.467018
 -0.717329
 -0.388789
 1.17579
 1.03101
 0.827648
 1.08344
 -1.78205
 -2.06701
 -1.9749
 -1.96944
 -0.59174
 -0.6106
 -0.827019
 -0.578427
 -1.95886
 -1.94479
 -1.75131
 -2.25672
 -6.82657
 -6.39163
 -6.51016
 -6.93191
 -2.8807
 -2.72228
 -2.66351
 -2.29463
 -1.79588
 -1.60903
 -1.4506
 -1.73972
 -1.3775
 0.237223
 0.252308
 0.412268
 0.000563613
 -5.01886
 -4.91866
 -4.85179
 -4.85691
 1.3498
 1.4962
 1.26701
 1.35406
 -0.2876
 -0.403433
 -0.537846
 -0.130394
 0.62337
 0.885466
 0.700142
 0.490672
 2.27594
 2.59511
 2.35127
 2.55328
 6.52404
 6.44
 6.22552
 6.52781
 -7.14805
 -6.74393
 -1.10614
 -0.947343
 -0.930621
 8.16064
 8.1548
 8.1638
 3.11044
 3.2666
 3.16591
 3.34232
 5.51005
 5.47492
 5.73688
 5.75373
 4.05304
 4.15528
 4.00717
 4.27832
 -5.24436
 -4.83728
 -5.03119
 -5.05158
 0.266556
 0.561636
 0.452363
 0.599001
 -1.53353
 -1.84193
 -1.80993
 -2.06352
 -0.53092
 -0.489197
 -0.282755
 -0.148093
 -1.97462
 -2.06701
 -1.85443
 -1.91322
 1.06946
 1.06881
 -3.46144
 -2.84302
 -3.42591
 -2.90391
 -2.15313
 -1.97367
 -1.84239
 -2.33609
 3.17754
 3.42289
 3.14386
 3.38413
 3.19453
 3.12855
 3.1351
 3.11185
 -0.111281
 -0.135578
 -0.038978
 -0.221117
 0.0763144
 -0.0587924
 -0.227778
 -0.404195
 4.1139
 4.37586
 4.44531
 4.05934
 -1.9082
 -1.72252
 -1.62977
 -1.58966
 -6.53293
 -6.37525
 -6.48866
 -6.41091
 -3.72297
 -3.56664
 -3.6005
 -3.4747
 -6.8418
 -6.97404
 -6.73828
 -7.02961
 -4.10493
 -4.38421
 -4.30444
 -4.32445
 0.382671
 0.0663637
 0.351434
 0.276852
 -1.56961
 -1.37916
 0.942264
 0.638499
 1.01592
 0.843767
 3.27119
 3.07824
 3.09898
 3.02283
 -2.66431
 -3.01272
 -3.03022
 -2.75169
 1.03796
 1.10611
 1.02829
 1.29876
 1.70036
 1.88413
 1.94644
 1.84218
 3.61155
 3.60337
 3.50128
 3.33257
 2.80695
 2.84787
 2.94581
 2.62012
 3.4117
 3.28662
 3.23935
 3.34379
 6.35646
 6.32215
 6.44057
 6.40581
 -2.42467
 -2.52178
 -2.21813
 -2.4561
 -1.30612
 -1.38471
 5.96699
 5.89512
 5.91778
 6.10769
 2.49417
 2.41874
 -1.04292
 -0.83986
 -1.08164
 -3.54723
 -3.59938
 3.99585
 4.02805
 4.12122
 3.88803
 6.14235
 6.03125
 6.04343
 5.99356
 4.3217
 4.21092
 4.09015
 4.04534
 2.52701
 2.38934
 2.3289
 2.27996
 -0.613262
 -0.291491
 -0.283649
 -0.310486
 -1.52348
 -1.40812
 -1.37348
 -1.32157
 2.63657
 2.41719
 2.40309
 2.46552
 -0.236206
 -0.203786
 -0.324087
 0.0517849
 0.461238
 0.638029
 0.691763
 0.562213
 0.163684
 -0.0197346
 -0.145672
 -0.0134018
 -0.0465728
 0.309255
 -0.0703723
 0.953994
 1.13636
 0.754934
 0.91627
 2.07989
 1.98148
 2.22538
 2.12629
 3.42848
 3.25652
 3.53492
 3.26885
 -4.9927
 -4.90457
 -5.07824
 -5.25091
 1.2973
 1.30323
 1.06682
 1.07404
 4.40333
 4.4115
 4.68269
 4.46767
 4.80975
 4.80122
 4.84706
 4.91505
 4.27106
 4.3975
 4.38903
 4.30505
 3.48029
 3.50111
 3.25844
 3.21504
 3.46702
 3.59913
 3.65503
 3.56673
 -4.48441
 -4.65423
 -4.64427
 -4.69864
 1.59234
 1.59795
 1.64771
 1.41247
 -2.15603
 -2.34344
 -2.13489
 -2.03622
 3.38047
 3.12451
 3.43949
 3.2409
 -5.256
 -5.36972
 -5.34673
 -5.63676
 -5.72577
 -5.68137
 -5.94508
 -2.02226
 -1.49162
 -1.67223
 -1.69079
 3.04982
 2.95118
 3.17881
 3.00088
 -6.40858
 -6.05047
 -6.13002
 1.8813
 2.06652
 1.94554
 2.23933
 -4.06063
 -4.10594
 -3.48984
 -3.58733
 -3.83662
 -3.51359
 2.26398
 2.4096
 2.32055
 4.55209
 4.47627
 4.70418
 4.62495
 3.34796
 3.47653
 3.27213
 3.25325
 0.548224
 0.270709
 0.612708
 -5.56024
 -5.05
 -5.0957
 -2.01652
 -1.71488
 -1.60668
 -1.77805
 -5.58836
 -5.53207
 -5.16303
 -5.84997
 1.69336
 1.43956
 1.31943
 1.48277
 -4.23793
 -4.3143
 -4.46105
 -4.02433
 0.372425
 0.313087
 0.493183
 0.605449
 2.84264
 3.04837
 2.93716
 -6.1894
 -5.93755
 -6.07623
 -6.46519
 -1.25492
 -0.347709
 -0.655965
 -0.56606
 -0.414039
 -0.792095
 -0.815043
 -0.614764
 2.97369
 3.0953
 3.08902
 3.0981
 3.10511
 2.8379
 1.53556
 1.77912
 1.79892
 1.85286
 1.62512
 1.34204
 1.56309
 1.39839
 -1.82171
 -6.46174
 -6.05604
 -5.97094
 -6.23578
 6.9656
 7.14674
 7.03528
 7.05199
 2.49749
 2.64302
 3.00537
 3.0788
 2.98051
 2.92809
 3.12714
 3.10142
 3.38242
 3.27713
 -2.21647
 -1.88787
 -1.93244
 -2.10022
 -2.45871
 -2.61107
 -2.27833
 -2.49977
 2.63932
 2.82233
 -1.54755
 -1.56498
 -1.91439
 -1.68507
 -1.69798
 -1.99122
 -1.71595
 -0.19318
 -0.0115399
 0.126981
 0.214073
 1.27636
 1.50197
 1.30148
 1.5116
 -2.26847
 -2.6373
 -2.59577
 -2.31447
 -3.20057
 -3.30661
 -3.47181
 -3.21719
 -2.76495
 -3.06647
 -2.83443
 -2.43193
 -2.53372
 -2.45895
 -2.22191
 1.59909
 1.52977
 1.50574
 1.69211
 5.3753
 5.40874
 5.29657
 5.27817
 2.20146
 2.23426
 2.34855
 2.2913
 -3.2033
 -2.92083
 -2.7293
 -2.99472
 -1.49862
 -1.40567
 -1.37931
 -1.63543
 2.12483
 1.99279
 1.91711
 1.88425
 -1.45472
 -1.17438
 -1.34666
 -1.43759
 0.00153421
 -0.0890519
 0.294547
 -0.0863863
 0.00557792
 -0.248049
 -0.153886
 -0.233525
 -1.31383
 -1.47934
 -1.46823
 -4.80617
 -4.88449
 -4.73471
 -4.79422
 2.2839
 2.05712
 2.16517
 2.13212
 0.913088
 0.660267
 0.697955
 0.762346
 5.15085
 5.27047
 5.25169
 5.07879
 3.58053
 3.41768
 3.44554
 3.55015
 3.30119
 3.63696
 3.48436
 3.67971
 3.7055
 3.58924
 3.61721
 3.53753
 0.0761736
 0.223969
 0.164628
 4.46597
 4.5047
 4.41396
 4.37879
 3.94354
 3.86351
 3.71064
 3.91565
 -6.20702
 -5.93747
 -5.91334
 -6.0958
 -0.056324
 0.0948417
 0.206912
 0.308877
 -3.21747
 -3.24868
 -3.11307
 -2.96257
 -0.542143
 -0.663675
 -0.48735
 -0.32394
 -1.23769
 -1.45307
 -1.24759
 -1.3177
 2.9881
 3.17391
 3.07848
 3.33689
 0.697983
 0.228181
 0.588358
 0.545
 -3.31356
 -3.49932
 -3.27351
 -3.36027
 -0.695782
 -0.595613
 -0.944155
 -0.872069
 3.78202
 3.87846
 3.65023
 3.58044
 -4.80535
 -4.90469
 -4.85302
 -4.94561
 1.98585
 2.19429
 3.97473
 0.696485
 0.578719
 0.414443
 0.756119
 1.34327
 1.12679
 1.38882
 1.43555
 5.9662
 5.99744
 5.80804
 2.35518
 2.56466
 2.61647
 2.74354
 -0.615591
 -1.04357
 -0.868466
 -1.09263
 0.408849
 0.206147
 0.327526
 0.409693
 -4.46683
 -4.5937
 -4.6203
 -4.53884
 3.50133
 3.16454
 3.39807
 3.09667
 3.10746
 3.17123
 2.88855
 5.58993
 5.8485
 5.71708
 5.59941
 3.59433
 3.35169
 3.51666
 -0.468769
 -0.991969
 -0.55099
 3.73247
 3.75472
 3.9245
 3.84121
 1.28265
 1.05722
 0.999348
 1.0253
 8.71969
 8.72453
 8.71867
 8.62425
 1.60754
 1.69532
 1.67838
 4.43513
 4.47002
 4.43621
 4.43322
 1.59764
 1.71201
 1.91657
 1.72432
 3.86163
 3.67893
 3.69051
 3.6067
 -1.75519
 -1.86813
 -1.6976
 -1.9383
 -2.47303
 -2.25221
 -2.45108
 -2.56758
 -5.72548
 -5.71964
 -5.85778
 -5.53599
 -0.211176
 0.115245
 -0.14945
 -0.239453
 3.9609
 4.16758
 3.97996
 4.09642
 2.81251
 2.90323
 5.16822
 5.16754
 5.10194
 5.10772
 1.08482
 0.988961
 2.33321
 1.98595
 2.05637
 3.27084
 3.14436
 3.04202
 3.1652
 -5.11855
 -5.22701
 -4.82782
 -4.88436
 -4.70905
 -4.62579
 -4.50857
 -4.65668
 3.01291
 2.92288
 3.05053
 3.24416
 4.46809
 4.41435
 -0.537563
 -0.621223
 -0.545172
 -0.802308
 3.21756
 3.30964
 3.12965
 3.15595
 1.98087
 2.26347
 1.77621
 -7.04791
 -7.14863
 -6.90186
 0.500901
 0.175571
 0.306278
 0.289288
 -3.97795
 -4.32723
 -3.91972
 -3.77158
 0.0773492
 -0.162993
 -0.21532
 0.0973082
 -2.21909
 -2.44243
 -2.49028
 -2.07432
 4.03158
 3.85119
 4.00494
 4.0859
 3.24627
 2.97494
 3.32844
 3.0533
 -0.00314732
 0.254452
 -0.224556
 0.096625
 2.2204
 1.96688
 1.89814
 2.24481
 4.02312
 3.94396
 3.87104
 3.67803
 1.24595
 1.13072
 0.982634
 0.859355
 -1.3274
 -1.37766
 -1.19804
 0.208219
 -0.0515484
 0.127095
 -0.0238997
 7.91762
 7.7567
 7.6733
 7.77906
 4.46361
 4.46514
 4.42985
 4.45006
 2.37132
 2.39061
 2.38649
 2.16551
 6.12931
 5.97286
 6.21597
 6.06332
 -4.0629
 -4.0314
 -3.80749
 -6.02734
 -5.824
 -5.57862
 -5.795
 -2.69439
 -3.18174
 -2.98828
 -2.99024
 0.300116
 -1.26409
 -1.58168
 -1.69294
 -1.45714
 0.694577
 0.507872
 0.813843
 0.806522
 4.17803
 4.3829
 4.26706
 3.09989
 3.03806
 2.97633
 3.27595
 7.85977
 8.02398
 7.88077
 8.08933
 5.77707
 5.7908
 5.71043
 5.76632
 2.49385
 2.49878
 2.3527
 2.21574
 -6.29055
 -5.89698
 -6.02142
 -5.98567
 7.44564
 7.43696
 7.27975
 7.3293
 -1.88956
 -2.13724
 -1.70708
 -1.9902
 0.23556
 0.219478
 -0.0263465
 0.193728
 2.95741
 3.32318
 3.31796
 1.00082
 1.26306
 1.3119
 1.29998
 -5.86304
 -5.92876
 -6.0127
 4.03065
 3.70962
 3.66098
 1.56186
 1.46115
 1.19735
 1.25068
 2.51319
 2.57285
 2.63048
 2.68811
 2.28923
 2.33429
 2.07534
 2.0222
 4.42699
 4.54875
 4.54593
 4.33298
 1.05745
 0.889855
 1.13617
 0.865288
 -5.28402
 -4.82457
 -4.84329
 -4.61355
 -4.36778
 -4.26909
 -4.23061
 -4.51616
 4.77147
 4.75166
 4.71601
 4.77428
 -3.76318
 -3.86837
 -3.83521
 -3.5192
 -4.92194
 -5.29861
 -5.18308
 -4.8233
 -3.72385
 -3.71543
 -3.37998
 -3.41991
 -1.0822
 -1.01473
 -1.23401
 -1.11796
 0.590431
 0.773132
 0.498604
 2.48441
 2.8221
 2.71432
 2.6527
 -2.46536
 -2.27905
 -2.0963
 -2.45856
 -2.68327
 -2.78565
 -2.93815
 -2.84804
 -7.18838
 -7.19291
 -6.79355
 -7.0356
 5.89509
 5.7698
 5.80774
 5.77934
 5.10984
 5.19375
 5.1521
 5.0256
 4.34389
 4.37418
 4.11603
 4.38522
 2.29755
 2.60243
 2.39175
 2.40435
 1.99343
 1.96775
 1.97991
 -5.07661
 -5.28629
 -5.57404
 -5.39775
 -2.97322
 -2.85824
 -2.70504
 -2.68715
 1.0218
 1.19612
 1.26842
 1.12509
 -4.53031
 -4.71967
 -0.426359
 -0.439625
 -0.433194
 -0.189113
 -4.28231
 -4.41752
 -4.74666
 -4.46023
 -0.0189116
 -0.351582
 0.0518911
 -0.390863
 2.54463
 2.39486
 2.71898
 2.59068
 5.04469
 5.18463
 5.06578
 4.91435
 8.0193
 7.86684
 8.08799
 7.94692
 -3.91748
 -3.79431
 -3.75074
 -3.96918
 -4.77629
 -4.80227
 -4.83729
 -5.0283
 1.59604
 1.88235
 1.69653
 1.8365
 0.44026
 0.576227
 0.614088
 0.425375
 3.39221
 3.59434
 3.25047
 -0.837646
 -0.637471
 -0.658988
 -0.543715
 3.44794
 3.49358
 3.34908
 3.34435
 0.81921
 1.05872
 1.25238
 1.10125
 -1.24707
 -1.10227
 -1.18636
 -1.27853
 0.176304
 0.261553
 0.341971
 -3.86174
 -3.57666
 -3.68122
 -3.67516
 -0.933031
 -1.25819
 6.27312
 6.00924
 6.30884
 6.18406
 -2.3851
 -2.20959
 -2.33246
 2.93788
 2.87131
 2.86595
 2.94041
 -0.79705
 -0.76629
 -0.67539
 0.680448
 0.919884
 0.64946
 0.818925
 -0.7835
 -0.478456
 -0.931655
 -0.682378
 -1.02796
 -1.33157
 7.22605
 7.2215
 7.34102
 7.22628
 7.74513
 7.92093
 8.00205
 7.83278
 0.452566
 0.756614
 0.63736
 0.764488
 -0.612986
 -0.452303
 -0.595025
 -0.389942
 7.10667
 7.13749
 7.09881
 6.9648
 3.09056
 3.32911
 4.46817
 4.42411
 4.36112
 4.18723
 -1.07883
 -0.9867
 -1.34552
 -1.13857
 -0.418562
 -0.491415
 -0.732276
 -0.3075
 -0.876406
 -0.582176
 -0.517531
 -0.581866
 2.53239
 2.5146
 2.31219
 2.53488
 3.84011
 3.89793
 4.07864
 3.81972
 5.44283
 5.23441
 5.25643
 5.43449
 3.79522
 3.79858
 3.79151
 3.46958
 -2.43205
 -2.24112
 -2.51746
 -2.36287
 0.457251
 1.03109
 0.743054
 6.05602
 5.95511
 5.8138
 -1.53754
 -1.96064
 -1.73499
 -1.72817
 -1.8441
 -1.35698
 -1.59981
 -1.70417
 1.53722
 1.69582
 1.7818
 1.2139
 1.12525
 0.904119
 1.11731
 3.93487
 4.05672
 4.10294
 4.10075
 -3.36143
 -3.25771
 -3.4773
 -3.37053
 4.3451
 4.38707
 4.37571
 4.3012
 4.46181
 4.57439
 4.46719
 -6.00985
 -6.39573
 -6.55882
 -6.28121
 -3.55904
 -3.75626
 2.87322
 2.97053
 2.75735
 2.81977
 0.68065
 0.406828
 0.67125
 1.17639
 1.29758
 1.24062
 1.46472
 4.01123
 3.83785
 3.93632
 -3.08633
 -3.2733
 -2.86296
 -2.98998
 3.99312
 3.71181
 3.91235
 3.95824
 -1.95442
 -1.71166
 -1.58879
 -1.69316
 4.27012
 4.17484
 3.76505
 3.99189
 3.82191
 3.91487
 3.01247
 3.12512
 3.06667
 3.00271
 5.74322
 5.81547
 5.98921
 5.84922
 -2.52768
 -2.81953
 2.35176
 2.21131
 2.1809
 2.20418
 -5.76735
 -5.64728
 -5.71735
 -5.85302
 2.45779
 2.59368
 2.31576
 2.13758
 -3.01447
 -3.31047
 -3.39489
 -3.39805
 -4.65204
 -4.98318
 -4.46315
 -4.8915
 -1.92033
 -1.62158
 -4.91741
 -5.1812
 -5.09394
 -4.9883
 3.98548
 4.01447
 4.03225
 3.82851
 -4.88119
 -4.97211
 -5.00036
 -4.8625
 -6.15319
 -6.48788
 -6.4181
 -6.19454
 -0.516129
 -0.528276
 -0.778256
 -0.697136
 1.00158
 1.10559
 0.828326
 0.701445
 -4.35189
 -3.98464
 -4.21754
 -4.36127
 6.06581
 5.86619
 5.99279
 6.11142
 -4.1821
 -4.57022
 2.32494
 2.16899
 2.13809
 1.92055
 -3.9939
 -3.84721
 -3.59195
 -3.62417
 3.89146
 3.69208
 3.72719
 3.73936
 1.85426
 2.1964
 2.07401
 1.89979
 3.48357
 3.54649
 3.27991
 3.91827
 4.02798
 3.90716
 4.09773
 4.35339
 4.18697
 4.23819
 4.15466
 -0.616925
 -0.436555
 -0.353701
 -3.69442
 -3.72287
 -3.97621
 -3.95242
 0.107734
 0.24774
 0.353445
 3.88852
 4.03956
 3.92526
 0.618214
 0.253703
 0.570935
 0.350488
 -0.866975
 -0.817447
 -0.886149
 -1.20181
 1.34968
 1.07604
 1.03669
 1.13818
 1.65712
 1.77198
 1.84328
 2.00296
 2.14011
 2.17666
 1.77849
 1.64744
 1.50148
 1.89395
 -3.81086
 -3.70491
 -3.80948
 -3.57061
 -1.72423
 -1.53855
 -1.70463
 -1.81572
 1.15945
 1.08962
 1.21619
 0.853787
 3.97457
 4.12293
 4.00235
 0.056697
 0.220226
 0.0651796
 0.0160991
 2.75303
 3.03896
 2.92513
 3.05815
 6.73416
 6.67193
 6.76737
 6.82078
 2.0136
 2.13944
 2.06591
 2.08662
 -4.1376
 -4.06605
 -4.3588
 -4.2486
 2.12294
 1.84641
 2.00186
 2.14036
 4.21547
 4.22617
 4.14619
 4.07324
 3.9431
 4.06653
 4.05983
 1.14566
 1.10091
 1.1697
 -1.05415
 2.20723
 2.56696
 2.35596
 2.36358
 -4.63448
 -4.56292
 -4.74754
 -4.12317
 -4.18727
 -4.31258
 2.22329
 1.99162
 2.16707
 2.0274
 -6.21141
 -6.33695
 -6.42238
 -6.44638
 3.79692
 -0.354748
 -0.115691
 -0.30205
 -0.219628
 3.68565
 3.59845
 3.62927
 3.58766
 -4.51687
 -4.69228
 -4.28365
 -4.52084
 -1.41472
 -1.81429
 -1.65989
 -1.50032
 -2.70792
 -2.87828
 -2.52915
 -2.60627
 4.3419
 4.28056
 4.19832
 4.3439
 2.72799
 2.53386
 2.74358
 2.73169
 0.0594121
 0.21985
 0.0027161
 0.266281
 2.43564
 2.68017
 2.34618
 2.58352
 -1.22538
 -1.34114
 -1.59881
 -1.53455
 3.66501
 3.74625
 3.53497
 3.54891
 2.84598
 2.74282
 2.55022
 2.66757
 -0.46737
 -0.496296
 -0.457586
 -0.77717
 -4.73294
 -5.05848
 -4.87304
 -5.0853
 4.35917
 4.30448
 4.14197
 4.20479
 5.62716
 5.85581
 5.61611
 5.64091
 -4.71679
 -4.98497
 -4.86066
 -4.9214
 5.54148
 5.71159
 5.32634
 5.41508
 5.4547
 5.26774
 0.63332
 0.504523
 0.72793
 0.883036
 2.75409
 2.61611
 2.62119
 2.83656
 -7.03662
 -7.13414
 -7.11506
 -6.94271
 -4.46181
 -4.43166
 -4.79139
 -1.37045
 -1.3436
 -1.58111
 -1.25944
 3.9861
 3.93123
 4.13571
 3.86564
 2.91169
 2.95334
 3.02725
 3.11026
 2.96847
 2.81759
 -1.40766
 -1.85274
 -1.70898
 -1.52089
 -0.933414
 -0.934204
 -0.69984
 -0.997955
 -1.77282
 -1.73872
 -1.47325
 -1.76201
 -5.96925
 -6.01435
 -5.50734
 -6.13914
 -2.3553
 -2.36054
 -2.08535
 1.92189
 0.167616
 0.237923
 0.163804
 0.358755
 0.0535837
 0.341063
 0.25206
 0.161633
 -3.41164
 -3.27955
 -3.25381
 -3.09951
 -2.3527
 -2.17467
 -2.19305
 -2.44993
 -0.577442
 -0.347051
 -0.333377
 2.33369
 2.49187
 2.28099
 2.61505
 0.261024
 -0.153652
 0.0920136
 0.0454394
 2.10656
 1.95713
 2.22343
 7.37706
 7.38205
 7.48699
 7.30383
 -3.64055
 -4.11367
 -3.91796
 -3.72353
 -3.31952
 -3.81246
 -3.54631
 7.23274
 -0.0348942
 -0.0942027
 0.000617607
 -0.321789
 -0.507474
 -0.557723
 5.21306
 5.17267
 5.19574
 5.1298
 4.27789
 4.20975
 4.00988
 4.29232
 3.1585
 3.03971
 3.08947
 3.28598
 3.51088
 3.40542
 3.2789
 3.51386
 3.5377
 3.36032
 1.83739
 2.01977
 2.09064
 2.10236
 1.62456
 1.38122
 -7.32402
 -7.3361
 3.87757
 3.55607
 3.90299
 3.69607
 1.19251
 1.26945
 1.09701
 1.37371
 4.46825
 4.4072
 4.72581
 4.63462
 -3.92956
 -4.10966
 -3.65388
 -3.84074
 -3.26024
 -3.02247
 -3.24413
 -2.99996
 -1.17328
 -1.37046
 -1.40891
 -1.27161
 0.134261
 0.0421211
 -0.32052
 -0.164892
 0.459735
 0.592749
 3.9324
 -2.04872
 -2.33755
 -2.28549
 -2.34092
 -5.7793
 -5.70442
 -6.1237
 -5.63034
 -3.50096
 -3.82313
 -3.43396
 -3.56687
 8.70878
 8.71127
 8.6872
 8.6399
 -5.62227
 -5.68146
 -5.56984
 -5.58135
 3.25874
 3.25386
 3.4606
 3.14107
 2.32568
 2.57923
 2.47917
 2.66186
 -1.67494
 -1.70965
 -1.85519
 -1.91352
 -1.70619
 -1.62818
 -1.49368
 -1.56387
 3.95581
 3.63158
 3.79879
 3.71836
 -5.2442
 -5.35291
 -5.20943
 -5.25569
 -4.02613
 -4.18375
 -4.1082
 -4.28037
 -2.07116
 -2.11977
 -2.32019
 -2.32697
 -4.34145
 -4.12255
 -4.24017
 -4.33724
 2.78066
 2.55273
 2.55223
 2.46926
 3.93219
 3.89019
 3.82636
 3.76982
 -3.71208
 -3.50482
 -3.40072
 -3.47071
 1.3946
 1.43824
 1.51366
 1.72178
 1.05101
 1.16868
 1.22055
 1.07157
 7.76753
 7.67619
 7.60706
 7.66646
 -5.41603
 -5.47976
 -4.53887
 -4.589
 -4.34331
 -4.75172
 4.75682
 4.9403
 5.00152
 4.71577
 2.68639
 2.97675
 2.98452
 3.08752
 -4.11282
 -3.92407
 -4.26265
 -4.30905
 1.80291
 1.7274
 1.86393
 1.61285
 2.10326
 2.02944
 2.29553
 2.27603
 -5.81993
 -5.89478
 -5.73957
 -5.68644
 0.178599
 0.253255
 0.171419
 0.0656631
 0.775892
 0.693613
 0.755444
 0.931358
 -2.75189
 -2.8869
 -2.97123
 -2.79376
 -1.27285
 -1.18342
 -1.1033
 -0.945616
 1.68722
 1.65431
 1.95501
 2.6775
 2.49149
 2.61303
 2.28439
 5.20058
 5.28054
 5.30931
 5.02346
 2.33142
 2.19223
 2.14674
 2.10392
 0.444823
 0.595814
 0.476809
 0.660591
 -5.94812
 -6.04843
 -6.01259
 -5.66057
 2.30379
 1.89649
 2.11354
 2.12255
 4.615
 4.61778
 4.76508
 4.8806
 -1.92708
 -2.1926
 -2.06335
 -1.86256
 -0.787553
 -0.73859
 -0.608077
 0.307292
 -0.0310259
 -0.085485
 -0.171757
 5.37527
 5.38021
 5.36899
 5.22604
 -0.0818136
 0.154325
 0.0604815
 0.246047
 -5.076
 -5.1071
 -5.09436
 -5.14371
 0.183399
 0.189665
 0.114394
 0.0289652
 4.41857
 4.53791
 4.46287
 4.39478
 3.63104
 3.48001
 3.64659
 3.82088
 -7.46906
 -7.37611
 -7.48381
 -7.49088
 2.81238
 2.76112
 2.79613
 3.08834
 -0.703023
 -0.30299
 -0.413074
 -0.52359
 -7.18294
 -7.21301
 -7.02483
 -7.01086
 -4.61252
 -5.00359
 -4.78642
 -1.95931
 -1.93189
 -2.25483
 -2.34656
 -3.94931
 -3.99122
 -4.34223
 -3.85
 6.87229
 6.75373
 6.64081
 6.68308
 3.46058
 3.23515
 3.55415
 -5.3814
 -5.68051
 -5.6207
 -5.67442
 -0.582114
 -0.504941
 -0.770003
 -0.410229
 -2.80712
 -2.72818
 -3.0782
 -2.55001
 4.27151
 4.29245
 4.46432
 4.55255
 1.8654
 1.59291
 1.90262
 1.69972
 -1.28029
 -0.857526
 -0.998197
 5.05899
 4.98706
 4.88875
 4.90478
 3.75352
 4.07578
 3.94941
 4.02645
 2.12361
 -5.40445
 -5.5697
 -5.44784
 -5.65692
 6.54064
 6.54113
 6.68755
 6.69434
 -2.66968
 -3.13366
 -2.90063
 -3.19489
 -0.868755
 -0.680567
 -0.759671
 -0.488979
 7.44587
 -3.41846
 -3.20432
 -3.55285
 -5.27382
 -5.6461
 -5.42708
 -5.45662
 1.11744
 1.07944
 0.710415
 0.973422
 -1.305
 -1.29698
 -1.51099
 -1.14666
 3.31461
 3.52723
 0.663753
 0.784086
 0.782668
 0.517163
 3.31058
 3.44361
 3.56651
 3.38926
 2.53038
 2.62726
 2.3025
 2.30496
 -1.88659
 -1.69669
 -1.88583
 -1.96278
 5.94202
 5.95935
 5.9607
 5.74311
 3.9931
 4.10843
 4.02504
 4.16663
 5.60323
 5.45909
 4.56828
 4.57198
 4.55064
 4.56115
 4.78944
 4.92675
 4.70875
 4.88816
 -5.74005
 -5.62623
 -5.3636
 -5.37081
 -0.47167
 -0.464513
 -0.355112
 -0.744302
 1.90614
 1.57774
 1.79331
 1.76527
 0.193382
 0.290507
 0.352874
 0.11353
 -5.72688
 -5.67577
 5.1388
 5.2326
 5.21145
 5.13604
 -5.65261
 -5.74472
 -5.50708
 6.33212
 6.38967
 6.34047
 6.42945
 -4.96508
 -4.64393
 -4.88824
 -4.68637
 2.35931
 2.52197
 2.29041
 2.53346
 1.28423
 1.25201
 1.36172
 -5.5163
 -5.34967
 -5.41292
 -5.56768
 -0.279318
 -0.0340978
 -0.311611
 -0.104773
 1.14027
 1.018
 0.805282
 1.02985
 2.2603
 2.3824
 1.70076
 2.10471
 1.81079
 1.96783
 -0.824756
 -0.543799
 -0.676643
 -5.93832
 -5.52928
 -5.48695
 -5.82187
 1.39987
 1.24123
 1.42491
 1.35776
 1.81641
 1.95485
 2.70525
 2.92252
 2.98149
 2.77598
 6.11795
 6.09096
 5.91998
 -0.204764
 -0.262261
 0.0707421
 0.0774859
 -5.55297
 -5.57012
 -5.59304
 5.59039
 5.69985
 5.58858
 1.324
 1.49867
 1.3793
 1.60168
 -1.48062
 -1.48697
 -1.17472
 -1.28367
 6.75038
 6.81768
 6.76704
 6.73409
 -3.88564
 -3.97493
 -3.81382
 -3.76821
 -1.65895
 -1.47066
 -1.50259
 -1.39475
 -3.51575
 -3.60041
 -3.41206
 -5.30275
 -5.37244
 -5.75831
 -5.51115
 0.415566
 0.716308
 0.453549
 0.412456
 -4.87369
 -4.78598
 -4.7076
 -4.6422
 2.36514
 2.43903
 2.28585
 2.54873
 -5.82183
 -1.04619
 0.792727
 0.899049
 0.672071
 0.969155
 -0.850846
 -0.783778
 -0.564958
 -0.521478
 -2.33232
 -2.40434
 -2.23527
 -2.00689
 -0.86607
 -0.758169
 -1.05008
 -0.920104
 -2.7667
 -2.58269
 -2.82503
 -2.78439
 0.779567
 0.932716
 0.83765
 0.628064
 1.11799
 1.03855
 0.992004
 0.881394
 1.87954
 1.93929
 2.02232
 1.74082
 0.936195
 0.946914
 1.16498
 4.20801
 4.16987
 4.20617
 4.05322
 0.564636
 -1.43228
 -1.75581
 -1.78493
 -1.62793
 -5.34964
 -5.37535
 -5.02441
 2.57363
 2.89693
 2.76731
 2.86257
 0.217919
 -0.0954133
 -0.0039918
 -0.939159
 -0.88573
 -0.716895
 -0.675984
 -1.53156
 -1.63487
 -1.89603
 -1.97484
 -4.3129
 -4.4633
 -4.64517
 -4.40079
 3.45045
 3.49516
 3.35531
 3.68022
 0.0510763
 0.21692
 0.262246
 0.364826
 0.95589
 1.0887
 1.25184
 0.966129
 1.22091
 1.36865
 1.40613
 1.56537
 0.704758
 0.793491
 0.647091
 0.918805
 -2.35839
 -1.88985
 -2.43033
 -2.10604
 1.18054
 1.56274
 1.41867
 1.36742
 5.19244
 5.1858
 5.19523
 5.1258
 5.42222
 5.29757
 5.32726
 0.701409
 0.659229
 0.447422
 0.409834
 0.561804
 0.477631
 0.369443
 0.282861
 0.995727
 1.20542
 0.854367
 0.860115
 -5.05445
 -5.09966
 -4.72859
 -4.77943
 -2.39899
 -2.13703
 -2.11078
 -2.40884
 2.91482
 2.77393
 2.80915
 2.75028
 4.10855
 3.87426
 3.91319
 4.20668
 -4.0862
 -4.00621
 -3.8369
 -4.09614
 6.46026
 6.5822
 6.54559
 6.36728
 2.13643
 1.90629
 2.03762
 2.06553
 4.56831
 4.43841
 4.46111
 3.54316
 3.42296
 3.3936
 3.22621
 -1.9177
 -1.8499
 -2.06396
 -1.6365
 3.46774
 3.75843
 3.65526
 3.56436
 5.28444
 4.89654
 5.15786
 6.71932
 6.56376
 6.46812
 6.5399
 -6.16611
 -6.26379
 -6.38311
 -6.61803
 3.22205
 3.36739
 3.24891
 3.16465
 -0.540299
 -0.183785
 -0.250865
 -0.467439
 -4.76074
 -4.57823
 -4.34321
 -4.54581
 -3.17648
 -3.52297
 -3.0531
 -3.24804
 3.03816
 2.99285
 3.14497
 3.04945
 4.72649
 4.93161
 5.10083
 4.88093
 -0.0329978
 -0.189755
 0.0763435
 -0.0640231
 4.64428
 4.39039
 1.64998
 2.00517
 1.92938
 1.7465
 1.38053
 1.40153
 1.54265
 1.30401
 1.68007
 1.65953
 1.78042
 4.18177
 4.11148
 4.18133
 -0.667598
 -0.67453
 -0.765355
 -0.841568
 -0.260641
 -0.226652
 -0.0431092
 -0.469159
 3.02289
 2.77061
 2.886
 2.99694
 -2.53299
 -2.81973
 -2.41895
 -2.54569
 0.785979
 1.09454
 0.927703
 0.690773
 4.38336
 4.38477
 4.42445
 4.3914
 2.11879
 1.9429
 2.10503
 -0.417349
 -0.40581
 -0.180886
 -0.370718
 0.490305
 0.33602
 0.183825
 -6.1076
 -6.01453
 -5.93687
 -5.87286
 5.65009
 5.7442
 5.62982
 5.88648
 2.42205
 2.18973
 2.21629
 2.36904
 2.58144
 2.6326
 2.82287
 2.57161
 -6.34237
 -6.25415
 -6.5859
 -6.79744
 -2.79122
 -2.93571
 -2.90781
 3.35726
 3.39347
 3.49137
 3.37162
 -3.0473
 -2.72511
 -2.86058
 3.21945
 3.20011
 3.35948
 3.31401
 8.01986
 7.91851
 7.99959
 7.91169
 -4.77415
 -4.87587
 -5.09125
 -4.72107
 4.14482
 4.20735
 4.29889
 4.46359
 -5.76699
 -5.69197
 -5.64772
 -5.71746
 3.64194
 3.39529
 3.58778
 3.47629
 7.93357
 8.12215
 7.96963
 7.96465
 5.07576
 5.26592
 5.09595
 5.00867
 4.05624
 3.90631
 3.76756
 4.09196
 0.776897
 1.12288
 4.15685
 4.11288
 4.43718
 4.39105
 -0.668911
 -0.525904
 -0.445976
 -0.298227
 1.0631
 1.05976
 1.18006
 0.852088
 -4.59435
 -4.24508
 -4.82415
 -4.88194
 -3.9514
 -3.81189
 -4.04305
 -4.09549
 -3.31171
 -3.08419
 -3.26779
 -3.05712
 -4.22177
 -4.28291
 -4.34895
 -4.15977
 -1.56228
 -1.48964
 -1.73881
 -1.54315
 -3.43465
 -3.72969
 -3.64731
 -3.52343
 5.46489
 5.71017
 5.73947
 5.44171
 -4.28824
 -4.46494
 -4.39323
 -4.3521
 1.76008
 1.94701
 2.06914
 1.97274
 -2.73356
 -2.29151
 -2.40362
 -4.00374
 -4.26474
 -4.25371
 -4.16445
 4.04678
 4.27514
 4.29522
 4.20919
 5.13004
 5.19064
 5.28532
 5.23649
 -2.05554
 -2.00988
 -1.86025
 -2.2746
 1.46841
 1.49663
 1.54753
 1.6948
 -1.55696
 -1.38042
 -1.53569
 -1.48359
 -1.49244
 -1.48481
 -1.98834
 2.06509
 2.13075
 2.32216
 -1.36384
 -1.47802
 0.0647173
 0.390208
 -5.92417
 -6.1029
 -6.08582
 -5.94255
 0.329868
 0.223966
 0.367996
 0.0836281
 -1.3568
 -1.23604
 -1.57954
 -1.23855
 -0.386461
 -0.52882
 -0.399448
 -0.626214
 -3.40646
 -3.10115
 -3.23269
 -3.06023
 -3.02246
 1.47674
 1.42958
 1.66983
 1.6751
 4.48901
 4.48842
 4.48596
 4.47213
 -1.41496
 -1.15037
 -1.42943
 -1.26857
 -1.59056
 -1.45333
 -1.36326
 -1.67095
 7.59683
 7.48678
 7.42934
 7.3123
 0.693096
 0.477835
 0.594612
 0.744342
 0.854023
 1.06578
 1.15583
 0.948425
 -1.18512
 -0.987839
 4.09921
 4.04671
 3.96208
 4.07555
 2.51749
 2.39103
 2.45886
 2.58955
 3.78083
 3.87285
 3.9471
 3.92752
 2.7925
 2.63671
 2.66712
 2.83024
 3.70092
 3.71973
 3.81313
 3.67917
 -2.8785
 -2.74352
 -2.83773
 -3.02203
 -4.32094
 -4.283
 -4.00399
 -4.18279
 3.1061
 3.20673
 3.33217
 3.10137
 0.700513
 0.91134
 0.715788
 0.819358
 -3.30543
 -2.99165
 -3.23072
 -3.08037
 1.6516
 1.78316
 1.80658
 1.51834
 3.13779
 2.97912
 4.89163
 4.80638
 4.75807
 4.91324
 1.16581
 1.24641
 1.39196
 1.48959
 -3.47625
 -3.34887
 -3.36734
 -3.6964
 -5.39834
 -5.20248
 -5.26965
 -5.42622
 7.12441
 7.12187
 1.72214
 1.51653
 1.44821
 1.37803
 2.07117
 2.40084
 2.19073
 2.18021
 2.35188
 2.41867
 3.5973
 3.4845
 3.51466
 3.41368
 1.08848
 0.872616
 0.767032
 5.42464
 5.29937
 5.2897
 5.19353
 -4.16324
 -4.37654
 -3.96588
 -4.20055
 -5.17285
 -5.15258
 -5.1543
 -6.28881
 -6.07129
 -5.8285
 -6.04493
 -0.218873
 -0.599927
 -0.462908
 -0.508821
 0.749413
 0.443741
 0.866793
 0.599711
 -2.66822
 -3.07754
 -3.22583
 -2.98002
 -1.20023
 -1.15976
 -1.41409
 -1.18372
 -0.719278
 -0.955074
 -0.826895
 0.319867
 0.276162
 0.407607
 0.0972389
 -1.99058
 -2.5121
 -2.32445
 -2.04355
 1.57357
 1.69847
 1.56371
 1.52469
 0.528022
 0.596121
 0.318419
 0.666637
 -1.32741
 -1.26476
 -1.13208
 -1.37599
 0.720587
 0.886755
 0.958306
 0.689801
 7.87493
 7.92365
 7.75786
 7.76371
 3.4569
 3.54388
 3.54555
 3.6884
 -1.95657
 -1.95389
 -2.25566
 -2.29078
 3.5157
 3.47528
 3.7352
 3.81403
 4.09976
 4.3707
 4.09223
 3.91897
 -3.75152
 -3.69919
 -3.88532
 -3.51639
 -3.42445
 -3.13039
 -3.40251
 -3.32959
 -4.41973
 -4.16339
 -4.42339
 -4.49634
 -2.53658
 -2.52419
 -2.77742
 -2.67346
 1.84127
 1.88942
 2.03699
 1.88916
 3.39582
 3.47264
 3.30061
 3.51282
 -1.55446
 -1.15268
 -1.57956
 -1.25206
 3.29469
 3.22568
 3.20116
 3.21071
 4.84325
 4.7942
 4.73626
 4.64532
 0.970879
 0.777071
 0.935691
 0.750754
 2.30311
 2.44885
 2.61502
 2.10614
 2.02988
 1.7428
 1.97604
 4.66525
 4.78414
 4.95418
 4.79057
 3.17293
 3.20613
 3.2977
 3.2437
 -1.76547
 -1.93213
 -1.78926
 -1.89952
 0.399428
 0.186993
 0.141073
 -6.34456
 -6.0703
 -6.11535
 -6.26968
 -4.99563
 -5.25078
 -5.45368
 -5.16786
 2.35636
 2.18302
 2.44802
 2.19155
 -0.132798
 -0.328163
 4.30209
 4.31822
 4.53013
 4.22985
 0.350141
 0.585276
 0.695163
 0.49289
 -4.48519
 -4.57029
 -4.29651
 -4.53102
 3.35387
 3.30705
 3.23126
 1.68705
 1.63678
 1.59264
 1.88624
 2.23274
 1.92521
 1.96561
 2.03425
 0.875182
 0.624916
 0.591983
 0.922038
 1.13035
 0.99026
 0.821204
 1.0205
 0.337412
 0.191006
 0.373441
 0.129257
 1.3765
 1.20236
 -2.84739
 -2.69423
 -3.13589
 -2.7949
 1.18626
 1.41547
 1.33396
 1.18705
 -0.752741
 -0.373764
 -0.525502
 1.27321
 1.04552
 1.19459
 1.06374
 -0.676173
 -0.545012
 -0.410867
 -0.599615
 3.55079
 3.76191
 3.60118
 3.86714
 1.49565
 1.53777
 1.2712
 -0.156558
 -0.192266
 -0.496978
 -0.00820154
 1.099
 1.1404
 0.97193
 3.79271
 3.72073
 3.9109
 -0.981479
 -0.946195
 -0.938032
 -0.65886
 0.767232
 0.587432
 0.558693
 7.1278
 7.07662
 7.00442
 7.27736
 -1.16668
 -0.982761
 -0.853827
 -1.19648
 2.12582
 2.39381
 2.359
 2.42445
 -3.19297
 -3.19137
 -3.2937
 -3.4586
 -3.74374
 -3.54989
 -3.887
 -3.8338
 4.03002
 3.75725
 4.0927
 4.04039
 0.0331777
 0.212739
 0.348555
 2.70484
 2.93844
 2.77741
 2.7834
 -4.02289
 -3.60586
 -3.83476
 0.596104
 0.383441
 0.533119
 0.304828
 -1.61674
 -1.72635
 -1.72345
 -1.65931
 -4.562
 -4.66621
 -4.76709
 -4.53411
 8.48074
 8.59694
 8.56908
 8.48035
 2.94606
 2.90168
 2.77128
 2.96451
 0.0565785
 -0.380131
 -0.215977
 -0.315491
 4.91602
 5.0669
 5.11369
 0.758375
 0.545328
 0.613257
 0.809985
 -5.1008
 -1.24914
 -1.06537
 -0.75764
 -1.02976
 -3.54544
 -3.53655
 -3.59109
 -3.70056
 -2.57807
 -2.47765
 -2.42278
 -2.62
 -0.0106958
 0.0801005
 0.407447
 0.698794
 0.69843
 0.681364
 6.76638
 6.60167
 6.75482
 6.65561
 2.56856
 2.6596
 2.75043
 2.89604
 2.87925
 2.71579
 2.85804
 -5.09325
 -5.58727
 -5.10533
 -5.07111
 0.882586
 0.900436
 0.617352
 0.632282
 -0.0771798
 0.0291893
 0.230201
 0.0601358
 -3.9255
 -3.73081
 -4.06899
 -3.73458
 0.563861
 0.625319
 0.353189
 0.58024
 5.55113
 5.48768
 5.66599
 5.60432
 1.14003
 1.22282
 1.07956
 1.17675
 3.01423
 3.0055
 2.97134
 2.82716
 3.42516
 3.59034
 3.56142
 3.47464
 4.61407
 4.54655
 4.62223
 4.62607
 5.91753
 6.00163
 6.04365
 5.80423
 -6.29846
 -6.07079
 -6.17924
 -6.09657
 6.42136
 6.35586
 6.52315
 6.2625
 0.887513
 1.04131
 0.87419
 1.09436
 -5.94971
 -5.92506
 -5.73051
 -5.77647
 1.91151
 1.95716
 1.81504
 1.73758
 4.51432
 -4.49413
 -4.33168
 -4.38774
 -4.68867
 3.62193
 5.64117
 5.41974
 5.39013
 5.59583
 -0.369227
 -0.679542
 -2.7546
 -2.42331
 -2.81631
 -2.48077
 -3.63564
 -3.60663
 -3.79377
 -3.7598
 -6.50546
 -6.22778
 -6.52849
 -2.80974
 -3.14366
 -3.11852
 -3.08633
 1.75503
 -5.49048
 -1.51999
 -1.4347
 -1.34307
 -5.16484
 -5.37147
 -5.41246
 -5.31481
 1.80314
 1.81691
 1.82473
 1.97823
 2.92775
 2.86153
 3.03371
 3.11754
 -1.40702
 -1.22781
 -1.30824
 -1.68581
 -5.16214
 -5.38632
 -5.0845
 -5.06234
 -4.16656
 -4.09002
 -4.24679
 -4.06721
 -0.750693
 -1.15815
 -1.10901
 5.95721
 6.07484
 5.72388
 5.95491
 8.32783
 8.15746
 8.24955
 8.1684
 4.69454
 4.93575
 4.96772
 4.83725
 0.192766
 -0.025205
 0.23439
 5.4186
 5.24119
 5.31189
 5.45572
 -3.17741
 -3.09432
 -3.41406
 -3.13125
 -3.18055
 -3.00874
 -3.12857
 3.55057
 3.63666
 -1.8136
 -2.01785
 -7.17346
 -6.98348
 -7.2276
 -6.193
 -6.30497
 -6.25613
 -6.3973
 1.37685
 1.58388
 1.2415
 1.40672
 2.64019
 2.68651
 2.79425
 2.54191
 1.06617
 1.07221
 0.83166
 0.886905
 -5.67097
 -5.64564
 -5.72112
 -5.64944
 -1.74305
 -1.88099
 -1.79313
 -1.62659
 4.61916
 4.63364
 4.62018
 4.47094
 -1.89027
 -1.98238
 -1.78187
 -2.07288
 -0.0951048
 -0.149601
 0.0773497
 -0.206681
 -1.39054
 -1.57584
 -1.54885
 8.77931
 8.74234
 8.72222
 2.63114
 2.75249
 1.7776
 1.77112
 1.97861
 1.65512
 -2.45475
 -2.73987
 -2.54309
 -2.45418
 -1.89167
 -2.00573
 -2.32824
 -2.07472
 -2.09056
 -1.94732
 -2.39297
 6.90286
 6.91405
 4.73093
 4.75769
 4.64535
 4.71426
 -0.104529
 7.03656
 7.20152
 7.13388
 7.12435
 3.08066
 2.82572
 3.02327
 3.0561
 1.51102
 1.62511
 5.86248
 5.53988
 5.56895
 5.73617
 -6.31533
 -6.62463
 -6.50852
 -6.38152
 -5.23392
 -5.3298
 -5.20271
 -5.56253
 3.85645
 3.47979
 3.76056
 3.56486
 2.66423
 2.78794
 2.37168
 2.46036
 2.62496
 2.75113
 2.62548
 -2.25839
 -2.42381
 -2.04133
 -2.26612
 4.51863
 4.38639
 4.29568
 4.26946
 0.912082
 0.816716
 0.948153
 -0.93747
 -0.999086
 -1.11426
 -1.31864
 2.75198
 2.70717
 2.56244
 2.66074
 3.40074
 3.19405
 3.06396
 3.29227
 3.45139
 3.59957
 3.55923
 3.38953
 1.91271
 1.82737
 1.6338
 1.8208
 -1.11976
 -0.928306
 3.02632
 2.98379
 2.92352
 3.10982
 -6.44118
 -5.97466
 -6.04012
 -6.06714
 3.74007
 3.62717
 3.73408
 3.60055
 5.31902
 5.37339
 5.16108
 5.26487
 -0.194323
 -0.240862
 6.34923
 6.30655
 6.47037
 6.26012
 2.26343
 2.1116
 2.36356
 -5.00991
 -4.92076
 -5.11366
 -5.15073
 6.11838
 6.19957
 6.1389
 3.51208
 3.52431
 3.32996
 3.40151
 5.74072
 3.56261
 3.65582
 3.61494
 3.8285
 0.617976
 0.779779
 0.58826
 0.616762
 1.58538
 1.53261
 1.405
 1.60078
 -5.37493
 -5.70755
 0.258923
 0.119478
 0.172442
 0.252611
 3.69272
 3.93688
 3.65697
 3.95335
 2.52359
 2.06807
 2.30772
 2.50821
 -4.42225
 -4.21462
 -4.23253
 -4.25219
 1.55492
 1.45649
 1.22675
 1.31216
 -0.191279
 -3.52615
 -3.68883
 -3.43713
 2.4434
 2.38735
 2.60854
 2.30425
 -1.72911
 -1.64567
 -1.78131
 -1.46388
 2.06841
 2.23575
 2.22486
 1.97882
 -5.34113
 -5.04776
 -4.98213
 -5.16748
 -7.07129
 -7.20694
 -7.00321
 3.49648
 3.35064
 3.14998
 3.29207
 -0.735489
 -0.850178
 -0.547685
 -0.658298
 -1.61899
 -1.70159
 -1.87515
 -1.99281
 2.73331
 2.7127
 3.41841
 3.50721
 3.57931
 3.34673
 1.96479
 1.61221
 -0.505684
 -0.597986
 -0.468943
 -0.378623
 -1.04166
 -1.1411
 -1.34253
 -1.03508
 1.75335
 1.64513
 1.46055
 1.57922
 -0.252458
 -0.275805
 -0.285239
 -4.08719
 -3.75478
 -3.66385
 -3.82749
 -2.68145
 -2.59169
 -2.75829
 1.80242
 1.46561
 1.81575
 1.62524
 3.22891
 3.49187
 3.61713
 3.32714
 -1.6541
 -1.3491
 -1.37019
 -1.56545
 1.5595
 1.58325
 1.8343
 4.49831
 4.52368
 4.48927
 4.51957
 2.73564
 2.76003
 2.66183
 2.58616
 -2.95032
 -2.87114
 -2.69816
 -6.30399
 -5.98667
 -6.0378
 -1.4073
 -1.53559
 -1.55462
 2.75069
 2.95311
 2.67122
 2.87757
 -6.0614
 -6.11506
 -6.04783
 -6.21779
 -1.00298
 -0.85684
 -0.996959
 -1.18742
 -3.37802
 -3.50696
 -3.89614
 -3.82746
 -2.98447
 -3.1319
 -2.98931
 -3.01739
 5.1982
 5.35732
 5.35018
 1.91863
 1.8624
 2.02098
 1.83958
 -3.3094
 -3.433
 -3.18698
 -3.19375
 1.25008
 1.13999
 1.10787
 0.854308
 -1.9111
 -1.91329
 -1.85325
 -1.55877
 -4.75721
 -4.9497
 4.66582
 4.51819
 4.54609
 4.45378
 -2.41473
 -2.25341
 -2.63339
 -2.34112
 1.93289
 2.03057
 2.10567
 1.86997
 -1.41197
 -1.08327
 -5.80978
 -5.79835
 -5.55526
 -5.9086
 -3.34972
 -3.69742
 -3.23726
 -3.83332
 -6.307
 -6.34167
 -6.55869
 -6.68942
 -2.23189
 -2.19371
 -2.34167
 -1.45838
 -1.80491
 -1.7478
 -1.64572
 -1.82228
 -1.63087
 -1.71927
 -1.43265
 3.08367
 3.0224
 3.2228
 3.28028
 5.59588
 5.67927
 5.47006
 0.707196
 0.678703
 0.660982
 -4.00314
 -3.72591
 -3.89138
 -3.65712
 1.71042
 1.55766
 1.35847
 1.54429
 3.73133
 3.97655
 3.92871
 3.71811
 0.614711
 0.846697
 0.976254
 0.967816
 2.12491
 1.82201
 2.10933
 -5.81739
 -5.92237
 -5.57402
 -5.57515
 4.44872
 4.3797
 3.98102
 3.8663
 3.85039
 -1.89715
 -2.00339
 -1.73192
 -2.16266
 0.938414
 0.670918
 0.678477
 0.77652
 4.03968
 4.00096
 3.83868
 4.00558
 -0.113142
 0.316282
 0.29222
 0.029569
 2.40886
 2.57067
 2.28554
 2.29655
 -4.345
 -4.43484
 -4.83511
 2.72604
 2.76051
 2.57966
 2.59746
 -0.00999572
 -0.193369
 4.14978
 3.90677
 3.9849
 4.10949
 3.8328
 4.01959
 3.92926
 4.00674
 -4.71016
 -4.54317
 3.53119
 3.3398
 3.44799
 3.6092
 0.591645
 0.827156
 0.699366
 0.582706
 2.06839
 5.37154
 5.53997
 5.4861
 -0.256487
 -0.203042
 -0.279078
 -0.0699517
 -4.80216
 -4.8301
 -4.62928
 -4.94767
 5.1584
 5.12452
 5.0537
 5.22554
 3.86459
 3.70997
 3.90962
 3.87225
 -1.50764
 -1.63427
 -1.64298
 4.94008
 4.92782
 4.81158
 4.76565
 -6.35499
 -6.08231
 -6.23919
 -6.41182
 4.61171
 4.48158
 4.43273
 4.69464
 -1.11452
 -0.84105
 -1.04211
 -1.31434
 1.99934
 1.85343
 1.90724
 2.06007
 4.00039
 3.92579
 3.96784
 2.29914
 2.04545
 2.31599
 2.10859
 4.18364
 4.36655
 4.24433
 4.24522
 3.69918
 3.83573
 3.74002
 -2.53187
 -2.27769
 -2.5939
 -2.31635
 -2.04364
 1.00134
 0.514009
 0.830166
 0.818014
 -5.09677
 -4.99873
 -4.81966
 -5.00131
 -0.264345
 -0.545152
 -0.109796
 -0.444828
 -1.15114
 -1.34674
 -1.14401
 -1.07181
 3.91083
 3.99656
 3.78279
 3.45726
 3.52175
 -0.886247
 -0.566515
 -0.799498
 -0.933791
 -4.85831
 -5.25103
 0.232331
 0.163362
 0.400194
 0.107584
 4.19178
 4.23829
 4.06773
 -4.20863
 -4.3833
 -4.1251
 -4.2246
 0.281224
 0.606527
 0.499557
 0.440191
 4.00334
 4.11058
 4.0008
 3.92288
 0.887257
 0.923952
 0.578317
 0.823362
 -0.930561
 -1.3689
 4.95579
 5.0496
 5.00098
 5.10269
 3.55346
 3.22009
 3.07571
 3.18442
 3.01847
 3.07168
 3.12102
 3.37053
 3.29276
 3.15883
 0.433302
 0.453564
 0.500068
 -0.68439
 -0.577979
 -0.481662
 -0.366961
 3.16017
 3.18767
 3.14596
 3.1801
 1.96633
 2.00537
 -0.0828881
 0.101542
 -0.00306604
 0.182103
 -0.0659423
 -0.0965759
 1.01402
 0.743709
 0.706357
 0.949482
 6.29827
 6.08884
 6.12689
 6.03123
 0.0127179
 4.18393
 4.00417
 4.13148
 4.17618
 -5.68761
 -5.94024
 -5.65887
 -2.18157
 -2.1063
 -1.94076
 -2.22224
 1.0082
 0.876757
 0.967849
 1.30942
 0.442951
 0.247289
 0.539526
 3.57946
 3.42241
 3.5049
 3.61804
 -4.51908
 -4.74146
 -4.23352
 -4.59376
 -1.04007
 -0.949853
 -1.16938
 -1.08751
 -4.50298
 -4.60402
 -4.1778
 -4.40659
 4.45679
 4.432
 4.60568
 4.59519
 3.14881
 2.98902
 -2.40145
 -2.2953
 -2.16162
 -2.33111
 -4.97118
 -4.99729
 -5.05511
 -4.88077
 -7.0673
 -7.18485
 -6.96149
 -7.26021
 -4.70339
 -4.48686
 -4.71658
 -0.958151
 -1.17096
 -0.906219
 -1.0659
 -4.46615
 -4.58504
 -4.69096
 -4.60577
 4.5755
 4.41018
 4.25116
 4.44261
 -3.45065
 -3.64687
 -3.69897
 -0.964681
 -0.885914
 -0.813826
 -0.809631
 4.21837
 4.29947
 4.21528
 4.35285
 -1.51203
 -1.79041
 -1.62313
 -1.64217
 -0.368354
 -0.564605
 -0.644407
 -0.404868
 2.83046
 2.73303
 2.62593
 2.48553
 4.72391
 4.68943
 4.91246
 4.89855
 1.47793
 1.40514
 1.21078
 1.43417
 6.66627
 6.62373
 6.38865
 6.5038
 3.77128
 3.64098
 3.79167
 3.34238
 3.55366
 3.55951
 3.61389
 7.34887
 7.28696
 7.46471
 7.2721
 -4.13035
 -3.93561
 -3.96183
 -3.05478
 -3.09471
 -3.32729
 -3.27471
 3.16647
 2.84589
 2.94815
 5.54291
 5.48974
 5.58585
 4.64208
 4.81747
 4.63707
 4.61935
 3.06247
 3.0911
 2.91492
 3.23449
 -1.09918
 -1.45301
 -1.26787
 -1.22137
 6.23737
 6.24369
 6.11981
 6.30646
 -0.590529
 -0.191973
 -0.145823
 -0.476302
 -3.05158
 -3.25012
 -2.8433
 -3.0566
 -0.0545403
 -0.0347809
 -0.415023
 -0.245844
 1.50573
 1.66404
 1.32778
 4.06799
 4.08758
 4.06558
 3.95059
 -4.58613
 -4.81141
 -4.89874
 -4.80405
 -3.44573
 -3.60293
 -3.41833
 -3.24821
 2.94451
 2.7782
 2.88357
 3.03723
 -5.23422
 -5.38061
 -5.5222
 -4.79114
 -5.20243
 -4.87527
 -4.94137
 -5.20613
 -5.23791
 -5.0112
 -5.08961
 5.98146
 6.02883
 7.36557
 7.33293
 7.43244
 7.22579
 -0.855447
 -0.743314
 -0.569372
 0.927943
 1.09402
 0.732712
 1.03697
 0.526049
 0.263881
 0.346308
 0.493812
 8.6651
 1.67694
 -0.582737
 -0.824506
 -3.36346
 -3.52019
 -3.44837
 -3.43886
 5.54479
 2.22969
 2.03102
 2.23477
 -7.33857
 -7.19132
 -7.20049
 -7.20543
 0.45219
 0.630336
 0.450352
 0.243321
 -5.4888
 -5.3305
 -5.49359
 -5.23765
 1.50527
 1.25469
 1.69107
 2.13328
 1.87016
 2.03477
 -4.10818
 -4.19069
 -3.86912
 -4.14263
 -0.557694
 -0.422633
 -0.244955
 -0.126491
 4.51026
 4.64581
 4.37987
 4.43459
 -3.31999
 -3.77738
 -3.60473
 -5.46439
 -5.87953
 -5.88294
 -5.48167
 -3.26594
 -3.20094
 -2.98577
 -3.23421
 3.17117
 3.19876
 2.83696
 3.21865
 2.72802
 2.87853
 2.84866
 2.86145
 -4.30111
 -4.50099
 -4.48355
 -4.5217
 1.73907
 1.71656
 1.93339
 -2.61165
 -2.64502
 -2.54191
 -2.39008
 4.10103
 3.91812
 4.20378
 4.18123
 -0.80936
 -0.939622
 -0.593305
 -0.736043
 4.28848
 4.15445
 4.28273
 4.26842
 0.0404286
 -0.137801
 0.0692823
 -0.0448328
 -2.919
 -2.95199
 -3.19949
 -2.7227
 4.67986
 4.73895
 4.59706
 0.289385
 0.0727687
 -3.69178
 -3.56323
 -3.53919
 -3.36435
 1.73024
 1.86881
 1.89215
 4.44505
 4.62371
 4.6716
 4.58329
 -1.48775
 -1.58813
 -1.46129
 -1.68427
 -0.967988
 -0.934666
 -1.3413
 -1.03924
 8.06664
 8.07108
 7.91341
 8.01781
 0.641276
 0.906899
 0.744396
 6.91603
 6.77902
 6.73066
 0.473822
 0.519185
 0.651219
 0.532357
 0.797399
 4.40963
 4.36417
 4.65333
 4.55701
 1.41166
 1.197
 1.10778
 -3.3697
 -3.37568
 -3.36339
 -3.24635
 1.09234
 0.978479
 0.847753
 0.851653
 0.843684
 0.935579
 0.985904
 -6.93483
 -6.80567
 -6.76565
 -6.56947
 3.41196
 3.01231
 3.10663
 3.23211
 4.94438
 4.93597
 4.8599
 4.8704
 2.22591
 2.3023
 1.95602
 2.19451
 -3.98367
 -4.11112
 -4.16526
 -3.77344
 8.1647
 8.02727
 8.14075
 7.9472
 -2.53017
 -2.23983
 -2.42132
 -2.4393
 4.95942
 5.08943
 5.00181
 5.02648
 -3.4825
 -2.88029
 -3.04205
 -3.31256
 -2.6801
 -2.52453
 -2.3831
 -2.56284
 -2.52166
 -2.65596
 3.11286
 3.24766
 3.2616
 3.1468
 -4.57966
 -4.60687
 -4.58877
 -2.39503
 -2.0026
 -2.17173
 -2.46561
 3.50286
 3.28659
 3.43019
 3.62849
 2.27051
 2.35985
 2.08139
 8.79241
 8.78815
 8.84307
 8.79016
 0.824156
 1.13704
 0.800095
 -4.59689
 -4.78371
 -4.53026
 -4.45747
 -3.02483
 -2.8301
 -4.22929
 -4.51573
 -4.70974
 -4.33578
 -1.99725
 -2.022
 5.07234
 5.01818
 5.23999
 4.8931
 -2.71037
 -2.65681
 -2.68475
 -2.38151
 0.447592
 0.310011
 2.43256
 2.26919
 2.32457
 2.41363
 -2.9968
 -3.13798
 -3.21565
 -3.12516
 3.00125
 3.36927
 3.34899
 3.07716
 -4.38196
 -4.36029
 -4.63561
 -4.9834
 -0.407515
 -0.472122
 -0.192122
 5.33344
 5.41888
 5.44399
 5.32789
 -1.02057
 -0.97245
 -0.857598
 -0.709649
 3.40231
 3.60131
 3.64831
 3.73519
 3.1957
 3.44195
 3.27534
 8.31271
 8.32502
 8.31728
 8.22744
 4.68809
 4.3999
 4.32894
 4.58791
 -3.05884
 -2.92145
 -3.19174
 -2.90389
 0.881934
 0.807442
 1.04816
 2.03282
 4.04916
 3.94439
 4.01378
 3.87678
 1.89603
 2.08122
 1.9131
 1.82881
 -1.89125
 -2.27388
 -2.31655
 -1.96634
 4.14359
 4.13818
 3.77908
 5.59447
 -0.335193
 -0.442179
 -0.159572
 -0.565827
 3.96642
 3.69107
 7.10545
 7.2324
 4.02937
 3.87209
 4.03019
 4.25485
 -1.96364
 -2.18571
 -3.75058
 -3.73245
 -3.83657
 -3.6894
 2.43511
 2.24011
 2.21999
 2.24951
 -5.48872
 -5.5502
 -5.75553
 -5.56468
 2.41165
 2.3774
 2.80781
 2.78811
 -2.50873
 -2.54631
 -2.39466
 -2.0761
 3.48735
 3.47576
 3.37236
 3.36498
 -2.70345
 -2.85877
 -2.52576
 -2.73645
 1.6331
 1.42723
 -4.94541
 -4.79672
 -1.47296
 -1.66921
 -1.38625
 -1.73397
 -1.46567
 -1.34277
 -1.36134
 -1.64756
 0.0962997
 0.248796
 0.0189696
 0.0143247
 -2.66613
 -2.35019
 -2.70945
 -2.91425
 3.56683
 3.76915
 3.64928
 3.66185
 -4.74082
 -4.61361
 -4.59122
 -5.08603
 -5.20635
 -4.93717
 -5.11619
 4.21996
 3.99826
 4.00413
 4.10563
 -1.90186
 -1.59595
 -1.63755
 -1.77536
 4.25768
 4.07912
 4.06345
 3.88832
 0.43289
 1.09851
 0.776155
 0.771077
 1.07638
 -3.43923
 -3.47917
 -3.47607
 -3.16207
 6.62367
 6.75586
 6.66765
 6.50815
 -1.74826
 -1.90328
 -2.09129
 -1.85654
 0.591069
 0.37266
 0.83278
 0.65275
 -2.02904
 -1.83214
 -1.79336
 -1.77584
 -1.24399
 -6.88421
 -6.7369
 -6.38186
 -6.55538
 -2.88829
 -2.91195
 -2.51442
 -2.60597
 7.07968
 6.99935
 6.87578
 7.10509
 1.66683
 1.91822
 2.02352
 1.80809
 2.75729
 0.41021
 0.424848
 0.352273
 0.161339
 -4.36002
 -4.35992
 -4.08794
 -3.95866
 -3.47755
 -3.4318
 -3.7401
 -4.32463
 -3.73994
 -4.01634
 -3.89646
 8.11377
 8.03898
 -2.53638
 -2.48282
 -2.48563
 2.94874
 2.95814
 3.02037
 2.77404
 -2.1628
 -2.03383
 -2.19309
 -1.96136
 0.0931953
 -1.56138
 -1.29728
 -1.56838
 -1.49993
 -5.03034
 -4.55496
 -4.70039
 -4.99945
 -1.49228
 -1.68288
 -2.0188
 -1.55497
 1.76061
 1.67179
 1.99343
 1.50206
 4.26487
 4.22769
 4.32463
 4.18718
 -6.50653
 -6.19285
 -6.5713
 -6.46091
 -2.04871
 -1.93713
 -2.15142
 -1.83575
 -6.14131
 -6.0244
 -6.07105
 -6.26317
 2.89582
 3.19851
 2.8962
 2.8561
 0.161637
 0.286937
 -4.95966
 -5.35395
 -4.93621
 -5.13509
 0.133985
 0.0712002
 0.076042
 -0.16774
 0.996504
 0.73034
 0.246458
 0.156609
 -0.0190751
 0.252747
 -3.648
 -3.62515
 -3.52715
 -3.83399
 2.40173
 2.67233
 2.79167
 2.5525
 5.20239
 5.05252
 5.17854
 5.17943
 4.52935
 4.5936
 4.59818
 4.60686
 2.60879
 2.479
 2.46254
 2.66086
 1.52884
 1.83847
 1.62828
 1.31152
 1.65827
 1.48628
 1.39508
 0.520473
 0.675401
 0.767959
 0.563078
 5.28011
 5.31589
 5.24037
 1.94152
 2.09318
 1.81598
 1.86896
 0.111488
 -0.127399
 -0.0973586
 0.206034
 3.15341
 3.36874
 3.05863
 3.38396
 2.67638
 2.48806
 2.53196
 2.55288
 -0.237507
 -0.243087
 -0.430607
 -0.607861
 0.784665
 0.994734
 0.803429
 0.857204
 -1.72539
 -1.60144
 -1.70036
 -1.59689
 4.63636
 4.58065
 4.51257
 -3.20056
 -3.04779
 -3.38707
 -3.09107
 3.14163
 2.9419
 3.09602
 3.24153
 1.52868
 1.64451
 1.7581
 1.45144
 1.0946
 0.882495
 0.824421
 -0.725912
 -0.71513
 -0.807179
 -0.996886
 -1.36976
 -1.3933
 -1.56919
 -1.25473
 -1.78327
 -1.86126
 -2.06247
 -3.79235
 -3.85488
 -3.8795
 -1.29034
 -1.17367
 -0.99782
 -1.15882
 -3.99487
 -4.12122
 -3.79058
 -4.6435
 -4.65916
 -4.58831
 -4.35344
 0.941588
 1.3773
 1.12341
 1.24142
 2.79759
 2.95076
 2.74391
 2.92808
 3.68482
 -3.79615
 -3.67962
 -4.11631
 -3.76997
 -3.98071
 -3.48791
 8.41801
 8.49289
 8.4077
 8.34556
 -2.5907
 -2.3682
 1.51773
 1.72112
 1.44573
 -6.13244
 -6.38502
 -0.791476
 -0.418583
 -0.528798
 -0.59803
 1.69698
 1.57635
 1.57086
 -2.6641
 -3.15243
 -2.88537
 -3.02597
 2.80352
 2.74596
 2.90019
 2.65719
 7.4112
 7.26911
 7.30506
 7.45703
 -0.413646
 -0.461487
 -0.353942
 -0.674289
 -3.58883
 -4.09103
 -3.62397
 -2.95382
 -2.92376
 -3.00179
 -2.77378
 3.2678
 3.5741
 3.51603
 3.69784
 3.20562
 3.04888
 4.03075
 3.86395
 4.09
 -6.18422
 -5.98402
 -3.4977
 -3.20692
 -3.51981
 -3.17082
 0.251318
 -0.0746229
 -0.0182293
 -2.3953
 -2.08777
 -2.63115
 -2.61754
 3.13978
 3.46335
 3.40381
 3.24852
 0.706587
 0.734507
 0.505984
 0.455204
 0.824348
 0.641486
 0.621288
 0.829713
 3.52807
 3.42853
 3.52915
 3.03338
 3.15301
 3.05576
 3.08217
 -7.11299
 -7.33986
 -7.20295
 -7.46232
 4.84628
 5.09268
 -4.445
 -4.61118
 -4.55652
 -4.3945
 1.46652
 1.23513
 1.338
 1.45497
 0.130158
 -0.0450971
 -0.0373045
 -0.0670642
 4.5687
 4.42097
 0.442326
 0.613226
 0.622086
 0.775119
 1.51726
 1.6087
 1.67549
 1.4391
 -3.44396
 -3.40689
 -3.31151
 -3.47884
 1.07307
 0.890558
 0.852552
 1.18086
 2.94435
 2.9268
 -0.81483
 -0.821489
 -0.675858
 -0.879766
 -2.01516
 -1.91694
 -2.1356
 0.231046
 -0.0237077
 0.06666
 -0.0757489
 3.85338
 3.73791
 3.90752
 3.62726
 7.62151
 7.46505
 7.48774
 7.64039
 0.960061
 1.09783
 0.900192
 0.630779
 -0.144987
 -0.474942
 -0.21415
 -0.165081
 1.79217
 1.66023
 1.91806
 1.86574
 2.57328
 2.70252
 2.53949
 2.43589
 -3.54127
 -3.80041
 -0.885396
 -0.753063
 -0.650515
 6.29103
 6.36518
 6.46206
 6.25826
 3.46864
 3.64211
 3.35453
 3.72129
 0.278828
 0.203928
 0.347322
 0.444612
 -3.52707
 -3.64377
 -3.62629
 1.36371
 1.46438
 1.73525
 1.74233
 3.08395
 2.79622
 2.89939
 3.09815
 -2.35887
 -2.03078
 -2.01556
 -2.20333
 -0.697355
 -0.620795
 -0.520719
 -0.539814
 -3.1226
 -3.17061
 -3.1415
 -2.70594
 -2.74567
 -2.75212
 -2.74924
 2.06685
 2.00476
 2.19455
 2.28286
 1.15101
 1.22704
 1.01702
 7.37473
 7.34654
 7.37085
 7.47282
 3.0011
 2.98461
 5.07278
 5.20465
 5.01123
 4.88598
 3.64585
 4.4176
 -4.23352
 2.85548
 3.08794
 2.91116
 3.18812
 -6.44617
 -0.901151
 -0.677861
 -0.895664
 -0.569804
 2.90668
 2.69973
 2.81243
 2.01747
 1.82027
 1.81482
 -3.27942
 -3.3188
 -2.96104
 -3.27606
 -3.15557
 -2.99985
 -3.19915
 -2.99644
 4.0919
 4.35511
 4.36341
 4.17406
 -5.1822
 -5.22846
 -5.3707
 -5.02881
 0.673438
 0.893284
 1.0921
 -3.09095
 -3.28915
 -3.17063
 -0.168363
 0.0566595
 -0.0287483
 -0.214557
 2.84353
 2.72489
 2.99314
 2.9097
 -0.187973
 -0.554476
 -0.205741
 2.59196
 2.51441
 2.50718
 2.75055
 1.44377
 1.11445
 -3.41206
 -3.59945
 -3.66365
 -3.90514
 -4.27612
 -4.6232
 -4.42501
 -4.34379
 3.58552
 3.37828
 3.65656
 3.46632
 -2.10394
 -1.73683
 -1.92241
 -2.18945
 -0.722082
 -0.336767
 -0.645471
 -0.837568
 1.82639
 2.03478
 1.7219
 1.86413
 -3.91989
 -3.78013
 -3.69388
 -3.53845
 1.31793
 1.54388
 1.17642
 1.29061
 0.67456
 0.851221
 0.857815
 0.473487
 1.33116
 1.48501
 1.28038
 1.25132
 3.39208
 3.16781
 3.80805
 3.65826
 3.51119
 3.76428
 5.36415
 5.62019
 5.42991
 5.36504
 -0.867893
 -0.848729
 -0.789529
 -1.0857
 -0.47194
 -0.238844
 -0.228667
 -5.35242
 -5.40247
 -5.4492
 -5.41556
 -6.16867
 -6.32782
 -6.05561
 -4.65641
 -4.79307
 -4.39332
 -0.160644
 -0.453338
 -0.636699
 -0.268152
 -1.65778
 -1.82081
 -1.98095
 -1.52364
 -3.29025
 -3.53119
 -3.35101
 -3.5734
 2.66348
 2.88753
 2.83415
 2.6944
 4.95508
 4.8015
 4.69936
 4.70607
 -6.26149
 -6.31349
 -6.03923
 -6.53298
 3.14157
 3.21399
 3.3205
 3.10207
 0.140102
 0.149912
 0.0178558
 0.210388
 -6.49837
 -6.43505
 -6.08155
 -6.71743
 -1.03918
 -0.776093
 -1.12469
 -1.03463
 1.65626
 1.76384
 1.65932
 1.75183
 3.05786
 3.23734
 3.20766
 4.40008
 4.17599
 4.31197
 4.43474
 3.83571
 3.91928
 3.81294
 3.93894
 3.80217
 3.89649
 3.25987
 3.12785
 3.49893
 -2.97945
 -2.80788
 -2.76834
 -2.73174
 -4.99003
 -4.82251
 -4.87464
 -4.84987
 -1.34085
 -1.24204
 -1.30659
 -0.945774
 1.16475
 -4.10304
 -4.22268
 -4.19034
 -3.99882
 4.42455
 4.43596
 4.44715
 4.48428
 -5.6429
 -5.79716
 -5.58968
 -5.95172
 2.09907
 2.26846
 1.94956
 -1.92267
 4.31133
 4.33588
 4.47913
 3.50806
 3.62782
 3.75701
 3.42542
 0.341145
 0.377162
 0.71397
 0.473213
 -2.41748
 -2.42107
 -2.2214
 -2.61939
 1.17526
 -1.84365
 -1.71068
 -1.6684
 1.06169
 1.10555
 1.05005
 0.804741
 2.60605
 2.54186
 2.71699
 2.72229
 1.97605
 2.25683
 2.05155
 2.00979
 -1.96306
 3.31007
 3.27185
 3.17722
 -2.84449
 -2.66369
 -2.92372
 -2.74312
 -3.80436
 -3.7036
 -4.03986
 -3.61843
 -4.88897
 -5.05811
 -4.85638
 2.63698
 2.62187
 2.77625
 2.61647
 4.69089
 4.81918
 4.70342
 -3.30197
 -3.27173
 -3.83474
 -3.72437
 -3.59229
 -3.5775
 1.122
 1.07289
 0.916436
 -5.76395
 -5.68469
 -5.91391
 -5.66646
 -3.59614
 -3.509
 -3.62842
 -3.72379
 -1.047
 -1.10915
 -1.22796
 -1.2934
 0.100801
 0.0244502
 0.181509
 0.380429
 3.11333
 3.14145
 3.20472
 3.03998
 -3.72909
 -3.73586
 -3.59061
 -3.9469
 2.48018
 2.41333
 2.69809
 1.97932
 1.78432
 1.74361
 1.69415
 -4.9273
 -4.8551
 -5.23158
 -5.05096
 -1.77872
 -1.81476
 -1.72869
 -1.62481
 -5.95235
 -5.75471
 -5.52697
 -5.82076
 2.04929
 1.8979
 1.80225
 1.83356
 0.18715
 0.106521
 0.382128
 -0.0828174
 -4.01653
 -3.97073
 -4.15711
 -4.05382
 0.369477
 0.187517
 0.460174
 0.409999
 -5.92057
 -6.21949
 -5.9647
 2.74146
 2.82101
 2.85454
 2.82076
 -0.375359
 -0.37004
 -0.2775
 -0.123227
 -0.901719
 -1.16121
 -0.948387
 -0.997481
 0.682366
 0.817874
 0.447987
 0.721262
 -3.72728
 -3.72269
 -4.05221
 -3.83502
 0.980522
 1.24415
 1.07423
 1.15509
 -0.739604
 -0.671953
 -0.69601
 -0.528026
 4.53694
 4.52593
 4.56193
 4.53619
 -2.92917
 -2.98029
 -2.76076
 -2.63002
 4.60129
 4.60554
 4.60964
 3.1427
 3.24867
 3.24808
 3.12186
 3.91434
 3.805
 3.43378
 3.73611
 -2.44383
 -2.34986
 -2.52601
 -2.6962
 -1.51184
 -1.85349
 -1.57141
 -1.63658
 2.13287
 2.34306
 2.31598
 2.4503
 -6.74648
 -6.56153
 -6.35942
 7.27979
 7.31374
 -0.728119
 -0.942765
 -0.588479
 -0.712172
 5.77233
 5.94627
 6.13952
 5.97258
 -1.47211
 -1.52635
 -1.81669
 -1.67527
 1.83794
 2.49499
 2.58691
 2.64168
 2.77009
 -2.49502
 -2.54861
 -2.6047
 -2.71326
 -4.19156
 -4.04458
 -4.34727
 -4.11657
 4.52822
 4.52842
 -1.95098
 -2.08464
 -2.48409
 -2.04783
 -0.359167
 0.0898174
 -0.414301
 -0.169687
 2.99599
 2.99612
 3.13212
 2.71343
 0.981461
 1.21024
 1.25452
 0.969689
 -3.39311
 -3.08238
 -3.70769
 -5.07315
 -4.99324
 -5.0239
 -5.00278
 -6.41942
 -6.41423
 -6.51269
 2.35645
 2.48528
 2.44748
 2.30805
 -4.68184
 -4.49432
 -4.39207
 -4.36219
 4.0231
 4.18048
 4.11661
 4.07248
 -1.31538
 -1.24452
 -1.35852
 -1.03749
 -0.161765
 -0.464102
 -0.225185
 -0.23514
 -5.0929
 -5.10464
 -5.08155
 -5.25748
 -1.66073
 -1.80492
 -1.59619
 -1.43458
 6.2305
 6.32532
 6.36955
 6.2376
 1.16194
 1.51271
 1.19613
 1.42816
 2.26499
 1.97877
 1.98091
 2.27064
 -2.3616
 -2.48776
 -2.22714
 -2.03342
 3.76764
 3.90946
 3.96906
 3.95675
 -0.679675
 -0.497469
 -0.511055
 -0.805089
 2.52698
 2.68534
 2.7332
 4.82555
 4.93419
 4.92194
 4.99244
 -0.771014
 -1.00938
 -0.613693
 -1.26172
 -1.23659
 -1.09568
 3.29248
 3.488
 3.63231
 3.69796
 3.71355
 3.62314
 3.54479
 -4.51553
 8.58209
 8.50506
 8.52913
 8.64947
 -3.64979
 -3.47149
 -3.86127
 -3.62392
 4.22309
 1.93459
 1.9818
 2.0287
 1.73326
 2.29197
 2.43898
 1.99991
 3.26546
 2.97986
 3.1135
 3.20211
 6.15908
 6.19324
 6.07587
 6.32701
 4.03558
 3.8819
 3.89636
 0.167982
 0.296394
 0.291122
 2.38761
 2.47047
 -7.09574
 -6.79035
 -6.77985
 3.91202
 3.72839
 3.99339
 2.05064
 1.87447
 1.78118
 -4.68066
 -4.94034
 -4.92422
 -2.57162
 -2.58373
 -2.83395
 -2.6047
 3.12302
 3.01519
 2.93667
 4.6141
 4.81097
 -5.35129
 -5.16183
 -5.48193
 -5.37302
 5.58111
 5.52053
 5.73494
 5.38885
 3.87052
 3.94191
 7.61474
 7.74103
 6.86857
 6.89409
 6.81609
 2.00325
 1.86256
 2.11174
 -5.14493
 -4.86696
 -4.6951
 -1.82364
 -1.8396
 -2.08643
 2.9851
 2.86661
 2.65952
 2.53409
 2.73199
 -4.10679
 4.7015
 4.7037
 4.62427
 4.61725
 2.20764
 1.81125
 2.09732
 2.06746
 -2.29037
 -2.257
 -2.4369
 -1.88962
 -1.9303
 -1.7701
 -1.84334
 2.02522
 2.10614
 1.89187
 1.71859
 -1.98185
 -2.05108
 -2.28179
 -2.26591
 -2.76801
 -2.55455
 -2.69199
 -2.98295
 0.703964
 -1.94786
 -2.06056
 -2.08419
 -2.17762
 -5.76985
 -5.90973
 -5.76022
 -5.60257
 3.44371
 3.80316
 3.86025
 3.60017
 -5.21306
 -5.42464
 -5.28587
 -5.25493
 7.76041
 7.68298
 7.80395
 -5.21858
 -5.04356
 -5.47547
 -5.37497
 3.3773
 3.42088
 3.61934
 3.59685
 -2.98772
 -2.72897
 -2.92077
 -3.11056
 3.84193
 3.82647
 4.25766
 4.16246
 -6.01592
 -3.29476
 -2.92798
 -3.08266
 -2.82141
 -4.22784
 -4.47156
 -4.37746
 4.52474
 4.4298
 4.58835
 4.65924
 -2.39047
 -2.19911
 -2.19642
 -2.0517
 -0.492291
 -0.749141
 -0.764376
 -0.656801
 -0.130075
 -0.27632
 0.0562089
 0.0814762
 -6.59802
 -6.31032
 1.59659
 1.57425
 1.60505
 1.97493
 1.78385
 1.69712
 1.59032
 -2.131
 -1.94509
 -2.36654
 -2.42326
 -2.01882
 -2.13909
 -2.12873
 -2.35773
 -0.839199
 -0.890785
 -1.06105
 -0.764531
 3.30272
 3.31393
 2.77903
 2.91855
 2.93156
 2.04136
 1.88098
 1.87957
 1.85259
 4.94698
 5.1031
 5.06749
 5.07253
 2.18283
 2.35546
 2.53701
 6.09402
 6.09374
 5.92318
 2.19935
 2.22259
 2.41627
 2.05977
 3.31218
 3.05083
 3.38731
 1.00036
 -2.19241
 -2.06789
 -2.39531
 1.65493
 1.71237
 1.55284
 1.43089
 3.9928
 3.98275
 3.4985
 3.74377
 0.638318
 0.470241
 0.389614
 0.385562
 -3.16369
 -2.98585
 -6.7967
 -6.58401
 -6.43836
 -6.8212
 -2.22286
 -2.17108
 -2.37003
 -1.9972
 1.51645
 1.55351
 1.58218
 1.44244
 -5.93635
 -5.96789
 -6.43919
 -5.76711
 -5.4352
 -5.55103
 -5.62567
 0.369496
 0.672054
 0.776996
 0.496543
 4.32156
 4.37274
 4.22316
 1.45755
 1.48071
 1.20817
 1.46385
 4.53808
 4.76699
 4.51568
 4.78382
 -1.47066
 -1.4702
 -1.54549
 -0.964989
 4.49763
 4.49419
 4.51181
 4.45488
 3.21041
 3.0867
 3.03109
 3.12408
 -5.26321
 -4.96507
 -5.34626
 -5.04918
 0.28691
 0.274694
 0.490577
 0.261424
 2.2535
 2.38436
 2.18015
 2.35707
 -2.31557
 -2.34814
 -2.94597
 -3.36992
 -3.22568
 -3.18483
 1.7972
 1.54471
 1.61803
 1.31502
 1.24291
 1.08818
 1.18582
 1.2084
 4.18846
 4.05606
 4.22828
 1.92003
 2.07962
 2.20449
 8.22062
 8.36528
 8.24237
 8.32137
 3.0737
 2.98949
 4.53349
 4.44115
 4.52666
 4.70597
 -0.40033
 -0.151084
 -0.373124
 -0.0841096
 6.07939
 5.8733
 5.78628
 5.96675
 3.66594
 3.71996
 3.9234
 -1.5255
 -1.58875
 -1.5451
 -1.42194
 3.6089
 3.43121
 3.67792
 3.94966
 3.92938
 4.1307
 4.08132
 2.10184
 2.22007
 2.19072
 1.95892
 -2.72909
 -3.38893
 6.95922
 6.88327
 3.19923
 3.36541
 1.37411
 1.5795
 1.49309
 1.53632
 -1.26421
 -1.46844
 -1.27649
 -1.60348
 0.803444
 0.777827
 0.648959
 0.607186
 4.5075
 4.81811
 4.57666
 4.67598
 -0.370745
 -0.0812791
 -0.227461
 4.2581
 4.31656
 4.23661
 4.24598
 -4.47693
 -4.46289
 -4.68661
 -4.32458
 -1.28431
 -1.28071
 -1.29737
 -1.03931
 4.01052
 3.88281
 4.07378
 1.33704
 1.60472
 1.36449
 1.25161
 4.62319
 4.65375
 4.58026
 3.69095
 3.47471
 3.54403
 3.66434
 3.81935
 3.85967
 3.66294
 3.79469
 1.56476
 1.7623
 1.80812
 1.89334
 -5.56357
 -5.43654
 -5.28459
 -5.33034
 -0.735501
 -1.02441
 -0.886294
 -0.9816
 1.6032
 1.89478
 1.6858
 0.272166
 0.388554
 0.386312
 -4.23168
 -3.86688
 -4.20325
 -3.97451
 -0.871203
 -0.91492
 -0.659553
 -1.02626
 1.81305
 1.6297
 1.57696
 1.57032
 4.88421
 4.84673
 4.05961
 4.17685
 3.95386
 3.9489
 7.28076
 7.3344
 7.48562
 7.28633
 -2.31229
 -2.34864
 -2.36342
 -2.2234
 3.46494
 3.68018
 3.62107
 3.63679
 0.758761
 0.986484
 0.84277
 1.11386
 5.20572
 5.29699
 5.25898
 5.32881
 0.0678709
 0.190869
 0.320127
 0.305113
 1.35881
 -2.02644
 -1.90284
 -1.71432
 -1.7958
 1.73723
 2.0018
 2.04858
 1.81174
 1.85305
 1.7271
 1.56911
 1.64805
 2.46004
 2.6692
 2.59664
 2.71878
 3.95677
 4.16132
 3.83687
 -3.42968
 -3.48797
 -3.56154
 -3.06777
 1.90408
 1.97694
 1.97766
 2.05918
 -3.17092
 -3.27175
 -3.4822
 -1.45376
 -1.25572
 -1.42179
 -1.31181
 -2.68163
 -3.08962
 -2.87407
 -3.12115
 4.14791
 3.97276
 4.18399
 8.66521
 8.59825
 8.57992
 -1.81866
 -2.1481
 -2.06142
 0.00430555
 -0.413458
 -0.209063
 -0.469247
 2.23029
 2.142
 2.04188
 2.2343
 1.55833
 1.47971
 1.78593
 1.71533
 6.46199
 6.33812
 6.62714
 6.32441
 0.698417
 0.815973
 0.844221
 0.871153
 -0.514888
 -0.543812
 -0.722653
 -0.40886
 3.54664
 3.52881
 3.02426
 3.41818
 3.22266
 3.19611
 -1.65056
 -1.44534
 -1.59463
 -1.56708
 3.74249
 3.52528
 -0.73653
 -0.612486
 4.4134
 8.3695
 8.39989
 8.37266
 8.25982
 5.22593
 5.03462
 -6.18998
 -6.52231
 -6.25628
 4.7536
 4.58268
 4.42121
 4.58779
 -1.9662
 -1.96584
 3.2197
 3.26982
 3.241
 3.22404
 2.55806
 2.17976
 2.32077
 -2.1035
 -2.24545
 -2.1548
 -2.43633
 -0.979285
 -1.23842
 -1.00945
 -1.10195
 -3.64557
 -3.66868
 -3.96409
 1.64596
 1.85826
 1.62352
 1.94844
 0.960159
 -3.78338
 -3.33102
 -3.67725
 -3.57303
 4.59271
 4.63859
 4.53357
 4.45138
 0.410021
 0.628712
 0.371547
 0.602096
 -2.39914
 -2.00957
 -2.28859
 -2.0723
 7.64236
 7.60024
 7.55025
 7.52955
 3.98934
 -5.92441
 2.06657
 1.74207
 1.95443
 2.17197
 0.393393
 0.187425
 0.472956
 0.547794
 3.30916
 3.57414
 3.43501
 3.36384
 0.146526
 0.265381
 0.157721
 0.106863
 4.18968
 4.14616
 3.96882
 4.24807
 4.08704
 3.95985
 4.10182
 1.57834
 1.37211
 1.70719
 1.56588
 -2.51627
 -2.72965
 -2.22762
 -6.85281
 -7.14679
 -6.89709
 -6.76081
 6.61334
 6.77461
 6.80277
 1.16862
 1.16908
 1.4482
 1.35658
 1.59306
 1.26915
 -4.73542
 -4.67665
 -4.65538
 -4.9106
 -1.78901
 -1.59174
 -1.68555
 -1.48227
 3.97121
 3.66832
 3.88244
 5.60404
 1.81803
 2.07828
 1.98998
 1.82627
 1.24908
 1.10407
 1.14708
 -1.41811
 -1.2861
 -1.30691
 -1.50208
 -2.36847
 -2.06591
 -2.28636
 -2.13053
 1.97003
 2.12063
 -1.86911
 -1.8369
 -1.95305
 -2.1406
 -0.0158364
 0.0602982
 0.0105874
 -0.213248
 -5.3675
 -5.51854
 -0.656548
 -0.423358
 -0.654128
 -0.539385
 -1.77519
 -1.90365
 -1.96517
 -2.07224
 -1.33013
 -1.49371
 -1.32557
 -1.34238
 1.0708
 0.941761
 1.69382
 1.54678
 1.72876
 1.8611
 2.55904
 2.75531
 2.65966
 2.61657
 -0.029059
 -0.190797
 -0.203491
 -0.0405781
 4.15132
 3.99896
 3.89976
 3.80763
 3.34887
 3.38555
 3.46615
 3.39027
 6.9901
 6.89859
 6.91611
 7.07799
 2.56491
 2.89906
 0.135568
 0.502841
 0.223141
 0.347556
 2.0175
 2.07005
 1.9468
 1.80546
 0.551199
 0.394233
 0.296411
 0.465535
 1.58929
 1.56091
 -2.11195
 -1.99747
 -6.11123
 -6.16811
 -6.18227
 -6.25703
 4.61275
 1.74288
 1.76371
 1.68783
 1.52862
 0.748582
 0.981037
 0.915693
 0.888693
 2.95852
 3.0877
 3.14495
 3.3137
 -1.53905
 -1.21622
 -1.51319
 -1.22856
 0.378798
 0.539626
 0.619918
 0.394083
 4.20538
 4.27139
 4.12071
 4.281
 4.37352
 2.2127
 1.96394
 2.24986
 2.1049
 2.34306
 2.02607
 2.29468
 2.34041
 3.94736
 3.94177
 4.11505
 3.95398
 3.41385
 3.34918
 3.08154
 3.20246
 1.38908
 1.18501
 1.50567
 1.52404
 4.10029
 4.21524
 4.27974
 4.21061
 0.145355
 0.0577633
 0.38459
 3.04687
 3.05108
 3.08151
 3.12346
 6.04033
 5.92081
 0.205205
 0.0374549
 -0.022098
 0.491793
 0.207866
 0.327097
 0.19293
 4.5291
 4.38619
 4.30842
 5.09394
 5.00469
 4.99816
 5.07428
 -0.725678
 -0.689117
 -0.858832
 -0.612531
 0.37539
 0.689917
 0.349408
 -2.84217
 -2.37778
 -2.58033
 1.11867
 1.30007
 1.25386
 -3.61419
 -3.59531
 -3.65168
 7.23504
 7.34967
 7.34234
 7.24445
 -5.4333
 -5.53122
 -5.3842
 -5.55581
 2.65419
 2.83827
 -0.084566
 0.145153
 3.92117
 3.89835
 3.94451
 3.7619
 -0.486916
 -0.399305
 -0.68585
 -2.24068
 -2.44998
 -2.40889
 -2.44991
 -3.6946
 -3.29711
 4.54342
 4.52075
 4.60241
 0.188477
 0.225482
 0.447667
 3.33081
 3.53715
 3.31215
 4.43476
 4.43343
 4.4915
 4.57357
 1.80618
 1.71413
 1.93662
 1.63445
 2.0923
 2.33781
 2.27542
 2.12266
 -1.32647
 -1.2463
 -1.2225
 -1.50188
 -2.0998
 -1.90867
 -2.02464
 -1.72543
 2.27597
 2.27234
 2.0934
 -0.693098
 -0.620861
 -0.474839
 -1.55386
 -1.765
 -1.60978
 -1.66496
 -7.40787
 -7.25607
 -7.48421
 0.991114
 1.04077
 1.049
 -1.5081
 -1.6615
 -1.33313
 1.24076
 1.10405
 1.39707
 2.74971
 2.99816
 2.94194
 4.53339
 4.45225
 4.49647
 4.45888
 1.10389
 1.46069
 1.22275
 1.39524
 3.11732
 3.19289
 3.34308
 4.05352
 3.84298
 -1.23202
 -1.06769
 -1.45161
 -1.20202
 -1.25108
 -1.46717
 -1.1478
 -0.978315
 3.88878
 3.68571
 3.58191
 3.51331
 4.11279
 4.31201
 4.19761
 4.32155
 5.46907
 5.56441
 5.46155
 5.62964
 -4.84584
 -4.975
 -3.2799
 -2.93249
 -3.11957
 -3.31389
 -5.50241
 2.8679
 2.63496
 2.88274
 0.807832
 0.734006
 0.921953
 0.990977
 3.98934
 4.01563
 1.37892
 1.42873
 1.22688
 4.69918
 4.62426
 -2.91273
 -2.93922
 -3.21545
 -2.72262
 -3.90616
 -3.83391
 -4.28757
 -4.04142
 -2.30187
 -2.35166
 -2.07039
 2.69375
 2.53451
 2.54637
 -3.76186
 -3.72845
 -3.82993
 -3.90099
 3.23191
 3.49378
 3.2944
 3.19939
 -2.51487
 -2.34411
 -2.30028
 -2.50564
 3.11501
 3.34629
 3.39649
 3.02432
 4.18793
 4.1083
 4.26305
 -5.52002
 -5.97553
 -5.75295
 -5.64814
 4.43658
 4.36468
 4.40016
 1.86375
 1.77685
 1.55871
 1.68806
 -5.20422
 -5.48843
 -5.33412
 3.1387
 3.30292
 3.09505
 3.22632
 -0.842369
 -4.59141
 -4.75245
 -4.1787
 -4.51231
 4.80883
 4.75934
 4.66553
 4.76873
 -1.36669
 -0.97348
 -1.26666
 -1.37838
 1.06957
 0.98626
 1.30977
 4.16865
 4.29649
 4.13944
 4.52886
 -0.920148
 -0.857935
 -1.04773
 3.44289
 3.52319
 7.08481
 7.23622
 7.07577
 6.98412
 5.31266
 5.72264
 5.74359
 -3.94779
 -3.81947
 -4.40795
 -4.01832
 -3.96211
 -4.12787
 5.12791
 5.06837
 5.26447
 5.01691
 2.15892
 2.05419
 2.07098
 1.96909
 1.46389
 1.7696
 1.748
 1.65868
 0.23071
 0.320807
 0.0455295
 0.296668
 0.164178
 0.545911
 0.300773
 0.505056
 -4.91966
 4.24203
 4.32141
 4.23009
 4.28995
 -5.12133
 -4.936
 -5.2416
 -0.00931831
 0.24851
 0.359769
 0.259953
 4.48075
 4.28997
 4.23059
 0.513404
 0.714632
 0.558871
 0.727943
 1.15967
 -1.25018
 -1.33244
 -1.60829
 -1.50941
 3.21844
 3.21991
 3.22207
 1.16556
 0.771308
 0.917355
 -5.32219
 -5.19894
 -4.91674
 -5.16805
 1.23583
 1.30272
 1.37922
 7.69487
 7.63618
 7.79522
 1.25068
 1.40941
 1.27258
 1.61955
 -1.39469
 -1.63525
 -1.57151
 0.943465
 0.899289
 -3.55376
 -3.67458
 -3.4014
 -3.43668
 -2.26212
 -2.48938
 -2.35864
 -2.3244
 -5.69964
 -5.615
 -5.44175
 -5.27862
 0.313589
 0.759804
 0.43869
 0.354298
 -1.82989
 -1.77448
 -1.67084
 -1.5607
 -3.5553
 -3.75059
 -3.93767
 3.49897
 3.37273
 3.69207
 3.57745
 1.48728
 1.26039
 2.55095
 2.70844
 2.52386
 2.60935
 -1.18663
 -1.14468
 -1.14365
 -1.30835
 1.27921
 1.06091
 1.13146
 1.34967
 -0.972544
 -0.837066
 -1.16121
 -0.874827
 1.00971
 0.94857
 0.740152
 0.723292
 1.30127
 1.4938
 1.4759
 -3.33449
 -3.1376
 -3.28819
 -4.56659
 -4.5456
 -4.46543
 -4.90946
 -3.71386
 -3.68704
 -3.8852
 -1.83002
 -2.18276
 -1.88625
 6.63623
 6.65809
 6.78541
 1.54015
 1.25665
 1.4799
 -3.08469
 -3.21483
 -3.08239
 -3.04887
 1.54885
 1.44205
 1.56816
 0.183898
 0.0910447
 0.121191
 0.323813
 -0.895882
 -0.374437
 -0.55623
 -0.530654
 1.14247
 0.961987
 1.00818
 0.841953
 3.78193
 3.65077
 3.75925
 3.85374
 1.45887
 0.18804
 0.203033
 0.0649843
 0.509807
 4.4602
 4.40006
 4.37653
 4.3862
 4.45881
 4.30437
 4.40878
 4.31009
 4.09216
 3.97943
 4.04321
 4.14257
 -0.900757
 -0.864591
 -1.16866
 -1.30588
 3.39081
 3.5223
 3.43496
 3.40325
 -6.06883
 -5.79098
 -6.01999
 -5.80666
 5.61067
 5.5197
 5.39166
 5.40634
 3.43719
 3.41626
 3.46091
 4.80938
 4.94084
 5.03148
 5.00017
 4.08601
 4.21288
 3.95848
 4.31103
 4.28404
 0.790454
 0.831522
 0.674866
 0.323808
 -4.51525
 -4.25668
 -4.16636
 -4.55915
 -4.5068
 -4.68735
 -4.42366
 3.98898
 4.12189
 -5.59068
 -5.79303
 -5.51006
 -3.43943
 -3.38031
 -3.43983
 -3.64765
 4.11386
 4.21016
 4.09109
 -5.55205
 -5.65916
 -5.46049
 -5.73191
 2.51176
 2.46094
 2.30412
 2.64537
 3.95784
 4.21422
 4.10986
 3.92291
 4.9389
 4.65591
 4.7716
 4.83021
 6.21528
 6.15735
 6.31335
 6.3077
 -0.373267
 -0.811243
 -0.589127
 -0.757112
 2.33078
 2.31697
 2.40913
 2.69085
 -5.57457
 -5.25307
 -5.55217
 7.83437
 7.66138
 7.77725
 7.58073
 5.34653
 5.15656
 5.2735
 5.11166
 -5.40465
 -5.77785
 -5.58494
 -5.55629
 1.09493
 1.05883
 0.86311
 -3.78343
 -4.16681
 -4.22317
 3.75317
 3.77022
 4.0235
 -5.65561
 -5.40265
 -5.36616
 -5.53743
 -3.52928
 -3.40833
 -3.34061
 -3.12148
 3.17827
 3.05945
 2.88239
 3.06305
 2.34688
 2.56824
 2.36465
 2.62882
 -2.43663
 -2.44299
 -2.50861
 -2.79091
 0.565557
 0.701597
 0.865345
 0.752882
 5.753
 5.57479
 5.57078
 5.58572
 -3.7275
 -3.17903
 -3.53363
 -3.38801
 -5.96111
 0.73059
 0.666842
 0.507116
 0.514807
 -4.49226
 -4.66983
 -4.59977
 -4.90153
 4.4187
 4.41656
 4.39152
 4.38659
 -5.46774
 -5.68003
 -5.3666
 -5.25343
 1.29066
 1.35457
 2.26143
 2.38057
 2.21793
 2.14633
 -2.3209
 -2.04611
 -2.02704
 -2.03616
 0.149412
 -0.126105
 -0.0715212
 2.3859
 2.42177
 2.33724
 -2.34079
 -2.30391
 -2.01254
 -2.02121
 -1.88636
 -1.74555
 -2.0153
 -1.80679
 3.84936
 4.02276
 4.04379
 1.15484
 0.653351
 0.64808
 0.942762
 5.74657
 5.63606
 5.45282
 5.70677
 5.86037
 -5.69858
 -5.18193
 -5.71505
 -5.31662
 0.758884
 0.895572
 0.999408
 0.768763
 -4.12276
 -4.31581
 1.68152
 2.01329
 1.99146
 3.33176
 3.52765
 3.20615
 3.26207
 -5.34557
 -5.22673
 -5.46851
 -5.44882
 4.20429
 4.14133
 4.16786
 3.26355
 3.3447
 3.18066
 3.32644
 2.44977
 2.21106
 2.39164
 2.65802
 -1.27624
 -1.74546
 -1.45355
 -1.57004
 3.57637
 3.30191
 3.45341
 3.4823
 -2.18218
 -0.334565
 -0.629133
 -0.709192
 -0.275333
 -4.46247
 -4.55604
 -4.25743
 -5.14972
 -5.03091
 -5.01259
 -4.80599
 -0.477078
 -0.615902
 -0.295559
 -0.446977
 -6.41888
 -6.39596
 -6.38306
 -6.09196
 2.53951
 -0.0653474
 0.274455
 0.280863
 0.0278367
 0.7053
 1.0675
 0.89881
 0.82706
 6.18676
 6.00254
 5.95484
 6.1411
 1.36009
 1.29809
 1.21511
 1.4929
 1.9099
 1.87256
 1.79846
 1.68967
 1.66914
 1.636
 1.45215
 -3.93706
 -3.6794
 -3.57235
 1.84411
 2.09226
 2.04996
 1.90844
 -3.77501
 -4.16768
 -3.95585
 1.03865
 1.20569
 0.643701
 0.485736
 0.55968
 0.476504
 0.551959
 0.479358
 0.868985
 0.81348
 0.51084
 0.615856
 -4.19937
 -4.34079
 -4.33242
 2.46758
 -4.85258
 0.152728
 -0.0150424
 0.182317
 0.403301
 3.9882
 3.96266
 4.179
 3.56985
 3.36801
 3.2783
 0.649327
 0.555922
 0.805369
 1.17387
 1.18535
 1.07342
 0.947205
 0.872781
 1.06127
 0.712591
 1.01364
 7.86228
 7.82899
 7.98049
 -2.39191
 -2.09269
 -2.36616
 1.3083
 1.24121
 -3.21622
 -2.83333
 -2.94545
 -2.82476
 -0.195635
 -0.407211
 -0.199623
 6.05405
 6.02802
 6.22237
 6.14811
 1.80506
 2.06872
 1.85459
 2.00993
 3.76548
 3.8632
 3.96113
 4.02174
 -1.18295
 -0.828711
 -1.02234
 -1.16299
 2.79905
 2.97118
 2.83016
 3.08162
 5.67089
 5.69826
 5.70541
 2.43385
 2.51538
 2.63293
 2.57693
 -1.23045
 -1.52701
 -1.42246
 -1.43729
 1.02125
 0.767418
 0.735775
 0.881221
 3.49992
 3.59984
 3.48186
 2.14528
 2.32062
 2.24008
 2.27669
 3.60693
 3.82437
 3.57286
 3.76366
 4.48626
 4.24807
 4.28303
 4.54108
 -5.23348
 -5.38713
 -5.28555
 -5.37017
 4.10424
 3.94956
 4.00462
 3.94489
 3.5929
 3.73442
 3.52727
 3.5444
 -0.625215
 -0.951876
 -0.841809
 -1.03114
 2.45961
 2.52254
 2.30911
 2.39984
 -7.13114
 -7.22675
 -7.20027
 -7.26461
 1.74796
 1.84958
 1.64004
 4.42319
 4.55883
 4.50501
 4.3295
 4.18537
 4.27296
 4.21335
 4.2769
 3.91752
 4.22411
 -1.52501
 -1.25983
 -1.4855
 -1.13521
 -6.65559
 -6.4941
 -6.60398
 -6.56044
 2.09354
 2.31162
 2.19237
 2.32094
 3.89693
 4.01997
 4.03716
 -1.01829
 -0.745517
 -0.724683
 -0.95919
 1.57039
 1.60152
 1.49141
 1.31288
 3.34825
 3.33624
 3.36221
 3.18269
 4.51986
 4.23281
 4.40589
 -2.70337
 -2.98226
 -3.10441
 -2.76318
 -3.27355
 -3.25562
 -2.99915
 2.02809
 2.03957
 1.88757
 1.76888
 1.85716
 1.96085
 1.70502
 3.36583
 3.15984
 3.06565
 3.12618
 -0.925188
 -0.840126
 -0.664576
 3.95576
 3.95717
 4.16708
 0.774258
 0.519052
 0.620556
 -3.33145
 -2.99519
 -3.19673
 -1.38648
 -1.32572
 2.53226
 2.38295
 2.562
 2.37985
 2.29905
 2.39472
 1.3509
 1.63012
 3.1685
 4.73179
 4.70036
 4.85675
 -3.9225
 -3.88247
 -3.46649
 2.0644
 1.88598
 1.95401
 2.09789
 3.20468
 0.981552
 0.813121
 -1.07467
 -1.16615
 -1.0177
 -1.26084
 1.04054
 1.22325
 0.981882
 1.92057
 1.79989
 2.13293
 1.88721
 2.44158
 2.05448
 1.82373
 1.99948
 2.10045
 1.72203
 -3.98839
 -3.72034
 -3.65352
 -3.85305
 -4.15768
 -4.35892
 -4.70626
 -4.59923
 4.00784
 3.84053
 1.00938
 1.04931
 1.1326
 1.31708
 0.175741
 0.110019
 0.0141692
 -0.0883589
 -0.746951
 -0.975253
 -0.733967
 -0.68774
 1.42195
 1.56672
 1.64875
 1.39418
 1.80407
 1.64753
 1.76199
 1.86836
 -3.31065
 -2.92199
 -3.27709
 -3.19684
 3.69811
 3.45989
 3.41729
 3.26208
 3.72653
 3.49212
 3.61705
 -2.54367
 -2.78976
 -3.09197
 -3.20185
 3.44952
 3.29327
 3.35063
 3.20068
 -4.63012
 -4.48618
 -4.68492
 -4.56844
 -3.40311
 -3.24746
 -3.34622
 -3.18506
 2.26205
 2.14599
 2.34599
 2.24401
 -1.50595
 -1.59854
 -1.4416
 -1.18467
 3.27071
 3.15481
 2.99141
 2.9366
 -2.28212
 -2.12434
 -2.17796
 4.05369
 3.92791
 4.0835
 3.99375
 -0.211019
 -0.117397
 -0.27194
 -0.36898
 2.43828
 2.37382
 -1.98836
 -2.40309
 -2.21097
 -2.11282
 -2.37388
 -2.316
 -2.13589
 1.66765
 1.35559
 1.63418
 -2.77128
 -2.76457
 -2.87402
 -3.08923
 5.6276
 5.56435
 5.43883
 5.49458
 3.28106
 3.20465
 3.02702
 2.97619
 -0.373097
 -0.0446183
 -0.0870124
 -0.396292
 -4.2476
 -4.31543
 -4.1167
 -4.33137
 -3.49971
 -3.75504
 -3.79664
 -3.56434
 -4.4926
 -4.46389
 -4.53885
 -4.11414
 -4.225
 2.78683
 2.65162
 2.8071
 2.60211
 3.76559
 3.69978
 3.99856
 3.80851
 2.99451
 2.9884
 2.50243
 2.27105
 2.44483
 2.45449
 1.90598
 1.88427
 1.63096
 1.88468
 3.76745
 3.76283
 3.91968
 0.594344
 0.750084
 0.70804
 0.804551
 -7.19313
 -7.10713
 -6.88816
 2.69593
 2.73664
 2.66382
 2.46034
 -3.13499
 -2.77643
 -2.99922
 -3.09028
 -1.27462
 -1.58336
 -1.47756
 0.937186
 1.07505
 0.824833
 -1.39626
 -1.68806
 -1.40767
 -3.30191
 -3.08794
 -1.14484
 -1.17867
 -1.17745
 3.21278
 3.12881
 3.07435
 3.31317
 -4.55636
 -4.73435
 -4.55325
 -4.46289
 -0.274236
 -0.568174
 -0.401981
 6.4374
 6.62889
 6.68866
 6.45903
 4.22025
 4.32097
 0.217933
 2.44833
 2.15319
 2.3532
 2.44582
 0.733082
 0.471122
 0.483129
 -2.03465
 -2.07942
 -1.87154
 -2.05262
 -4.83441
 -4.96972
 1.18116
 1.27402
 1.26355
 1.41996
 4.44887
 4.60443
 4.61773
 4.40549
 -3.61654
 -3.77708
 -3.74582
 -3.62272
 -0.410166
 -0.519678
 -0.363383
 7.53929
 7.61518
 7.74086
 7.73959
 3.99892
 4.03488
 4.20154
 2.85514
 2.6841
 2.97654
 2.79608
 -0.197318
 -0.229269
 -0.0823607
 -0.404401
 1.03111
 0.842272
 4.52061
 4.46312
 4.48211
 4.47376
 -0.597136
 -0.869134
 2.9122
 3.173
 3.04981
 2.9743
 2.07617
 1.97975
 2.24595
 2.0634
 0.987019
 0.740274
 0.645089
 0.83912
 2.96484
 3.07146
 3.30299
 -1.24309
 -0.893286
 -1.25428
 -0.969633
 -2.7022
 -2.94122
 -3.16814
 -2.75028
 -2.34888
 -2.33619
 -2.36904
 -2.61559
 4.55779
 4.7472
 4.61787
 4.76931
 1.0013
 1.1567
 6.84199
 7.01069
 6.94585
 7.11159
 2.13044
 2.33664
 2.4389
 -5.51346
 8.24518
 8.20021
 8.19877
 8.4179
 1.25399
 1.12702
 1.26038
 1.23808
 2.6517
 2.43804
 2.56233
 -2.53926
 -2.77328
 -2.8015
 -2.51531
 -2.60203
 -2.50132
 -2.80443
 -2.79793
 -2.36942
 -2.4976
 -2.2646
 -2.16385
 3.14526
 2.96644
 3.26006
 2.97197
 3.92307
 3.9917
 4.10676
 4.08494
 -0.632204
 -0.629162
 -0.931698
 -0.609369
 1.95423
 2.26295
 1.8569
 2.06356
 -6.73042
 -4.4418
 -4.53357
 -0.108265
 -0.090849
 1.8058
 1.99252
 1.94211
 -4.66256
 -5.09673
 -4.82497
 -4.73558
 1.4026
 1.5047
 0.0715503
 0.277106
 6.05865
 5.88595
 6.08518
 5.89933
 3.17757
 3.2583
 3.40944
 3.30302
 -0.521985
 -0.83939
 -0.574382
 -0.755053
 5.69342
 5.88103
 5.73622
 5.65521
 -6.16501
 -6.05914
 -6.3316
 -6.09633
 -4.3324
 -4.01178
 -4.98887
 -4.7867
 -4.54554
 -5.01028
 -2.70575
 -2.93282
 2.34536
 2.24059
 2.39481
 7.9503
 7.80254
 7.99718
 7.97996
 5.48271
 5.35814
 5.32057
 5.4803
 -4.47086
 -4.68805
 -4.47086
 -4.3283
 -1.6436
 -2.02157
 -1.80792
 0.523682
 0.756722
 0.91709
 0.655591
 2.90588
 2.64128
 2.86165
 2.93905
 -3.50958
 -3.77546
 -3.61033
 -4.5323
 0.765862
 0.467515
 3.01698
 2.94207
 -1.0998
 -1.4011
 -1.02725
 -1.13254
 3.82937
 4.07173
 3.75355
 4.09224
 4.1558
 4.35111
 4.28482
 7.72918
 7.47926
 7.51942
 7.59569
 2.82664
 2.70208
 2.72038
 2.53081
 -3.50193
 -3.54137
 -2.96982
 -3.20442
 -3.09159
 -3.20404
 3.28431
 3.29771
 3.09362
 3.42655
 -2.16878
 -2.01154
 -2.26233
 -1.22659
 -1.24044
 -1.3056
 -1.08334
 -3.12482
 -3.33068
 -3.03891
 -3.37344
 2.96382
 2.757
 2.82837
 2.92644
 -5.17619
 -4.72588
 1.80282
 6.50729
 6.43056
 6.32655
 6.25696
 -2.15809
 -2.09291
 -2.31457
 5.50835
 5.63132
 5.55028
 5.69222
 -1.25255
 -1.22224
 -1.21932
 -1.46389
 4.33748
 4.34558
 4.5497
 4.2833
 3.69265
 3.72567
 3.54478
 3.5055
 -0.821602
 -1.01491
 -1.03424
 2.48486
 2.38508
 2.53874
 2.66719
 -0.353377
 -0.299356
 -0.467538
 -0.0851888
 0.114809
 0.296921
 -2.94606
 -3.03918
 -3.01119
 -1.29435
 -1.3293
 -1.12332
 6.65138
 6.62513
 6.46539
 6.5986
 3.99071
 3.80453
 4.08392
 3.73927
 -3.6635
 -3.2834
 -3.28813
 -3.26821
 -2.70861
 -2.63068
 3.43421
 3.03892
 3.40174
 -1.24178
 -0.939047
 -1.00417
 -0.863014
 -1.11345
 -1.04641
 -0.935147
 3.12847
 3.23385
 3.10215
 3.05861
 -4.86674
 -4.8799
 2.3095
 2.3912
 2.30662
 2.17781
 3.28226
 3.26568
 3.19036
 -1.44402
 -1.52508
 1.15245
 1.26448
 1.1912
 0.980125
 4.32592
 4.39928
 -0.633054
 -0.540465
 2.30809
 2.61317
 2.56312
 2.3924
 0.566993
 0.574148
 0.741347
 0.411256
 0.598742
 0.747171
 0.605595
 4.93274
 4.9093
 4.99637
 4.6572
 5.54594
 5.53896
 5.40879
 5.4633
 -1.39278
 -1.18016
 -0.966886
 -1.14307
 -3.8881
 -3.92874
 -3.72898
 -3.72038
 0.100448
 -0.041971
 0.173451
 0.93375
 1.05805
 1.17376
 1.12251
 1.01514
 -2.37506
 -2.4389
 2.80901
 2.6028
 2.79574
 2.8487
 3.67957
 -3.9259
 -3.88279
 -3.66757
 -3.76273
 0.843143
 1.23347
 1.11965
 0.909658
 7.50195
 7.39223
 1.65381
 1.93543
 1.67266
 6.69494
 6.6441
 6.72756
 6.55353
 -0.448353
 -0.251468
 -0.413739
 -0.324701
 4.3249
 4.11986
 4.07065
 3.23408
 3.05854
 -5.45195
 -5.39769
 -5.38896
 -4.8765
 -4.86544
 -4.70613
 4.01206
 3.72573
 3.21017
 3.2097
 7.09216
 7.20329
 7.21428
 7.2345
 -3.87163
 -3.51289
 -3.96032
 3.72417
 3.68693
 3.58438
 3.83928
 3.42448
 3.50733
 3.28401
 3.51283
 -1.42886
 -1.51082
 -1.6433
 -1.49576
 -0.316377
 -0.826166
 -0.595236
 -1.14371
 -1.19727
 -0.893692
 -1.17439
 -2.27178
 -2.0073
 -2.50797
 -1.86103
 4.49143
 4.479
 3.89068
 3.87657
 3.79645
 -0.182403
 -0.0775258
 0.169969
 0.0582911
 3.56898
 3.58165
 3.35403
 3.43531
 -1.74177
 -1.60038
 -1.65605
 -1.81362
 4.42079
 4.20542
 -3.86139
 -3.67246
 -3.73398
 -3.5373
 -1.63815
 -1.23401
 -1.40573
 -1.70987
 2.88667
 2.86565
 2.92986
 2.74646
 -3.35731
 -3.67326
 1.72444
 1.66472
 1.58989
 1.53234
 5.56539
 5.53852
 5.5575
 5.51744
 4.34972
 4.2434
 4.35837
 4.20745
 -5.67541
 -5.76093
 -5.82603
 -5.80462
 -4.36366
 -4.24778
 -4.1573
 2.97573
 3.00683
 3.04183
 -5.4845
 -5.61617
 1.62132
 1.54051
 1.70005
 1.40577
 -3.55076
 -3.35826
 -3.60708
 -3.36949
 3.43191
 3.54316
 3.40366
 3.57539
 4.96738
 4.77348
 4.84844
 -2.89043
 -3.22714
 -3.20036
 -3.19713
 2.20872
 1.92037
 1.97108
 2.04307
 3.88579
 3.80444
 3.66851
 4.03032
 4.60715
 4.87082
 4.52342
 0.0255261
 0.266064
 -0.119092
 0.728425
 0.663877
 0.868084
 0.603074
 -0.0473614
 -0.00429765
 -0.245475
 0.0438307
 2.40613
 2.19649
 2.3981
 2.20479
 3.27346
 3.22899
 3.11584
 3.37074
 3.99765
 4.15965
 -0.989431
 -1.31821
 -0.959063
 -0.953195
 0.544104
 0.857259
 0.606458
 0.738437
 0.363283
 0.699861
 0.736499
 0.844208
 0.434977
 0.630146
 6.58102
 6.53264
 6.38078
 6.49684
 -4.47073
 -4.72612
 -4.42305
 2.00425
 2.01184
 2.08897
 2.21819
 1.40058
 1.5878
 1.40526
 4.20133
 4.07789
 4.27775
 4.21938
 3.69437
 3.87077
 3.7465
 3.79399
 2.15908
 2.10533
 1.9234
 3.44446
 3.55865
 -1.60245
 -1.45818
 -1.77064
 -5.98157
 -5.99495
 -5.78932
 -5.9452
 3.7433
 3.9838
 3.95818
 3.73701
 1.38423
 1.18331
 1.10365
 1.32441
 -2.38057
 -2.4572
 -2.18102
 -2.19557
 3.58743
 3.48992
 3.65086
 3.35337
 3.02382
 2.89388
 2.82646
 2.6572
 -2.8728
 -2.6508
 -2.33281
 -2.42111
 3.09151
 2.8632
 -4.0174
 -3.91695
 -4.1473
 -0.0808341
 0.143803
 5.10525
 5.18075
 5.24783
 5.27289
 2.05787
 1.96068
 1.88583
 1.93767
 5.12792
 5.20298
 5.11848
 1.37822
 1.41534
 -0.433152
 -0.617596
 -0.869126
 -0.450444
 2.16949
 2.15078
 -0.918587
 -1.17203
 2.26533
 2.39857
 2.27694
 2.19961
 -1.03324
 -0.843844
 -1.15171
 -1.1878
 -2.08028
 -2.34788
 -2.61516
 -2.43694
 -5.36343
 -5.38829
 -5.28824
 -5.2977
 1.18739
 1.0762
 3.69535
 3.69901
 4.03653
 4.13517
 -2.13358
 -1.84085
 4.25747
 4.04766
 4.20141
 6.16185
 6.12932
 5.85718
 5.9771
 6.48081
 6.31854
 6.40803
 0.632322
 0.335858
 0.390748
 0.422623
 2.21125
 2.0167
 2.17187
 3.78259
 2.93058
 2.76397
 3.02772
 2.81092
 3.8625
 3.70489
 4.00805
 3.82241
 2.47891
 2.64511
 2.44182
 2.62725
 -1.45773
 -0.979935
 -1.00945
 -1.39761
 -5.37445
 -5.27756
 -5.28691
 -5.48435
 1.74968
 1.82676
 1.5147
 1.61136
 -2.85253
 -2.71178
 -3.17099
 -3.09477
 2.95086
 -1.4614
 -1.08219
 -1.26559
 -1.2087
 4.90035
 5.00636
 4.91598
 4.88985
 -1.47603
 -1.73118
 -1.74083
 2.69799
 -3.98719
 -3.99416
 -3.8493
 -4.37486
 -4.6777
 -4.65769
 -4.6824
 -5.08129
 -4.80833
 -5.01291
 -5.04632
 0.91028
 0.955792
 0.871777
 1.16743
 -4.91197
 -4.92638
 -5.02387
 -5.02009
 3.8358
 3.98106
 4.024
 4.06532
 -0.776602
 -0.677857
 -0.722077
 -0.458404
 1.84655
 1.57567
 1.62547
 1.81851
 5.83624
 5.71258
 5.79408
 -0.464353
 1.30513
 1.37502
 1.48704
 1.19506
 -4.72781
 -4.96436
 -4.94073
 -5.04074
 -4.44439
 -4.59481
 -4.83938
 -4.76138
 -0.524602
 -0.449911
 -0.607059
 -0.401355
 2.96174
 3.09273
 3.16584
 3.07748
 2.09598
 1.85672
 2.01146
 -4.07234
 -4.24515
 -4.02598
 -3.80021
 -4.77632
 -4.9231
 -4.92934
 -4.68608
 3.88811
 4.01836
 4.0088
 -2.87212
 -3.07834
 -4.99713
 -4.93401
 -4.97855
 3.76847
 3.91213
 3.69082
 3.67421
 -1.82794
 -2.24291
 -1.77885
 -1.7043
 2.0977
 -0.0230289
 -0.0804833
 -0.255844
 -0.0456031
 -0.587126
 -0.386316
 -0.644572
 -0.226269
 -4.46068
 -4.60288
 -3.31909
 -3.66475
 -3.43865
 -3.71706
 -3.13964
 -3.51443
 -3.34457
 -3.64577
 -2.94473
 -2.60316
 -3.03397
 -2.71783
 -1.74982
 -1.98093
 -1.7666
 -1.91492
 5.58341
 5.37171
 -4.47846
 -4.58422
 -4.75061
 4.47732
 4.5079
 4.46716
 3.28709
 3.53976
 3.60039
 3.35435
 -1.88948
 -1.75353
 -1.96776
 -2.17437
 1.59462
 1.81963
 1.72524
