 23.43
 23.3437
 23.3718
 23.3129
 21.8524
 21.8438
 21.7895
 21.7633
 22.2857
 22.3405
 22.2709
 22.3464
 22.2244
 22.2665
 22.31
 22.3227
 21.3296
 21.2468
 21.3636
 21.3809
 21.358
 21.4192
 21.3086
 21.3965
 23.7506
 23.8174
 23.7963
 23.7493
 23.7233
 23.6965
 23.6966
 23.7425
 21.3117
 21.3438
 21.4114
 21.3354
 21.3796
 21.37
 21.3965
 21.2867
 23.9596
 24.003
 23.9367
 23.9249
 22.242
 22.2383
 22.295
 22.256
 23.1049
 23.1176
 23.1643
 23.0618
 21.866
 21.9514
 21.9787
 21.9265
 22.5426
 22.5527
 22.5169
 22.4704
 23.5457
 23.5931
 23.5129
 23.5919
 21.5943
 21.5433
 21.5911
 21.5116
 22.0914
 22.1298
 22.0748
 22.1178
 22.5515
 22.5414
 22.5315
 22.4952
 21.5554
 21.5636
 21.5292
 21.4708
 23.675
 23.7469
 23.6715
 23.7211
 21.1479
 21.1522
 21.0699
 21.0535
 24.4515
 24.4925
 24.4883
 24.4311
 22.0244
 21.9821
 22.0392
 22.054
 22.6386
 22.6734
 22.6055
 22.5965
 22.4608
 22.4546
 22.4883
 22.5084
 22.8973
 22.8354
 22.8046
 22.8866
 23.5554
 23.6023
 23.5442
 23.5472
 23.1418
 23.159
 23.2177
 23.1807
 21.9359
 21.949
 21.9677
 22.0164
 22.5955
 22.4918
 22.6112
 22.579
 23.0964
 23.0425
 23.0495
 23.093
 22.1647
 22.2324
 22.1648
 22.2212
 21.8275
 21.8595
 21.8589
 21.8516
 23.1105
 23.1784
 23.105
 23.2033
 23.4891
 23.4943
 23.5077
 23.5051
 22.2082
 22.2858
 22.2311
 22.2323
 23.8077
 23.7844
 23.7677
 23.7625
 22.0338
 22.0234
 21.9144
 21.9408
 20.9199
 21.0048
 20.9409
 21.021
 22.3951
 22.4171
 22.3859
 22.4627
 21.9686
 21.9138
 21.9368
 21.9748
 23.7555
 23.7582
 23.6995
 23.7987
 22.1426
 22.1991
 22.1751
 22.1152
 21.3061
 21.332
 21.2679
 21.3076
 23.2688
 23.2161
 23.2403
 23.2654
 22.1498
 22.0542
 22.0803
 22.0618
 23.4649
 23.4033
 23.4443
 23.5066
 23.1091
 23.1479
 23.1702
 23.1866
 22.5405
 22.5863
 22.5955
 22.6499
 23.5737
 23.6018
 23.6211
 23.5628
 22.4085
 22.4652
 22.4559
 22.4198
 23.0008
 23.0638
 22.9867
 23.0874
 22.3987
 22.3599
 22.3877
 22.3635
 23.1791
 23.1252
 23.1682
 23.0895
 22.2877
 22.295
 22.2425
 22.3408
 21.9726
 21.9737
 21.9329
 21.8914
 21.9461
 21.9986
 21.9694
 22.0532
 23.2335
 23.2522
 23.3198
 23.2103
 22.8492
 22.8812
 22.8817
 22.8047
 24.3564
 24.3831
 24.4232
 24.3782
 23.1757
 23.1949
 23.2493
 23.1842
 22.6304
 22.541
 22.5873
 22.5777
 22.9851
 22.9859
 22.9027
 23.0287
 23.0666
 23.0042
 23.0684
 23.0115
 23.6261
 23.6628
 23.6083
 23.6124
 21.5291
 21.451
 21.4122
 21.5324
 21.3588
 21.3352
 21.299
 21.2729
 22.5064
 22.4264
 22.5548
 22.5099
 23.1525
 23.1695
 23.1302
 23.2033
 22.0096
 21.9867
 21.9485
 22.0146
 23.653
 23.7774
 23.7286
 23.727
 23.6771
 23.7301
 23.7531
 23.6754
 24.489
 24.5343
 24.4812
 24.4898
 22.3424
 22.261
 22.3149
 22.2532
 23.2688
 23.204
 23.1922
 23.2609
 23.4016
 23.4466
 23.3685
 23.3713
 21.222
 21.1388
 21.1689
 21.1273
 23.5397
 23.5737
 23.6235
 23.5574
 23.4178
 23.449
 23.4844
 23.4206
 23.3036
 23.2589
 23.3131
 23.361
 22.7498
 22.761
 22.7093
 22.7156
 23.3695
 23.299
 23.3514
 23.3277
 23.1184
 23.0879
 23.0688
 23.0986
 22.8419
 22.8598
 22.8869
 22.9061
 23.495
 23.5724
 23.4808
 23.5701
 24.6318
 24.6369
 24.5725
 24.5742
 23.6362
 23.6158
 23.5739
 23.6064
 22.2803
 22.335
 22.2669
 22.3628
 22.2751
 22.309
 22.2572
 22.3252
 21.9487
 22.0079
 22.0067
 21.9614
 23.791
 23.8014
 23.7823
 23.7541
 21.0539
 21.0672
 21.1276
 21.0146
 22.0549
 21.995
 22.0697
 22.0441
 23.7887
 23.7837
 23.8411
 23.8587
 23.0868
 23.0946
 23.1116
 23.0167
 23.4325
 23.3878
 23.4853
 23.4468
 23.4191
 23.4475
 23.452
 23.7577
 23.7665
 23.7733
 23.8018
 22.1453
 22.1877
 22.2327
 22.1253
 22.878
 22.7928
 22.8189
 22.8607
 22.2605
 22.1927
 22.258
 23.169
 23.2531
 23.1948
 23.2185
 22.7278
 22.6707
 22.6903
 22.7622
 21.6213
 21.7345
 21.7253
 21.5895
 23.6597
 23.6537
 23.5765
 23.6054
 23.4645
 23.5085
 23.5473
 23.5009
 22.3447
 22.4191
 22.4291
 22.4016
 22.0638
 22.1066
 22.0059
 22.0108
 23.7454
 23.7258
 23.7524
 23.7957
 23.4953
 23.4758
 23.3756
 23.4051
 22.9177
 22.8468
 22.8074
 22.9085
 21.425
 21.3808
 21.4045
 21.3872
 22.3108
 22.2412
 22.2106
 22.246
 22.6586
 22.7541
 22.6826
 22.6585
 24.3908
 24.462
 24.3925
 24.3945
 22.8074
 22.8497
 22.773
 22.7382
 21.6261
 21.7067
 21.6272
 21.7236
 23.3261
 23.4183
 23.2905
 23.311
 23.529
 23.5168
 23.5776
 23.5405
 23.5163
 23.5776
 23.5669
 23.5495
 24.0596
 24.067
 24.065
 24.0328
 23.3522
 23.4468
 23.4379
 23.4396
 22.3338
 22.3355
 22.3245
 22.378
 23.785
 23.7573
 23.7378
 23.7186
 21.5405
 21.6059
 21.5443
 21.5269
 23.6749
 23.7497
 23.7464
 23.6795
 21.6642
 21.7676
 21.6502
 21.7172
 22.8759
 22.926
 22.9234
 22.8871
 22.9905
 22.9265
 22.9111
 22.9671
 23.2389
 23.239
 23.1548
 23.216
 23.3662
 23.3662
 23.4249
 23.4334
 21.1407
 21.061
 21.0393
 21.052
 23.315
 23.3617
 23.3131
 23.351
 20.9233
 20.997
 20.9496
 21.0539
 22.0307
 22.0607
 21.9766
 22.039
 24.2315
 24.1691
 24.18
 24.2322
 21.2423
 21.2518
 21.2031
 21.178
 23.5455
 23.4865
 23.5451
 23.5971
 24.1809
 24.2282
 24.2508
 24.1843
 21.818
 21.8434
 21.8804
 21.85
 21.2836
 21.1897
 21.2614
 21.3021
 22.474
 22.4678
 22.489
 22.5142
 21.8958
 21.9749
 21.8824
 21.9709
 23.4617
 23.5346
 23.4905
 23.5147
 22.3619
 22.3917
 22.3686
 22.3129
 23.0515
 23.0601
 23.0111
 23.0064
 23.7072
 23.6734
 23.7221
 23.7238
 23.9318
 23.942
 23.9529
 23.8899
 22.837
 22.8581
 22.7993
 22.8802
 22.6645
 22.681
 22.6928
 22.739
 23.4954
 23.5028
 23.4486
 23.4473
 23.4803
 23.5726
 23.493
 23.4978
 22.2438
 22.2224
 22.2692
 22.2816
 21.3315
 21.3919
 21.2835
 21.2614
 21.4766
 21.5136
 21.4593
 21.4349
 21.5162
 21.5912
 21.5721
 21.5304
 22.0625
 22.1022
 22.0377
 22.1006
 23.4776
 23.5674
 23.502
 23.5255
 23.445
 23.3978
 23.382
 23.3718
 22.6482
 22.6943
 22.7516
 22.7719
 22.0814
 22.1154
 22.0285
 22.0786
 22.0992
 22.1345
 22.1036
 22.0538
 22.5108
 22.5715
 22.5233
 22.5101
 22.293
 22.2344
 22.3039
 22.2949
 23.8359
 23.8442
 23.8095
 23.7526
 24.8295
 24.8737
 24.8205
 24.8877
 23.3146
 23.3217
 23.3867
 23.3478
 24.6743
 24.6112
 24.6238
 23.3591
 23.3737
 23.3311
 23.396
 21.5246
 21.5714
 21.5379
 21.5838
 22.571
 22.5441
 22.5225
 22.4717
 21.4206
 21.4564
 21.3854
 21.4722
 23.506
 23.4973
 23.5701
 23.5165
 22.1001
 22.0964
 21.9812
 22.0114
 22.4972
 22.5195
 22.5888
 22.5342
 21.1637
 21.1153
 21.1011
 21.2387
 21.8159
 21.8328
 21.8023
 21.7434
 23.2895
 23.2291
 23.2702
 23.291
 22.0647
 22.0712
 22.1353
 22.0519
 21.698
 21.8008
 21.751
 21.7825
 24.1642
 24.2348
 24.2206
 24.2298
 22.5858
 22.5637
 22.5201
 22.5116
 21.6737
 21.6478
 21.6463
 21.7132
 22.2669
 22.2083
 22.3093
 22.1684
 21.6694
 21.7462
 21.6634
 21.6655
 23.4234
 23.3628
 23.3298
 23.3478
 21.7833
 21.6664
 21.7987
 21.6894
 22.877
 22.8435
 22.9413
 22.8769
 22.755
 22.7305
 22.6909
 22.7688
 21.8148
 21.8479
 21.8927
 21.7806
 20.9635
 21.0245
 21.0261
 20.9828
 23.8665
 23.8326
 23.7962
 23.7742
 23.1412
 23.0803
 23.0519
 23.1262
 22.3229
 22.3693
 22.3931
 22.3749
 21.8626
 21.8103
 21.8321
 21.8004
 23.2916
 23.353
 23.3234
 23.3151
 23.7271
 23.6639
 23.6309
 23.7146
 22.0374
 22.0328
 22.1229
 22.1117
 22.1783
 22.123
 22.1836
 22.1559
 21.2315
 21.1621
 21.1028
 21.2237
 23.5799
 23.4978
 23.5952
 23.5446
 21.3259
 21.2503
 21.2612
 21.3127
 23.1523
 23.0921
 23.1483
 23.1677
 24.7864
 24.7931
 24.7587
 24.7471
 21.5312
 21.507
 21.4469
 21.491
 22.1762
 22.1394
 22.2148
 22.2691
 21.6068
 21.595
 21.6436
 21.6445
 22.7054
 22.7833
 22.7413
 22.7034
 22.8589
 22.8311
 22.8177
 22.8518
 21.8947
 21.9788
 21.9749
 21.9425
 23.4886
 23.4581
 23.5216
 23.4749
 23.6268
 23.594
 23.5836
 23.6205
 24.4579
 24.4857
 24.5019
 24.5137
 22.4431
 22.4052
 22.3722
 22.3495
 22.6432
 22.6665
 22.558
 22.6338
 22.3061
 22.4132
 22.3259
 22.2841
 23.1018
 23.012
 23.0016
 23.1137
 21.2771
 21.2753
 21.234
 21.3594
 21.2615
 21.1503
 21.2623
 21.2774
 22.2387
 22.2108
 22.1581
 22.151
 25.2113
 25.2237
 25.1987
 25.1527
 22.8564
 22.8938
 22.8468
 22.9313
 22.8309
 22.8453
 22.9207
 22.8457
 22.8634
 22.8449
 22.9305
 22.9237
 21.8184
 21.8485
 21.7578
 21.8542
 24.3164
 24.2465
 24.351
 24.318
 24.4692
 24.485
 24.5178
 24.555
 21.7376
 21.7888
 21.7417
 21.8184
 23.2035
 23.1235
 23.234
 23.1406
 23.0137
 23.0287
 23.002
 22.9987
 22.1297
 22.1557
 22.187
 22.2447
 23.5715
 23.5345
 23.5119
 23.5464
 21.786
 21.8385
 21.8292
 21.7735
 23.0915
 23.2025
 23.1532
 23.2412
 23.1753
 23.1761
 23.2333
 23.1961
 23.7361
 23.7728
 23.7091
 23.7796
 22.9319
 22.8552
 22.8913
 22.8386
 21.6666
 21.6322
 21.6415
 21.687
 22.1001
 22.0297
 22.0023
 22.0661
 23.5496
 23.5562
 23.5015
 23.5064
 23.3171
 23.2396
 23.24
 23.3144
 21.4788
 21.4472
 21.3954
 21.4328
 21.8466
 21.9088
 21.8746
 21.8879
 22.7996
 22.8252
 22.8647
 22.8224
 23.8228
 23.8071
 23.8096
 23.7852
 24.065
 23.9772
 24.0011
 24.0618
 22.2122
 22.2913
 22.3204
 22.2604
 23.6631
 23.7224
 23.6644
 23.7816
 21.5429
 21.631
 21.6246
 21.5501
 22.3492
 22.2561
 22.308
 22.3618
 21.8181
 21.8433
 21.872
 21.8242
 22.0589
 22.1461
 22.1355
 22.083
 22.8559
 22.8955
 22.8498
 22.8077
 23.4253
 23.5366
 23.5126
 23.4616
 23.9662
 23.8731
 23.95
 23.948
 23.7539
 23.8342
 23.7479
 23.7686
 23.4423
 23.5083
 23.5193
 23.4733
 22.7735
 22.7487
 22.7434
 22.8624
 22.7864
 22.7301
 22.7573
 22.8044
 22.7203
 22.775
 22.6748
 22.731
 22.2819
 22.3186
 22.2499
 22.2622
 24.2528
 24.3215
 24.2776
 24.2827
 22.5491
 22.5277
 22.5587
 22.4882
 23.5621
 23.626
 23.5961
 23.5822
 23.0234
 22.9402
 23.0003
 22.9559
 21.3401
 21.4647
 21.3619
 21.4017
 22.7427
 22.7749
 22.7773
 22.8083
 23.6757
 23.7108
 23.6899
 23.7601
 22.9868
 23.0068
 22.9522
 22.9189
 23.4076
 23.371
 23.3739
 23.4321
 22.8079
 22.8919
 22.8127
 22.882
 24.2008
 24.2524
 24.229
 24.175
 23.0301
 23.0219
 22.9771
 22.9675
 22.2036
 22.2234
 22.168
 22.2285
 22.2664
 22.2591
 22.2336
 22.254
 21.4104
 21.55
 21.4425
 21.4928
 23.2772
 23.2846
 23.2204
 23.2656
 23.4333
 23.3896
 23.4462
 23.3255
 21.3674
 21.4745
 21.3776
 21.3991
 23.4214
 23.422
 23.3568
 23.4179
 21.7039
 21.7265
 21.6466
 21.7374
 22.5386
 22.4443
 22.4989
 22.4524
 22.7896
 22.885
 22.7956
 22.7778
 23.4697
 23.3997
 23.4071
 23.4701
 22.8184
 22.8118
 22.7262
 22.8055
 21.6906
 21.7066
 21.6784
 21.6712
 24.8478
 24.8209
 24.7994
 24.8873
 23.8519
 23.8674
 23.8679
 23.8462
 23.775
 23.7573
 23.7767
 23.8232
 23.1938
 23.1622
 23.2286
 23.1382
 23.0333
 23.0873
 23.0481
 23.0793
 23.2806
 23.3236
 23.3384
 23.2799
 21.209
 21.2424
 21.1245
 21.2493
 23.4945
 23.5388
 23.5355
 23.4465
 22.323
 22.3266
 22.3002
 22.3768
 22.7199
 21.7751
 21.8496
 21.8475
 21.8683
 22.3904
 22.3282
 22.2782
 22.3298
 23.9056
 23.8747
 23.8622
 23.8877
 23.1348
 23.1622
 23.109
 23.0686
 23.3144
 23.3851
 23.3421
 23.3446
 21.6304
 21.709
 21.6929
 21.684
 22.9715
 23.0681
 23.0002
 23.0235
 21.5389
 21.5301
 21.6063
 21.5966
 22.0952
 22.0536
 22.1261
 22.0357
 23.8826
 23.839
 23.8633
 23.7838
 23.4652
 23.5319
 23.4202
 23.4701
 22.2978
 22.2504
 22.2395
 22.2877
 22.8012
 22.8815
 22.7848
 23.7375
 23.7671
 23.7356
 23.7119
 22.2113
 22.3375
 22.2486
 22.305
 23.3508
 23.4355
 23.415
 23.39
 22.8295
 22.9247
 22.8726
 22.8214
 21.4956
 21.4965
 21.6102
 21.5171
 23.2028
 23.2297
 23.2694
 23.2157
 21.8087
 21.9086
 21.8347
 21.8026
 22.7033
 22.7555
 22.7084
 22.786
 21.9178
 21.9647
 22.0267
 21.9843
 21.5878
 21.5871
 21.499
 21.5401
 23.1539
 23.1645
 23.1107
 23.1158
 24.7896
 24.7067
 24.7074
 24.669
 21.0807
 21.1283
 21.1377
 21.1417
 22.2603
 22.3002
 22.3176
 22.2725
 23.5761
 23.5837
 23.4628
 23.5558
 23.0091
 22.9509
 22.9465
 23.0111
 24.1422
 24.1245
 24.1396
 24.1875
 21.5556
 21.5026
 21.4135
 21.4816
 23.7761
 23.8214
 23.7966
 23.7872
 22.4654
 22.4012
 22.4939
 22.446
 23.5097
 23.6291
 23.533
 23.5425
 21.027
 21.0392
 21.0347
 21.1159
 21.1408
 21.1588
 21.2121
 21.2589
 22.0171
 22.0813
 22.1055
 21.9957
 22.4273
 22.4066
 22.4242
 22.4804
 22.4175
 23.6255
 23.6159
 23.6845
 23.6412
 23.5447
 23.5697
 23.593
 23.5284
 22.1857
 22.1243
 22.1198
 22.1102
 23.6692
 23.6119
 23.6141
 23.6726
 23.4111
 23.4389
 23.4432
 23.3839
 22.0411
 22.0125
 22.0207
 22.0943
 23.1196
 23.0384
 23.1178
 23.0426
 22.1924
 22.1867
 22.1854
 22.1294
 23.3719
 23.384
 23.4357
 23.3909
 23.2157
 23.1769
 23.1575
 23.1517
 22.895
 22.8261
 22.9171
 22.8519
 22.459
 22.3811
 22.4201
 22.3476
 21.8632
 21.8998
 21.7883
 21.812
 22.5145
 22.5341
 22.5713
 22.5618
 22.5427
 22.5006
 22.4893
 22.5008
 23.9306
 23.9316
 23.8918
 23.8697
 22.3041
 22.3033
 22.2617
 22.2937
 22.7456
 22.7332
 22.6943
 22.7416
 22.6556
 22.6678
 22.7112
 22.6745
 23.1407
 23.1283
 23.1931
 23.1477
 23.7247
 23.7341
 23.6955
 23.7895
 21.9878
 22.0171
 21.9831
 21.9479
 23.7009
 23.7475
 23.7296
 23.6569
 21.2332
 21.2383
 21.132
 21.1969
 21.8715
 21.9245
 21.8359
 21.8697
 21.8524
 21.8392
 21.8285
 21.8603
 21.6944
 21.7308
 21.7365
 21.6534
 22.0986
 22.0673
 22.1317
 22.0694
 24.1557
 24.1917
 24.2529
 22.5712
 22.6664
 22.5865
 22.5941
 21.9019
 21.9403
 21.9591
 21.9165
 23.1623
 23.2353
 23.1975
 23.1802
 23.3966
 23.3686
 23.4236
 23.3634
 22.077
 22.0624
 22.0164
 22.1373
 22.8999
 22.9202
 22.9005
 22.8309
 23.3352
 23.3285
 23.3639
 23.3659
 21.2442
 21.1412
 22.314
 22.3225
 22.3957
 22.3846
 22.8675
 22.8938
 22.9288
 22.5324
 22.5076
 22.5146
 22.5891
 23.9729
 24.0047
 23.9336
 23.9428
 21.8096
 21.7609
 21.7587
 21.8449
 22.5586
 22.576
 22.6168
 22.606
 23.1689
 23.2228
 23.186
 23.129
 22.5954
 22.6618
 22.6416
 22.6098
 23.7141
 23.7473
 23.6862
 23.7135
 23.8451
 23.7373
 23.8163
 23.7941
 22.8945
 22.8435
 22.8179
 22.8582
 23.6444
 23.6558
 23.6587
 23.6062
 22.8004
 22.8358
 22.821
 22.8464
 21.7079
 21.7286
 21.8075
 21.816
 23.6213
 23.5843
 23.5538
 23.598
 24.4382
 24.3801
 24.3988
 24.3699
 22.3387
 22.4662
 22.3954
 22.3553
 22.974
 22.9268
 22.9882
 22.9291
 23.6966
 23.7088
 23.6416
 23.6566
 22.8692
 22.9018
 22.8313
 22.8437
 21.5875
 21.6131
 21.5704
 21.583
 23.455
 23.4618
 23.4954
 23.4677
 22.4303
 22.4617
 22.4603
 22.4902
 23.0311
 22.9486
 22.9997
 22.9096
 22.1255
 22.0725
 22.0752
 22.0275
 21.7693
 21.7683
 21.7321
 21.8005
 23.5795
 23.5277
 23.5624
 23.4695
 23.2266
 23.177
 23.1899
 23.2062
 22.4402
 22.4472
 22.535
 22.476
 23.7285
 23.7026
 23.7126
 23.6915
 24.8065
 24.8672
 24.8616
 24.8291
 22.6075
 22.6628
 22.6727
 22.6703
 24.9388
 24.9551
 24.9173
 24.8775
 24.8318
 24.7674
 24.7615
 24.7891
 23.9651
 23.9258
 23.9281
 23.9832
 22.2906
 22.3379
 22.3811
 22.4019
 22.335
 22.2698
 22.2708
 22.2219
 22.2227
 22.2867
 22.2394
 22.3146
 22.3771
 22.4498
 22.435
 22.3497
 24.2098
 24.2592
 24.2241
 24.2443
 23.5958
 23.6316
 23.5586
 23.5833
 23.5823
 23.674
 23.6651
 23.634
 23.0919
 23.0196
 23.0881
 23.0108
 22.5207
 22.5624
 22.5199
 22.5481
 22.1377
 22.1392
 22.1721
 22.1097
 23.5051
 23.4352
 23.4257
 23.4945
 22.2687
 22.8958
 22.8525
 22.8466
 22.8884
 21.1239
 21.1093
 21.0173
 21.0738
 22.9687
 22.9711
 22.9178
 22.9658
 21.6068
 21.5222
 21.5845
 23.6551
 23.6121
 23.5933
 23.6684
 24.6812
 24.6267
 24.6397
 24.6072
 22.7885
 22.7994
 22.7252
 22.8369
 23.1483
 23.2279
 23.2141
 23.2219
 23.6607
 23.6104
 23.5758
 23.5639
 23.546
 23.5206
 23.581
 23.5154
 24.0199
 24.1206
 24.0605
 24.0662
 22.4679
 22.476
 22.4261
 22.336
 22.8284
 22.7629
 22.8414
 22.7924
 23.3169
 23.3644
 23.3151
 23.333
 22.8946
 22.9496
 22.8175
 21.9635
 22.0073
 22.0218
 23.4394
 23.4352
 23.5126
 23.5248
 24.0712
 24.1014
 24.0998
 24.0751
 23.3112
 23.2715
 23.2705
 23.3264
 23.9838
 24.041
 23.9699
 24.0658
 21.9901
 21.8775
 21.9599
 21.9406
 22.0144
 21.9895
 21.9667
 21.9265
 23.7348
 23.762
 23.7498
 23.7598
 24.0808
 24.1621
 24.1129
 24.0901
 22.5963
 22.6843
 22.6132
 22.6509
 21.3278
 21.3893
 21.285
 21.3715
 24.0422
 24.0423
 24.0789
 24.0367
 22.2528
 22.3244
 22.3253
 22.2388
 24.4803
 24.5142
 24.4682
 24.4957
 22.1282
 22.0791
 22.1488
 22.0246
 23.0574
 23.1084
 23.0295
 23.1304
 21.9952
 21.9938
 21.9165
 21.9282
 23.6612
 23.6399
 23.6234
 23.5633
 23.1674
 23.2212
 23.2109
 23.2191
 23.3833
 23.4068
 23.3437
 23.3423
 23.3643
 23.3955
 23.3208
 23.414
 22.6197
 22.5774
 22.5876
 22.6463
 22.941
 22.9989
 22.935
 22.9381
 21.8882
 21.9572
 21.9827
 21.9436
 21.2092
 21.1429
 21.2902
 21.3033
 22.9894
 22.9965
 23.0456
 23.0023
 21.7148
 21.7383
 21.7739
 21.6673
 22.1639
 22.064
 22.034
 22.0751
 24.2197
 24.2576
 24.3147
 24.2368
 23.7099
 23.6018
 23.6205
 23.656
 23.0702
 23.1178
 23.1359
 23.1052
 24.0104
 24.0582
 24.0704
 24.0988
 22.5492
 22.4752
 22.4861
 22.5205
 21.9864
 21.864
 21.9316
 21.9121
 23.9709
 23.8886
 23.9647
 23.9718
 22.8616
 22.8078
 22.8486
 22.8362
 23.3313
 23.3426
 23.3406
 23.3736
 24.7725
 24.7309
 24.7067
 24.7588
 23.1964
 23.2081
 23.2095
 23.1545
 22.8266
 22.7854
 22.7991
 22.7735
 22.2408
 22.1816
 22.2223
 22.161
 23.4173
 23.4021
 23.3926
 22.8114
 22.8227
 22.8394
 22.8276
 23.2245
 23.266
 23.1445
 23.2121
 22.3306
 22.3954
 22.3334
 22.3711
 22.2906
 22.2071
 22.2444
 22.2377
 21.5776
 21.6279
 21.5932
 21.6805
 23.543
 23.5553
 23.5038
 23.5634
 21.3292
 21.3119
 21.2839
 21.3133
 23.4347
 23.3785
 23.4296
 23.4631
 22.8344
 22.7624
 22.7717
 22.7353
 22.7583
 22.8305
 22.8031
 22.8452
 24.8795
 24.9325
 24.8792
 24.8993
 23.2376
 23.277
 23.2316
 23.2199
 22.8413
 22.8629
 22.7962
 22.7229
 22.894
 22.877
 22.8615
 22.9523
 21.0849
 21.0911
 21.1686
 21.1238
 23.4402
 23.3714
 23.332
 23.4204
 23.3582
 23.3972
 23.323
 23.4135
 22.1723
 22.0904
 22.1501
 22.1223
 23.6016
 23.6158
 23.6525
 23.6609
 23.6402
 23.6533
 23.6145
 23.6619
 22.3242
 22.4099
 22.3323
 22.3881
 22.3271
 22.3183
 22.3808
 22.3181
 22.6913
 22.6817
 22.5825
 22.6246
 23.3754
 23.407
 22.4915
 22.5428
 22.4625
 22.5283
 23.3735
 23.336
 23.3787
 23.3557
 23.0404
 22.9723
 22.9466
 22.9655
 21.574
 21.6213
 21.6502
 21.5719
 22.961
 22.9414
 22.9087
 22.8951
 22.0621
 22.0175
 21.9917
 22.0822
 23.4741
 23.373
 23.4082
 23.3805
 23.1477
 23.2093
 23.2159
 23.1916
 22.8693
 22.7458
 22.8068
 22.8078
 23.5931
 23.6476
 23.6687
 23.624
 24.3909
 24.3509
 24.3905
 24.4173
 21.4502
 21.4658
 21.5062
 21.4756
 23.9875
 23.9862
 23.9608
 24.0099
 22.5041
 22.479
 22.5471
 22.5445
 24.3854
 24.3717
 24.3593
 24.4231
 22.5268
 22.4584
 22.5
 22.5088
 23.4417
 23.4501
 23.4742
 23.4573
 23.4585
 23.4386
 23.5009
 23.4633
 22.6388
 22.615
 22.6886
 22.6485
 21.8363
 21.9055
 21.8394
 21.9202
 23.1627
 23.0641
 23.0798
 23.0818
 23.752
 23.7756
 23.7484
 23.7159
 21.8429
 21.7418
 21.7882
 21.7171
 23.4136
 23.4376
 23.3678
 23.3567
 23.1089
 23.0444
 23.0659
 23.0241
 22.1287
 21.9927
 22.0274
 22.0674
 22.7187
 22.6569
 22.6353
 22.6342
 22.9133
 22.9319
 22.9023
 22.8636
 21.559
 21.5186
 21.4717
 21.4441
 21.8605
 21.826
 21.8382
 21.8704
 22.5975
 22.581
 22.6686
 22.6369
 22.9371
 22.9008
 22.9666
 22.8306
 23.2593
 23.2377
 23.2375
 23.153
 23.7473
 23.7495
 23.803
 22.0264
 21.9959
 21.9922
 21.949
 24.4036
 24.4394
 24.5056
 24.4789
 22.2118
 22.2947
 22.2504
 22.2726
 23.534
 23.6171
 23.5705
 23.5639
 23.6804
 23.7491
 23.7257
 23.7357
 21.6847
 21.7555
 21.7212
 21.6279
 22.754
 22.7914
 22.7337
 22.7778
 22.8632
 22.8859
 23.3838
 23.0063
 22.9402
 23.0243
 22.9769
 24.4073
 24.3534
 22.3306
 22.3081
 22.2878
 23.8274
 23.8031
 23.8771
 23.8315
 22.2634
 22.3376
 22.3145
 22.3087
 23.0896
 23.0286
 23.0464
 23.0565
 23.3989
 23.3034
 23.3593
 23.3463
 21.653
 21.6525
 21.5647
 21.6258
 23.8311
 23.7721
 23.8384
 23.7675
 22.431
 22.4356
 22.4071
 22.3693
 21.4305
 21.4201
 21.5088
 21.5096
 22.7603
 22.8329
 22.7806
 22.8244
 22.3764
 22.4832
 22.4513
 22.4507
 22.8868
 22.8368
 22.8872
 22.9851
 21.118
 21.2637
 21.1384
 21.2604
 21.2599
 21.2475
 21.289
 21.3608
 21.4052
 21.4496
 21.4586
 21.3996
 23.0366
 23.0908
 23.0261
 23.0358
 22.554
 22.6441
 22.6075
 22.5717
 22.9346
 22.942
 22.9892
 22.9526
 23.0887
 23.0976
 23.0265
 23.1121
 22.2708
 22.2537
 22.2449
 22.3262
 21.8631
 21.7896
 21.8289
 21.7739
 21.8172
 21.7889
 21.8574
 21.7481
 22.7099
 22.6773
 22.7268
 22.6808
 22.9205
 22.9153
 22.9414
 22.9721
 23.4572
 23.4889
 23.4712
 23.3994
 22.078
 22.0198
 22.0126
 22.1007
 23.9584
 23.9501
 24.0152
 23.9529
 22.0494
 22.0136
 22.0474
 22.0525
 22.6591
 22.5501
 22.6465
 22.5731
 22.6779
 22.6722
 22.6619
 22.7373
 23.7752
 23.7757
 23.8002
 23.8549
 25.0096
 24.964
 25.0357
 25.026
 23.2173
 23.1539
 23.217
 23.2033
 22.0148
 22.0875
 22.0481
 22.0116
 23.6599
 23.7226
 23.6751
 23.6359
 22.5365
 22.4971
 22.5814
 22.503
 22.4806
 22.432
 22.368
 22.3888
 22.1526
 22.1161
 22.2177
 22.1905
 24.1005
 24.1249
 24.1343
 24.0804
 24.0867
 24.0726
 24.1047
 24.1193
 21.9696
 21.8696
 21.8956
 21.9249
 22.2686
 22.3648
 22.3898
 22.3245
 23.2763
 23.2659
 23.3034
 23.304
 22.858
 22.8745
 22.8133
 22.7816
 22.6995
 22.6808
 22.6836
 22.7276
 23.2664
 23.3201
 23.2105
 23.2992
 22.3972
 22.4501
 22.4192
 22.4736
 20.8192
 20.9306
 20.8514
 20.8344
 22.5017
 22.4089
 22.4233
 22.3808
 22.853
 22.8256
 22.8696
 22.7921
 22.8227
 22.8248
 22.8802
 22.8295
 22.6722
 22.6227
 22.6625
 22.7197
 21.3452
 21.3452
 21.41
 21.3561
 21.9056
 21.9733
 21.9362
 22.4182
 22.4093
 22.3802
 22.4253
 23.7524
 23.7627
 23.6966
 23.763
 23.0444
 23.0471
 23.0963
 23.023
 21.8369
 21.9321
 21.9709
 21.9262
 23.4556
 23.4271
 23.4181
 23.3895
 23.1733
 23.2147
 23.2198
 23.1524
 23.0742
 23.1097
 23.179
 23.111
 22.2727
 22.3261
 22.3435
 22.3278
 22.6398
 22.6911
 22.6354
 22.7463
 22.4133
 22.5266
 22.4844
 22.4632
 23.6256
 23.5887
 23.5853
 23.6121
 23.1478
 23.1072
 23.0929
 23.1555
 22.3332
 22.3807
 22.3191
 22.2573
 23.1651
 23.1396
 23.1021
 23.1935
 22.496
 22.4233
 22.4283
 22.4597
 23.6539
 23.6783
 23.6374
 23.6893
 21.523
 21.5047
 21.5821
 21.5244
 23.4777
 23.515
 23.4527
 23.4305
 23.5273
 23.6472
 23.5734
 23.5729
 22.1224
 22.1164
 22.0665
 22.0529
 23.4984
 23.4863
 23.4725
 23.4757
 22.4892
 22.5271
 22.4929
 22.5613
 23.7957
 23.7963
 23.8671
 23.8555
 22.6648
 22.6991
 22.687
 22.6209
 21.6067
 21.4887
 21.5829
 21.5208
 22.6197
 22.7145
 22.7124
 22.6722
 22.201
 22.1736
 22.1931
 22.206
 22.4902
 22.5133
 22.4883
 22.4612
 22.4928
 22.476
 22.4492
 22.4026
 21.4047
 21.3808
 21.3547
 21.4717
 23.5894
 23.6265
 23.6648
 23.6662
 23.505
 23.5344
 23.5942
 23.5395
 21.7434
 21.7307
 21.7809
 21.6772
 21.6547
 21.614
 21.6586
 23.3132
 23.3437
 23.3457
 23.296
 22.5149
 22.4392
 22.4985
 22.5099
 22.5257
 22.5056
 22.5732
 22.4963
 23.5299
 23.4744
 23.5627
 23.5157
 22.1588
 22.1121
 22.1273
 22.1083
 22.903
 22.9702
 22.9648
 22.8898
 22.6458
 22.7205
 22.7065
 22.7351
 22.0994
 22.049
 22.0323
 22.0472
 23.8052
 23.8319
 23.8001
 23.7672
 23.3026
 23.3776
 23.3677
 23.3552
 21.3544
 21.4726
 21.3825
 21.412
 23.5862
 23.5974
 23.5758
 23.4852
 23.8071
 23.839
 23.8234
 23.818
 22.8892
 22.8592
 22.893
 22.8056
 24.4057
 24.3874
 24.4231
 24.3489
 22.7559
 22.7418
 22.7747
 22.7499
 22.0504
 22.091
 22.1097
 22.1205
 21.8313
 21.8755
 21.8575
 23.8484
 23.84
 23.8276
 23.8488
 23.4473
 23.3759
 23.46
 23.3909
 23.5159
 23.5378
 23.556
 23.5878
 23.3614
 23.4128
 23.3782
 23.4009
 21.3014
 21.245
 21.2172
 21.2385
 23.7469
 23.7397
 23.763
 23.8008
 23.3917
 23.4439
 23.4014
 23.336
 21.9024
 21.8701
 21.9091
 21.9404
 23.1627
 23.1902
 23.1468
 23.3222
 23.3997
 23.3506
 22.5729
 22.6477
 22.6937
 24.2856
 24.2222
 24.2114
 24.2627
 22.7469
 22.7148
 22.7491
 22.6888
 22.7485
 22.7188
 22.8107
 22.7851
 21.7118
 21.6714
 21.7481
 21.7631
 21.5519
 21.584
 21.4517
 21.5719
 23.5756
 23.621
 23.6277
 23.531
 22.5985
 22.5193
 22.5267
 22.5281
 22.5568
 22.5065
 22.4763
 22.5001
 22.8773
 22.798
 22.833
 22.7752
 23.2006
 23.1669
 23.1651
 23.2426
 22.6097
 22.6673
 22.6413
 22.5945
 23.6058
 23.5909
 23.6208
 23.5732
 21.6991
 21.7258
 21.6933
 21.6717
 23.3889
 23.3972
 23.3617
 23.3378
 21.8188
 21.8902
 21.8553
 21.8146
 21.4933
 21.5416
 21.5769
 21.5041
 21.6287
 21.6563
 21.6508
 21.6703
 23.4623
 23.5069
 22.2573
 22.2652
 22.3181
 22.2871
 23.5474
 23.4691
 23.5089
 23.5339
 22.0583
 21.9406
 21.9837
 21.958
 21.7939
 21.8701
 21.7723
 21.8589
 23.2326
 23.1976
 23.1838
 23.2185
 22.6541
 22.6555
 22.5977
 22.6316
 23.3607
 23.3544
 23.3105
 23.3538
 23.0071
 23.0018
 22.9949
 22.9363
 24.6993
 24.6104
 24.7124
 24.6324
 21.616
 21.6552
 21.5591
 21.6366
 23.3246
 23.3951
 23.3152
 23.3012
 23.8317
 23.8826
 23.879
 23.8134
 22.9376
 22.962
 22.903
 22.8721
 23.7734
 23.8618
 23.8705
 23.7812
 23.0104
 23.0839
 23.0939
 23.0455
 22.2246
 22.2497
 22.1673
 22.2709
 22.8212
 22.8647
 22.8662
 22.8383
 21.7117
 21.5945
 21.7128
 22.9328
 22.8664
 22.9721
 22.8898
 24.738
 24.7622
 24.7625
 24.7905
 21.2175
 21.1863
 21.1613
 21.2252
 22.7184
 22.7227
 22.6843
 22.7316
 22.0891
 22.1381
 22.1914
 22.1226
 23.6133
 23.5571
 23.6923
 23.6332
 23.1895
 23.1433
 23.2493
 23.1954
 23.2101
 23.1181
 23.1608
 23.1193
 21.602
 21.6508
 21.5889
 21.5464
 23.127
 23.179
 23.2139
 23.1962
 21.2419
 21.2664
 21.2219
 21.3073
 22.2576
 22.3301
 22.3323
 22.2505
 23.5809
 23.5657
 23.5417
 23.5757
 24.4299
 24.4203
 24.3711
 24.4516
 22.9944
 23.084
 23.0324
 23.098
 22.7955
 22.7994
 22.7413
 22.8134
 22.1421
 22.1525
 22.1851
 22.2486
 24.6438
 24.6898
 24.6145
 24.6601
 22.9804
 23.0311
 22.9457
 22.967
 21.394
 21.4358
 21.4557
 21.4358
 21.9748
 21.9073
 21.9326
 21.9554
 21.9064
 21.9278
 21.8577
 21.9459
 21.9093
 21.9698
 21.9844
 21.9567
 21.9126
 21.824
 21.8814
 21.8854
 22.5221
 22.4953
 22.5263
 22.5268
 23.52
 23.4047
 23.3396
 23.3252
 23.3711
 22.3533
 22.4441
 22.4127
 22.4054
 22.3713
 22.3497
 22.4352
 22.43
 24.0783
 24.0443
 24.0457
 24.0773
 21.7789
 21.7826
 21.8187
 21.7866
 22.0779
 22.0231
 21.9579
 22.0037
 23.604
 23.5078
 23.5274
 23.4196
 23.4214
 23.4357
 23.3978
 23.3561
 23.3689
 23.3303
 23.4705
 23.5408
 23.6282
 23.5795
 22.3579
 22.2856
 22.3032
 22.3791
 21.4
 21.3802
 21.4206
 21.3803
 22.8197
 22.8479
 22.8019
 22.8815
 21.5261
 21.6439
 21.67
 21.6831
 22.9697
 22.9881
 23.0114
 22.9424
 22.3223
 22.3861
 22.4242
 22.4136
 23.5051
 23.5152
 23.5313
 23.5753
 22.6305
 22.5483
 22.6551
 22.5875
 22.5098
 22.4363
 22.3963
 22.5075
 23.4779
 23.5075
 23.5636
 23.5363
 23.158
 23.1985
 23.0777
 23.1148
 22.9348
 22.9438
 22.9933
 23.0324
 22.5631
 22.5375
 22.5648
 22.5294
 23.9038
 23.9054
 23.883
 23.8339
 22.3839
 22.4561
 22.4218
 22.3696
 23.1608
 23.2398
 23.1481
 23.1177
 22.2635
 22.2742
 22.2635
 22.308
 21.6714
 21.738
 21.6858
 21.7132
 21.5471
 21.5993
 21.5884
 21.569
 21.531
 21.4855
 21.607
 21.2304
 21.1798
 21.1477
 21.1089
 21.8927
 21.9708
 22.0392
 21.9433
 22.8105
 22.8243
 22.778
 22.7885
 21.4584
 21.4999
 21.5419
 21.4682
 22.7523
 22.7514
 22.7887
 22.7966
 22.515
 22.479
 22.4969
 21.7157
 21.6414
 21.6833
 21.6882
 21.6983
 21.7797
 21.7456
 22.5975
 22.6078
 22.5595
 22.5452
 23.1974
 23.1651
 23.2062
 23.1231
 22.3032
 22.3582
 22.3769
 22.3863
 21.5754
 21.525
 21.5647
 21.5943
 23.3697
 23.3948
 23.3726
 23.4292
 22.8648
 22.8877
 22.9304
 22.9496
 22.7578
 22.6596
 22.7509
 22.7559
 22.1948
 22.2636
 22.221
 22.2203
 23.4262
 23.4727
 23.3876
 23.4592
 23.6434
 23.6975
 23.6377
 23.6359
 22.8347
 22.8359
 22.8447
 22.7855
 21.2472
 21.2905
 21.298
 21.2896
 23.3273
 23.3978
 23.318
 23.3626
 23.5684
 23.5234
 23.596
 23.521
 22.42
 22.5039
 22.4159
 22.4339
 23.3462
 23.3077
 23.3469
 23.6304
 23.5749
 23.5997
 22.5508
 22.6068
 22.5021
 22.581
 23.5423
 23.5743
 23.6131
 23.5451
 23.5941
 23.6641
 23.6019
 23.6101
 22.3756
 22.3592
 22.3907
 23.4458
 23.4535
 21.7612
 21.7413
 21.6523
 21.6383
 22.3016
 22.2086
 22.2124
 22.2371
 23.9417
 23.8989
 23.9782
 23.8798
 24.2936
 24.256
 24.3361
 24.2702
 23.301
 23.4156
 23.3501
 23.3384
 21.6883
 21.6903
 21.6467
 21.6769
 22.2706
 22.3195
 22.3484
 22.3232
 23.8359
 23.8493
 23.8556
 23.8646
 23.3513
 23.3499
 23.3118
 23.2899
 23.3451
 23.3222
 23.3356
 23.5098
 23.4659
 23.4604
 23.4634
 23.4657
 23.515
 23.462
 23.4373
 23.6138
 23.6899
 23.6349
 23.6775
 21.5247
 21.4456
 21.5085
 21.4947
 21.4821
 21.4175
 21.5284
 22.8579
 22.9025
 22.848
 22.9179
 23.3658
 23.4472
 23.3543
 23.3738
 21.2295
 21.1656
 23.6285
 23.6769
 23.6621
 23.7008
 22.6479
 22.5426
 22.6093
 22.5556
 22.4571
 22.4843
 23.5527
 23.5611
 23.5031
 23.5478
 21.4767
 21.4192
 21.5043
 21.3732
 21.2972
 21.3553
 21.307
 21.1954
 22.9613
 22.9339
 22.9539
 24.0562
 24.0022
 24.0246
 23.4246
 23.3442
 23.4313
 23.4144
 22.0623
 22.1289
 22.0168
 22.1142
 23.1936
 23.232
 23.258
 23.2896
 23.295
 23.3294
 23.2733
 23.3378
 22.3368
 22.3297
 22.3102
 22.2288
 24.6032
 24.5461
 24.6056
 24.652
 22.1668
 22.1586
 22.0914
 22.0989
 22.1405
 22.1476
 22.0907
 22.0718
 23.6485
 23.6401
 23.7307
 23.6662
 21.7268
 21.6742
 21.666
 21.7412
 24.7129
 24.7736
 24.7847
 24.8261
 21.5273
 21.6536
 21.6546
 21.6471
 21.8371
 21.9116
 23.2964
 23.2499
 23.258
 23.2155
 23.7148
 23.7811
 23.7418
 23.6931
 21.7758
 21.7068
 21.7118
 21.7456
 23.2292
 23.2177
 23.2219
 23.2596
 21.2168
 21.2613
 21.2346
 23.3967
 23.4551
 23.4676
 23.7993
 23.7245
 23.7051
 21.5811
 21.5332
 21.5601
 21.5904
 23.3878
 23.4299
 23.4338
 23.4209
 21.7426
 21.7349
 23.8293
 23.7789
 23.8277
 23.8098
 22.7924
 22.7203
 22.7286
 22.7699
 23.3316
 23.3529
 23.0793
 22.9615
 22.9679
 23.034
 23.2579
 23.2643
 23.2586
 23.3277
 21.2899
 21.2284
 21.3373
 21.3109
 23.7631
 23.7961
 23.7821
 21.9456
 24.6706
 24.7009
 24.6923
 24.7138
 21.7428
 21.7137
 21.6833
 21.7996
 23.2925
 23.2854
 23.1797
 23.2099
 22.1231
 22.1642
 22.1511
 22.1313
 23.2677
 23.3161
 23.3436
 23.2852
 22.3627
 24.0705
 24.0918
 24.0927
 24.0625
 22.3307
 22.3387
 22.3514
 22.4041
 21.8747
 21.8482
 21.8025
 21.9327
 21.9209
 22.0018
 21.9176
 21.719
 21.6277
 21.7
 21.6783
 23.6184
 23.5999
 23.5266
 23.5664
 21.6661
 21.6642
 21.6777
 21.6102
 23.8175
 23.8316
 23.8182
 23.8827
 21.7325
 21.6899
 21.6692
 21.667
 22.8929
 22.928
 22.9363
 22.9503
 22.1668
 22.1282
 22.1042
 22.0886
 22.5875
 22.6206
 22.6401
 22.6575
 21.4727
 21.5704
 22.7515
 22.8114
 22.7956
 22.753
 23.996
 24.0222
 23.9462
 24.0197
 23.8049
 23.8302
 23.7468
 23.8188
 22.5995
 22.5475
 22.5323
 22.5305
 22.1299
 22.1346
 22.139
 22.0563
 21.9826
 22.0488
 22.0061
 21.9674
 21.6462
 21.7228
 21.7047
 21.7559
 21.994
 21.9086
 21.957
 21.9942
 23.7736
 23.7901
 23.7463
 23.8283
 23.5516
 23.5575
 23.5702
 23.4848
 21.1682
 21.2326
 21.2609
 21.2511
 22.5309
 22.4887
 22.5148
 22.4151
 23.4558
 23.3744
 23.4432
 23.411
 24.438
 24.4441
 24.38
 24.4854
 21.7162
 21.6833
 21.7439
 21.6197
 23.444
 23.4213
 23.406
 23.3671
 23.0295
 22.978
 23.0642
 23.0177
 23.8892
 23.9026
 23.8933
 23.8433
 22.4199
 22.4602
 22.4309
 22.429
 21.577
 21.5704
 21.602
 21.5781
 22.5095
 22.6106
 22.5721
 22.5878
 22.9798
 22.9488
 22.8999
 22.9348
 23.9576
 23.9225
 23.8918
 23.9792
 21.5469
 22.241
 22.1941
 22.2736
 22.1899
 22.9966
 23.0288
 23.0839
 23.0461
 22.0616
 22.0242
 22.0388
 21.9725
 23.4288
 23.5007
 23.4566
 23.4223
 22.4741
 22.4231
 22.4982
 23.984
 23.8865
 23.9582
 23.9512
 21.8673
 21.9899
 21.9174
 21.9532
 23.729
 23.7421
 23.6923
 23.7298
 20.9295
 20.9666
 20.9397
 20.8864
 23.473
 23.466
 23.4515
 23.4676
 24.3275
 24.1964
 24.2143
 24.2643
 24.0067
 24.0142
 23.9668
 23.9546
 21.1949
 21.2504
 21.2716
 21.3056
 21.473
 21.4807
 21.4455
 21.4343
 22.8604
 22.8054
 22.8278
 22.7927
 23.386
 23.4155
 23.3757
 22.682
 22.6898
 22.7721
 22.7434
 22.2779
 22.3183
 22.2282
 22.2423
 22.6118
 22.4905
 22.5316
 22.5484
 22.7493
 22.7367
 22.6255
 22.6773
 21.147
 21.202
 21.2038
 21.2335
 23.5917
 23.6181
 23.5231
 23.5907
 23.9726
 24.0628
 24.0588
 22.1084
 22.1471
 22.1477
 22.1917
 21.8266
 21.762
 21.7969
 21.8104
 23.443
 23.4477
 23.4304
 23.5636
 23.551
 23.5136
 23.608
 21.6357
 21.6781
 21.6006
 21.7089
 22.877
 22.8945
 22.8274
 22.8724
 23.5224
 23.591
 23.5368
 23.5453
 23.0193
 23.0546
 23.05
 23.0037
 21.8903
 21.8812
 21.946
 21.8852
 23.4323
 23.3508
 23.4695
 23.379
 22.9505
 23.0542
 23.0376
 22.983
 23.2699
 23.1901
 23.2457
 21.5054
 21.52
 21.5595
 21.5777
 22.7982
 22.8028
 22.8401
 22.764
 21.1399
 21.1782
 21.0372
 22.7263
 22.6825
 22.709
 22.726
 23.9085
 23.863
 23.9385
 23.9112
 22.5495
 22.5349
 22.5003
 22.4429
 22.7694
 22.6796
 22.792
 23.4222
 23.4118
 23.3469
 23.3629
 23.765
 23.746
 23.7893
 23.7253
 23.4468
 23.4084
 23.3698
 23.4492
 24.3642
 24.3432
 24.2912
 24.2826
 23.0939
 23.1058
 23.133
 23.1443
 23.2955
 23.3216
 23.2388
 23.3365
 21.5323
 21.6423
 21.6199
 21.4999
 23.722
 23.6434
 23.6651
 23.6869
 22.3768
 22.3985
 22.3599
 22.3253
 21.242
 21.2225
 21.2649
 21.3054
 21.2284
 21.3367
 21.2869
 21.2678
 21.9533
 21.9135
 21.943
 21.9421
 21.2359
 21.1402
 21.1502
 21.2824
 21.5832
 21.5821
 21.5912
 21.1147
 21.2342
 21.2041
 21.2053
 23.9269
 23.9588
 23.9269
 23.9835
 23.0096
 23.0965
 23.105
 23.0836
 23.2287
 23.1586
 23.2126
 23.1569
 23.1901
 23.2291
 23.2269
 23.2442
 21.4991
 21.5445
 21.4803
 21.4663
 23.0901
 23.0865
 23.15
 23.1569
 23.426
 23.4957
 23.5053
 23.4465
 22.1697
 22.1879
 22.1219
 22.2153
 23.342
 23.2899
 23.3462
 23.284
 22.0942
 22.1476
 22.1807
 22.6786
 22.6108
 22.5921
 21.6234
 21.7035
 21.712
 21.6782
 23.0136
 22.9868
 23.0366
 23.0356
 22.3565
 22.4165
 22.3943
 22.3372
 23.2092
 23.2883
 23.2544
 23.1878
 21.1279
 21.179
 21.3926
 21.4194
 21.4454
 21.3481
 23.9653
 23.991
 23.9876
 24.0306
 22.3578
 22.3083
 22.2912
 22.2438
 23.4153
 23.3574
 23.4251
 23.4494
 24.9096
 24.995
 24.9125
 24.9401
 23.4318
 23.4618
 23.5009
 23.4547
 22.1623
 22.2303
 22.1643
 23.7575
 23.7674
 23.6835
 23.6876
 21.2806
 21.362
 21.2714
 21.3449
 23.4357
 23.4045
 23.4257
 23.3913
 22.4338
 22.366
 22.3851
 22.4271
 23.8446
 23.8359
 23.8941
 23.8479
 24.5549
 24.53
 24.5291
 24.4968
 23.5232
 23.4703
 23.5223
 23.5422
 23.0867
 23.1135
 23.0635
 22.5902
 22.7026
 22.5988
 22.6446
 23.6283
 23.6203
 23.6757
 22.041
 22.0729
 22.0222
 21.9798
 21.9584
 21.8653
 21.9651
 21.8864
 22.1786
 22.259
 22.1988
 22.1836
 21.3816
 21.5427
 21.4934
 21.4637
 21.963
 21.9906
 21.9291
 23.2551
 23.2073
 23.2228
 23.1866
 22.0475
 22.1112
 22.3026
 22.3615
 22.3832
 22.3412
 22.1927
 22.2167
 22.1977
 22.1617
 23.4891
 23.4635
 23.477
 23.5294
 23.484
 23.4314
 23.4763
 23.4216
 24.9348
 24.8948
 24.8769
 24.9066
 23.4725
 23.4175
 23.4725
 23.2067
 23.2306
 23.2478
 23.2235
 22.728
 22.7281
 22.7642
 22.7776
 23.2237
 23.1634
 23.1555
 23.2004
 23.919
 23.8836
 23.9303
 23.9279
 21.8475
 21.9527
 21.8789
 21.9177
 22.8932
 22.8453
 22.8872
 22.9338
 21.6316
 21.6357
 21.6555
 21.6003
 22.6132
 22.6648
 22.6139
 22.6544
 21.4306
 21.3837
 21.4218
 24.49
 24.4364
 24.4494
 24.4505
 22.2015
 22.0963
 22.1766
 22.1652
 22.9204
 22.975
 22.9081
 22.9378
 23.5737
 23.6129
 23.2025
 23.1857
 23.1523
 23.1669
 22.9973
 23.071
 23.0593
 21.597
 21.5719
 21.6416
 21.5937
 21.5065
 21.5481
 21.603
 21.5835
 23.6086
 23.6253
 23.5875
 23.6166
 22.917
 22.9325
 23.3535
 23.2921
 23.3327
 23.3859
 21.9957
 22.059
 21.9455
 21.938
 23.8842
 23.8594
 23.8916
 23.84
 23.5276
 23.5136
 23.5659
 23.5732
 23.3792
 23.3106
 23.2801
 23.3148
 22.6745
 22.6814
 22.6933
 22.5907
 22.1353
 22.1392
 22.1819
 22.1934
 21.993
 22.0212
 22.0775
 22.0208
 24.7355
 24.7443
 24.7718
 24.7917
 23.7494
 23.6896
 23.6595
 22.5508
 22.6683
 22.5986
 22.5024
 22.4537
 22.5174
 22.4268
 21.5639
 21.5066
 21.5495
 21.4831
 22.8291
 23.4159
 23.414
 23.4749
 23.467
 22.303
 22.3382
 22.3944
 22.37
 21.8955
 21.9759
 21.9735
 21.8861
 21.892
 21.8885
 23.6212
 23.6536
 23.6786
 23.6858
 22.7063
 22.6487
 22.6666
 22.6452
 23.8126
 23.8379
 23.8195
 23.7888
 22.4628
 23.1261
 23.161
 23.06
 23.0371
 23.2384
 23.1959
 23.1693
 23.2117
 21.5667
 21.642
 21.4305
 21.3772
 21.3342
 21.3963
 24.1538
 24.2097
 24.1739
 24.1547
 21.9781
 21.9719
 22.0589
 21.9499
 22.5214
 22.593
 22.5498
 22.4781
 24.6422
 24.6218
 24.6257
 24.668
 22.7527
 22.753
 22.7193
 22.7841
 22.8146
 22.8864
 22.9278
 22.928
 23.5998
 23.6581
 23.5661
 23.5968
 21.2205
 21.1401
 21.1331
 21.1133
 22.869
 22.938
 22.9348
 23.2695
 23.2074
 23.2018
 23.263
 21.3911
 21.2965
 21.3684
 21.3558
 23.3047
 23.3462
 23.3941
 23.3021
 22.9407
 22.8958
 21.8411
 21.8505
 21.7922
 21.9065
 22.5815
 22.5675
 22.491
 22.4889
 21.3943
 21.4337
 21.3379
 21.3935
 22.9145
 22.8131
 23.5195
 23.4995
 23.4834
 23.484
 23.3212
 23.3091
 23.2653
 23.2464
 21.7748
 21.7574
 21.8433
 21.812
 21.9893
 22.0297
 21.9581
 21.9681
 22.0155
 22.0904
 22.0237
 22.0232
 23.3225
 23.2449
 23.276
 23.3144
 24.2188
 24.2632
 24.247
 24.2262
 21.2308
 21.1475
 21.2198
 21.1812
 23.6147
 23.6132
 23.6047
 23.5739
 22.6334
 22.5715
 22.5709
 22.6116
 23.1843
 23.0891
 23.1554
 23.1206
 22.6343
 22.7141
 22.636
 22.3673
 22.2898
 22.3623
 22.264
 22.8148
 22.77
 22.7993
 22.855
 22.1519
 22.1223
 22.0769
 22.1683
 22.1393
 22.167
 22.1375
 22.2451
 24.614
 24.5341
 24.6103
 23.8152
 23.7569
 23.7164
 23.7412
 22.5963
 22.6408
 22.6221
 22.6282
 21.8672
 21.7867
 21.8297
 21.7867
 23.3887
 23.4719
 23.3907
 23.3678
 23.3252
 23.3193
 22.4854
 22.5263
 22.4832
 22.4783
 22.6616
 22.5941
 22.5807
 22.5698
 20.7979
 20.823
 20.8693
 20.7713
 23.9828
 23.9523
 23.9979
 24.0666
 22.0794
 22.0744
 23.0889
 23.0302
 23.02
 23.0863
 22.2101
 22.1776
 22.1825
 22.164
 22.5067
 22.4971
 22.4538
 22.4715
 23.0357
 23.0299
 22.9719
 23.0744
 22.3268
 22.2641
 22.277
 22.2707
 23.6038
 23.5761
 23.5854
 23.5369
 23.7861
 23.8498
 23.7771
 23.8117
 21.8289
 21.7982
 21.7552
 21.6534
 22.6451
 22.6154
 22.5634
 24.2689
 24.3023
 24.2487
 21.7259
 21.6925
 21.6787
 21.6501
 21.673
 21.7002
 21.7274
 21.7301
 22.796
 22.7836
 22.7758
 22.7293
 21.5584
 21.5114
 21.531
 21.5222
 21.3379
 21.238
 21.3277
 21.2341
 22.9958
 22.967
 22.9155
 22.9833
 21.8706
 21.8355
 21.8116
 21.8178
 20.8496
 20.8172
 20.9042
 20.8028
 22.0381
 22.0249
 22.069
 21.9655
 22.5811
 22.6788
 22.6357
 22.6996
 21.7908
 21.7447
 21.8007
 21.8183
 22.2148
 22.2289
 22.1864
 22.4065
 22.349
 24.0532
 24.0516
 24.0663
 24.0905
 22.418
 22.3549
 22.3666
 22.3848
 24.1977
 24.1847
 24.1734
 24.1723
 24.1144
 24.1216
 24.0649
 24.0346
 22.5148
 22.4867
 22.4784
 22.5385
 23.1111
 23.1115
 23.1649
 23.0823
 22.294
 22.2252
 22.2418
 22.2515
 22.7511
 22.7959
 23.8612
 23.8948
 23.8793
 23.8272
 21.3005
 21.2739
 21.2374
 21.3027
 23.0812
 23.1363
 23.0354
 23.0751
 21.6914
 21.7148
 21.7713
 21.7285
 23.8438
 23.8972
 23.8457
 23.8647
 21.6245
 21.5108
 21.5473
 21.5278
 22.4005
 22.4876
 22.4201
 22.4311
 23.3684
 23.4287
 23.4726
 23.4389
 21.0003
 21.0425
 21.0318
 21.0936
 23.2662
 23.1918
 23.2483
 23.267
 22.9647
 23.0655
 23.0014
 23.0291
 21.3021
 21.2886
 21.3571
 21.2865
 22.7926
 22.8883
 22.8661
 22.8694
 21.8181
 21.761
 21.791
 21.8251
 21.806
 21.854
 21.8327
 22.9591
 23.0765
 23.0197
 23.049
 21.8654
 21.7952
 21.8385
 21.8187
 23.6677
 23.5992
 23.6044
 23.6748
 21.7029
 21.6556
 21.6612
 21.6971
 21.7315
 21.7563
 21.7118
 21.7456
 23.5224
 23.5358
 23.4172
 23.4789
 23.4837
 23.5099
 23.4476
 23.5373
 25.1459
 25.1287
 25.1848
 25.1723
 21.948
 22.0289
 22.0161
 24.0708
 23.9854
 23.9909
 24.0206
 21.4509
 21.5061
 21.4937
 21.4758
 23.5422
 21.7424
 21.8108
 21.7807
 21.7273
 21.7431
 21.7894
 21.8043
 24.7057
 24.7794
 24.7626
 24.7303
 24.7779
 24.7922
 24.7959
 24.8164
 21.4258
 21.4845
 21.4273
 21.3842
 23.4741
 23.5027
 23.4421
 23.514
 22.232
 22.269
 22.1887
 23.1937
 23.2472
 23.1978
 23.2846
 22.9542
 22.9491
 22.9796
 21.7139
 21.7477
 21.6401
 22.5329
 22.4871
 22.4723
 22.5169
 23.1824
 23.2467
 23.2541
 23.2047
 23.5496
 23.5295
 23.5617
 23.5352
 22.2589
 22.2188
 22.2106
 23.8704
 23.8395
 23.9234
 23.9273
 23.5007
 23.3742
 23.4475
 23.0092
 22.9081
 22.921
 22.9771
 23.5282
 23.4663
 23.4744
 23.4969
 23.5227
 23.4405
 23.4263
 23.4462
 21.6673
 21.7106
 21.7089
 21.7183
 22.9118
 22.9695
 22.9182
 22.8915
 23.2576
 23.2825
 22.573
 22.6219
 22.5871
 22.6531
 21.4409
 21.5495
 21.5162
 21.5397
 21.5524
 25.2135
 25.2354
 25.248
 25.2157
 21.9146
 21.8423
 21.8797
 21.2349
 21.2668
 21.2893
 21.2529
 22.0659
 22.1608
 22.149
 22.1561
 23.5626
 23.5376
 23.5038
 23.5673
 22.9517
 22.9955
 23.0249
 22.9946
 21.1762
 21.1886
 21.2154
 21.2237
 21.9387
 21.9882
 22.0338
 21.9827
 23.8975
 23.9409
 23.9459
 23.8696
 23.0402
 23.0178
 23.0061
 23.1032
 23.1414
 23.1109
 23.0722
 23.1227
 25.2355
 25.2484
 25.2462
 25.2314
 23.6752
 23.6859
 23.7073
 23.6446
 21.9641
 21.8832
 21.9742
 21.9274
 22.4644
 22.4698
 22.41
 22.4895
 22.8492
 22.8
 22.7489
 22.8423
 22.1682
 22.1022
 22.1254
 22.1266
 22.3966
 22.406
 22.342
 22.4102
 22.0936
 22.0899
 22.1423
 22.0176
 20.9741
 21.0986
 21.057
 20.9381
 21.8778
 21.9069
 21.9247
 22.0186
 22.1262
 22.1626
 22.2187
 22.1519
 22.2501
 22.6187
 22.6179
 22.6623
 22.5591
 21.476
 21.5077
 21.5195
 21.5156
 22.9156
 22.9503
 22.8882
 22.9116
 22.5206
 22.4934
 22.459
 22.5578
 22.7162
 22.7846
 22.7408
 22.6872
 23.149
 23.2398
 23.1718
 23.2329
 24.412
 24.3841
 24.3207
 24.4289
 20.8726
 20.9874
 22.3382
 22.3741
 22.3821
 24.9743
 24.977
 24.9857
 23.3833
 23.4271
 23.3987
 23.4516
 24.0824
 24.082
 24.1654
 24.1639
 23.6682
 23.6989
 23.6526
 23.7301
 21.3606
 21.4552
 21.418
 21.4021
 22.6494
 22.7308
 22.6938
 22.7434
 22.1924
 22.1206
 22.1189
 22.0568
 22.4061
 22.4409
 22.4731
 22.5348
 22.1391
 22.102
 22.1644
 22.1405
 22.8411
 22.8372
 21.7739
 21.9161
 21.7904
 21.9094
 22.0387
 22.0816
 22.1148
 21.9822
 23.4016
 23.4785
 23.3912
 23.4684
 23.4585
 23.4426
 23.4443
 23.4336
 22.5803
 22.5669
 22.5956
 22.5533
 22.5737
 22.5283
 22.4875
 22.4396
 23.688
 23.7711
 23.7926
 23.6691
 22.0819
 22.1383
 22.1627
 22.1678
 21.0265
 21.0668
 21.0255
 21.0638
 21.7284
 21.7665
 21.7671
 21.7991
 20.9651
 20.9247
 21.0037
 20.9028
 21.6637
 21.5861
 21.6053
 21.6018
 22.672
 22.5845
 22.6557
 22.6344
 22.2091
 22.2501
 22.8077
 22.7286
 22.8291
 22.7869
 23.4477
 23.3875
 23.3975
 23.3745
 21.9587
 21.856
 21.8548
 21.9186
 22.8303
 22.8451
 22.8276
 22.901
 22.9772
 23.028
 23.0455
 23.0157
 23.5375
 23.5361
 23.5057
 23.4519
 23.3087
 23.2996
 23.343
 23.2449
 23.498
 23.4503
 23.4504
 23.4766
 24.3869
 24.3805
 24.4263
 24.4057
 22.0117
 21.986
 22.0552
 21.9978
 22.2641
 22.2488
 24.2164
 24.2163
 24.2198
 24.2767
 23.214
 23.1886
 22.3137
 22.3683
 22.3045
 21.8144
 21.7908
 23.6703
 23.6786
 23.7124
 23.6324
 24.2944
 24.265
 24.2638
 24.2473
 23.7499
 23.7162
 23.6802
 23.668
 23.2298
 23.1675
 23.155
 23.1498
 22.4334
 22.5109
 22.5151
 22.5088
 22.1555
 22.184
 22.1947
 22.2045
 23.2484
 23.1951
 23.184
 23.1988
 22.5644
 22.5647
 22.5361
 22.6335
 22.651
 22.6958
 22.7118
 22.6769
 22.6287
 22.5808
 22.5512
 22.5764
 22.5373
 22.6409
 22.5399
 22.8122
 22.8626
 22.7633
 22.8048
 23.092
 23.0629
 23.1515
 23.0929
 23.4876
 23.4349
 23.5228
 23.436
 21.4377
 21.4599
 21.4164
 21.373
 22.9242
 22.9233
 22.8489
 22.8598
 23.7805
 23.7776
 23.8823
 23.8027
 23.9101
 23.8905
 23.9197
 23.9339
 23.7646
 23.8148
 23.8105
 23.7817
 23.4926
 23.4972
 23.4277
 23.4136
 23.5336
 23.5719
 23.589
 23.5597
 21.6477
 21.6062
 21.598
 21.5763
 22.9441
 22.9452
 22.9582
 22.8942
 22.0784
 22.0058
 22.0626
 22.1001
 23.4844
 23.4112
 23.4985
 23.4445
 21.3706
 21.3447
 21.3506
 21.3099
 21.2809
 21.2982
 21.2103
 22.0641
 22.1942
 22.1541
 22.1468
 23.3861
 23.3523
 23.4204
 23.3665
 21.0851
 21.1915
 21.1703
 23.0481
 23.1017
 23.0534
 23.14
 21.679
 21.6662
 21.8151
 21.7932
 21.7354
 21.818
 23.1439
 23.1821
 23.156
 23.7663
 23.7425
 23.8117
 23.7908
 23.4776
 23.5014
 23.4359
 23.439
 22.7133
 22.6392
 22.7373
 21.2837
 21.4088
 21.3967
 22.0899
 22.1754
 22.1944
 22.1484
 21.2813
 21.3105
 21.3939
 21.2238
 23.0115
 22.9421
 22.9094
 22.9498
 21.5523
 21.5413
 21.5082
 21.6044
 22.6375
 22.622
 22.6671
 22.7041
 23.3198
 23.389
 23.3551
 21.1554
 21.2212
 21.1854
 21.0862
 22.297
 22.5125
 22.4327
 22.4669
 22.5006
 22.3523
 22.3418
 22.3949
 23.3465
 23.3897
 23.3772
 23.3796
 23.3822
 23.2994
 22.9992
 23.0645
 23.0612
 23.0675
 22.9483
 22.87
 22.9273
 22.8804
 22.132
 21.0713
 21.186
 21.1978
 21.1223
 24.5459
 24.6131
 24.589
 24.5956
 23.2555
 23.2882
 23.3882
 23.4098
 23.3736
 23.3571
 23.3926
 23.388
 23.473
 23.4429
 22.0396
 22.1263
 22.1208
 22.075
 21.9878
 21.9644
 22.0469
 21.9735
 23.2264
 23.2862
 22.1934
 22.1749
 22.09
 22.1447
 22.1815
 22.1062
 22.1744
 22.5033
 22.5562
 22.5924
 22.6129
 22.8833
 22.9419
 22.8844
 22.9483
 22.0435
 21.9437
 21.9583
 22.0364
 21.8204
 21.8152
 21.7574
 21.8377
 21.8903
 21.8199
 21.8695
 22.0194
 22.0041
 22.0033
 22.0602
 23.0003
 22.9832
 22.9714
 23.0255
 24.067
 24.0924
 24.0477
 24.0399
 23.1485
 23.1553
 23.1882
 23.1716
 21.8042
 21.8744
 21.9216
 21.8601
 22.224
 22.2654
 22.2665
 22.2123
 23.1419
 23.1078
 23.08
 23.0775
 22.2538
 22.3219
 22.2725
 22.2565
 22.5822
 22.5586
 22.6481
 22.5499
 22.596
 22.5309
 22.557
 22.5286
 22.2768
 22.2223
 22.233
 21.5803
 21.556
 21.602
 21.5877
 23.1723
 23.1072
 23.1363
 23.133
 22.8268
 22.7637
 22.7692
 22.782
 23.9808
 24.0137
 24.001
 23.9488
 23.5442
 23.5031
 23.5034
 23.5414
 23.4777
 23.5727
 23.5232
 23.5824
 23.5694
 23.5352
 23.5449
 23.516
 22.5977
 22.6322
 22.6201
 23.8303
 23.8449
 23.8086
 23.7953
 23.643
 23.6194
 23.5793
 23.6413
 21.121
 21.2059
 21.2082
 21.1461
 22.553
 22.5877
 22.6289
 22.6559
 21.8414
 21.8403
 21.8851
 21.8994
 22.4502
 22.4186
 22.4637
 22.5046
 22.2907
 22.2412
 22.297
 22.2837
 23.3448
 23.3977
 23.3729
 23.447
 22.7409
 22.6155
 22.7154
 22.6965
 21.7637
 21.7112
 21.7573
 21.7331
 22.4126
 22.4393
 22.3444
 22.358
 23.5924
 23.6318
 23.5668
 23.5346
 21.5451
 21.519
 21.5415
 21.5057
 23.0636
 23.1199
 23.6721
 22.7371
 22.7076
 22.658
 22.7508
 22.9063
 22.8416
 22.9134
 22.9289
 24.2753
 24.2847
 24.2255
 23.1637
 23.2267
 23.2406
 23.279
 22.4201
 22.3151
 22.3618
 22.2976
 22.6373
 22.5926
 22.6179
 22.6433
 21.5582
 21.5225
 21.5149
 21.5383
 23.5067
 23.404
 23.4767
 23.3776
 23.3817
 23.3962
 23.3185
 24.1294
 24.2172
 24.1635
 24.1417
 23.5416
 23.4645
 23.5211
 22.4332
 22.3074
 22.4131
 23.5841
 23.5941
 23.6476
 23.6195
 22.8817
 22.8197
 22.8084
 22.8074
 25.2257
 25.2305
 25.2217
 25.1713
 22.9821
 23.0022
 23.0041
 23.8096
 23.8248
 23.8106
 23.8103
 23.0049
 23.0342
 23.0894
 23.0406
 23.6487
 23.5959
 23.6008
 23.567
 22.1055
 22.0753
 22.1164
 22.0591
 21.9471
 22.0078
 21.9624
 21.9267
 21.2909
 21.2886
 21.2482
 21.3469
 22.5306
 22.6158
 22.5509
 22.5291
 23.6525
 23.7254
 23.6593
 23.7007
 23.3001
 23.3251
 24.0546
 24.0516
 24.0295
 24.0316
 22.87
 22.8431
 23.1568
 23.0558
 23.0791
 23.4424
 23.4031
 23.3753
 23.4069
 21.3662
 21.3273
 21.4374
 21.4239
 21.5025
 21.5178
 21.547
 21.5151
 23.3669
 23.3482
 23.3923
 23.4376
 23.8476
 23.8263
 22.4469
 22.419
 22.4365
 22.3753
 23.4556
 23.477
 23.4269
 23.4272
 23.0684
 23.153
 23.0194
 20.8729
 20.8437
 20.9273
 22.6818
 22.5952
 22.6243
 22.6251
 21.6322
 21.5531
 21.6507
 21.6875
 22.5616
 22.5055
 22.4899
 22.5715
 22.0645
 22.0131
 22.0055
 22.0998
 23.6786
 23.6185
 23.6685
 23.699
 23.4138
 23.3279
 23.4394
 23.3548
 22.5529
 22.619
 22.4889
 22.5748
 23.1327
 23.0634
 23.0457
 23.1374
 23.6618
 23.6422
 23.6159
 23.5664
 22.8725
 22.8449
 22.8039
 22.7696
 22.2008
 22.1925
 22.2386
 22.6138
 22.5448
 22.591
 22.5549
 24.8908
 24.8363
 24.7922
 24.8302
 23.8419
 23.8464
 23.8286
 23.8381
 23.1792
 23.1779
 23.1888
 23.1218
 24.3069
 24.2482
 24.3236
 24.2865
 21.5834
 21.5821
 21.6439
 21.1982
 21.2608
 21.3295
 21.2706
 21.929
 21.8104
 21.8566
 21.8536
 22.6432
 22.241
 22.1492
 22.1286
 22.1896
 22.7418
 22.6906
 22.7742
 22.7808
 23.6817
 23.7335
 23.7071
 23.3707
 23.3543
 23.3325
 23.4237
 24.8916
 24.9514
 24.8976
 24.9706
 24.1988
 24.1983
 24.1803
 24.1733
 23.2085
 23.209
 23.1699
 23.1331
 21.1226
 21.2357
 21.1952
 21.2114
 24.7301
 24.7094
 24.6585
 24.6656
 22.1261
 22.057
 22.1672
 22.0909
 22.6653
 22.6559
 22.5972
 22.6538
 23.3455
 23.4597
 23.449
 22.7889
 22.8638
 22.87
 22.865
 21.2653
 21.2279
 21.2114
 23.6429
 23.5456
 23.5333
 23.014
 22.9975
 22.9234
 22.9381
 23.2119
 23.23
 23.2498
 23.2628
 23.1627
 23.1752
 23.1033
 23.0901
 23.7642
 23.8056
 23.794
 23.7303
 22.8267
 22.7802
 22.8473
 22.7822
 21.3089
 21.4154
 21.4146
 21.4669
 21.6058
 21.6179
 21.618
 21.5647
 23.9055
 23.8868
 23.8903
 23.8979
 21.669
 21.6347
 21.6383
 21.7246
 21.4291
 21.3284
 21.3543
 21.4456
 21.6432
 21.6543
 21.7346
 21.7272
 22.3337
 22.3392
 22.2855
 22.3127
 22.717
 22.7652
 22.6985
 23.202
 23.2978
 23.2742
 23.2478
 21.939
 21.9847
 22.0197
 21.9242
 21.9735
 21.9324
 21.9014
 21.9211
 20.8555
 20.8598
 20.9865
 20.9128
 24.2657
 24.223
 24.2339
 24.2226
 24.0286
 24.0622
 24.0466
 24.0011
 23.7484
 23.7706
 23.6937
 23.7737
 23.1243
 23.2184
 23.1553
 23.1634
 23.112
 23.1051
 23.1067
 21.3956
 21.3494
 21.2775
 21.3204
 21.9051
 21.94
 21.9791
 21.9693
 22.8436
 22.8921
 22.9137
 22.8771
 21.5618
 21.5192
 22.4855
 22.4873
 22.4918
 22.5502
 21.6379
 21.6059
 21.5088
 21.5799
 22.585
 22.5005
 22.6019
 22.4935
 23.2183
 23.1829
 23.2781
 23.2545
 23.9727
 24.0109
 23.9792
 23.9248
 24.9518
 24.8853
 24.97
 24.9251
 21.6978
 21.7225
 21.7314
 21.685
 21.3936
 21.3815
 21.3778
 21.3278
 22.99
 23.0676
 23.0237
 23.067
 22.6987
 22.7339
 22.745
 22.6993
 23.4671
 23.5314
 23.4228
 22.3187
 22.3728
 22.3625
 22.3909
 23.4988
 23.5108
 23.4651
 23.4699
 22.8045
 22.8636
 22.9161
 22.8745
 22.2927
 22.3271
 22.3137
 22.2805
 22.6176
 22.6384
 22.6723
 21.6039
 21.6714
 21.652
 21.6542
 22.3331
 22.2519
 24.3211
 24.2185
 24.3184
 24.2796
 22.0354
 22.0889
 22.0609
 23.3615
 23.3363
 23.3438
 23.3519
 22.4282
 22.4446
 22.4635
 22.7075
 22.7765
 22.7064
 22.7441
 22.3725
 22.445
 22.3289
 22.3997
 22.3072
 22.2333
 24.6753
 24.6759
 24.7244
 24.6688
 24.8076
 24.8816
 24.9026
 24.8401
 22.6755
 22.7498
 22.7192
 22.754
 22.4537
 22.4953
 22.4515
 22.4956
 24.6245
 24.6366
 24.6102
 24.5723
 23.3753
 23.448
 23.7799
 23.77
 23.7364
 23.6822
 22.2812
 22.313
 22.2194
 22.2687
 22.4795
 22.4506
 22.393
 22.5044
 22.3338
 22.4129
 22.4319
 22.4098
 23.2328
 23.2312
 23.1682
 23.2332
 23.6201
 23.6167
 23.6878
 23.6089
 24.0449
 23.9809
 23.9827
 24.0365
 23.6124
 23.6219
 23.6193
 23.5175
 21.9782
 22.0429
 21.9768
 22.0248
 22.6723
 22.8274
 22.7521
 24.2996
 24.2583
 24.22
 22.1986
 22.0904
 22.1515
 22.1569
 22.1129
 22.2455
 22.1735
 22.1549
 22.9352
 22.979
 23.0032
 22.898
 22.8788
 22.8156
 22.8676
 23.6429
 23.6855
 23.7016
 23.7019
 21.8394
 21.8633
 21.8066
 21.8419
 23.81
 23.8281
 23.8219
 23.7918
 23.8201
 23.8613
 23.8268
 21.1454
 21.05
 20.9999
 21.0784
 21.6814
 21.6344
 23.333
 23.3588
 23.2987
 23.3235
 22.7379
 22.6658
 22.7428
 22.8513
 22.889
 22.8703
 22.9288
 23.6543
 23.6052
 23.6248
 21.8979
 21.8541
 21.9442
 21.9157
 23.6572
 23.5715
 23.6298
 23.6418
 22.1061
 22.1736
 22.192
 22.1499
 23.7799
 23.7422
 23.5847
 23.6595
 23.6045
 23.6362
 23.3911
 23.4244
 23.4092
 23.3832
 24.1995
 24.2143
 24.2741
 24.2421
 21.9986
 21.9169
 23.1937
 23.1537
 23.1478
 23.1528
 21.2496
 21.2834
 21.2584
 21.2353
 23.2113
 23.2398
 23.1521
 23.109
 21.8623
 21.7907
 21.7679
 21.7607
 21.4833
 21.405
 21.536
 21.4194
 22.1137
 22.1858
 21.5252
 21.4625
 21.4864
 21.5013
 23.6369
 23.6481
 23.6453
 23.5877
 21.5613
 21.5288
 21.5172
 21.5671
 21.1719
 21.0693
 21.0746
 21.1499
 22.4035
 22.3977
 22.3381
 22.3554
 22.8027
 22.8271
 22.7514
 22.7211
 21.5354
 21.6295
 21.5743
 21.5299
 24.2589
 24.1806
 24.2164
 24.2779
 21.5716
 21.4683
 23.1845
 23.1401
 23.1353
 23.0754
 21.6676
 21.6867
 21.768
 21.7586
 23.6333
 23.5712
 23.5824
 23.5848
 23.0227
 23.1198
 23.088
 23.0347
 23.484
 23.5072
 23.427
 23.6408
 23.6805
 23.6449
 23.7092
 23.786
 23.725
 23.7428
 23.7123
 22.431
 22.4725
 22.4927
 21.7412
 21.7312
 21.6676
 21.6857
 22.6184
 22.6542
 22.6683
 23.6431
 23.6913
 23.6624
 22.6978
 22.5952
 22.6817
 22.6257
 22.3694
 22.3876
 22.359
 22.2822
 22.8843
 22.8074
 22.7975
 22.8276
 23.006
 23.0415
 23.0562
 23.0946
 23.1277
 23.1298
 23.0089
 22.9819
 22.937
 23.0447
 21.6774
 21.7352
 21.6909
 21.7434
 22.1103
 22.1586
 22.1213
 22.089
 22.8967
 22.8564
 22.887
 22.7908
 23.6184
 23.6633
 23.6359
 22.6064
 22.6476
 22.6031
 22.5982
 23.2737
 23.3583
 23.3305
 23.3671
 24.4958
 24.4859
 24.5155
 24.5358
 23.1048
 23.1392
 23.1239
 23.1287
 21.6243
 21.6331
 21.569
 21.592
 23.1106
 23.0271
 23.0708
 23.1105
 23.743
 23.7468
 23.7182
 23.6915
 23.6474
 23.6808
 23.6722
 22.8233
 22.8101
 22.8204
 22.337
 23.1613
 23.2577
 23.1952
 23.1987
 21.5168
 21.532
 21.4859
 21.6551
 21.6396
 21.6022
 23.1274
 23.0588
 23.1062
 23.0661
 21.092
 21.0646
 21.0425
 21.0335
 23.6231
 22.5236
 22.583
 22.5375
 22.5553
 23.576
 23.5508
 23.559
 23.5404
 21.5164
 21.4868
 21.5953
 21.521
 22.2026
 22.0969
 22.1438
 22.1784
 21.9425
 21.9029
 21.9812
 21.9691
 23.789
 23.7642
 23.7317
 23.7857
 23.2822
 23.2262
 23.2874
 23.2874
 22.6358
 22.6738
 22.6062
 22.6724
 23.1734
 23.2445
 23.1404
 23.2157
 22.2564
 22.2347
 22.17
 22.1857
 23.5757
 23.6121
 23.5459
 23.5422
 23.308
 23.2652
 23.2139
 23.2526
 22.4484
 22.4416
 22.4552
 22.3681
 21.4231
 21.329
 21.3847
 21.3374
 23.729
 23.7292
 23.6582
 23.6986
 24.1421
 24.2125
 24.1369
 24.142
 21.4861
 21.4347
 21.4574
 21.4201
 24.1368
 24.1925
 24.0254
 24.0513
 24.0523
 23.9922
 22.7257
 22.6841
 22.7445
 22.7924
 23.2764
 23.2387
 23.2393
 23.306
 20.9059
 20.8665
 20.8759
 20.9379
 21.5501
 21.5564
 21.4637
 22.2003
 22.2056
 22.1514
 22.2324
 23.689
 23.6683
 23.7336
 23.6495
 23.3248
 23.3356
 23.3595
 23.3889
 23.3497
 23.3024
 22.2146
 22.1099
 22.1421
 22.1812
 22.3014
 22.2972
 22.3588
 22.2859
 22.1052
 22.1071
 22.1817
 22.1062
 21.1998
 21.1829
 21.3197
 21.1588
 21.9626
 21.955
 22.0263
 23.0565
 22.5944
 22.604
 22.5802
 22.6354
 22.5639
 22.6362
 22.6185
 22.6136
 21.7962
 21.8427
 21.8437
 21.8826
 21.9901
 22.0284
 22.0299
 21.96
 22.4625
 22.5239
 22.5175
 23.1857
 23.2111
 23.1549
 23.2661
 22.6155
 22.5035
 22.5756
 22.551
 23.1242
 23.0862
 23.1575
 24.6759
 24.6746
 24.711
 24.6436
 21.7482
 21.6454
 21.6824
 21.6757
 21.7689
 21.6525
 21.7166
 24.6633
 22.5539
 22.5351
 22.5614
 22.4766
 22.4867
 22.4672
 24.0584
 24.0429
 24.049
 24.024
 23.7331
 23.7131
 23.6589
 23.7424
 23.4131
 23.3751
 23.3674
 23.4418
 23.5103
 23.4804
 23.4386
 23.5095
 23.5178
 23.4615
 23.0202
 23.0606
 23.0783
 23.0961
 22.9866
 22.9249
 20.7868
 20.7873
 23.63
 23.5224
 23.6244
 23.5614
 22.8609
 22.8788
 22.846
 22.9161
 23.7496
 23.7377
 23.8441
 23.8002
 21.6775
 21.6354
 21.7596
 21.7112
 21.7529
 21.8109
 21.7541
 21.8162
 22.259
 22.216
 22.2033
 22.2335
 22.6617
 22.644
 22.5483
 22.5957
 22.6823
 22.7244
 23.633
 22.0674
 21.9931
 22.0143
 21.9954
 21.2257
 21.2344
 21.1258
 21.2582
 21.717
 21.6424
 21.7309
 21.7004
 25.2193
 25.2158
 25.2058
 25.1841
 21.3203
 21.3079
 21.3477
 21.3419
 23.434
 23.4304
 23.4929
 23.399
 23.1929
 23.2633
 23.2353
 23.2877
 22.2023
 22.1935
 22.1509
 22.1455
 22.2014
 22.2122
 22.2508
 22.2352
 23.6492
 23.5436
 23.5979
 23.5721
 21.4236
 21.3836
 21.4302
 21.4201
 21.671
 21.6212
 21.6455
 21.5994
 22.0371
 22.0226
 21.9747
 21.9744
 21.5147
 21.5653
 21.5488
 21.5138
 23.288
 23.2235
 23.2252
 23.1962
 23.6698
 23.6477
 23.6372
 23.6068
 21.7138
 21.7769
 21.7931
 21.7765
 22.9394
 22.9323
 22.9673
 23.0232
 22.7994
 22.8307
 22.8427
 22.8028
 24.852
 24.8294
 24.7822
 24.8254
 21.3325
 21.3164
 21.5101
 21.4938
 21.5607
 21.4594
 23.8888
 23.9565
 23.9793
 23.8784
 23.2827
 23.3657
 23.3629
 23.3963
 21.6386
 21.6899
 21.6174
 21.5902
 23.0732
 23.0501
 23.0876
 23.0186
 23.0876
 23.0666
 23.1428
 23.1362
 21.2324
 21.2181
 21.2607
 21.2947
 22.6379
 22.6517
 22.6314
 22.6048
 22.7846
 22.7615
 22.7812
 22.8244
 21.9624
 21.9222
 21.8996
 21.9252
 22.2509
 22.2656
 22.2914
 22.3295
 23.0019
 22.9901
 23.0749
 23.2739
 23.2225
 23.2581
 23.1703
 24.0019
 24.012
 24.0361
 23.9343
 23.1558
 23.1124
 23.1008
 23.0881
 22.707
 22.7479
 22.7093
 22.7653
 21.1427
 21.1226
 21.1371
 21.2286
 23.1689
 23.0556
 23.1157
 23.1158
 23.8438
 23.8407
 23.8901
 23.9172
 22.0714
 22.0162
 22.0462
 22.0985
 22.3613
 22.3654
 22.4008
 22.6582
 22.559
 22.5586
 22.5311
 24.0227
 24.0184
 24.0138
 23.9696
 22.5467
 22.6091
 22.5806
 22.6391
 21.4919
 21.4858
 21.4795
 21.4707
 22.6234
 22.6012
 22.6043
 22.5538
 23.802
 23.8461
 23.8188
 23.7928
 23.5713
 23.5314
 23.5841
 23.6334
 20.728
 20.7523
 20.7127
 20.7086
 23.3113
 23.2988
 23.3078
 23.3881
 22.396
 22.5039
 22.4688
 22.4487
 20.8485
 20.837
 20.8993
 20.8969
 21.5338
 21.4435
 21.4855
 22.0737
 22.0818
 22.0035
 21.9819
 21.6251
 21.6341
 21.5352
 21.6514
 24.5713
 24.5321
 24.4863
 24.504
 23.4827
 23.4145
 23.5018
 21.294
 21.2043
 21.2197
 21.2194
 22.4387
 22.454
 22.3824
 22.4712
 21.8818
 21.896
 21.8152
 21.9378
 23.7001
 23.7069
 23.7566
 23.7909
 23.0928
 23.0249
 23.1086
 23.0523
 22.2317
 22.334
 22.3067
 24.0131
 23.9906
 23.9536
 23.9573
 23.597
 23.6658
 23.6279
 23.6516
 23.1202
 21.2683
 21.2328
 21.249
 21.1958
 24.439
 24.4362
 24.4848
 24.4915
 21.9614
 21.8566
 21.9097
 21.8434
 22.3403
 22.3872
 22.3534
 22.4286
 24.7484
 21.7511
 21.8097
 21.7202
 21.3189
 21.2307
 21.2875
 21.2745
 22.8807
 22.8515
 22.7559
 22.8349
 22.2984
 22.3034
 22.2498
 22.3385
 23.4493
 23.5143
 22.7421
 22.7738
 22.7691
 22.6983
 23.4659
 23.5046
 23.5334
 23.476
 23.2148
 23.2448
 23.1507
 23.1526
 22.1317
 22.1732
 22.1271
 22.1045
 24.2057
 24.2035
 24.2025
 24.1324
 23.6736
 23.7153
 23.6852
 23.7366
 24.1281
 24.0674
 23.8691
 23.8717
 23.8608
 23.863
 23.9294
 23.9725
 23.8988
 23.962
 21.2619
 21.2996
 21.3563
 21.3605
 22.4506
 22.4452
 22.474
 22.373
 23.0759
 22.9903
 23.0433
 23.038
 22.5822
 22.6062
 22.621
 22.5596
 21.2151
 21.2193
 24.0443
 24.0814
 24.0733
 24.0404
 21.2229
 21.2008
 21.2557
 24.346
 24.3758
 24.3472
 24.3823
 21.3643
 21.434
 21.383
 21.4383
 23.1495
 23.1989
 23.1282
 23.1963
 22.9087
 22.8909
 22.9244
 21.2208
 21.26
 21.2513
 21.2082
 22.509
 22.57
 22.4948
 22.5547
 22.8516
 22.8217
 22.7578
 22.8219
 23.1154
 23.1549
 22.98
 23.0958
 23.0063
 23.0546
 22.3695
 22.4393
 22.4065
 21.1624
 21.2759
 21.2881
 21.2074
 22.9434
 22.8982
 22.9483
 22.9358
 23.0443
 23.0787
 23.2759
 23.3533
 23.367
 23.3173
 24.3256
 24.3144
 24.2617
 22.5629
 22.547
 22.6312
 22.6357
 21.3202
 21.3152
 21.3057
 24.1074
 24.1634
 24.1047
 22.8774
 22.9322
 22.897
 22.9573
 22.2008
 22.2052
 22.2842
 22.257
 24.4909
 24.5115
 24.4933
 24.4871
 21.6947
 21.677
 21.7239
 21.7318
 22.156
 22.2162
 22.2059
 22.2214
 21.6936
 21.6717
 21.7187
 21.2968
 21.2855
 21.1697
 21.232
 22.6679
 22.7423
 22.6742
 22.6721
 21.5031
 21.5195
 21.553
 21.558
 23.1801
 23.2027
 23.1599
 23.2308
 21.1994
 22.3443
 22.7762
 22.8091
 22.7486
 22.8298
 22.3544
 22.3664
 22.4304
 22.4384
 22.0089
 21.9895
 22.0297
 22.0938
 22.3619
 22.3955
 22.3164
 22.3479
 21.8744
 21.9189
 21.8557
 21.8675
 22.7718
 22.8117
 22.7802
 22.727
 22.8498
 22.824
 22.8128
 22.7856
 23.0641
 23.0752
 23.1006
 23.0206
 22.7847
 22.7873
 22.8468
 23.756
 23.7409
 23.7586
 23.7098
 22.7337
 22.2247
 22.1231
 22.1185
 22.1838
 21.3451
 21.3407
 21.4242
 23.2234
 23.3184
 23.2755
 23.3065
 22.6341
 22.5524
 22.5704
 22.3151
 22.3126
 22.3747
 22.3708
 22.192
 22.1738
 22.1038
 22.0922
 21.5868
 21.5503
 21.5055
 21.5605
 23.4906
 23.5028
 23.4609
 23.5599
 22.552
 22.6049
 22.6233
 22.6382
 22.8104
 22.8569
 22.8944
 22.8309
 22.8893
 22.9382
 22.9411
 22.9869
 22.7587
 22.7871
 22.7492
 22.8168
 21.9815
 22.0907
 21.9652
 22.0411
 22.8665
 22.9717
 22.9315
 22.9217
 24.0618
 24.0607
 24.0618
 24.0327
 24.0709
 24.0261
 24.0292
 22.7536
 22.7454
 22.6872
 22.6823
 22.729
 22.6833
 22.6683
 22.6544
 22.8061
 22.865
 22.7707
 22.7667
 21.3889
 21.3858
 21.4721
 21.4655
 21.9819
 22.0536
 22.0516
 21.9751
 23.3303
 23.2919
 23.2976
 23.2819
 23.679
 23.6113
 23.616
 23.7036
 21.6691
 21.684
 21.7246
 21.6652
 24.4172
 24.4417
 24.4275
 24.3734
 23.0932
 23.0287
 23.0652
 23.0739
 23.8298
 23.7881
 23.7933
 23.5362
 23.4857
 23.4844
 23.4452
 22.1076
 22.1373
 22.0827
 22.1804
 23.4706
 23.5668
 23.5273
 23.5065
 24.0322
 23.9139
 23.9938
 24.4933
 24.4311
 24.3959
 24.4097
 21.1442
 21.1208
 21.0732
 21.0192
 23.4339
 23.476
 23.4403
 23.4183
 22.4173
 22.5094
 22.495
 22.4314
 21.4636
 21.5157
 21.5685
 21.524
 21.8437
 21.7476
 21.8769
 21.8155
 23.3656
 23.36
 23.4011
 23.3736
 23.866
 23.9291
 23.9791
 23.9141
 22.5919
 22.5485
 22.6127
 22.5746
 23.8378
 23.7554
 23.002
 23.0997
 23.0844
 23.0274
 22.8931
 22.8988
 22.9367
 22.8721
 22.9666
 22.9603
 22.9928
 23.716
 23.6914
 23.7149
 22.375
 22.3734
 22.3541
 22.332
 22.5012
 22.5086
 22.5609
 22.4475
 23.3659
 23.2905
 23.3228
 23.3611
 21.9664
 21.8864
 21.9921
 21.9531
 22.7693
 22.8498
 22.8066
 22.7433
 23.8244
 23.8253
 23.8406
 23.8268
 23.1527
 23.1168
 23.1556
 22.4843
 22.4833
 22.5461
 22.4836
 22.702
 22.6678
 22.6198
 21.1388
 21.1827
 21.191
 21.2147
 24.154
 24.1785
 24.1497
 24.2313
 23.2123
 23.1425
 23.1544
 23.195
 23.2328
 23.2496
 23.305
 23.2334
 21.0656
 21.096
 21.0053
 20.9419
 21.9624
 21.9204
 21.929
 23.466
 23.4909
 23.5082
 23.4853
 21.8072
 21.8907
 21.8537
 23.4288
 23.4272
 23.4735
 23.4595
 24.9238
 24.8794
 24.9271
 24.8892
 21.4823
 21.4563
 21.4153
 21.5009
 23.7055
 23.7232
 23.7521
 23.8123
 21.2815
 21.3177
 21.3292
 21.3081
 23.5493
 23.4663
 23.5251
 23.4977
 24.9217
 24.9896
 24.9251
 24.9322
 23.9644
 24.0402
 23.985
 23.9405
 23.6927
 23.6371
 23.6018
 23.7028
 22.746
 22.8446
 23.6754
 23.6702
 23.7674
 23.7511
 22.4299
 22.464
 22.4872
 22.5229
 22.8432
 22.8419
 22.8889
 22.7985
 21.5201
 21.6081
 21.4567
 21.443
 21.6553
 21.7051
 21.6607
 21.6176
 21.8187
 21.8482
 21.8223
 21.8883
 21.6257
 21.6141
 21.5949
 21.6452
 22.1676
 22.1935
 22.1265
 22.1795
 21.7856
 21.7108
 21.735
 21.7732
 24.0921
 24.1718
 24.184
 24.0824
 21.5161
 21.4789
 21.4944
 21.5066
 23.0348
 23.0892
 23.1093
 23.079
 21.9454
 22.0547
 22.0208
 21.6504
 21.5834
 21.5896
 21.6257
 23.6689
 23.7377
 23.7454
 23.7182
 24.0098
 24.0354
 24.0732
 24.0523
 22.0295
 22.0433
 22.0895
 21.9794
 22.9048
 22.9168
 22.9386
 22.97
 22.197
 22.249
 22.2
 22.2002
 22.1986
 22.1967
 22.0761
 23.0964
 23.1152
 23.1739
 22.2326
 22.2128
 22.5842
 22.6771
 21.1578
 21.1197
 21.1172
 21.1527
 22.6399
 22.6065
 22.6425
 22.5676
 22.2191
 22.2587
 22.167
 22.2535
 22.5093
 22.4698
 22.4919
 22.4347
 21.8091
 21.8071
 21.7701
 21.8143
 21.8184
 22.95
 22.9471
 23.0127
 23.0158
 23.8327
 23.8329
 23.831
 23.8233
 22.1941
 22.267
 22.1962
 22.2387
 22.2047
 22.2628
 22.2707
 22.2025
 24.7838
 24.7501
 24.7242
 24.6765
 22.7573
 22.7045
 22.7318
 22.7684
 22.7641
 22.8225
 22.8445
 22.786
 22.2774
 22.3278
 23.7024
 23.6839
 23.6543
 23.6934
 23.2282
 23.1895
 23.2156
 23.2547
 23.5981
 23.6281
 23.6554
 23.6472
 23.2903
 23.2437
 23.2534
 23.3022
 23.5785
 23.5835
 23.6129
 23.5664
 21.9612
 21.9854
 21.9561
 21.9132
 21.5154
 21.514
 21.5866
 21.5417
 23.4061
 23.4327
 23.4699
 23.3949
 22.7672
 22.8383
 22.7798
 22.7939
 21.8146
 21.9042
 21.8465
 21.8883
 23.0381
 23.0627
 23.0666
 22.9932
 23.4073
 23.3631
 23.9405
 23.9126
 23.8945
 23.9464
 22.9227
 22.9445
 22.9651
 23.0019
 21.7394
 21.7741
 21.7771
 21.6911
 21.3802
 21.4291
 21.4176
 21.3639
 24.6034
 24.5942
 22.9936
 22.9423
 22.9129
 22.9071
 23.0778
 23.1734
 23.1113
 23.1117
 23.1749
 23.203
 23.5314
 23.4934
 23.5065
 23.4691
 22.8615
 22.7938
 22.7747
 24.0744
 24.0357
 24.0329
 24.0005
 21.5951
 21.5413
 21.6386
 21.589
 21.4424
 21.4407
 21.4358
 21.1019
 21.1633
 21.2202
 21.1744
 22.5514
 22.4452
 22.4935
 22.4728
 22.7553
 22.6763
 22.7912
 22.7202
 21.9248
 21.8267
 21.7886
 21.8505
 22.2532
 22.2551
 22.1929
 22.2525
 22.389
 22.3221
 22.3522
 22.67
 22.6574
 22.6939
 22.6163
 22.1146
 21.9954
 22.0364
 22.1029
 22.986
 23.0084
 22.9714
 22.9637
 22.7093
 22.7262
 22.6602
 22.7565
 22.286
 22.3009
 22.3309
 22.2611
 22.7574
 22.8102
 22.8305
 22.7539
 24.8925
 24.9121
 24.8559
 24.8547
 23.4976
 23.5244
 23.5207
 23.5682
 22.1166
 22.1098
 22.0437
 22.0359
 23.4931
 23.4765
 23.5531
 23.5776
 23.6695
 23.7544
 23.6661
 23.6156
 21.6615
 21.6665
 21.6181
 21.7137
 21.7136
 21.7842
 21.7205
 21.7328
 21.494
 21.5603
 21.486
 21.4803
 21.9168
 21.922
 21.8602
 21.881
 23.0549
 23.0495
 23.1042
 23.0492
 23.5176
 23.5401
 23.4863
 23.5461
 22.2136
 22.313
 22.2128
 22.2885
 23.4848
 23.4658
 23.455
 23.461
 23.948
 23.9283
 23.9136
 23.877
 22.8359
 22.7852
 22.8236
 22.7724
 23.1644
 23.2056
 23.2531
 23.1166
 23.1014
 23.0243
 23.0931
 23.8578
 23.8928
 23.953
 23.8979
 23.4144
 23.4238
 23.4538
 23.4329
 22.1841
 22.1405
 22.1761
 22.1372
 22.6979
 22.6387
 22.6322
 21.1173
 21.1912
 21.1938
 21.141
 21.3728
 21.312
 21.2674
 21.333
 23.1979
 23.1519
 23.2233
 23.1507
 22.5045
 22.4567
 23.7289
 23.7314
 23.7978
 23.7088
 22.6762
 22.7263
 22.7717
 22.7231
 21.4592
 21.4421
 21.5111
 21.4549
 23.4767
 23.4646
 23.4332
 23.0198
 23.0177
 22.9917
 23.0745
 23.1475
 23.0516
 23.0718
 23.0964
 22.7947
 22.7267
 22.7205
 22.8126
 22.8207
 22.7845
 22.7406
 22.7939
 22.6199
 22.5749
 22.6206
 22.5656
 22.8927
 22.8455
 21.8642
 21.8861
 21.7729
 21.868
 22.834
 22.9002
 22.876
 22.8367
 22.3708
 22.4713
 22.4402
 22.8667
 22.8052
 22.8416
 22.8076
 22.4358
 22.4674
 22.5008
 22.4493
 23.5076
 23.5711
 23.5229
 23.6017
 22.9759
 22.9866
 22.9168
 22.5415
 22.5395
 22.4463
 22.5804
 22.8722
 22.8792
 22.8331
 23.599
 23.5775
 23.6394
 22.3508
 22.3561
 22.3545
 22.4256
 22.7366
 22.6879
 22.6841
 24.6433
 24.6323
 24.6017
 24.7048
 22.2651
 22.3116
 22.3421
 22.2643
 23.1107
 23.1906
 23.1818
 23.1957
 21.8615
 21.8685
 21.8446
 21.7866
 21.7436
 21.7913
 21.7114
 21.7222
 23.647
 23.5624
 23.6602
 23.6471
 22.6011
 22.6573
 22.6837
 23.2497
 23.3225
 23.2767
 23.2748
 21.5965
 21.7022
 21.6481
 22.7321
 22.6817
 22.7193
 22.6524
 22.2143
 22.1907
 22.1907
 22.195
 21.5603
 21.5172
 21.5164
 21.5701
 25.0995
 25.1576
 25.141
 25.0987
 23.3535
 23.3439
 23.3044
 23.3572
 22.5684
 22.4583
 22.498
 22.4755
 23.9324
 23.9898
 23.9926
 22.7206
 22.6621
 22.6836
 22.7317
 21.3919
 22.2812
 22.3195
 22.4127
 22.345
 21.7988
 21.8005
 21.7779
 21.7532
 21.9626
 22.0107
 22.0216
 21.9817
 22.574
 22.6014
 22.6606
 22.7381
 22.7422
 22.7321
 24.4832
 24.4311
 24.4751
 24.441
 23.2501
 23.2788
 23.3038
 23.3415
 23.3298
 23.2845
 23.3282
 21.4355
 21.2885
 21.4426
 21.4419
 22.7988
 22.8064
 22.7262
 22.7352
 22.513
 22.5405
 22.5915
 22.547
 21.6868
 21.7226
 21.6558
 21.7298
 22.7103
 22.7262
 22.6598
 22.7351
 24.1239
 24.0892
 24.149
 24.1294
 22.8678
 22.893
 22.8588
 22.8831
 23.368
 23.3663
 23.3568
 23.3148
 23.5072
 23.5551
 23.5366
 23.515
 23.8773
 23.8539
 23.8812
 23.8776
 24.2232
 24.2527
 24.2577
 24.1817
 21.0551
 21.1378
 21.1027
 21.1186
 24.3937
 24.3684
 24.4195
 24.3207
 22.8088
 22.8469
 22.8009
 22.8636
 21.136
 21.1577
 21.1941
 21.1894
 23.066
 23.0712
 23.0362
 23.0104
 23.8359
 21.5511
 21.5937
 21.578
 21.5159
 23.5547
 24.1482
 24.081
 24.0633
 24.1217
 22.4887
 22.413
 21.9293
 22.0165
 21.9321
 22.0103
 21.6727
 21.6862
 21.6387
 21.6468
 21.0206
 21.0996
 21.0222
 21.9108
 21.8341
 21.8329
 21.8317
 23.0045
 21.2864
 22.2176
 22.2493
 22.2676
 21.4567
 21.4071
 21.3908
 21.4292
 23.0441
 23.041
 23.0502
 23.0889
 23.3516
 23.3416
 23.3712
 23.4148
 22.2155
 22.2617
 22.2464
 22.1501
 21.3358
 21.2691
 21.3495
 21.3409
 21.6478
 21.6688
 21.6236
 21.673
 22.3785
 22.282
 22.2931
 24.2171
 24.2522
 24.1416
 24.208
 25.0514
 24.9891
 25.0249
 24.9829
 23.8098
 23.8901
 23.8921
 23.8527
 22.5918
 22.5384
 22.6099
 24.0356
 23.9761
 24.0004
 24.0535
 21.7816
 21.8014
 21.7226
 21.8943
 21.8667
 21.9184
 21.8912
 23.506
 23.5335
 22.1469
 22.0585
 20.8508
 20.923
 20.8413
 21.105
 21.0865
 21.0943
 21.0563
 22.9107
 22.969
 22.8765
 22.9216
 23.2669
 23.2793
 23.3108
 23.2409
 22.8666
 22.8753
 22.8138
 22.8144
 21.3147
 21.3165
 21.3027
 21.3221
 22.1688
 22.1448
 22.1656
 22.2076
 23.8537
 23.8552
 23.8564
 23.7996
 22.1359
 22.1208
 22.1671
 22.0887
 22.5754
 22.555
 22.6149
 22.5462
 22.233
 22.1768
 22.1906
 25.2525
 25.2307
 25.2217
 23.245
 23.2787
 23.0323
 23.032
 23.0878
 23.0038
 22.0366
 21.9679
 22.0141
 22.0327
 22.1263
 22.0941
 22.0126
 22.0977
 22.0898
 22.1245
 22.0188
 24.5695
 24.5756
 23.918
 23.9229
 23.8824
 23.9127
 22.542
 24.6233
 24.68
 24.6538
 24.647
 23.3882
 23.3128
 23.3759
 23.3848
 22.9773
 22.9995
 24.2053
 24.1062
 24.1117
 24.1621
 21.0387
 20.9467
 20.9982
 21.0221
 21.3001
 21.2878
 21.3247
 21.2165
 23.601
 23.4928
 23.5698
 23.511
 23.2759
 23.317
 23.192
 23.2246
 23.2491
 23.2933
 23.2514
 22.04
 22.0117
 22.0933
 22.0365
 23.828
 23.7916
 23.7628
 23.7492
 22.8069
 22.7686
 22.8169
 22.393
 22.3885
 22.3506
 22.3037
 23.2867
 23.276
 23.2284
 23.2603
 23.4785
 23.4118
 23.3764
 23.4403
 23.5002
 23.5465
 23.5358
 23.4841
 23.0648
 23.0263
 22.9897
 23.0489
 22.2731
 22.3223
 23.3761
 23.3597
 23.3364
 23.3922
 21.0647
 21.1821
 21.1692
 21.161
 23.5828
 23.5496
 23.5831
 23.5414
 24.0818
 24.0993
 24.0233
 24.0647
 22.5341
 22.4999
 24.3881
 24.3625
 24.4306
 24.3509
 23.1526
 23.1291
 23.1812
 21.4661
 21.5005
 21.4423
 21.4352
 24.307
 24.3236
 24.3081
 23.5091
 23.5103
 23.451
 23.4713
 24.1574
 23.5422
 23.5662
 23.5612
 23.6266
 22.7186
 22.7583
 22.7123
 22.7281
 22.9447
 22.93
 22.8954
 22.9497
 21.3679
 21.2794
 22.6629
 22.6365
 22.6532
 22.6681
 23.5581
 23.632
 23.547
 23.6369
 23.2198
 23.0916
 23.1573
 23.2184
 21.547
 21.6033
 21.5946
 21.6001
 22.9794
 22.9609
 22.8945
 22.9109
 22.5506
 21.7296
 21.68
 21.7433
 23.1954
 23.1808
 23.2411
 23.1522
 22.1665
 22.1842
 22.1459
 22.2362
 23.0903
 23.129
 23.1352
 23.0576
 21.3479
 21.4286
 21.4354
 21.4003
 20.8642
 20.8204
 20.8979
 23.5108
 23.4627
 23.4029
 23.4468
 22.4192
 22.3722
 22.4581
 22.4333
 22.1603
 22.1444
 22.0959
 22.0649
 23.2566
 23.2598
 23.4791
 23.5181
 23.5364
 23.4652
 23.091
 22.9934
 22.4034
 22.3845
 22.416
 22.4391
 22.2788
 22.2514
 22.2047
 22.2855
 22.9968
 22.9817
 22.9225
 22.9478
 22.4673
 22.4604
 22.456
 21.5955
 21.6851
 21.7024
 21.6663
 21.9225
 21.9426
 21.9003
 23.0173
 22.9111
 23.0045
 22.9611
 23.4116
 23.4877
 23.5275
 23.4457
 22.1665
 22.2374
 22.2394
 22.1837
 22.9577
 22.9642
 23.0297
 23.8586
 23.8694
 23.8554
 23.8689
 23.2779
 23.2892
 23.256
 23.2332
 21.8957
 21.888
 21.9588
 21.0894
 21.1793
 21.1791
 22.2309
 22.197
 22.1966
 23.2824
 23.3432
 23.2613
 23.3236
 21.2186
 21.2236
 21.2293
 21.178
 22.3474
 22.3797
 22.34
 22.2925
 21.7888
 21.7561
 21.6536
 21.679
 21.9021
 21.8717
 21.9092
 21.902
 24.0153
 24.0474
 24.0607
 23.0389
 23.0232
 23.0679
 23.016
 21.8531
 21.8086
 21.8796
 21.8784
 22.8874
 22.8555
 22.8454
 22.7773
 22.1069
 22.1048
 22.1241
 22.1983
 21.4057
 21.3646
 23.8659
 23.8224
 23.8281
 23.7973
 21.9915
 22.0272
 21.9435
 22.0121
 23.0736
 23.1085
 23.1255
 23.0585
 22.2424
 22.3084
 21.2495
 21.2519
 21.3046
 21.2109
 21.7904
 21.7099
 21.8147
 21.6633
 21.1371
 21.1422
 21.0775
 21.0223
 22.0647
 22.0846
 22.0457
 22.2206
 22.1291
 22.1551
 22.1717
 22.1123
 22.1672
 22.1496
 22.2164
 23.3827
 23.3654
 23.4268
 23.4442
 24.1386
 24.1747
 24.0976
 22.7538
 22.7377
 22.7422
 21.6265
 21.687
 21.6447
 21.7095
 22.9822
 22.9394
 22.8861
 22.9352
 23.5894
 23.6585
 23.6413
 23.5852
 22.7441
 22.8123
 22.8364
 22.8449
 23.0957
 23.0084
 23.0873
 21.2726
 21.2393
 21.3276
 21.3209
 23.8043
 23.7801
 23.6645
 23.6279
 23.6217
 22.1384
 22.1157
 22.1786
 22.0762
 22.827
 22.7685
 22.7486
 22.8003
 23.688
 23.6786
 23.6224
 23.6768
 22.5234
 22.6308
 22.632
 22.5523
 23.1924
 23.2351
 23.1591
 23.1614
 21.5642
 21.5521
 21.4569
 23.2804
 23.2978
 23.2369
 23.2426
 22.5432
 22.5
 23.7053
 23.6245
 23.6418
 23.6938
 23.6144
 23.6668
 23.6406
 23.666
 21.4505
 21.5018
 23.5025
 23.4501
 23.4773
 23.5253
 22.7253
 22.7922
 22.753
 22.7287
 23.1156
 24.0922
 24.1432
 24.1274
 22.5185
 22.5211
 22.4968
 22.5617
 21.4712
 21.4633
 21.514
 21.4337
 23.9633
 23.9676
 23.9283
 23.9804
 23.6223
 23.5704
 23.637
 23.6251
 22.1695
 22.1316
 22.128
 23.8989
 23.8847
 23.856
 23.836
 21.0921
 21.1779
 21.1152
 21.0803
 23.8489
 23.8038
 23.7888
 23.8764
 22.3008
 22.37
 22.3164
 22.2447
 23.0954
 23.0605
 23.0713
 23.1152
 23.6544
 23.6322
 23.644
 23.1501
 23.0768
 23.1589
 23.0978
 23.7415
 23.8095
 23.7686
 23.7666
 23.5531
 23.5942
 23.5595
 22.0002
 22.052
 21.9808
 22.0059
 22.0743
 22.8199
 22.6833
 22.7674
 22.7659
 21.4382
 21.4743
 21.5055
 21.4757
 22.5224
 22.4567
 22.5621
 22.4834
 22.254
 22.2043
 22.2533
 22.2774
 23.6426
 23.6713
 23.5992
 23.5009
 23.5165
 22.3965
 22.4723
 22.4167
 22.3875
 21.4869
 21.3926
 22.5987
 22.5802
 22.6374
 22.5634
 23.7267
 23.7437
 23.6839
 21.6044
 21.5825
 21.6389
 21.6125
 22.6347
 22.7132
 22.6946
 22.6759
 23.6713
 23.7095
 23.6724
 23.6456
 22.7942
 22.8061
 22.7164
 22.7758
 22.3364
 22.2291
 23.9646
 23.9961
 23.9764
 24.0187
 23.5115
 23.4157
 23.3647
 23.4025
 23.351
 23.3641
 23.365
 23.4386
 23.4057
 23.369
 22.702
 22.6908
 22.7115
 22.3653
 22.3944
 22.4156
 22.4474
 23.4495
 23.4551
 23.4409
 23.456
 23.0964
 23.1009
 22.5171
 22.5723
 22.5611
 22.6114
 22.549
 22.538
 22.8344
 22.7565
 22.7494
 22.8117
 24.3496
 24.2847
 24.2966
 24.2611
 22.5478
 23.7465
 23.6808
 23.7273
 23.7394
 21.2807
 21.2292
 21.2955
 22.047
 22.0816
 22.1095
 22.0384
 22.801
 22.7578
 22.782
 22.8761
 22.711
 22.6557
 22.7287
 23.5374
 23.489
 23.5175
 23.5522
 21.4959
 21.4438
 21.5762
 21.4791
 22.3547
 22.3751
 22.3141
 22.3298
 21.5213
 21.5053
 21.601
 21.5516
 23.7619
 23.7491
 23.8132
 23.8099
 23.3951
 23.3472
 22.0376
 22.0664
 22.1025
 22.0643
 21.4321
 21.4309
 21.4216
 21.4602
 20.8983
 20.8677
 20.919
 20.8295
 21.5111
 21.558
 21.4955
 22.3478
 22.3115
 22.3714
 22.3354
 21.6603
 21.6341
 21.5901
 21.6243
 23.841
 23.7811
 23.7432
 23.7957
 21.765
 21.73
 21.7106
 22.363
 22.3817
 22.397
 22.3925
 23.7498
 23.784
 23.7506
 23.7999
 22.1719
 22.0973
 22.1487
 22.1407
 22.4641
 22.416
 22.3984
 22.4502
 23.2888
 23.2473
 23.2379
 23.1857
 23.8755
 23.8647
 23.9413
 23.9351
 22.9159
 22.8929
 22.8402
 22.9019
 24.475
 24.4454
 24.3833
 24.404
 23.5961
 23.5591
 23.6052
 23.4625
 23.5284
 23.5247
 23.5373
 24.7111
 24.6715
 24.7491
 24.6868
 21.649
 21.7036
 21.7008
 21.8531
 21.8483
 21.7918
 21.8071
 23.4204
 23.3246
 23.3543
 24.1211
 24.1153
 24.1407
 23.8323
 23.8999
 23.8315
 23.8323
 23.3713
 23.3811
 23.3272
 23.4255
 22.3176
 22.2416
 22.2909
 22.2991
 24.3307
 24.3184
 24.2646
 24.3318
 22.4408
 22.5382
 22.553
 22.4763
 21.8505
 21.7929
 21.8974
 21.847
 22.5817
 22.5782
 22.4882
 22.512
 22.9704
 23.0073
 22.9159
 23.7079
 23.712
 23.7124
 23.6681
 21.5027
 21.4408
 21.428
 21.4384
 21.7906
 21.7476
 21.7919
 21.8264
 23.3167
 23.2661
 23.2968
 23.348
 21.3214
 21.2843
 21.2565
 21.4955
 21.3985
 21.4832
 21.4599
 21.4249
 21.3991
 21.4684
 21.4412
 24.2795
 24.2947
 24.6991
 24.6918
 24.7313
 24.648
 22.3269
 22.355
 22.3967
 22.7801
 22.8275
 22.7287
 22.8089
 22.7197
 22.6531
 22.6762
 22.7105
 25.1915
 22.9909
 22.4076
 22.3462
 21.8415
 21.7941
 21.8244
 21.8119
 24.1323
 23.1208
 23.0628
 23.122
 20.8111
 20.863
 20.8611
 20.8592
 22.6844
 22.7334
 22.6887
 22.6372
 21.2242
 21.2777
 21.2407
 21.2925
 22.9635
 22.8933
 23.0037
 23.1389
 23.0721
 23.1121
 21.6919
 21.6564
 21.7428
 21.685
 22.4603
 22.4838
 22.5285
 22.5717
 23.8271
 23.876
 23.7823
 23.8041
 21.775
 21.6604
 21.7036
 21.3064
 21.2055
 21.2045
 21.304
 21.8176
 21.8282
 21.8915
 21.8148
 23.4301
 23.4426
 23.3411
 23.4476
 23.2764
 23.3216
 23.3124
 23.3212
 21.6103
 21.5549
 21.5605
 21.5505
 22.9984
 23.0181
 23.066
 21.9766
 21.962
 21.998
 22.0298
 23.6859
 23.6303
 23.7192
 23.7162
 22.3922
 22.3676
 22.4456
 22.4136
 23.7603
 23.7162
 23.7539
 23.7506
 22.5672
 22.5006
 22.5497
 22.5351
 21.8994
 21.8788
 21.8191
 21.9585
 23.8928
 23.9115
 23.8604
 22.6136
 22.5597
 21.7643
 21.8055
 21.804
 21.8487
 22.9984
 23.0353
 23.0419
 23.7894
 23.8442
 23.8638
 23.8344
 22.239
 22.2118
 22.2536
 22.1903
 22.3275
 22.3408
 22.2381
 22.3135
 24.9573
 24.9663
 24.9029
 24.9319
 22.7706
 22.8335
 22.79
 24.5878
 24.5382
 24.5258
 22.6728
 22.6763
 22.7162
 22.7015
 22.7709
 23.7375
 23.737
 23.8245
 23.8049
 22.9274
 22.8787
 22.847
 21.827
 21.8334
 21.8359
 21.8617
 22.8433
 22.8104
 22.7794
 22.7807
 22.7902
 22.8132
 22.8271
 20.9094
 20.9538
 20.971
 21.0309
 23.4639
 23.3426
 23.3749
 23.4194
 23.9606
 23.9565
 23.9283
 23.9386
 23.1491
 23.1728
 23.0731
 23.1371
 21.6556
 21.6117
 21.6103
 21.7015
 25.0011
 24.9447
 24.9793
 24.9044
 22.045
 22.1152
 22.0621
 22.0554
 23.9315
 23.9811
 23.9594
 23.9658
 21.7738
 21.912
 21.886
 21.8262
 21.8845
 21.9307
 21.9628
 21.9114
 22.0295
 21.9906
 23.4291
 23.4649
 23.4695
 23.4356
 21.5117
 21.5212
 21.5183
 21.9794
 22.0812
 22.0323
 21.9618
 23.5119
 23.4442
 23.4878
 23.5515
 23.1336
 23.1609
 23.0795
 25.2588
 25.2577
 25.2832
 25.2576
 22.7605
 22.8621
 22.7716
 21.5497
 21.4976
 21.5439
 21.5665
 21.8385
 21.8829
 21.5636
 21.5012
 21.4449
 21.5488
 22.0512
 22.0429
 23.9675
 23.9264
 24.0148
 23.8903
 21.9276
 21.9468
 21.9355
 22.0159
 22.6597
 22.6181
 23.2045
 23.1538
 23.1661
 23.195
 21.9688
 21.9408
 21.9015
 21.939
 23.3816
 23.4834
 23.4791
 23.4019
 21.5699
 21.5827
 21.5208
 21.4109
 22.4357
 22.4156
 22.4941
 24.0992
 24.1322
 24.1384
 24.0939
 22.3324
 22.3525
 22.3836
 22.4146
 23.4506
 23.5078
 23.535
 23.5582
 23.4154
 23.4847
 23.4351
 25.0527
 25.0534
 25.0633
 25.0233
 23.8694
 23.7711
 23.7489
 23.8401
 21.8007
 21.8435
 21.7766
 21.8443
 22.8355
 22.8208
 22.8785
 23.0697
 23.6782
 23.6439
 23.6674
 23.6216
 23.0636
 23.1113
 23.0733
 23.0524
 22.1545
 22.0666
 22.0534
 22.1314
 23.6902
 23.6898
 23.5817
 24.1526
 22.4552
 22.4253
 22.5
 22.3976
 23.6569
 23.5655
 24.6206
 24.6695
 23.6592
 23.6123
 23.6617
 23.738
 22.0957
 22.0413
 21.7561
 21.7582
 21.725
 21.77
 23.2412
 23.1889
 23.1708
 23.1941
 21.3502
 21.3357
 21.2717
 21.3406
 23.1752
 23.1708
 23.2969
 23.2833
 21.9956
 21.9869
 22.014
 22.1057
 23.5104
 23.5067
 23.4766
 23.4718
 21.9012
 21.8586
 21.9404
 21.8868
 22.9572
 22.9103
 21.4427
 21.4782
 22.2653
 22.2215
 22.2851
 22.2077
 22.2435
 22.2692
 22.2664
 22.1985
 22.5871
 22.6277
 22.569
 22.5645
 21.8977
 21.9879
 21.9045
 21.837
 23.5287
 23.5918
 23.5538
 23.557
 21.4838
 21.5069
 21.5246
 21.3667
 21.3536
 21.4252
 21.3761
 23.7322
 23.6584
 23.6578
 23.6876
 22.0713
 22.1561
 22.1428
 22.1138
 23.7224
 23.6707
 23.6649
 23.6116
 22.7013
 22.8344
 22.7456
 22.7447
 22.8363
 21.7538
 21.7435
 21.7393
 21.8188
 24.4703
 24.5147
 24.4766
 24.4286
 22.1153
 22.0737
 22.0238
 22.0832
 22.7112
 22.6466
 22.7693
 22.7186
 22.1392
 22.1882
 22.196
 22.1957
 22.2253
 20.9451
 20.9969
 21.0934
 21.0377
 21.8747
 21.8748
 21.9778
 21.9467
 24.5845
 24.5446
 24.5005
 24.5927
 22.9847
 23.0548
 23.0834
 23.0206
 23.2963
 22.6345
 22.6551
 22.631
 22.5782
 21.5642
 21.5663
 21.6285
 21.6678
 21.7679
 21.7635
 21.7039
 21.5667
 21.718
 21.6427
 21.6766
 24.9602
 24.9254
 21.9727
 21.9689
 21.9515
 23.3185
 23.3242
 23.3382
 23.2659
 22.0435
 22.0753
 22.0237
 22.0829
 22.578
 22.2106
 22.2711
 22.2035
 22.2319
 21.363
 21.474
 21.4462
 21.3691
 22.2101
 22.1642
 22.0735
 22.1943
 23.0127
 22.9924
 23.0786
 22.9456
 23.7617
 23.7483
 23.7845
 23.7332
 21.0515
 21.1449
 21.0218
 21.0603
 22.0792
 22.1099
 22.0484
 22.1296
 21.1587
 21.1963
 21.1763
 21.1091
 23.3195
 23.4097
 23.3188
 23.3073
 22.5716
 22.6055
 21.4166
 21.3236
 21.4278
 21.3741
 22.5822
 22.5596
 22.5595
 22.4992
 22.8199
 22.7455
 22.6567
 22.6009
 22.5769
 22.6513
 21.7271
 21.7475
 21.7674
 21.6989
 23.1767
 23.2549
 23.2916
 23.2214
 23.9722
 23.9171
 23.9568
 23.9553
 23.8303
 23.8541
 23.859
 23.8541
 23.2563
 23.227
 23.2245
 23.2877
 22.9315
 23.0218
 22.9564
 22.9141
 23.012
 22.968
 22.9367
 22.7096
 22.7593
 22.7756
 22.7306
 24.0138
 24.043
 24.0098
 23.085
 23.1054
 23.0311
 23.0418
 22.6205
 22.5726
 22.5721
 22.6484
 23.3961
 23.452
 23.3605
 23.4606
 23.2794
 23.225
 23.2399
 23.2448
 22.4986
 22.4941
 22.4445
 22.4004
 22.8189
 22.8725
 22.8266
 22.8474
 22.1832
 22.21
 22.1688
 22.1897
 23.8484
 23.8325
 23.809
 21.8242
 21.8534
 21.7742
 21.8506
 23.392
 23.3306
 23.366
 23.4148
 22.9783
 23.0221
 23.0474
 22.9597
 22.8402
 22.7876
 22.7661
 22.3566
 22.3661
 22.3399
 22.2882
 22.2475
 22.2347
 22.1956
 22.2696
 22.1318
 22.1255
 22.0628
 21.7123
 21.6742
 21.693
 22.3058
 22.3364
 22.3804
 22.32
 21.6015
 21.5637
 21.6501
 21.5047
 21.5014
 21.5222
 21.5839
 22.7968
 22.9175
 22.8541
 22.8772
 23.2769
 23.3258
 23.2717
 23.3216
 23.5765
 21.6813
 21.7183
 21.6116
 21.6694
 21.6158
 21.7396
 25.0932
 25.1287
 25.089
 25.0711
 21.9667
 22.0232
 22.9313
 23.0137
 22.9355
 21.1454
 21.0627
 22.3552
 22.453
 22.4266
 22.4126
 22.9751
 22.9428
 22.9403
 21.9648
 21.8428
 21.9246
 21.8754
 23.3107
 23.2939
 23.34
 23.2745
 24.6911
 24.6357
 24.6497
 24.7045
 22.468
 22.4561
 22.4895
 22.402
 21.7242
 21.6097
 21.7289
 21.8921
 21.8908
 21.8767
 21.937
 23.4329
 23.5291
 23.5017
 23.5671
 23.4579
 23.3994
 23.6528
 23.6033
 23.6725
 21.0973
 21.1446
 21.7208
 21.7891
 21.7108
 21.8083
 22.6297
 22.5292
 22.5458
 22.0276
 22.104
 21.9803
 21.9711
 23.4018
 23.4926
 23.4753
 23.4301
 22.7241
 22.7288
 22.672
 22.6577
 22.7736
 22.7245
 22.722
 22.776
 23.5142
 23.479
 23.4933
 23.4056
 23.4377
 23.4154
 23.4212
 20.8479
 20.7634
 20.825
 20.7272
 23.9041
 23.9838
 21.5321
 21.5188
 21.5242
 21.5743
 22.9625
 22.9015
 22.9283
 22.957
 22.6266
 22.5827
 22.5799
 22.5808
 23.8596
 23.8011
 22.6446
 22.6901
 22.6934
 22.7301
 22.9469
 22.9674
 22.9877
 22.9246
 21.8065
 21.8261
 21.85
 21.8125
 22.822
 22.7815
 22.7655
 22.8605
 23.3478
 23.3478
 22.4012
 22.4003
 22.4347
 22.3795
 22.0934
 22.1254
 22.0675
 22.622
 22.5557
 22.5747
 22.5455
 23.6103
 23.5811
 23.6246
 23.5411
 24.8102
 24.7543
 24.7624
 24.8145
 22.8156
 22.8565
 22.8136
 22.7358
 22.5422
 22.4525
 22.5175
 22.5408
 23.0029
 22.9686
 23.0417
 23.0263
 23.1993
 23.24
 23.1948
 23.1618
 21.7776
 21.7007
 22.376
 22.406
 22.4305
 24.3467
 24.3727
 24.4082
 24.3439
 23.5018
 23.5527
 23.4628
 23.5731
 22.6464
 22.6208
 22.6655
 22.6861
 21.7975
 21.7704
 21.765
 22.9218
 22.9431
 23.0218
 23.0262
 23.3785
 23.2891
 23.3225
 23.3834
 22.0049
 22.0808
 22.0887
 22.0365
 22.3587
 22.3804
 22.4042
 22.3977
 21.7807
 21.7683
 21.7706
 21.9552
 21.9434
 21.9496
 21.9367
 23.1117
 23.1039
 23.1456
 23.1863
 22.8685
 22.8747
 22.8146
 24.7247
 24.7149
 24.732
 24.7674
 23.3897
 23.39
 23.9707
 24.0118
 23.948
 23.9183
 23.5532
 23.8047
 21.5653
 23.315
 23.3814
 23.33
 23.4124
 21.0827
 22.3462
 22.4099
 22.3455
 22.4308
 23.3543
 23.2843
 23.3214
 23.0834
 23.0323
 23.0317
 21.7712
 21.7639
 21.8589
 21.7794
 21.8698
 21.9163
 21.8551
 21.9065
 23.678
 23.7617
 23.7629
 23.7054
 21.3563
 21.339
 21.3223
 21.4067
 22.7374
 22.797
 22.8445
 21.8732
 21.8174
 21.8578
 22.4943
 22.5596
 22.5363
 22.4845
 23.312
 23.2759
 23.3571
 23.3291
 22.5524
 22.4551
 22.5393
 23.2491
 23.2317
 23.2262
 23.2985
 22.9378
 22.8505
 21.7824
 21.7439
 21.7252
 21.6673
 21.5557
 21.4676
 21.5134
 21.5416
 23.4969
 23.4308
 23.527
 23.4753
 22.0428
 22.1366
 22.1028
 22.0257
 22.4127
 22.5148
 22.4259
 22.3886
 23.0662
 23.1147
 23.0311
 23.0671
 21.6349
 21.661
 21.6874
 21.7173
 22.9331
 22.9882
 22.8941
 22.9093
 22.7312
 22.7829
 22.7845
 22.6826
 22.8773
 22.919
 22.8645
 22.8562
 23.4668
 23.405
 23.5575
 23.5151
 23.4695
 23.544
 24.0681
 24.1603
 24.1026
 24.0782
 22.3804
 22.3826
 22.3759
 22.3101
 22.4184
 22.4934
 22.48
 21.4094
 21.3902
 21.3737
 21.3781
 21.0574
 21.0238
 21.0858
 21.4566
 21.4259
 21.5259
 22.5217
 22.4474
 22.3939
 22.4903
 22.1546
 22.1084
 22.0671
 22.1855
 21.8286
 21.7641
 21.8222
 21.7546
 23.2483
 23.3171
 23.2995
 23.2564
 23.9525
 23.8987
 23.8715
 23.8707
 21.1087
 21.1088
 21.1584
 21.0247
 23.3882
 23.4151
 23.4393
 23.3727
 22.5693
 22.5686
 22.5341
 22.5853
 21.0426
 21.0854
 21.1691
 21.0011
 22.271
 22.3381
 22.2528
 22.2748
 22.9981
 23.0308
 23.0057
 23.0269
 23.3691
 23.4233
 23.4163
 23.7793
 23.7114
 23.7538
 23.7916
 23.6204
 23.6498
 23.6145
 23.6551
 23.5648
 23.626
 23.4331
 23.3986
 23.5062
 21.8139
 21.8526
 21.8663
 21.8775
 21.5111
 21.5692
 21.5445
 21.5609
 22.2629
 22.2775
 22.2777
 22.3594
 22.832
 21.546
 21.5171
 21.5303
 21.5695
 23.8327
 23.8349
 23.842
 23.8543
 21.229
 21.172
 21.2484
 21.1398
 23.081
 23.1489
 23.0487
 22.125
 23.7263
 23.7252
 23.7692
 23.5456
 23.5763
 23.6149
 23.5127
 22.6403
 22.6538
 22.7426
 22.688
 21.9916
 21.9848
 22.0407
 21.9449
 22.8361
 22.16
 22.1892
 22.2107
 22.8188
 22.8389
 22.8196
 22.7544
 23.2631
 23.245
 23.2958
 23.2952
 23.0711
 23.1511
 23.0923
 23.0841
 22.1211
 23.4657
 23.4613
 23.4229
 21.8673
 21.912
 21.8569
 21.8947
 21.7021
 21.7234
 21.6441
 21.7437
 21.4662
 21.4328
 21.4781
 23.2565
 23.2526
 23.3023
 23.2469
 23.8668
 23.9054
 23.8683
 21.7426
 21.7625
 21.62
 21.6475
 21.6847
 21.6842
 22.8494
 22.8487
 22.8026
 21.2168
 21.2461
 21.187
 21.2605
 21.7717
 21.8039
 21.7766
 21.7401
 22.3035
 22.3185
 22.2715
 22.2612
 22.6141
 22.5942
 22.6287
 22.6845
 23.4038
 23.4206
 23.4355
 23.3789
 21.6564
 21.65
 21.6844
 21.5924
 23.2242
 23.2066
 23.2852
 23.0947
 23.0394
 23.0332
 23.0144
 21.5087
 21.5135
 21.4225
 21.4783
 22.156
 22.153
 22.1814
 22.2007
 21.2072
 21.2584
 21.315
 21.2482
 23.0812
 23.0333
 23.0088
 23.0174
 22.6088
 22.5825
 22.6593
 22.5346
 21.7142
 21.7212
 21.6788
 21.7107
 22.6313
 22.5761
 22.6437
 22.6305
 21.2116
 21.1105
 21.1937
 23.2736
 23.2957
 23.3101
 23.2997
 22.4954
 22.4983
 22.5086
 22.5629
 22.3317
 22.2593
 22.3151
 22.3084
 22.7098
 22.7542
 22.6528
 22.723
 21.7183
 21.7225
 21.6364
 21.6839
 22.841
 22.9065
 22.8702
 22.892
 22.4019
 22.4199
 22.4062
 22.4635
 23.8711
 23.8682
 23.8822
 23.8696
 21.9202
 21.9046
 21.9625
 21.9924
 23.8762
 23.8777
 23.8765
 23.4428
 23.4726
 23.4701
 23.4335
 23.6376
 23.6129
 23.5002
 23.5868
 21.9506
 21.9855
 21.9375
 21.8928
 22.1809
 22.088
 22.159
 22.1509
 23.0739
 23.1338
 23.1332
 23.1684
 20.9936
 21.0431
 21.1063
 24.6987
 24.7136
 22.3936
 22.3322
 22.4258
 22.4029
 24.164
 24.2145
 24.2733
 24.213
 22.1933
 22.1891
 22.1102
 22.1379
 23.0581
 23.2312
 23.2534
 23.2704
 23.3064
 22.0178
 21.9925
 21.9809
 21.9569
 21.6816
 21.7019
 21.6357
 21.7005
 23.8702
 23.8704
 22.1143
 22.0856
 21.9843
 22.0945
 22.4586
 22.5766
 22.4525
 22.513
 23.344
 23.3403
 23.3867
 23.2546
 22.8528
 22.9056
 22.9183
 22.8446
 21.7817
 21.8588
 21.7184
 21.4865
 21.5125
 21.502
 21.5158
 21.0544
 21.0495
 21.0312
 23.1929
 23.2337
 23.2203
 23.1847
 21.4476
 21.5081
 21.5246
 21.5389
 23.6746
 23.7308
 23.708
 23.692
 22.2499
 22.2367
 22.2293
 22.3038
 22.5617
 22.4836
 22.5406
 22.5362
 21.4542
 21.4622
 21.4695
 21.4057
 22.1725
 22.1296
 22.1968
 22.2337
 24.2825
 24.3138
 24.3347
 24.2924
 22.8305
 22.9241
 22.8363
 22.9102
 23.1638
 23.0618
 23.0771
 23.1512
 22.0122
 21.9717
 22.0383
 22.0995
 23.5963
 23.6442
 23.6712
 23.6593
 22.4063
 22.457
 22.4301
 22.3545
 23.1999
 23.254
 23.2585
 23.8706
 23.9159
 23.8892
 23.938
 22.3298
 22.2698
 22.3747
 22.2314
 22.2441
 22.2842
 23.4405
 23.5049
 23.5474
 23.5764
 23.5853
 23.5551
 23.5328
 21.4937
 25.1591
 25.1233
 25.1259
 25.1834
 21.7391
 21.7972
 21.6852
 21.747
 23.7255
 23.0614
 23.073
 23.0909
 23.0023
 23.1815
 23.2184
 23.0971
 23.3997
 23.3186
 23.3566
 23.3875
 24.2932
 24.3149
 24.2763
 24.3542
 23.6768
 23.6256
 23.6298
 22.6341
 22.6695
 22.6618
 23.2062
 23.2284
 20.896
 20.9833
 20.9912
 23.6266
 23.576
 23.6528
 23.0688
 23.0183
 22.9949
 21.436
 21.3682
 21.3805
 21.9691
 21.9649
 21.897
 21.9681
 23.3875
 23.3459
 23.328
 23.8431
 23.911
 21.3332
 21.4005
 21.3097
 21.3368
 24.1133
 24.0878
 24.155
 24.0464
 23.6117
 23.6337
 24.8003
 24.8536
 24.5459
 24.5575
 24.5206
 23.082
 23.0478
 23.1158
 21.3552
 21.4387
 21.4608
 22.1335
 22.1202
 22.0591
 23.3489
 23.2952
 23.2295
 23.1939
 23.2545
 21.6266
 23.9115
 23.9136
 23.8833
 23.8791
 23.1636
 23.0487
 23.1222
 23.1294
 22.0459
 22.0746
 22.0274
 22.0654
 22.0603
 22.0994
 22.0784
 23.0999
 23.1234
 23.0666
 23.0217
 22.1535
 22.1229
 22.0819
 22.0848
 21.9172
 21.9763
 21.9426
 21.8683
 22.7561
 22.0946
 22.098
 22.0738
 22.0507
 21.26
 21.2216
 21.2567
 21.3117
 23.4809
 23.5884
 23.6023
 23.5228
 21.3876
 21.3504
 21.3891
 21.397
 24.839
 24.828
 24.8737
 21.3184
 21.3604
 21.2406
 21.2865
 23.4509
 23.4667
 23.5255
 23.5159
 21.9152
 21.9771
 21.9327
 21.8877
 23.6213
 23.6199
 23.7432
 23.7161
 21.1346
 21.7712
 21.8655
 21.8308
 21.8965
 21.6266
 21.5563
 21.5884
 23.817
 23.7804
 23.8358
 23.8606
 21.9598
 22.014
 22.0058
 22.0437
 22.4564
 22.4027
 22.3944
 22.4163
 22.5378
 22.5003
 22.5929
 22.5955
 21.0534
 21.1355
 22.9594
 22.9514
 22.9563
 23.1077
 23.0565
 23.035
 22.9951
 22.0779
 22.1182
 22.0037
 22.002
 22.0581
 22.0225
 22.0221
 21.9716
 22.3367
 22.3335
 22.2756
 22.3513
 23.4717
 23.4607
 23.3054
 23.3481
 23.3507
 23.071
 23.0277
 23.0236
 23.0139
 23.9199
 23.9707
 23.9668
 23.9688
 23.1612
 23.1909
 23.2482
 24.2652
 24.2709
 24.2031
 23.1344
 23.1415
 23.1953
 23.0984
 23.4459
 23.3618
 23.4599
 22.8406
 22.0724
 22.086
 22.0102
 23.0119
 23.0374
 22.996
 22.953
 23.6467
 23.6396
 23.4963
 23.5729
 22.7714
 22.732
 22.7106
 22.7072
 21.7965
 21.8389
 20.9652
 21.028
 21.0722
 20.958
 22.0174
 22.0579
 21.9925
 22.0997
 22.9682
 22.9823
 22.9877
 22.9533
 21.1864
 21.1796
 21.0553
 21.2301
 21.3642
 21.3276
 21.3134
 22.6763
 22.7592
 22.7821
 22.7032
 23.7829
 23.8052
 23.7467
 22.919
 22.9266
 22.8502
 22.9155
 23.782
 23.8724
 23.7941
 23.8696
 22.1918
 22.1994
 22.1817
 22.3221
 23.8602
 23.858
 23.8638
 23.8424
 23.4457
 23.3998
 23.3839
 23.4205
 21.3069
 21.3836
 21.2968
 21.3608
 22.6019
 22.6015
 22.6573
 22.5981
 23.139
 23.1815
 23.1194
 23.1706
 22.1082
 22.09
 21.8448
 21.7385
 21.7667
 21.7764
 23.0326
 22.963
 22.9822
 22.9039
 22.8712
 22.8301
 22.8597
 22.8679
 23.7366
 23.701
 23.752
 23.0315
 23.0766
 23.1119
 25.0185
 25.0874
 25.037
 25.0717
 23.3984
 23.3654
 23.8211
 23.7839
 23.8079
 23.86
 22.4344
 22.4947
 22.4402
 22.5143
 24.2821
 24.2219
 24.1877
 24.2486
 23.5592
 23.5766
 23.645
 22.2426
 22.219
 22.2251
 22.2579
 23.5166
 23.4664
 23.5402
 23.595
 23.5904
 23.6447
 23.6412
 23.0763
 23.1162
 23.1063
 23.0384
 21.8928
 21.7285
 24.5983
 24.5733
 23.4125
 23.4663
 22.9381
 22.9907
 22.9694
 22.9775
 22.27
 22.2254
 22.2714
 22.1847
 22.7403
 22.7379
 22.702
 22.6886
 23.772
 23.874
 23.7859
 23.8373
 22.4833
 22.5603
 22.5173
 23.7702
 23.7883
 23.7562
 23.7582
 21.5277
 21.5117
 21.4645
 21.5495
 22.2916
 22.2948
 22.3024
 22.3613
 23.6954
 23.6472
 23.7155
 22.9102
 22.9823
 22.9181
 22.8815
 23.8547
 23.8562
 23.8304
 23.5344
 23.4779
 23.4959
 23.5342
 23.6424
 23.6544
 23.5925
 23.6316
 23.0164
 23.0665
 23.0877
 23.104
 21.3169
 21.3589
 21.4203
 21.3916
 22.4106
 22.3254
 22.3534
 22.3579
 22.9751
 23.0536
 22.9929
 22.6401
 22.6713
 22.6657
 21.6022
 21.6799
 21.6081
 21.6549
 22.3479
 22.3277
 22.4013
 22.3042
 23.0643
 23.0163
 22.982
 23.0019
 23.929
 23.9049
 23.7117
 23.753
 23.6798
 23.6789
 24.6919
 24.7109
 24.7608
 24.6818
 22.0531
 22.0377
 22.0379
 22.0656
 23.5069
 23.5795
 23.5526
 23.5591
 22.7419
 22.8092
 22.7644
 22.839
 24.0255
 24.0507
 24.0426
 24.0686
 22.5823
 22.6181
 22.6538
 22.6463
 22.8895
 22.0382
 22.1039
 22.1179
 22.0995
 23.0252
 23.0974
 23.1147
 23.0353
 23.0176
 22.9857
 22.9446
 22.9615
 23.1813
 23.2393
 23.2157
 23.2619
 23.6493
 23.7178
 23.6161
 21.7461
 21.7282
 21.7036
 21.8284
 23.0363
 23.0569
 23.0581
 23.0806
 21.8197
 21.7844
 21.7423
 22.2553
 22.2988
 22.2541
 22.2953
 21.9331
 21.8378
 21.8918
 21.8322
 23.6456
 23.5913
 23.6547
 25.1956
 25.1664
 25.1567
 22.1072
 22.0292
 22.0479
 22.5719
 22.4617
 22.5221
 22.4629
 23.1479
 23.1144
 23.0835
 23.1277
 22.9734
 22.9426
 23.0301
 23.0103
 24.4084
 24.3645
 24.4633
 24.3626
 22.7077
 22.7402
 22.7453
 22.7539
 22.4744
 22.4785
 22.4036
 22.4748
 23.5054
 23.5069
 23.3546
 23.4749
 23.4148
 23.4065
 22.2047
 22.2597
 22.2262
 22.2183
 23.5809
 23.5142
 22.4176
 22.4449
 23.7615
 25.0664
 25.0812
 25.0736
 25.0297
 23.9979
 23.9372
 21.1383
 21.0584
 21.1276
 23.8739
 23.8196
 23.7722
 23.8271
 22.1217
 22.1037
 23.4655
 23.4792
 23.4693
 23.4675
 23.2308
 23.123
 23.1726
 22.0333
 22.0177
 22.0287
 21.9527
 22.341
 22.2801
 22.3366
 22.3164
 21.7413
 21.7392
 21.6727
 22.9941
 23.0501
 22.9906
 23.0811
 22.8144
 21.6764
 21.7945
 21.7057
 21.7354
 23.8599
 23.8813
 23.8355
 23.8086
 22.6843
 22.7325
 22.6451
 22.7069
 22.0133
 22.1199
 22.0421
 22.0943
 24.7729
 24.7642
 24.743
 24.7432
 23.6597
 21.1649
 23.0929
 22.9982
 23.0592
 23.1196
 22.6569
 22.5953
 22.6708
 22.6957
 23.4493
 23.538
 23.4871
 23.4718
 22.6259
 22.66
 22.6354
 22.6216
 23.7337
 23.7211
 23.6557
 23.7441
 23.69
 23.6485
 23.6955
 22.9608
 22.8942
 22.9879
 22.9539
 21.9854
 21.9161
 22.0511
 20.9068
 20.8217
 20.9013
 20.9487
 24.4463
 24.5161
 24.5194
 22.8779
 22.8835
 22.9234
 22.8941
 22.9635
 22.8753
 21.5118
 21.5112
 21.5437
 21.4488
 22.1258
 22.1733
 22.1571
 22.2077
 23.6509
 23.5569
 23.6272
 24.1414
 23.0319
 23.1099
 23.0808
 23.0388
 22.8726
 22.8295
 22.839
 22.2558
 22.2945
 22.2756
 22.2346
 22.0596
 22.1313
 22.0797
 22.1143
 23.0612
 23.1064
 22.1514
 22.1554
 22.1512
 22.0996
 22.5922
 22.611
 22.5919
 22.5363
 21.3904
 21.3432
 22.3791
 22.4408
 22.3926
 22.4176
 22.1748
 22.1426
 22.1344
 22.0909
 22.2889
 22.2495
 22.2855
 22.2932
 22.8432
 22.8053
 23.0174
 22.9715
 23.0202
 23.0593
 23.2132
 23.2718
 23.2462
 23.2284
 22.5633
 22.5143
 22.5194
 22.5463
 23.7097
 23.6659
 23.6224
 23.5965
 23.4657
 23.4821
 23.5058
 23.4848
 24.5856
 24.5357
 24.5416
 24.6048
 23.2118
 23.3128
 22.5816
 22.684
 22.6075
 22.6376
 23.0818
 23.0954
 23.0716
 23.025
 22.6891
 22.6457
 22.6153
 22.6692
 22.9828
 22.9713
 22.0308
 22.0544
 21.2073
 21.1938
 21.1798
 21.1729
 23.8357
 23.0245
 23.0322
 23.0123
 22.9681
 22.8102
 22.8672
 22.8431
 22.8252
 23.3316
 23.3732
 23.3849
 23.4436
 22.1683
 22.2502
 22.1816
 22.2539
 22.6306
 22.6725
 22.6921
 22.6331
 23.74
 23.7635
 23.7094
 23.7721
 23.8016
 23.1211
 23.0571
 23.14
 23.118
 23.1925
 23.1082
 23.1683
 23.1884
 23.6461
 23.642
 23.7007
 23.6446
 23.4867
 23.4705
 23.3892
 23.4274
 22.8976
 22.8375
 22.9214
 22.9254
 23.7227
 23.7598
 23.7873
 23.765
 22.6239
 22.6074
 22.6887
 23.4121
 23.4122
 23.4275
 23.4339
 24.3002
 24.2618
 22.6182
 22.5758
 22.5614
 22.7311
 22.6595
 22.6872
 22.6535
 23.8112
 23.7661
 23.7449
 24.0189
 23.986
 23.9886
 24.0079
 22.3931
 22.4137
 22.3517
 22.4013
 22.653
 22.7384
 22.6521
 21.9379
 22.0634
 22.0033
 22.8446
 22.8935
 22.8819
 21.733
 21.7518
 21.717
 24.6239
 24.6684
 24.6725
 24.6284
 21.3939
 21.3642
 21.4078
 21.3572
 23.2694
 23.3258
 22.5564
 22.5936
 23.6133
 23.6133
 23.6281
 23.5711
 22.4433
 22.4779
 22.4017
 21.9964
 21.9466
 21.9599
 21.9495
 21.6797
 21.7756
 23.8541
 23.847
 23.8784
 22.6131
 22.6161
 22.6753
 23.4822
 23.5331
 23.4645
 23.7858
 23.7856
 23.8031
 23.8235
 23.0305
 23.0039
 23.0646
 22.9792
 23.1058
 23.1712
 23.16
 23.1117
 22.2096
 22.2254
 22.2358
 22.1668
 22.0597
 22.1179
 22.0851
 22.1635
 23.1622
 23.1446
 23.1082
 22.4273
 22.4538
 22.488
 22.2446
 22.1804
 22.2105
 22.1804
 20.7309
 20.7837
 20.7122
 22.8307
 22.8566
 22.8565
 22.1898
 22.1511
 22.2305
 22.8898
 22.8573
 22.9303
 23.2794
 23.3488
 23.3326
 23.8441
 23.822
 23.8294
 23.8106
 22.8258
 22.9838
 22.917
 22.9604
 23.4135
 23.4307
 23.4737
 23.679
 23.612
 22.3013
 22.3432
 22.2508
 22.3089
 22.2839
 22.2273
 22.3166
 22.3524
 23.6264
 23.5581
 23.5258
 23.5128
 23.6997
 23.7723
 23.7265
 23.7783
 24.1247
 24.1592
 24.1226
 24.1844
 21.4062
 21.3759
 21.7977
 21.8891
 21.8359
 21.7866
 21.3067
 23.3181
 23.2445
 23.3114
 22.7817
 22.7656
 22.811
 22.8384
 23.686
 23.6845
 22.9275
 22.9459
 22.8708
 23.8904
 23.8676
 21.8774
 21.8746
 21.8045
 21.9326
 21.6227
 21.6489
 21.5244
 21.6052
 22.053
 22.0413
 22.1028
 23.2662
 23.2192
 23.2231
 21.6352
 21.6488
 21.6219
 21.6085
 23.4441
 23.5154
 23.4617
 23.432
 21.9979
 22.039
 22.0619
 22.0031
 23.3944
 23.4583
 23.4702
 23.3673
 23.7087
 23.6839
 23.7284
 21.3142
 21.2006
 21.2543
 21.291
 23.8408
 23.8079
 23.8233
 23.062
 23.0453
 22.9582
 23.0244
 21.328
 21.2574
 21.2927
 23.383
 23.4298
 23.3521
 23.3923
 22.3272
 21.4904
 21.447
 21.5897
 21.5125
 23.9421
 23.9248
 23.892
 23.9299
 22.2929
 22.3893
 22.3136
 22.2919
 22.8723
 22.8534
 22.9278
 23.6882
 23.7245
 23.679
 23.7968
 22.3539
 22.3853
 22.3213
 23.4774
 23.5054
 24.5779
 24.6395
 24.59
 24.5478
 24.0345
 24.163
 24.1684
 21.5895
 21.6206
 21.5079
 21.5997
 21.6236
 21.5789
 24.0104
 23.9954
 24.0542
 23.9744
 23.1336
 23.1077
 23.1158
 23.0765
 22.9467
 23.0295
 23.027
 23.0073
 22.5974
 22.624
 22.5499
 22.6111
 22.6043
 22.7045
 22.6415
 22.6982
 21.4223
 23.7563
 23.7866
 23.7514
 23.7743
 21.413
 21.4681
 21.3865
 22.5916
 22.6527
 22.689
 22.6638
 23.8115
 23.7522
 23.7317
 22.6705
 22.7251
 22.6862
 22.7254
 22.8665
 22.2321
 22.2147
 22.1383
 22.167
 23.4494
 23.4595
 23.4512
 22.865
 22.7679
 22.8167
 21.3452
 21.3736
 21.4485
 21.3836
 22.8613
 22.8668
 22.8993
 24.8341
 24.8184
 24.8725
 22.8676
 22.9106
 22.8685
 22.9698
 22.2065
 22.1408
 22.1669
 22.8079
 22.7878
 21.7793
 21.7334
 21.8163
 21.7966
 22.072
 22.0084
 22.0374
 22.0551
 21.2654
 21.292
 21.3397
 21.3936
 22.6659
 22.7822
 22.6987
 22.6792
 22.1128
 22.1361
 22.1542
 22.1729
 21.7856
 21.7325
 21.6793
 23.5377
 23.5021
 23.5978
 23.5572
 22.9234
 22.8633
 23.2423
 23.2889
 23.2379
 23.2596
 22.2956
 22.2976
 22.3094
 22.2611
 22.8792
 22.8249
 22.8359
 22.9032
 22.3743
 22.4121
 22.3367
 22.4109
 22.8237
 22.8096
 22.7476
 22.7487
 22.9189
 22.9669
 22.9688
 21.7988
 21.8473
 21.8191
 21.5494
 21.5451
 21.5652
 21.4659
 21.8253
 21.8245
 21.7752
 22.1562
 22.054
 22.1345
 24.4645
 24.4474
 24.5081
 22.9353
 22.8567
 22.9167
 21.875
 21.846
 21.8899
 21.8843
 22.9374
 22.9082
 22.9433
 22.612
 22.6005
 22.5763
 22.6556
 22.3173
 22.4489
 22.4075
 22.4068
 22.8815
 22.8278
 22.8499
 22.8049
 23.595
 23.5558
 23.5873
 23.6228
 22.9139
 22.6275
 22.6398
 22.6015
 22.7205
 23.8415
 23.8169
 23.8066
 23.8113
 23.779
 23.7261
 23.7598
 23.7279
 23.6901
 23.6419
 23.6745
 23.6986
 22.3343
 22.3573
 22.2669
 22.2315
 23.5047
 23.539
 23.517
 23.5098
 21.0821
 21.1583
 21.1074
 21.1578
 24.1161
 24.0814
 24.041
 24.0427
 23.4928
 23.4859
 23.5041
 23.9139
 23.9649
 23.9962
 23.9857
 23.6687
 23.715
 23.631
 23.7994
 23.7857
 22.7817
 22.7899
 22.7433
 22.6592
 21.5943
 21.6493
 21.6662
 21.5354
 21.551
 21.5035
 21.5749
 23.6652
 23.7134
 21.2337
 21.192
 21.2529
 21.7824
 21.7946
 21.7696
 21.7382
 23.6786
 23.7103
 23.67
 21.3454
 21.31
 21.3801
 21.2897
 23.1977
 23.184
 23.1398
 23.2378
 23.6623
 23.7369
 23.6955
 23.6444
 23.9546
 23.8575
 23.8984
 23.9144
 24.3339
 24.3051
 24.3618
 24.3648
 22.4602
 22.3509
 22.4159
 22.3581
 23.159
 23.1596
 23.1826
 23.2657
 21.2987
 21.3969
 21.3046
 24.8542
 24.793
 24.8354
 24.7605
 24.0628
 24.0072
 24.0351
 23.9867
 21.3957
 21.2802
 21.3449
 21.347
 22.8825
 22.8742
 22.8232
 21.7399
 21.6553
 21.6383
 23.5679
 23.5721
 23.6506
 21.2663
 21.3575
 21.3542
 21.2985
 21.6964
 21.72
 21.7352
 21.7951
 23.4061
 23.3739
 23.3187
 23.3701
 23.1846
 23.2523
 23.1851
 23.2598
 22.0068
 22.0027
 21.9787
 21.9123
 22.7249
 22.7608
 22.8007
 22.7752
 24.1589
 24.0985
 24.1052
 24.0933
 21.6889
 21.8281
 21.7389
 21.7702
 21.1894
 22.7209
 22.7047
 22.6636
 22.6647
 21.5363
 21.4998
 21.5071
 21.4392
 23.8388
 23.8389
 23.8259
 23.826
 21.3031
 21.2438
 21.3229
 21.3513
 22.9148
 22.9266
 23.1479
 23.1814
 23.14
 23.1156
 22.012
 22.0783
 22.087
 22.0865
 22.5984
 22.5236
 22.5306
 23.1699
 23.1831
 23.1552
 22.0295
 22.028
 22.1077
 22.116
 22.0723
 22.1077
 22.0397
 22.0897
 23.608
 23.6686
 23.6737
 22.8749
 22.7455
 22.7481
 22.8188
 24.2012
 24.1394
 24.0824
 24.1645
 24.2111
 21.2399
 21.3579
 21.2316
 21.3487
 22.7801
 22.8154
 22.8447
 22.7846
 21.5614
 21.5153
 23.0055
 23.1023
 23.1019
 23.4528
 23.5119
 23.4128
 23.4304
 21.3469
 21.3643
 21.3232
 21.3145
 23.7529
 23.7304
 23.74
 23.4479
 23.4743
 23.4276
 23.4694
 23.2189
 23.1548
 23.2006
 23.2791
 22.2514
 22.1214
 22.1865
 22.1562
 23.5364
 23.4509
 23.5017
 23.5063
 22.0317
 22.5119
 22.438
 22.4158
 22.5204
 21.559
 21.5329
 21.6023
 21.3775
 21.4051
 21.414
 21.4649
 22.4651
 22.4387
 22.5205
 22.4828
 21.0461
 21.0466
 21.0416
 21.1255
 23.2385
 22.527
 22.6151
 22.6234
 22.5543
 22.7631
 22.8587
 22.8235
 22.7873
 24.3268
 24.2669
 24.2512
 24.3116
 22.8855
 22.8689
 22.8469
 22.9214
 23.077
 23.0605
 23.0391
 23.0166
 23.0318
 23.0179
 22.9757
 21.6702
 21.7439
 21.774
 23.0713
 23.1351
 23.1261
 23.0792
 21.6438
 21.5405
 21.5961
 22.8088
 22.8451
 22.7492
 22.7105
 22.73
 22.6637
 22.6799
 22.66
 22.8156
 22.7994
 22.7153
 22.7444
 21.6377
 21.5941
 21.5984
 23.2134
 21.4994
 22.5863
 22.5381
 22.5856
 22.6558
 23.6194
 23.5995
 23.6745
 23.5137
 23.4514
 23.4298
 22.7329
 22.7152
 22.773
 22.8434
 22.8473
 22.8112
 22.7806
 22.8089
 22.8575
 22.7694
 22.8503
 24.9054
 24.8953
 24.952
 22.0036
 22.0859
 22.0033
 22.9326
 22.9046
 21.7714
 21.8736
 21.8492
 21.8698
 22.493
 22.4397
 22.4891
 24.2603
 24.2753
 24.3352
 24.3106
 23.0377
 23.1243
 23.0708
 23.0639
 23.589
 23.6188
 23.6545
 23.6735
 22.2905
 22.3811
 22.338
 22.3011
 23.3215
 23.3624
 23.3321
 23.402
 24.1628
 24.1762
 24.185
 23.1818
 23.2068
 23.2412
 23.2268
 22.2529
 22.1801
 22.2028
 22.2055
 22.8512
 22.7871
 22.7738
 22.8129
 23.512
 23.5451
 23.5104
 23.1371
 23.1852
 23.1611
 23.1744
 23.5336
 23.5991
 23.521
 23.583
 23.7832
 23.7009
 23.6966
 23.7917
 21.4399
 21.3916
 21.4138
 21.3889
 23.704
 23.6522
 23.6711
 23.6516
 23.5381
 23.5814
 23.5144
 23.524
 22.4439
 22.3514
 22.3923
 22.3427
 23.1809
 23.207
 23.144
 23.1623
 20.8547
 20.8115
 20.819
 20.8136
 23.0587
 23.0907
 23.0319
 23.8029
 23.8505
 23.829
 23.7779
 23.7325
 23.7644
 23.7425
 23.7662
 23.6323
 23.7222
 22.2523
 22.3042
 22.253
 22.3411
 21.0429
 21.1081
 21.0739
 21.0822
 23.0998
 23.1609
 23.1257
 23.1626
 23.6454
 23.6858
 23.6946
 22.3292
 22.3949
 22.4097
 22.3418
 22.962
 22.9862
 22.929
 22.9015
 23.4644
 23.4652
 23.4723
 23.417
 23.838
 23.7415
 23.7999
 21.9201
 21.8562
 21.8286
 21.8996
 21.8743
 21.8627
 21.934
 23.0834
 23.0705
 23.0292
 23.0145
 23.0516
 23.0942
 23.0139
 23.4769
 23.422
 23.3993
 23.3982
 22.3429
 22.3521
 22.4068
 23.6484
 23.6434
 23.7138
 22.7526
 22.6768
 22.7107
 21.8323
 21.9167
 21.88
 22.2273
 22.247
 23.2227
 23.1781
 23.2222
 23.1715
 23.1452
 23.1741
 22.9436
 23.021
 23.4119
 23.9017
 23.8879
 23.9427
 21.6196
 21.6287
 21.727
 23.074
 23.0278
 23.0465
 23.0914
 23.4544
 22.8152
 22.7656
 22.3239
 22.316
 22.336
 22.2791
 22.8362
 22.9009
 22.8311
 23.0451
 23.0128
 23.111
 23.0288
 23.1891
 23.0757
 23.0507
 23.0978
 23.1194
 23.0122
 21.6808
 21.7431
 21.7599
 21.715
 21.6468
 21.5938
 21.4966
 21.5326
 23.6776
 23.6217
 22.7939
 22.8263
 22.8403
 22.8865
 22.6368
 22.6186
 22.6001
 22.5714
 22.3563
 22.2996
 22.3653
 22.375
 22.9545
 22.9856
 23.0114
 22.941
 23.0381
 22.9982
 23.0263
 23.0621
 21.8207
 21.9211
 21.8406
 21.8673
 23.5362
 23.4619
 23.4573
 23.4097
 23.5663
 23.4922
 23.5322
 21.9556
 21.8934
 21.8203
 21.8017
 23.493
 23.4467
 23.4625
 23.4168
 21.5976
 21.6284
 21.5758
 21.6101
 21.8512
 21.8921
 21.8733
 21.8999
 23.1381
 23.1066
 23.1651
 23.1323
 22.2013
 22.1805
 22.225
 22.2864
 23.4419
 23.4058
 23.3568
 23.3392
 22.0727
 22.1067
 22.0865
 23.6961
 23.6586
 23.7059
 23.6707
 22.5452
 22.5617
 22.5283
 22.5008
 23.1821
 23.1631
 22.1049
 22.0154
 22.0556
 22.0905
 22.045
 22.0561
 22.0963
 23.007
 22.9241
 23.0014
 21.9481
 21.9588
 21.9325
 21.8677
 24.1534
 24.1208
 24.0802
 24.1066
 23.435
 23.4146
 23.356
 23.3499
 22.4691
 22.5546
 22.5436
 22.4607
 21.5854
 21.5791
 21.6252
 21.5836
 21.7879
 21.7258
 21.7097
 21.7803
 21.4708
 21.464
 21.4538
 21.6435
 21.6254
 23.2689
 23.2247
 23.2712
 23.2114
 23.5899
 23.5627
 23.6585
 23.6058
 23.3651
 23.3619
 23.2415
 23.1763
 23.2264
 23.2209
 23.0544
 23.0465
 22.9756
 23.0448
 23.6267
 23.6248
 23.6724
 22.6861
 22.7272
 22.7146
 22.743
 20.8568
 20.8819
 20.9513
 23.2689
 23.2789
 23.2576
 23.2034
 21.7779
 21.8625
 21.8083
 21.7857
 22.247
 22.1648
 22.1877
 22.7784
 22.8157
 22.746
 22.2515
 22.1766
 22.2634
 21.8182
 21.8891
 22.3003
 22.2889
 22.2882
 23.4181
 23.3955
 23.3785
 23.4503
 21.5428
 21.4949
 21.5473
 21.57
 22.5271
 22.445
 22.5003
 24.3843
 24.4432
 24.4623
 24.388
 23.7049
 23.7402
 22.6119
 23.2266
 23.1488
 23.1989
 23.2248
 22.7823
 22.7184
 22.7227
 22.1495
 22.1249
 22.18
 22.1488
 21.5752
 21.5298
 22.8777
 22.9075
 22.9035
 22.9432
 23.7636
 23.804
 23.8115
 23.7312
 21.7853
 21.7374
 21.7548
 21.7833
 22.4315
 22.4042
 22.4422
 24.7585
 24.7791
 24.8367
 24.8402
 23.6648
 23.678
 23.7365
 23.3258
 23.2816
 23.3614
 23.3118
 22.5313
 22.5263
 22.5694
 22.4836
 22.821
 22.7676
 23.8681
 23.8474
 23.8533
 23.8519
 22.391
 22.3198
 23.3716
 23.441
 23.3881
 23.3734
 23.0832
 23.0565
 23.133
 23.0804
 22.8301
 22.7689
 22.7332
 22.7877
 23.3225
 23.3541
 23.4232
 22.2407
 22.3372
 22.2432
 22.3111
 21.908
 21.8531
 21.7971
 21.9043
 21.9782
 21.9872
 21.9855
 21.9109
 23.7758
 23.8437
 23.7882
 23.835
 22.8432
 22.8841
 24.5105
 24.5853
 24.543
 24.6095
 23.1375
 23.2034
 23.2277
 21.2558
 25.0281
 25.0136
 25.0188
 25.1082
 22.8548
 22.8153
 22.8528
 22.844
 23.2637
 23.2035
 23.2319
 21.9303
 21.8778
 21.8604
 21.9395
 21.9356
 21.9603
 21.8906
 21.8985
 21.9557
 21.928
 21.9844
 22.01
 23.4028
 23.349
 23.4366
 23.3498
 23.6201
 23.648
 23.6684
 23.6697
 22.4076
 22.4129
 22.3341
 22.4171
 23.0703
 23.1604
 23.0521
 23.1101
 20.9724
 21.5292
 21.4917
 22.5373
 22.5435
 23.0014
 23.0513
 23.0395
 21.4923
 21.3871
 21.4568
 21.4721
 22.8924
 22.9219
 22.6112
 22.6633
 24.2539
 24.2007
 24.2687
 24.2133
 23.4096
 23.4323
 23.479
 23.4458
 22.4076
 22.3284
 22.3992
 22.3442
 24.1185
 24.1866
 24.1369
 24.1102
 21.0677
 21.1085
 21.0285
 21.1023
 21.5887
 21.6802
 21.4625
 21.5079
 21.562
 21.4607
 21.9303
 21.8763
 23.1695
 23.131
 23.1712
 24.8808
 24.8255
 24.8982
 24.8983
 24.0518
 24.0123
 24.0048
 24.0563
 21.5627
 21.5026
 21.5619
 21.6011
 22.1526
 22.0538
 22.1028
 22.7095
 22.768
 22.8138
 22.7358
 23.3408
 23.2674
 23.3203
 23.3459
 21.6931
 21.6316
 21.6881
 21.5428
 22.7506
 22.6736
 23.3432
 23.3196
 22.3127
 22.2483
 22.3413
 22.3166
 23.5895
 23.6648
 23.5673
 23.6764
 23.715
 23.7852
 23.7549
 24.8226
 24.7215
 24.7294
 24.772
 23.3012
 23.2663
 23.274
 23.2189
 21.7806
 21.7659
 21.8958
 21.8286
 21.8741
 21.8289
 23.4396
 23.4418
 23.3831
 23.4849
 22.0667
 22.1063
 22.0438
 22.2997
 22.3075
 22.2767
 22.3326
 21.8478
 21.7736
 21.848
 21.7718
 23.3597
 23.3022
 23.3216
 23.347
 21.3838
 21.4981
 23.0361
 24.4107
 24.3941
 24.3477
 24.3315
 22.0519
 22.0744
 22.0178
 24.1044
 24.1415
 24.0981
 24.1659
 22.2326
 22.2386
 22.2329
 22.1728
 23.7818
 23.7846
 23.8541
 23.7597
 23.5713
 23.5783
 23.5209
 23.5073
 22.36
 22.3087
 22.2991
 23.2164
 23.1849
 23.2334
 23.2673
 22.5167
 22.5241
 22.483
 22.5789
 22.5638
 22.6321
 21.818
 21.7952
 21.8064
 22.2687
 22.2558
 22.2938
 24.4959
 24.4905
 24.436
 24.4797
 23.6757
 23.6107
 23.7018
 23.591
 21.6709
 21.7632
 21.7689
 21.7754
 21.9821
 22.0104
 23.5008
 23.3891
 23.4971
 22.2773
 22.3617
 22.3536
 22.3968
 22.3309
 22.3542
 22.3794
 23.4066
 23.4384
 23.4004
 23.3852
 21.4123
 21.4167
 23.1845
 23.2091
 23.1817
 23.1528
 23.4807
 23.4766
 23.4561
 22.2609
 22.2412
 22.8476
 22.8694
 22.8762
 22.803
 23.7902
 23.8168
 22.4258
 22.4647
 23.17
 23.249
 23.2322
 23.1911
 22.6829
 22.6826
 22.7314
 22.6438
 22.6901
 22.7309
 22.697
 23.9086
 23.8936
 23.9259
 23.8188
 24.0776
 24.0801
 24.0349
 24.0619
 22.2115
 22.2493
 22.3026
 22.2645
 21.6254
 21.6209
 21.6661
 21.6644
 22.5749
 22.5408
 22.5998
 22.815
 22.8561
 22.8825
 22.8364
 22.7925
 21.9972
 21.9799
 23.2997
 23.2385
 23.2953
 23.313
 23.5435
 21.6315
 21.6505
 21.7002
 21.6706
 22.8021
 22.9014
 22.8757
 22.8216
 24.7229
 24.6868
 22.9944
 23.0717
 22.9925
 24.4833
 24.4679
 24.5015
 24.4441
 22.4849
 22.5316
 22.4922
 22.5209
 23.8007
 23.7278
 23.7154
 23.4105
 23.3546
 21.3474
 21.3543
 21.355
 21.4979
 21.4912
 21.5284
 23.6493
 23.5641
 23.4462
 23.4526
 24.6015
 24.6376
 24.6476
 24.6661
 21.6248
 21.7233
 21.6106
 23.5834
 23.5742
 23.5363
 23.6221
 23.4711
 23.4973
 23.425
 23.4964
 22.2558
 22.2246
 22.202
 22.2376
 22.5001
 22.3612
 22.4328
 22.2539
 22.2468
 22.3159
 22.2487
 22.013
 22.0891
 21.9538
 22.1166
 23.8342
 23.8281
 23.6594
 23.6574
 23.6206
 22.5509
 22.5844
 22.6427
 22.6181
 23.5248
 23.531
 23.4613
 23.485
 22.1783
 22.2222
 22.2094
 22.1742
 23.803
 23.7216
 21.6907
 21.7352
 21.7053
 21.7687
 22.159
 22.2649
 22.2177
 22.142
 23.3205
 23.3134
 23.3352
 23.2791
 21.8339
 21.7565
 23.0293
 23.0147
 22.9913
 22.9792
 24.1635
 24.1469
 24.1584
 24.1484
 23.8081
 23.7722
 23.809
 23.7561
 21.326
 21.2949
 21.2601
 21.2742
 21.5876
 21.6183
 21.6456
 23.3537
 23.3655
 23.3735
 21.3594
 21.3108
 22.9902
 22.955
 22.9956
 22.9064
 21.7739
 21.82
 21.7642
 21.8227
 23.5124
 23.5445
 23.5009
 23.5485
 23.9168
 23.8568
 23.8976
 21.9024
 21.8264
 21.8312
 21.8627
 23.1198
 23.0354
 23.0494
 23.0743
 23.6108
 23.5889
 23.5466
 23.6509
 23.7933
 23.8983
 23.7787
 22.535
 22.6092
 22.5053
 22.7568
 22.7443
 22.794
 22.7188
 22.5876
 22.5938
 22.5257
 22.6056
 23.189
 23.1236
 23.1845
 23.1317
 23.4365
 23.4214
 23.3875
 23.4649
 23.6755
 23.7363
 22.3357
 22.2455
 22.3379
 22.3356
 22.694
 22.7806
 22.7124
 22.7521
 22.6705
 22.7602
 22.7746
 22.8166
 22.7041
 22.7363
 24.4444
 24.4146
 24.3748
 24.4045
 21.5823
 21.5003
 21.5678
 23.1154
 23.1232
 23.1268
 23.1821
 22.889
 22.9396
 22.8906
 23.7417
 23.6962
 23.7692
 23.7476
 23.5713
 23.6306
 23.5888
 23.6053
 23.1305
 23.112
 23.0641
 23.4938
 23.5268
 22.1384
 22.1777
 22.0858
 21.242
 21.2194
 21.2881
 21.2516
 23.5768
 23.6329
 23.6353
 23.5483
 22.8976
 22.8435
 22.827
 22.8948
 21.9958
 21.98
 22.0378
 22.0407
 23.5151
 23.4931
 23.5403
 23.4511
 23.3624
 23.3279
 23.3077
 23.2555
 21.8831
 21.9428
 22.0163
 22.0046
 23.3817
 23.3111
 21.6821
 21.7061
 21.6445
 22.6003
 22.6534
 23.9767
 24.0123
 24.0161
 24.0391
 23.1166
 23.0889
 23.0711
 23.0851
 24.0334
 24.0663
 24.0336
 22.9347
 22.947
 22.4597
 22.4213
 22.3496
 22.4543
 23.1034
 23.0987
 22.3281
 22.2675
 23.1669
 23.2052
 23.1729
 23.152
 22.3374
 22.3919
 22.3197
 22.2996
 22.0627
 21.9905
 21.9291
 21.977
 21.3917
 21.3792
 21.4158
 21.4103
 22.8673
 22.8324
 23.5496
 23.5497
 23.6498
 23.6767
 22.0123
 22.0834
 23.7042
 23.6443
 23.6811
 24.3208
 24.3093
 24.2201
 24.2585
 24.42
 24.3771
 24.4038
 22.7627
 22.6878
 22.6929
 22.7046
 23.1574
 23.1025
 23.1476
 23.6071
 23.3383
 23.2887
 23.3652
 23.2985
 23.6193
 23.5767
 23.6625
 23.6015
 23.1993
 23.2488
 23.1885
 23.2464
 22.2699
 22.3881
 22.3862
 22.2887
 21.3933
 21.4224
 21.4254
 21.3557
 23.0114
 23.0304
 22.9427
 22.9677
 21.8865
 21.9203
 21.8072
 21.8292
 23.3432
 22.2337
 22.3247
 22.2824
 22.2981
 23.9652
 24.0045
 23.9683
 23.9691
 22.2112
 22.1469
 22.1411
 23.2496
 21.6179
 21.6098
 21.6493
 21.5453
 21.4717
 21.4636
 21.4596
 21.478
 21.5652
 21.5017
 21.4782
 22.7947
 22.8053
 22.7912
 22.869
 21.5438
 21.5344
 21.5039
 21.5049
 23.6101
 23.6505
 23.6634
 23.6743
 22.3814
 22.4087
 22.4029
 22.4699
 23.0223
 22.9474
 22.9602
 23.0157
 24.193
 24.1453
 24.1903
 22.4693
 22.9182
 22.9347
 22.9626
 22.8875
 21.5159
 21.4605
 21.4599
 21.4417
 21.4991
 21.45
 21.3925
 21.4171
 22.402
 22.4222
 22.3805
 22.4314
 23.3238
 23.3667
 23.3888
 23.3656
 23.0857
 23.0175
 23.0631
 21.5792
 21.5446
 21.5876
 21.6553
 21.4694
 21.4287
 21.4436
 21.4878
 23.6314
 23.6629
 23.6623
 21.9451
 21.8854
 21.5194
 21.5408
 21.5294
 23.5951
 23.6355
 23.5629
 23.5584
 22.1393
 22.0445
 22.1607
 22.1733
 23.1141
 22.5856
 22.5697
 22.5321
 22.5839
 22.4166
 22.4718
 22.4052
 22.5095
 21.487
 21.4507
 21.7885
 21.7062
 21.7622
 21.6986
 21.8077
 21.7114
 21.7525
 21.6814
 21.8732
 21.943
 21.849
 21.9336
 22.1365
 22.0857
 22.1258
 22.0939
 24.0907
 24.0166
 21.5548
 21.5262
 21.4803
 23.8506
 23.8651
 23.8485
 23.4425
 23.527
 23.5435
 23.4675
 22.0871
 22.1284
 22.0787
 22.0159
 22.9893
 23.0519
 23.024
 23.0161
 21.1861
 21.2493
 21.1814
 21.1294
 22.6136
 22.6301
 22.5856
 22.6035
 21.8547
 21.8044
 21.8629
 22.3097
 22.3115
 22.6381
 22.737
 22.6613
 22.6608
 22.7271
 22.8248
 22.7379
 22.7956
 23.68
 23.6458
 23.638
 22.3868
 22.3282
 22.3581
 22.3024
 23.1851
 23.1568
 23.1096
 21.6739
 21.6894
 21.6023
 21.7073
 21.4635
 22.5276
 22.6183
 22.6285
 22.5669
 22.3297
 22.2835
 22.2772
 22.2992
 22.4256
 22.4647
 22.4888
 24.9035
 24.9499
 24.8906
 24.8908
 23.4621
 23.4122
 23.7732
 23.8282
 22.9273
 23.0269
 23.0041
 22.9574
 25.2078
 25.1849
 21.2325
 21.2093
 21.1876
 21.1307
 22.1244
 21.9962
 23.6928
 23.7035
 23.6638
 23.6662
 22.9217
 22.9133
 22.8656
 22.8881
 21.8057
 21.7376
 21.7672
 21.8415
 23.3915
 23.4144
 23.3633
 23.385
 22.9838
 23.0277
 22.9571
 22.9884
 21.7456
 21.7074
 21.7059
 21.641
 22.9957
 22.9736
 22.9672
 23.057
 21.4194
 21.4851
 21.4653
 21.4912
 22.3886
 22.3361
 22.3521
 23.4695
 23.4683
 23.5545
 23.4797
 22.4935
 22.5563
 22.5156
 22.5589
 22.6857
 22.7349
 23.2263
 23.1309
 23.1171
 22.357
 22.3724
 22.2958
 22.2828
 21.3574
 21.3626
 21.2945
 21.294
 21.6258
 21.5738
 21.5303
 21.6385
 23.5365
 23.5459
 23.6007
 23.58
 23.8354
 23.8408
 23.8572
 23.8488
 23.6756
 23.7542
 23.6925
 23.728
 23.8938
 23.8843
 23.9105
 22.7787
 22.7918
 22.776
 22.8693
 21.9469
 21.9134
 22.1589
 22.0735
 22.1275
 22.1291
 21.9932
 21.9476
 22.0271
 23.4871
 23.5383
 23.5187
 23.5575
 22.8017
 22.7904
 22.7476
 22.7597
 21.1879
 21.1806
 21.1609
 21.1177
 22.6377
 22.6734
 22.7039
 22.634
 22.5439
 22.6197
 22.5358
 22.5999
 21.6056
 21.5649
 21.6253
 21.6243
 23.7249
 23.8123
 23.7829
 23.7497
 22.1484
 22.1622
 23.7602
 23.8061
 21.8572
 21.9234
 21.8615
 21.8055
 22.684
 22.695
 22.668
 22.7503
 23.9932
 23.9311
 23.9715
 23.7885
 23.8127
 23.8357
 23.8391
 23.3018
 23.3766
 22.6791
 22.7088
 22.6611
 22.7027
 22.3169
 22.3264
 22.2758
 23.112
 23.166
 23.1675
 23.1041
 23.1577
 23.063
 23.1597
 23.0972
 22.0329
 22.1014
 22.0781
 22.0715
 23.9079
 23.9103
 23.8859
 21.2907
 21.2727
 21.3669
 21.3505
 22.4548
 22.4742
 22.4624
 23.5685
 23.5456
 23.5236
 21.4792
 21.4775
 21.5425
 21.4442
 21.8851
 23.3117
 23.3827
 23.3711
 23.347
 21.5319
 21.6491
 21.606
 21.5511
 22.4392
 22.3598
 22.3864
 21.335
 21.3236
 21.3229
 21.3274
 21.5544
 21.6076
 21.6018
 21.5312
 21.5076
 23.9777
 23.9375
 22.9204
 22.942
 22.8595
 22.9088
 24.0893
 24.1302
 24.1271
 24.105
 23.2502
 22.441
 22.4124
 22.5148
 22.1548
 22.1002
 22.0444
 22.1517
 23.2439
 23.2347
 23.2835
 23.2994
 23.4496
 23.4653
 22.5101
 22.4771
 22.4758
 23.3737
 23.4103
 23.3662
 23.33
 23.4492
 23.4461
 23.415
 23.3993
 21.5135
 21.4782
 23.2192
 23.1709
 23.2157
 23.2241
 23.9001
 23.8042
 23.8979
 23.8236
 23.4697
 23.4591
 23.3325
 23.4377
 23.8867
 23.9308
 23.8879
 21.9356
 21.9992
 21.9125
 22.1838
 22.1801
 21.5528
 21.536
 21.5914
 23.672
 23.7427
 23.721
 23.7305
 23.5968
 23.563
 23.5352
 24.9859
 24.9086
 24.981
 25.0189
 21.976
 22.0734
 21.9756
 21.9319
 23.37
 23.3428
 23.3766
 23.2822
 22.4622
 22.5151
 22.4957
 22.4556
 22.0243
 22.0436
 22.1165
 22.0743
 23.5859
 23.5801
 23.5563
 23.5271
 22.9364
 22.8798
 22.9408
 22.219
 22.209
 22.1637
 22.4365
 22.4429
 22.4607
 22.3835
 22.9694
 23.0402
 23.0428
 23.0349
 22.4254
 22.3919
 22.3665
 23.9116
 23.7995
 23.8937
 23.8807
 22.8511
 22.8453
 22.8329
 22.8988
 23.6241
 23.6819
 23.679
 23.6598
 23.7209
 23.8088
 23.7086
 23.7282
 21.0932
 20.9995
 21.1272
 23.6232
 23.6741
 23.6255
 21.099
 21.9104
 21.8987
 21.9916
 21.9587
 23.7847
 22.1725
 23.3288
 23.3365
 23.3795
 23.3671
 23.9092
 23.9495
 23.9803
 23.9456
 22.3064
 22.9641
 21.2983
 21.3219
 21.313
 21.3253
 24.9117
 24.8686
 24.8893
 23.3618
 23.4137
 23.4302
 23.8377
 23.8988
 20.9708
 20.9256
 21.0256
 20.987
 23.0916
 23.1899
 23.126
 23.1104
 21.8453
 21.7722
 21.766
 22.411
 22.4682
 22.277
 22.306
 22.2005
 22.2699
 21.489
 21.5399
 21.5557
 21.5059
 22.9608
 22.9619
 22.8688
 22.9017
 21.6317
 21.59
 21.6594
 21.6212
 22.8316
 22.7885
 22.7219
 22.8097
 22.031
 22.017
 21.9866
 22.0661
 21.9168
 21.9891
 21.9232
 21.7878
 23.5042
 23.5967
 23.4811
 23.446
 22.7534
 21.3981
 21.2932
 21.3378
 21.323
 22.5809
 22.5674
 22.6531
 22.5455
 22.4763
 22.4661
 23.6612
 23.705
 23.7191
 23.6459
 23.2496
 23.3102
 23.2488
 22.7945
 22.8108
 22.8361
 22.8773
 21.1508
 21.2271
 21.239
 21.2128
 23.4114
 23.4125
 23.4592
 23.4736
 22.1877
 22.2857
 22.2823
 22.2431
 22.835
 22.8219
 22.8742
 23.7248
 23.6649
 23.6911
 23.6786
 24.2779
 24.2656
 24.3354
 24.2411
 23.2645
 23.3158
 23.3331
 21.7903
 21.7876
 21.7419
 22.5849
 22.032
 22.1163
 22.0801
 22.0801
 23.4041
 23.423
 23.4149
 23.4167
 21.6813
 21.5647
 21.6258
 21.6456
 22.6658
 22.7609
 22.3245
 22.3688
 22.3475
 22.3118
 22.2704
 22.2946
 22.4024
 24.374
 24.3442
 24.4303
 24.3711
 20.908
 20.7805
 20.8231
 20.8966
 23.225
 23.1661
 23.1941
 23.5449
 23.5012
 23.5914
 23.4827
 22.2461
 22.3334
 22.2974
 24.7362
 24.7915
 24.8261
 24.7687
 22.0487
 22.0453
 21.9514
 21.9342
 21.9956
 21.9813
 23.8115
 23.8551
 23.8311
 23.8702
 23.6597
 23.659
 23.6347
 23.6853
 24.1448
 24.0921
 24.059
 24.1388
 22.9756
 24.1918
 24.1401
 24.1491
 24.1292
 22.0185
 22.0906
 22.1032
 22.1328
 23.6396
 23.5721
 22.1522
 22.1108
 22.112
 22.1924
 21.7801
 21.7401
 21.7837
 21.7456
 21.1998
 21.1558
 21.1641
 21.0718
 24.8959
 24.918
 24.8447
 22.4505
 22.3802
 22.4044
 22.4151
 21.895
 21.8782
 21.9419
 21.9075
 24.3877
 24.3433
 24.3252
 24.3937
 22.4599
 22.0311
 22.0042
 21.9808
 22.0509
 21.5326
 21.4977
 21.5331
 22.9678
 22.9415
 22.9493
 22.905
 21.2699
 21.1749
 21.133
 21.1771
 22.579
 22.5459
 22.582
 22.5916
 22.497
 23.4443
 23.5255
 23.4278
 22.6389
 22.7138
 22.6838
 22.6109
 22.7085
 22.6888
 22.6589
 22.7477
 23.2266
 23.3071
 23.2838
 23.8709
 24.2539
 24.1976
 24.3119
 22.3436
 22.2936
 22.3172
 22.0547
 22.0378
 22.0769
 23.51
 23.4443
 23.4803
 23.3885
 22.1798
 22.2233
 21.6081
 21.6438
 21.668
 21.6392
 21.4232
 21.441
 21.4449
 21.699
 21.6489
 22.4071
 22.3527
 22.3987
 21.7907
 21.8839
 21.8261
 23.6439
 24.7791
 24.8102
 24.7569
 24.767
 22.4819
 22.4636
 22.5214
 22.5041
 24.6085
 24.5907
 24.5325
 24.616
 22.1252
 22.1195
 22.0813
 22.7859
 22.8132
 22.8661
 22.8791
 23.403
 23.3617
 23.4651
 23.4284
 22.5465
 22.5275
 22.4689
 22.1037
 22.0553
 22.9138
 22.8398
 22.8921
 22.8819
 23.2133
 23.1687
 23.1982
 23.6547
 23.6496
 23.6468
 22.45
 22.4293
 22.3822
 22.4681
 21.9847
 21.9134
 21.9671
 21.9282
 20.9052
 20.9591
 20.8817
 20.9508
 22.6943
 22.7048
 20.8665
 20.928
 20.9558
 22.2961
 23.8087
 23.7563
 23.7092
 23.7359
 23.3957
 23.352
 23.3962
 23.3656
 22.3173
 22.3638
 22.3344
 21.6345
 21.5799
 23.8737
 23.851
 23.9116
 23.835
 22.0626
 22.0937
 23.8138
 23.8433
 22.5818
 22.587
 22.619
 23.9674
 24.0178
 23.9416
 23.3864
 23.399
 23.4255
 23.421
 21.6385
 21.6325
 21.5998
 21.6461
 23.0822
 23.0733
 23.0688
 22.94
 23.0268
 22.9792
 22.9689
 21.4598
 21.5445
 21.5425
 21.5516
 24.2859
 24.2592
 24.3088
 22.7881
 22.8576
 22.8251
 21.9618
 21.9207
 22.2169
 22.2322
 22.3034
 22.29
 24.4011
 24.3536
 24.3724
 24.3925
 23.4603
 23.4587
 23.4525
 23.4053
 21.878
 21.8543
 21.8266
 21.8183
 21.8112
 21.8422
 21.8374
 21.8785
 23.0125
 23.0847
 23.0201
 23.0361
 21.1032
 20.996
 21.0185
 21.1001
 23.6346
 23.5825
 23.6568
 24.4339
 24.493
 24.4793
 22.5605
 22.5255
 22.2057
 22.1881
 22.2393
 22.2104
 21.6562
 21.6918
 21.5906
 21.5863
 23.1621
 22.7094
 23.035
 22.9816
 22.9516
 22.9154
 24.9882
 25.0639
 25.057
 24.9738
 21.9971
 22.0259
 23.4766
 23.4471
 23.407
 23.2632
 23.291
