 -85.7014
 -85.7041
 -85.7035
 -85.7049
 -85.7457
 -85.7461
 -85.7471
 -85.7477
 -85.7356
 -85.7341
 -85.7359
 -85.7345
 -85.7375
 -85.7359
 -85.7356
 -85.7348
 -85.7615
 -85.7624
 -85.7608
 -85.7603
 -85.7593
 -85.7583
 -85.7601
 -85.7587
 -85.6916
 -85.69
 -85.6905
 -85.6915
 -85.694
 -85.6945
 -85.6945
 -85.6936
 -85.7591
 -85.7586
 -85.7572
 -85.7585
 -85.7588
 -85.7589
 -85.7585
 -85.7603
 -85.6855
 -85.6845
 -85.6861
 -85.6864
 -85.7348
 -85.7351
 -85.7335
 -85.7345
 -85.7098
 -85.7097
 -85.7083
 -85.7112
 -85.7485
 -85.7464
 -85.7455
 -85.747
 -85.728
 -85.7274
 -85.7284
 -85.7296
 -85.697
 -85.6956
 -85.698
 -85.6957
 -85.7556
 -85.7563
 -85.7553
 -85.7566
 -85.7391
 -85.7381
 -85.7395
 -85.7385
 -85.7291
 -85.7297
 -85.7299
 -85.731
 -85.7531
 -85.7532
 -85.7539
 -85.7548
 -85.6932
 -85.691
 -85.6933
 -85.6918
 -85.7639
 -85.7642
 -85.7653
 -85.7651
 -85.6602
 -85.6591
 -85.6585
 -85.6605
 -85.7445
 -85.7451
 -85.7434
 -85.7432
 -85.7259
 -85.7247
 -85.726
 -85.7268
 -85.7319
 -85.7324
 -85.7316
 -85.7311
 -85.7187
 -85.7207
 -85.7216
 -85.7188
 -85.696
 -85.6946
 -85.6963
 -85.6959
 -85.7093
 -85.7087
 -85.7072
 -85.7083
 -85.7468
 -85.7467
 -85.7458
 -85.7448
 -85.7269
 -85.7293
 -85.7262
 -85.7273
 -85.7102
 -85.7116
 -85.7116
 -85.7102
 -85.7417
 -85.7402
 -85.7421
 -85.7405
 -85.7458
 -85.7451
 -85.745
 -85.7453
 -85.7106
 -85.7093
 -85.7111
 -85.7082
 -85.6994
 -85.6991
 -85.6989
 -85.699
 -85.7402
 -85.7379
 -85.74
 -85.7394
 -85.6844
 -85.6855
 -85.6857
 -85.6864
 -85.7424
 -85.7425
 -85.745
 -85.7443
 -85.7662
 -85.7653
 -85.7659
 -85.765
 -85.7338
 -85.7334
 -85.7342
 -85.7319
 -85.7455
 -85.7469
 -85.7462
 -85.7459
 -85.6885
 -85.6882
 -85.6895
 -85.6873
 -85.7393
 -85.7383
 -85.7387
 -85.7403
 -85.7588
 -85.7585
 -85.7597
 -85.7592
 -85.7056
 -85.7071
 -85.7064
 -85.7058
 -85.7404
 -85.7425
 -85.7419
 -85.7419
 -85.6977
 -85.6993
 -85.6978
 -85.696
 -85.7124
 -85.7112
 -85.7107
 -85.71
 -85.7294
 -85.7281
 -85.7277
 -85.7268
 -85.6951
 -85.6945
 -85.6938
 -85.695
 -85.7307
 -85.7293
 -85.7293
 -85.7305
 -85.7143
 -85.7121
 -85.7142
 -85.7113
 -85.734
 -85.7349
 -85.7339
 -85.735
 -85.708
 -85.7095
 -85.7086
 -85.7108
 -85.7342
 -85.7339
 -85.7354
 -85.733
 -85.743
 -85.7432
 -85.7441
 -85.7449
 -85.7452
 -85.7444
 -85.7453
 -85.743
 -85.7057
 -85.7059
 -85.7034
 -85.7068
 -85.7175
 -85.7166
 -85.717
 -85.7191
 -85.6641
 -85.6626
 -85.6615
 -85.663
 -85.709
 -85.7089
 -85.7072
 -85.7086
 -85.727
 -85.7292
 -85.7284
 -85.7288
 -85.7154
 -85.715
 -85.7175
 -85.7137
 -85.7144
 -85.7164
 -85.7142
 -85.7162
 -85.6956
 -85.6946
 -85.6962
 -85.6961
 -85.7544
 -85.7559
 -85.7563
 -85.7542
 -85.7617
 -85.7621
 -85.7625
 -85.7628
 -85.7308
 -85.7328
 -85.7294
 -85.7304
 -85.7096
 -85.7092
 -85.7106
 -85.7086
 -85.7422
 -85.743
 -85.7438
 -85.7421
 -85.6931
 -85.69
 -85.691
 -85.6908
 -85.6926
 -85.691
 -85.6908
 -85.6928
 -85.6614
 -85.6602
 -85.6621
 -85.6618
 -85.7348
 -85.7365
 -85.7356
 -85.7372
 -85.7047
 -85.7067
 -85.7072
 -85.7049
 -85.7012
 -85.6996
 -85.7015
 -85.7026
 -85.7631
 -85.7641
 -85.7636
 -85.7642
 -85.6989
 -85.6983
 -85.697
 -85.6987
 -85.7019
 -85.701
 -85.6997
 -85.7017
 -85.7047
 -85.7061
 -85.7047
 -85.7033
 -85.7211
 -85.7206
 -85.7222
 -85.7219
 -85.7026
 -85.7045
 -85.7032
 -85.7038
 -85.712
 -85.7133
 -85.7137
 -85.7126
 -85.7174
 -85.7169
 -85.7163
 -85.7155
 -85.6981
 -85.6962
 -85.6988
 -85.6967
 -85.6561
 -85.6556
 -85.6585
 -85.6585
 -85.6945
 -85.6951
 -85.6962
 -85.6953
 -85.7356
 -85.7347
 -85.7364
 -85.7336
 -85.7361
 -85.7355
 -85.7371
 -85.7356
 -85.7447
 -85.7441
 -85.7435
 -85.7456
 -85.6926
 -85.6924
 -85.6927
 -85.6934
 -85.7646
 -85.7645
 -85.7638
 -85.7653
 -85.744
 -85.7454
 -85.7439
 -85.7442
 -85.6858
 -85.6857
 -85.6839
 -85.684
 -85.7129
 -85.7128
 -85.7121
 -85.7153
 -85.7011
 -85.7021
 -85.6996
 -85.7005
 -85.7017
 -85.7007
 -85.7008
 -85.6935
 -85.6932
 -85.6931
 -85.6925
 -85.7393
 -85.7382
 -85.7374
 -85.7398
 -85.7188
 -85.7212
 -85.7202
 -85.7188
 -85.7372
 -85.7389
 -85.7377
 -85.709
 -85.7067
 -85.7081
 -85.7072
 -85.7241
 -85.7251
 -85.7247
 -85.723
 -85.7519
 -85.7505
 -85.7505
 -85.7529
 -85.6935
 -85.6938
 -85.6964
 -85.6953
 -85.6985
 -85.6972
 -85.6964
 -85.6974
 -85.7355
 -85.7337
 -85.7332
 -85.7338
 -85.7425
 -85.7416
 -85.7442
 -85.7439
 -85.6884
 -85.6885
 -85.6876
 -85.6862
 -85.6973
 -85.6977
 -85.7005
 -85.6998
 -85.7161
 -85.7183
 -85.7195
 -85.7165
 -85.7594
 -85.7604
 -85.7597
 -85.7601
 -85.7349
 -85.7367
 -85.7371
 -85.7364
 -85.7244
 -85.7216
 -85.7242
 -85.7243
 -85.6674
 -85.6648
 -85.6676
 -85.6673
 -85.721
 -85.7193
 -85.7216
 -85.7227
 -85.7515
 -85.7501
 -85.7516
 -85.7494
 -85.7034
 -85.7007
 -85.7048
 -85.7037
 -85.6996
 -85.7
 -85.6982
 -85.6993
 -85.6988
 -85.6969
 -85.6974
 -85.6979
 -85.683
 -85.6828
 -85.6828
 -85.6835
 -85.7012
 -85.6985
 -85.6986
 -85.6987
 -85.7362
 -85.7359
 -85.7362
 -85.735
 -85.6909
 -85.6916
 -85.6923
 -85.6928
 -85.7581
 -85.757
 -85.7576
 -85.7581
 -85.6921
 -85.6898
 -85.6901
 -85.6918
 -85.7513
 -85.7492
 -85.7513
 -85.75
 -85.7203
 -85.7186
 -85.7187
 -85.7198
 -85.7127
 -85.7143
 -85.715
 -85.7131
 -85.707
 -85.7071
 -85.7093
 -85.7075
 -85.7035
 -85.7035
 -85.7022
 -85.7016
 -85.7637
 -85.7646
 -85.7649
 -85.7648
 -85.7052
 -85.7043
 -85.7051
 -85.7045
 -85.7662
 -85.7654
 -85.7659
 -85.7649
 -85.7432
 -85.7428
 -85.7448
 -85.7433
 -85.6743
 -85.6766
 -85.6761
 -85.674
 -85.7604
 -85.7601
 -85.7611
 -85.7616
 -85.6971
 -85.6993
 -85.6975
 -85.6959
 -85.6724
 -85.6712
 -85.6707
 -85.6721
 -85.7488
 -85.7485
 -85.7478
 -85.7485
 -85.762
 -85.763
 -85.7624
 -85.7621
 -85.7289
 -85.7295
 -85.7285
 -85.7282
 -85.7464
 -85.7447
 -85.7468
 -85.7452
 -85.7012
 -85.6992
 -85.7002
 -85.7
 -85.7329
 -85.7322
 -85.733
 -85.7346
 -85.7119
 -85.7109
 -85.7125
 -85.7126
 -85.6945
 -85.6952
 -85.6942
 -85.6941
 -85.6866
 -85.6863
 -85.6861
 -85.6877
 -85.7193
 -85.7186
 -85.7204
 -85.718
 -85.7244
 -85.7245
 -85.7239
 -85.7227
 -85.7002
 -85.6998
 -85.7011
 -85.7019
 -85.7001
 -85.6978
 -85.7
 -85.6996
 -85.738
 -85.7384
 -85.737
 -85.737
 -85.7596
 -85.7592
 -85.7606
 -85.7607
 -85.7576
 -85.7566
 -85.7578
 -85.7581
 -85.7569
 -85.7552
 -85.7556
 -85.7564
 -85.7395
 -85.7387
 -85.7402
 -85.7384
 -85.6998
 -85.6977
 -85.6993
 -85.6987
 -85.7007
 -85.7018
 -85.7023
 -85.7028
 -85.7237
 -85.7232
 -85.7205
 -85.7205
 -85.7433
 -85.7423
 -85.745
 -85.744
 -85.7429
 -85.7419
 -85.7423
 -85.7435
 -85.73
 -85.7285
 -85.7294
 -85.7297
 -85.7346
 -85.7361
 -85.734
 -85.7345
 -85.6875
 -85.6872
 -85.688
 -85.6898
 -85.6465
 -85.6452
 -85.6467
 -85.6441
 -85.7043
 -85.704
 -85.7018
 -85.703
 -85.6544
 -85.6571
 -85.6564
 -85.7044
 -85.7041
 -85.7052
 -85.703
 -85.7531
 -85.7522
 -85.7528
 -85.7518
 -85.7282
 -85.7293
 -85.7295
 -85.7309
 -85.7594
 -85.7588
 -85.7602
 -85.7587
 -85.6996
 -85.6999
 -85.698
 -85.6997
 -85.7408
 -85.7402
 -85.7426
 -85.742
 -85.7302
 -85.7303
 -85.7282
 -85.729
 -85.7625
 -85.7631
 -85.7635
 -85.7619
 -85.75
 -85.7497
 -85.7503
 -85.7519
 -85.7044
 -85.7063
 -85.705
 -85.7043
 -85.7405
 -85.7402
 -85.7387
 -85.7404
 -85.7521
 -85.7497
 -85.7512
 -85.75
 -85.6721
 -85.6693
 -85.6707
 -85.6696
 -85.7272
 -85.7281
 -85.7289
 -85.7291
 -85.7518
 -85.7521
 -85.753
 -85.7519
 -85.7366
 -85.7381
 -85.7353
 -85.7388
 -85.7499
 -85.7483
 -85.7502
 -85.7499
 -85.7006
 -85.7023
 -85.7033
 -85.7033
 -85.7496
 -85.7526
 -85.7496
 -85.7521
 -85.7174
 -85.7185
 -85.7152
 -85.7171
 -85.7218
 -85.7228
 -85.7239
 -85.7215
 -85.7494
 -85.7493
 -85.748
 -85.7501
 -85.7661
 -85.7654
 -85.7655
 -85.766
 -85.6877
 -85.6888
 -85.6896
 -85.6901
 -85.7109
 -85.7123
 -85.7134
 -85.7114
 -85.7327
 -85.7317
 -85.7308
 -85.7313
 -85.7497
 -85.7508
 -85.7505
 -85.7508
 -85.7059
 -85.7046
 -85.7051
 -85.7052
 -85.6906
 -85.6928
 -85.6937
 -85.691
 -85.7419
 -85.742
 -85.7401
 -85.7401
 -85.7365
 -85.738
 -85.7365
 -85.7371
 -85.7608
 -85.7617
 -85.7625
 -85.7608
 -85.6954
 -85.6976
 -85.695
 -85.6968
 -85.7619
 -85.7628
 -85.7627
 -85.762
 -85.7095
 -85.7118
 -85.7105
 -85.7098
 -85.6483
 -85.6478
 -85.6486
 -85.6494
 -85.7559
 -85.7568
 -85.7574
 -85.7569
 -85.7394
 -85.7404
 -85.7386
 -85.7366
 -85.7571
 -85.7572
 -85.7564
 -85.7561
 -85.7237
 -85.7215
 -85.7231
 -85.724
 -85.7195
 -85.7207
 -85.7211
 -85.7199
 -85.7473
 -85.7454
 -85.7459
 -85.7461
 -85.6997
 -85.7004
 -85.6988
 -85.7
 -85.6967
 -85.6978
 -85.6979
 -85.6972
 -85.6632
 -85.6621
 -85.6621
 -85.6615
 -85.7301
 -85.7315
 -85.7322
 -85.733
 -85.7249
 -85.7239
 -85.7268
 -85.7249
 -85.737
 -85.7344
 -85.736
 -85.7374
 -85.7113
 -85.7136
 -85.7139
 -85.7107
 -85.7596
 -85.7595
 -85.7604
 -85.7584
 -85.7619
 -85.7636
 -85.762
 -85.7616
 -85.7382
 -85.7389
 -85.7405
 -85.7406
 -85.6342
 -85.634
 -85.6346
 -85.6356
 -85.717
 -85.7159
 -85.7174
 -85.7149
 -85.7185
 -85.7179
 -85.7159
 -85.7179
 -85.7172
 -85.7175
 -85.7153
 -85.7153
 -85.748
 -85.7473
 -85.7492
 -85.747
 -85.6692
 -85.6713
 -85.6676
 -85.669
 -85.659
 -85.6592
 -85.6571
 -85.6566
 -85.7482
 -85.747
 -85.7483
 -85.7466
 -85.7076
 -85.7099
 -85.7067
 -85.7097
 -85.7152
 -85.7151
 -85.7158
 -85.7159
 -85.7381
 -85.7369
 -85.7366
 -85.7349
 -85.6982
 -85.6992
 -85.6999
 -85.699
 -85.7505
 -85.7487
 -85.7492
 -85.7502
 -85.7115
 -85.7081
 -85.71
 -85.7075
 -85.7084
 -85.7081
 -85.7065
 -85.708
 -85.691
 -85.6897
 -85.6918
 -85.6891
 -85.7166
 -85.7192
 -85.7174
 -85.7193
 -85.753
 -85.7539
 -85.7538
 -85.7527
 -85.7403
 -85.7423
 -85.7429
 -85.7411
 -85.6976
 -85.6972
 -85.699
 -85.6988
 -85.7052
 -85.7075
 -85.7076
 -85.7052
 -85.7579
 -85.7583
 -85.7591
 -85.7589
 -85.7498
 -85.7486
 -85.7494
 -85.7488
 -85.7186
 -85.7179
 -85.7167
 -85.7179
 -85.6921
 -85.6925
 -85.6924
 -85.693
 -85.6776
 -85.6809
 -85.6803
 -85.678
 -85.7383
 -85.7367
 -85.7358
 -85.7376
 -85.692
 -85.69
 -85.6919
 -85.6877
 -85.7544
 -85.7528
 -85.7527
 -85.7542
 -85.7331
 -85.7355
 -85.7341
 -85.7326
 -85.753
 -85.7526
 -85.7521
 -85.7524
 -85.7422
 -85.7404
 -85.7404
 -85.7413
 -85.7182
 -85.7173
 -85.7181
 -85.7195
 -85.701
 -85.6981
 -85.6987
 -85.7
 -85.6808
 -85.6841
 -85.6812
 -85.6814
 -85.6882
 -85.6853
 -85.6884
 -85.6877
 -85.6999
 -85.6975
 -85.6971
 -85.698
 -85.7219
 -85.7225
 -85.7222
 -85.7193
 -85.7225
 -85.7228
 -85.7234
 -85.7213
 -85.7246
 -85.7228
 -85.726
 -85.7241
 -85.7391
 -85.738
 -85.7396
 -85.7393
 -85.6693
 -85.6671
 -85.6677
 -85.6675
 -85.7298
 -85.7301
 -85.7293
 -85.731
 -85.6971
 -85.6949
 -85.6958
 -85.6964
 -85.7148
 -85.7171
 -85.7156
 -85.7169
 -85.761
 -85.7591
 -85.7608
 -85.7604
 -85.7208
 -85.7198
 -85.7198
 -85.719
 -85.6929
 -85.692
 -85.6926
 -85.6904
 -85.7138
 -85.7136
 -85.715
 -85.716
 -85.7017
 -85.7028
 -85.7026
 -85.7012
 -85.7187
 -85.7165
 -85.7191
 -85.7175
 -85.6708
 -85.669
 -85.6698
 -85.6712
 -85.7158
 -85.7159
 -85.7177
 -85.7177
 -85.7398
 -85.7393
 -85.7404
 -85.7395
 -85.7345
 -85.7347
 -85.7355
 -85.7347
 -85.7577
 -85.7554
 -85.7573
 -85.7563
 -85.7056
 -85.7052
 -85.7069
 -85.7057
 -85.7003
 -85.7017
 -85.7003
 -85.7037
 -85.7565
 -85.7548
 -85.7566
 -85.7563
 -85.7022
 -85.702
 -85.7042
 -85.7022
 -85.753
 -85.7524
 -85.7538
 -85.7523
 -85.7276
 -85.7301
 -85.7285
 -85.7295
 -85.7222
 -85.7195
 -85.7222
 -85.7227
 -85.7008
 -85.7026
 -85.7022
 -85.7007
 -85.7197
 -85.7196
 -85.7214
 -85.7193
 -85.7538
 -85.7531
 -85.754
 -85.754
 -85.6474
 -85.6478
 -85.6483
 -85.6459
 -85.6916
 -85.6913
 -85.6913
 -85.6917
 -85.6913
 -85.6915
 -85.6912
 -85.69
 -85.7079
 -85.7086
 -85.707
 -85.7096
 -85.7149
 -85.7135
 -85.7147
 -85.7138
 -85.7061
 -85.7051
 -85.7044
 -85.7065
 -85.7612
 -85.7605
 -85.7624
 -85.7601
 -85.6998
 -85.6987
 -85.699
 -85.7011
 -85.737
 -85.7373
 -85.738
 -85.7364
 -85.7221
 -85.7492
 -85.7474
 -85.748
 -85.7479
 -85.7338
 -85.735
 -85.7362
 -85.7354
 -85.6868
 -85.6883
 -85.6888
 -85.6877
 -85.7099
 -85.709
 -85.7103
 -85.7117
 -85.703
 -85.701
 -85.7025
 -85.703
 -85.752
 -85.7506
 -85.7507
 -85.7508
 -85.7169
 -85.7138
 -85.7159
 -85.7151
 -85.7538
 -85.7542
 -85.7525
 -85.7523
 -85.7414
 -85.7425
 -85.7408
 -85.743
 -85.6877
 -85.6887
 -85.688
 -85.69
 -85.6991
 -85.6969
 -85.7006
 -85.6992
 -85.74
 -85.7412
 -85.7411
 -85.74
 -85.7199
 -85.7175
 -85.7195
 -85.6922
 -85.691
 -85.6916
 -85.693
 -85.7377
 -85.735
 -85.7367
 -85.7351
 -85.7033
 -85.7012
 -85.7013
 -85.7028
 -85.7205
 -85.7176
 -85.719
 -85.7206
 -85.7567
 -85.7566
 -85.7549
 -85.7564
 -85.7074
 -85.7065
 -85.7056
 -85.7072
 -85.7495
 -85.7478
 -85.7493
 -85.7499
 -85.7241
 -85.7232
 -85.7243
 -85.7222
 -85.7452
 -85.7443
 -85.743
 -85.7439
 -85.7554
 -85.7554
 -85.7568
 -85.7561
 -85.7085
 -85.7083
 -85.7097
 -85.7096
 -85.6471
 -85.6504
 -85.6497
 -85.6514
 -85.762
 -85.7611
 -85.7613
 -85.7609
 -85.7364
 -85.7357
 -85.7346
 -85.7355
 -85.6949
 -85.6949
 -85.6982
 -85.6956
 -85.7139
 -85.7151
 -85.7157
 -85.7137
 -85.6738
 -85.6745
 -85.6745
 -85.6726
 -85.7542
 -85.7549
 -85.7566
 -85.7551
 -85.6935
 -85.6926
 -85.6931
 -85.6933
 -85.7287
 -85.7304
 -85.7279
 -85.7292
 -85.6977
 -85.6941
 -85.6968
 -85.6971
 -85.764
 -85.7637
 -85.7639
 -85.7624
 -85.7634
 -85.7632
 -85.7624
 -85.7618
 -85.7415
 -85.7398
 -85.7394
 -85.7418
 -85.7305
 -85.7312
 -85.7305
 -85.7291
 -85.7311
 -85.6925
 -85.6929
 -85.6903
 -85.692
 -85.6969
 -85.6961
 -85.6955
 -85.6976
 -85.738
 -85.7397
 -85.7398
 -85.7397
 -85.6953
 -85.6966
 -85.6966
 -85.6953
 -85.7012
 -85.7008
 -85.7004
 -85.7024
 -85.7405
 -85.7412
 -85.7408
 -85.7392
 -85.7099
 -85.7121
 -85.7099
 -85.7121
 -85.7393
 -85.7395
 -85.7398
 -85.741
 -85.703
 -85.7026
 -85.701
 -85.7029
 -85.7084
 -85.7099
 -85.7099
 -85.7102
 -85.7177
 -85.7192
 -85.7168
 -85.7189
 -85.7301
 -85.7321
 -85.7307
 -85.7326
 -85.747
 -85.7462
 -85.7484
 -85.7483
 -85.7273
 -85.7268
 -85.7257
 -85.7259
 -85.7275
 -85.7281
 -85.7289
 -85.7283
 -85.6875
 -85.6875
 -85.6885
 -85.6891
 -85.7368
 -85.7373
 -85.7378
 -85.7374
 -85.7227
 -85.7232
 -85.7239
 -85.7225
 -85.726
 -85.7261
 -85.7248
 -85.7259
 -85.7114
 -85.7119
 -85.7097
 -85.711
 -85.6921
 -85.6918
 -85.6929
 -85.6905
 -85.7447
 -85.7446
 -85.7457
 -85.7456
 -85.6929
 -85.6913
 -85.692
 -85.6941
 -85.7619
 -85.7619
 -85.7632
 -85.7625
 -85.7501
 -85.749
 -85.751
 -85.7504
 -85.7512
 -85.7512
 -85.7513
 -85.7507
 -85.7502
 -85.7499
 -85.7496
 -85.7511
 -85.7415
 -85.7422
 -85.7405
 -85.7423
 -85.6772
 -85.6759
 -85.6735
 -85.727
 -85.7246
 -85.7267
 -85.726
 -85.7483
 -85.7477
 -85.7472
 -85.7483
 -85.7106
 -85.7085
 -85.7097
 -85.7103
 -85.7032
 -85.7036
 -85.7025
 -85.7039
 -85.7427
 -85.7429
 -85.7444
 -85.7412
 -85.7169
 -85.7163
 -85.7174
 -85.7187
 -85.705
 -85.7051
 -85.7046
 -85.7041
 -85.7603
 -85.7617
 -85.7348
 -85.7343
 -85.7328
 -85.7327
 -85.7184
 -85.7182
 -85.7169
 -85.7299
 -85.7303
 -85.7298
 -85.7284
 -85.6807
 -85.6802
 -85.6825
 -85.6823
 -85.7496
 -85.7508
 -85.7507
 -85.7493
 -85.7295
 -85.7291
 -85.7281
 -85.7282
 -85.7103
 -85.7086
 -85.7094
 -85.711
 -85.7253
 -85.7233
 -85.724
 -85.7248
 -85.6945
 -85.6939
 -85.6948
 -85.6944
 -85.689
 -85.6918
 -85.6898
 -85.6903
 -85.7162
 -85.7178
 -85.7182
 -85.7172
 -85.6937
 -85.6933
 -85.6935
 -85.6952
 -85.7186
 -85.7176
 -85.718
 -85.7172
 -85.7515
 -85.7513
 -85.7496
 -85.7494
 -85.6964
 -85.6973
 -85.698
 -85.6971
 -85.6631
 -85.6652
 -85.6632
 -85.6647
 -85.7324
 -85.7292
 -85.7314
 -85.7316
 -85.7141
 -85.7155
 -85.7138
 -85.7155
 -85.6944
 -85.694
 -85.6956
 -85.6952
 -85.7192
 -85.7179
 -85.7198
 -85.7199
 -85.7579
 -85.7574
 -85.7582
 -85.7579
 -85.7015
 -85.7014
 -85.7005
 -85.7015
 -85.7336
 -85.732
 -85.732
 -85.7317
 -85.7133
 -85.7152
 -85.7137
 -85.7165
 -85.741
 -85.7419
 -85.7416
 -85.743
 -85.7517
 -85.7514
 -85.7523
 -85.751
 -85.6954
 -85.6969
 -85.6959
 -85.6987
 -85.7069
 -85.7082
 -85.7079
 -85.7075
 -85.7297
 -85.7295
 -85.7273
 -85.7286
 -85.6937
 -85.6942
 -85.6941
 -85.6946
 -85.6489
 -85.6472
 -85.6474
 -85.6485
 -85.7249
 -85.7232
 -85.7233
 -85.7228
 -85.6443
 -85.6439
 -85.6444
 -85.646
 -85.6482
 -85.6508
 -85.6503
 -85.6491
 -85.6812
 -85.6828
 -85.6823
 -85.6806
 -85.7365
 -85.7353
 -85.7342
 -85.7335
 -85.7359
 -85.737
 -85.7373
 -85.7383
 -85.7384
 -85.7374
 -85.7383
 -85.7364
 -85.733
 -85.7312
 -85.7317
 -85.7334
 -85.6733
 -85.6716
 -85.673
 -85.6725
 -85.6972
 -85.6964
 -85.6982
 -85.6975
 -85.6946
 -85.6927
 -85.6934
 -85.6929
 -85.7103
 -85.7124
 -85.7104
 -85.7126
 -85.7269
 -85.7258
 -85.7271
 -85.7261
 -85.7413
 -85.7408
 -85.7401
 -85.7414
 -85.6992
 -85.7014
 -85.7022
 -85.7001
 -85.7368
 -85.7204
 -85.7217
 -85.7219
 -85.721
 -85.763
 -85.7633
 -85.7646
 -85.7638
 -85.7163
 -85.7168
 -85.7179
 -85.7166
 -85.7547
 -85.7564
 -85.7551
 -85.6962
 -85.697
 -85.6977
 -85.6958
 -85.6549
 -85.6568
 -85.656
 -85.657
 -85.7201
 -85.7201
 -85.7225
 -85.719
 -85.7112
 -85.7086
 -85.7089
 -85.7088
 -85.6939
 -85.6951
 -85.6962
 -85.6969
 -85.6964
 -85.6971
 -85.6956
 -85.6973
 -85.6789
 -85.6767
 -85.6782
 -85.6782
 -85.73
 -85.7295
 -85.7306
 -85.7331
 -85.7205
 -85.7226
 -85.72
 -85.7216
 -85.7064
 -85.7047
 -85.7066
 -85.7057
 -85.7165
 -85.7153
 -85.7187
 -85.7428
 -85.742
 -85.7417
 -85.6997
 -85.7001
 -85.6975
 -85.6971
 -85.6831
 -85.6825
 -85.6825
 -85.683
 -85.7031
 -85.7045
 -85.7042
 -85.7027
 -85.6828
 -85.6808
 -85.6834
 -85.6802
 -85.7462
 -85.7481
 -85.7467
 -85.7473
 -85.7412
 -85.742
 -85.7424
 -85.7435
 -85.694
 -85.6934
 -85.6937
 -85.6934
 -85.6757
 -85.6728
 -85.6748
 -85.6755
 -85.7251
 -85.7226
 -85.7248
 -85.7238
 -85.7595
 -85.7581
 -85.7598
 -85.7583
 -85.6817
 -85.6815
 -85.6805
 -85.6816
 -85.7357
 -85.7342
 -85.7338
 -85.7361
 -85.6624
 -85.661
 -85.6624
 -85.6614
 -85.741
 -85.7417
 -85.7407
 -85.7431
 -85.7117
 -85.7101
 -85.7126
 -85.7095
 -85.7464
 -85.7466
 -85.7478
 -85.7479
 -85.6957
 -85.6962
 -85.6965
 -85.698
 -85.7082
 -85.7066
 -85.7068
 -85.7067
 -85.6993
 -85.6986
 -85.7008
 -85.7006
 -85.7032
 -85.7024
 -85.7047
 -85.7014
 -85.725
 -85.7262
 -85.7259
 -85.7242
 -85.7157
 -85.7143
 -85.7161
 -85.7161
 -85.748
 -85.7467
 -85.7455
 -85.7458
 -85.7616
 -85.7625
 -85.7605
 -85.7606
 -85.7131
 -85.7128
 -85.7114
 -85.7126
 -85.751
 -85.7503
 -85.75
 -85.7519
 -85.7391
 -85.7412
 -85.7423
 -85.7407
 -85.6707
 -85.6698
 -85.6677
 -85.6706
 -85.6909
 -85.6943
 -85.6934
 -85.6924
 -85.7112
 -85.71
 -85.7095
 -85.71
 -85.6794
 -85.678
 -85.6776
 -85.6764
 -85.7265
 -85.7284
 -85.7282
 -85.7275
 -85.7453
 -85.7482
 -85.7466
 -85.7468
 -85.6807
 -85.6837
 -85.6807
 -85.6807
 -85.7171
 -85.7187
 -85.7176
 -85.7179
 -85.7042
 -85.7041
 -85.7041
 -85.7032
 -85.6492
 -85.6508
 -85.6508
 -85.6491
 -85.7096
 -85.7093
 -85.7089
 -85.7109
 -85.7215
 -85.7227
 -85.7225
 -85.7229
 -85.7402
 -85.742
 -85.7409
 -85.7424
 -85.7027
 -85.7032
 -85.7037
 -85.7212
 -85.7208
 -85.7202
 -85.721
 -85.7067
 -85.7067
 -85.7091
 -85.7074
 -85.7363
 -85.7346
 -85.7359
 -85.7356
 -85.7357
 -85.7376
 -85.7374
 -85.7368
 -85.753
 -85.7518
 -85.7526
 -85.7511
 -85.6978
 -85.6982
 -85.6994
 -85.6978
 -85.7583
 -85.7588
 -85.7594
 -85.7586
 -85.701
 -85.7026
 -85.7013
 -85.7005
 -85.7202
 -85.7223
 -85.7221
 -85.7234
 -85.7237
 -85.722
 -85.7222
 -85.7214
 -85.6464
 -85.6446
 -85.6462
 -85.646
 -85.7053
 -85.704
 -85.7054
 -85.7056
 -85.7187
 -85.7185
 -85.7201
 -85.7222
 -85.7175
 -85.7182
 -85.7182
 -85.7162
 -85.7623
 -85.7623
 -85.761
 -85.7621
 -85.7009
 -85.7027
 -85.7037
 -85.7015
 -85.7039
 -85.7028
 -85.7046
 -85.7024
 -85.7404
 -85.7418
 -85.7405
 -85.7416
 -85.6956
 -85.6952
 -85.694
 -85.6938
 -85.6947
 -85.6943
 -85.6954
 -85.6942
 -85.7344
 -85.7321
 -85.7342
 -85.7331
 -85.7366
 -85.7364
 -85.735
 -85.7365
 -85.7248
 -85.7248
 -85.7272
 -85.7266
 -85.7025
 -85.7016
 -85.731
 -85.7297
 -85.732
 -85.7301
 -85.7036
 -85.7045
 -85.7036
 -85.704
 -85.7139
 -85.7158
 -85.7164
 -85.7155
 -85.755
 -85.7543
 -85.7536
 -85.7554
 -85.7142
 -85.7148
 -85.7157
 -85.7161
 -85.7433
 -85.7444
 -85.7452
 -85.7427
 -85.6984
 -85.7018
 -85.7006
 -85.7016
 -85.7109
 -85.7094
 -85.7089
 -85.7099
 -85.7185
 -85.7215
 -85.7198
 -85.7206
 -85.6979
 -85.6964
 -85.6958
 -85.6969
 -85.664
 -85.6644
 -85.6636
 -85.6622
 -85.7597
 -85.7596
 -85.7592
 -85.7597
 -85.6821
 -85.6817
 -85.6826
 -85.6814
 -85.7276
 -85.7284
 -85.7265
 -85.7267
 -85.6637
 -85.6637
 -85.6652
 -85.6631
 -85.7304
 -85.7319
 -85.7306
 -85.7305
 -85.7016
 -85.7012
 -85.7007
 -85.7008
 -85.7015
 -85.7019
 -85.7003
 -85.7012
 -85.7237
 -85.7244
 -85.7221
 -85.7237
 -85.7483
 -85.7465
 -85.7479
 -85.7462
 -85.7097
 -85.7121
 -85.7116
 -85.7119
 -85.6937
 -85.6931
 -85.6937
 -85.6944
 -85.7475
 -85.7496
 -85.7485
 -85.75
 -85.6999
 -85.6981
 -85.7008
 -85.7009
 -85.7097
 -85.7117
 -85.7111
 -85.7122
 -85.7395
 -85.7425
 -85.7419
 -85.7408
 -85.7226
 -85.7244
 -85.7247
 -85.7247
 -85.7161
 -85.715
 -85.7163
 -85.7171
 -85.7548
 -85.7558
 -85.7564
 -85.7568
 -85.7499
 -85.7505
 -85.7504
 -85.7497
 -85.7277
 -85.7278
 -85.7256
 -85.7267
 -85.716
 -85.7172
 -85.7155
 -85.7192
 -85.7056
 -85.7062
 -85.7064
 -85.709
 -85.6917
 -85.6915
 -85.6903
 -85.7428
 -85.7439
 -85.7432
 -85.7449
 -85.6617
 -85.6603
 -85.6587
 -85.6588
 -85.7359
 -85.7337
 -85.7349
 -85.7346
 -85.6988
 -85.6967
 -85.6978
 -85.698
 -85.6955
 -85.6941
 -85.6946
 -85.6944
 -85.7503
 -85.7487
 -85.7496
 -85.7517
 -85.724
 -85.7227
 -85.7246
 -85.7232
 -85.7166
 -85.716
 -85.7033
 -85.7133
 -85.7153
 -85.713
 -85.7143
 -85.6642
 -85.6657
 -85.7338
 -85.7346
 -85.7355
 -85.687
 -85.6882
 -85.6855
 -85.6871
 -85.7343
 -85.7324
 -85.7329
 -85.733
 -85.7095
 -85.7114
 -85.7109
 -85.7108
 -85.7026
 -85.7052
 -85.7036
 -85.7037
 -85.7548
 -85.7549
 -85.7567
 -85.7555
 -85.6876
 -85.6894
 -85.6874
 -85.6894
 -85.7326
 -85.7329
 -85.733
 -85.7342
 -85.7572
 -85.7576
 -85.7559
 -85.7561
 -85.7222
 -85.7204
 -85.7223
 -85.7209
 -85.7325
 -85.7301
 -85.7312
 -85.7309
 -85.7188
 -85.7205
 -85.7192
 -85.7164
 -85.7637
 -85.7617
 -85.7631
 -85.7614
 -85.7622
 -85.7622
 -85.7615
 -85.7608
 -85.761
 -85.7604
 -85.7602
 -85.761
 -85.714
 -85.7123
 -85.7139
 -85.7138
 -85.7277
 -85.7258
 -85.7264
 -85.7276
 -85.7152
 -85.715
 -85.7136
 -85.7146
 -85.7122
 -85.7115
 -85.714
 -85.7115
 -85.7366
 -85.7373
 -85.7376
 -85.7359
 -85.748
 -85.75
 -85.7494
 -85.7501
 -85.7472
 -85.7478
 -85.7461
 -85.7483
 -85.7215
 -85.7225
 -85.7211
 -85.7223
 -85.7176
 -85.7174
 -85.7171
 -85.7162
 -85.7009
 -85.6999
 -85.7005
 -85.7024
 -85.7408
 -85.7423
 -85.7422
 -85.7403
 -85.6796
 -85.6796
 -85.6778
 -85.6808
 -85.7447
 -85.7458
 -85.7444
 -85.744
 -85.7259
 -85.7286
 -85.7256
 -85.7279
 -85.7243
 -85.7253
 -85.7246
 -85.7235
 -85.6883
 -85.6881
 -85.687
 -85.6853
 -85.6404
 -85.6417
 -85.64
 -85.6403
 -85.7069
 -85.7087
 -85.7069
 -85.7074
 -85.7446
 -85.7425
 -85.7433
 -85.7445
 -85.6956
 -85.6942
 -85.6952
 -85.6963
 -85.7272
 -85.7281
 -85.7261
 -85.7284
 -85.73
 -85.7314
 -85.7331
 -85.7324
 -85.7401
 -85.741
 -85.7387
 -85.7395
 -85.6759
 -85.6745
 -85.6746
 -85.6759
 -85.6777
 -85.6778
 -85.6769
 -85.6768
 -85.7442
 -85.7467
 -85.7456
 -85.7457
 -85.7372
 -85.7346
 -85.7347
 -85.7364
 -85.7064
 -85.7066
 -85.7056
 -85.7058
 -85.7195
 -85.7187
 -85.7203
 -85.7213
 -85.7256
 -85.7263
 -85.7257
 -85.7253
 -85.7049
 -85.7039
 -85.7065
 -85.7042
 -85.7329
 -85.7319
 -85.732
 -85.7307
 -85.7678
 -85.7667
 -85.7675
 -85.7676
 -85.7287
 -85.7306
 -85.7306
 -85.7319
 -85.7198
 -85.7206
 -85.7192
 -85.7217
 -85.7198
 -85.7195
 -85.718
 -85.7198
 -85.7259
 -85.7268
 -85.7259
 -85.7243
 -85.7591
 -85.7594
 -85.7582
 -85.7591
 -85.7482
 -85.7469
 -85.7478
 -85.7319
 -85.7318
 -85.733
 -85.7317
 -85.6937
 -85.6935
 -85.6949
 -85.6935
 -85.7117
 -85.7119
 -85.7104
 -85.7124
 -85.7473
 -85.7451
 -85.745
 -85.7452
 -85.701
 -85.7016
 -85.702
 -85.7028
 -85.7089
 -85.7074
 -85.7072
 -85.7093
 -85.7112
 -85.7105
 -85.7081
 -85.71
 -85.7359
 -85.7347
 -85.7343
 -85.7341
 -85.726
 -85.7244
 -85.7263
 -85.7229
 -85.732
 -85.7288
 -85.7299
 -85.7304
 -85.697
 -85.6975
 -85.6979
 -85.6972
 -85.7113
 -85.7127
 -85.7131
 -85.7114
 -85.7344
 -85.7331
 -85.7346
 -85.7357
 -85.7076
 -85.7084
 -85.7095
 -85.7068
 -85.7287
 -85.7302
 -85.7303
 -85.7292
 -85.696
 -85.6955
 -85.6964
 -85.6953
 -85.7572
 -85.7576
 -85.7561
 -85.7572
 -85.7001
 -85.6986
 -85.7005
 -85.7013
 -85.6972
 -85.6941
 -85.6959
 -85.696
 -85.7387
 -85.7387
 -85.7399
 -85.7404
 -85.7005
 -85.7009
 -85.7013
 -85.7011
 -85.7308
 -85.7302
 -85.7309
 -85.7291
 -85.6866
 -85.687
 -85.6845
 -85.685
 -85.7243
 -85.7236
 -85.7241
 -85.7256
 -85.7532
 -85.7553
 -85.7534
 -85.7546
 -85.7252
 -85.7227
 -85.7226
 -85.7242
 -85.7401
 -85.741
 -85.7401
 -85.7401
 -85.7299
 -85.7291
 -85.7295
 -85.7308
 -85.7287
 -85.7295
 -85.7298
 -85.7313
 -85.759
 -85.7591
 -85.7597
 -85.7574
 -85.6967
 -85.6959
 -85.695
 -85.6949
 -85.6981
 -85.6973
 -85.6957
 -85.6972
 -85.75
 -85.7498
 -85.749
 -85.7511
 -85.7543
 -85.7551
 -85.7541
 -85.7045
 -85.7039
 -85.7038
 -85.7049
 -85.7327
 -85.7345
 -85.7325
 -85.7324
 -85.7267
 -85.7275
 -85.7255
 -85.7277
 -85.6958
 -85.6974
 -85.6944
 -85.6959
 -85.7406
 -85.7418
 -85.7414
 -85.7413
 -85.7182
 -85.716
 -85.7165
 -85.7181
 -85.7241
 -85.7222
 -85.7224
 -85.722
 -85.7422
 -85.7435
 -85.7435
 -85.7432
 -85.6917
 -85.6911
 -85.6919
 -85.6926
 -85.7043
 -85.702
 -85.7027
 -85.7025
 -85.7607
 -85.7592
 -85.7605
 -85.76
 -85.6973
 -85.6971
 -85.6976
 -85.6998
 -85.6927
 -85.6921
 -85.6924
 -85.6925
 -85.7194
 -85.7199
 -85.7191
 -85.7215
 -85.6654
 -85.6661
 -85.6645
 -85.6675
 -85.7227
 -85.7231
 -85.7221
 -85.7229
 -85.7439
 -85.7433
 -85.7427
 -85.7424
 -85.7489
 -85.7478
 -85.7484
 -85.6879
 -85.688
 -85.689
 -85.6881
 -85.7007
 -85.7025
 -85.7001
 -85.7019
 -85.6963
 -85.6957
 -85.6943
 -85.6943
 -85.7035
 -85.702
 -85.703
 -85.7026
 -85.7616
 -85.7624
 -85.7629
 -85.7624
 -85.6904
 -85.6905
 -85.6898
 -85.6886
 -85.7
 -85.6987
 -85.6999
 -85.702
 -85.7482
 -85.7494
 -85.7483
 -85.7478
 -85.7095
 -85.7092
 -85.7104
 -85.7019
 -85.7002
 -85.702
 -85.7252
 -85.7245
 -85.7228
 -85.6685
 -85.6712
 -85.6716
 -85.6694
 -85.7235
 -85.7249
 -85.7242
 -85.7254
 -85.7222
 -85.7235
 -85.7209
 -85.7211
 -85.7501
 -85.7512
 -85.7497
 -85.7495
 -85.7549
 -85.7546
 -85.7568
 -85.7546
 -85.6945
 -85.6926
 -85.6925
 -85.6959
 -85.7267
 -85.7286
 -85.7288
 -85.7279
 -85.7261
 -85.7276
 -85.7283
 -85.7278
 -85.7168
 -85.7193
 -85.7181
 -85.7197
 -85.7071
 -85.7077
 -85.7082
 -85.7055
 -85.727
 -85.725
 -85.7265
 -85.727
 -85.6971
 -85.6976
 -85.6969
 -85.6981
 -85.7534
 -85.7528
 -85.7535
 -85.7538
 -85.704
 -85.7034
 -85.7043
 -85.7056
 -85.7486
 -85.7471
 -85.7481
 -85.7478
 -85.7567
 -85.756
 -85.7547
 -85.7562
 -85.7568
 -85.7564
 -85.7562
 -85.7558
 -85.7003
 -85.6992
 -85.7388
 -85.7383
 -85.7373
 -85.7382
 -85.6964
 -85.6988
 -85.6977
 -85.6969
 -85.7427
 -85.7453
 -85.7446
 -85.745
 -85.748
 -85.7472
 -85.7489
 -85.7472
 -85.7047
 -85.7062
 -85.7063
 -85.7055
 -85.7267
 -85.7268
 -85.7281
 -85.7277
 -85.7033
 -85.7033
 -85.7048
 -85.7034
 -85.713
 -85.7128
 -85.7133
 -85.715
 -85.6517
 -85.6548
 -85.6509
 -85.6536
 -85.7522
 -85.7513
 -85.7535
 -85.752
 -85.7042
 -85.7028
 -85.7048
 -85.7062
 -85.6879
 -85.6865
 -85.6865
 -85.6883
 -85.7157
 -85.7147
 -85.7166
 -85.7169
 -85.6874
 -85.6846
 -85.6838
 -85.6874
 -85.7149
 -85.7131
 -85.7121
 -85.7142
 -85.738
 -85.7375
 -85.7393
 -85.7367
 -85.7181
 -85.7168
 -85.7168
 -85.7175
 -85.7505
 -85.7527
 -85.7507
 -85.7158
 -85.7176
 -85.7157
 -85.7175
 -85.6517
 -85.6506
 -85.6507
 -85.65
 -85.7626
 -85.7629
 -85.7634
 -85.7626
 -85.7259
 -85.7253
 -85.7264
 -85.725
 -85.7435
 -85.7425
 -85.7409
 -85.7429
 -85.6941
 -85.6957
 -85.6916
 -85.6934
 -85.7066
 -85.7082
 -85.7054
 -85.7073
 -85.707
 -85.7098
 -85.708
 -85.7097
 -85.7556
 -85.7547
 -85.7561
 -85.7569
 -85.7097
 -85.7083
 -85.7071
 -85.7078
 -85.7611
 -85.7607
 -85.7614
 -85.76
 -85.7364
 -85.7344
 -85.7346
 -85.7366
 -85.6974
 -85.6978
 -85.6984
 -85.6973
 -85.6641
 -85.6648
 -85.6666
 -85.6636
 -85.7133
 -85.7107
 -85.7122
 -85.71
 -85.7192
 -85.7193
 -85.7208
 -85.719
 -85.7389
 -85.7391
 -85.7381
 -85.7368
 -85.6542
 -85.6517
 -85.6548
 -85.6537
 -85.7139
 -85.7126
 -85.7149
 -85.7142
 -85.7596
 -85.7586
 -85.7583
 -85.7585
 -85.7465
 -85.7478
 -85.7473
 -85.7467
 -85.7459
 -85.7461
 -85.7473
 -85.7455
 -85.7439
 -85.7427
 -85.7421
 -85.7429
 -85.7463
 -85.7486
 -85.7475
 -85.7472
 -85.7309
 -85.7313
 -85.7309
 -85.7311
 -85.6993
 -85.7025
 -85.7043
 -85.7045
 -85.7036
 -85.7356
 -85.7338
 -85.7345
 -85.734
 -85.7352
 -85.7357
 -85.7333
 -85.7337
 -85.683
 -85.6837
 -85.6837
 -85.683
 -85.7515
 -85.7515
 -85.7508
 -85.7516
 -85.7428
 -85.7441
 -85.746
 -85.7449
 -85.6972
 -85.6995
 -85.6992
 -85.6995
 -85.6996
 -85.6991
 -85.7024
 -85.7035
 -85.703
 -85.7044
 -85.6979
 -85.6958
 -85.6931
 -85.6946
 -85.7348
 -85.7366
 -85.7361
 -85.7348
 -85.7609
 -85.761
 -85.7607
 -85.7612
 -85.7204
 -85.7193
 -85.7204
 -85.7185
 -85.7554
 -85.7531
 -85.7521
 -85.7521
 -85.7146
 -85.7144
 -85.7134
 -85.7152
 -85.7342
 -85.7329
 -85.7319
 -85.732
 -85.6953
 -85.6949
 -85.6946
 -85.6927
 -85.7274
 -85.7291
 -85.7265
 -85.7279
 -85.7301
 -85.7324
 -85.7333
 -85.7306
 -85.6998
 -85.6991
 -85.6977
 -85.6984
 -85.7092
 -85.7081
 -85.7113
 -85.7098
 -85.7152
 -85.715
 -85.7134
 -85.7123
 -85.7272
 -85.7283
 -85.7276
 -85.7282
 -85.6816
 -85.6821
 -85.6828
 -85.6847
 -85.7312
 -85.7294
 -85.7306
 -85.7316
 -85.7093
 -85.7072
 -85.7096
 -85.711
 -85.7383
 -85.7377
 -85.7382
 -85.7369
 -85.7495
 -85.7482
 -85.7494
 -85.7486
 -85.7575
 -85.7568
 -85.7564
 -85.757
 -85.7547
 -85.7555
 -85.7533
 -85.7623
 -85.7625
 -85.7632
 -85.7634
 -85.7456
 -85.7442
 -85.7425
 -85.7443
 -85.7186
 -85.7181
 -85.7195
 -85.7192
 -85.7557
 -85.7547
 -85.7538
 -85.7555
 -85.7235
 -85.7239
 -85.7228
 -85.7224
 -85.7278
 -85.7288
 -85.7281
 -85.7557
 -85.7567
 -85.7561
 -85.7559
 -85.7527
 -85.7515
 -85.7519
 -85.7253
 -85.7244
 -85.7261
 -85.7266
 -85.7084
 -85.7097
 -85.7083
 -85.7109
 -85.7367
 -85.7355
 -85.735
 -85.7347
 -85.7563
 -85.7572
 -85.7567
 -85.7561
 -85.7008
 -85.7005
 -85.7016
 -85.6997
 -85.7182
 -85.7178
 -85.7163
 -85.7161
 -85.7205
 -85.7229
 -85.7201
 -85.7207
 -85.7383
 -85.7365
 -85.7378
 -85.7381
 -85.7016
 -85.7002
 -85.7029
 -85.7006
 -85.6946
 -85.6932
 -85.6948
 -85.6941
 -85.7207
 -85.7208
 -85.7205
 -85.7223
 -85.7601
 -85.7592
 -85.7591
 -85.7594
 -85.7051
 -85.7031
 -85.7053
 -85.7043
 -85.696
 -85.6976
 -85.6956
 -85.6975
 -85.7311
 -85.7287
 -85.7311
 -85.7309
 -85.703
 -85.7036
 -85.7025
 -85.6966
 -85.6979
 -85.6975
 -85.7283
 -85.7274
 -85.7299
 -85.7279
 -85.6973
 -85.6965
 -85.6954
 -85.6972
 -85.6981
 -85.6961
 -85.6976
 -85.6977
 -85.7314
 -85.732
 -85.7309
 -85.6974
 -85.6971
 -85.7487
 -85.749
 -85.7514
 -85.7516
 -85.7364
 -85.7389
 -85.739
 -85.738
 -85.6815
 -85.6834
 -85.68
 -85.6838
 -85.6687
 -85.669
 -85.6671
 -85.6691
 -85.7026
 -85.6993
 -85.7013
 -85.7015
 -85.7539
 -85.7537
 -85.7545
 -85.7539
 -85.7341
 -85.7329
 -85.7321
 -85.7329
 -85.6916
 -85.6914
 -85.6913
 -85.6911
 -85.7036
 -85.7039
 -85.7047
 -85.7063
 -85.7046
 -85.7048
 -85.7044
 -85.7001
 -85.7015
 -85.7016
 -85.7017
 -85.7015
 -85.7002
 -85.702
 -85.7024
 -85.6957
 -85.6941
 -85.6955
 -85.6939
 -85.7592
 -85.76
 -85.7594
 -85.7593
 -85.7553
 -85.7566
 -85.7548
 -85.7204
 -85.7192
 -85.7205
 -85.7184
 -85.7018
 -85.6994
 -85.7021
 -85.7013
 -85.7629
 -85.7637
 -85.6964
 -85.6954
 -85.6956
 -85.6947
 -85.7244
 -85.7277
 -85.7256
 -85.7268
 -85.7322
 -85.7316
 -85.6973
 -85.6971
 -85.6991
 -85.6973
 -85.7568
 -85.7576
 -85.7563
 -85.7584
 -85.7612
 -85.7604
 -85.7606
 -85.7622
 -85.7157
 -85.7166
 -85.7157
 -85.681
 -85.6826
 -85.6816
 -85.699
 -85.7013
 -85.6988
 -85.6994
 -85.7415
 -85.74
 -85.7426
 -85.74
 -85.7068
 -85.705
 -85.7051
 -85.7036
 -85.7055
 -85.7043
 -85.7062
 -85.7039
 -85.7348
 -85.7345
 -85.7355
 -85.7374
 -85.6555
 -85.6563
 -85.6548
 -85.6531
 -85.7397
 -85.7402
 -85.7416
 -85.7412
 -85.7412
 -85.7409
 -85.7422
 -85.743
 -85.6943
 -85.6944
 -85.6921
 -85.6938
 -85.7526
 -85.7532
 -85.7535
 -85.7521
 -85.6515
 -85.6489
 -85.6496
 -85.6477
 -85.7573
 -85.7547
 -85.7548
 -85.7544
 -85.7471
 -85.7459
 -85.7037
 -85.7049
 -85.7044
 -85.7059
 -85.6926
 -85.6909
 -85.6918
 -85.6932
 -85.7517
 -85.7529
 -85.7526
 -85.7522
 -85.7082
 -85.7089
 -85.7088
 -85.7076
 -85.7598
 -85.7588
 -85.7595
 -85.7024
 -85.7007
 -85.7
 -85.6903
 -85.6922
 -85.6927
 -85.7575
 -85.7581
 -85.7576
 -85.7571
 -85.7032
 -85.7022
 -85.7022
 -85.7022
 -85.7523
 -85.7525
 -85.6907
 -85.6918
 -85.6904
 -85.691
 -85.7224
 -85.7241
 -85.7243
 -85.7225
 -85.7055
 -85.7044
 -85.7121
 -85.7156
 -85.7151
 -85.713
 -85.7038
 -85.7035
 -85.7037
 -85.7018
 -85.7607
 -85.7622
 -85.7603
 -85.7609
 -85.6936
 -85.6929
 -85.6933
 -85.7472
 -85.6528
 -85.6526
 -85.6528
 -85.6517
 -85.7513
 -85.7517
 -85.7525
 -85.7498
 -85.7055
 -85.7057
 -85.7084
 -85.7078
 -85.7389
 -85.7382
 -85.7383
 -85.7386
 -85.7036
 -85.7023
 -85.7015
 -85.7032
 -85.7345
 -85.683
 -85.6826
 -85.6825
 -85.6832
 -85.7341
 -85.7342
 -85.7336
 -85.7322
 -85.7458
 -85.7467
 -85.7473
 -85.7446
 -85.7459
 -85.7442
 -85.7464
 -85.752
 -85.7534
 -85.7527
 -85.7526
 -85.6943
 -85.6949
 -85.6969
 -85.6959
 -85.75
 -85.75
 -85.7498
 -85.7512
 -85.6878
 -85.6874
 -85.6879
 -85.6859
 -85.7483
 -85.7492
 -85.7498
 -85.7499
 -85.7195
 -85.7184
 -85.7181
 -85.7175
 -85.7383
 -85.7394
 -85.74
 -85.7404
 -85.7251
 -85.7243
 -85.7236
 -85.7231
 -85.7572
 -85.7552
 -85.7248
 -85.7231
 -85.7232
 -85.7246
 -85.6825
 -85.6819
 -85.6841
 -85.6818
 -85.6868
 -85.686
 -85.6891
 -85.6865
 -85.7251
 -85.7267
 -85.7269
 -85.7271
 -85.741
 -85.741
 -85.7405
 -85.7427
 -85.7434
 -85.7421
 -85.7428
 -85.744
 -85.7555
 -85.7538
 -85.7543
 -85.7533
 -85.7439
 -85.7458
 -85.7448
 -85.7438
 -85.6869
 -85.687
 -85.6882
 -85.6858
 -85.6963
 -85.6964
 -85.6959
 -85.6988
 -85.7633
 -85.7626
 -85.7623
 -85.7624
 -85.7282
 -85.729
 -85.7286
 -85.7312
 -85.6987
 -85.701
 -85.6987
 -85.7006
 -85.6603
 -85.6598
 -85.6626
 -85.6593
 -85.7515
 -85.7523
 -85.7507
 -85.7537
 -85.701
 -85.7011
 -85.7016
 -85.7028
 -85.7129
 -85.7147
 -85.7118
 -85.7132
 -85.6873
 -85.6866
 -85.687
 -85.6882
 -85.7334
 -85.7326
 -85.7334
 -85.7335
 -85.7555
 -85.7556
 -85.7551
 -85.7555
 -85.7299
 -85.7276
 -85.7283
 -85.7278
 -85.7157
 -85.7159
 -85.718
 -85.717
 -85.6839
 -85.6849
 -85.6858
 -85.6827
 -85.7551
 -85.7363
 -85.7375
 -85.7356
 -85.7373
 -85.7125
 -85.7116
 -85.71
 -85.7106
 -85.7404
 -85.7415
 -85.7412
 -85.7425
 -85.6988
 -85.6977
 -85.698
 -85.6998
 -85.7332
 -85.7342
 -85.7321
 -85.6818
 -85.6843
 -85.6823
 -85.6819
 -85.7475
 -85.7447
 -85.7466
 -85.7456
 -85.6941
 -85.6938
 -85.6949
 -85.6942
 -85.7662
 -85.7658
 -85.7661
 -85.7668
 -85.7015
 -85.7017
 -85.702
 -85.7017
 -85.6668
 -85.6714
 -85.671
 -85.6695
 -85.6802
 -85.68
 -85.6819
 -85.6814
 -85.7633
 -85.7626
 -85.7621
 -85.7618
 -85.7581
 -85.7579
 -85.7587
 -85.7589
 -85.7204
 -85.7221
 -85.7215
 -85.7221
 -85.703
 -85.7025
 -85.7038
 -85.7253
 -85.7253
 -85.7228
 -85.7238
 -85.7361
 -85.7352
 -85.7373
 -85.7373
 -85.7246
 -85.728
 -85.7269
 -85.7266
 -85.7221
 -85.7228
 -85.7254
 -85.724
 -85.762
 -85.7609
 -85.761
 -85.7606
 -85.6972
 -85.6967
 -85.6988
 -85.6972
 -85.6805
 -85.677
 -85.6774
 -85.7405
 -85.7392
 -85.7399
 -85.7393
 -85.7511
 -85.7525
 -85.7514
 -85.7511
 -85.6999
 -85.6993
 -85.7003
 -85.6977
 -85.698
 -85.6988
 -85.6965
 -85.7534
 -85.7525
 -85.7539
 -85.7517
 -85.7178
 -85.7176
 -85.7191
 -85.7177
 -85.6982
 -85.6962
 -85.6978
 -85.6979
 -85.7125
 -85.7115
 -85.7116
 -85.7129
 -85.7478
 -85.7476
 -85.7463
 -85.7476
 -85.699
 -85.7015
 -85.6977
 -85.701
 -85.7143
 -85.7115
 -85.7124
 -85.7133
 -85.7056
 -85.7073
 -85.7059
 -85.7582
 -85.7579
 -85.757
 -85.7573
 -85.7183
 -85.7186
 -85.7172
 -85.7192
 -85.7634
 -85.763
 -85.7648
 -85.7241
 -85.725
 -85.7247
 -85.724
 -85.6839
 -85.6855
 -85.6829
 -85.6837
 -85.73
 -85.7305
 -85.7317
 -85.7332
 -85.7213
 -85.7236
 -85.7206
 -85.7007
 -85.7013
 -85.7029
 -85.7016
 -85.6933
 -85.6937
 -85.6928
 -85.6941
 -85.7005
 -85.7013
 -85.7026
 -85.7001
 -85.6653
 -85.6655
 -85.668
 -85.6683
 -85.7093
 -85.7087
 -85.7079
 -85.7078
 -85.7058
 -85.7051
 -85.7077
 -85.7047
 -85.754
 -85.7522
 -85.7525
 -85.7548
 -85.6909
 -85.6933
 -85.6925
 -85.692
 -85.7349
 -85.734
 -85.7353
 -85.7358
 -85.7592
 -85.7594
 -85.7586
 -85.758
 -85.7597
 -85.758
 -85.7589
 -85.7595
 -85.7461
 -85.7473
 -85.7461
 -85.7469
 -85.7606
 -85.762
 -85.7619
 -85.7596
 -85.7549
 -85.7552
 -85.755
 -85.7635
 -85.7615
 -85.7622
 -85.7621
 -85.6874
 -85.6864
 -85.6872
 -85.6858
 -85.7121
 -85.7104
 -85.7095
 -85.7106
 -85.7061
 -85.7083
 -85.7068
 -85.7085
 -85.7093
 -85.7084
 -85.7081
 -85.7077
 -85.7567
 -85.7555
 -85.7564
 -85.7568
 -85.7121
 -85.7122
 -85.7106
 -85.7098
 -85.7008
 -85.6987
 -85.6987
 -85.7001
 -85.7372
 -85.7367
 -85.7385
 -85.7362
 -85.7022
 -85.7042
 -85.7022
 -85.7034
 -85.7414
 -85.7401
 -85.7398
 -85.7249
 -85.7268
 -85.7268
 -85.7526
 -85.7511
 -85.7516
 -85.7518
 -85.7126
 -85.7133
 -85.712
 -85.712
 -85.7335
 -85.732
 -85.7324
 -85.7338
 -85.7084
 -85.7061
 -85.7073
 -85.7088
 -85.7637
 -85.7631
 -85.7595
 -85.7589
 -85.7584
 -85.7599
 -85.6849
 -85.6844
 -85.6845
 -85.6835
 -85.7342
 -85.7357
 -85.7359
 -85.737
 -85.7004
 -85.7027
 -85.701
 -85.6996
 -85.6446
 -85.6409
 -85.6442
 -85.643
 -85.7022
 -85.7016
 -85.7005
 -85.7015
 -85.7405
 -85.7389
 -85.7403
 -85.6912
 -85.6909
 -85.6931
 -85.693
 -85.7585
 -85.7572
 -85.7589
 -85.7577
 -85.7027
 -85.7035
 -85.7028
 -85.7036
 -85.7332
 -85.7348
 -85.7339
 -85.7334
 -85.6848
 -85.6857
 -85.6836
 -85.685
 -85.6591
 -85.6588
 -85.6601
 -85.6607
 -85.699
 -85.7004
 -85.6989
 -85.6985
 -85.7103
 -85.7096
 -85.7109
 -85.7268
 -85.7241
 -85.7271
 -85.726
 -85.6948
 -85.6947
 -85.6926
 -85.7415
 -85.741
 -85.7419
 -85.743
 -85.7464
 -85.7488
 -85.7465
 -85.7485
 -85.7389
 -85.7374
 -85.7388
 -85.7389
 -85.7574
 -85.7545
 -85.7556
 -85.756
 -85.7449
 -85.7435
 -85.7443
 -85.705
 -85.7062
 -85.706
 -85.7069
 -85.7428
 -85.7414
 -85.7364
 -85.7346
 -85.734
 -85.7357
 -85.7403
 -85.7396
 -85.7398
 -85.7409
 -85.6997
 -85.7007
 -85.7002
 -85.6984
 -85.7011
 -85.7024
 -85.701
 -85.7024
 -85.6453
 -85.6468
 -85.6472
 -85.6461
 -85.7009
 -85.7021
 -85.7008
 -85.7054
 -85.7046
 -85.7043
 -85.7049
 -85.7207
 -85.7206
 -85.7196
 -85.7192
 -85.7056
 -85.7076
 -85.7077
 -85.7064
 -85.6851
 -85.6863
 -85.6849
 -85.6847
 -85.7467
 -85.7448
 -85.7465
 -85.745
 -85.7197
 -85.721
 -85.7195
 -85.7184
 -85.7569
 -85.7569
 -85.7564
 -85.7572
 -85.7286
 -85.7269
 -85.7285
 -85.7275
 -85.7557
 -85.7563
 -85.7559
 -85.6628
 -85.6649
 -85.664
 -85.6644
 -85.7393
 -85.7417
 -85.7396
 -85.7399
 -85.7151
 -85.7134
 -85.7153
 -85.7145
 -85.6966
 -85.6954
 -85.7077
 -85.708
 -85.709
 -85.7085
 -85.7141
 -85.7121
 -85.7127
 -85.7533
 -85.7538
 -85.7527
 -85.7536
 -85.7539
 -85.7531
 -85.7519
 -85.7526
 -85.6969
 -85.6962
 -85.6972
 -85.6965
 -85.7182
 -85.7174
 -85.7025
 -85.7044
 -85.7032
 -85.7016
 -85.7433
 -85.7423
 -85.7446
 -85.7446
 -85.6833
 -85.6832
 -85.683
 -85.6838
 -85.699
 -85.6997
 -85.6982
 -85.6981
 -85.7023
 -85.704
 -85.7049
 -85.704
 -85.7238
 -85.7234
 -85.7237
 -85.7261
 -85.7419
 -85.7415
 -85.7406
 -85.7406
 -85.7447
 -85.7432
 -85.7421
 -85.7437
 -85.6535
 -85.6531
 -85.6525
 -85.6517
 -85.6918
 -85.6935
 -85.6941
 -85.7271
 -85.7241
 -85.7258
 -85.7292
 -85.731
 -85.7291
 -85.731
 -85.7559
 -85.7567
 -85.7561
 -85.7572
 -85.7179
 -85.7014
 -85.7013
 -85.6992
 -85.6999
 -85.7345
 -85.7334
 -85.7319
 -85.7328
 -85.746
 -85.7443
 -85.7446
 -85.7463
 -85.7514
 -85.7517
 -85.697
 -85.6964
 -85.6955
 -85.6953
 -85.7215
 -85.7229
 -85.7223
 -85.7233
 -85.6923
 -85.6918
 -85.6922
 -85.6928
 -85.7298
 -85.71
 -85.7087
 -85.7117
 -85.7125
 -85.7065
 -85.7077
 -85.7083
 -85.7073
 -85.7565
 -85.7547
 -85.7588
 -85.7596
 -85.7598
 -85.7592
 -85.6725
 -85.6713
 -85.6719
 -85.6727
 -85.7442
 -85.7446
 -85.7426
 -85.7453
 -85.7299
 -85.7276
 -85.7283
 -85.7301
 -85.6574
 -85.6581
 -85.6581
 -85.6567
 -85.7207
 -85.7208
 -85.7217
 -85.7198
 -85.7194
 -85.7173
 -85.7163
 -85.7166
 -85.6953
 -85.6932
 -85.6956
 -85.6948
 -85.7627
 -85.7636
 -85.7637
 -85.7638
 -85.7172
 -85.7153
 -85.7156
 -85.7039
 -85.7059
 -85.7058
 -85.7041
 -85.76
 -85.7619
 -85.7607
 -85.7609
 -85.704
 -85.7029
 -85.7013
 -85.7048
 -85.7145
 -85.7158
 -85.7483
 -85.7486
 -85.7497
 -85.7471
 -85.7268
 -85.7269
 -85.729
 -85.7286
 -85.7581
 -85.7572
 -85.7584
 -85.7579
 -85.7165
 -85.7192
 -85.6999
 -85.7006
 -85.701
 -85.7009
 -85.7042
 -85.7043
 -85.7054
 -85.7061
 -85.7502
 -85.7502
 -85.7484
 -85.749
 -85.7459
 -85.7453
 -85.7464
 -85.7465
 -85.7433
 -85.7411
 -85.7432
 -85.7423
 -85.7058
 -85.708
 -85.7071
 -85.7058
 -85.6728
 -85.6715
 -85.6724
 -85.6728
 -85.7602
 -85.7613
 -85.7602
 -85.7607
 -85.6945
 -85.6948
 -85.6951
 -85.6962
 -85.7253
 -85.7264
 -85.7272
 -85.7253
 -85.7083
 -85.7114
 -85.7093
 -85.7104
 -85.7249
 -85.7228
 -85.7245
 -85.7331
 -85.7351
 -85.7331
 -85.7352
 -85.7207
 -85.7222
 -85.7211
 -85.7199
 -85.7396
 -85.7401
 -85.7415
 -85.7391
 -85.7393
 -85.739
 -85.7396
 -85.7371
 -85.6569
 -85.6603
 -85.6572
 -85.6851
 -85.6873
 -85.688
 -85.6872
 -85.7247
 -85.7233
 -85.7239
 -85.7238
 -85.749
 -85.7503
 -85.7494
 -85.7507
 -85.7003
 -85.6981
 -85.7002
 -85.7031
 -85.7041
 -85.7041
 -85.7309
 -85.7302
 -85.7315
 -85.7315
 -85.7241
 -85.7255
 -85.7263
 -85.7265
 -85.7673
 -85.7671
 -85.7666
 -85.7674
 -85.6801
 -85.6808
 -85.6794
 -85.6768
 -85.7422
 -85.7431
 -85.711
 -85.7132
 -85.7131
 -85.7114
 -85.7382
 -85.7391
 -85.739
 -85.7395
 -85.7284
 -85.7289
 -85.7301
 -85.7291
 -85.7137
 -85.7135
 -85.7152
 -85.7122
 -85.7363
 -85.7379
 -85.7372
 -85.7376
 -85.6971
 -85.6976
 -85.6977
 -85.6989
 -85.6905
 -85.6892
 -85.6908
 -85.69
 -85.747
 -85.7476
 -85.7492
 -85.751
 -85.7242
 -85.7253
 -85.7266
 -85.6682
 -85.6676
 -85.6689
 -85.751
 -85.7521
 -85.7523
 -85.7527
 -85.7536
 -85.7531
 -85.7524
 -85.7521
 -85.7208
 -85.7213
 -85.722
 -85.7227
 -85.7561
 -85.757
 -85.7569
 -85.7568
 -85.7578
 -85.7592
 -85.758
 -85.7596
 -85.7136
 -85.7145
 -85.7159
 -85.7141
 -85.7447
 -85.7455
 -85.7462
 -85.7461
 -85.7666
 -85.7667
 -85.7661
 -85.7671
 -85.7444
 -85.7443
 -85.7434
 -85.7455
 -85.7258
 -85.7237
 -85.7245
 -85.7227
 -85.7498
 -85.7502
 -85.7491
 -85.7487
 -85.7393
 -85.7388
 -85.7401
 -85.7314
 -85.7329
 -85.6746
 -85.6753
 -85.6741
 -85.6735
 -85.7304
 -85.7322
 -85.7316
 -85.7315
 -85.6759
 -85.6764
 -85.6768
 -85.6769
 -85.6759
 -85.6753
 -85.6779
 -85.678
 -85.7272
 -85.7282
 -85.7282
 -85.7268
 -85.7107
 -85.7108
 -85.7092
 -85.7113
 -85.7335
 -85.7355
 -85.7349
 -85.7347
 -85.7228
 -85.7215
 -85.688
 -85.6871
 -85.6876
 -85.6889
 -85.7601
 -85.7607
 -85.7612
 -85.7606
 -85.7115
 -85.7103
 -85.7133
 -85.7119
 -85.7496
 -85.7489
 -85.7479
 -85.749
 -85.6883
 -85.6866
 -85.6881
 -85.6873
 -85.7541
 -85.7558
 -85.7555
 -85.7556
 -85.7307
 -85.7286
 -85.7304
 -85.7303
 -85.7014
 -85.6992
 -85.6978
 -85.6989
 -85.7662
 -85.7659
 -85.7659
 -85.7654
 -85.7067
 -85.7085
 -85.707
 -85.7068
 -85.7134
 -85.7109
 -85.7128
 -85.7112
 -85.7612
 -85.7614
 -85.7604
 -85.7618
 -85.7207
 -85.7181
 -85.7191
 -85.719
 -85.7507
 -85.7517
 -85.7509
 -85.7505
 -85.749
 -85.7479
 -85.7483
 -85.715
 -85.7122
 -85.7131
 -85.7132
 -85.7492
 -85.7504
 -85.7495
 -85.75
 -85.6957
 -85.6974
 -85.6972
 -85.6957
 -85.7533
 -85.7542
 -85.7541
 -85.7536
 -85.7525
 -85.752
 -85.7528
 -85.7522
 -85.6981
 -85.6975
 -85.7006
 -85.699
 -85.7001
 -85.6998
 -85.7014
 -85.699
 -85.6364
 -85.6369
 -85.6354
 -85.6359
 -85.7431
 -85.7413
 -85.7414
 -85.6764
 -85.6789
 -85.6794
 -85.6778
 -85.7587
 -85.7575
 -85.7579
 -85.758
 -85.6968
 -85.7504
 -85.7487
 -85.7489
 -85.75
 -85.7505
 -85.7489
 -85.7493
 -85.6524
 -85.6504
 -85.6513
 -85.6521
 -85.6483
 -85.649
 -85.6483
 -85.6476
 -85.7574
 -85.7561
 -85.7571
 -85.7581
 -85.7
 -85.6993
 -85.7008
 -85.6989
 -85.7386
 -85.738
 -85.7397
 -85.7081
 -85.7065
 -85.708
 -85.7058
 -85.7152
 -85.7153
 -85.715
 -85.7497
 -85.7493
 -85.7513
 -85.7301
 -85.7317
 -85.7317
 -85.7303
 -85.7089
 -85.7069
 -85.707
 -85.7085
 -85.6988
 -85.6996
 -85.6986
 -85.6994
 -85.7388
 -85.7399
 -85.7401
 -85.686
 -85.6873
 -85.6842
 -85.6839
 -85.6988
 -85.7019
 -85.6994
 -85.7131
 -85.7163
 -85.7153
 -85.7144
 -85.6944
 -85.6962
 -85.6963
 -85.6956
 -85.6991
 -85.7011
 -85.7016
 -85.7009
 -85.7508
 -85.7496
 -85.7498
 -85.7496
 -85.7175
 -85.7159
 -85.7168
 -85.718
 -85.7042
 -85.7043
 -85.7254
 -85.7243
 -85.725
 -85.7232
 -85.7551
 -85.7591
 -85.7596
 -85.7594
 -85.7592
 -85.6336
 -85.6333
 -85.6331
 -85.6337
 -85.7468
 -85.7486
 -85.7474
 -85.7635
 -85.7632
 -85.7627
 -85.7633
 -85.7436
 -85.7415
 -85.7423
 -85.7417
 -85.698
 -85.6986
 -85.6995
 -85.6981
 -85.7159
 -85.7145
 -85.7142
 -85.7137
 -85.7643
 -85.7643
 -85.764
 -85.7638
 -85.743
 -85.7417
 -85.7408
 -85.7421
 -85.6849
 -85.6833
 -85.6831
 -85.6861
 -85.7133
 -85.7133
 -85.7138
 -85.7108
 -85.7114
 -85.7123
 -85.7132
 -85.7116
 -85.6336
 -85.6334
 -85.6333
 -85.6338
 -85.6955
 -85.6952
 -85.6949
 -85.6962
 -85.7435
 -85.7456
 -85.7438
 -85.7446
 -85.7312
 -85.7311
 -85.7329
 -85.7306
 -85.7181
 -85.7191
 -85.7208
 -85.7191
 -85.7405
 -85.7423
 -85.7416
 -85.7417
 -85.7315
 -85.7318
 -85.7333
 -85.7315
 -85.7411
 -85.7408
 -85.7399
 -85.7427
 -85.7663
 -85.7649
 -85.7652
 -85.7665
 -85.7463
 -85.7453
 -85.745
 -85.7427
 -85.7393
 -85.738
 -85.7373
 -85.7391
 -85.7375
 -85.7253
 -85.7252
 -85.724
 -85.7271
 -85.7595
 -85.7591
 -85.7588
 -85.7588
 -85.7177
 -85.7163
 -85.718
 -85.7174
 -85.7303
 -85.731
 -85.7319
 -85.7291
 -85.7224
 -85.7204
 -85.7218
 -85.7235
 -85.7085
 -85.7057
 -85.7079
 -85.7062
 -85.6634
 -85.6643
 -85.6671
 -85.6636
 -85.7672
 -85.7659
 -85.7362
 -85.7351
 -85.7351
 -85.6408
 -85.6409
 -85.641
 -85.7021
 -85.7007
 -85.7015
 -85.7
 -85.6751
 -85.6757
 -85.6725
 -85.6721
 -85.692
 -85.691
 -85.6925
 -85.6896
 -85.7592
 -85.7572
 -85.7583
 -85.7582
 -85.7262
 -85.7243
 -85.7248
 -85.724
 -85.738
 -85.7401
 -85.7397
 -85.7413
 -85.7313
 -85.7314
 -85.7297
 -85.7289
 -85.7418
 -85.7423
 -85.7411
 -85.7414
 -85.7196
 -85.7195
 -85.75
 -85.7465
 -85.75
 -85.7471
 -85.7419
 -85.7408
 -85.7399
 -85.7427
 -85.7014
 -85.6994
 -85.7017
 -85.6998
 -85.7022
 -85.7028
 -85.7027
 -85.7029
 -85.7294
 -85.7295
 -85.7289
 -85.7302
 -85.7263
 -85.7271
 -85.7284
 -85.7295
 -85.6925
 -85.6899
 -85.6896
 -85.6926
 -85.74
 -85.739
 -85.7385
 -85.7381
 -85.765
 -85.7644
 -85.7648
 -85.7646
 -85.752
 -85.7512
 -85.7514
 -85.7508
 -85.7664
 -85.7669
 -85.7661
 -85.767
 -85.7541
 -85.7554
 -85.755
 -85.7552
 -85.7245
 -85.7268
 -85.7246
 -85.7251
 -85.7394
 -85.738
 -85.7207
 -85.7229
 -85.7202
 -85.7216
 -85.7018
 -85.7031
 -85.7032
 -85.7038
 -85.7459
 -85.7475
 -85.7476
 -85.7461
 -85.7199
 -85.7192
 -85.72
 -85.718
 -85.7138
 -85.7123
 -85.7119
 -85.7127
 -85.6982
 -85.6985
 -85.6994
 -85.7004
 -85.7044
 -85.7038
 -85.7032
 -85.706
 -85.6983
 -85.6993
 -85.7
 -85.6989
 -85.6668
 -85.6674
 -85.6661
 -85.6663
 -85.7441
 -85.7447
 -85.7428
 -85.7443
 -85.737
 -85.7376
 -85.6699
 -85.6714
 -85.6711
 -85.6686
 -85.7076
 -85.708
 -85.7352
 -85.734
 -85.7353
 -85.752
 -85.752
 -85.6953
 -85.6952
 -85.6945
 -85.6962
 -85.6696
 -85.671
 -85.671
 -85.6714
 -85.691
 -85.6917
 -85.693
 -85.6935
 -85.707
 -85.7081
 -85.7087
 -85.7092
 -85.732
 -85.7299
 -85.7298
 -85.7301
 -85.7372
 -85.7365
 -85.7363
 -85.7359
 -85.7064
 -85.7084
 -85.7084
 -85.7079
 -85.7305
 -85.7303
 -85.731
 -85.7284
 -85.7233
 -85.722
 -85.7217
 -85.7226
 -85.7264
 -85.7278
 -85.7288
 -85.7279
 -85.7276
 -85.7254
 -85.7279
 -85.7204
 -85.7192
 -85.722
 -85.7208
 -85.7101
 -85.7109
 -85.7089
 -85.7096
 -85.6999
 -85.7014
 -85.699
 -85.7011
 -85.7589
 -85.7586
 -85.7593
 -85.76
 -85.7171
 -85.717
 -85.7188
 -85.7189
 -85.69
 -85.6898
 -85.6877
 -85.6894
 -85.685
 -85.6849
 -85.6846
 -85.6839
 -85.6931
 -85.6922
 -85.6922
 -85.6927
 -85.6979
 -85.6979
 -85.6999
 -85.7003
 -85.6997
 -85.6986
 -85.6981
 -85.6989
 -85.7574
 -85.7581
 -85.758
 -85.7582
 -85.7145
 -85.7145
 -85.714
 -85.7159
 -85.743
 -85.7437
 -85.7426
 -85.742
 -85.6998
 -85.7018
 -85.699
 -85.701
 -85.7601
 -85.7608
 -85.7606
 -85.7617
 -85.762
 -85.7619
 -85.7627
 -85.7407
 -85.7373
 -85.7385
 -85.7387
 -85.7037
 -85.7045
 -85.7026
 -85.7039
 -85.7646
 -85.7634
 -85.7637
 -85.7126
 -85.7109
 -85.712
 -85.7094
 -85.754
 -85.7542
 -85.7517
 -85.7522
 -85.7535
 -85.7518
 -85.7094
 -85.7081
 -85.7087
 -85.6857
 -85.6864
 -85.6841
 -85.685
 -85.6989
 -85.6976
 -85.6995
 -85.6997
 -85.7233
 -85.7253
 -85.7229
 -85.7604
 -85.7582
 -85.7585
 -85.7414
 -85.7398
 -85.739
 -85.74
 -85.7608
 -85.7609
 -85.7591
 -85.7621
 -85.715
 -85.717
 -85.7179
 -85.7164
 -85.7536
 -85.754
 -85.7548
 -85.7525
 -85.7242
 -85.7246
 -85.7232
 -85.7226
 -85.7049
 -85.7033
 -85.7042
 -85.7637
 -85.7626
 -85.7631
 -85.7646
 -85.7374
 -85.731
 -85.733
 -85.7326
 -85.7315
 -85.7329
 -85.7329
 -85.7316
 -85.7035
 -85.7026
 -85.7024
 -85.7023
 -85.7023
 -85.7044
 -85.7165
 -85.7144
 -85.7141
 -85.7136
 -85.7139
 -85.7161
 -85.7143
 -85.7156
 -85.7402
 -85.765
 -85.7635
 -85.7631
 -85.7642
 -85.6569
 -85.6545
 -85.6564
 -85.6563
 -85.7086
 -85.7072
 -85.7039
 -85.7032
 -85.704
 -85.7044
 -85.7023
 -85.7024
 -85.7002
 -85.7011
 -85.7427
 -85.7408
 -85.7413
 -85.7422
 -85.7444
 -85.7454
 -85.7433
 -85.7446
 -85.7047
 -85.7031
 -85.7384
 -85.7383
 -85.7406
 -85.7392
 -85.7402
 -85.7418
 -85.7402
 -85.7285
 -85.7274
 -85.7264
 -85.7257
 -85.7174
 -85.7157
 -85.717
 -85.7157
 -85.7432
 -85.7453
 -85.745
 -85.7437
 -85.7486
 -85.7492
 -85.7502
 -85.7489
 -85.7454
 -85.7471
 -85.7457
 -85.7443
 -85.7449
 -85.7446
 -85.7431
 -85.7162
 -85.7168
 -85.7168
 -85.7155
 -85.6796
 -85.6795
 -85.6807
 -85.6808
 -85.711
 -85.7106
 -85.7098
 -85.7102
 -85.7482
 -85.7468
 -85.7459
 -85.7474
 -85.7378
 -85.7374
 -85.7371
 -85.739
 -85.7106
 -85.7118
 -85.7123
 -85.7126
 -85.7381
 -85.7362
 -85.7373
 -85.7379
 -85.7275
 -85.7282
 -85.7252
 -85.728
 -85.7285
 -85.7303
 -85.7297
 -85.73
 -85.7376
 -85.7384
 -85.7385
 -85.759
 -85.7592
 -85.7586
 -85.7588
 -85.7102
 -85.712
 -85.7111
 -85.7116
 -85.7216
 -85.7236
 -85.7232
 -85.7227
 -85.6796
 -85.6782
 -85.6784
 -85.6804
 -85.6978
 -85.6991
 -85.699
 -85.6979
 -85.7006
 -85.6974
 -85.6988
 -85.6971
 -85.6976
 -85.6984
 -85.6982
 -85.6989
 -85.7268
 -85.7256
 -85.7262
 -85.6914
 -85.6911
 -85.6919
 -85.6921
 -85.6943
 -85.695
 -85.6966
 -85.6942
 -85.7635
 -85.7626
 -85.7624
 -85.763
 -85.7282
 -85.727
 -85.7267
 -85.7259
 -85.7497
 -85.7499
 -85.7492
 -85.7482
 -85.7315
 -85.7324
 -85.7311
 -85.7299
 -85.7371
 -85.7385
 -85.7373
 -85.7376
 -85.7026
 -85.701
 -85.7019
 -85.6996
 -85.7215
 -85.725
 -85.7225
 -85.7227
 -85.7492
 -85.75
 -85.7486
 -85.7491
 -85.7331
 -85.7326
 -85.7347
 -85.734
 -85.6951
 -85.6944
 -85.6968
 -85.6972
 -85.7587
 -85.7592
 -85.7589
 -85.7593
 -85.7112
 -85.7095
 -85.6939
 -85.7221
 -85.723
 -85.724
 -85.7216
 -85.7171
 -85.7185
 -85.7165
 -85.7164
 -85.6727
 -85.6723
 -85.6747
 -85.7084
 -85.7069
 -85.7063
 -85.7054
 -85.7318
 -85.7347
 -85.7336
 -85.735
 -85.7236
 -85.7252
 -85.7243
 -85.7237
 -85.7559
 -85.7565
 -85.7566
 -85.7562
 -85.6992
 -85.7018
 -85.6999
 -85.7015
 -85.7014
 -85.701
 -85.7034
 -85.6747
 -85.6719
 -85.6732
 -85.6748
 -85.6982
 -85.7003
 -85.699
 -85.7304
 -85.734
 -85.7309
 -85.6977
 -85.6976
 -85.6962
 -85.6969
 -85.7171
 -85.719
 -85.7195
 -85.7191
 -85.6339
 -85.6339
 -85.6338
 -85.6349
 -85.7155
 -85.7147
 -85.7151
 -85.6897
 -85.6895
 -85.6898
 -85.6899
 -85.7151
 -85.7142
 -85.7123
 -85.714
 -85.6965
 -85.698
 -85.6979
 -85.6987
 -85.7388
 -85.7395
 -85.7384
 -85.7399
 -85.7435
 -85.7423
 -85.7435
 -85.7441
 -85.7619
 -85.762
 -85.7624
 -85.7614
 -85.729
 -85.7268
 -85.7288
 -85.7294
 -85.6956
 -85.6941
 -85.6954
 -85.6945
 -85.7036
 -85.7027
 -85.6831
 -85.683
 -85.684
 -85.6838
 -85.7193
 -85.7201
 -85.7084
 -85.7112
 -85.7106
 -85.7016
 -85.7025
 -85.7034
 -85.7022
 -85.7583
 -85.7586
 -85.7568
 -85.7571
 -85.757
 -85.7566
 -85.756
 -85.7567
 -85.7026
 -85.7034
 -85.7023
 -85.7005
 -85.6914
 -85.6918
 -85.732
 -85.7323
 -85.7318
 -85.7336
 -85.701
 -85.7001
 -85.7018
 -85.7015
 -85.7111
 -85.7087
 -85.7128
 -85.7666
 -85.767
 -85.7662
 -85.7236
 -85.7259
 -85.7248
 -85.725
 -85.7528
 -85.7544
 -85.7524
 -85.7518
 -85.7264
 -85.728
 -85.7284
 -85.7263
 -85.7428
 -85.7442
 -85.7444
 -85.742
 -85.6952
 -85.6965
 -85.6954
 -85.6948
 -85.6993
 -85.7017
 -85.6985
 -85.701
 -85.7273
 -85.7255
 -85.7286
 -85.7264
 -85.7092
 -85.7115
 -85.7121
 -85.709
 -85.694
 -85.6945
 -85.6954
 -85.697
 -85.7174
 -85.7184
 -85.7195
 -85.7205
 -85.7359
 -85.7362
 -85.7351
 -85.7261
 -85.7277
 -85.7267
 -85.7277
 -85.6439
 -85.6463
 -85.6471
 -85.6457
 -85.6918
 -85.6917
 -85.692
 -85.6919
 -85.7083
 -85.7079
 -85.7082
 -85.71
 -85.6685
 -85.6701
 -85.6672
 -85.6691
 -85.7525
 -85.7522
 -85.7511
 -85.7629
 -85.7622
 -85.7615
 -85.7621
 -85.7453
 -85.7481
 -85.7468
 -85.7469
 -85.7255
 -85.7357
 -85.7376
 -85.7384
 -85.737
 -85.7217
 -85.7231
 -85.7207
 -85.7208
 -85.69
 -85.6878
 -85.6891
 -85.701
 -85.7017
 -85.7022
 -85.6994
 -85.6455
 -85.6432
 -85.6453
 -85.6422
 -85.6731
 -85.673
 -85.6741
 -85.6729
 -85.7069
 -85.7068
 -85.7081
 -85.7093
 -85.7642
 -85.7628
 -85.7633
 -85.7629
 -85.6509
 -85.6507
 -85.653
 -85.6519
 -85.7409
 -85.7421
 -85.7398
 -85.7412
 -85.7262
 -85.7264
 -85.7281
 -85.7265
 -85.7028
 -85.6995
 -85.6994
 -85.7191
 -85.717
 -85.7165
 -85.7165
 -85.763
 -85.7633
 -85.7636
 -85.6916
 -85.6948
 -85.6953
 -85.7164
 -85.7176
 -85.7195
 -85.7192
 -85.7075
 -85.707
 -85.7066
 -85.706
 -85.7097
 -85.7094
 -85.7114
 -85.7119
 -85.6893
 -85.6881
 -85.6882
 -85.6903
 -85.7192
 -85.7205
 -85.7185
 -85.7208
 -85.7587
 -85.7566
 -85.7567
 -85.7557
 -85.7556
 -85.7552
 -85.7547
 -85.7562
 -85.6861
 -85.6862
 -85.6867
 -85.6858
 -85.7512
 -85.7516
 -85.7514
 -85.7499
 -85.7573
 -85.7588
 -85.7583
 -85.7567
 -85.7505
 -85.7505
 -85.7487
 -85.749
 -85.736
 -85.7355
 -85.7369
 -85.7362
 -85.723
 -85.7216
 -85.7238
 -85.707
 -85.7042
 -85.7052
 -85.7056
 -85.7441
 -85.743
 -85.7417
 -85.7436
 -85.7462
 -85.7466
 -85.7476
 -85.7471
 -85.7674
 -85.7673
 -85.7662
 -85.7668
 -85.6734
 -85.6747
 -85.6743
 -85.6746
 -85.6838
 -85.683
 -85.6833
 -85.6842
 -85.6896
 -85.6894
 -85.692
 -85.6893
 -85.7082
 -85.7057
 -85.7075
 -85.7074
 -85.7117
 -85.7119
 -85.7118
 -85.7582
 -85.7591
 -85.7604
 -85.7597
 -85.748
 -85.7475
 -85.7467
 -85.7464
 -85.7208
 -85.7195
 -85.719
 -85.7202
 -85.7563
 -85.7573
 -85.7316
 -85.7318
 -85.7317
 -85.73
 -85.7557
 -85.7563
 -85.7576
 -85.7564
 -85.7283
 -85.7305
 -85.7278
 -85.7309
 -85.7064
 -85.708
 -85.7049
 -85.7063
 -85.6821
 -85.6804
 -85.6819
 -85.6836
 -85.643
 -85.645
 -85.6419
 -85.644
 -85.7533
 -85.7525
 -85.7524
 -85.7536
 -85.756
 -85.7561
 -85.7563
 -85.7572
 -85.7149
 -85.7125
 -85.7142
 -85.713
 -85.7252
 -85.7243
 -85.724
 -85.7254
 -85.6996
 -85.6979
 -85.7008
 -85.7328
 -85.7315
 -85.7317
 -85.7307
 -85.7001
 -85.6997
 -85.7008
 -85.701
 -85.7222
 -85.7202
 -85.7189
 -85.72
 -85.7371
 -85.7361
 -85.7368
 -85.7372
 -85.7265
 -85.726
 -85.7253
 -85.7512
 -85.7496
 -85.7503
 -85.7502
 -85.7342
 -85.7364
 -85.6659
 -85.6687
 -85.6651
 -85.6667
 -85.7444
 -85.7434
 -85.7442
 -85.7027
 -85.7032
 -85.7034
 -85.7026
 -85.7342
 -85.7343
 -85.7335
 -85.7218
 -85.7199
 -85.7221
 -85.7207
 -85.7331
 -85.7308
 -85.734
 -85.7324
 -85.7342
 -85.7363
 -85.655
 -85.655
 -85.6536
 -85.6547
 -85.6456
 -85.6435
 -85.6423
 -85.6444
 -85.7237
 -85.7215
 -85.7223
 -85.7213
 -85.7325
 -85.7313
 -85.7324
 -85.731
 -85.6555
 -85.6554
 -85.6556
 -85.6573
 -85.7022
 -85.7002
 -85.6875
 -85.688
 -85.6885
 -85.6901
 -85.7349
 -85.7345
 -85.7368
 -85.7356
 -85.7313
 -85.7315
 -85.7332
 -85.7305
 -85.7333
 -85.7314
 -85.7311
 -85.7313
 -85.7079
 -85.7083
 -85.7095
 -85.7078
 -85.6952
 -85.6942
 -85.6926
 -85.6954
 -85.6758
 -85.678
 -85.6778
 -85.6757
 -85.6966
 -85.6966
 -85.6967
 -85.6995
 -85.7443
 -85.7431
 -85.7448
 -85.7441
 -85.7237
 -85.7194
 -85.7217
 -85.6709
 -85.6723
 -85.6738
 -85.7385
 -85.741
 -85.7398
 -85.7398
 -85.7399
 -85.7373
 -85.7385
 -85.7393
 -85.7152
 -85.7139
 -85.7132
 -85.7183
 -85.719
 -85.7208
 -85.719
 -85.696
 -85.695
 -85.6947
 -85.6948
 -85.7503
 -85.7498
 -85.751
 -85.7506
 -85.693
 -85.6926
 -85.6927
 -85.6933
 -85.69
 -85.689
 -85.69
 -85.7621
 -85.7638
 -85.7644
 -85.7633
 -85.7495
 -85.7505
 -85.705
 -85.7041
 -85.7059
 -85.7056
 -85.7223
 -85.7244
 -85.7225
 -85.7184
 -85.7177
 -85.718
 -85.7161
 -85.6938
 -85.6955
 -85.6946
 -85.749
 -85.7501
 -85.7481
 -85.7485
 -85.6932
 -85.696
 -85.694
 -85.6935
 -85.7415
 -85.74
 -85.7391
 -85.7396
 -85.6936
 -85.6943
 -85.6958
 -85.6937
 -85.6951
 -85.6944
 -85.703
 -85.7019
 -85.7025
 -85.7031
 -85.6741
 -85.6731
 -85.6711
 -85.673
 -85.7448
 -85.7464
 -85.7099
 -85.711
 -85.7113
 -85.7112
 -85.7621
 -85.7617
 -85.762
 -85.7625
 -85.7072
 -85.7057
 -85.7079
 -85.7096
 -85.7474
 -85.749
 -85.7494
 -85.7492
 -85.7561
 -85.7577
 -85.7553
 -85.7571
 -85.7411
 -85.7392
 -85.759
 -85.76
 -85.7596
 -85.7592
 -85.6941
 -85.6942
 -85.6935
 -85.6956
 -85.7591
 -85.7595
 -85.7596
 -85.759
 -85.7634
 -85.7648
 -85.7643
 -85.7635
 -85.7303
 -85.7304
 -85.7321
 -85.7316
 -85.7187
 -85.7178
 -85.72
 -85.721
 -85.7541
 -85.7524
 -85.7536
 -85.7542
 -85.6684
 -85.6707
 -85.6689
 -85.668
 -85.7532
 -85.7551
 -85.7092
 -85.7107
 -85.7107
 -85.7127
 -85.7533
 -85.7525
 -85.7512
 -85.7513
 -85.6964
 -85.6981
 -85.6978
 -85.6976
 -85.712
 -85.709
 -85.7101
 -85.7117
 -85.6975
 -85.6969
 -85.6996
 -85.6958
 -85.6948
 -85.6957
 -85.6943
 -85.692
 -85.6933
 -85.6928
 -85.6935
 -85.7318
 -85.7304
 -85.7299
 -85.7517
 -85.7518
 -85.753
 -85.753
 -85.7275
 -85.7264
 -85.7256
 -85.6961
 -85.6949
 -85.6958
 -85.7222
 -85.7248
 -85.7225
 -85.7242
 -85.7344
 -85.7342
 -85.7343
 -85.7365
 -85.7165
 -85.7185
 -85.7188
 -85.7182
 -85.7155
 -85.7147
 -85.714
 -85.7114
 -85.7102
 -85.7098
 -85.7123
 -85.7136
 -85.7146
 -85.7115
 -85.7523
 -85.7518
 -85.7524
 -85.751
 -85.7385
 -85.7373
 -85.7384
 -85.7391
 -85.7192
 -85.7195
 -85.7185
 -85.7214
 -85.692
 -85.6905
 -85.6919
 -85.7281
 -85.7269
 -85.7279
 -85.7284
 -85.7038
 -85.7013
 -85.7026
 -85.7013
 -85.6601
 -85.6611
 -85.6598
 -85.6591
 -85.7126
 -85.7116
 -85.7123
 -85.7122
 -85.754
 -85.7536
 -85.7551
 -85.7546
 -85.7107
 -85.7127
 -85.7115
 -85.7104
 -85.6936
 -85.6936
 -85.694
 -85.6947
 -85.695
 -85.694
 -85.6943
 -85.7178
 -85.7182
 -85.7175
 -85.7356
 -85.7101
 -85.7069
 -85.709
 -85.7088
 -85.7564
 -85.7563
 -85.757
 -85.7542
 -85.7545
 -85.7551
 -85.7095
 -85.7114
 -85.71
 -85.7111
 -85.7631
 -85.7637
 -85.7641
 -85.764
 -85.697
 -85.731
 -85.729
 -85.7302
 -85.7298
 -85.6965
 -85.6971
 -85.6969
 -85.6974
 -85.7557
 -85.7566
 -85.7548
 -85.7558
 -85.7368
 -85.7393
 -85.7385
 -85.7373
 -85.7461
 -85.7471
 -85.745
 -85.7455
 -85.692
 -85.6926
 -85.6932
 -85.6921
 -85.7056
 -85.7072
 -85.7055
 -85.7058
 -85.7281
 -85.7269
 -85.7282
 -85.7263
 -85.7067
 -85.7045
 -85.7075
 -85.7053
 -85.7356
 -85.7364
 -85.7381
 -85.7377
 -85.6978
 -85.6971
 -85.6989
 -85.6988
 -85.704
 -85.7045
 -85.7063
 -85.7056
 -85.7309
 -85.7312
 -85.7312
 -85.7329
 -85.7559
 -85.7574
 -85.7565
 -85.7575
 -85.6881
 -85.6889
 -85.6903
 -85.69
 -85.6745
 -85.6717
 -85.6746
 -85.6741
 -85.7572
 -85.7585
 -85.7578
 -85.7579
 -85.6776
 -85.6758
 -85.6773
 -85.6761
 -85.6755
 -85.6776
 -85.7228
 -85.7235
 -85.7219
 -85.7211
 -85.7051
 -85.7063
 -85.7062
 -85.7045
 -85.7672
 -85.7672
 -85.7673
 -85.7667
 -85.7556
 -85.7554
 -85.757
 -85.7363
 -85.7361
 -85.7377
 -85.7357
 -85.6953
 -85.6958
 -85.6941
 -85.6963
 -85.7038
 -85.7035
 -85.703
 -85.7025
 -85.7038
 -85.7048
 -85.7368
 -85.7398
 -85.7388
 -85.7376
 -85.7336
 -85.7335
 -85.7318
 -85.734
 -85.739
 -85.7386
 -85.7371
 -85.7389
 -85.7628
 -85.7629
 -85.761
 -85.7634
 -85.7427
 -85.7425
 -85.741
 -85.7124
 -85.7257
 -85.725
 -85.7255
 -85.7242
 -85.7269
 -85.7247
 -85.7254
 -85.7264
 -85.7506
 -85.7501
 -85.7499
 -85.749
 -85.7429
 -85.7418
 -85.742
 -85.7434
 -85.7327
 -85.7311
 -85.7309
 -85.7082
 -85.7066
 -85.7085
 -85.7057
 -85.7251
 -85.728
 -85.7264
 -85.7265
 -85.7118
 -85.7131
 -85.7109
 -85.6509
 -85.6507
 -85.6493
 -85.6518
 -85.7513
 -85.7537
 -85.7526
 -85.7509
 -85.7487
 -85.7514
 -85.75
 -85.6535
 -85.7277
 -85.728
 -85.7275
 -85.7296
 -85.7322
 -85.7325
 -85.6824
 -85.6825
 -85.6823
 -85.6832
 -85.69
 -85.6908
 -85.6931
 -85.6903
 -85.7005
 -85.7016
 -85.7009
 -85.7012
 -85.6994
 -85.7004
 -85.701
 -85.6991
 -85.699
 -85.7003
 -85.7122
 -85.7104
 -85.7098
 -85.71
 -85.7143
 -85.7162
 -85.7675
 -85.7673
 -85.6941
 -85.6971
 -85.6939
 -85.6958
 -85.7186
 -85.718
 -85.7194
 -85.7171
 -85.6868
 -85.6875
 -85.6843
 -85.6851
 -85.753
 -85.7538
 -85.7517
 -85.7526
 -85.748
 -85.7467
 -85.7479
 -85.7466
 -85.7357
 -85.7371
 -85.7373
 -85.7363
 -85.7283
 -85.7288
 -85.7313
 -85.7305
 -85.7233
 -85.7226
 -85.6941
 -85.7412
 -85.7428
 -85.7427
 -85.7429
 -85.7611
 -85.7607
 -85.7624
 -85.7605
 -85.7496
 -85.7514
 -85.7492
 -85.75
 -85.634
 -85.634
 -85.6344
 -85.6349
 -85.7615
 -85.7619
 -85.7614
 -85.7615
 -85.701
 -85.7011
 -85.6994
 -85.7018
 -85.7088
 -85.7066
 -85.7075
 -85.7059
 -85.7395
 -85.7397
 -85.7407
 -85.741
 -85.7403
 -85.7397
 -85.7389
 -85.7394
 -85.6955
 -85.6979
 -85.6966
 -85.6974
 -85.7607
 -85.7611
 -85.7606
 -85.7608
 -85.7536
 -85.7543
 -85.754
 -85.7548
 -85.7411
 -85.7414
 -85.7426
 -85.7427
 -85.7543
 -85.7531
 -85.7538
 -85.7541
 -85.704
 -85.706
 -85.7061
 -85.7066
 -85.6956
 -85.6959
 -85.6965
 -85.6969
 -85.7517
 -85.7508
 -85.7502
 -85.7505
 -85.7165
 -85.7159
 -85.7155
 -85.7138
 -85.7187
 -85.7178
 -85.7174
 -85.7185
 -85.6464
 -85.6479
 -85.6484
 -85.6481
 -85.7607
 -85.761
 -85.7555
 -85.7556
 -85.7547
 -85.7564
 -85.6865
 -85.685
 -85.6844
 -85.6867
 -85.7061
 -85.7036
 -85.7034
 -85.7027
 -85.754
 -85.7531
 -85.7549
 -85.755
 -85.7144
 -85.715
 -85.7141
 -85.7161
 -85.7105
 -85.7111
 -85.7089
 -85.7091
 -85.7622
 -85.7626
 -85.762
 -85.7619
 -85.7271
 -85.7265
 -85.7271
 -85.7279
 -85.7227
 -85.7233
 -85.7229
 -85.7215
 -85.7467
 -85.7471
 -85.7477
 -85.7465
 -85.7367
 -85.7361
 -85.7355
 -85.7344
 -85.7148
 -85.7148
 -85.7126
 -85.7065
 -85.708
 -85.707
 -85.7099
 -85.6792
 -85.678
 -85.6781
 -85.6811
 -85.7087
 -85.7098
 -85.7102
 -85.7105
 -85.7253
 -85.7243
 -85.725
 -85.7238
 -85.7615
 -85.7619
 -85.7618
 -85.7603
 -85.7099
 -85.713
 -85.7114
 -85.711
 -85.6868
 -85.6866
 -85.685
 -85.6838
 -85.7398
 -85.7416
 -85.7407
 -85.7396
 -85.7332
 -85.7327
 -85.7318
 -85.7251
 -85.7275
 -85.7281
 -85.7286
 -85.6764
 -85.6761
 -85.6763
 -85.678
 -85.7283
 -85.7268
 -85.7273
 -85.7263
 -85.7599
 -85.7599
 -85.7601
 -85.7601
 -85.7264
 -85.7262
 -85.7269
 -85.7273
 -85.691
 -85.6899
 -85.6907
 -85.6912
 -85.6981
 -85.6993
 -85.698
 -85.6965
 -85.7677
 -85.7673
 -85.7677
 -85.7676
 -85.7038
 -85.7043
 -85.704
 -85.7013
 -85.7327
 -85.7303
 -85.7309
 -85.7318
 -85.7672
 -85.7674
 -85.7668
 -85.7666
 -85.7563
 -85.7581
 -85.757
 -85.7404
 -85.7402
 -85.7423
 -85.7428
 -85.7522
 -85.7526
 -85.7542
 -85.7517
 -85.6603
 -85.6618
 -85.6631
 -85.6626
 -85.6977
 -85.6999
 -85.6966
 -85.759
 -85.7603
 -85.76
 -85.7603
 -85.7318
 -85.7311
 -85.733
 -85.7305
 -85.7456
 -85.7451
 -85.7472
 -85.744
 -85.689
 -85.6888
 -85.6872
 -85.6865
 -85.7138
 -85.7163
 -85.7137
 -85.7152
 -85.7358
 -85.7331
 -85.7341
 -85.6844
 -85.6849
 -85.6857
 -85.6857
 -85.6971
 -85.693
 -85.6939
 -85.6933
 -85.7113
 -85.7595
 -85.7603
 -85.7597
 -85.7606
 -85.6634
 -85.6632
 -85.6614
 -85.6616
 -85.7459
 -85.7486
 -85.7474
 -85.7489
 -85.7339
 -85.7327
 -85.733
 -85.7311
 -85.6512
 -85.7497
 -85.7486
 -85.7505
 -85.759
 -85.7606
 -85.7595
 -85.7596
 -85.7195
 -85.7194
 -85.7224
 -85.7204
 -85.7381
 -85.7381
 -85.7393
 -85.7373
 -85.7007
 -85.6991
 -85.7231
 -85.7223
 -85.722
 -85.7239
 -85.7004
 -85.6992
 -85.6981
 -85.6995
 -85.7068
 -85.706
 -85.7087
 -85.7089
 -85.7412
 -85.74
 -85.7412
 -85.7415
 -85.67
 -85.6697
 -85.6696
 -85.6722
 -85.6958
 -85.6949
 -85.6956
 -85.6945
 -85.6743
 -85.6758
 -85.69
 -85.6902
 -85.6904
 -85.6901
 -85.687
 -85.6857
 -85.6876
 -85.6861
 -85.7619
 -85.7613
 -85.7603
 -85.7603
 -85.7305
 -85.7304
 -85.7296
 -85.7322
 -85.7131
 -85.7159
 -85.7144
 -85.7143
 -85.7253
 -85.7245
 -85.724
 -85.7258
 -85.7608
 -85.7605
 -85.6839
 -85.683
 -85.6832
 -85.6839
 -85.7604
 -85.7608
 -85.7597
 -85.6662
 -85.6657
 -85.666
 -85.6651
 -85.7575
 -85.7557
 -85.7569
 -85.7562
 -85.7078
 -85.7065
 -85.7083
 -85.7063
 -85.7185
 -85.7183
 -85.7177
 -85.7594
 -85.7586
 -85.759
 -85.7596
 -85.7301
 -85.7283
 -85.7301
 -85.7289
 -85.7188
 -85.7199
 -85.7211
 -85.7196
 -85.7085
 -85.7076
 -85.7136
 -85.71
 -85.7124
 -85.7113
 -85.7335
 -85.7315
 -85.7326
 -85.762
 -85.7605
 -85.7602
 -85.7618
 -85.7178
 -85.7189
 -85.7176
 -85.7183
 -85.7141
 -85.7128
 -85.7055
 -85.7035
 -85.703
 -85.7049
 -85.6707
 -85.6711
 -85.6732
 -85.7301
 -85.7307
 -85.7283
 -85.7282
 -85.7612
 -85.7613
 -85.7613
 -85.6741
 -85.6733
 -85.6742
 -85.7168
 -85.7154
 -85.7163
 -85.7146
 -85.7377
 -85.7379
 -85.736
 -85.7366
 -85.661
 -85.6599
 -85.6605
 -85.6612
 -85.7529
 -85.7533
 -85.7525
 -85.7523
 -85.7392
 -85.7381
 -85.7383
 -85.7374
 -85.7493
 -85.7497
 -85.7488
 -85.7587
 -85.759
 -85.7606
 -85.7595
 -85.7246
 -85.7223
 -85.7244
 -85.7247
 -85.7587
 -85.7582
 -85.7579
 -85.7576
 -85.7086
 -85.7083
 -85.7095
 -85.7073
 -85.7616
 -85.7357
 -85.7222
 -85.7216
 -85.7233
 -85.7211
 -85.7334
 -85.7328
 -85.7317
 -85.7312
 -85.7434
 -85.7437
 -85.7426
 -85.7415
 -85.7344
 -85.7339
 -85.7356
 -85.7348
 -85.7452
 -85.7441
 -85.7454
 -85.7452
 -85.7222
 -85.721
 -85.7214
 -85.7231
 -85.7191
 -85.7194
 -85.7199
 -85.7207
 -85.7137
 -85.7131
 -85.7126
 -85.7146
 -85.7199
 -85.7198
 -85.7182
 -85.6936
 -85.6939
 -85.6935
 -85.6947
 -85.7244
 -85.7371
 -85.7391
 -85.7393
 -85.7386
 -85.7599
 -85.76
 -85.7584
 -85.7055
 -85.7026
 -85.7036
 -85.7028
 -85.7264
 -85.7286
 -85.7278
 -85.734
 -85.7334
 -85.7326
 -85.732
 -85.738
 -85.7388
 -85.7403
 -85.7409
 -85.7552
 -85.7559
 -85.7569
 -85.7556
 -85.6995
 -85.6993
 -85.7004
 -85.6978
 -85.7264
 -85.7252
 -85.7252
 -85.7241
 -85.7204
 -85.7196
 -85.7182
 -85.7205
 -85.7188
 -85.7179
 -85.7174
 -85.7162
 -85.723
 -85.7225
 -85.7236
 -85.7215
 -85.7429
 -85.7402
 -85.7434
 -85.7414
 -85.7186
 -85.716
 -85.717
 -85.7176
 -85.6834
 -85.6835
 -85.6834
 -85.684
 -85.6777
 -85.6788
 -85.6782
 -85.7227
 -85.7231
 -85.7244
 -85.725
 -85.7235
 -85.7239
 -85.7248
 -85.7256
 -85.7196
 -85.7179
 -85.7207
 -85.7206
 -85.758
 -85.7583
 -85.7565
 -85.7566
 -85.7437
 -85.7423
 -85.7419
 -85.7435
 -85.7041
 -85.7052
 -85.7049
 -85.7054
 -85.6911
 -85.6936
 -85.6932
 -85.6901
 -85.7543
 -85.7537
 -85.7529
 -85.7543
 -85.665
 -85.6632
 -85.6637
 -85.666
 -85.7101
 -85.7119
 -85.7109
 -85.7107
 -85.6883
 -85.6891
 -85.689
 -85.698
 -85.6992
 -85.6994
 -85.7009
 -85.741
 -85.7407
 -85.7419
 -85.7392
 -85.6977
 -85.6955
 -85.6961
 -85.6972
 -85.6783
 -85.6826
 -85.6798
 -85.6607
 -85.6628
 -85.6639
 -85.6627
 -85.7638
 -85.7641
 -85.7644
 -85.7653
 -85.7022
 -85.7009
 -85.7018
 -85.7027
 -85.7309
 -85.7286
 -85.7291
 -85.7303
 -85.7566
 -85.7561
 -85.7549
 -85.7559
 -85.7489
 -85.7504
 -85.7483
 -85.7489
 -85.7038
 -85.7042
 -85.7029
 -85.7036
 -85.6846
 -85.6824
 -85.6804
 -85.6828
 -85.7288
 -85.7298
 -85.7279
 -85.7288
 -85.6865
 -85.6886
 -85.7145
 -85.7114
 -85.7121
 -85.7137
 -85.7164
 -85.7162
 -85.7151
 -85.717
 -85.7137
 -85.7139
 -85.7129
 -85.6923
 -85.693
 -85.6923
 -85.7318
 -85.7319
 -85.7326
 -85.733
 -85.7297
 -85.7294
 -85.7283
 -85.7311
 -85.7034
 -85.7054
 -85.7044
 -85.7037
 -85.7444
 -85.7459
 -85.7438
 -85.7443
 -85.7219
 -85.7196
 -85.7208
 -85.7224
 -85.6924
 -85.6923
 -85.6921
 -85.6923
 -85.7115
 -85.7132
 -85.7116
 -85.7314
 -85.7312
 -85.7298
 -85.7309
 -85.7245
 -85.7258
 -85.7266
 -85.7632
 -85.763
 -85.7626
 -85.7623
 -85.675
 -85.6738
 -85.6753
 -85.6721
 -85.7092
 -85.7108
 -85.7108
 -85.7094
 -85.7067
 -85.7063
 -85.7047
 -85.7068
 -85.7638
 -85.7636
 -85.7651
 -85.7659
 -85.7471
 -85.748
 -85.7477
 -85.6989
 -85.6988
 -85.6977
 -85.6989
 -85.7467
 -85.745
 -85.7457
 -85.7022
 -85.7025
 -85.7011
 -85.7015
 -85.6425
 -85.6438
 -85.6429
 -85.644
 -85.7576
 -85.7579
 -85.7588
 -85.7571
 -85.6926
 -85.6921
 -85.6913
 -85.6899
 -85.7623
 -85.7619
 -85.7617
 -85.7619
 -85.6971
 -85.6991
 -85.6975
 -85.6985
 -85.6442
 -85.6416
 -85.6435
 -85.6438
 -85.6812
 -85.6794
 -85.6811
 -85.6817
 -85.6935
 -85.6947
 -85.6958
 -85.6932
 -85.7211
 -85.7187
 -85.6907
 -85.6912
 -85.6878
 -85.6882
 -85.733
 -85.7317
 -85.7313
 -85.7303
 -85.7192
 -85.7192
 -85.7185
 -85.721
 -85.7562
 -85.7547
 -85.7572
 -85.7574
 -85.7531
 -85.7525
 -85.7537
 -85.7537
 -85.7496
 -85.7481
 -85.7492
 -85.7481
 -85.7552
 -85.7554
 -85.7558
 -85.7548
 -85.7378
 -85.7376
 -85.739
 -85.7378
 -85.7504
 -85.7518
 -85.7514
 -85.751
 -85.677
 -85.6741
 -85.6738
 -85.6771
 -85.754
 -85.7548
 -85.7547
 -85.7544
 -85.7137
 -85.7121
 -85.7111
 -85.7119
 -85.746
 -85.7437
 -85.744
 -85.7533
 -85.7545
 -85.7547
 -85.7541
 -85.6931
 -85.6911
 -85.6909
 -85.6919
 -85.6818
 -85.6813
 -85.6804
 -85.6808
 -85.7409
 -85.7408
 -85.7398
 -85.7424
 -85.715
 -85.7149
 -85.7145
 -85.7133
 -85.7385
 -85.7377
 -85.7384
 -85.738
 -85.7379
 -85.7379
 -85.7408
 -85.711
 -85.7105
 -85.709
 -85.7367
 -85.7376
 -85.7271
 -85.7248
 -85.7618
 -85.7625
 -85.7625
 -85.7617
 -85.7246
 -85.7253
 -85.7242
 -85.7263
 -85.7365
 -85.7359
 -85.7381
 -85.7359
 -85.7311
 -85.7319
 -85.731
 -85.7325
 -85.7504
 -85.7472
 -85.7477
 -85.7467
 -85.7465
 -85.7168
 -85.7174
 -85.7155
 -85.7155
 -85.6893
 -85.6893
 -85.6893
 -85.6894
 -85.7369
 -85.7354
 -85.7372
 -85.7361
 -85.7389
 -85.7381
 -85.7375
 -85.7395
 -85.6494
 -85.6509
 -85.6516
 -85.6527
 -85.7226
 -85.7242
 -85.7231
 -85.7221
 -85.7204
 -85.7189
 -85.7182
 -85.7196
 -85.736
 -85.7348
 -85.6947
 -85.695
 -85.6957
 -85.6948
 -85.7079
 -85.7089
 -85.7086
 -85.7075
 -85.6972
 -85.6964
 -85.6959
 -85.6961
 -85.7049
 -85.7062
 -85.706
 -85.7046
 -85.6963
 -85.6961
 -85.6954
 -85.6966
 -85.748
 -85.7471
 -85.7475
 -85.7486
 -85.7538
 -85.7535
 -85.7521
 -85.753
 -85.7027
 -85.7018
 -85.7008
 -85.7026
 -85.7225
 -85.7211
 -85.7225
 -85.7215
 -85.7496
 -85.7481
 -85.7494
 -85.7487
 -85.7161
 -85.7148
 -85.715
 -85.7173
 -85.7023
 -85.7038
 -85.6852
 -85.686
 -85.6864
 -85.6849
 -85.7196
 -85.7189
 -85.7176
 -85.7168
 -85.7501
 -85.7494
 -85.7495
 -85.7513
 -85.7605
 -85.7596
 -85.7598
 -85.7607
 -85.6546
 -85.6543
 -85.7131
 -85.715
 -85.7153
 -85.7162
 -85.7106
 -85.7078
 -85.7096
 -85.7096
 -85.7089
 -85.7084
 -85.6981
 -85.6989
 -85.6989
 -85.6993
 -85.7194
 -85.7212
 -85.722
 -85.6769
 -85.6783
 -85.6783
 -85.6795
 -85.7541
 -85.7551
 -85.753
 -85.7543
 -85.7602
 -85.7602
 -85.76
 -85.7638
 -85.7632
 -85.7621
 -85.7629
 -85.7298
 -85.7324
 -85.7316
 -85.7318
 -85.7224
 -85.7247
 -85.7217
 -85.7237
 -85.7451
 -85.7473
 -85.7479
 -85.7468
 -85.7354
 -85.735
 -85.7366
 -85.7351
 -85.7329
 -85.7345
 -85.7335
 -85.7258
 -85.726
 -85.7251
 -85.7275
 -85.7416
 -85.7448
 -85.7436
 -85.7418
 -85.7163
 -85.715
 -85.716
 -85.7164
 -85.7236
 -85.7232
 -85.7253
 -85.7227
 -85.7379
 -85.7374
 -85.7366
 -85.738
 -85.7227
 -85.7217
 -85.7212
 -85.723
 -85.6451
 -85.6443
 -85.6468
 -85.6467
 -85.7
 -85.6993
 -85.6991
 -85.6981
 -85.7415
 -85.7414
 -85.7433
 -85.7435
 -85.697
 -85.6972
 -85.6946
 -85.694
 -85.6921
 -85.6896
 -85.6921
 -85.6938
 -85.751
 -85.7506
 -85.7515
 -85.7497
 -85.7488
 -85.7472
 -85.7487
 -85.7483
 -85.7549
 -85.7535
 -85.7546
 -85.7552
 -85.7436
 -85.7436
 -85.7451
 -85.7444
 -85.7131
 -85.7126
 -85.7114
 -85.7126
 -85.7004
 -85.6997
 -85.7013
 -85.6994
 -85.7386
 -85.7361
 -85.7388
 -85.7367
 -85.7011
 -85.7017
 -85.702
 -85.7018
 -85.6864
 -85.687
 -85.6875
 -85.6881
 -85.7212
 -85.7227
 -85.7214
 -85.7227
 -85.7095
 -85.7082
 -85.707
 -85.7107
 -85.7115
 -85.714
 -85.7122
 -85.6867
 -85.6855
 -85.6839
 -85.6854
 -85.7024
 -85.702
 -85.7015
 -85.7016
 -85.7406
 -85.7416
 -85.7407
 -85.7412
 -85.7247
 -85.7263
 -85.7267
 -85.7646
 -85.7636
 -85.7637
 -85.7643
 -85.7575
 -85.7587
 -85.7595
 -85.7582
 -85.7085
 -85.71
 -85.7076
 -85.7099
 -85.7278
 -85.7292
 -85.689
 -85.6888
 -85.6866
 -85.6897
 -85.7247
 -85.723
 -85.7222
 -85.7238
 -85.7544
 -85.7548
 -85.7535
 -85.7547
 -85.7005
 -85.7009
 -85.7014
 -85.7145
 -85.715
 -85.7154
 -85.7128
 -85.7092
 -85.7116
 -85.7115
 -85.7111
 -85.7214
 -85.7231
 -85.7235
 -85.7213
 -85.7181
 -85.7192
 -85.7205
 -85.719
 -85.724
 -85.7249
 -85.7236
 -85.7255
 -85.7164
 -85.7178
 -85.7466
 -85.7455
 -85.7479
 -85.7463
 -85.7175
 -85.7159
 -85.7165
 -85.7176
 -85.7326
 -85.7303
 -85.7314
 -85.7171
 -85.7188
 -85.7176
 -85.7186
 -85.7334
 -85.7325
 -85.7315
 -85.7327
 -85.6976
 -85.6959
 -85.6971
 -85.6948
 -85.7171
 -85.7168
 -85.719
 -85.7287
 -85.729
 -85.731
 -85.7277
 -85.7203
 -85.7199
 -85.7212
 -85.697
 -85.6975
 -85.696
 -85.7345
 -85.7342
 -85.7339
 -85.7322
 -85.7212
 -85.7226
 -85.7229
 -85.6565
 -85.6572
 -85.6578
 -85.6546
 -85.7352
 -85.7339
 -85.7331
 -85.7354
 -85.7108
 -85.7089
 -85.7092
 -85.7085
 -85.7494
 -85.7493
 -85.7499
 -85.7505
 -85.7527
 -85.7515
 -85.7534
 -85.7531
 -85.6917
 -85.6944
 -85.691
 -85.6916
 -85.7279
 -85.7266
 -85.7255
 -85.7048
 -85.7028
 -85.7043
 -85.7042
 -85.7522
 -85.7502
 -85.7514
 -85.7239
 -85.7256
 -85.7245
 -85.726
 -85.7398
 -85.7404
 -85.7403
 -85.7399
 -85.7566
 -85.7569
 -85.7575
 -85.7564
 -85.6367
 -85.6354
 -85.6357
 -85.6367
 -85.7046
 -85.705
 -85.706
 -85.7043
 -85.7266
 -85.7298
 -85.7286
 -85.7293
 -85.6835
 -85.682
 -85.6811
 -85.7212
 -85.7227
 -85.7224
 -85.7208
 -85.7584
 -85.7368
 -85.7355
 -85.7336
 -85.7355
 -85.7512
 -85.7511
 -85.7514
 -85.752
 -85.745
 -85.7445
 -85.7441
 -85.7455
 -85.7278
 -85.7272
 -85.7243
 -85.7223
 -85.7225
 -85.7223
 -85.6591
 -85.6613
 -85.6594
 -85.6605
 -85.7078
 -85.7072
 -85.7064
 -85.705
 -85.7049
 -85.7063
 -85.7053
 -85.7592
 -85.761
 -85.7595
 -85.7591
 -85.7215
 -85.7214
 -85.7232
 -85.7233
 -85.7273
 -85.7265
 -85.7251
 -85.7263
 -85.7528
 -85.7516
 -85.7535
 -85.7518
 -85.7231
 -85.7226
 -85.7248
 -85.7232
 -85.675
 -85.6756
 -85.6735
 -85.6742
 -85.7197
 -85.7191
 -85.7203
 -85.7195
 -85.7038
 -85.704
 -85.7043
 -85.7054
 -85.6999
 -85.6985
 -85.6986
 -85.6994
 -85.6892
 -85.6898
 -85.6891
 -85.689
 -85.6712
 -85.6704
 -85.6699
 -85.6727
 -85.7631
 -85.7623
 -85.7626
 -85.7624
 -85.6641
 -85.6649
 -85.6628
 -85.6657
 -85.7218
 -85.7205
 -85.7218
 -85.7202
 -85.7621
 -85.7621
 -85.7612
 -85.7615
 -85.713
 -85.7124
 -85.7136
 -85.714
 -85.689
 -85.7557
 -85.755
 -85.7553
 -85.7568
 -85.6965
 -85.674
 -85.6766
 -85.6768
 -85.6743
 -85.7301
 -85.7324
 -85.7458
 -85.7439
 -85.7464
 -85.7444
 -85.7505
 -85.7505
 -85.7515
 -85.7512
 -85.7645
 -85.7634
 -85.7648
 -85.7466
 -85.7485
 -85.7481
 -85.7479
 -85.7134
 -85.7604
 -85.7387
 -85.7383
 -85.7377
 -85.7601
 -85.7608
 -85.7611
 -85.7605
 -85.7144
 -85.7141
 -85.7142
 -85.7128
 -85.7033
 -85.704
 -85.7023
 -85.7017
 -85.7369
 -85.7358
 -85.7363
 -85.7388
 -85.7588
 -85.7596
 -85.7583
 -85.758
 -85.7544
 -85.754
 -85.7547
 -85.7539
 -85.7323
 -85.7351
 -85.7348
 -85.6692
 -85.6677
 -85.6721
 -85.6691
 -85.639
 -85.6413
 -85.6399
 -85.641
 -85.684
 -85.6815
 -85.6809
 -85.6824
 -85.7255
 -85.7271
 -85.7253
 -85.6765
 -85.6783
 -85.6776
 -85.6763
 -85.7475
 -85.7471
 -85.7488
 -85.7488
 -85.7491
 -85.7482
 -85.7489
 -85.6966
 -85.6959
 -85.74
 -85.7408
 -85.7675
 -85.7668
 -85.7674
 -85.7632
 -85.7637
 -85.7635
 -85.764
 -85.7166
 -85.7152
 -85.7177
 -85.7166
 -85.7071
 -85.7068
 -85.7059
 -85.7081
 -85.7203
 -85.72
 -85.7219
 -85.7212
 -85.7615
 -85.7615
 -85.7618
 -85.7614
 -85.7403
 -85.7412
 -85.7407
 -85.7396
 -85.6884
 -85.6882
 -85.6883
 -85.6895
 -85.7404
 -85.7411
 -85.7399
 -85.7415
 -85.7287
 -85.7291
 -85.7273
 -85.7294
 -85.7376
 -85.7388
 -85.7386
 -85.6331
 -85.6335
 -85.6338
 -85.7062
 -85.705
 -85.7145
 -85.7144
 -85.7131
 -85.7156
 -85.7451
 -85.7468
 -85.7455
 -85.7451
 -85.7406
 -85.7411
 -85.7431
 -85.7419
 -85.7419
 -85.7411
 -85.7437
 -85.6593
 -85.6592
 -85.6878
 -85.6874
 -85.6885
 -85.6879
 -85.7286
 -85.6581
 -85.656
 -85.6568
 -85.6571
 -85.7031
 -85.7052
 -85.7038
 -85.7035
 -85.7171
 -85.7162
 -85.6722
 -85.6759
 -85.6757
 -85.6737
 -85.7631
 -85.7644
 -85.7639
 -85.7633
 -85.7582
 -85.7588
 -85.7582
 -85.7598
 -85.6944
 -85.6979
 -85.6952
 -85.697
 -85.7057
 -85.7047
 -85.7082
 -85.7075
 -85.7067
 -85.7058
 -85.7067
 -85.7432
 -85.7443
 -85.742
 -85.7432
 -85.6884
 -85.69
 -85.6909
 -85.6911
 -85.7204
 -85.7209
 -85.7202
 -85.735
 -85.7356
 -85.7362
 -85.7376
 -85.7056
 -85.7061
 -85.7071
 -85.7064
 -85.6987
 -85.7004
 -85.7017
 -85.6997
 -85.7003
 -85.6991
 -85.6995
 -85.7009
 -85.7123
 -85.713
 -85.7147
 -85.7131
 -85.7348
 -85.7337
 -85.7035
 -85.7038
 -85.7042
 -85.7027
 -85.7639
 -85.762
 -85.7624
 -85.7625
 -85.6977
 -85.6987
 -85.6978
 -85.6989
 -85.6805
 -85.6798
 -85.6819
 -85.6811
 -85.729
 -85.729
 -85.667
 -85.6672
 -85.6655
 -85.6676
 -85.7091
 -85.7105
 -85.7083
 -85.7592
 -85.7589
 -85.7598
 -85.7598
 -85.6697
 -85.6686
 -85.6692
 -85.6991
 -85.6989
 -85.7004
 -85.6998
 -85.6723
 -85.6975
 -85.6968
 -85.6971
 -85.6954
 -85.723
 -85.7218
 -85.7233
 -85.723
 -85.7146
 -85.715
 -85.716
 -85.7145
 -85.7604
 -85.7617
 -85.7261
 -85.7271
 -85.7266
 -85.726
 -85.6956
 -85.6931
 -85.696
 -85.6929
 -85.7074
 -85.7109
 -85.7089
 -85.7077
 -85.7552
 -85.7543
 -85.7544
 -85.7545
 -85.7155
 -85.7164
 -85.7181
 -85.7173
 -85.7294
 -85.75
 -85.7507
 -85.7494
 -85.7076
 -85.7082
 -85.7063
 -85.7087
 -85.7399
 -85.7393
 -85.74
 -85.7384
 -85.7102
 -85.7085
 -85.7091
 -85.7108
 -85.7599
 -85.7589
 -85.7584
 -85.7595
 -85.7667
 -85.7671
 -85.7663
 -85.6996
 -85.7005
 -85.7022
 -85.7012
 -85.7332
 -85.7339
 -85.7318
 -85.7327
 -85.7383
 -85.739
 -85.7399
 -85.7406
 -85.7046
 -85.7049
 -85.698
 -85.6971
 -85.6965
 -85.6986
 -85.712
 -85.715
 -85.7303
 -85.731
 -85.7301
 -85.7295
 -85.7341
 -85.7347
 -85.7361
 -85.734
 -85.7129
 -85.7141
 -85.7155
 -85.7144
 -85.7285
 -85.7286
 -85.7287
 -85.7527
 -85.7512
 -85.7506
 -85.7515
 -85.7454
 -85.7448
 -85.7456
 -85.713
 -85.7153
 -85.7124
 -85.7144
 -85.7
 -85.6975
 -85.6965
 -85.6993
 -85.7392
 -85.7372
 -85.7373
 -85.7385
 -85.7155
 -85.7152
 -85.7131
 -85.6913
 -85.6911
 -85.6913
 -85.6911
 -85.7056
 -85.7054
 -85.7062
 -85.7067
 -85.7476
 -85.7468
 -85.746
 -85.7641
 -85.7628
 -85.7631
 -85.7375
 -85.7383
 -85.7385
 -85.7055
 -85.7038
 -85.7061
 -85.7047
 -85.7637
 -85.7639
 -85.7637
 -85.7643
 -85.7355
 -85.7344
 -85.7352
 -85.7365
 -85.7497
 -85.7503
 -85.7521
 -85.7519
 -85.7479
 -85.7488
 -85.748
 -85.7482
 -85.6792
 -85.6771
 -85.6774
 -85.712
 -85.7125
 -85.7113
 -85.7127
 -85.7499
 -85.7505
 -85.7492
 -85.7493
 -85.7182
 -85.719
 -85.719
 -85.7209
 -85.7406
 -85.7407
 -85.7404
 -85.7388
 -85.7559
 -85.7569
 -85.688
 -85.6892
 -85.6891
 -85.6899
 -85.7442
 -85.7432
 -85.7456
 -85.7437
 -85.7131
 -85.7125
 -85.7118
 -85.7137
 -85.7382
 -85.7359
 -85.762
 -85.7619
 -85.7608
 -85.7623
 -85.7493
 -85.7512
 -85.7487
 -85.7518
 -85.7642
 -85.7644
 -85.7654
 -85.7657
 -85.7434
 -85.7433
 -85.7441
 -85.7381
 -85.7403
 -85.7401
 -85.7393
 -85.7396
 -85.7385
 -85.7391
 -85.7373
 -85.7026
 -85.7031
 -85.7016
 -85.7011
 -85.6752
 -85.6743
 -85.6767
 -85.7219
 -85.7219
 -85.7222
 -85.7525
 -85.751
 -85.7519
 -85.7506
 -85.7136
 -85.7149
 -85.7164
 -85.715
 -85.6964
 -85.694
 -85.6947
 -85.6966
 -85.7232
 -85.7214
 -85.7205
 -85.7206
 -85.7093
 -85.712
 -85.7095
 -85.7624
 -85.7628
 -85.7613
 -85.7612
 -85.6897
 -85.6902
 -85.6957
 -85.6967
 -85.6968
 -85.7414
 -85.7419
 -85.7403
 -85.7431
 -85.7207
 -85.723
 -85.7227
 -85.7223
 -85.6936
 -85.6939
 -85.6953
 -85.6939
 -85.7273
 -85.7241
 -85.7245
 -85.7262
 -85.7086
 -85.7072
 -85.7095
 -85.7096
 -85.7547
 -85.7552
 -85.7572
 -85.7059
 -85.7057
 -85.7071
 -85.7069
 -85.727
 -85.7283
 -85.6923
 -85.6944
 -85.6937
 -85.6926
 -85.6951
 -85.6935
 -85.6944
 -85.6936
 -85.756
 -85.7553
 -85.6983
 -85.6999
 -85.699
 -85.6974
 -85.7238
 -85.7222
 -85.7229
 -85.7239
 -85.7111
 -85.6796
 -85.6778
 -85.6784
 -85.7293
 -85.7289
 -85.7292
 -85.7278
 -85.7572
 -85.7574
 -85.7566
 -85.758
 -85.6794
 -85.6801
 -85.6805
 -85.6785
 -85.6965
 -85.6977
 -85.6961
 -85.6965
 -85.7372
 -85.7379
 -85.738
 -85.6819
 -85.6818
 -85.6833
 -85.6836
 -85.7641
 -85.763
 -85.7635
 -85.7643
 -85.688
 -85.689
 -85.6893
 -85.6872
 -85.7356
 -85.7339
 -85.7351
 -85.7366
 -85.7121
 -85.7135
 -85.7128
 -85.7117
 -85.6938
 -85.6944
 -85.6938
 -85.7089
 -85.7109
 -85.7088
 -85.7104
 -85.6939
 -85.6925
 -85.6934
 -85.6934
 -85.697
 -85.6958
 -85.6964
 -85.7452
 -85.7437
 -85.7456
 -85.743
 -85.7416
 -85.7196
 -85.7232
 -85.7208
 -85.7209
 -85.7593
 -85.7587
 -85.758
 -85.7586
 -85.7298
 -85.7318
 -85.7288
 -85.7312
 -85.7349
 -85.7361
 -85.7348
 -85.7344
 -85.6961
 -85.6954
 -85.6971
 -85.6983
 -85.6976
 -85.7348
 -85.7329
 -85.734
 -85.7353
 -85.7583
 -85.7599
 -85.7253
 -85.7259
 -85.724
 -85.7261
 -85.6934
 -85.6931
 -85.6942
 -85.7543
 -85.7552
 -85.7539
 -85.7544
 -85.7258
 -85.7233
 -85.7242
 -85.7247
 -85.6956
 -85.6948
 -85.6957
 -85.6963
 -85.7205
 -85.7203
 -85.7229
 -85.721
 -85.7338
 -85.7367
 -85.6855
 -85.6847
 -85.6851
 -85.6843
 -85.6968
 -85.7001
 -85.7011
 -85.7003
 -85.7017
 -85.7012
 -85.7005
 -85.6982
 -85.6987
 -85.7
 -85.7246
 -85.7242
 -85.724
 -85.7317
 -85.731
 -85.7303
 -85.7295
 -85.7024
 -85.7022
 -85.7026
 -85.7023
 -85.7133
 -85.7128
 -85.7277
 -85.7266
 -85.7273
 -85.7262
 -85.728
 -85.728
 -85.7206
 -85.7223
 -85.7228
 -85.7209
 -85.6657
 -85.6686
 -85.6681
 -85.669
 -85.7271
 -85.6939
 -85.6953
 -85.6943
 -85.694
 -85.7622
 -85.763
 -85.762
 -85.7421
 -85.7417
 -85.7405
 -85.7423
 -85.7195
 -85.7203
 -85.7195
 -85.717
 -85.7256
 -85.7269
 -85.7247
 -85.6991
 -85.7003
 -85.6998
 -85.6988
 -85.7551
 -85.7561
 -85.7539
 -85.7555
 -85.736
 -85.7354
 -85.7368
 -85.7362
 -85.7552
 -85.7557
 -85.7536
 -85.7548
 -85.6879
 -85.6878
 -85.6865
 -85.6867
 -85.7018
 -85.7031
 -85.7448
 -85.7442
 -85.7434
 -85.7444
 -85.7582
 -85.758
 -85.7583
 -85.7577
 -85.7666
 -85.7671
 -85.7662
 -85.7673
 -85.7566
 -85.7555
 -85.7565
 -85.7346
 -85.7362
 -85.7343
 -85.7355
 -85.7573
 -85.7579
 -85.7581
 -85.7579
 -85.6888
 -85.6903
 -85.6916
 -85.69
 -85.7503
 -85.7515
 -85.7516
 -85.7354
 -85.7348
 -85.7344
 -85.7343
 -85.6936
 -85.6929
 -85.6936
 -85.6926
 -85.7374
 -85.7392
 -85.7382
 -85.7383
 -85.7302
 -85.7315
 -85.7322
 -85.7303
 -85.7031
 -85.7038
 -85.7051
 -85.7062
 -85.6871
 -85.6873
 -85.6855
 -85.6856
 -85.7152
 -85.7158
 -85.7173
 -85.7156
 -85.6612
 -85.6614
 -85.6647
 -85.6627
 -85.6957
 -85.6969
 -85.6955
 -85.6996
 -85.6978
 -85.6976
 -85.6972
 -85.6524
 -85.653
 -85.6508
 -85.6536
 -85.7543
 -85.7533
 -85.7534
 -85.7481
 -85.7483
 -85.7496
 -85.7494
 -85.7008
 -85.7037
 -85.7028
 -85.6762
 -85.6769
 -85.6759
 -85.6862
 -85.6848
 -85.6864
 -85.6866
 -85.7028
 -85.7025
 -85.7039
 -85.7013
 -85.7357
 -85.7382
 -85.737
 -85.7367
 -85.6666
 -85.6663
 -85.6675
 -85.6654
 -85.732
 -85.7292
 -85.7291
 -85.7314
 -85.7477
 -85.7484
 -85.7465
 -85.7476
 -85.7282
 -85.7282
 -85.7309
 -85.7296
 -85.7169
 -85.7155
 -85.7181
 -85.6949
 -85.6948
 -85.6948
 -85.6957
 -85.7559
 -85.7569
 -85.7573
 -85.7567
 -85.7504
 -85.7514
 -85.7503
 -85.7494
 -85.7024
 -85.7038
 -85.7029
 -85.7015
 -85.7586
 -85.7593
 -85.7599
 -85.758
 -85.7599
 -85.7586
 -85.7587
 -85.7595
 -85.7597
 -85.7585
 -85.759
 -85.6719
 -85.6714
 -85.6529
 -85.6534
 -85.6522
 -85.6547
 -85.7329
 -85.7321
 -85.731
 -85.7198
 -85.7187
 -85.7214
 -85.719
 -85.7237
 -85.7257
 -85.7251
 -85.724
 -85.6346
 -85.7143
 -85.7312
 -85.7329
 -85.7502
 -85.751
 -85.7507
 -85.7506
 -85.6762
 -85.7094
 -85.7109
 -85.7093
 -85.7677
 -85.7672
 -85.7673
 -85.7672
 -85.7242
 -85.7229
 -85.7243
 -85.7258
 -85.7597
 -85.7589
 -85.7599
 -85.7585
 -85.7164
 -85.7185
 -85.7148
 -85.7113
 -85.7135
 -85.7121
 -85.7549
 -85.7551
 -85.7537
 -85.7551
 -85.7321
 -85.731
 -85.7298
 -85.7291
 -85.6896
 -85.6883
 -85.6906
 -85.6902
 -85.7486
 -85.7512
 -85.7503
 -85.7601
 -85.7617
 -85.7617
 -85.7601
 -85.7493
 -85.7488
 -85.7479
 -85.7489
 -85.7012
 -85.701
 -85.7043
 -85.7009
 -85.7055
 -85.7043
 -85.7046
 -85.7045
 -85.7551
 -85.756
 -85.7559
 -85.7559
 -85.7138
 -85.7141
 -85.7122
 -85.7458
 -85.7459
 -85.7454
 -85.7445
 -85.6924
 -85.6941
 -85.6915
 -85.6919
 -85.7339
 -85.7347
 -85.7324
 -85.7334
 -85.6917
 -85.693
 -85.6918
 -85.6917
 -85.7271
 -85.7282
 -85.7265
 -85.7277
 -85.7474
 -85.7474
 -85.7487
 -85.7464
 -85.6881
 -85.6875
 -85.6888
 -85.7247
 -85.7263
 -85.7525
 -85.7519
 -85.7516
 -85.7507
 -85.7135
 -85.7123
 -85.7121
 -85.6898
 -85.6885
 -85.6879
 -85.6886
 -85.7387
 -85.7393
 -85.7386
 -85.7399
 -85.734
 -85.7338
 -85.7365
 -85.7345
 -85.6422
 -85.6422
 -85.6444
 -85.6429
 -85.723
 -85.7209
 -85.7221
 -85.6598
 -85.6616
 -85.6622
 -85.7238
 -85.7232
 -85.722
 -85.7234
 -85.7214
 -85.6874
 -85.6881
 -85.685
 -85.6862
 -85.717
 -85.719
 -85.7193
 -85.7504
 -85.7504
 -85.7505
 -85.7497
 -85.7187
 -85.7196
 -85.7207
 -85.7207
 -85.7214
 -85.721
 -85.7208
 -85.7663
 -85.7659
 -85.7656
 -85.7649
 -85.6976
 -85.7012
 -85.7004
 -85.6994
 -85.6849
 -85.685
 -85.6858
 -85.6857
 -85.7104
 -85.71
 -85.7125
 -85.7106
 -85.7533
 -85.7536
 -85.7541
 -85.7523
 -85.6409
 -85.6427
 -85.6409
 -85.6436
 -85.7459
 -85.7441
 -85.7451
 -85.7452
 -85.6842
 -85.683
 -85.6841
 -85.6837
 -85.7503
 -85.747
 -85.7481
 -85.7495
 -85.7445
 -85.7437
 -85.7428
 -85.7438
 -85.7461
 -85.7468
 -85.702
 -85.7007
 -85.7005
 -85.7017
 -85.7563
 -85.7565
 -85.7564
 -85.7432
 -85.7411
 -85.7419
 -85.7436
 -85.6992
 -85.7009
 -85.6998
 -85.6983
 -85.7088
 -85.7081
 -85.7103
 -85.6332
 -85.6332
 -85.6325
 -85.6332
 -85.7206
 -85.7185
 -85.7212
 -85.7566
 -85.7576
 -85.7563
 -85.7559
 -85.7471
 -85.7459
 -85.7541
 -85.7556
 -85.7563
 -85.7548
 -85.7404
 -85.7405
 -85.6811
 -85.6814
 -85.6793
 -85.6826
 -85.7456
 -85.7455
 -85.7456
 -85.7441
 -85.7236
 -85.7245
 -85.7085
 -85.7096
 -85.709
 -85.7085
 -85.7493
 -85.7501
 -85.7504
 -85.75
 -85.7029
 -85.6998
 -85.7002
 -85.7024
 -85.7554
 -85.7554
 -85.7566
 -85.7582
 -85.7297
 -85.7301
 -85.7283
 -85.6808
 -85.6799
 -85.6796
 -85.6806
 -85.7354
 -85.7353
 -85.7346
 -85.7335
 -85.6977
 -85.6959
 -85.6956
 -85.6946
 -85.6999
 -85.6975
 -85.6992
 -85.639
 -85.6388
 -85.6391
 -85.6401
 -85.687
 -85.6893
 -85.6899
 -85.6877
 -85.7468
 -85.7461
 -85.7476
 -85.746
 -85.7214
 -85.7222
 -85.7201
 -85.7109
 -85.6945
 -85.6955
 -85.6948
 -85.6958
 -85.7139
 -85.7123
 -85.7136
 -85.7144
 -85.7413
 -85.7438
 -85.744
 -85.7418
 -85.6918
 -85.6919
 -85.6952
 -85.6768
 -85.7292
 -85.7299
 -85.728
 -85.7308
 -85.6952
 -85.6973
 -85.6565
 -85.6545
 -85.694
 -85.6954
 -85.6941
 -85.6922
 -85.7411
 -85.7423
 -85.7524
 -85.7522
 -85.7527
 -85.752
 -85.7085
 -85.7102
 -85.7102
 -85.7103
 -85.7609
 -85.7613
 -85.7621
 -85.7613
 -85.7069
 -85.7073
 -85.7037
 -85.7037
 -85.7452
 -85.7455
 -85.7444
 -85.7429
 -85.6999
 -85.7
 -85.7009
 -85.7008
 -85.745
 -85.7458
 -85.7438
 -85.745
 -85.7141
 -85.7161
 -85.7578
 -85.7573
 -85.7394
 -85.7408
 -85.739
 -85.741
 -85.7383
 -85.7377
 -85.7379
 -85.7397
 -85.7267
 -85.7259
 -85.7275
 -85.7272
 -85.7448
 -85.7431
 -85.7454
 -85.7462
 -85.6991
 -85.6974
 -85.6983
 -85.6982
 -85.7569
 -85.7566
 -85.7564
 -85.7583
 -85.759
 -85.7579
 -85.7586
 -85.6919
 -85.6937
 -85.6937
 -85.6928
 -85.7397
 -85.7379
 -85.7381
 -85.739
 -85.6895
 -85.6915
 -85.6916
 -85.6934
 -85.7254
 -85.7188
 -85.7213
 -85.7214
 -85.7191
 -85.7497
 -85.7497
 -85.7496
 -85.7481
 -85.6629
 -85.6611
 -85.6623
 -85.6643
 -85.7389
 -85.7398
 -85.7409
 -85.7395
 -85.7229
 -85.7245
 -85.7209
 -85.7224
 -85.7431
 -85.7418
 -85.7416
 -85.7414
 -85.7357
 -85.7661
 -85.7658
 -85.7646
 -85.7651
 -85.7464
 -85.7468
 -85.7448
 -85.7451
 -85.6553
 -85.6561
 -85.6576
 -85.6551
 -85.7143
 -85.7125
 -85.7116
 -85.7131
 -85.7046
 -85.7242
 -85.7244
 -85.7248
 -85.7263
 -85.7551
 -85.7552
 -85.7539
 -85.7532
 -85.7506
 -85.7503
 -85.752
 -85.7547
 -85.7522
 -85.7534
 -85.7529
 -85.6416
 -85.6423
 -85.7448
 -85.7442
 -85.744
 -85.7028
 -85.7027
 -85.7022
 -85.7043
 -85.7416
 -85.7409
 -85.7416
 -85.7402
 -85.7267
 -85.7388
 -85.7371
 -85.7389
 -85.7384
 -85.7576
 -85.7552
 -85.756
 -85.7574
 -85.7382
 -85.7394
 -85.7411
 -85.7385
 -85.7132
 -85.714
 -85.7112
 -85.7154
 -85.6933
 -85.6936
 -85.6928
 -85.6939
 -85.7647
 -85.7635
 -85.7648
 -85.7645
 -85.7418
 -85.7413
 -85.7423
 -85.7406
 -85.7636
 -85.7632
 -85.7633
 -85.7641
 -85.7033
 -85.7006
 -85.7034
 -85.7037
 -85.7255
 -85.7247
 -85.7575
 -85.7592
 -85.7575
 -85.7583
 -85.7262
 -85.7265
 -85.7264
 -85.7282
 -85.7201
 -85.7219
 -85.7259
 -85.7264
 -85.7279
 -85.7258
 -85.7515
 -85.7515
 -85.751
 -85.7526
 -85.7082
 -85.706
 -85.705
 -85.707
 -85.6783
 -85.6798
 -85.6784
 -85.6784
 -85.6894
 -85.6885
 -85.6886
 -85.6884
 -85.7059
 -85.7072
 -85.7074
 -85.7056
 -85.715
 -85.7125
 -85.7142
 -85.7183
 -85.7157
 -85.7171
 -85.7176
 -85.7245
 -85.7235
 -85.7227
 -85.7244
 -85.6778
 -85.6776
 -85.6784
 -85.712
 -85.7105
 -85.7129
 -85.7124
 -85.7274
 -85.729
 -85.7289
 -85.7267
 -85.7007
 -85.6985
 -85.7013
 -85.6987
 -85.707
 -85.7085
 -85.7083
 -85.708
 -85.7291
 -85.7289
 -85.7302
 -85.7315
 -85.7235
 -85.7218
 -85.7232
 -85.7228
 -85.7398
 -85.7391
 -85.7396
 -85.7389
 -85.6878
 -85.6884
 -85.6889
 -85.7488
 -85.748
 -85.7498
 -85.7484
 -85.7011
 -85.7029
 -85.7014
 -85.7002
 -85.7155
 -85.7148
 -85.7137
 -85.7162
 -85.7186
 -85.7203
 -85.7206
 -85.732
 -85.732
 -85.7326
 -85.7338
 -85.7376
 -85.7377
 -85.7388
 -85.7367
 -85.7394
 -85.7401
 -85.7412
 -85.7522
 -85.7526
 -85.7528
 -85.7375
 -85.7367
 -85.7356
 -85.7365
 -85.7522
 -85.7528
 -85.7511
 -85.7564
 -85.7565
 -85.7563
 -85.7552
 -85.7194
 -85.716
 -85.7182
 -85.717
 -85.7037
 -85.7024
 -85.7045
 -85.703
 -85.6975
 -85.7521
 -85.7516
 -85.7537
 -85.7514
 -85.7525
 -85.7499
 -85.6375
 -85.6367
 -85.6377
 -85.6386
 -85.7452
 -85.7439
 -85.715
 -85.7142
 -85.7163
 -85.7634
 -85.7643
 -85.7327
 -85.7304
 -85.7311
 -85.7317
 -85.7138
 -85.7147
 -85.7148
 -85.7458
 -85.7485
 -85.7472
 -85.7479
 -85.7048
 -85.7054
 -85.7041
 -85.7063
 -85.6504
 -85.6521
 -85.6516
 -85.6496
 -85.7308
 -85.731
 -85.7306
 -85.7325
 -85.7505
 -85.7532
 -85.7508
 -85.7476
 -85.7472
 -85.7478
 -85.7466
 -85.6996
 -85.6972
 -85.6973
 -85.6961
 -85.7021
 -85.7035
 -85.6922
 -85.6938
 -85.6915
 -85.7628
 -85.7619
 -85.7495
 -85.7478
 -85.7495
 -85.7478
 -85.7253
 -85.7275
 -85.7269
 -85.7448
 -85.743
 -85.7461
 -85.7458
 -85.701
 -85.6978
 -85.6984
 -85.6999
 -85.7218
 -85.7215
 -85.7234
 -85.7237
 -85.7213
 -85.7225
 -85.723
 -85.7214
 -85.6971
 -85.698
 -85.6967
 -85.703
 -85.7017
 -85.7027
 -85.7024
 -85.7667
 -85.7673
 -85.7669
 -85.7678
 -85.6837
 -85.6811
 -85.7556
 -85.7565
 -85.7563
 -85.7555
 -85.7168
 -85.7186
 -85.7178
 -85.7167
 -85.7279
 -85.729
 -85.729
 -85.7293
 -85.6891
 -85.6903
 -85.7234
 -85.7221
 -85.7221
 -85.7209
 -85.7153
 -85.7145
 -85.7139
 -85.7159
 -85.7506
 -85.7504
 -85.7499
 -85.7508
 -85.7188
 -85.7205
 -85.7206
 -85.7183
 -85.7039
 -85.7042
 -85.7343
 -85.7344
 -85.7334
 -85.7347
 -85.7416
 -85.7412
 -85.7425
 -85.7254
 -85.7273
 -85.7266
 -85.7276
 -85.6954
 -85.6965
 -85.6949
 -85.6975
 -85.6491
 -85.6513
 -85.6508
 -85.6487
 -85.7202
 -85.7193
 -85.7211
 -85.7229
 -85.7292
 -85.7312
 -85.7294
 -85.7294
 -85.7131
 -85.7142
 -85.7121
 -85.7125
 -85.705
 -85.704
 -85.7054
 -85.7063
 -85.7512
 -85.7523
 -85.7342
 -85.7333
 -85.7325
 -85.6671
 -85.6663
 -85.665
 -85.6676
 -85.6985
 -85.697
 -85.6991
 -85.6961
 -85.7261
 -85.7264
 -85.7256
 -85.7247
 -85.7512
 -85.7517
 -85.7516
 -85.7169
 -85.7159
 -85.7139
 -85.7139
 -85.7025
 -85.705
 -85.704
 -85.7024
 -85.7432
 -85.7412
 -85.7412
 -85.7422
 -85.7318
 -85.7313
 -85.7305
 -85.7307
 -85.7471
 -85.7473
 -85.7471
 -85.7462
 -85.7463
 -85.7465
 -85.7462
 -85.7111
 -85.7117
 -85.71
 -85.7094
 -85.7188
 -85.7179
 -85.7196
 -85.6533
 -85.6538
 -85.6536
 -85.6523
 -85.7039
 -85.7041
 -85.6823
 -85.681
 -85.6831
 -85.6844
 -85.6967
 -85.6904
 -85.7536
 -85.7048
 -85.7029
 -85.7042
 -85.7022
 -85.7647
 -85.7341
 -85.7329
 -85.7339
 -85.7319
 -85.704
 -85.7053
 -85.7044
 -85.7118
 -85.7135
 -85.7135
 -85.7485
 -85.7488
 -85.747
 -85.7487
 -85.7491
 -85.7482
 -85.7493
 -85.7482
 -85.6933
 -85.6907
 -85.6908
 -85.6924
 -85.7592
 -85.7593
 -85.7601
 -85.7585
 -85.7219
 -85.7205
 -85.7187
 -85.7486
 -85.7495
 -85.7492
 -85.7282
 -85.7265
 -85.7272
 -85.7285
 -85.7048
 -85.7059
 -85.7038
 -85.7043
 -85.7294
 -85.7319
 -85.7293
 -85.7073
 -85.7082
 -85.7081
 -85.7063
 -85.7167
 -85.7191
 -85.7497
 -85.7508
 -85.7511
 -85.7523
 -85.7538
 -85.7554
 -85.7544
 -85.7541
 -85.6959
 -85.6978
 -85.6954
 -85.6974
 -85.7416
 -85.7395
 -85.7407
 -85.7421
 -85.7328
 -85.7302
 -85.7322
 -85.7337
 -85.7137
 -85.712
 -85.7147
 -85.7132
 -85.7519
 -85.7511
 -85.7507
 -85.7499
 -85.7174
 -85.7154
 -85.7185
 -85.7175
 -85.7223
 -85.7214
 -85.7212
 -85.7239
 -85.7167
 -85.7154
 -85.717
 -85.7173
 -85.6988
 -85.7009
 -85.6937
 -85.695
 -85.6964
 -85.694
 -85.6785
 -85.6757
 -85.678
 -85.6787
 -85.7334
 -85.7332
 -85.7327
 -85.7347
 -85.73
 -85.7286
 -85.7283
 -85.7606
 -85.7609
 -85.7609
 -85.7609
 -85.7625
 -85.7634
 -85.7621
 -85.7556
 -85.7563
 -85.7545
 -85.7286
 -85.7307
 -85.7317
 -85.7292
 -85.7389
 -85.7397
 -85.7405
 -85.7379
 -85.7497
 -85.7509
 -85.7501
 -85.7511
 -85.7059
 -85.704
 -85.7045
 -85.7056
 -85.6841
 -85.6855
 -85.6866
 -85.6866
 -85.7638
 -85.7641
 -85.7628
 -85.7649
 -85.7015
 -85.7009
 -85.6998
 -85.7017
 -85.7257
 -85.7255
 -85.7265
 -85.7251
 -85.7645
 -85.7644
 -85.7631
 -85.7654
 -85.734
 -85.7322
 -85.7346
 -85.734
 -85.7155
 -85.7147
 -85.7157
 -85.7148
 -85.7027
 -85.7012
 -85.7015
 -85.6904
 -85.6925
 -85.6912
 -85.6901
 -85.697
 -85.6965
 -85.6974
 -85.6963
 -85.6946
 -85.6943
 -85.7001
 -85.7012
 -85.6978
 -85.7463
 -85.7452
 -85.7451
 -85.7448
 -85.7596
 -85.759
 -85.7591
 -85.759
 -85.7374
 -85.7367
 -85.7374
 -85.7352
 -85.718
 -85.7525
 -85.7531
 -85.753
 -85.7519
 -85.6919
 -85.6919
 -85.6917
 -85.6915
 -85.7607
 -85.7613
 -85.7605
 -85.762
 -85.7095
 -85.7085
 -85.711
 -85.7414
 -85.6906
 -85.6904
 -85.6889
 -85.6988
 -85.6976
 -85.6964
 -85.6995
 -85.7247
 -85.7245
 -85.7219
 -85.7239
 -85.7443
 -85.7442
 -85.7431
 -85.7455
 -85.7178
 -85.7411
 -85.7402
 -85.7401
 -85.719
 -85.7187
 -85.7191
 -85.7209
 -85.7075
 -85.708
 -85.7067
 -85.7065
 -85.712
 -85.7099
 -85.7114
 -85.7119
 -85.7418
 -85.701
 -85.7015
 -85.7022
 -85.7457
 -85.7446
 -85.7462
 -85.7452
 -85.7518
 -85.7514
 -85.7531
 -85.7508
 -85.7583
 -85.759
 -85.7582
 -85.7066
 -85.7068
 -85.7055
 -85.7067
 -85.6863
 -85.6853
 -85.6864
 -85.7481
 -85.7481
 -85.7511
 -85.7505
 -85.7498
 -85.7497
 -85.7185
 -85.7193
 -85.7202
 -85.7617
 -85.7615
 -85.7624
 -85.7614
 -85.7514
 -85.751
 -85.7516
 -85.752
 -85.7355
 -85.7358
 -85.7367
 -85.7372
 -85.7268
 -85.7274
 -85.7263
 -85.7248
 -85.7026
 -85.7024
 -85.7018
 -85.7032
 -85.7508
 -85.7508
 -85.7499
 -85.7518
 -85.7079
 -85.7085
 -85.7061
 -85.7129
 -85.7145
 -85.715
 -85.7152
 -85.7588
 -85.7584
 -85.76
 -85.7593
 -85.7403
 -85.7404
 -85.7401
 -85.7393
 -85.7625
 -85.7617
 -85.7607
 -85.7621
 -85.7109
 -85.7121
 -85.7129
 -85.7126
 -85.726
 -85.7264
 -85.7246
 -85.7278
 -85.7545
 -85.7543
 -85.7552
 -85.7547
 -85.7242
 -85.7256
 -85.7233
 -85.7238
 -85.7627
 -85.7636
 -85.7627
 -85.7052
 -85.7045
 -85.7044
 -85.7047
 -85.7299
 -85.7299
 -85.729
 -85.7281
 -85.7337
 -85.7351
 -85.7337
 -85.7342
 -85.7216
 -85.7207
 -85.7235
 -85.7214
 -85.7519
 -85.7519
 -85.7534
 -85.7523
 -85.7205
 -85.7185
 -85.7197
 -85.7192
 -85.7335
 -85.733
 -85.733
 -85.7323
 -85.6911
 -85.6911
 -85.6908
 -85.6911
 -85.7478
 -85.748
 -85.7468
 -85.746
 -85.6888
 -85.6887
 -85.6888
 -85.7026
 -85.7017
 -85.7017
 -85.7028
 -85.6942
 -85.6953
 -85.6988
 -85.6958
 -85.7432
 -85.7429
 -85.7439
 -85.7447
 -85.7375
 -85.7395
 -85.7377
 -85.7383
 -85.709
 -85.7073
 -85.7075
 -85.7063
 -85.7659
 -85.7653
 -85.7646
 -85.6542
 -85.6537
 -85.7329
 -85.7341
 -85.732
 -85.733
 -85.6722
 -85.6698
 -85.6674
 -85.6694
 -85.7373
 -85.7378
 -85.7395
 -85.7385
 -85.7137
 -85.7087
 -85.7078
 -85.7074
 -85.7063
 -85.7452
 -85.7454
 -85.7458
 -85.7464
 -85.7554
 -85.7545
 -85.7561
 -85.755
 -85.691
 -85.691
 -85.7409
 -85.7417
 -85.744
 -85.7415
 -85.7291
 -85.7259
 -85.7296
 -85.7278
 -85.7016
 -85.7015
 -85.7005
 -85.7041
 -85.7206
 -85.7187
 -85.7184
 -85.7205
 -85.7496
 -85.748
 -85.7515
 -85.7601
 -85.7597
 -85.7598
 -85.7596
 -85.764
 -85.764
 -85.7645
 -85.7095
 -85.7086
 -85.7088
 -85.7101
 -85.7557
 -85.7551
 -85.7544
 -85.7544
 -85.6953
 -85.694
 -85.6945
 -85.6948
 -85.7369
 -85.7361
 -85.7371
 -85.7349
 -85.729
 -85.7311
 -85.7294
 -85.7294
 -85.7599
 -85.76
 -85.7598
 -85.7606
 -85.7394
 -85.74
 -85.7391
 -85.7381
 -85.6657
 -85.6645
 -85.6642
 -85.6658
 -85.7176
 -85.7146
 -85.7173
 -85.7156
 -85.709
 -85.7111
 -85.7113
 -85.7086
 -85.7439
 -85.7443
 -85.7429
 -85.7421
 -85.6971
 -85.696
 -85.6955
 -85.6956
 -85.732
 -85.7308
 -85.7306
 -85.7326
 -85.7061
 -85.7052
 -85.7044
 -85.6831
 -85.682
 -85.6817
 -85.6814
 -85.7319
 -85.7337
 -85.7313
 -85.7357
 -85.7356
 -85.7348
 -85.7011
 -85.6997
 -85.6984
 -85.6957
 -85.6955
 -85.6963
 -85.6969
 -85.7549
 -85.6354
 -85.6363
 -85.636
 -85.6346
 -85.7515
 -85.7507
 -85.7525
 -85.7514
 -85.6908
 -85.7122
 -85.7118
 -85.7117
 -85.7137
 -85.7091
 -85.7077
 -85.7115
 -85.6986
 -85.7013
 -85.7001
 -85.6993
 -85.6686
 -85.6683
 -85.6698
 -85.6666
 -85.6949
 -85.6961
 -85.6959
 -85.7273
 -85.7264
 -85.7263
 -85.7095
 -85.7088
 -85.767
 -85.766
 -85.7659
 -85.6944
 -85.6962
 -85.6938
 -85.7106
 -85.712
 -85.7128
 -85.7556
 -85.7568
 -85.7568
 -85.7452
 -85.7453
 -85.7465
 -85.7455
 -85.7014
 -85.7022
 -85.703
 -85.6885
 -85.6867
 -85.7596
 -85.7589
 -85.7603
 -85.7599
 -85.6749
 -85.6758
 -85.673
 -85.6772
 -85.6941
 -85.6934
 -85.6488
 -85.6472
 -85.6598
 -85.6594
 -85.6602
 -85.7117
 -85.7132
 -85.7111
 -85.7585
 -85.7572
 -85.7562
 -85.7402
 -85.7401
 -85.7414
 -85.7034
 -85.7034
 -85.7052
 -85.7063
 -85.7046
 -85.7539
 -85.6881
 -85.688
 -85.6888
 -85.6888
 -85.7098
 -85.713
 -85.7106
 -85.711
 -85.7438
 -85.7438
 -85.7449
 -85.7395
 -85.7398
 -85.7388
 -85.7393
 -85.7118
 -85.711
 -85.7129
 -85.7144
 -85.7419
 -85.7422
 -85.7438
 -85.7437
 -85.7459
 -85.7449
 -85.7457
 -85.7471
 -85.7221
 -85.7412
 -85.742
 -85.742
 -85.7427
 -85.7621
 -85.7627
 -85.762
 -85.7614
 -85.698
 -85.6948
 -85.6941
 -85.6963
 -85.7599
 -85.761
 -85.7605
 -85.7603
 -85.6466
 -85.648
 -85.6461
 -85.7581
 -85.7574
 -85.7593
 -85.7589
 -85.699
 -85.6987
 -85.6969
 -85.697
 -85.7488
 -85.7473
 -85.7484
 -85.7495
 -85.6945
 -85.6946
 -85.6906
 -85.6916
 -85.7621
 -85.7486
 -85.7468
 -85.7477
 -85.7463
 -85.7549
 -85.7559
 -85.7557
 -85.6883
 -85.6893
 -85.688
 -85.6874
 -85.7428
 -85.7417
 -85.7416
 -85.7407
 -85.7316
 -85.7334
 -85.7335
 -85.7327
 -85.7287
 -85.7296
 -85.7277
 -85.7273
 -85.7656
 -85.7645
 -85.7147
 -85.7148
 -85.7145
 -85.7119
 -85.7135
 -85.7143
 -85.715
 -85.7418
 -85.7406
 -85.7431
 -85.7436
 -85.7404
 -85.741
 -85.7409
 -85.7423
 -85.7328
 -85.7334
 -85.7343
 -85.7323
 -85.7004
 -85.7002
 -85.7059
 -85.7048
 -85.7047
 -85.7108
 -85.7122
 -85.7121
 -85.7123
 -85.684
 -85.6824
 -85.6831
 -85.6829
 -85.7101
 -85.7083
 -85.7068
 -85.6681
 -85.6682
 -85.6702
 -85.71
 -85.71
 -85.7085
 -85.7113
 -85.6994
 -85.7015
 -85.6984
 -85.7209
 -85.7429
 -85.742
 -85.7441
 -85.7146
 -85.7143
 -85.7156
 -85.7166
 -85.6932
 -85.6932
 -85.6976
 -85.6955
 -85.7235
 -85.725
 -85.7253
 -85.7254
 -85.7476
 -85.7467
 -85.7658
 -85.7651
 -85.7646
 -85.7658
 -85.7424
 -85.7425
 -85.7434
 -85.7413
 -85.7169
 -85.7167
 -85.7165
 -85.7176
 -85.7619
 -85.7621
 -85.7638
 -85.7612
 -85.7614
 -85.7617
 -85.7621
 -85.7251
 -85.7233
 -85.7222
 -85.7242
 -85.693
 -85.6925
 -85.6937
 -85.7149
 -85.7148
 -85.7169
 -85.7148
 -85.6862
 -85.6842
 -85.6868
 -85.6839
 -85.7372
 -85.7373
 -85.7378
 -85.7339
 -85.6914
 -85.6915
 -85.6914
 -85.6918
 -85.7019
 -85.7029
 -85.7033
 -85.7026
 -85.7587
 -85.7574
 -85.7592
 -85.7577
 -85.7245
 -85.7246
 -85.723
 -85.7247
 -85.7096
 -85.7085
 -85.7101
 -85.7086
 -85.7448
 -85.7448
 -85.7462
 -85.7486
 -85.7478
 -85.7475
 -85.7129
 -85.715
 -85.7142
 -85.7168
 -85.7175
 -85.7188
 -85.7181
 -85.7181
 -85.6933
 -85.6944
 -85.693
 -85.7115
 -85.7103
 -85.7092
 -85.6404
 -85.6386
 -85.6403
 -85.6392
 -85.7031
 -85.7038
 -85.688
 -85.6891
 -85.6882
 -85.6863
 -85.7296
 -85.7277
 -85.7294
 -85.7273
 -85.6692
 -85.6719
 -85.6727
 -85.6708
 -85.6979
 -85.6975
 -85.696
 -85.7391
 -85.7394
 -85.7391
 -85.7383
 -85.6968
 -85.6985
 -85.6962
 -85.6921
 -85.6924
 -85.6902
 -85.691
 -85.7098
 -85.7089
 -85.7091
 -85.711
 -85.7454
 -85.7489
 -85.6592
 -85.6602
 -85.7016
 -85.7003
 -85.7181
 -85.7164
 -85.7171
 -85.7167
 -85.7368
 -85.7383
 -85.737
 -85.7389
 -85.7209
 -85.7211
 -85.7221
 -85.7224
 -85.687
 -85.6838
 -85.686
 -85.6855
 -85.7305
 -85.7287
 -85.7294
 -85.6934
 -85.6925
 -85.6932
 -85.6931
 -85.7558
 -85.7554
 -85.7566
 -85.7549
 -85.7378
 -85.7379
 -85.7381
 -85.7363
 -85.6952
 -85.6963
 -85.6947
 -85.7169
 -85.7148
 -85.7167
 -85.7176
 -85.6875
 -85.6869
 -85.6877
 -85.6969
 -85.699
 -85.6983
 -85.6972
 -85.6967
 -85.6964
 -85.698
 -85.6969
 -85.7163
 -85.7146
 -85.7143
 -85.7135
 -85.7619
 -85.7614
 -85.7607
 -85.761
 -85.7331
 -85.7352
 -85.7343
 -85.7348
 -85.715
 -85.7127
 -85.7143
 -85.7259
 -85.7252
 -85.725
 -85.7545
 -85.7526
 -85.7544
 -85.7533
 -85.7334
 -85.7334
 -85.7321
 -85.7344
 -85.7134
 -85.7151
 -85.7152
 -85.7155
 -85.6841
 -85.6844
 -85.6949
 -85.6941
 -85.6957
 -85.6957
 -85.6536
 -85.6528
 -85.6506
 -85.6531
 -85.7439
 -85.7441
 -85.7441
 -85.7433
 -85.6985
 -85.6967
 -85.6973
 -85.6971
 -85.7213
 -85.7198
 -85.7207
 -85.7186
 -85.6803
 -85.6793
 -85.6796
 -85.6791
 -85.727
 -85.7263
 -85.7255
 -85.7254
 -85.7166
 -85.7413
 -85.741
 -85.7393
 -85.7398
 -85.7137
 -85.7115
 -85.711
 -85.713
 -85.712
 -85.7131
 -85.7144
 -85.7137
 -85.7074
 -85.7056
 -85.706
 -85.7053
 -85.6941
 -85.6922
 -85.6951
 -85.7495
 -85.7498
 -85.7502
 -85.7474
 -85.7123
 -85.7118
 -85.7117
 -85.7111
 -85.748
 -85.7485
 -85.7497
 -85.7386
 -85.7372
 -85.7382
 -85.7378
 -85.7457
 -85.7479
 -85.7468
 -85.7482
 -85.6898
 -85.6917
 -85.6895
 -85.6345
 -85.6352
 -85.6354
 -85.7395
 -85.7416
 -85.7411
 -85.7272
 -85.7302
 -85.7288
 -85.7307
 -85.7095
 -85.7103
 -85.7111
 -85.7093
 -85.715
 -85.7156
 -85.7131
 -85.7137
 -85.6639
 -85.6652
 -85.6618
 -85.6656
 -85.7215
 -85.7206
 -85.7204
 -85.7202
 -85.7317
 -85.7322
 -85.7333
 -85.7309
 -85.6983
 -85.6986
 -85.7027
 -85.6996
 -85.7011
 -85.7014
 -85.7398
 -85.7385
 -85.7395
 -85.7392
 -85.6974
 -85.6989
 -85.7338
 -85.733
 -85.6878
 -85.6382
 -85.6379
 -85.638
 -85.6396
 -85.6796
 -85.6817
 -85.7638
 -85.765
 -85.764
 -85.6843
 -85.6861
 -85.6877
 -85.6861
 -85.7418
 -85.7414
 -85.7019
 -85.7015
 -85.7017
 -85.7019
 -85.7072
 -85.7104
 -85.7093
 -85.7416
 -85.7427
 -85.7419
 -85.7436
 -85.7348
 -85.7365
 -85.7348
 -85.7356
 -85.7512
 -85.7515
 -85.753
 -85.7152
 -85.7135
 -85.7154
 -85.713
 -85.7209
 -85.7515
 -85.7495
 -85.7511
 -85.7507
 -85.6887
 -85.6883
 -85.6891
 -85.6899
 -85.725
 -85.7232
 -85.7248
 -85.723
 -85.7441
 -85.7421
 -85.7436
 -85.7423
 -85.6476
 -85.6482
 -85.6491
 -85.6495
 -85.6953
 -85.7619
 -85.711
 -85.7134
 -85.7117
 -85.71
 -85.7242
 -85.7256
 -85.7235
 -85.723
 -85.699
 -85.6966
 -85.6979
 -85.6984
 -85.7274
 -85.7266
 -85.7274
 -85.7277
 -85.694
 -85.6943
 -85.6957
 -85.6917
 -85.693
 -85.6942
 -85.6929
 -85.7143
 -85.716
 -85.7131
 -85.7145
 -85.7442
 -85.7453
 -85.7424
 -85.7658
 -85.7667
 -85.7659
 -85.7655
 -85.6628
 -85.6611
 -85.6605
 -85.7195
 -85.7197
 -85.7158
 -85.7166
 -85.7146
 -85.7173
 -85.7574
 -85.757
 -85.7572
 -85.7579
 -85.7396
 -85.7384
 -85.7392
 -85.738
 -85.6937
 -85.6964
 -85.6946
 -85.6755
 -85.7135
 -85.7118
 -85.7123
 -85.7137
 -85.7176
 -85.7185
 -85.7181
 -85.7382
 -85.7374
 -85.7374
 -85.7387
 -85.7451
 -85.7431
 -85.7445
 -85.7437
 -85.7116
 -85.7105
 -85.7405
 -85.7403
 -85.7413
 -85.7424
 -85.7286
 -85.7281
 -85.7283
 -85.7299
 -85.7608
 -85.7613
 -85.7321
 -85.7305
 -85.7322
 -85.7314
 -85.7406
 -85.7414
 -85.7419
 -85.7424
 -85.7381
 -85.7392
 -85.738
 -85.7382
 -85.7199
 -85.7207
 -85.7146
 -85.7156
 -85.7141
 -85.7131
 -85.7063
 -85.7047
 -85.7056
 -85.7058
 -85.7282
 -85.7294
 -85.7294
 -85.7282
 -85.6926
 -85.6939
 -85.6948
 -85.6955
 -85.6988
 -85.6983
 -85.6976
 -85.6983
 -85.6579
 -85.6589
 -85.6585
 -85.6564
 -85.7061
 -85.7034
 -85.726
 -85.7235
 -85.7256
 -85.7245
 -85.7112
 -85.7106
 -85.712
 -85.713
 -85.7229
 -85.7241
 -85.7247
 -85.7236
 -85.7159
 -85.7158
 -85.7411
 -85.7404
 -85.7636
 -85.7638
 -85.7638
 -85.7642
 -85.686
 -85.7148
 -85.7147
 -85.7154
 -85.7165
 -85.7227
 -85.7208
 -85.7214
 -85.7214
 -85.703
 -85.7018
 -85.7013
 -85.6998
 -85.7375
 -85.7355
 -85.7374
 -85.7357
 -85.724
 -85.7227
 -85.7221
 -85.7238
 -85.6938
 -85.6934
 -85.6945
 -85.6924
 -85.6918
 -85.7092
 -85.7115
 -85.7093
 -85.711
 -85.7089
 -85.7117
 -85.7094
 -85.7085
 -85.6944
 -85.6944
 -85.6929
 -85.6943
 -85.699
 -85.6997
 -85.7021
 -85.7011
 -85.716
 -85.7176
 -85.7149
 -85.7148
 -85.6946
 -85.6938
 -85.6932
 -85.6937
 -85.7266
 -85.7273
 -85.7249
 -85.7036
 -85.7035
 -85.7032
 -85.7029
 -85.6717
 -85.6732
 -85.7257
 -85.7268
 -85.7274
 -85.7244
 -85.7266
 -85.7257
 -85.7266
 -85.6887
 -85.69
 -85.6908
 -85.6838
 -85.6847
 -85.6847
 -85.6839
 -85.7332
 -85.733
 -85.734
 -85.7321
 -85.7243
 -85.7219
 -85.7245
 -85.7473
 -85.745
 -85.746
 -85.7185
 -85.717
 -85.7174
 -85.7512
 -85.7513
 -85.7513
 -85.6526
 -85.6511
 -85.6515
 -85.6526
 -85.761
 -85.7614
 -85.7608
 -85.7614
 -85.7061
 -85.7046
 -85.7284
 -85.7265
 -85.6934
 -85.6937
 -85.6935
 -85.6951
 -85.7311
 -85.7306
 -85.7326
 -85.7423
 -85.7435
 -85.7434
 -85.7437
 -85.7507
 -85.7487
 -85.6891
 -85.6893
 -85.6887
 -85.7265
 -85.7261
 -85.7246
 -85.7011
 -85.6992
 -85.7011
 -85.6892
 -85.6892
 -85.6884
 -85.6878
 -85.7136
 -85.7141
 -85.7125
 -85.7147
 -85.7113
 -85.7093
 -85.71
 -85.7109
 -85.736
 -85.7354
 -85.7353
 -85.7371
 -85.7417
 -85.7408
 -85.7415
 -85.7398
 -85.7088
 -85.7084
 -85.7103
 -85.7332
 -85.7329
 -85.7319
 -85.739
 -85.7403
 -85.7392
 -85.7395
 -85.7674
 -85.7669
 -85.7676
 -85.7206
 -85.7202
 -85.7201
 -85.7377
 -85.7385
 -85.7364
 -85.7182
 -85.7194
 -85.7173
 -85.7047
 -85.7026
 -85.703
 -85.6896
 -85.6906
 -85.69
 -85.6903
 -85.7186
 -85.718
 -85.7199
 -85.7185
 -85.701
 -85.7002
 -85.6988
 -85.6933
 -85.695
 -85.7371
 -85.736
 -85.7385
 -85.737
 -85.7372
 -85.7383
 -85.7368
 -85.7355
 -85.6947
 -85.6965
 -85.6974
 -85.698
 -85.6937
 -85.6922
 -85.6929
 -85.6919
 -85.6781
 -85.6771
 -85.6782
 -85.6765
 -85.7565
 -85.7571
 -85.749
 -85.7473
 -85.7481
 -85.7491
 -85.7606
 -85.7038
 -85.7057
 -85.7034
 -85.722
 -85.7227
 -85.7212
 -85.7209
 -85.695
 -85.6947
 -85.7167
 -85.7166
 -85.7178
 -85.6872
 -85.6878
 -85.7467
 -85.747
 -85.7484
 -85.7459
 -85.7521
 -85.7518
 -85.7539
 -85.7529
 -85.7436
 -85.7441
 -85.7424
 -85.7057
 -85.707
 -85.7069
 -85.7508
 -85.7507
 -85.7513
 -85.7517
 -85.7007
 -85.6983
 -85.7001
 -85.701
 -85.745
 -85.744
 -85.7439
 -85.7449
 -85.7012
 -85.699
 -85.6985
 -85.7021
 -85.6905
 -85.6913
 -85.6896
 -85.7609
 -85.7627
 -85.7617
 -85.7614
 -85.692
 -85.6927
 -85.6924
 -85.7134
 -85.7142
 -85.7157
 -85.7143
 -85.7582
 -85.7595
 -85.7588
 -85.7005
 -85.699
 -85.7006
 -85.6994
 -85.7329
 -85.7555
 -85.7561
 -85.7536
 -85.7552
 -85.6869
 -85.6874
 -85.6882
 -85.6874
 -85.7382
 -85.7357
 -85.7374
 -85.7383
 -85.7211
 -85.7217
 -85.719
 -85.6905
 -85.6894
 -85.6911
 -85.6869
 -85.7347
 -85.7344
 -85.7355
 -85.6987
 -85.6981
 -85.6549
 -85.6531
 -85.6553
 -85.6562
 -85.6789
 -85.675
 -85.6746
 -85.7516
 -85.7509
 -85.7543
 -85.7524
 -85.7522
 -85.753
 -85.6824
 -85.6833
 -85.6809
 -85.6835
 -85.7111
 -85.7121
 -85.7121
 -85.7125
 -85.7166
 -85.7142
 -85.7145
 -85.7153
 -85.7251
 -85.7245
 -85.7265
 -85.7246
 -85.7263
 -85.7235
 -85.7254
 -85.7241
 -85.758
 -85.6935
 -85.6929
 -85.6937
 -85.6931
 -85.7589
 -85.7582
 -85.7596
 -85.7279
 -85.726
 -85.7253
 -85.7259
 -85.6892
 -85.691
 -85.6915
 -85.7234
 -85.7218
 -85.723
 -85.7216
 -85.7188
 -85.7356
 -85.7362
 -85.7378
 -85.7373
 -85.7017
 -85.7017
 -85.7017
 -85.7192
 -85.7223
 -85.7213
 -85.7592
 -85.7585
 -85.7575
 -85.7585
 -85.7175
 -85.7167
 -85.7163
 -85.6477
 -85.6488
 -85.6465
 -85.7174
 -85.7162
 -85.7172
 -85.7146
 -85.7367
 -85.7382
 -85.7379
 -85.7206
 -85.7207
 -85.7512
 -85.7517
 -85.7504
 -85.7505
 -85.7437
 -85.745
 -85.7441
 -85.7441
 -85.7623
 -85.762
 -85.7613
 -85.7608
 -85.7256
 -85.7223
 -85.7247
 -85.7255
 -85.7403
 -85.7399
 -85.7393
 -85.7385
 -85.7512
 -85.7522
 -85.753
 -85.6996
 -85.7006
 -85.6979
 -85.6989
 -85.7153
 -85.7171
 -85.7078
 -85.7066
 -85.7082
 -85.7074
 -85.7368
 -85.7363
 -85.7366
 -85.7375
 -85.7174
 -85.7191
 -85.7184
 -85.717
 -85.7359
 -85.7351
 -85.7374
 -85.7355
 -85.72
 -85.7207
 -85.7218
 -85.7222
 -85.7185
 -85.7169
 -85.7173
 -85.7495
 -85.7485
 -85.7494
 -85.7564
 -85.756
 -85.7558
 -85.7579
 -85.7534
 -85.7533
 -85.7543
 -85.7408
 -85.7426
 -85.7411
 -85.6614
 -85.6608
 -85.6593
 -85.7151
 -85.7173
 -85.7155
 -85.7485
 -85.7492
 -85.7486
 -85.7483
 -85.7149
 -85.7158
 -85.7147
 -85.7261
 -85.7271
 -85.7266
 -85.7253
 -85.7328
 -85.7292
 -85.7305
 -85.7302
 -85.7187
 -85.7201
 -85.7199
 -85.7213
 -85.6965
 -85.6977
 -85.6967
 -85.696
 -85.7156
 -85.7261
 -85.7261
 -85.7271
 -85.7238
 -85.6918
 -85.6923
 -85.6925
 -85.6924
 -85.6896
 -85.6911
 -85.6901
 -85.6909
 -85.694
 -85.6945
 -85.6944
 -85.6933
 -85.7336
 -85.7336
 -85.7354
 -85.7363
 -85.6997
 -85.6986
 -85.6993
 -85.6997
 -85.762
 -85.7608
 -85.7618
 -85.7609
 -85.6748
 -85.6759
 -85.6774
 -85.677
 -85.6978
 -85.6979
 -85.6975
 -85.6863
 -85.6852
 -85.6846
 -85.6847
 -85.692
 -85.691
 -85.6932
 -85.6932
 -85.6935
 -85.7217
 -85.7214
 -85.7225
 -85.7252
 -85.7567
 -85.7555
 -85.755
 -85.7564
 -85.7561
 -85.7569
 -85.7557
 -85.6955
 -85.6944
 -85.7602
 -85.7612
 -85.7599
 -85.7498
 -85.7495
 -85.7497
 -85.751
 -85.692
 -85.6913
 -85.692
 -85.7616
 -85.7619
 -85.761
 -85.7624
 -85.7067
 -85.7073
 -85.7085
 -85.7057
 -85.6945
 -85.6922
 -85.6931
 -85.6947
 -85.6857
 -85.6881
 -85.6871
 -85.6866
 -85.6679
 -85.6683
 -85.6669
 -85.6668
 -85.73
 -85.733
 -85.7317
 -85.7324
 -85.7086
 -85.7088
 -85.708
 -85.7058
 -85.7609
 -85.7599
 -85.7609
 -85.645
 -85.6473
 -85.6459
 -85.6483
 -85.6786
 -85.6807
 -85.6794
 -85.6813
 -85.7608
 -85.7622
 -85.7615
 -85.7614
 -85.7199
 -85.72
 -85.7217
 -85.753
 -85.7547
 -85.7551
 -85.695
 -85.6946
 -85.6923
 -85.7612
 -85.7605
 -85.7602
 -85.7608
 -85.7496
 -85.7488
 -85.7484
 -85.7473
 -85.7018
 -85.7029
 -85.7043
 -85.7027
 -85.7087
 -85.7067
 -85.7084
 -85.7061
 -85.7445
 -85.7446
 -85.7447
 -85.7463
 -85.7241
 -85.7232
 -85.7219
 -85.7228
 -85.672
 -85.6741
 -85.6743
 -85.6738
 -85.7513
 -85.7486
 -85.7504
 -85.7495
 -85.7626
 -85.7213
 -85.7218
 -85.723
 -85.7229
 -85.7556
 -85.7564
 -85.756
 -85.7574
 -85.6921
 -85.6922
 -85.6924
 -85.6925
 -85.7599
 -85.7607
 -85.7594
 -85.7589
 -85.7177
 -85.7172
 -85.7094
 -85.7085
 -85.71
 -85.7104
 -85.743
 -85.7413
 -85.7413
 -85.7413
 -85.7262
 -85.728
 -85.7275
 -85.7082
 -85.7079
 -85.7086
 -85.7439
 -85.7436
 -85.742
 -85.7422
 -85.7396
 -85.7388
 -85.7404
 -85.7391
 -85.6957
 -85.6947
 -85.6943
 -85.7188
 -85.7225
 -85.7227
 -85.7203
 -85.6752
 -85.6744
 -85.6766
 -85.6737
 -85.6719
 -85.7612
 -85.7587
 -85.7613
 -85.7595
 -85.7218
 -85.7209
 -85.72
 -85.7218
 -85.7527
 -85.7536
 -85.7142
 -85.7114
 -85.7118
 -85.7006
 -85.6991
 -85.7016
 -85.7011
 -85.7602
 -85.7597
 -85.7608
 -85.7607
 -85.694
 -85.6945
 -85.6943
 -85.7018
 -85.7013
 -85.7027
 -85.7014
 -85.7076
 -85.7098
 -85.7081
 -85.7059
 -85.7362
 -85.7391
 -85.737
 -85.738
 -85.6986
 -85.7009
 -85.6997
 -85.6993
 -85.7418
 -85.7307
 -85.7327
 -85.7332
 -85.7301
 -85.756
 -85.7565
 -85.7549
 -85.7589
 -85.7584
 -85.7583
 -85.7574
 -85.732
 -85.7331
 -85.7311
 -85.7321
 -85.7641
 -85.7639
 -85.7639
 -85.7626
 -85.708
 -85.7275
 -85.725
 -85.7251
 -85.7268
 -85.722
 -85.7191
 -85.7206
 -85.7211
 -85.6684
 -85.6707
 -85.6713
 -85.6692
 -85.7164
 -85.7169
 -85.7176
 -85.7154
 -85.7135
 -85.7137
 -85.7142
 -85.7153
 -85.7149
 -85.7152
 -85.7167
 -85.753
 -85.7518
 -85.7512
 -85.7134
 -85.7112
 -85.7118
 -85.7126
 -85.7511
 -85.7531
 -85.7521
 -85.7193
 -85.7179
 -85.7237
 -85.7249
 -85.7244
 -85.7233
 -85.7226
 -85.7232
 -85.721
 -85.7214
 -85.7238
 -85.723
 -85.7546
 -85.7552
 -85.7552
 -85.7083
 -85.7581
 -85.7261
 -85.7273
 -85.7258
 -85.7242
 -85.6919
 -85.6918
 -85.6899
 -85.6963
 -85.6982
 -85.6992
 -85.7232
 -85.7239
 -85.7219
 -85.7179
 -85.7179
 -85.7187
 -85.7197
 -85.722
 -85.7205
 -85.7231
 -85.7207
 -85.6461
 -85.6467
 -85.6446
 -85.7439
 -85.7423
 -85.7436
 -85.7178
 -85.7183
 -85.7477
 -85.7458
 -85.7464
 -85.7456
 -85.7285
 -85.73
 -85.7284
 -85.669
 -85.6699
 -85.6672
 -85.668
 -85.7131
 -85.711
 -85.7128
 -85.711
 -85.6971
 -85.6964
 -85.6956
 -85.6952
 -85.7356
 -85.7333
 -85.7348
 -85.7356
 -85.7052
 -85.7035
 -85.7049
 -85.7026
 -85.675
 -85.6746
 -85.6748
 -85.7078
 -85.7072
 -85.7062
 -85.7067
 -85.7358
 -85.7377
 -85.7369
 -85.7372
 -85.7199
 -85.7219
 -85.7221
 -85.7211
 -85.6999
 -85.6991
 -85.7001
 -85.7115
 -85.71
 -85.7106
 -85.7105
 -85.6965
 -85.6946
 -85.6967
 -85.6951
 -85.6872
 -85.6896
 -85.6888
 -85.6865
 -85.76
 -85.7606
 -85.7601
 -85.7606
 -85.6948
 -85.696
 -85.6957
 -85.696
 -85.6989
 -85.6977
 -85.6993
 -85.6993
 -85.7329
 -85.7349
 -85.7344
 -85.7356
 -85.7065
 -85.7062
 -85.708
 -85.7071
 -85.7665
 -85.7668
 -85.7667
 -85.767
 -85.715
 -85.7141
 -85.7158
 -85.6906
 -85.6894
 -85.6898
 -85.6914
 -85.6941
 -85.6935
 -85.6939
 -85.6934
 -85.6942
 -85.6914
 -85.7391
 -85.7374
 -85.739
 -85.7369
 -85.766
 -85.7653
 -85.7657
 -85.7655
 -85.7107
 -85.7091
 -85.7099
 -85.7089
 -85.6962
 -85.6953
 -85.6951
 -85.7351
 -85.7333
 -85.7334
 -85.7346
 -85.7149
 -85.7148
 -85.7154
 -85.7171
 -85.7007
 -85.701
 -85.7006
 -85.7021
 -85.6893
 -85.6917
 -85.6902
 -85.745
 -85.7467
 -85.7474
 -85.7454
 -85.7502
 -85.7499
 -85.7487
 -85.711
 -85.7106
 -85.7119
 -85.7131
 -85.7125
 -85.7117
 -85.7138
 -85.6998
 -85.7018
 -85.7028
 -85.702
 -85.7344
 -85.7336
 -85.7325
 -85.6941
 -85.694
 -85.6922
 -85.7211
 -85.723
 -85.7223
 -85.7501
 -85.7484
 -85.7496
 -85.7374
 -85.7371
 -85.7071
 -85.7083
 -85.7067
 -85.7082
 -85.7089
 -85.7081
 -85.7173
 -85.7151
 -85.7007
 -85.6876
 -85.6878
 -85.6864
 -85.7518
 -85.7517
 -85.7494
 -85.711
 -85.7125
 -85.712
 -85.7107
 -85.702
 -85.7201
 -85.7211
 -85.735
 -85.7356
 -85.7345
 -85.7362
 -85.7198
 -85.7183
 -85.7202
 -85.7115
 -85.7124
 -85.7097
 -85.7116
 -85.7075
 -85.7106
 -85.7134
 -85.7119
 -85.7109
 -85.7141
 -85.7537
 -85.7523
 -85.752
 -85.7532
 -85.7548
 -85.7557
 -85.7569
 -85.7567
 -85.6938
 -85.6952
 -85.719
 -85.719
 -85.7182
 -85.7166
 -85.7272
 -85.7277
 -85.7286
 -85.7292
 -85.7322
 -85.7338
 -85.7323
 -85.7318
 -85.7176
 -85.7162
 -85.7157
 -85.7177
 -85.7141
 -85.7155
 -85.7145
 -85.7138
 -85.7498
 -85.7478
 -85.7498
 -85.7496
 -85.6953
 -85.6975
 -85.6982
 -85.6995
 -85.6961
 -85.6981
 -85.6971
 -85.7443
 -85.7457
 -85.7475
 -85.7482
 -85.6999
 -85.7013
 -85.7007
 -85.7018
 -85.758
 -85.7572
 -85.758
 -85.7577
 -85.7511
 -85.7503
 -85.7509
 -85.7498
 -85.7093
 -85.7102
 -85.7086
 -85.7095
 -85.7379
 -85.7385
 -85.7378
 -85.7361
 -85.7012
 -85.7021
 -85.7036
 -85.7039
 -85.7438
 -85.7428
 -85.7431
 -85.6949
 -85.6959
 -85.6946
 -85.6953
 -85.73
 -85.7292
 -85.7303
 -85.731
 -85.7076
 -85.7081
 -85.7416
 -85.7442
 -85.743
 -85.7426
 -85.7449
 -85.7446
 -85.7434
 -85.7154
 -85.7178
 -85.7157
 -85.7466
 -85.7467
 -85.7473
 -85.7483
 -85.6767
 -85.6773
 -85.6787
 -85.6783
 -85.7006
 -85.7014
 -85.7026
 -85.7032
 -85.7301
 -85.7279
 -85.7282
 -85.7301
 -85.7545
 -85.7549
 -85.7539
 -85.7552
 -85.7509
 -85.7522
 -85.7524
 -85.7513
 -85.7546
 -85.7544
 -85.7548
 -85.7541
 -85.7547
 -85.7041
 -85.7053
 -85.704
 -85.7057
 -85.6959
 -85.6965
 -85.694
 -85.6956
 -85.7036
 -85.7036
 -85.7075
 -85.7093
 -85.708
 -85.7075
 -85.7127
 -85.7126
 -85.7146
 -85.7126
 -85.6973
 -85.6974
 -85.696
 -85.7223
 -85.7211
 -85.7215
 -85.7207
 -85.7671
 -85.7668
 -85.7661
 -85.7047
 -85.7043
 -85.7051
 -85.7069
 -85.7471
 -85.745
 -85.7462
 -85.7468
 -85.7361
 -85.738
 -85.7372
 -85.7197
 -85.7187
 -85.7206
 -85.7377
 -85.7395
 -85.7378
 -85.7497
 -85.7487
 -85.7362
 -85.7364
 -85.7362
 -85.7016
 -85.7022
 -85.7026
 -85.7007
 -85.7564
 -85.7572
 -85.7565
 -85.756
 -85.7305
 -85.7322
 -85.7312
 -85.6639
 -85.6615
 -85.6605
 -85.6634
 -85.69
 -85.689
 -85.7258
 -85.7078
 -85.7103
 -85.7086
 -85.7078
 -85.7222
 -85.7242
 -85.7241
 -85.7427
 -85.7428
 -85.7416
 -85.7429
 -85.759
 -85.7595
 -85.7193
 -85.7187
 -85.7188
 -85.7175
 -85.6875
 -85.6857
 -85.6856
 -85.6876
 -85.7516
 -85.7525
 -85.7523
 -85.7517
 -85.7297
 -85.7305
 -85.7294
 -85.6491
 -85.648
 -85.6466
 -85.6467
 -85.6952
 -85.6948
 -85.6937
 -85.7042
 -85.7056
 -85.703
 -85.7045
 -85.7296
 -85.7298
 -85.729
 -85.7312
 -85.7194
 -85.7208
 -85.6912
 -85.6916
 -85.6915
 -85.6915
 -85.7311
 -85.7329
 -85.7044
 -85.7018
 -85.7029
 -85.7036
 -85.7109
 -85.7116
 -85.7095
 -85.711
 -85.7201
 -85.722
 -85.7226
 -85.7211
 -85.7025
 -85.7015
 -85.6995
 -85.7356
 -85.7335
 -85.7358
 -85.7339
 -85.745
 -85.7464
 -85.7477
 -85.7453
 -85.7429
 -85.7431
 -85.7433
 -85.7445
 -85.6859
 -85.6841
 -85.6851
 -85.6835
 -85.7213
 -85.72
 -85.6583
 -85.6563
 -85.6568
 -85.655
 -85.7106
 -85.7089
 -85.708
 -85.7598
 -85.6399
 -85.6406
 -85.6407
 -85.6378
 -85.717
 -85.7179
 -85.7169
 -85.717
 -85.7069
 -85.7086
 -85.7074
 -85.7438
 -85.7452
 -85.7452
 -85.7437
 -85.7444
 -85.7438
 -85.7457
 -85.7456
 -85.7426
 -85.7434
 -85.742
 -85.7414
 -85.7022
 -85.7037
 -85.7014
 -85.7035
 -85.6944
 -85.6936
 -85.6926
 -85.6927
 -85.7319
 -85.7322
 -85.7339
 -85.7319
 -85.7116
 -85.7091
 -85.7126
 -85.7111
 -85.7657
 -85.755
 -85.7553
 -85.7283
 -85.7283
 -85.7126
 -85.7112
 -85.7116
 -85.7562
 -85.758
 -85.7569
 -85.7565
 -85.7158
 -85.715
 -85.7282
 -85.7268
 -85.6688
 -85.6711
 -85.6687
 -85.6709
 -85.7022
 -85.7014
 -85.7002
 -85.7009
 -85.7305
 -85.7327
 -85.7309
 -85.732
 -85.6729
 -85.6709
 -85.6726
 -85.6734
 -85.7627
 -85.7622
 -85.7635
 -85.7626
 -85.7551
 -85.7536
 -85.7586
 -85.7577
 -85.7566
 -85.7588
 -85.7457
 -85.747
 -85.7083
 -85.7091
 -85.7076
 -85.6431
 -85.645
 -85.6425
 -85.6428
 -85.6756
 -85.677
 -85.6774
 -85.6758
 -85.7559
 -85.7569
 -85.7559
 -85.7553
 -85.7384
 -85.7406
 -85.7393
 -85.7237
 -85.7218
 -85.7206
 -85.7226
 -85.7044
 -85.707
 -85.7049
 -85.7043
 -85.75
 -85.7512
 -85.7507
 -85.7564
 -85.7212
 -85.7236
 -85.7017
 -85.7024
 -85.7358
 -85.7379
 -85.7354
 -85.736
 -85.6942
 -85.6922
 -85.6949
 -85.692
 -85.6931
 -85.6914
 -85.6921
 -85.6465
 -85.6495
 -85.6488
 -85.6482
 -85.704
 -85.7051
 -85.705
 -85.7066
 -85.7507
 -85.751
 -85.7478
 -85.749
 -85.7486
 -85.749
 -85.7009
 -85.7007
 -85.7024
 -85.6999
 -85.7428
 -85.7419
 -85.7434
 -85.7365
 -85.7366
 -85.737
 -85.7355
 -85.7485
 -85.7493
 -85.7477
 -85.7497
 -85.7045
 -85.7063
 -85.7056
 -85.7047
 -85.759
 -85.7573
 -85.714
 -85.6642
 -85.6652
 -85.6664
 -85.6674
 -85.7422
 -85.742
 -85.7432
 -85.6758
 -85.6744
 -85.6749
 -85.6736
 -85.7355
 -85.7353
 -85.7352
 -85.7368
 -85.6912
 -85.6911
 -85.6894
 -85.6916
 -85.698
 -85.6976
 -85.699
 -85.6993
 -85.7333
 -85.7345
 -85.7345
 -85.7081
 -85.7087
 -85.7078
 -85.7066
 -85.7315
 -85.7309
 -85.7321
 -85.7295
 -85.7265
 -85.7254
 -85.7461
 -85.7466
 -85.7465
 -85.7366
 -85.7369
 -85.7353
 -85.6634
 -85.6637
 -85.6656
 -85.6639
 -85.694
 -85.6955
 -85.6933
 -85.6961
 -85.7502
 -85.7482
 -85.7484
 -85.7482
 -85.7468
 -85.7465
 -85.699
 -85.7024
 -85.6992
 -85.7369
 -85.7351
 -85.7357
 -85.7347
 -85.7362
 -85.7359
 -85.7352
 -85.703
 -85.7021
 -85.7033
 -85.7035
 -85.7565
 -85.7568
 -85.7088
 -85.7082
 -85.7088
 -85.71
 -85.7011
 -85.7013
 -85.702
 -85.7384
 -85.739
 -85.7187
 -85.7177
 -85.7188
 -85.7202
 -85.6928
 -85.6923
 -85.7327
 -85.7324
 -85.7096
 -85.7069
 -85.7073
 -85.7087
 -85.7226
 -85.7226
 -85.7213
 -85.7239
 -85.7225
 -85.7214
 -85.7225
 -85.6818
 -85.6819
 -85.681
 -85.6847
 -85.6749
 -85.6751
 -85.6765
 -85.6762
 -85.7364
 -85.735
 -85.7335
 -85.7349
 -85.7516
 -85.7518
 -85.7507
 -85.7507
 -85.7262
