 -85.9422
 -85.943
 -85.9428
 -85.9432
 -85.9551
 -85.9552
 -85.9555
 -85.9557
 -85.9522
 -85.9517
 -85.9523
 -85.9519
 -85.9527
 -85.9522
 -85.9521
 -85.9519
 -85.96
 -85.9602
 -85.9598
 -85.9596
 -85.9593
 -85.959
 -85.9595
 -85.9591
 -85.9394
 -85.939
 -85.9391
 -85.9394
 -85.9401
 -85.9403
 -85.9403
 -85.94
 -85.9592
 -85.959
 -85.9586
 -85.959
 -85.9592
 -85.9592
 -85.9591
 -85.9596
 -85.9377
 -85.9374
 -85.9379
 -85.9379
 -85.9518
 -85.9519
 -85.9515
 -85.9518
 -85.9446
 -85.9446
 -85.9442
 -85.945
 -85.956
 -85.9554
 -85.9551
 -85.9556
 -85.9499
 -85.9497
 -85.95
 -85.9504
 -85.9409
 -85.9405
 -85.9412
 -85.9406
 -85.9582
 -85.9584
 -85.9581
 -85.9585
 -85.9531
 -85.9528
 -85.9532
 -85.9529
 -85.9502
 -85.9504
 -85.9505
 -85.9508
 -85.9573
 -85.9574
 -85.9576
 -85.9578
 -85.9399
 -85.9393
 -85.9399
 -85.9395
 -85.9606
 -85.9607
 -85.9611
 -85.961
 -85.9306
 -85.9303
 -85.9301
 -85.9307
 -85.9548
 -85.955
 -85.9546
 -85.9545
 -85.9493
 -85.9489
 -85.9493
 -85.9495
 -85.9511
 -85.9512
 -85.951
 -85.9508
 -85.9472
 -85.9478
 -85.9481
 -85.9472
 -85.9406
 -85.9402
 -85.9407
 -85.9406
 -85.9444
 -85.9443
 -85.9439
 -85.9442
 -85.9555
 -85.9555
 -85.9552
 -85.9549
 -85.9495
 -85.9502
 -85.9494
 -85.9497
 -85.9447
 -85.9451
 -85.9451
 -85.9447
 -85.954
 -85.9536
 -85.9541
 -85.9537
 -85.9551
 -85.9549
 -85.9549
 -85.955
 -85.9448
 -85.9445
 -85.945
 -85.9442
 -85.9416
 -85.9415
 -85.9414
 -85.9414
 -85.9535
 -85.9529
 -85.9535
 -85.9533
 -85.9373
 -85.9376
 -85.9376
 -85.9379
 -85.9542
 -85.9542
 -85.955
 -85.9547
 -85.9613
 -85.961
 -85.9612
 -85.9609
 -85.9516
 -85.9515
 -85.9518
 -85.9511
 -85.9551
 -85.9556
 -85.9553
 -85.9553
 -85.9385
 -85.9384
 -85.9389
 -85.9382
 -85.9533
 -85.953
 -85.9531
 -85.9536
 -85.9591
 -85.959
 -85.9593
 -85.9592
 -85.9434
 -85.9439
 -85.9437
 -85.9435
 -85.9536
 -85.9543
 -85.9541
 -85.9541
 -85.9411
 -85.9416
 -85.9411
 -85.9406
 -85.9454
 -85.945
 -85.9449
 -85.9446
 -85.9504
 -85.95
 -85.9499
 -85.9496
 -85.9403
 -85.9402
 -85.94
 -85.9403
 -85.9507
 -85.9503
 -85.9502
 -85.9506
 -85.9459
 -85.9453
 -85.9459
 -85.9451
 -85.9516
 -85.9519
 -85.9516
 -85.952
 -85.9441
 -85.9445
 -85.9443
 -85.9449
 -85.9517
 -85.9516
 -85.9521
 -85.9513
 -85.9543
 -85.9544
 -85.9546
 -85.9548
 -85.955
 -85.9548
 -85.955
 -85.9544
 -85.9434
 -85.9435
 -85.9428
 -85.9437
 -85.9468
 -85.9466
 -85.9467
 -85.9473
 -85.9317
 -85.9313
 -85.931
 -85.9314
 -85.9444
 -85.9444
 -85.9439
 -85.9443
 -85.9496
 -85.9503
 -85.9501
 -85.9501
 -85.9462
 -85.9461
 -85.9468
 -85.9457
 -85.9459
 -85.9465
 -85.9459
 -85.9465
 -85.9406
 -85.9403
 -85.9408
 -85.9407
 -85.9577
 -85.9582
 -85.9583
 -85.9577
 -85.9601
 -85.9602
 -85.9603
 -85.9604
 -85.9507
 -85.9514
 -85.9503
 -85.9507
 -85.9445
 -85.9444
 -85.9448
 -85.9443
 -85.9541
 -85.9543
 -85.9546
 -85.954
 -85.9399
 -85.939
 -85.9393
 -85.9392
 -85.9397
 -85.9393
 -85.9392
 -85.9398
 -85.9309
 -85.9305
 -85.9311
 -85.931
 -85.9519
 -85.9524
 -85.9522
 -85.9526
 -85.9431
 -85.9437
 -85.9438
 -85.9432
 -85.9421
 -85.9417
 -85.9422
 -85.9426
 -85.9604
 -85.9607
 -85.9606
 -85.9608
 -85.9415
 -85.9414
 -85.941
 -85.9415
 -85.9423
 -85.9421
 -85.9417
 -85.9423
 -85.9432
 -85.9435
 -85.9432
 -85.9428
 -85.9479
 -85.9477
 -85.9482
 -85.9481
 -85.9426
 -85.9431
 -85.9427
 -85.9429
 -85.9452
 -85.9456
 -85.9457
 -85.9454
 -85.9468
 -85.9466
 -85.9464
 -85.9462
 -85.9413
 -85.9408
 -85.9415
 -85.9409
 -85.9294
 -85.9293
 -85.9301
 -85.9301
 -85.9403
 -85.9404
 -85.9408
 -85.9405
 -85.9521
 -85.9519
 -85.9524
 -85.9515
 -85.9523
 -85.9521
 -85.9526
 -85.9522
 -85.9549
 -85.9547
 -85.9546
 -85.9552
 -85.9397
 -85.9396
 -85.9397
 -85.9399
 -85.9608
 -85.9608
 -85.9606
 -85.961
 -85.9547
 -85.9551
 -85.9546
 -85.9548
 -85.9378
 -85.9377
 -85.9372
 -85.9372
 -85.9455
 -85.9455
 -85.9453
 -85.9462
 -85.9422
 -85.9424
 -85.9417
 -85.942
 -85.9423
 -85.942
 -85.9421
 -85.94
 -85.9399
 -85.9399
 -85.9397
 -85.9532
 -85.9529
 -85.9527
 -85.9534
 -85.9473
 -85.9479
 -85.9477
 -85.9473
 -85.9527
 -85.9531
 -85.9528
 -85.9444
 -85.9437
 -85.9441
 -85.9439
 -85.9488
 -85.9491
 -85.949
 -85.9484
 -85.9571
 -85.9566
 -85.9566
 -85.9574
 -85.9399
 -85.94
 -85.9407
 -85.9404
 -85.9414
 -85.941
 -85.9408
 -85.9411
 -85.9521
 -85.9516
 -85.9515
 -85.9517
 -85.9542
 -85.954
 -85.9547
 -85.9546
 -85.9385
 -85.9385
 -85.9382
 -85.9379
 -85.941
 -85.9412
 -85.9419
 -85.9417
 -85.9464
 -85.9471
 -85.9474
 -85.9465
 -85.9592
 -85.9595
 -85.9593
 -85.9595
 -85.952
 -85.9525
 -85.9526
 -85.9524
 -85.9488
 -85.948
 -85.9488
 -85.9488
 -85.9326
 -85.9319
 -85.9327
 -85.9326
 -85.9479
 -85.9474
 -85.9481
 -85.9484
 -85.9569
 -85.9564
 -85.9569
 -85.9562
 -85.9428
 -85.942
 -85.9432
 -85.9429
 -85.9416
 -85.9417
 -85.9412
 -85.9415
 -85.9415
 -85.941
 -85.9411
 -85.9413
 -85.937
 -85.9369
 -85.9369
 -85.9371
 -85.9421
 -85.9414
 -85.9414
 -85.9414
 -85.9523
 -85.9523
 -85.9524
 -85.952
 -85.9392
 -85.9395
 -85.9397
 -85.9398
 -85.959
 -85.9587
 -85.9589
 -85.959
 -85.9396
 -85.9389
 -85.939
 -85.9395
 -85.9568
 -85.9562
 -85.9568
 -85.9565
 -85.9477
 -85.9472
 -85.9472
 -85.9475
 -85.9454
 -85.9459
 -85.9461
 -85.9456
 -85.9438
 -85.9438
 -85.9445
 -85.9439
 -85.9428
 -85.9428
 -85.9424
 -85.9423
 -85.9606
 -85.9609
 -85.961
 -85.9609
 -85.9433
 -85.943
 -85.9433
 -85.9431
 -85.9614
 -85.9611
 -85.9612
 -85.961
 -85.9544
 -85.9543
 -85.9549
 -85.9544
 -85.9345
 -85.9352
 -85.935
 -85.9344
 -85.9595
 -85.9594
 -85.9597
 -85.9599
 -85.941
 -85.9416
 -85.941
 -85.9406
 -85.934
 -85.9337
 -85.9335
 -85.9339
 -85.9561
 -85.956
 -85.9558
 -85.9561
 -85.9601
 -85.9604
 -85.9602
 -85.9602
 -85.9502
 -85.9503
 -85.9501
 -85.95
 -85.9554
 -85.9549
 -85.9555
 -85.955
 -85.9422
 -85.9416
 -85.9419
 -85.9418
 -85.9514
 -85.9511
 -85.9514
 -85.9518
 -85.9452
 -85.9449
 -85.9454
 -85.9454
 -85.9403
 -85.9405
 -85.9402
 -85.9402
 -85.938
 -85.938
 -85.9379
 -85.9384
 -85.9473
 -85.9472
 -85.9477
 -85.947
 -85.9489
 -85.9489
 -85.9487
 -85.9483
 -85.9418
 -85.9417
 -85.9421
 -85.9423
 -85.9419
 -85.9412
 -85.9418
 -85.9417
 -85.9529
 -85.9531
 -85.9526
 -85.9526
 -85.9594
 -85.9593
 -85.9597
 -85.9597
 -85.9587
 -85.9584
 -85.9588
 -85.9589
 -85.9585
 -85.958
 -85.9582
 -85.9583
 -85.9533
 -85.9531
 -85.9535
 -85.953
 -85.9418
 -85.9412
 -85.9416
 -85.9415
 -85.942
 -85.9423
 -85.9425
 -85.9426
 -85.9487
 -85.9485
 -85.9477
 -85.9478
 -85.9545
 -85.9542
 -85.9549
 -85.9547
 -85.9544
 -85.9541
 -85.9542
 -85.9546
 -85.9505
 -85.9501
 -85.9503
 -85.9504
 -85.9518
 -85.9522
 -85.9516
 -85.9518
 -85.9383
 -85.9382
 -85.9384
 -85.9389
 -85.9269
 -85.9265
 -85.9269
 -85.9262
 -85.943
 -85.9429
 -85.9423
 -85.9427
 -85.9289
 -85.9297
 -85.9295
 -85.943
 -85.9429
 -85.9433
 -85.9426
 -85.9573
 -85.957
 -85.9572
 -85.9569
 -85.95
 -85.9503
 -85.9503
 -85.9508
 -85.9594
 -85.9592
 -85.9596
 -85.9591
 -85.9417
 -85.9418
 -85.9413
 -85.9417
 -85.9537
 -85.9536
 -85.9543
 -85.9541
 -85.9506
 -85.9506
 -85.95
 -85.9502
 -85.9602
 -85.9604
 -85.9605
 -85.9601
 -85.9565
 -85.9564
 -85.9566
 -85.957
 -85.943
 -85.9436
 -85.9432
 -85.943
 -85.9536
 -85.9535
 -85.9531
 -85.9536
 -85.9571
 -85.9564
 -85.9568
 -85.9565
 -85.9339
 -85.9331
 -85.9335
 -85.9332
 -85.9497
 -85.95
 -85.9502
 -85.9503
 -85.9571
 -85.9571
 -85.9575
 -85.9571
 -85.9525
 -85.9529
 -85.9521
 -85.9531
 -85.9564
 -85.9559
 -85.9565
 -85.9564
 -85.942
 -85.9425
 -85.9428
 -85.9427
 -85.9563
 -85.9573
 -85.9563
 -85.9571
 -85.9468
 -85.9471
 -85.9461
 -85.9467
 -85.9481
 -85.9484
 -85.9487
 -85.948
 -85.9563
 -85.9563
 -85.9559
 -85.9565
 -85.9612
 -85.9611
 -85.9611
 -85.9613
 -85.9384
 -85.9387
 -85.9389
 -85.9391
 -85.9449
 -85.9453
 -85.9457
 -85.9451
 -85.9512
 -85.951
 -85.9507
 -85.9508
 -85.9564
 -85.9567
 -85.9566
 -85.9567
 -85.9435
 -85.9431
 -85.9432
 -85.9433
 -85.9392
 -85.9397
 -85.94
 -85.9393
 -85.9539
 -85.9539
 -85.9534
 -85.9534
 -85.9524
 -85.9528
 -85.9524
 -85.9525
 -85.9597
 -85.9599
 -85.9602
 -85.9597
 -85.9405
 -85.9411
 -85.9404
 -85.9409
 -85.9601
 -85.9604
 -85.9603
 -85.9601
 -85.9445
 -85.9452
 -85.9448
 -85.9446
 -85.9274
 -85.9272
 -85.9274
 -85.9277
 -85.9582
 -85.9585
 -85.9587
 -85.9586
 -85.9533
 -85.9536
 -85.953
 -85.9524
 -85.9586
 -85.9587
 -85.9584
 -85.9584
 -85.9486
 -85.948
 -85.9484
 -85.9487
 -85.9474
 -85.9477
 -85.9478
 -85.9475
 -85.9557
 -85.9551
 -85.9553
 -85.9553
 -85.9417
 -85.9419
 -85.9415
 -85.9418
 -85.9409
 -85.9412
 -85.9412
 -85.941
 -85.9314
 -85.9311
 -85.9311
 -85.9309
 -85.9505
 -85.9509
 -85.9511
 -85.9513
 -85.949
 -85.9487
 -85.9495
 -85.949
 -85.9526
 -85.9518
 -85.9523
 -85.9527
 -85.945
 -85.9457
 -85.9457
 -85.9448
 -85.9593
 -85.9592
 -85.9596
 -85.959
 -85.9601
 -85.9606
 -85.9601
 -85.96
 -85.9529
 -85.9531
 -85.9536
 -85.9536
 -85.9234
 -85.9234
 -85.9236
 -85.9239
 -85.9466
 -85.9463
 -85.9468
 -85.946
 -85.9471
 -85.9469
 -85.9463
 -85.9469
 -85.9467
 -85.9468
 -85.9462
 -85.9462
 -85.9559
 -85.9556
 -85.9562
 -85.9555
 -85.9331
 -85.9337
 -85.9327
 -85.9331
 -85.9302
 -85.9303
 -85.9297
 -85.9296
 -85.9559
 -85.9555
 -85.9559
 -85.9554
 -85.944
 -85.9446
 -85.9438
 -85.9446
 -85.9461
 -85.9461
 -85.9463
 -85.9464
 -85.9529
 -85.9525
 -85.9525
 -85.952
 -85.9413
 -85.9416
 -85.9418
 -85.9415
 -85.9566
 -85.9561
 -85.9563
 -85.9566
 -85.9451
 -85.9441
 -85.9447
 -85.9439
 -85.9442
 -85.9441
 -85.9436
 -85.9441
 -85.9391
 -85.9388
 -85.9394
 -85.9387
 -85.9466
 -85.9473
 -85.9468
 -85.9474
 -85.9574
 -85.9576
 -85.9576
 -85.9573
 -85.9535
 -85.9541
 -85.9543
 -85.9538
 -85.9411
 -85.941
 -85.9415
 -85.9414
 -85.9433
 -85.944
 -85.944
 -85.9433
 -85.9589
 -85.959
 -85.9592
 -85.9592
 -85.9564
 -85.9561
 -85.9564
 -85.9562
 -85.9471
 -85.9469
 -85.9466
 -85.9469
 -85.9395
 -85.9396
 -85.9396
 -85.9398
 -85.9355
 -85.9364
 -85.9362
 -85.9356
 -85.953
 -85.9524
 -85.9522
 -85.9527
 -85.9395
 -85.9389
 -85.9395
 -85.9383
 -85.9578
 -85.9573
 -85.9573
 -85.9577
 -85.9514
 -85.9521
 -85.9517
 -85.9513
 -85.9575
 -85.9574
 -85.9572
 -85.9573
 -85.9541
 -85.9536
 -85.9536
 -85.9538
 -85.947
 -85.9468
 -85.947
 -85.9474
 -85.9421
 -85.9413
 -85.9415
 -85.9418
 -85.9363
 -85.9372
 -85.9364
 -85.9365
 -85.9384
 -85.9376
 -85.9384
 -85.9382
 -85.9418
 -85.9411
 -85.941
 -85.9412
 -85.9481
 -85.9483
 -85.9482
 -85.9474
 -85.9483
 -85.9484
 -85.9486
 -85.948
 -85.9489
 -85.9484
 -85.9493
 -85.9488
 -85.9532
 -85.9529
 -85.9534
 -85.9533
 -85.9331
 -85.9324
 -85.9326
 -85.9326
 -85.9504
 -85.9506
 -85.9503
 -85.9508
 -85.941
 -85.9404
 -85.9406
 -85.9408
 -85.9461
 -85.9467
 -85.9463
 -85.9467
 -85.9598
 -85.9593
 -85.9597
 -85.9596
 -85.9478
 -85.9475
 -85.9475
 -85.9472
 -85.9398
 -85.9395
 -85.9397
 -85.9391
 -85.9457
 -85.9457
 -85.9461
 -85.9464
 -85.9423
 -85.9426
 -85.9426
 -85.9422
 -85.9472
 -85.9465
 -85.9473
 -85.9468
 -85.9335
 -85.933
 -85.9333
 -85.9336
 -85.9464
 -85.9464
 -85.9469
 -85.9469
 -85.9535
 -85.9533
 -85.9536
 -85.9534
 -85.9518
 -85.9518
 -85.952
 -85.9518
 -85.9587
 -85.9581
 -85.9587
 -85.9583
 -85.9434
 -85.9433
 -85.9438
 -85.9435
 -85.9419
 -85.9423
 -85.9419
 -85.9429
 -85.9584
 -85.9578
 -85.9584
 -85.9583
 -85.9424
 -85.9424
 -85.943
 -85.9424
 -85.9574
 -85.9572
 -85.9576
 -85.9572
 -85.9498
 -85.9505
 -85.95
 -85.9503
 -85.9482
 -85.9474
 -85.9482
 -85.9484
 -85.942
 -85.9426
 -85.9424
 -85.942
 -85.9475
 -85.9475
 -85.948
 -85.9474
 -85.9575
 -85.9573
 -85.9576
 -85.9576
 -85.9271
 -85.9272
 -85.9273
 -85.9267
 -85.9394
 -85.9392
 -85.9392
 -85.9394
 -85.9393
 -85.9394
 -85.9393
 -85.939
 -85.9441
 -85.9443
 -85.9438
 -85.9445
 -85.9461
 -85.9456
 -85.946
 -85.9457
 -85.9435
 -85.9432
 -85.943
 -85.9436
 -85.9599
 -85.9596
 -85.9602
 -85.9595
 -85.9418
 -85.9414
 -85.9415
 -85.9421
 -85.9526
 -85.9527
 -85.9529
 -85.9525
 -85.9482
 -85.9562
 -85.9557
 -85.9559
 -85.9559
 -85.9517
 -85.952
 -85.9523
 -85.9521
 -85.938
 -85.9384
 -85.9385
 -85.9382
 -85.9446
 -85.9444
 -85.9448
 -85.9451
 -85.9426
 -85.9421
 -85.9425
 -85.9426
 -85.957
 -85.9566
 -85.9566
 -85.9567
 -85.9466
 -85.9457
 -85.9464
 -85.9461
 -85.9576
 -85.9577
 -85.9572
 -85.9572
 -85.9539
 -85.9542
 -85.9537
 -85.9543
 -85.9384
 -85.9387
 -85.9385
 -85.939
 -85.9415
 -85.9409
 -85.942
 -85.9416
 -85.9535
 -85.9539
 -85.9538
 -85.9535
 -85.9475
 -85.9468
 -85.9474
 -85.9395
 -85.9392
 -85.9393
 -85.9398
 -85.9528
 -85.952
 -85.9525
 -85.952
 -85.9427
 -85.9421
 -85.9422
 -85.9426
 -85.9477
 -85.9469
 -85.9473
 -85.9477
 -85.9585
 -85.9585
 -85.9579
 -85.9584
 -85.9439
 -85.9437
 -85.9435
 -85.9439
 -85.9563
 -85.9558
 -85.9563
 -85.9565
 -85.9488
 -85.9485
 -85.9488
 -85.9482
 -85.955
 -85.9548
 -85.9544
 -85.9547
 -85.9581
 -85.9581
 -85.9585
 -85.9583
 -85.9442
 -85.9442
 -85.9446
 -85.9445
 -85.927
 -85.9279
 -85.9277
 -85.9282
 -85.96
 -85.9598
 -85.9598
 -85.9597
 -85.9524
 -85.9522
 -85.9519
 -85.9521
 -85.9404
 -85.9404
 -85.9413
 -85.9406
 -85.9458
 -85.9461
 -85.9463
 -85.9457
 -85.9343
 -85.9345
 -85.9346
 -85.934
 -85.9577
 -85.9579
 -85.9584
 -85.9579
 -85.9399
 -85.9397
 -85.9398
 -85.9399
 -85.9501
 -85.9506
 -85.9499
 -85.9502
 -85.9412
 -85.9401
 -85.9409
 -85.9409
 -85.9606
 -85.9605
 -85.9606
 -85.9601
 -85.9605
 -85.9604
 -85.9602
 -85.96
 -85.9539
 -85.9534
 -85.9532
 -85.9539
 -85.9506
 -85.9509
 -85.9506
 -85.9502
 -85.9508
 -85.9396
 -85.9397
 -85.939
 -85.9395
 -85.9409
 -85.9406
 -85.9405
 -85.9411
 -85.9529
 -85.9533
 -85.9534
 -85.9534
 -85.9405
 -85.9409
 -85.9409
 -85.9405
 -85.9421
 -85.942
 -85.9419
 -85.9425
 -85.9536
 -85.9538
 -85.9537
 -85.9532
 -85.9446
 -85.9452
 -85.9446
 -85.9452
 -85.9533
 -85.9533
 -85.9534
 -85.9538
 -85.9426
 -85.9426
 -85.9421
 -85.9426
 -85.9442
 -85.9446
 -85.9447
 -85.9447
 -85.9469
 -85.9473
 -85.9466
 -85.9472
 -85.9505
 -85.9511
 -85.9507
 -85.9512
 -85.9555
 -85.9553
 -85.956
 -85.9559
 -85.9497
 -85.9495
 -85.9492
 -85.9492
 -85.9498
 -85.9499
 -85.9502
 -85.9499
 -85.9382
 -85.9382
 -85.9386
 -85.9388
 -85.9526
 -85.9527
 -85.9528
 -85.9527
 -85.9483
 -85.9485
 -85.9487
 -85.9483
 -85.9493
 -85.9493
 -85.949
 -85.9493
 -85.9451
 -85.9451
 -85.9445
 -85.9449
 -85.9396
 -85.9395
 -85.9398
 -85.9391
 -85.955
 -85.9549
 -85.9552
 -85.9552
 -85.9398
 -85.9394
 -85.9395
 -85.9401
 -85.9601
 -85.9601
 -85.9604
 -85.9602
 -85.9566
 -85.9562
 -85.9569
 -85.9567
 -85.9569
 -85.9569
 -85.9569
 -85.9567
 -85.9565
 -85.9564
 -85.9563
 -85.9567
 -85.9539
 -85.9541
 -85.9536
 -85.9541
 -85.9354
 -85.935
 -85.9343
 -85.9496
 -85.9489
 -85.9495
 -85.9493
 -85.956
 -85.9558
 -85.9557
 -85.956
 -85.9448
 -85.9442
 -85.9446
 -85.9447
 -85.9427
 -85.9428
 -85.9425
 -85.9429
 -85.9543
 -85.9544
 -85.9548
 -85.9539
 -85.9467
 -85.9465
 -85.9468
 -85.9472
 -85.9432
 -85.9433
 -85.9431
 -85.943
 -85.9595
 -85.9599
 -85.9519
 -85.9518
 -85.9513
 -85.9513
 -85.9471
 -85.947
 -85.9467
 -85.9505
 -85.9506
 -85.9504
 -85.95
 -85.9363
 -85.9362
 -85.9368
 -85.9368
 -85.9564
 -85.9567
 -85.9567
 -85.9563
 -85.9504
 -85.9502
 -85.9499
 -85.95
 -85.9447
 -85.9442
 -85.9445
 -85.945
 -85.9491
 -85.9485
 -85.9487
 -85.9489
 -85.9402
 -85.9401
 -85.9403
 -85.9402
 -85.9387
 -85.9395
 -85.9389
 -85.9391
 -85.9464
 -85.9469
 -85.947
 -85.9467
 -85.94
 -85.9398
 -85.9399
 -85.9404
 -85.9471
 -85.9468
 -85.9469
 -85.9467
 -85.9569
 -85.9569
 -85.9564
 -85.9563
 -85.9408
 -85.9411
 -85.9413
 -85.941
 -85.9314
 -85.932
 -85.9314
 -85.9318
 -85.9512
 -85.9503
 -85.951
 -85.951
 -85.9458
 -85.9462
 -85.9458
 -85.9462
 -85.9402
 -85.9401
 -85.9406
 -85.9405
 -85.9473
 -85.9469
 -85.9475
 -85.9475
 -85.9589
 -85.9587
 -85.9589
 -85.9589
 -85.9422
 -85.9422
 -85.942
 -85.9422
 -85.9516
 -85.9511
 -85.9511
 -85.951
 -85.9457
 -85.9462
 -85.9458
 -85.9466
 -85.9538
 -85.954
 -85.9539
 -85.9544
 -85.957
 -85.9569
 -85.9572
 -85.9568
 -85.9405
 -85.9409
 -85.9406
 -85.9414
 -85.9438
 -85.9441
 -85.9441
 -85.9439
 -85.9504
 -85.9503
 -85.9497
 -85.95
 -85.94
 -85.9402
 -85.9401
 -85.9403
 -85.9275
 -85.927
 -85.9271
 -85.9274
 -85.949
 -85.9485
 -85.9485
 -85.9484
 -85.9262
 -85.9261
 -85.9263
 -85.9267
 -85.9272
 -85.9279
 -85.9278
 -85.9275
 -85.9364
 -85.9368
 -85.9367
 -85.9362
 -85.9525
 -85.9521
 -85.9518
 -85.9515
 -85.9523
 -85.9526
 -85.9527
 -85.953
 -85.953
 -85.9527
 -85.953
 -85.9524
 -85.9514
 -85.9509
 -85.951
 -85.9515
 -85.9343
 -85.9338
 -85.9342
 -85.934
 -85.941
 -85.9408
 -85.9413
 -85.9411
 -85.9403
 -85.9397
 -85.9399
 -85.9398
 -85.9447
 -85.9453
 -85.9448
 -85.9454
 -85.9495
 -85.9492
 -85.9496
 -85.9493
 -85.9538
 -85.9537
 -85.9535
 -85.9539
 -85.9415
 -85.9422
 -85.9424
 -85.9418
 -85.9525
 -85.9477
 -85.9481
 -85.9482
 -85.9479
 -85.9603
 -85.9604
 -85.9608
 -85.9606
 -85.9465
 -85.9466
 -85.947
 -85.9466
 -85.9578
 -85.9583
 -85.9579
 -85.9407
 -85.941
 -85.9412
 -85.9406
 -85.9291
 -85.9296
 -85.9294
 -85.9297
 -85.9476
 -85.9476
 -85.9483
 -85.9473
 -85.945
 -85.9442
 -85.9443
 -85.9443
 -85.9401
 -85.9404
 -85.9408
 -85.9409
 -85.9408
 -85.941
 -85.9405
 -85.941
 -85.9358
 -85.9352
 -85.9357
 -85.9356
 -85.9505
 -85.9504
 -85.9507
 -85.9514
 -85.9477
 -85.9483
 -85.9475
 -85.948
 -85.9436
 -85.9431
 -85.9437
 -85.9434
 -85.9465
 -85.9462
 -85.9471
 -85.9543
 -85.954
 -85.9539
 -85.9417
 -85.9418
 -85.9411
 -85.9409
 -85.937
 -85.9368
 -85.9368
 -85.9369
 -85.9427
 -85.9431
 -85.943
 -85.9426
 -85.9369
 -85.9364
 -85.937
 -85.9362
 -85.9554
 -85.9559
 -85.9555
 -85.9557
 -85.9537
 -85.954
 -85.9541
 -85.9544
 -85.9401
 -85.94
 -85.94
 -85.94
 -85.9349
 -85.9341
 -85.9346
 -85.9348
 -85.949
 -85.9483
 -85.9489
 -85.9487
 -85.9593
 -85.9589
 -85.9594
 -85.959
 -85.9366
 -85.9366
 -85.9363
 -85.9366
 -85.9522
 -85.9517
 -85.9516
 -85.9523
 -85.9311
 -85.9308
 -85.9311
 -85.9309
 -85.9538
 -85.954
 -85.9537
 -85.9544
 -85.9451
 -85.9447
 -85.9454
 -85.9445
 -85.9555
 -85.9555
 -85.9559
 -85.9559
 -85.9406
 -85.9408
 -85.9408
 -85.9413
 -85.9441
 -85.9437
 -85.9437
 -85.9437
 -85.9416
 -85.9414
 -85.942
 -85.942
 -85.9427
 -85.9425
 -85.9431
 -85.9422
 -85.949
 -85.9494
 -85.9493
 -85.9488
 -85.9463
 -85.9459
 -85.9464
 -85.9464
 -85.9559
 -85.9555
 -85.9551
 -85.9552
 -85.96
 -85.9602
 -85.9597
 -85.9597
 -85.9455
 -85.9455
 -85.9451
 -85.9454
 -85.9568
 -85.9566
 -85.9565
 -85.957
 -85.9532
 -85.9538
 -85.9542
 -85.9537
 -85.9335
 -85.9332
 -85.9326
 -85.9334
 -85.9392
 -85.9402
 -85.9399
 -85.9396
 -85.945
 -85.9446
 -85.9445
 -85.9447
 -85.9359
 -85.9355
 -85.9354
 -85.9351
 -85.9494
 -85.95
 -85.9499
 -85.9497
 -85.955
 -85.9559
 -85.9554
 -85.9555
 -85.9363
 -85.9371
 -85.9363
 -85.9363
 -85.9467
 -85.9472
 -85.9468
 -85.9469
 -85.943
 -85.943
 -85.943
 -85.9427
 -85.9276
 -85.928
 -85.928
 -85.9276
 -85.9445
 -85.9445
 -85.9443
 -85.9449
 -85.948
 -85.9483
 -85.9483
 -85.9484
 -85.9536
 -85.9541
 -85.9538
 -85.9542
 -85.9426
 -85.9427
 -85.9428
 -85.9479
 -85.9478
 -85.9476
 -85.9479
 -85.9438
 -85.9437
 -85.9445
 -85.944
 -85.9524
 -85.9519
 -85.9523
 -85.9522
 -85.9522
 -85.9528
 -85.9527
 -85.9525
 -85.9573
 -85.9569
 -85.9572
 -85.9568
 -85.9412
 -85.9412
 -85.9416
 -85.9412
 -85.9589
 -85.959
 -85.9592
 -85.959
 -85.9421
 -85.9426
 -85.9422
 -85.942
 -85.9476
 -85.9483
 -85.9482
 -85.9485
 -85.9487
 -85.9482
 -85.9482
 -85.948
 -85.9268
 -85.9263
 -85.9267
 -85.9267
 -85.9433
 -85.943
 -85.9433
 -85.9434
 -85.9472
 -85.9472
 -85.9476
 -85.9482
 -85.9468
 -85.947
 -85.947
 -85.9464
 -85.9601
 -85.9601
 -85.9597
 -85.96
 -85.942
 -85.9426
 -85.9428
 -85.9422
 -85.9429
 -85.9426
 -85.9431
 -85.9425
 -85.9536
 -85.954
 -85.9536
 -85.954
 -85.9405
 -85.9404
 -85.9401
 -85.94
 -85.9402
 -85.9401
 -85.9404
 -85.9401
 -85.9518
 -85.9511
 -85.9517
 -85.9514
 -85.9524
 -85.9524
 -85.952
 -85.9524
 -85.949
 -85.949
 -85.9497
 -85.9495
 -85.9425
 -85.9423
 -85.9508
 -85.9504
 -85.9511
 -85.9506
 -85.9428
 -85.9431
 -85.9428
 -85.9429
 -85.9458
 -85.9464
 -85.9466
 -85.9463
 -85.958
 -85.9578
 -85.9576
 -85.9581
 -85.9458
 -85.946
 -85.9463
 -85.9464
 -85.9544
 -85.9548
 -85.955
 -85.9542
 -85.9413
 -85.9423
 -85.9419
 -85.9422
 -85.9449
 -85.9445
 -85.9443
 -85.9446
 -85.9471
 -85.948
 -85.9476
 -85.9478
 -85.9412
 -85.9408
 -85.9406
 -85.9409
 -85.9316
 -85.9317
 -85.9315
 -85.9311
 -85.9595
 -85.9595
 -85.9594
 -85.9595
 -85.9367
 -85.9366
 -85.9368
 -85.9365
 -85.9497
 -85.95
 -85.9494
 -85.9495
 -85.9315
 -85.9315
 -85.9319
 -85.9313
 -85.9506
 -85.9511
 -85.9507
 -85.9506
 -85.9422
 -85.9421
 -85.942
 -85.942
 -85.9422
 -85.9424
 -85.9419
 -85.9422
 -85.9486
 -85.9488
 -85.9482
 -85.9486
 -85.9559
 -85.9554
 -85.9558
 -85.9553
 -85.9446
 -85.9453
 -85.9451
 -85.9452
 -85.94
 -85.9399
 -85.9401
 -85.9402
 -85.9557
 -85.9563
 -85.956
 -85.9565
 -85.9417
 -85.9412
 -85.9419
 -85.942
 -85.9445
 -85.9451
 -85.9449
 -85.9453
 -85.9533
 -85.9542
 -85.954
 -85.9537
 -85.9483
 -85.9488
 -85.9489
 -85.9489
 -85.9464
 -85.9461
 -85.9465
 -85.9467
 -85.9579
 -85.9583
 -85.9584
 -85.9585
 -85.9564
 -85.9566
 -85.9566
 -85.9564
 -85.9498
 -85.9499
 -85.9492
 -85.9495
 -85.9464
 -85.9468
 -85.9463
 -85.9473
 -85.9434
 -85.9436
 -85.9436
 -85.9444
 -85.9395
 -85.9395
 -85.9391
 -85.9543
 -85.9547
 -85.9545
 -85.9549
 -85.931
 -85.9306
 -85.9302
 -85.9302
 -85.9522
 -85.9516
 -85.9519
 -85.9518
 -85.9415
 -85.9409
 -85.9412
 -85.9413
 -85.9406
 -85.9401
 -85.9403
 -85.9402
 -85.9565
 -85.9561
 -85.9563
 -85.9569
 -85.9487
 -85.9484
 -85.9489
 -85.9485
 -85.9465
 -85.9464
 -85.9427
 -85.9456
 -85.9462
 -85.9455
 -85.9459
 -85.9316
 -85.9321
 -85.9516
 -85.9519
 -85.9521
 -85.9381
 -85.9384
 -85.9377
 -85.9381
 -85.9517
 -85.9511
 -85.9513
 -85.9513
 -85.9445
 -85.9451
 -85.9449
 -85.9449
 -85.9426
 -85.9433
 -85.9428
 -85.9429
 -85.9579
 -85.9579
 -85.9585
 -85.9581
 -85.9383
 -85.9388
 -85.9382
 -85.9388
 -85.9513
 -85.9514
 -85.9514
 -85.9518
 -85.9586
 -85.9588
 -85.9582
 -85.9583
 -85.9483
 -85.9477
 -85.9483
 -85.9479
 -85.9512
 -85.9505
 -85.9508
 -85.9508
 -85.9472
 -85.9478
 -85.9474
 -85.9465
 -85.9605
 -85.96
 -85.9604
 -85.9599
 -85.9602
 -85.9602
 -85.96
 -85.9598
 -85.9598
 -85.9597
 -85.9595
 -85.9598
 -85.9458
 -85.9453
 -85.9458
 -85.9457
 -85.9498
 -85.9493
 -85.9495
 -85.9498
 -85.9462
 -85.9461
 -85.9457
 -85.946
 -85.9453
 -85.9451
 -85.9459
 -85.9451
 -85.9524
 -85.9527
 -85.9528
 -85.9522
 -85.9559
 -85.9565
 -85.9563
 -85.9565
 -85.9556
 -85.9558
 -85.9552
 -85.9559
 -85.9479
 -85.9483
 -85.9479
 -85.9482
 -85.9469
 -85.9468
 -85.9467
 -85.9465
 -85.9421
 -85.9418
 -85.942
 -85.9425
 -85.9537
 -85.9541
 -85.9541
 -85.9535
 -85.936
 -85.936
 -85.9355
 -85.9363
 -85.9549
 -85.9552
 -85.9548
 -85.9547
 -85.9493
 -85.9501
 -85.9492
 -85.9499
 -85.9488
 -85.9491
 -85.9489
 -85.9486
 -85.9385
 -85.9384
 -85.9381
 -85.9376
 -85.9252
 -85.9256
 -85.925
 -85.9252
 -85.9438
 -85.9443
 -85.9438
 -85.9439
 -85.9548
 -85.9542
 -85.9545
 -85.9548
 -85.9406
 -85.9402
 -85.9405
 -85.9408
 -85.9497
 -85.9499
 -85.9494
 -85.95
 -85.9505
 -85.9509
 -85.9514
 -85.9512
 -85.9535
 -85.9538
 -85.9531
 -85.9534
 -85.9349
 -85.9345
 -85.9345
 -85.9349
 -85.9354
 -85.9355
 -85.9352
 -85.9352
 -85.9548
 -85.9555
 -85.9552
 -85.9552
 -85.9527
 -85.9519
 -85.9519
 -85.9524
 -85.9436
 -85.9437
 -85.9434
 -85.9435
 -85.9474
 -85.9472
 -85.9476
 -85.9479
 -85.9492
 -85.9495
 -85.9493
 -85.9492
 -85.9432
 -85.9429
 -85.9436
 -85.943
 -85.9514
 -85.9511
 -85.9511
 -85.9507
 -85.9619
 -85.9615
 -85.9617
 -85.9618
 -85.9501
 -85.9507
 -85.9507
 -85.9511
 -85.9476
 -85.9477
 -85.9473
 -85.9481
 -85.9475
 -85.9474
 -85.947
 -85.9476
 -85.9493
 -85.9496
 -85.9493
 -85.9488
 -85.9592
 -85.9593
 -85.959
 -85.9592
 -85.956
 -85.9556
 -85.9558
 -85.951
 -85.951
 -85.9514
 -85.951
 -85.94
 -85.9399
 -85.9404
 -85.9399
 -85.9451
 -85.9452
 -85.9448
 -85.9453
 -85.9557
 -85.955
 -85.955
 -85.9551
 -85.9421
 -85.9423
 -85.9424
 -85.9426
 -85.9443
 -85.9439
 -85.9438
 -85.9445
 -85.9451
 -85.9449
 -85.9442
 -85.9447
 -85.9523
 -85.9519
 -85.9518
 -85.9517
 -85.9493
 -85.9488
 -85.9494
 -85.9484
 -85.9511
 -85.9502
 -85.9505
 -85.9506
 -85.941
 -85.9411
 -85.9412
 -85.941
 -85.945
 -85.9454
 -85.9455
 -85.9451
 -85.9518
 -85.9514
 -85.9519
 -85.9522
 -85.944
 -85.9442
 -85.9445
 -85.9437
 -85.9501
 -85.9505
 -85.9506
 -85.9502
 -85.9407
 -85.9406
 -85.9408
 -85.9405
 -85.9587
 -85.9588
 -85.9583
 -85.9587
 -85.9418
 -85.9414
 -85.9419
 -85.9422
 -85.941
 -85.9402
 -85.9407
 -85.9407
 -85.953
 -85.953
 -85.9534
 -85.9535
 -85.9418
 -85.9419
 -85.9421
 -85.942
 -85.9507
 -85.9506
 -85.9508
 -85.9502
 -85.938
 -85.9381
 -85.9374
 -85.9375
 -85.9488
 -85.9486
 -85.9488
 -85.9492
 -85.9574
 -85.958
 -85.9575
 -85.9578
 -85.9491
 -85.9484
 -85.9483
 -85.9488
 -85.9535
 -85.9538
 -85.9535
 -85.9535
 -85.9504
 -85.9502
 -85.9503
 -85.9507
 -85.9501
 -85.9503
 -85.9504
 -85.9508
 -85.9592
 -85.9592
 -85.9594
 -85.9587
 -85.9409
 -85.9407
 -85.9404
 -85.9404
 -85.9413
 -85.9411
 -85.9406
 -85.941
 -85.9565
 -85.9564
 -85.9562
 -85.9568
 -85.9578
 -85.9581
 -85.9577
 -85.9431
 -85.9429
 -85.9429
 -85.9432
 -85.9513
 -85.9519
 -85.9513
 -85.9513
 -85.9495
 -85.9497
 -85.9491
 -85.9498
 -85.9405
 -85.941
 -85.9402
 -85.9406
 -85.9537
 -85.954
 -85.9539
 -85.9539
 -85.947
 -85.9464
 -85.9465
 -85.947
 -85.9488
 -85.9482
 -85.9483
 -85.9482
 -85.9542
 -85.9546
 -85.9545
 -85.9545
 -85.9394
 -85.9393
 -85.9395
 -85.9397
 -85.943
 -85.9424
 -85.9426
 -85.9425
 -85.9598
 -85.9594
 -85.9597
 -85.9596
 -85.9411
 -85.941
 -85.9412
 -85.9418
 -85.9397
 -85.9395
 -85.9396
 -85.9396
 -85.9474
 -85.9475
 -85.9473
 -85.948
 -85.932
 -85.9322
 -85.9318
 -85.9326
 -85.9483
 -85.9485
 -85.9482
 -85.9484
 -85.9546
 -85.9544
 -85.9543
 -85.9542
 -85.9562
 -85.9558
 -85.956
 -85.9384
 -85.9384
 -85.9386
 -85.9384
 -85.942
 -85.9425
 -85.9418
 -85.9423
 -85.9407
 -85.9406
 -85.9402
 -85.9402
 -85.9428
 -85.9424
 -85.9426
 -85.9425
 -85.96
 -85.9602
 -85.9603
 -85.9602
 -85.939
 -85.9391
 -85.9389
 -85.9385
 -85.9418
 -85.9414
 -85.9418
 -85.9424
 -85.9559
 -85.9563
 -85.956
 -85.9558
 -85.9445
 -85.9444
 -85.9448
 -85.9423
 -85.9418
 -85.9423
 -85.9491
 -85.9489
 -85.9484
 -85.9329
 -85.9336
 -85.9337
 -85.9331
 -85.9486
 -85.949
 -85.9488
 -85.9492
 -85.9482
 -85.9486
 -85.9478
 -85.9479
 -85.9565
 -85.9568
 -85.9564
 -85.9563
 -85.9579
 -85.9579
 -85.9585
 -85.9579
 -85.9402
 -85.9396
 -85.9396
 -85.9406
 -85.9495
 -85.9501
 -85.9501
 -85.9499
 -85.9493
 -85.9497
 -85.9499
 -85.9498
 -85.9466
 -85.9473
 -85.947
 -85.9474
 -85.9438
 -85.944
 -85.9442
 -85.9434
 -85.9497
 -85.9491
 -85.9495
 -85.9496
 -85.941
 -85.9411
 -85.9409
 -85.9413
 -85.9575
 -85.9573
 -85.9575
 -85.9576
 -85.9429
 -85.9428
 -85.943
 -85.9434
 -85.9561
 -85.9556
 -85.9559
 -85.9558
 -85.9585
 -85.9583
 -85.9579
 -85.9583
 -85.9586
 -85.9585
 -85.9584
 -85.9583
 -85.9419
 -85.9416
 -85.9531
 -85.953
 -85.9527
 -85.9529
 -85.9407
 -85.9414
 -85.9411
 -85.9409
 -85.9543
 -85.955
 -85.9548
 -85.955
 -85.9558
 -85.9556
 -85.9561
 -85.9556
 -85.9431
 -85.9436
 -85.9436
 -85.9433
 -85.9495
 -85.9495
 -85.9499
 -85.9498
 -85.9428
 -85.9427
 -85.9432
 -85.9428
 -85.9455
 -85.9454
 -85.9456
 -85.9461
 -85.9283
 -85.9291
 -85.9281
 -85.9288
 -85.9571
 -85.9569
 -85.9575
 -85.9571
 -85.943
 -85.9426
 -85.9432
 -85.9436
 -85.9384
 -85.938
 -85.938
 -85.9385
 -85.9463
 -85.946
 -85.9466
 -85.9466
 -85.9382
 -85.9374
 -85.9372
 -85.9382
 -85.9461
 -85.9456
 -85.9453
 -85.9459
 -85.9529
 -85.9527
 -85.9533
 -85.9525
 -85.947
 -85.9466
 -85.9466
 -85.9468
 -85.9566
 -85.9572
 -85.9567
 -85.9463
 -85.9469
 -85.9463
 -85.9468
 -85.9281
 -85.9279
 -85.9278
 -85.9277
 -85.9603
 -85.9604
 -85.9605
 -85.9603
 -85.9493
 -85.9492
 -85.9495
 -85.949
 -85.9545
 -85.9542
 -85.9537
 -85.9543
 -85.9402
 -85.9406
 -85.9395
 -85.94
 -85.9437
 -85.9441
 -85.9433
 -85.9439
 -85.9438
 -85.9446
 -85.9441
 -85.9446
 -85.9582
 -85.9579
 -85.9583
 -85.9586
 -85.9446
 -85.9442
 -85.9439
 -85.944
 -85.9598
 -85.9597
 -85.9599
 -85.9595
 -85.9524
 -85.9518
 -85.9519
 -85.9525
 -85.9411
 -85.9412
 -85.9413
 -85.941
 -85.9317
 -85.9318
 -85.9324
 -85.9315
 -85.9456
 -85.9449
 -85.9453
 -85.9447
 -85.9473
 -85.9473
 -85.9478
 -85.9472
 -85.9531
 -85.9531
 -85.9529
 -85.9525
 -85.9289
 -85.9283
 -85.9291
 -85.9288
 -85.9458
 -85.9454
 -85.9461
 -85.9459
 -85.9594
 -85.9591
 -85.9589
 -85.959
 -85.9554
 -85.9558
 -85.9557
 -85.9555
 -85.9552
 -85.9553
 -85.9556
 -85.9551
 -85.9546
 -85.9542
 -85.954
 -85.9543
 -85.9554
 -85.956
 -85.9557
 -85.9556
 -85.9508
 -85.9509
 -85.9508
 -85.9508
 -85.9415
 -85.9426
 -85.9431
 -85.9431
 -85.9429
 -85.9522
 -85.9516
 -85.9519
 -85.9517
 -85.952
 -85.9522
 -85.9515
 -85.9516
 -85.9369
 -85.9372
 -85.9372
 -85.937
 -85.957
 -85.957
 -85.9567
 -85.957
 -85.9543
 -85.9547
 -85.9553
 -85.9549
 -85.9411
 -85.9417
 -85.9416
 -85.9416
 -85.9417
 -85.9415
 -85.9425
 -85.9428
 -85.9427
 -85.9431
 -85.9412
 -85.9406
 -85.9399
 -85.9403
 -85.9519
 -85.9525
 -85.9523
 -85.9519
 -85.9598
 -85.9598
 -85.9597
 -85.9599
 -85.9477
 -85.9473
 -85.9477
 -85.9471
 -85.9581
 -85.9574
 -85.9571
 -85.9571
 -85.946
 -85.9459
 -85.9457
 -85.9462
 -85.9517
 -85.9514
 -85.9511
 -85.9511
 -85.9404
 -85.9403
 -85.9402
 -85.9397
 -85.9497
 -85.9503
 -85.9495
 -85.9499
 -85.9506
 -85.9513
 -85.9515
 -85.9507
 -85.9418
 -85.9416
 -85.9412
 -85.9414
 -85.9444
 -85.9441
 -85.945
 -85.9446
 -85.9461
 -85.9461
 -85.9456
 -85.9453
 -85.9497
 -85.95
 -85.9498
 -85.9499
 -85.9365
 -85.9367
 -85.9369
 -85.9374
 -85.9508
 -85.9503
 -85.9506
 -85.9509
 -85.9445
 -85.9439
 -85.9446
 -85.945
 -85.953
 -85.9528
 -85.9529
 -85.9526
 -85.9562
 -85.9559
 -85.9562
 -85.956
 -85.9587
 -85.9585
 -85.9584
 -85.9586
 -85.9579
 -85.9581
 -85.9575
 -85.9602
 -85.9602
 -85.9604
 -85.9605
 -85.9551
 -85.9547
 -85.9542
 -85.9548
 -85.9471
 -85.947
 -85.9474
 -85.9473
 -85.9581
 -85.9578
 -85.9576
 -85.9581
 -85.9486
 -85.9487
 -85.9484
 -85.9483
 -85.9498
 -85.9501
 -85.9499
 -85.9583
 -85.9586
 -85.9584
 -85.9583
 -85.9573
 -85.9569
 -85.9571
 -85.949
 -85.9488
 -85.9493
 -85.9494
 -85.9442
 -85.9446
 -85.9442
 -85.9449
 -85.9525
 -85.9521
 -85.952
 -85.9519
 -85.9584
 -85.9587
 -85.9585
 -85.9584
 -85.942
 -85.9419
 -85.9422
 -85.9417
 -85.947
 -85.9469
 -85.9464
 -85.9464
 -85.9477
 -85.9484
 -85.9476
 -85.9478
 -85.9529
 -85.9524
 -85.9528
 -85.9529
 -85.9423
 -85.9418
 -85.9426
 -85.942
 -85.9402
 -85.9398
 -85.9403
 -85.9401
 -85.9477
 -85.9477
 -85.9476
 -85.9482
 -85.9595
 -85.9592
 -85.9592
 -85.9593
 -85.9433
 -85.9427
 -85.9433
 -85.943
 -85.9407
 -85.9411
 -85.9406
 -85.9411
 -85.9508
 -85.9501
 -85.9508
 -85.9507
 -85.9427
 -85.9428
 -85.9425
 -85.9409
 -85.9412
 -85.9411
 -85.95
 -85.9497
 -85.9504
 -85.9499
 -85.941
 -85.9408
 -85.9405
 -85.941
 -85.9413
 -85.9407
 -85.9411
 -85.9411
 -85.9509
 -85.951
 -85.9507
 -85.941
 -85.9409
 -85.956
 -85.9561
 -85.9568
 -85.9569
 -85.9524
 -85.9532
 -85.9532
 -85.9529
 -85.9365
 -85.937
 -85.9361
 -85.9372
 -85.933
 -85.933
 -85.9325
 -85.933
 -85.9425
 -85.9416
 -85.9422
 -85.9422
 -85.9577
 -85.9576
 -85.9578
 -85.9577
 -85.9517
 -85.9513
 -85.951
 -85.9513
 -85.9394
 -85.9393
 -85.9392
 -85.9392
 -85.9428
 -85.9429
 -85.9432
 -85.9436
 -85.9431
 -85.9432
 -85.9431
 -85.9418
 -85.9422
 -85.9422
 -85.9422
 -85.9422
 -85.9419
 -85.9423
 -85.9425
 -85.9406
 -85.9401
 -85.9406
 -85.9401
 -85.9593
 -85.9595
 -85.9594
 -85.9594
 -85.958
 -85.9584
 -85.9579
 -85.9477
 -85.9473
 -85.9477
 -85.9471
 -85.9423
 -85.9416
 -85.9424
 -85.9422
 -85.9604
 -85.9606
 -85.9408
 -85.9405
 -85.9406
 -85.9404
 -85.9489
 -85.9498
 -85.9492
 -85.9495
 -85.9512
 -85.951
 -85.9409
 -85.9409
 -85.9415
 -85.941
 -85.9585
 -85.9587
 -85.9584
 -85.9589
 -85.9599
 -85.9596
 -85.9597
 -85.9601
 -85.9463
 -85.9466
 -85.9463
 -85.9364
 -85.9369
 -85.9366
 -85.9415
 -85.9421
 -85.9414
 -85.9416
 -85.954
 -85.9535
 -85.9543
 -85.9535
 -85.9437
 -85.9432
 -85.9433
 -85.9428
 -85.9434
 -85.943
 -85.9436
 -85.9429
 -85.952
 -85.9519
 -85.9522
 -85.9527
 -85.9293
 -85.9296
 -85.9291
 -85.9286
 -85.9533
 -85.9535
 -85.9539
 -85.9538
 -85.9538
 -85.9538
 -85.9541
 -85.9544
 -85.9402
 -85.9402
 -85.9396
 -85.94
 -85.9572
 -85.9575
 -85.9575
 -85.9571
 -85.9282
 -85.9275
 -85.9276
 -85.9272
 -85.9586
 -85.9579
 -85.9579
 -85.9578
 -85.9556
 -85.9553
 -85.9429
 -85.9432
 -85.9431
 -85.9435
 -85.9397
 -85.9393
 -85.9395
 -85.9399
 -85.957
 -85.9574
 -85.9573
 -85.9572
 -85.9441
 -85.9443
 -85.9443
 -85.944
 -85.9593
 -85.9591
 -85.9592
 -85.9425
 -85.942
 -85.9418
 -85.9391
 -85.9396
 -85.9397
 -85.9589
 -85.9591
 -85.9589
 -85.9587
 -85.9427
 -85.9424
 -85.9424
 -85.9424
 -85.9572
 -85.9572
 -85.9391
 -85.9394
 -85.9391
 -85.9392
 -85.9483
 -85.9488
 -85.9489
 -85.9484
 -85.9434
 -85.9431
 -85.9453
 -85.9463
 -85.9462
 -85.9456
 -85.9429
 -85.9428
 -85.9429
 -85.9423
 -85.9597
 -85.9601
 -85.9595
 -85.9597
 -85.94
 -85.9397
 -85.9398
 -85.9557
 -85.9286
 -85.9285
 -85.9285
 -85.9283
 -85.9568
 -85.957
 -85.9572
 -85.9564
 -85.9434
 -85.9434
 -85.9442
 -85.9441
 -85.9531
 -85.9529
 -85.9529
 -85.953
 -85.9428
 -85.9425
 -85.9422
 -85.9427
 -85.9519
 -85.937
 -85.9369
 -85.9368
 -85.937
 -85.9517
 -85.9517
 -85.9516
 -85.9511
 -85.9552
 -85.9555
 -85.9556
 -85.9548
 -85.9552
 -85.9547
 -85.9554
 -85.9571
 -85.9575
 -85.9573
 -85.9573
 -85.9402
 -85.9403
 -85.9408
 -85.9406
 -85.9564
 -85.9564
 -85.9563
 -85.9568
 -85.9384
 -85.9383
 -85.9384
 -85.9378
 -85.9559
 -85.9561
 -85.9563
 -85.9563
 -85.9474
 -85.9471
 -85.947
 -85.9468
 -85.9529
 -85.9533
 -85.9534
 -85.9535
 -85.949
 -85.9488
 -85.9486
 -85.9484
 -85.9586
 -85.958
 -85.949
 -85.9485
 -85.9485
 -85.9489
 -85.9368
 -85.9367
 -85.9373
 -85.9367
 -85.938
 -85.9378
 -85.9387
 -85.9379
 -85.949
 -85.9495
 -85.9495
 -85.9496
 -85.9538
 -85.9538
 -85.9537
 -85.9543
 -85.9544
 -85.9541
 -85.9542
 -85.9546
 -85.9582
 -85.9577
 -85.9578
 -85.9575
 -85.9546
 -85.9552
 -85.9549
 -85.9546
 -85.938
 -85.9381
 -85.9384
 -85.9377
 -85.9407
 -85.9408
 -85.9406
 -85.9414
 -85.9605
 -85.9603
 -85.9602
 -85.9602
 -85.95
 -85.9502
 -85.9501
 -85.9508
 -85.9414
 -85.9421
 -85.9414
 -85.942
 -85.9306
 -85.9305
 -85.9312
 -85.9303
 -85.9569
 -85.9571
 -85.9567
 -85.9575
 -85.9421
 -85.9421
 -85.9423
 -85.9426
 -85.9455
 -85.946
 -85.9452
 -85.9456
 -85.9382
 -85.938
 -85.9381
 -85.9385
 -85.9515
 -85.9513
 -85.9515
 -85.9515
 -85.9581
 -85.9582
 -85.958
 -85.9581
 -85.9505
 -85.9498
 -85.95
 -85.9499
 -85.9463
 -85.9463
 -85.947
 -85.9467
 -85.9372
 -85.9375
 -85.9377
 -85.9369
 -85.958
 -85.9524
 -85.9527
 -85.9521
 -85.9526
 -85.9454
 -85.9451
 -85.9446
 -85.9448
 -85.9535
 -85.9539
 -85.9538
 -85.9542
 -85.9414
 -85.9412
 -85.9412
 -85.9418
 -85.9514
 -85.9517
 -85.9511
 -85.9367
 -85.9374
 -85.9368
 -85.9367
 -85.9557
 -85.9549
 -85.9554
 -85.9552
 -85.9402
 -85.9401
 -85.9404
 -85.9402
 -85.9613
 -85.9612
 -85.9613
 -85.9614
 -85.9421
 -85.9422
 -85.9423
 -85.9422
 -85.9324
 -85.9337
 -85.9336
 -85.9331
 -85.9361
 -85.9361
 -85.9366
 -85.9365
 -85.9605
 -85.9603
 -85.9601
 -85.96
 -85.9589
 -85.9588
 -85.959
 -85.9591
 -85.9477
 -85.9482
 -85.948
 -85.9482
 -85.9426
 -85.9425
 -85.9429
 -85.9491
 -85.9492
 -85.9484
 -85.9487
 -85.9523
 -85.952
 -85.9526
 -85.9527
 -85.9489
 -85.9499
 -85.9496
 -85.9495
 -85.9482
 -85.9484
 -85.9491
 -85.9487
 -85.96
 -85.9597
 -85.9598
 -85.9596
 -85.9411
 -85.9409
 -85.9415
 -85.941
 -85.9362
 -85.9352
 -85.9354
 -85.9536
 -85.9532
 -85.9535
 -85.9533
 -85.9568
 -85.9572
 -85.9569
 -85.9568
 -85.9417
 -85.9416
 -85.9419
 -85.9412
 -85.9413
 -85.9415
 -85.9409
 -85.9575
 -85.9572
 -85.9576
 -85.957
 -85.9469
 -85.9468
 -85.9473
 -85.9469
 -85.9413
 -85.9407
 -85.9411
 -85.9411
 -85.9454
 -85.9451
 -85.9451
 -85.9455
 -85.9558
 -85.9558
 -85.9553
 -85.9557
 -85.9415
 -85.9422
 -85.9411
 -85.942
 -85.9459
 -85.9451
 -85.9454
 -85.9456
 -85.9434
 -85.9439
 -85.9435
 -85.959
 -85.9589
 -85.9586
 -85.9587
 -85.947
 -85.9472
 -85.9467
 -85.9473
 -85.9605
 -85.9604
 -85.9609
 -85.9488
 -85.949
 -85.9489
 -85.9487
 -85.9372
 -85.9377
 -85.9369
 -85.9372
 -85.9505
 -85.9507
 -85.951
 -85.9515
 -85.948
 -85.9486
 -85.9478
 -85.942
 -85.9422
 -85.9426
 -85.9422
 -85.9399
 -85.9401
 -85.9398
 -85.9402
 -85.9419
 -85.9422
 -85.9425
 -85.9418
 -85.932
 -85.932
 -85.9327
 -85.9328
 -85.9444
 -85.9443
 -85.9441
 -85.944
 -85.9434
 -85.9433
 -85.944
 -85.9431
 -85.9576
 -85.9571
 -85.9572
 -85.9579
 -85.9392
 -85.9399
 -85.9397
 -85.9395
 -85.9519
 -85.9517
 -85.9521
 -85.9522
 -85.9592
 -85.9592
 -85.959
 -85.9588
 -85.9593
 -85.9588
 -85.9591
 -85.9593
 -85.9554
 -85.9557
 -85.9554
 -85.9556
 -85.9597
 -85.96
 -85.96
 -85.9594
 -85.9579
 -85.958
 -85.958
 -85.9605
 -85.9599
 -85.9601
 -85.9601
 -85.9382
 -85.9379
 -85.9382
 -85.9377
 -85.9453
 -85.9448
 -85.9445
 -85.9448
 -85.9435
 -85.9441
 -85.9437
 -85.9442
 -85.9445
 -85.9442
 -85.9441
 -85.944
 -85.9585
 -85.9582
 -85.9584
 -85.9586
 -85.9453
 -85.9453
 -85.9449
 -85.9446
 -85.942
 -85.9414
 -85.9414
 -85.9419
 -85.9526
 -85.9524
 -85.953
 -85.9523
 -85.9424
 -85.943
 -85.9424
 -85.9427
 -85.9539
 -85.9535
 -85.9534
 -85.949
 -85.9495
 -85.9495
 -85.9572
 -85.9568
 -85.957
 -85.957
 -85.9454
 -85.9456
 -85.9452
 -85.9452
 -85.9515
 -85.9511
 -85.9512
 -85.9516
 -85.9442
 -85.9435
 -85.9439
 -85.9443
 -85.9606
 -85.9604
 -85.9593
 -85.9592
 -85.959
 -85.9594
 -85.9375
 -85.9373
 -85.9374
 -85.9371
 -85.9518
 -85.9522
 -85.9523
 -85.9526
 -85.9419
 -85.9425
 -85.942
 -85.9416
 -85.9263
 -85.9253
 -85.9262
 -85.9258
 -85.9424
 -85.9423
 -85.9419
 -85.9422
 -85.9536
 -85.9531
 -85.9536
 -85.9394
 -85.9392
 -85.9399
 -85.9399
 -85.959
 -85.9585
 -85.9591
 -85.9587
 -85.9425
 -85.9427
 -85.9426
 -85.9428
 -85.9515
 -85.952
 -85.9517
 -85.9516
 -85.9374
 -85.9377
 -85.9371
 -85.9375
 -85.9302
 -85.9302
 -85.9305
 -85.9307
 -85.9416
 -85.9419
 -85.9415
 -85.9414
 -85.9447
 -85.9445
 -85.9449
 -85.9496
 -85.9488
 -85.9497
 -85.9493
 -85.9402
 -85.9402
 -85.9397
 -85.9539
 -85.9537
 -85.954
 -85.9543
 -85.9554
 -85.9561
 -85.9555
 -85.956
 -85.9531
 -85.9527
 -85.9531
 -85.9532
 -85.9587
 -85.9578
 -85.9581
 -85.9583
 -85.9549
 -85.9546
 -85.9548
 -85.9432
 -85.9436
 -85.9435
 -85.9437
 -85.9544
 -85.9539
 -85.9524
 -85.9519
 -85.9517
 -85.9522
 -85.9536
 -85.9534
 -85.9534
 -85.9537
 -85.9416
 -85.9419
 -85.9417
 -85.9412
 -85.9421
 -85.9425
 -85.9421
 -85.9425
 -85.9266
 -85.9269
 -85.927
 -85.9267
 -85.942
 -85.9424
 -85.942
 -85.9433
 -85.9431
 -85.943
 -85.9432
 -85.9477
 -85.9477
 -85.9474
 -85.9473
 -85.9434
 -85.9439
 -85.944
 -85.9436
 -85.9376
 -85.9379
 -85.9375
 -85.9374
 -85.9555
 -85.9549
 -85.9555
 -85.955
 -85.9475
 -85.9479
 -85.9474
 -85.9471
 -85.9586
 -85.9586
 -85.9584
 -85.9587
 -85.9501
 -85.9496
 -85.9501
 -85.9498
 -85.9581
 -85.9583
 -85.9582
 -85.9313
 -85.9319
 -85.9317
 -85.9317
 -85.9533
 -85.954
 -85.9534
 -85.9535
 -85.9461
 -85.9456
 -85.9462
 -85.9459
 -85.9408
 -85.9405
 -85.944
 -85.9441
 -85.9444
 -85.9442
 -85.9458
 -85.9453
 -85.9454
 -85.9575
 -85.9576
 -85.9573
 -85.9575
 -85.9576
 -85.9574
 -85.957
 -85.9572
 -85.941
 -85.9408
 -85.941
 -85.9409
 -85.947
 -85.9468
 -85.9426
 -85.9431
 -85.9428
 -85.9423
 -85.9545
 -85.9542
 -85.9548
 -85.9549
 -85.937
 -85.937
 -85.937
 -85.9372
 -85.9415
 -85.9417
 -85.9413
 -85.9412
 -85.9425
 -85.943
 -85.9432
 -85.943
 -85.9487
 -85.9486
 -85.9486
 -85.9494
 -85.954
 -85.9539
 -85.9537
 -85.9537
 -85.9549
 -85.9545
 -85.9541
 -85.9546
 -85.9287
 -85.9286
 -85.9285
 -85.9283
 -85.9395
 -85.9399
 -85.9401
 -85.9496
 -85.9488
 -85.9493
 -85.9503
 -85.9508
 -85.9503
 -85.9508
 -85.9583
 -85.9585
 -85.9583
 -85.9587
 -85.9469
 -85.9422
 -85.9422
 -85.9416
 -85.9418
 -85.9519
 -85.9516
 -85.9511
 -85.9514
 -85.9552
 -85.9547
 -85.9549
 -85.9554
 -85.957
 -85.9571
 -85.941
 -85.9407
 -85.9405
 -85.9405
 -85.948
 -85.9483
 -85.9482
 -85.9485
 -85.9396
 -85.9394
 -85.9396
 -85.9398
 -85.9504
 -85.9446
 -85.9443
 -85.9452
 -85.9454
 -85.9437
 -85.944
 -85.9442
 -85.9439
 -85.9584
 -85.9579
 -85.9592
 -85.9594
 -85.9594
 -85.9593
 -85.934
 -85.9337
 -85.9339
 -85.9341
 -85.9547
 -85.9548
 -85.9542
 -85.9551
 -85.9505
 -85.9498
 -85.9501
 -85.9506
 -85.9298
 -85.93
 -85.93
 -85.9297
 -85.9477
 -85.9478
 -85.948
 -85.9475
 -85.9474
 -85.9468
 -85.9465
 -85.9466
 -85.9404
 -85.9399
 -85.9405
 -85.9403
 -85.9604
 -85.9605
 -85.9606
 -85.9606
 -85.9467
 -85.9461
 -85.9463
 -85.9429
 -85.9435
 -85.9435
 -85.943
 -85.9595
 -85.96
 -85.9597
 -85.9598
 -85.9429
 -85.9426
 -85.9422
 -85.9431
 -85.9459
 -85.9463
 -85.9559
 -85.956
 -85.9564
 -85.9556
 -85.9496
 -85.9496
 -85.9502
 -85.9501
 -85.9589
 -85.9586
 -85.9589
 -85.9588
 -85.9465
 -85.9473
 -85.9417
 -85.9418
 -85.942
 -85.942
 -85.943
 -85.943
 -85.9433
 -85.9435
 -85.9566
 -85.9565
 -85.956
 -85.9562
 -85.9553
 -85.9551
 -85.9554
 -85.9554
 -85.9545
 -85.9538
 -85.9544
 -85.9542
 -85.9435
 -85.9441
 -85.9438
 -85.9435
 -85.9341
 -85.9337
 -85.934
 -85.9341
 -85.9595
 -85.9598
 -85.9595
 -85.9596
 -85.9402
 -85.9403
 -85.9404
 -85.9407
 -85.9491
 -85.9494
 -85.9497
 -85.9491
 -85.9441
 -85.945
 -85.9444
 -85.9447
 -85.949
 -85.9484
 -85.9489
 -85.9514
 -85.952
 -85.9514
 -85.952
 -85.9478
 -85.9482
 -85.9479
 -85.9475
 -85.9534
 -85.9535
 -85.9539
 -85.9532
 -85.9532
 -85.9531
 -85.9533
 -85.9526
 -85.9296
 -85.9305
 -85.9297
 -85.9375
 -85.9382
 -85.9383
 -85.9381
 -85.9489
 -85.9485
 -85.9486
 -85.9486
 -85.9562
 -85.9566
 -85.9563
 -85.9568
 -85.9419
 -85.9412
 -85.9419
 -85.9427
 -85.943
 -85.943
 -85.9508
 -85.9506
 -85.9509
 -85.951
 -85.9488
 -85.9491
 -85.9494
 -85.9494
 -85.9616
 -85.9616
 -85.9614
 -85.9616
 -85.9361
 -85.9363
 -85.9359
 -85.9352
 -85.9541
 -85.9544
 -85.9449
 -85.9456
 -85.9455
 -85.9451
 -85.9529
 -85.9532
 -85.9532
 -85.9533
 -85.95
 -85.9502
 -85.9506
 -85.9502
 -85.9457
 -85.9456
 -85.9462
 -85.9453
 -85.9524
 -85.9529
 -85.9526
 -85.9528
 -85.941
 -85.9412
 -85.9412
 -85.9415
 -85.9391
 -85.9387
 -85.9392
 -85.939
 -85.9556
 -85.9558
 -85.9563
 -85.9568
 -85.9487
 -85.949
 -85.9494
 -85.9328
 -85.9327
 -85.933
 -85.9568
 -85.9571
 -85.9572
 -85.9573
 -85.9576
 -85.9574
 -85.9572
 -85.9571
 -85.9478
 -85.9479
 -85.9481
 -85.9483
 -85.9584
 -85.9586
 -85.9586
 -85.9585
 -85.9587
 -85.9592
 -85.9588
 -85.9593
 -85.9457
 -85.946
 -85.9464
 -85.9458
 -85.9548
 -85.955
 -85.9553
 -85.9552
 -85.9614
 -85.9615
 -85.9613
 -85.9616
 -85.9548
 -85.9548
 -85.9545
 -85.9551
 -85.9492
 -85.9486
 -85.9489
 -85.9483
 -85.9564
 -85.9565
 -85.9562
 -85.9561
 -85.9533
 -85.9531
 -85.9535
 -85.9509
 -85.9513
 -85.9345
 -85.9347
 -85.9344
 -85.9342
 -85.9505
 -85.9511
 -85.9509
 -85.9509
 -85.935
 -85.9352
 -85.9353
 -85.9353
 -85.9349
 -85.9348
 -85.9356
 -85.9356
 -85.9496
 -85.95
 -85.9499
 -85.9495
 -85.9449
 -85.9449
 -85.9445
 -85.9451
 -85.9515
 -85.952
 -85.9519
 -85.9518
 -85.9484
 -85.948
 -85.9384
 -85.9382
 -85.9384
 -85.9387
 -85.9595
 -85.9597
 -85.9598
 -85.9596
 -85.9451
 -85.9448
 -85.9456
 -85.9452
 -85.9563
 -85.9561
 -85.9558
 -85.9561
 -85.9385
 -85.938
 -85.9384
 -85.9382
 -85.9578
 -85.9582
 -85.9581
 -85.9582
 -85.9507
 -85.9501
 -85.9506
 -85.9506
 -85.9422
 -85.9416
 -85.9411
 -85.9415
 -85.9614
 -85.9613
 -85.9613
 -85.9611
 -85.9437
 -85.9442
 -85.9438
 -85.9438
 -85.9457
 -85.9449
 -85.9454
 -85.945
 -85.9598
 -85.9599
 -85.9596
 -85.96
 -85.9478
 -85.947
 -85.9473
 -85.9473
 -85.9567
 -85.957
 -85.9568
 -85.9566
 -85.9562
 -85.9559
 -85.956
 -85.9462
 -85.9453
 -85.9456
 -85.9456
 -85.9562
 -85.9566
 -85.9564
 -85.9565
 -85.9406
 -85.9411
 -85.9411
 -85.9406
 -85.9575
 -85.9577
 -85.9577
 -85.9575
 -85.9572
 -85.9571
 -85.9573
 -85.9571
 -85.9413
 -85.9411
 -85.942
 -85.9415
 -85.9419
 -85.9417
 -85.9422
 -85.9415
 -85.9241
 -85.9242
 -85.9238
 -85.924
 -85.9543
 -85.9538
 -85.9538
 -85.9351
 -85.9358
 -85.9359
 -85.9355
 -85.959
 -85.9587
 -85.9588
 -85.9589
 -85.9409
 -85.9566
 -85.9561
 -85.9562
 -85.9565
 -85.9566
 -85.9561
 -85.9562
 -85.9285
 -85.9279
 -85.9282
 -85.9284
 -85.9274
 -85.9275
 -85.9273
 -85.9271
 -85.9587
 -85.9583
 -85.9586
 -85.9589
 -85.9418
 -85.9416
 -85.9421
 -85.9416
 -85.9531
 -85.9529
 -85.9534
 -85.9441
 -85.9437
 -85.9441
 -85.9435
 -85.9462
 -85.9462
 -85.9461
 -85.9563
 -85.9562
 -85.9568
 -85.9505
 -85.951
 -85.951
 -85.9506
 -85.9444
 -85.9437
 -85.9438
 -85.9442
 -85.9415
 -85.9417
 -85.9414
 -85.9416
 -85.9531
 -85.9534
 -85.9535
 -85.9378
 -85.9382
 -85.9373
 -85.9372
 -85.9415
 -85.9424
 -85.9417
 -85.9455
 -85.9465
 -85.9462
 -85.9459
 -85.9401
 -85.9406
 -85.9407
 -85.9405
 -85.9416
 -85.9421
 -85.9423
 -85.9421
 -85.9566
 -85.9563
 -85.9563
 -85.9563
 -85.9468
 -85.9464
 -85.9467
 -85.947
 -85.943
 -85.943
 -85.9491
 -85.9488
 -85.949
 -85.9484
 -85.9579
 -85.9592
 -85.9594
 -85.9593
 -85.9592
 -85.9233
 -85.9232
 -85.9231
 -85.9233
 -85.9555
 -85.956
 -85.9557
 -85.9605
 -85.9604
 -85.9603
 -85.9605
 -85.9546
 -85.954
 -85.9542
 -85.954
 -85.9412
 -85.9414
 -85.9417
 -85.9413
 -85.9464
 -85.946
 -85.9458
 -85.9458
 -85.9608
 -85.9608
 -85.9607
 -85.9606
 -85.9543
 -85.9539
 -85.9536
 -85.954
 -85.9374
 -85.9371
 -85.937
 -85.9378
 -85.9456
 -85.9456
 -85.9458
 -85.9449
 -85.9451
 -85.9453
 -85.9456
 -85.9451
 -85.9232
 -85.9232
 -85.9232
 -85.9233
 -85.9406
 -85.9405
 -85.9404
 -85.9408
 -85.9545
 -85.9551
 -85.9546
 -85.9549
 -85.9509
 -85.9508
 -85.9514
 -85.9507
 -85.947
 -85.9473
 -85.9478
 -85.9473
 -85.9536
 -85.9542
 -85.9539
 -85.954
 -85.951
 -85.951
 -85.9515
 -85.9509
 -85.9538
 -85.9537
 -85.9535
 -85.9543
 -85.9614
 -85.961
 -85.9611
 -85.9614
 -85.9553
 -85.955
 -85.9549
 -85.9543
 -85.9533
 -85.9529
 -85.9527
 -85.9532
 -85.9527
 -85.9491
 -85.9491
 -85.9487
 -85.9496
 -85.9594
 -85.9593
 -85.9592
 -85.9591
 -85.9469
 -85.9465
 -85.947
 -85.9468
 -85.9506
 -85.9508
 -85.9511
 -85.9502
 -85.9482
 -85.9476
 -85.9481
 -85.9485
 -85.9442
 -85.9434
 -85.9441
 -85.9436
 -85.9315
 -85.9317
 -85.9325
 -85.9315
 -85.9616
 -85.9613
 -85.9523
 -85.952
 -85.952
 -85.9253
 -85.9253
 -85.9253
 -85.9424
 -85.942
 -85.9422
 -85.9417
 -85.9347
 -85.9349
 -85.9339
 -85.9339
 -85.9395
 -85.9392
 -85.9396
 -85.9388
 -85.9593
 -85.9587
 -85.959
 -85.959
 -85.9494
 -85.9488
 -85.949
 -85.9487
 -85.9529
 -85.9535
 -85.9534
 -85.9539
 -85.951
 -85.951
 -85.9505
 -85.9503
 -85.954
 -85.9542
 -85.9538
 -85.9539
 -85.9474
 -85.9474
 -85.9565
 -85.9554
 -85.9565
 -85.9556
 -85.954
 -85.9537
 -85.9534
 -85.9542
 -85.9422
 -85.9416
 -85.9423
 -85.9417
 -85.9423
 -85.9425
 -85.9425
 -85.9426
 -85.9503
 -85.9504
 -85.9502
 -85.9506
 -85.9494
 -85.9497
 -85.95
 -85.9503
 -85.9397
 -85.9389
 -85.9389
 -85.9397
 -85.9534
 -85.9531
 -85.953
 -85.9528
 -85.961
 -85.9608
 -85.961
 -85.9609
 -85.9571
 -85.9568
 -85.9569
 -85.9567
 -85.9614
 -85.9616
 -85.9613
 -85.9616
 -85.9577
 -85.9581
 -85.958
 -85.958
 -85.9489
 -85.9496
 -85.9489
 -85.9491
 -85.9533
 -85.9529
 -85.9478
 -85.9484
 -85.9476
 -85.948
 -85.9423
 -85.9427
 -85.9427
 -85.9429
 -85.9553
 -85.9557
 -85.9557
 -85.9553
 -85.9475
 -85.9473
 -85.9476
 -85.947
 -85.9457
 -85.9453
 -85.9452
 -85.9454
 -85.9413
 -85.9414
 -85.9417
 -85.9419
 -85.943
 -85.9429
 -85.9427
 -85.9435
 -85.9412
 -85.9415
 -85.9417
 -85.9414
 -85.9324
 -85.9326
 -85.9322
 -85.9323
 -85.9547
 -85.9549
 -85.9543
 -85.9547
 -85.9526
 -85.9528
 -85.9333
 -85.9337
 -85.9336
 -85.9329
 -85.944
 -85.9441
 -85.9521
 -85.9517
 -85.9521
 -85.9572
 -85.9571
 -85.9405
 -85.9405
 -85.9403
 -85.9408
 -85.9332
 -85.9336
 -85.9336
 -85.9337
 -85.9393
 -85.9395
 -85.9398
 -85.9399
 -85.9438
 -85.9441
 -85.9443
 -85.9444
 -85.9511
 -85.9505
 -85.9505
 -85.9505
 -85.9526
 -85.9524
 -85.9523
 -85.9522
 -85.9436
 -85.9442
 -85.9442
 -85.9441
 -85.9507
 -85.9506
 -85.9508
 -85.9501
 -85.9485
 -85.9481
 -85.948
 -85.9483
 -85.9494
 -85.9498
 -85.9501
 -85.9498
 -85.9498
 -85.9492
 -85.9499
 -85.9477
 -85.9473
 -85.9481
 -85.9478
 -85.9447
 -85.9449
 -85.9443
 -85.9445
 -85.9418
 -85.9423
 -85.9416
 -85.9422
 -85.9592
 -85.9591
 -85.9593
 -85.9595
 -85.9467
 -85.9467
 -85.9472
 -85.9472
 -85.939
 -85.9389
 -85.9383
 -85.9388
 -85.9375
 -85.9375
 -85.9373
 -85.9372
 -85.9399
 -85.9396
 -85.9396
 -85.9398
 -85.9411
 -85.9412
 -85.9417
 -85.9418
 -85.9417
 -85.9414
 -85.9412
 -85.9415
 -85.9587
 -85.959
 -85.9589
 -85.959
 -85.9459
 -85.9459
 -85.9458
 -85.9463
 -85.9544
 -85.9547
 -85.9544
 -85.9541
 -85.9417
 -85.9423
 -85.9415
 -85.9421
 -85.9596
 -85.9598
 -85.9598
 -85.96
 -85.9601
 -85.9601
 -85.9603
 -85.9536
 -85.9527
 -85.953
 -85.9531
 -85.9429
 -85.9431
 -85.9426
 -85.9429
 -85.9609
 -85.9605
 -85.9606
 -85.9454
 -85.9449
 -85.9453
 -85.9445
 -85.9577
 -85.9578
 -85.957
 -85.9572
 -85.9576
 -85.9571
 -85.9445
 -85.9441
 -85.9443
 -85.9377
 -85.9379
 -85.9372
 -85.9375
 -85.9414
 -85.9411
 -85.9416
 -85.9417
 -85.9486
 -85.9491
 -85.9485
 -85.9596
 -85.9589
 -85.959
 -85.9539
 -85.9534
 -85.9532
 -85.9535
 -85.9598
 -85.9598
 -85.9593
 -85.9601
 -85.9461
 -85.9467
 -85.9469
 -85.9465
 -85.9575
 -85.9576
 -85.9579
 -85.9572
 -85.9487
 -85.9489
 -85.9485
 -85.9483
 -85.9432
 -85.9428
 -85.943
 -85.9605
 -85.9603
 -85.9604
 -85.9608
 -85.9527
 -85.9508
 -85.9514
 -85.9512
 -85.9509
 -85.9513
 -85.9513
 -85.951
 -85.9428
 -85.9425
 -85.9425
 -85.9425
 -85.9425
 -85.9431
 -85.9465
 -85.9459
 -85.9458
 -85.9457
 -85.9458
 -85.9464
 -85.9459
 -85.9462
 -85.9536
 -85.961
 -85.9606
 -85.9604
 -85.9608
 -85.9297
 -85.929
 -85.9295
 -85.9295
 -85.9442
 -85.9438
 -85.9429
 -85.9427
 -85.9429
 -85.9431
 -85.9425
 -85.9425
 -85.9419
 -85.9421
 -85.9543
 -85.9537
 -85.9539
 -85.9541
 -85.9548
 -85.9551
 -85.9544
 -85.9548
 -85.9432
 -85.9427
 -85.953
 -85.9529
 -85.9536
 -85.9532
 -85.9536
 -85.954
 -85.9536
 -85.95
 -85.9497
 -85.9494
 -85.9492
 -85.9468
 -85.9463
 -85.9467
 -85.9463
 -85.9544
 -85.9551
 -85.955
 -85.9546
 -85.9561
 -85.9562
 -85.9565
 -85.9561
 -85.9551
 -85.9556
 -85.9551
 -85.9547
 -85.9549
 -85.9548
 -85.9544
 -85.9465
 -85.9466
 -85.9466
 -85.9462
 -85.936
 -85.9359
 -85.9363
 -85.9363
 -85.9449
 -85.9448
 -85.9446
 -85.9447
 -85.9559
 -85.9555
 -85.9553
 -85.9557
 -85.9528
 -85.9527
 -85.9527
 -85.9532
 -85.9448
 -85.9451
 -85.9453
 -85.9454
 -85.9529
 -85.9524
 -85.9527
 -85.9528
 -85.9498
 -85.95
 -85.9491
 -85.9499
 -85.95
 -85.9506
 -85.9504
 -85.9505
 -85.9528
 -85.953
 -85.9531
 -85.9592
 -85.9593
 -85.9591
 -85.9591
 -85.9447
 -85.9452
 -85.945
 -85.9451
 -85.948
 -85.9486
 -85.9485
 -85.9483
 -85.936
 -85.9356
 -85.9356
 -85.9362
 -85.9412
 -85.9415
 -85.9415
 -85.9412
 -85.9419
 -85.941
 -85.9414
 -85.941
 -85.9412
 -85.9414
 -85.9413
 -85.9416
 -85.9496
 -85.9492
 -85.9494
 -85.9394
 -85.9393
 -85.9395
 -85.9396
 -85.9401
 -85.9403
 -85.9407
 -85.94
 -85.9605
 -85.9603
 -85.9602
 -85.9604
 -85.95
 -85.9496
 -85.9495
 -85.9493
 -85.9565
 -85.9565
 -85.9563
 -85.956
 -85.951
 -85.9512
 -85.9508
 -85.9505
 -85.9526
 -85.953
 -85.9527
 -85.9528
 -85.9426
 -85.9421
 -85.9424
 -85.9417
 -85.948
 -85.949
 -85.9483
 -85.9484
 -85.9562
 -85.9565
 -85.956
 -85.9562
 -85.9514
 -85.9513
 -85.9519
 -85.9517
 -85.9404
 -85.9402
 -85.9409
 -85.941
 -85.9592
 -85.9594
 -85.9592
 -85.9594
 -85.945
 -85.9445
 -85.94
 -85.9482
 -85.9484
 -85.9487
 -85.948
 -85.9467
 -85.9471
 -85.9465
 -85.9465
 -85.9341
 -85.934
 -85.9347
 -85.9442
 -85.9438
 -85.9436
 -85.9433
 -85.951
 -85.9519
 -85.9515
 -85.952
 -85.9486
 -85.9491
 -85.9488
 -85.9486
 -85.9583
 -85.9585
 -85.9585
 -85.9584
 -85.9416
 -85.9423
 -85.9418
 -85.9422
 -85.9422
 -85.9421
 -85.9427
 -85.9346
 -85.9338
 -85.9342
 -85.9346
 -85.9413
 -85.9419
 -85.9416
 -85.9506
 -85.9517
 -85.9507
 -85.9412
 -85.9411
 -85.9407
 -85.9409
 -85.9467
 -85.9473
 -85.9474
 -85.9473
 -85.9234
 -85.9234
 -85.9233
 -85.9237
 -85.9463
 -85.946
 -85.9461
 -85.9388
 -85.9388
 -85.9389
 -85.9389
 -85.9461
 -85.9459
 -85.9453
 -85.9458
 -85.9408
 -85.9412
 -85.9412
 -85.9414
 -85.953
 -85.9532
 -85.9529
 -85.9534
 -85.9545
 -85.9541
 -85.9545
 -85.9546
 -85.9601
 -85.9601
 -85.9602
 -85.96
 -85.9502
 -85.9496
 -85.9501
 -85.9503
 -85.9406
 -85.9401
 -85.9405
 -85.9403
 -85.9428
 -85.9425
 -85.937
 -85.937
 -85.9373
 -85.9372
 -85.9474
 -85.9476
 -85.9442
 -85.945
 -85.9448
 -85.9423
 -85.9425
 -85.9428
 -85.9424
 -85.9589
 -85.959
 -85.9585
 -85.9585
 -85.9586
 -85.9584
 -85.9582
 -85.9584
 -85.9426
 -85.9428
 -85.9425
 -85.942
 -85.9393
 -85.9394
 -85.9511
 -85.9512
 -85.9511
 -85.9516
 -85.942
 -85.9418
 -85.9422
 -85.9422
 -85.945
 -85.9443
 -85.9455
 -85.9614
 -85.9616
 -85.9613
 -85.9486
 -85.9493
 -85.949
 -85.949
 -85.9573
 -85.9577
 -85.9572
 -85.957
 -85.9495
 -85.9499
 -85.95
 -85.9494
 -85.9543
 -85.9547
 -85.9548
 -85.954
 -85.9405
 -85.9409
 -85.9406
 -85.9404
 -85.9416
 -85.9423
 -85.9414
 -85.9421
 -85.9497
 -85.9492
 -85.9501
 -85.9494
 -85.9444
 -85.9451
 -85.9453
 -85.9444
 -85.9401
 -85.9403
 -85.9405
 -85.9409
 -85.9468
 -85.9471
 -85.9474
 -85.9477
 -85.9522
 -85.9523
 -85.9519
 -85.9493
 -85.9498
 -85.9495
 -85.9498
 -85.9262
 -85.9268
 -85.927
 -85.9266
 -85.9395
 -85.9394
 -85.9395
 -85.9395
 -85.9442
 -85.944
 -85.9441
 -85.9447
 -85.9328
 -85.9333
 -85.9325
 -85.933
 -85.9572
 -85.957
 -85.9568
 -85.9603
 -85.9601
 -85.96
 -85.9601
 -85.9551
 -85.9559
 -85.9555
 -85.9555
 -85.9492
 -85.9522
 -85.9528
 -85.953
 -85.9526
 -85.9481
 -85.9485
 -85.9478
 -85.9478
 -85.9389
 -85.9383
 -85.9387
 -85.9421
 -85.9423
 -85.9424
 -85.9416
 -85.9265
 -85.9259
 -85.9265
 -85.9256
 -85.9341
 -85.9341
 -85.9345
 -85.9341
 -85.9438
 -85.9437
 -85.9441
 -85.9445
 -85.9608
 -85.9604
 -85.9605
 -85.9603
 -85.928
 -85.928
 -85.9286
 -85.9283
 -85.9537
 -85.9541
 -85.9534
 -85.9538
 -85.9494
 -85.9494
 -85.9499
 -85.9494
 -85.9426
 -85.9417
 -85.9417
 -85.9473
 -85.9467
 -85.9465
 -85.9465
 -85.9604
 -85.9605
 -85.9606
 -85.9394
 -85.9403
 -85.9404
 -85.9465
 -85.9468
 -85.9474
 -85.9473
 -85.9439
 -85.9438
 -85.9437
 -85.9435
 -85.9446
 -85.9445
 -85.9451
 -85.9452
 -85.9387
 -85.9384
 -85.9384
 -85.939
 -85.9473
 -85.9477
 -85.9471
 -85.9478
 -85.959
 -85.9584
 -85.9584
 -85.9582
 -85.9581
 -85.958
 -85.9578
 -85.9583
 -85.9378
 -85.9379
 -85.938
 -85.9378
 -85.9568
 -85.9569
 -85.9569
 -85.9564
 -85.9586
 -85.9591
 -85.9589
 -85.9585
 -85.9565
 -85.9565
 -85.956
 -85.9561
 -85.9523
 -85.9522
 -85.9526
 -85.9524
 -85.9484
 -85.9481
 -85.9487
 -85.9438
 -85.943
 -85.9433
 -85.9434
 -85.9548
 -85.9545
 -85.954
 -85.9546
 -85.9554
 -85.9555
 -85.9558
 -85.9556
 -85.9617
 -85.9616
 -85.9614
 -85.9614
 -85.9343
 -85.9346
 -85.9345
 -85.9346
 -85.9372
 -85.937
 -85.937
 -85.9373
 -85.9389
 -85.9388
 -85.9395
 -85.9387
 -85.9441
 -85.9434
 -85.9439
 -85.9439
 -85.9452
 -85.9452
 -85.9452
 -85.9589
 -85.9592
 -85.9596
 -85.9594
 -85.9559
 -85.9557
 -85.9555
 -85.9554
 -85.9478
 -85.9474
 -85.9473
 -85.9476
 -85.9584
 -85.9587
 -85.951
 -85.951
 -85.951
 -85.9505
 -85.9582
 -85.9584
 -85.9588
 -85.9585
 -85.95
 -85.9507
 -85.9498
 -85.9508
 -85.9436
 -85.9441
 -85.9432
 -85.9436
 -85.9367
 -85.9362
 -85.9366
 -85.9371
 -85.9259
 -85.9264
 -85.9256
 -85.9261
 -85.9575
 -85.9572
 -85.9572
 -85.9576
 -85.9582
 -85.9582
 -85.9583
 -85.9586
 -85.9461
 -85.9454
 -85.9459
 -85.9455
 -85.9491
 -85.9488
 -85.9487
 -85.9491
 -85.9417
 -85.9412
 -85.942
 -85.9513
 -85.9509
 -85.951
 -85.9506
 -85.9418
 -85.9417
 -85.9421
 -85.9421
 -85.9482
 -85.9477
 -85.9473
 -85.9476
 -85.9526
 -85.9523
 -85.9525
 -85.9527
 -85.9495
 -85.9493
 -85.9491
 -85.9567
 -85.9562
 -85.9565
 -85.9564
 -85.9517
 -85.9524
 -85.9321
 -85.9329
 -85.9319
 -85.9324
 -85.9548
 -85.9545
 -85.9547
 -85.9425
 -85.9427
 -85.9427
 -85.9425
 -85.9517
 -85.9518
 -85.9516
 -85.948
 -85.9475
 -85.9482
 -85.9477
 -85.9515
 -85.9508
 -85.9517
 -85.9512
 -85.9517
 -85.9523
 -85.9291
 -85.9291
 -85.9287
 -85.929
 -85.9266
 -85.9261
 -85.9258
 -85.9263
 -85.9486
 -85.948
 -85.9482
 -85.948
 -85.9512
 -85.9509
 -85.9512
 -85.9508
 -85.9293
 -85.9293
 -85.9294
 -85.9298
 -85.9425
 -85.9419
 -85.9383
 -85.9384
 -85.9386
 -85.939
 -85.952
 -85.9519
 -85.9525
 -85.9522
 -85.9509
 -85.951
 -85.9515
 -85.9507
 -85.9514
 -85.9509
 -85.9508
 -85.9508
 -85.944
 -85.9442
 -85.9445
 -85.944
 -85.9404
 -85.9402
 -85.9397
 -85.9405
 -85.9349
 -85.9355
 -85.9354
 -85.9348
 -85.9408
 -85.9408
 -85.9408
 -85.9416
 -85.9548
 -85.9545
 -85.955
 -85.9547
 -85.9487
 -85.9474
 -85.9481
 -85.9335
 -85.934
 -85.9344
 -85.953
 -85.9538
 -85.9534
 -85.9534
 -85.9534
 -85.9526
 -85.953
 -85.9533
 -85.9461
 -85.9458
 -85.9456
 -85.9471
 -85.9473
 -85.9478
 -85.9473
 -85.9407
 -85.9405
 -85.9404
 -85.9403
 -85.9566
 -85.9564
 -85.9568
 -85.9567
 -85.9398
 -85.9397
 -85.9397
 -85.9399
 -85.939
 -85.9387
 -85.939
 -85.96
 -85.9605
 -85.9608
 -85.9604
 -85.9562
 -85.9565
 -85.9432
 -85.9429
 -85.9435
 -85.9434
 -85.9482
 -85.9488
 -85.9483
 -85.9471
 -85.9469
 -85.947
 -85.9464
 -85.94
 -85.9405
 -85.9402
 -85.9562
 -85.9565
 -85.9559
 -85.956
 -85.9398
 -85.9406
 -85.9401
 -85.9399
 -85.954
 -85.9535
 -85.9533
 -85.9534
 -85.94
 -85.9402
 -85.9406
 -85.94
 -85.9404
 -85.9402
 -85.9426
 -85.9423
 -85.9424
 -85.9426
 -85.9344
 -85.9342
 -85.9336
 -85.9341
 -85.9549
 -85.9554
 -85.9446
 -85.9449
 -85.945
 -85.945
 -85.9601
 -85.96
 -85.9601
 -85.9603
 -85.9438
 -85.9434
 -85.9441
 -85.9446
 -85.9557
 -85.9561
 -85.9563
 -85.9562
 -85.9583
 -85.9588
 -85.9581
 -85.9586
 -85.9538
 -85.9532
 -85.9592
 -85.9595
 -85.9594
 -85.9593
 -85.9402
 -85.9401
 -85.94
 -85.9406
 -85.9592
 -85.9594
 -85.9594
 -85.9592
 -85.9605
 -85.961
 -85.9608
 -85.9605
 -85.9505
 -85.9505
 -85.9511
 -85.9509
 -85.9472
 -85.9469
 -85.9475
 -85.9479
 -85.9576
 -85.9571
 -85.9575
 -85.9577
 -85.9328
 -85.9335
 -85.933
 -85.9327
 -85.9574
 -85.9579
 -85.9445
 -85.9449
 -85.9449
 -85.9455
 -85.9575
 -85.9572
 -85.9568
 -85.9568
 -85.9408
 -85.9413
 -85.9412
 -85.9411
 -85.9452
 -85.9443
 -85.9447
 -85.9451
 -85.941
 -85.9409
 -85.9416
 -85.9407
 -85.9404
 -85.9406
 -85.9402
 -85.9395
 -85.9399
 -85.9398
 -85.94
 -85.9511
 -85.9506
 -85.9505
 -85.9569
 -85.957
 -85.9573
 -85.9573
 -85.9498
 -85.9495
 -85.9492
 -85.9407
 -85.9404
 -85.9407
 -85.9482
 -85.9489
 -85.9482
 -85.9487
 -85.9518
 -85.9518
 -85.9518
 -85.9524
 -85.9465
 -85.9471
 -85.9472
 -85.947
 -85.9463
 -85.946
 -85.9458
 -85.9451
 -85.9447
 -85.9446
 -85.9454
 -85.9457
 -85.946
 -85.9451
 -85.9572
 -85.957
 -85.9572
 -85.9568
 -85.9529
 -85.9526
 -85.9529
 -85.9531
 -85.9473
 -85.9475
 -85.9472
 -85.948
 -85.9395
 -85.9391
 -85.9394
 -85.95
 -85.9496
 -85.9499
 -85.95
 -85.9429
 -85.9422
 -85.9425
 -85.9422
 -85.9305
 -85.9308
 -85.9304
 -85.9302
 -85.9454
 -85.9451
 -85.9453
 -85.9453
 -85.9576
 -85.9575
 -85.958
 -85.9578
 -85.9449
 -85.9454
 -85.9451
 -85.9447
 -85.94
 -85.94
 -85.9402
 -85.9403
 -85.9404
 -85.9401
 -85.9403
 -85.9469
 -85.947
 -85.9468
 -85.9521
 -85.9446
 -85.9437
 -85.9444
 -85.9443
 -85.9584
 -85.9584
 -85.9586
 -85.9577
 -85.9578
 -85.958
 -85.9445
 -85.9451
 -85.9447
 -85.945
 -85.9603
 -85.9605
 -85.9606
 -85.9606
 -85.941
 -85.9508
 -85.9502
 -85.9505
 -85.9504
 -85.9407
 -85.9409
 -85.9408
 -85.941
 -85.9582
 -85.9585
 -85.9579
 -85.9582
 -85.9525
 -85.9532
 -85.9529
 -85.9526
 -85.9553
 -85.9556
 -85.955
 -85.9551
 -85.9395
 -85.9398
 -85.9399
 -85.9396
 -85.9434
 -85.9438
 -85.9434
 -85.9434
 -85.9499
 -85.9495
 -85.95
 -85.9494
 -85.9437
 -85.9431
 -85.9439
 -85.9433
 -85.9521
 -85.9524
 -85.9529
 -85.9527
 -85.9412
 -85.9409
 -85.9415
 -85.9415
 -85.943
 -85.9431
 -85.9436
 -85.9434
 -85.9508
 -85.9508
 -85.9509
 -85.9513
 -85.9582
 -85.9586
 -85.9583
 -85.9586
 -85.9384
 -85.9386
 -85.939
 -85.9389
 -85.9345
 -85.9337
 -85.9346
 -85.9345
 -85.9587
 -85.959
 -85.9589
 -85.9589
 -85.9355
 -85.9349
 -85.9354
 -85.935
 -85.9348
 -85.9354
 -85.9484
 -85.9486
 -85.9481
 -85.9479
 -85.9433
 -85.9436
 -85.9436
 -85.9431
 -85.9617
 -85.9616
 -85.9617
 -85.9615
 -85.9582
 -85.9581
 -85.9586
 -85.9523
 -85.9522
 -85.9527
 -85.9521
 -85.9405
 -85.9406
 -85.9401
 -85.9407
 -85.9429
 -85.9428
 -85.9427
 -85.9425
 -85.9429
 -85.9432
 -85.9525
 -85.9533
 -85.9531
 -85.9527
 -85.9516
 -85.9515
 -85.951
 -85.9517
 -85.9531
 -85.953
 -85.9526
 -85.9531
 -85.9603
 -85.9604
 -85.9598
 -85.9605
 -85.9543
 -85.9542
 -85.9538
 -85.9454
 -85.9492
 -85.949
 -85.9492
 -85.9488
 -85.9496
 -85.9489
 -85.9491
 -85.9495
 -85.9567
 -85.9566
 -85.9565
 -85.9562
 -85.9543
 -85.954
 -85.954
 -85.9544
 -85.9513
 -85.9508
 -85.9508
 -85.9441
 -85.9437
 -85.9442
 -85.9434
 -85.949
 -85.9499
 -85.9494
 -85.9494
 -85.9452
 -85.9456
 -85.9449
 -85.928
 -85.9279
 -85.9276
 -85.9283
 -85.9569
 -85.9576
 -85.9572
 -85.9567
 -85.9561
 -85.9569
 -85.9564
 -85.9287
 -85.9498
 -85.9499
 -85.9498
 -85.9504
 -85.9511
 -85.9512
 -85.9368
 -85.9369
 -85.9368
 -85.937
 -85.9389
 -85.9391
 -85.9398
 -85.939
 -85.9418
 -85.9422
 -85.942
 -85.9422
 -85.9417
 -85.9419
 -85.9421
 -85.9416
 -85.9416
 -85.9419
 -85.9453
 -85.9448
 -85.9446
 -85.9446
 -85.9459
 -85.9464
 -85.9617
 -85.9616
 -85.9401
 -85.9409
 -85.9401
 -85.9406
 -85.9472
 -85.947
 -85.9474
 -85.9467
 -85.938
 -85.9382
 -85.9373
 -85.9375
 -85.9574
 -85.9576
 -85.957
 -85.9573
 -85.9558
 -85.9554
 -85.9558
 -85.9554
 -85.9521
 -85.9526
 -85.9526
 -85.9523
 -85.9501
 -85.9501
 -85.9509
 -85.9507
 -85.9485
 -85.9483
 -85.9401
 -85.9538
 -85.9543
 -85.9542
 -85.9543
 -85.9598
 -85.9597
 -85.9601
 -85.9596
 -85.9563
 -85.9568
 -85.9562
 -85.9564
 -85.9234
 -85.9234
 -85.9235
 -85.9237
 -85.9599
 -85.9601
 -85.9599
 -85.9599
 -85.9421
 -85.9421
 -85.9417
 -85.9423
 -85.9443
 -85.9437
 -85.9439
 -85.9435
 -85.9533
 -85.9534
 -85.9537
 -85.9538
 -85.9536
 -85.9534
 -85.9532
 -85.9533
 -85.9406
 -85.9412
 -85.9409
 -85.9411
 -85.9598
 -85.9599
 -85.9597
 -85.9598
 -85.9576
 -85.9578
 -85.9577
 -85.9579
 -85.9537
 -85.9538
 -85.9542
 -85.9542
 -85.9577
 -85.9574
 -85.9576
 -85.9577
 -85.9429
 -85.9435
 -85.9435
 -85.9437
 -85.9405
 -85.9407
 -85.9408
 -85.9409
 -85.957
 -85.9567
 -85.9566
 -85.9566
 -85.9466
 -85.9464
 -85.9463
 -85.9458
 -85.9471
 -85.9469
 -85.9468
 -85.9471
 -85.9268
 -85.9272
 -85.9273
 -85.9272
 -85.9597
 -85.9598
 -85.9581
 -85.9581
 -85.9579
 -85.9584
 -85.938
 -85.9376
 -85.9374
 -85.9381
 -85.9436
 -85.9428
 -85.9428
 -85.9426
 -85.9577
 -85.9574
 -85.9579
 -85.958
 -85.946
 -85.9461
 -85.9459
 -85.9465
 -85.9448
 -85.9449
 -85.9443
 -85.9444
 -85.9602
 -85.9603
 -85.9601
 -85.9601
 -85.9496
 -85.9495
 -85.9496
 -85.9499
 -85.9483
 -85.9485
 -85.9484
 -85.948
 -85.9555
 -85.9556
 -85.9558
 -85.9555
 -85.9525
 -85.9523
 -85.9521
 -85.9518
 -85.9461
 -85.9461
 -85.9454
 -85.9436
 -85.9441
 -85.9438
 -85.9446
 -85.9359
 -85.9356
 -85.9356
 -85.9364
 -85.9443
 -85.9446
 -85.9447
 -85.9448
 -85.9491
 -85.9488
 -85.9491
 -85.9487
 -85.9599
 -85.96
 -85.96
 -85.9595
 -85.9446
 -85.9455
 -85.9451
 -85.945
 -85.938
 -85.938
 -85.9375
 -85.9372
 -85.9534
 -85.9539
 -85.9537
 -85.9533
 -85.9514
 -85.9513
 -85.951
 -85.949
 -85.9498
 -85.9499
 -85.9501
 -85.9351
 -85.935
 -85.9351
 -85.9355
 -85.95
 -85.9496
 -85.9497
 -85.9494
 -85.9595
 -85.9595
 -85.9596
 -85.9595
 -85.9494
 -85.9494
 -85.9496
 -85.9497
 -85.9393
 -85.9389
 -85.9392
 -85.9393
 -85.9413
 -85.9416
 -85.9412
 -85.9408
 -85.9617
 -85.9616
 -85.9617
 -85.9616
 -85.9428
 -85.943
 -85.9429
 -85.9421
 -85.9513
 -85.9506
 -85.9508
 -85.951
 -85.9616
 -85.9617
 -85.9615
 -85.9614
 -85.9584
 -85.9589
 -85.9586
 -85.9536
 -85.9535
 -85.9541
 -85.9543
 -85.9571
 -85.9572
 -85.9577
 -85.957
 -85.9306
 -85.9311
 -85.9314
 -85.9313
 -85.9411
 -85.9417
 -85.9408
 -85.9591
 -85.9595
 -85.9594
 -85.9595
 -85.951
 -85.9509
 -85.9514
 -85.9507
 -85.9551
 -85.955
 -85.9556
 -85.9547
 -85.9387
 -85.9386
 -85.9382
 -85.938
 -85.9458
 -85.9465
 -85.9457
 -85.9462
 -85.9522
 -85.9514
 -85.9517
 -85.9374
 -85.9376
 -85.9378
 -85.9378
 -85.941
 -85.9399
 -85.9401
 -85.9399
 -85.945
 -85.9593
 -85.9595
 -85.9594
 -85.9596
 -85.9315
 -85.9314
 -85.9309
 -85.931
 -85.9552
 -85.956
 -85.9557
 -85.9561
 -85.9517
 -85.9513
 -85.9514
 -85.9509
 -85.9281
 -85.9564
 -85.9561
 -85.9566
 -85.9592
 -85.9596
 -85.9593
 -85.9593
 -85.9475
 -85.9474
 -85.9483
 -85.9477
 -85.9529
 -85.9529
 -85.9533
 -85.9527
 -85.942
 -85.9416
 -85.9485
 -85.9482
 -85.9481
 -85.9487
 -85.9419
 -85.9415
 -85.9413
 -85.9417
 -85.9438
 -85.9435
 -85.9443
 -85.9443
 -85.9538
 -85.9535
 -85.9539
 -85.9539
 -85.9333
 -85.9332
 -85.9332
 -85.9339
 -85.9406
 -85.9404
 -85.9406
 -85.9403
 -85.9345
 -85.9349
 -85.9389
 -85.939
 -85.939
 -85.939
 -85.9381
 -85.9377
 -85.9383
 -85.9378
 -85.9601
 -85.9598
 -85.9596
 -85.9595
 -85.9506
 -85.9506
 -85.9504
 -85.9511
 -85.9455
 -85.9463
 -85.9459
 -85.9459
 -85.9491
 -85.9488
 -85.9487
 -85.9492
 -85.9596
 -85.9596
 -85.9372
 -85.937
 -85.937
 -85.9372
 -85.9595
 -85.9597
 -85.9593
 -85.9323
 -85.9321
 -85.9322
 -85.932
 -85.9587
 -85.9581
 -85.9585
 -85.9583
 -85.9441
 -85.9437
 -85.9442
 -85.9436
 -85.9471
 -85.9471
 -85.9469
 -85.9592
 -85.959
 -85.9591
 -85.9593
 -85.9505
 -85.95
 -85.9505
 -85.9502
 -85.9472
 -85.9475
 -85.9479
 -85.9474
 -85.9442
 -85.9439
 -85.9458
 -85.9447
 -85.9454
 -85.9451
 -85.9515
 -85.9509
 -85.9513
 -85.96
 -85.9596
 -85.9595
 -85.96
 -85.9469
 -85.9472
 -85.9468
 -85.947
 -85.9458
 -85.9455
 -85.9434
 -85.9428
 -85.9426
 -85.9432
 -85.9336
 -85.9337
 -85.9342
 -85.9506
 -85.9508
 -85.9501
 -85.95
 -85.9598
 -85.9599
 -85.9599
 -85.9344
 -85.9342
 -85.9345
 -85.9466
 -85.9462
 -85.9465
 -85.946
 -85.9528
 -85.9528
 -85.9523
 -85.9524
 -85.9308
 -85.9305
 -85.9307
 -85.9309
 -85.9574
 -85.9575
 -85.9572
 -85.9572
 -85.9532
 -85.9529
 -85.9529
 -85.9527
 -85.9562
 -85.9563
 -85.956
 -85.959
 -85.9591
 -85.9596
 -85.9593
 -85.9489
 -85.9482
 -85.9488
 -85.9489
 -85.9591
 -85.959
 -85.9589
 -85.9588
 -85.9442
 -85.9442
 -85.9445
 -85.9439
 -85.9599
 -85.9522
 -85.9482
 -85.948
 -85.9485
 -85.9479
 -85.9515
 -85.9513
 -85.951
 -85.9509
 -85.9545
 -85.9546
 -85.9542
 -85.9539
 -85.9518
 -85.9517
 -85.9522
 -85.9519
 -85.955
 -85.9547
 -85.955
 -85.955
 -85.9482
 -85.9479
 -85.948
 -85.9485
 -85.9473
 -85.9474
 -85.9475
 -85.9477
 -85.9457
 -85.9456
 -85.9454
 -85.946
 -85.9475
 -85.9475
 -85.947
 -85.94
 -85.9401
 -85.9399
 -85.9403
 -85.9488
 -85.9526
 -85.9532
 -85.9533
 -85.9531
 -85.9595
 -85.9595
 -85.959
 -85.9434
 -85.9425
 -85.9428
 -85.9426
 -85.9494
 -85.9501
 -85.9499
 -85.9517
 -85.9515
 -85.9513
 -85.9511
 -85.9529
 -85.9532
 -85.9536
 -85.9537
 -85.958
 -85.9582
 -85.9586
 -85.9582
 -85.9417
 -85.9417
 -85.9419
 -85.9413
 -85.9495
 -85.9491
 -85.9491
 -85.9488
 -85.9477
 -85.9475
 -85.9471
 -85.9477
 -85.9472
 -85.9469
 -85.9468
 -85.9464
 -85.9485
 -85.9483
 -85.9486
 -85.948
 -85.9543
 -85.9535
 -85.9545
 -85.9539
 -85.9472
 -85.9464
 -85.9467
 -85.9469
 -85.9371
 -85.9371
 -85.9371
 -85.9373
 -85.9355
 -85.9358
 -85.9356
 -85.9484
 -85.9485
 -85.9489
 -85.949
 -85.9486
 -85.9487
 -85.949
 -85.9492
 -85.9474
 -85.9469
 -85.9478
 -85.9477
 -85.9589
 -85.9589
 -85.9584
 -85.9584
 -85.9546
 -85.9542
 -85.9541
 -85.9545
 -85.943
 -85.9433
 -85.9432
 -85.9434
 -85.9392
 -85.9399
 -85.9398
 -85.9389
 -85.9578
 -85.9576
 -85.9573
 -85.9577
 -85.9319
 -85.9314
 -85.9315
 -85.9322
 -85.9447
 -85.9452
 -85.9449
 -85.9448
 -85.9385
 -85.9388
 -85.9387
 -85.9412
 -85.9416
 -85.9416
 -85.9421
 -85.9538
 -85.9537
 -85.954
 -85.9532
 -85.9411
 -85.9406
 -85.9407
 -85.941
 -85.9356
 -85.9368
 -85.9361
 -85.9307
 -85.9313
 -85.9316
 -85.9313
 -85.9606
 -85.9607
 -85.9609
 -85.9611
 -85.9424
 -85.9421
 -85.9423
 -85.9426
 -85.9508
 -85.9501
 -85.9502
 -85.9506
 -85.9585
 -85.9583
 -85.958
 -85.9583
 -85.9562
 -85.9566
 -85.956
 -85.9561
 -85.9429
 -85.943
 -85.9426
 -85.9428
 -85.9374
 -85.9368
 -85.9362
 -85.9369
 -85.9501
 -85.9504
 -85.9499
 -85.9502
 -85.938
 -85.9386
 -85.946
 -85.945
 -85.9452
 -85.9457
 -85.9465
 -85.9464
 -85.9461
 -85.9466
 -85.9457
 -85.9458
 -85.9455
 -85.9396
 -85.9398
 -85.9396
 -85.951
 -85.951
 -85.9512
 -85.9513
 -85.9504
 -85.9503
 -85.95
 -85.9508
 -85.9428
 -85.9434
 -85.9431
 -85.9429
 -85.9548
 -85.9552
 -85.9546
 -85.9548
 -85.9481
 -85.9475
 -85.9478
 -85.9482
 -85.9396
 -85.9396
 -85.9395
 -85.9396
 -85.9451
 -85.9456
 -85.9451
 -85.9509
 -85.9508
 -85.9504
 -85.9508
 -85.9489
 -85.9492
 -85.9495
 -85.9605
 -85.9604
 -85.9603
 -85.9602
 -85.9347
 -85.9344
 -85.9348
 -85.9339
 -85.9444
 -85.9449
 -85.9449
 -85.9445
 -85.9437
 -85.9436
 -85.9432
 -85.9437
 -85.9606
 -85.9606
 -85.961
 -85.9612
 -85.9556
 -85.9559
 -85.9558
 -85.9414
 -85.9414
 -85.9411
 -85.9414
 -85.9554
 -85.9549
 -85.9551
 -85.9424
 -85.9425
 -85.9421
 -85.9422
 -85.9258
 -85.9261
 -85.9258
 -85.9262
 -85.9588
 -85.9589
 -85.9591
 -85.9586
 -85.9397
 -85.9396
 -85.9394
 -85.939
 -85.9602
 -85.9601
 -85.96
 -85.96
 -85.941
 -85.9416
 -85.9411
 -85.9414
 -85.9262
 -85.9255
 -85.926
 -85.9261
 -85.9365
 -85.936
 -85.9364
 -85.9366
 -85.9399
 -85.9403
 -85.9406
 -85.9399
 -85.9478
 -85.9472
 -85.9392
 -85.9393
 -85.9383
 -85.9384
 -85.9514
 -85.951
 -85.9509
 -85.9506
 -85.9474
 -85.9473
 -85.9471
 -85.9478
 -85.9583
 -85.9579
 -85.9586
 -85.9587
 -85.9574
 -85.9572
 -85.9576
 -85.9576
 -85.9563
 -85.9559
 -85.9562
 -85.9559
 -85.9581
 -85.9581
 -85.9582
 -85.9579
 -85.9528
 -85.9527
 -85.9531
 -85.9528
 -85.9566
 -85.957
 -85.9569
 -85.9568
 -85.9353
 -85.9345
 -85.9344
 -85.9353
 -85.9576
 -85.9579
 -85.9579
 -85.9578
 -85.9457
 -85.9452
 -85.945
 -85.9452
 -85.9553
 -85.9546
 -85.9547
 -85.9575
 -85.9578
 -85.9579
 -85.9577
 -85.9398
 -85.9393
 -85.9392
 -85.9395
 -85.9367
 -85.9365
 -85.9363
 -85.9364
 -85.9537
 -85.9537
 -85.9534
 -85.9542
 -85.9461
 -85.9461
 -85.9459
 -85.9456
 -85.953
 -85.9528
 -85.953
 -85.9529
 -85.9529
 -85.9529
 -85.9537
 -85.945
 -85.9449
 -85.9444
 -85.9525
 -85.9528
 -85.9497
 -85.949
 -85.96
 -85.9602
 -85.9602
 -85.9599
 -85.9489
 -85.9491
 -85.9487
 -85.9494
 -85.9524
 -85.9523
 -85.9529
 -85.9523
 -85.9509
 -85.9511
 -85.9509
 -85.9513
 -85.9566
 -85.9556
 -85.9557
 -85.9554
 -85.9553
 -85.9466
 -85.9468
 -85.9462
 -85.9462
 -85.9387
 -85.9387
 -85.9387
 -85.9387
 -85.9525
 -85.9521
 -85.9526
 -85.9523
 -85.9531
 -85.9529
 -85.9527
 -85.9533
 -85.9276
 -85.9281
 -85.9283
 -85.9285
 -85.9483
 -85.9488
 -85.9485
 -85.9482
 -85.9477
 -85.9472
 -85.947
 -85.9474
 -85.9523
 -85.9519
 -85.9403
 -85.9404
 -85.9406
 -85.9404
 -85.9441
 -85.9444
 -85.9443
 -85.944
 -85.941
 -85.9408
 -85.9407
 -85.9407
 -85.9432
 -85.9436
 -85.9435
 -85.9431
 -85.9407
 -85.9406
 -85.9405
 -85.9408
 -85.9559
 -85.9556
 -85.9557
 -85.956
 -85.9575
 -85.9575
 -85.957
 -85.9573
 -85.9426
 -85.9423
 -85.942
 -85.9426
 -85.9483
 -85.9478
 -85.9483
 -85.948
 -85.9564
 -85.9559
 -85.9563
 -85.9561
 -85.9464
 -85.946
 -85.9461
 -85.9468
 -85.9425
 -85.9429
 -85.9376
 -85.9379
 -85.938
 -85.9375
 -85.9474
 -85.9473
 -85.9469
 -85.9467
 -85.9565
 -85.9563
 -85.9563
 -85.9569
 -85.9596
 -85.9593
 -85.9594
 -85.9597
 -85.929
 -85.929
 -85.9456
 -85.9461
 -85.9462
 -85.9465
 -85.9448
 -85.944
 -85.9445
 -85.9445
 -85.9443
 -85.9442
 -85.9413
 -85.9415
 -85.9415
 -85.9416
 -85.9474
 -85.9479
 -85.9481
 -85.9353
 -85.9356
 -85.9357
 -85.936
 -85.9577
 -85.958
 -85.9574
 -85.9578
 -85.9596
 -85.9596
 -85.9595
 -85.9606
 -85.9605
 -85.9601
 -85.9603
 -85.9504
 -85.9512
 -85.951
 -85.951
 -85.9483
 -85.949
 -85.9481
 -85.9487
 -85.955
 -85.9556
 -85.9558
 -85.9555
 -85.952
 -85.9519
 -85.9524
 -85.9519
 -85.9513
 -85.9518
 -85.9515
 -85.9493
 -85.9494
 -85.9491
 -85.9498
 -85.954
 -85.9549
 -85.9546
 -85.954
 -85.9465
 -85.9461
 -85.9464
 -85.9465
 -85.9487
 -85.9485
 -85.9491
 -85.9484
 -85.9529
 -85.9527
 -85.9525
 -85.9529
 -85.9484
 -85.9481
 -85.9479
 -85.9485
 -85.9264
 -85.9262
 -85.9268
 -85.9268
 -85.9418
 -85.9416
 -85.9416
 -85.9413
 -85.954
 -85.9539
 -85.9545
 -85.9546
 -85.941
 -85.941
 -85.9403
 -85.9401
 -85.9396
 -85.9389
 -85.9396
 -85.9401
 -85.9567
 -85.9566
 -85.9569
 -85.9563
 -85.956
 -85.9555
 -85.956
 -85.9559
 -85.9579
 -85.9575
 -85.9578
 -85.958
 -85.9545
 -85.9545
 -85.9549
 -85.9547
 -85.9455
 -85.9454
 -85.9451
 -85.9454
 -85.9418
 -85.9416
 -85.9421
 -85.9416
 -85.9531
 -85.9523
 -85.9531
 -85.9525
 -85.942
 -85.9422
 -85.9423
 -85.9422
 -85.938
 -85.9381
 -85.9383
 -85.9385
 -85.9479
 -85.9484
 -85.948
 -85.9483
 -85.9445
 -85.9441
 -85.9438
 -85.9449
 -85.9451
 -85.9459
 -85.9453
 -85.938
 -85.9377
 -85.9373
 -85.9377
 -85.9425
 -85.9424
 -85.9422
 -85.9423
 -85.9536
 -85.9539
 -85.9537
 -85.9538
 -85.9489
 -85.9494
 -85.9495
 -85.9609
 -85.9606
 -85.9606
 -85.9608
 -85.9587
 -85.959
 -85.9593
 -85.9589
 -85.9442
 -85.9446
 -85.944
 -85.9446
 -85.9498
 -85.9502
 -85.9386
 -85.9386
 -85.938
 -85.9388
 -85.9489
 -85.9485
 -85.9482
 -85.9487
 -85.9577
 -85.9578
 -85.9574
 -85.9578
 -85.9419
 -85.942
 -85.9422
 -85.9459
 -85.946
 -85.9462
 -85.9455
 -85.9444
 -85.9451
 -85.9451
 -85.945
 -85.948
 -85.9485
 -85.9486
 -85.9479
 -85.947
 -85.9473
 -85.9476
 -85.9472
 -85.9487
 -85.949
 -85.9486
 -85.9492
 -85.9465
 -85.9469
 -85.9555
 -85.9552
 -85.9559
 -85.9554
 -85.9468
 -85.9463
 -85.9465
 -85.9468
 -85.9513
 -85.9506
 -85.9509
 -85.9467
 -85.9472
 -85.9468
 -85.9471
 -85.9515
 -85.9512
 -85.9509
 -85.9513
 -85.9411
 -85.9407
 -85.941
 -85.9404
 -85.9467
 -85.9466
 -85.9472
 -85.9501
 -85.9502
 -85.9508
 -85.9498
 -85.9476
 -85.9475
 -85.9479
 -85.941
 -85.9411
 -85.9407
 -85.9518
 -85.9517
 -85.9516
 -85.9512
 -85.9479
 -85.9483
 -85.9484
 -85.9296
 -85.9297
 -85.9299
 -85.929
 -85.952
 -85.9517
 -85.9514
 -85.9521
 -85.9449
 -85.9444
 -85.9445
 -85.9442
 -85.9564
 -85.9563
 -85.9565
 -85.9567
 -85.9573
 -85.9569
 -85.9575
 -85.9574
 -85.9394
 -85.9402
 -85.9392
 -85.9394
 -85.9499
 -85.9495
 -85.9492
 -85.9432
 -85.9426
 -85.943
 -85.943
 -85.957
 -85.9565
 -85.9568
 -85.9487
 -85.9492
 -85.9489
 -85.9493
 -85.9534
 -85.9536
 -85.9536
 -85.9535
 -85.9585
 -85.9586
 -85.9587
 -85.9584
 -85.9242
 -85.9238
 -85.9239
 -85.9242
 -85.9431
 -85.9432
 -85.9435
 -85.943
 -85.9495
 -85.9504
 -85.9501
 -85.9503
 -85.9371
 -85.9367
 -85.9364
 -85.9479
 -85.9483
 -85.9483
 -85.9478
 -85.959
 -85.9525
 -85.9521
 -85.9516
 -85.9521
 -85.9568
 -85.9568
 -85.9569
 -85.9571
 -85.955
 -85.9548
 -85.9547
 -85.9551
 -85.9499
 -85.9497
 -85.9488
 -85.9482
 -85.9483
 -85.9482
 -85.9303
 -85.9309
 -85.9304
 -85.9307
 -85.944
 -85.9438
 -85.9436
 -85.9432
 -85.9432
 -85.9436
 -85.9433
 -85.9593
 -85.9598
 -85.9594
 -85.9593
 -85.948
 -85.948
 -85.9485
 -85.9485
 -85.9496
 -85.9494
 -85.949
 -85.9494
 -85.9573
 -85.957
 -85.9575
 -85.957
 -85.9485
 -85.9483
 -85.9489
 -85.9485
 -85.9347
 -85.9349
 -85.9343
 -85.9345
 -85.9475
 -85.9473
 -85.9476
 -85.9474
 -85.9429
 -85.9429
 -85.943
 -85.9433
 -85.9417
 -85.9414
 -85.9414
 -85.9416
 -85.9387
 -85.9389
 -85.9386
 -85.9387
 -85.9336
 -85.9334
 -85.9333
 -85.934
 -85.9604
 -85.9601
 -85.9602
 -85.9602
 -85.9316
 -85.9318
 -85.9313
 -85.9321
 -85.9481
 -85.9477
 -85.9481
 -85.9476
 -85.9601
 -85.9601
 -85.9598
 -85.9599
 -85.9455
 -85.9454
 -85.9457
 -85.9458
 -85.9386
 -85.9582
 -85.958
 -85.9581
 -85.9585
 -85.9408
 -85.9344
 -85.9352
 -85.9352
 -85.9345
 -85.9506
 -85.9512
 -85.9552
 -85.9546
 -85.9554
 -85.9548
 -85.9566
 -85.9566
 -85.9569
 -85.9568
 -85.9608
 -85.9605
 -85.9609
 -85.9554
 -85.956
 -85.9559
 -85.9558
 -85.9456
 -85.9596
 -85.9531
 -85.953
 -85.9528
 -85.9596
 -85.9597
 -85.9599
 -85.9596
 -85.9459
 -85.9459
 -85.9459
 -85.9455
 -85.9427
 -85.9429
 -85.9424
 -85.9422
 -85.9526
 -85.9522
 -85.9524
 -85.9531
 -85.9591
 -85.9593
 -85.959
 -85.9589
 -85.9578
 -85.9577
 -85.9579
 -85.9576
 -85.9511
 -85.9519
 -85.9518
 -85.9331
 -85.9327
 -85.9339
 -85.9331
 -85.9248
 -85.9254
 -85.925
 -85.9254
 -85.9372
 -85.9365
 -85.9363
 -85.9368
 -85.9492
 -85.9496
 -85.9491
 -85.9351
 -85.9356
 -85.9354
 -85.9351
 -85.9557
 -85.9555
 -85.956
 -85.9561
 -85.9562
 -85.9559
 -85.9561
 -85.9408
 -85.9406
 -85.9535
 -85.9537
 -85.9618
 -85.9615
 -85.9616
 -85.9604
 -85.9606
 -85.9605
 -85.9607
 -85.9465
 -85.9461
 -85.9469
 -85.9465
 -85.9438
 -85.9437
 -85.9435
 -85.9441
 -85.9476
 -85.9475
 -85.9481
 -85.9479
 -85.9599
 -85.9599
 -85.9599
 -85.9598
 -85.9536
 -85.9538
 -85.9537
 -85.9534
 -85.9386
 -85.9385
 -85.9385
 -85.9389
 -85.9536
 -85.9538
 -85.9534
 -85.9539
 -85.9501
 -85.9502
 -85.9497
 -85.9503
 -85.9527
 -85.9531
 -85.953
 -85.9231
 -85.9232
 -85.9233
 -85.9436
 -85.9432
 -85.946
 -85.9459
 -85.9455
 -85.9463
 -85.955
 -85.9556
 -85.9551
 -85.9551
 -85.9536
 -85.9538
 -85.9544
 -85.9541
 -85.9541
 -85.9538
 -85.9546
 -85.9303
 -85.9303
 -85.9383
 -85.9382
 -85.9386
 -85.9384
 -85.9501
 -85.9301
 -85.9295
 -85.9296
 -85.9298
 -85.9427
 -85.9433
 -85.9429
 -85.9428
 -85.9468
 -85.9465
 -85.9339
 -85.9349
 -85.9349
 -85.9343
 -85.9604
 -85.9607
 -85.9606
 -85.9604
 -85.9589
 -85.959
 -85.9589
 -85.9593
 -85.9403
 -85.9412
 -85.9405
 -85.941
 -85.9435
 -85.9431
 -85.9442
 -85.944
 -85.9437
 -85.9435
 -85.9437
 -85.9544
 -85.9548
 -85.9541
 -85.9544
 -85.9385
 -85.9389
 -85.9392
 -85.9392
 -85.9477
 -85.9478
 -85.9476
 -85.952
 -85.9522
 -85.9524
 -85.9528
 -85.9434
 -85.9436
 -85.9438
 -85.9437
 -85.9415
 -85.9419
 -85.9423
 -85.9417
 -85.9419
 -85.9416
 -85.9417
 -85.9421
 -85.9453
 -85.9455
 -85.946
 -85.9455
 -85.9519
 -85.9516
 -85.9428
 -85.9429
 -85.9431
 -85.9426
 -85.9606
 -85.96
 -85.9602
 -85.9602
 -85.9412
 -85.9414
 -85.9412
 -85.9415
 -85.9363
 -85.9361
 -85.9367
 -85.9365
 -85.9503
 -85.9502
 -85.9325
 -85.9325
 -85.9321
 -85.9326
 -85.9444
 -85.9448
 -85.9441
 -85.9592
 -85.9592
 -85.9594
 -85.9594
 -85.9332
 -85.9329
 -85.9331
 -85.9416
 -85.9415
 -85.942
 -85.9418
 -85.9339
 -85.941
 -85.9408
 -85.9409
 -85.9404
 -85.9485
 -85.9481
 -85.9486
 -85.9484
 -85.946
 -85.9461
 -85.9464
 -85.9459
 -85.9596
 -85.96
 -85.9493
 -85.9496
 -85.9494
 -85.9493
 -85.9405
 -85.9398
 -85.9406
 -85.9397
 -85.9439
 -85.9449
 -85.9444
 -85.944
 -85.9581
 -85.9578
 -85.9578
 -85.9579
 -85.9463
 -85.9465
 -85.947
 -85.9468
 -85.9503
 -85.9565
 -85.9566
 -85.9563
 -85.944
 -85.9441
 -85.9436
 -85.9443
 -85.9535
 -85.9533
 -85.9535
 -85.953
 -85.9447
 -85.9442
 -85.9444
 -85.9449
 -85.9595
 -85.9592
 -85.9591
 -85.9594
 -85.9615
 -85.9616
 -85.9613
 -85.9417
 -85.942
 -85.9424
 -85.9422
 -85.9515
 -85.9517
 -85.9511
 -85.9513
 -85.9529
 -85.9531
 -85.9534
 -85.9536
 -85.9431
 -85.9432
 -85.9412
 -85.9409
 -85.9408
 -85.9413
 -85.9452
 -85.9461
 -85.9505
 -85.9507
 -85.9505
 -85.9503
 -85.9516
 -85.9518
 -85.9522
 -85.9516
 -85.9455
 -85.9458
 -85.9462
 -85.9459
 -85.95
 -85.95
 -85.9501
 -85.9572
 -85.9568
 -85.9566
 -85.9569
 -85.9551
 -85.9549
 -85.9551
 -85.9456
 -85.9463
 -85.9454
 -85.946
 -85.9418
 -85.9411
 -85.9408
 -85.9416
 -85.9532
 -85.9526
 -85.9526
 -85.953
 -85.9463
 -85.9462
 -85.9455
 -85.9393
 -85.9392
 -85.9393
 -85.9392
 -85.9434
 -85.9434
 -85.9436
 -85.9437
 -85.9558
 -85.9556
 -85.9553
 -85.9607
 -85.9604
 -85.9605
 -85.9527
 -85.953
 -85.953
 -85.9434
 -85.9429
 -85.9435
 -85.9432
 -85.9606
 -85.9606
 -85.9606
 -85.9608
 -85.9521
 -85.9518
 -85.952
 -85.9524
 -85.9564
 -85.9566
 -85.957
 -85.957
 -85.9559
 -85.9561
 -85.9559
 -85.9559
 -85.9359
 -85.9353
 -85.9354
 -85.9452
 -85.9454
 -85.945
 -85.9454
 -85.9564
 -85.9566
 -85.9562
 -85.9563
 -85.9471
 -85.9473
 -85.9473
 -85.9478
 -85.9536
 -85.9537
 -85.9536
 -85.9531
 -85.9582
 -85.9585
 -85.9385
 -85.9388
 -85.9388
 -85.939
 -85.9547
 -85.9544
 -85.9551
 -85.9546
 -85.9455
 -85.9454
 -85.9452
 -85.9457
 -85.953
 -85.9523
 -85.96
 -85.96
 -85.9597
 -85.9602
 -85.9563
 -85.9568
 -85.9561
 -85.957
 -85.9608
 -85.9608
 -85.9611
 -85.9612
 -85.9545
 -85.9545
 -85.9547
 -85.9529
 -85.9535
 -85.9535
 -85.9532
 -85.9533
 -85.953
 -85.9531
 -85.9526
 -85.9426
 -85.9427
 -85.9423
 -85.9421
 -85.9348
 -85.9345
 -85.9352
 -85.9481
 -85.9481
 -85.9482
 -85.9571
 -85.9567
 -85.957
 -85.9566
 -85.9457
 -85.946
 -85.9465
 -85.9461
 -85.9407
 -85.94
 -85.9402
 -85.9408
 -85.9485
 -85.948
 -85.9477
 -85.9477
 -85.9445
 -85.9452
 -85.9445
 -85.9602
 -85.9603
 -85.9599
 -85.9598
 -85.9389
 -85.9391
 -85.9406
 -85.9409
 -85.9409
 -85.954
 -85.9541
 -85.9536
 -85.9545
 -85.9478
 -85.9485
 -85.9484
 -85.9483
 -85.94
 -85.94
 -85.9404
 -85.9401
 -85.9497
 -85.9488
 -85.9489
 -85.9494
 -85.9442
 -85.9439
 -85.9445
 -85.9446
 -85.9579
 -85.958
 -85.9586
 -85.9435
 -85.9434
 -85.9438
 -85.9438
 -85.9496
 -85.95
 -85.9396
 -85.9402
 -85.94
 -85.9397
 -85.9404
 -85.9399
 -85.9402
 -85.94
 -85.9582
 -85.958
 -85.9413
 -85.9418
 -85.9415
 -85.9411
 -85.9487
 -85.9482
 -85.9484
 -85.9487
 -85.945
 -85.9361
 -85.9356
 -85.9357
 -85.9503
 -85.9502
 -85.9503
 -85.9499
 -85.9587
 -85.9587
 -85.9585
 -85.9589
 -85.9359
 -85.9362
 -85.9362
 -85.9357
 -85.9408
 -85.9412
 -85.9407
 -85.9408
 -85.9526
 -85.9528
 -85.9528
 -85.9367
 -85.9366
 -85.937
 -85.9371
 -85.9607
 -85.9604
 -85.9605
 -85.9607
 -85.9384
 -85.9387
 -85.9388
 -85.9382
 -85.9521
 -85.9517
 -85.952
 -85.9524
 -85.9453
 -85.9456
 -85.9454
 -85.9451
 -85.94
 -85.9402
 -85.94
 -85.9444
 -85.9449
 -85.9443
 -85.9448
 -85.9401
 -85.9396
 -85.9399
 -85.9399
 -85.9409
 -85.9406
 -85.9408
 -85.955
 -85.9546
 -85.9552
 -85.9544
 -85.954
 -85.9475
 -85.9485
 -85.9478
 -85.9479
 -85.9593
 -85.9591
 -85.9589
 -85.959
 -85.9505
 -85.9511
 -85.9502
 -85.9509
 -85.9519
 -85.9522
 -85.9519
 -85.9518
 -85.9408
 -85.9406
 -85.941
 -85.9413
 -85.9411
 -85.9519
 -85.9514
 -85.9517
 -85.9521
 -85.959
 -85.9595
 -85.9491
 -85.9493
 -85.9487
 -85.9493
 -85.94
 -85.9399
 -85.9402
 -85.9577
 -85.958
 -85.9576
 -85.9578
 -85.9493
 -85.9486
 -85.9488
 -85.9489
 -85.9406
 -85.9403
 -85.9406
 -85.9408
 -85.9477
 -85.9476
 -85.9484
 -85.9479
 -85.9517
 -85.9525
 -85.9377
 -85.9375
 -85.9376
 -85.9374
 -85.9408
 -85.9418
 -85.9421
 -85.9419
 -85.9423
 -85.9421
 -85.9419
 -85.9412
 -85.9414
 -85.9417
 -85.9489
 -85.9488
 -85.9487
 -85.9509
 -85.9507
 -85.9505
 -85.9503
 -85.9424
 -85.9423
 -85.9425
 -85.9423
 -85.9456
 -85.9454
 -85.9498
 -85.9495
 -85.9497
 -85.9494
 -85.9499
 -85.9499
 -85.9478
 -85.9482
 -85.9484
 -85.9478
 -85.9321
 -85.9329
 -85.9328
 -85.933
 -85.9497
 -85.9401
 -85.9405
 -85.9402
 -85.9402
 -85.9602
 -85.9604
 -85.9601
 -85.9541
 -85.9539
 -85.9536
 -85.9541
 -85.9475
 -85.9477
 -85.9475
 -85.9467
 -85.9492
 -85.9496
 -85.949
 -85.9416
 -85.9419
 -85.9417
 -85.9415
 -85.958
 -85.9583
 -85.9576
 -85.9581
 -85.9523
 -85.9521
 -85.9525
 -85.9524
 -85.958
 -85.9581
 -85.9575
 -85.9579
 -85.9384
 -85.9384
 -85.938
 -85.9381
 -85.9423
 -85.9427
 -85.955
 -85.9548
 -85.9545
 -85.9548
 -85.9589
 -85.9588
 -85.9589
 -85.9587
 -85.9614
 -85.9615
 -85.9613
 -85.9616
 -85.9584
 -85.9581
 -85.9584
 -85.9519
 -85.9523
 -85.9518
 -85.9521
 -85.9587
 -85.9589
 -85.9589
 -85.9589
 -85.9387
 -85.9391
 -85.9394
 -85.939
 -85.9566
 -85.957
 -85.957
 -85.9521
 -85.9519
 -85.9518
 -85.9518
 -85.94
 -85.9398
 -85.94
 -85.9397
 -85.9526
 -85.9531
 -85.9529
 -85.9529
 -85.9506
 -85.9509
 -85.9511
 -85.9506
 -85.9427
 -85.9428
 -85.9433
 -85.9436
 -85.9381
 -85.9382
 -85.9377
 -85.9377
 -85.9461
 -85.9463
 -85.9467
 -85.9462
 -85.9309
 -85.9309
 -85.9318
 -85.9313
 -85.9406
 -85.9409
 -85.9405
 -85.9417
 -85.9412
 -85.9411
 -85.941
 -85.9284
 -85.9286
 -85.928
 -85.9288
 -85.9578
 -85.9575
 -85.9575
 -85.9559
 -85.9559
 -85.9563
 -85.9563
 -85.942
 -85.9428
 -85.9426
 -85.935
 -85.9352
 -85.9349
 -85.9379
 -85.9375
 -85.938
 -85.938
 -85.9426
 -85.9425
 -85.9429
 -85.9422
 -85.9522
 -85.9529
 -85.9526
 -85.9525
 -85.9323
 -85.9322
 -85.9326
 -85.932
 -85.9511
 -85.9503
 -85.9503
 -85.9509
 -85.9558
 -85.9559
 -85.9554
 -85.9558
 -85.95
 -85.95
 -85.9508
 -85.9504
 -85.9466
 -85.9462
 -85.947
 -85.9404
 -85.9404
 -85.9403
 -85.9406
 -85.9583
 -85.9586
 -85.9587
 -85.9585
 -85.9566
 -85.9569
 -85.9566
 -85.9563
 -85.9425
 -85.943
 -85.9427
 -85.9423
 -85.959
 -85.9592
 -85.9594
 -85.959
 -85.9595
 -85.9592
 -85.9592
 -85.9593
 -85.9594
 -85.959
 -85.9592
 -85.9338
 -85.9337
 -85.9286
 -85.9287
 -85.9284
 -85.9291
 -85.9513
 -85.9511
 -85.9507
 -85.9475
 -85.9472
 -85.9479
 -85.9472
 -85.9487
 -85.9493
 -85.9491
 -85.9487
 -85.9236
 -85.9459
 -85.9508
 -85.9514
 -85.9565
 -85.9568
 -85.9567
 -85.9567
 -85.9349
 -85.9445
 -85.9449
 -85.9445
 -85.9617
 -85.9616
 -85.9616
 -85.9616
 -85.9489
 -85.9485
 -85.9489
 -85.9493
 -85.9594
 -85.9591
 -85.9594
 -85.959
 -85.9465
 -85.9472
 -85.9461
 -85.9451
 -85.9457
 -85.9453
 -85.958
 -85.9581
 -85.9576
 -85.9581
 -85.9511
 -85.9508
 -85.9505
 -85.9503
 -85.9389
 -85.9385
 -85.9392
 -85.939
 -85.956
 -85.9568
 -85.9565
 -85.9595
 -85.9599
 -85.96
 -85.9595
 -85.9563
 -85.9561
 -85.9559
 -85.9562
 -85.9421
 -85.9421
 -85.943
 -85.942
 -85.9434
 -85.9431
 -85.9431
 -85.9431
 -85.958
 -85.9583
 -85.9582
 -85.9582
 -85.9458
 -85.9458
 -85.9453
 -85.9553
 -85.9553
 -85.9551
 -85.9548
 -85.9398
 -85.9402
 -85.9395
 -85.9396
 -85.9516
 -85.9519
 -85.9512
 -85.9515
 -85.9394
 -85.9398
 -85.9395
 -85.9394
 -85.9496
 -85.9499
 -85.9495
 -85.9498
 -85.9557
 -85.9557
 -85.9561
 -85.9554
 -85.9384
 -85.9383
 -85.9387
 -85.9489
 -85.9494
 -85.9572
 -85.957
 -85.9569
 -85.9567
 -85.9457
 -85.9454
 -85.9453
 -85.9389
 -85.9386
 -85.9384
 -85.9386
 -85.9531
 -85.9533
 -85.953
 -85.9534
 -85.9517
 -85.9516
 -85.9524
 -85.9518
 -85.9257
 -85.9256
 -85.9262
 -85.9258
 -85.9485
 -85.9479
 -85.9482
 -85.9305
 -85.931
 -85.9312
 -85.9487
 -85.9486
 -85.9482
 -85.9486
 -85.948
 -85.9381
 -85.9384
 -85.9375
 -85.9379
 -85.9467
 -85.9473
 -85.9474
 -85.9566
 -85.9566
 -85.9566
 -85.9564
 -85.9471
 -85.9474
 -85.9477
 -85.9477
 -85.948
 -85.9479
 -85.9478
 -85.9614
 -85.9613
 -85.9612
 -85.9609
 -85.9411
 -85.9421
 -85.9419
 -85.9416
 -85.9374
 -85.9374
 -85.9377
 -85.9377
 -85.9448
 -85.9447
 -85.9454
 -85.9449
 -85.9575
 -85.9576
 -85.9577
 -85.9572
 -85.9253
 -85.9258
 -85.9253
 -85.9261
 -85.9553
 -85.9547
 -85.955
 -85.955
 -85.9373
 -85.937
 -85.9373
 -85.9372
 -85.9566
 -85.9556
 -85.9559
 -85.9563
 -85.9547
 -85.9545
 -85.9542
 -85.9545
 -85.9554
 -85.9556
 -85.9422
 -85.9419
 -85.9418
 -85.9422
 -85.9584
 -85.9584
 -85.9584
 -85.9544
 -85.9538
 -85.954
 -85.9545
 -85.9416
 -85.9421
 -85.9418
 -85.9414
 -85.9443
 -85.9441
 -85.9447
 -85.9232
 -85.9231
 -85.923
 -85.9231
 -85.9477
 -85.9471
 -85.9479
 -85.9584
 -85.9587
 -85.9584
 -85.9583
 -85.9556
 -85.9552
 -85.9577
 -85.9582
 -85.9584
 -85.958
 -85.9535
 -85.9536
 -85.9364
 -85.9365
 -85.9359
 -85.9369
 -85.9551
 -85.9551
 -85.9552
 -85.9547
 -85.9486
 -85.9488
 -85.9442
 -85.9445
 -85.9444
 -85.9442
 -85.9563
 -85.9566
 -85.9567
 -85.9565
 -85.9426
 -85.9417
 -85.9418
 -85.9425
 -85.9581
 -85.9581
 -85.9585
 -85.959
 -85.9504
 -85.9505
 -85.9499
 -85.9363
 -85.9361
 -85.936
 -85.9363
 -85.9521
 -85.9521
 -85.9519
 -85.9516
 -85.9412
 -85.9407
 -85.9406
 -85.9403
 -85.9417
 -85.9411
 -85.9416
 -85.9248
 -85.9248
 -85.9248
 -85.9251
 -85.9382
 -85.9388
 -85.939
 -85.9383
 -85.9554
 -85.9552
 -85.9557
 -85.9552
 -85.948
 -85.9482
 -85.9476
 -85.9449
 -85.9403
 -85.9406
 -85.9404
 -85.9406
 -85.9458
 -85.9453
 -85.9457
 -85.9459
 -85.9539
 -85.9546
 -85.9547
 -85.954
 -85.9395
 -85.9395
 -85.9405
 -85.9352
 -85.9502
 -85.9504
 -85.9499
 -85.9507
 -85.9405
 -85.9411
 -85.9295
 -85.929
 -85.9402
 -85.9405
 -85.9402
 -85.9397
 -85.9538
 -85.9542
 -85.9572
 -85.9571
 -85.9573
 -85.9571
 -85.9443
 -85.9447
 -85.9447
 -85.9448
 -85.9598
 -85.9599
 -85.9602
 -85.9599
 -85.9437
 -85.9439
 -85.9429
 -85.9429
 -85.9551
 -85.9552
 -85.9548
 -85.9544
 -85.9418
 -85.9418
 -85.9421
 -85.942
 -85.9549
 -85.9551
 -85.9546
 -85.9549
 -85.9459
 -85.9465
 -85.9588
 -85.9587
 -85.9533
 -85.9537
 -85.9532
 -85.9538
 -85.953
 -85.9528
 -85.9529
 -85.9534
 -85.9495
 -85.9493
 -85.9497
 -85.9497
 -85.9549
 -85.9544
 -85.9551
 -85.9554
 -85.9416
 -85.9411
 -85.9413
 -85.9413
 -85.9585
 -85.9585
 -85.9584
 -85.9589
 -85.9592
 -85.9589
 -85.9591
 -85.9395
 -85.94
 -85.94
 -85.9398
 -85.9533
 -85.9528
 -85.9528
 -85.9531
 -85.9388
 -85.9393
 -85.9394
 -85.9399
 -85.9491
 -85.9472
 -85.9479
 -85.948
 -85.9473
 -85.9564
 -85.9564
 -85.9563
 -85.9559
 -85.9313
 -85.9308
 -85.9311
 -85.9317
 -85.9531
 -85.9534
 -85.9537
 -85.9532
 -85.9484
 -85.9489
 -85.9478
 -85.9482
 -85.9544
 -85.9541
 -85.954
 -85.9539
 -85.9522
 -85.9613
 -85.9612
 -85.9609
 -85.961
 -85.9554
 -85.9555
 -85.9549
 -85.955
 -85.9293
 -85.9295
 -85.9299
 -85.9292
 -85.9459
 -85.9454
 -85.9452
 -85.9456
 -85.9431
 -85.9488
 -85.9489
 -85.949
 -85.9494
 -85.9581
 -85.9581
 -85.9577
 -85.9575
 -85.9566
 -85.9566
 -85.957
 -85.9579
 -85.9572
 -85.9576
 -85.9574
 -85.9255
 -85.9257
 -85.9549
 -85.9548
 -85.9547
 -85.9426
 -85.9426
 -85.9425
 -85.943
 -85.9539
 -85.9537
 -85.9539
 -85.9535
 -85.9495
 -85.9531
 -85.9526
 -85.9531
 -85.953
 -85.9587
 -85.958
 -85.9582
 -85.9586
 -85.9529
 -85.9533
 -85.9538
 -85.953
 -85.9456
 -85.9458
 -85.945
 -85.9462
 -85.9399
 -85.94
 -85.9398
 -85.9401
 -85.9609
 -85.9605
 -85.9609
 -85.9608
 -85.954
 -85.9539
 -85.9542
 -85.9537
 -85.9606
 -85.9604
 -85.9605
 -85.9607
 -85.9428
 -85.942
 -85.9428
 -85.9429
 -85.9491
 -85.9489
 -85.9587
 -85.9592
 -85.9587
 -85.9589
 -85.9494
 -85.9494
 -85.9494
 -85.95
 -85.9476
 -85.9481
 -85.9493
 -85.9494
 -85.9499
 -85.9492
 -85.9569
 -85.9569
 -85.9567
 -85.9572
 -85.9442
 -85.9435
 -85.9433
 -85.9438
 -85.9356
 -85.936
 -85.9356
 -85.9356
 -85.9388
 -85.9385
 -85.9386
 -85.9385
 -85.9435
 -85.9438
 -85.9439
 -85.9434
 -85.9461
 -85.9454
 -85.9458
 -85.9471
 -85.9463
 -85.9467
 -85.9468
 -85.9489
 -85.9486
 -85.9484
 -85.9489
 -85.9355
 -85.9354
 -85.9356
 -85.9452
 -85.9448
 -85.9455
 -85.9454
 -85.9498
 -85.9502
 -85.9502
 -85.9495
 -85.942
 -85.9414
 -85.9422
 -85.9415
 -85.9438
 -85.9442
 -85.9442
 -85.9441
 -85.9502
 -85.9501
 -85.9505
 -85.9509
 -85.9486
 -85.9481
 -85.9485
 -85.9484
 -85.9534
 -85.9532
 -85.9534
 -85.9532
 -85.9384
 -85.9385
 -85.9387
 -85.9561
 -85.9559
 -85.9564
 -85.956
 -85.9421
 -85.9426
 -85.9422
 -85.9418
 -85.9462
 -85.946
 -85.9457
 -85.9464
 -85.9471
 -85.9476
 -85.9477
 -85.951
 -85.951
 -85.9512
 -85.9516
 -85.9528
 -85.9528
 -85.9532
 -85.9526
 -85.9533
 -85.9535
 -85.9538
 -85.9571
 -85.9573
 -85.9574
 -85.9527
 -85.9525
 -85.9522
 -85.9525
 -85.9571
 -85.9572
 -85.9568
 -85.9584
 -85.9584
 -85.9584
 -85.9581
 -85.9474
 -85.9464
 -85.947
 -85.9467
 -85.9429
 -85.9425
 -85.9431
 -85.9427
 -85.9411
 -85.9571
 -85.9569
 -85.9576
 -85.9569
 -85.9572
 -85.9564
 -85.9244
 -85.9242
 -85.9244
 -85.9247
 -85.955
 -85.9547
 -85.9462
 -85.946
 -85.9466
 -85.9605
 -85.9608
 -85.9513
 -85.9506
 -85.9508
 -85.951
 -85.9457
 -85.946
 -85.946
 -85.9553
 -85.9561
 -85.9557
 -85.9559
 -85.9431
 -85.9433
 -85.9429
 -85.9436
 -85.9279
 -85.9283
 -85.9282
 -85.9277
 -85.9507
 -85.9508
 -85.9507
 -85.9512
 -85.9566
 -85.9574
 -85.9567
 -85.9558
 -85.9557
 -85.9559
 -85.9555
 -85.9417
 -85.941
 -85.941
 -85.9407
 -85.9423
 -85.9428
 -85.9396
 -85.94
 -85.9394
 -85.9603
 -85.96
 -85.9563
 -85.9558
 -85.9562
 -85.9558
 -85.9491
 -85.9498
 -85.9496
 -85.9549
 -85.9544
 -85.9553
 -85.9552
 -85.9421
 -85.9412
 -85.9413
 -85.9418
 -85.9481
 -85.948
 -85.9485
 -85.9486
 -85.9479
 -85.9483
 -85.9484
 -85.948
 -85.9409
 -85.9412
 -85.9408
 -85.9426
 -85.9422
 -85.9424
 -85.9423
 -85.9614
 -85.9616
 -85.9615
 -85.9618
 -85.9372
 -85.9364
 -85.9582
 -85.9584
 -85.9584
 -85.9581
 -85.9466
 -85.9472
 -85.9469
 -85.9466
 -85.9499
 -85.9502
 -85.9502
 -85.9503
 -85.9387
 -85.9391
 -85.9485
 -85.9481
 -85.9481
 -85.9478
 -85.9462
 -85.946
 -85.9458
 -85.9464
 -85.9567
 -85.9566
 -85.9564
 -85.9567
 -85.9472
 -85.9477
 -85.9477
 -85.9471
 -85.9429
 -85.943
 -85.9518
 -85.9518
 -85.9515
 -85.9519
 -85.9539
 -85.9539
 -85.9542
 -85.9491
 -85.9496
 -85.9494
 -85.9497
 -85.9405
 -85.9408
 -85.9404
 -85.9411
 -85.9275
 -85.9281
 -85.9279
 -85.9273
 -85.9477
 -85.9474
 -85.9479
 -85.9484
 -85.9503
 -85.9508
 -85.9503
 -85.9503
 -85.9456
 -85.9458
 -85.9452
 -85.9454
 -85.9432
 -85.9429
 -85.9433
 -85.9436
 -85.9569
 -85.9572
 -85.9517
 -85.9515
 -85.9512
 -85.9325
 -85.9323
 -85.9319
 -85.9326
 -85.9414
 -85.9409
 -85.9415
 -85.9407
 -85.9493
 -85.9494
 -85.9492
 -85.9489
 -85.9569
 -85.957
 -85.957
 -85.9467
 -85.9464
 -85.9458
 -85.9458
 -85.9425
 -85.9433
 -85.9429
 -85.9425
 -85.9544
 -85.9538
 -85.9538
 -85.9542
 -85.951
 -85.9508
 -85.9506
 -85.9506
 -85.9555
 -85.9556
 -85.9555
 -85.9553
 -85.9554
 -85.9554
 -85.9553
 -85.945
 -85.9451
 -85.9447
 -85.9444
 -85.9472
 -85.947
 -85.9475
 -85.9287
 -85.9288
 -85.9288
 -85.9284
 -85.9429
 -85.9429
 -85.9368
 -85.9364
 -85.937
 -85.9373
 -85.9408
 -85.9391
 -85.9575
 -85.9432
 -85.9427
 -85.943
 -85.9425
 -85.9608
 -85.9517
 -85.9514
 -85.9517
 -85.951
 -85.9429
 -85.9433
 -85.9431
 -85.9452
 -85.9457
 -85.9457
 -85.956
 -85.9561
 -85.9555
 -85.9561
 -85.9562
 -85.956
 -85.9563
 -85.9559
 -85.9399
 -85.9392
 -85.9392
 -85.9397
 -85.9593
 -85.9593
 -85.9595
 -85.959
 -85.9481
 -85.9477
 -85.9472
 -85.9561
 -85.9564
 -85.9563
 -85.95
 -85.9495
 -85.9497
 -85.9501
 -85.9432
 -85.9435
 -85.9429
 -85.943
 -85.9504
 -85.9511
 -85.9503
 -85.9439
 -85.9441
 -85.9441
 -85.9436
 -85.9466
 -85.9473
 -85.9564
 -85.9567
 -85.9568
 -85.9572
 -85.9576
 -85.958
 -85.9577
 -85.9576
 -85.9406
 -85.9411
 -85.9405
 -85.9411
 -85.954
 -85.9534
 -85.9537
 -85.9541
 -85.9513
 -85.9505
 -85.9512
 -85.9516
 -85.9457
 -85.9452
 -85.946
 -85.9456
 -85.9569
 -85.9567
 -85.9566
 -85.9563
 -85.9468
 -85.9462
 -85.9471
 -85.9468
 -85.9482
 -85.948
 -85.9479
 -85.9487
 -85.9465
 -85.9462
 -85.9467
 -85.9467
 -85.9414
 -85.942
 -85.94
 -85.9404
 -85.9407
 -85.9401
 -85.9357
 -85.9348
 -85.9355
 -85.9357
 -85.9515
 -85.9515
 -85.9513
 -85.9519
 -85.9505
 -85.9501
 -85.95
 -85.9597
 -85.9598
 -85.9598
 -85.9598
 -85.9602
 -85.9605
 -85.9601
 -85.9581
 -85.9583
 -85.9578
 -85.9501
 -85.9507
 -85.951
 -85.9503
 -85.9531
 -85.9533
 -85.9536
 -85.9528
 -85.9564
 -85.9568
 -85.9566
 -85.9569
 -85.9435
 -85.943
 -85.9431
 -85.9434
 -85.9373
 -85.9378
 -85.938
 -85.938
 -85.9606
 -85.9607
 -85.9603
 -85.961
 -85.9422
 -85.9421
 -85.9418
 -85.9423
 -85.9492
 -85.9491
 -85.9494
 -85.949
 -85.9608
 -85.9608
 -85.9604
 -85.961
 -85.9516
 -85.9511
 -85.9518
 -85.9516
 -85.9463
 -85.946
 -85.9463
 -85.9461
 -85.9426
 -85.9422
 -85.9422
 -85.9391
 -85.9397
 -85.9393
 -85.939
 -85.941
 -85.9408
 -85.9411
 -85.9408
 -85.9403
 -85.9402
 -85.9418
 -85.9421
 -85.9411
 -85.9553
 -85.955
 -85.9549
 -85.9548
 -85.9594
 -85.9593
 -85.9593
 -85.9592
 -85.9527
 -85.9525
 -85.9527
 -85.9521
 -85.947
 -85.9571
 -85.9573
 -85.9573
 -85.957
 -85.9395
 -85.9395
 -85.9394
 -85.9393
 -85.9597
 -85.9599
 -85.9596
 -85.9601
 -85.9445
 -85.9442
 -85.9449
 -85.9539
 -85.9391
 -85.9391
 -85.9387
 -85.9414
 -85.9411
 -85.9408
 -85.9416
 -85.9489
 -85.9489
 -85.9481
 -85.9487
 -85.9547
 -85.9547
 -85.9544
 -85.9551
 -85.9469
 -85.9538
 -85.9536
 -85.9535
 -85.9473
 -85.9472
 -85.9473
 -85.9478
 -85.9439
 -85.9441
 -85.9437
 -85.9437
 -85.9452
 -85.9447
 -85.9451
 -85.9452
 -85.954
 -85.9421
 -85.9422
 -85.9425
 -85.9551
 -85.9548
 -85.9552
 -85.9549
 -85.957
 -85.9569
 -85.9574
 -85.9567
 -85.959
 -85.9592
 -85.9589
 -85.9437
 -85.9437
 -85.9434
 -85.9437
 -85.9379
 -85.9377
 -85.938
 -85.9558
 -85.9558
 -85.9567
 -85.9565
 -85.9563
 -85.9563
 -85.9472
 -85.9474
 -85.9477
 -85.96
 -85.9599
 -85.9602
 -85.9599
 -85.9569
 -85.9568
 -85.957
 -85.9571
 -85.9522
 -85.9522
 -85.9525
 -85.9526
 -85.9495
 -85.9497
 -85.9494
 -85.9489
 -85.9425
 -85.9425
 -85.9423
 -85.9427
 -85.9566
 -85.9566
 -85.9564
 -85.9569
 -85.9441
 -85.9442
 -85.9435
 -85.9455
 -85.9459
 -85.9461
 -85.9461
 -85.9592
 -85.9591
 -85.9596
 -85.9593
 -85.9536
 -85.9536
 -85.9536
 -85.9533
 -85.9602
 -85.96
 -85.9597
 -85.9601
 -85.9449
 -85.9452
 -85.9455
 -85.9454
 -85.9493
 -85.9494
 -85.9489
 -85.9498
 -85.9579
 -85.9578
 -85.9581
 -85.9579
 -85.9488
 -85.9492
 -85.9485
 -85.9487
 -85.9603
 -85.9605
 -85.9603
 -85.9433
 -85.9431
 -85.9431
 -85.9431
 -85.9505
 -85.9505
 -85.9502
 -85.9499
 -85.9516
 -85.952
 -85.9516
 -85.9517
 -85.948
 -85.9477
 -85.9485
 -85.9479
 -85.957
 -85.9571
 -85.9575
 -85.9572
 -85.9477
 -85.9471
 -85.9474
 -85.9473
 -85.9516
 -85.9514
 -85.9514
 -85.9512
 -85.9392
 -85.9392
 -85.9391
 -85.9392
 -85.9558
 -85.9559
 -85.9555
 -85.9553
 -85.9386
 -85.9386
 -85.9386
 -85.9424
 -85.9422
 -85.9422
 -85.9425
 -85.9402
 -85.9404
 -85.9414
 -85.9406
 -85.9544
 -85.9543
 -85.9546
 -85.9548
 -85.9527
 -85.9533
 -85.9527
 -85.9529
 -85.9444
 -85.9439
 -85.9439
 -85.9436
 -85.9612
 -85.9611
 -85.9609
 -85.9289
 -85.9288
 -85.9514
 -85.9517
 -85.9511
 -85.9514
 -85.9339
 -85.9332
 -85.9326
 -85.9332
 -85.9526
 -85.9528
 -85.9533
 -85.953
 -85.9457
 -85.9443
 -85.944
 -85.9439
 -85.9436
 -85.955
 -85.9551
 -85.9552
 -85.9554
 -85.9582
 -85.9579
 -85.9584
 -85.958
 -85.9392
 -85.9391
 -85.9537
 -85.954
 -85.9547
 -85.9539
 -85.9502
 -85.9493
 -85.9504
 -85.9499
 -85.9423
 -85.9422
 -85.942
 -85.9429
 -85.9477
 -85.9472
 -85.9471
 -85.9477
 -85.9564
 -85.9559
 -85.9569
 -85.9596
 -85.9595
 -85.9595
 -85.9594
 -85.9606
 -85.9607
 -85.9608
 -85.9445
 -85.9442
 -85.9443
 -85.9446
 -85.9581
 -85.958
 -85.9578
 -85.9577
 -85.9405
 -85.9401
 -85.9403
 -85.9404
 -85.9526
 -85.9523
 -85.9526
 -85.952
 -85.9502
 -85.9508
 -85.9503
 -85.9503
 -85.9595
 -85.9595
 -85.9595
 -85.9598
 -85.9533
 -85.9535
 -85.9532
 -85.9529
 -85.9321
 -85.9318
 -85.9317
 -85.9321
 -85.9468
 -85.946
 -85.9468
 -85.9463
 -85.9444
 -85.945
 -85.9451
 -85.9443
 -85.9547
 -85.9548
 -85.9544
 -85.9542
 -85.941
 -85.9407
 -85.9405
 -85.9406
 -85.9511
 -85.9508
 -85.9507
 -85.9513
 -85.9436
 -85.9433
 -85.9431
 -85.937
 -85.9367
 -85.9366
 -85.9365
 -85.9511
 -85.9516
 -85.9509
 -85.9521
 -85.9521
 -85.9519
 -85.9421
 -85.9417
 -85.9414
 -85.9405
 -85.9404
 -85.9407
 -85.9408
 -85.9579
 -85.9238
 -85.924
 -85.924
 -85.9236
 -85.957
 -85.9567
 -85.9573
 -85.9569
 -85.9391
 -85.9453
 -85.9452
 -85.9451
 -85.9457
 -85.9444
 -85.944
 -85.9451
 -85.9414
 -85.9421
 -85.9417
 -85.9415
 -85.933
 -85.9328
 -85.9333
 -85.9324
 -85.9404
 -85.9408
 -85.9407
 -85.9497
 -85.9494
 -85.9494
 -85.9445
 -85.9443
 -85.9615
 -85.9612
 -85.9612
 -85.9402
 -85.9407
 -85.94
 -85.9448
 -85.9452
 -85.9454
 -85.9581
 -85.9585
 -85.9585
 -85.9551
 -85.9551
 -85.9555
 -85.9551
 -85.9422
 -85.9424
 -85.9427
 -85.9385
 -85.938
 -85.9593
 -85.9591
 -85.9596
 -85.9594
 -85.9346
 -85.9349
 -85.9341
 -85.9353
 -85.9401
 -85.9399
 -85.9275
 -85.927
 -85.9304
 -85.9303
 -85.9306
 -85.9451
 -85.9456
 -85.945
 -85.959
 -85.9586
 -85.9583
 -85.9535
 -85.9535
 -85.9539
 -85.9428
 -85.9428
 -85.9433
 -85.9436
 -85.9431
 -85.9577
 -85.9384
 -85.9384
 -85.9386
 -85.9386
 -85.9446
 -85.9455
 -85.9448
 -85.945
 -85.9547
 -85.9546
 -85.9549
 -85.9533
 -85.9534
 -85.953
 -85.9532
 -85.9452
 -85.945
 -85.9455
 -85.9459
 -85.954
 -85.9541
 -85.9546
 -85.9546
 -85.9552
 -85.9549
 -85.9552
 -85.9556
 -85.9482
 -85.9538
 -85.954
 -85.9541
 -85.9543
 -85.9602
 -85.9603
 -85.9601
 -85.96
 -85.9412
 -85.9403
 -85.9401
 -85.9408
 -85.9595
 -85.9598
 -85.9597
 -85.9596
 -85.9268
 -85.9272
 -85.9267
 -85.9588
 -85.9586
 -85.9592
 -85.9591
 -85.9415
 -85.9414
 -85.9409
 -85.941
 -85.9561
 -85.9557
 -85.956
 -85.9564
 -85.9402
 -85.9402
 -85.9391
 -85.9394
 -85.9601
 -85.956
 -85.9555
 -85.9558
 -85.9554
 -85.958
 -85.9583
 -85.9583
 -85.9385
 -85.9388
 -85.9384
 -85.9382
 -85.9542
 -85.9539
 -85.9539
 -85.9536
 -85.951
 -85.9515
 -85.9516
 -85.9513
 -85.9501
 -85.9504
 -85.9499
 -85.9497
 -85.9612
 -85.9609
 -85.946
 -85.946
 -85.9459
 -85.9452
 -85.9457
 -85.9459
 -85.9461
 -85.954
 -85.9536
 -85.9544
 -85.9545
 -85.9536
 -85.9538
 -85.9537
 -85.9541
 -85.9513
 -85.9515
 -85.9518
 -85.9511
 -85.9418
 -85.9418
 -85.9435
 -85.9432
 -85.9432
 -85.9449
 -85.9453
 -85.9453
 -85.9453
 -85.9373
 -85.9368
 -85.937
 -85.9369
 -85.9447
 -85.9442
 -85.9438
 -85.9328
 -85.9328
 -85.9333
 -85.9447
 -85.9447
 -85.9442
 -85.945
 -85.9416
 -85.9423
 -85.9414
 -85.9478
 -85.9544
 -85.9541
 -85.9547
 -85.946
 -85.946
 -85.9463
 -85.9466
 -85.9399
 -85.9399
 -85.9411
 -85.9405
 -85.9486
 -85.949
 -85.9491
 -85.9491
 -85.9557
 -85.9554
 -85.9612
 -85.961
 -85.9609
 -85.9612
 -85.9542
 -85.9543
 -85.9545
 -85.9539
 -85.9467
 -85.9466
 -85.9465
 -85.9469
 -85.96
 -85.9601
 -85.9606
 -85.9598
 -85.96
 -85.9601
 -85.9602
 -85.9491
 -85.9485
 -85.9482
 -85.9488
 -85.9398
 -85.9397
 -85.94
 -85.946
 -85.946
 -85.9466
 -85.946
 -85.9378
 -85.9372
 -85.938
 -85.9372
 -85.9527
 -85.9527
 -85.9528
 -85.9517
 -85.9393
 -85.9393
 -85.9393
 -85.9394
 -85.9423
 -85.9426
 -85.9427
 -85.9425
 -85.959
 -85.9586
 -85.9592
 -85.9587
 -85.9488
 -85.9489
 -85.9484
 -85.9489
 -85.9445
 -85.9442
 -85.9447
 -85.9443
 -85.9549
 -85.9549
 -85.9553
 -85.956
 -85.9557
 -85.9556
 -85.9455
 -85.9461
 -85.9459
 -85.9466
 -85.9468
 -85.9472
 -85.947
 -85.947
 -85.9399
 -85.9402
 -85.9398
 -85.9451
 -85.9447
 -85.9444
 -85.9252
 -85.9247
 -85.9251
 -85.9249
 -85.9427
 -85.9429
 -85.9383
 -85.9386
 -85.9384
 -85.9379
 -85.9503
 -85.9498
 -85.9502
 -85.9497
 -85.9331
 -85.9338
 -85.9341
 -85.9335
 -85.9413
 -85.9411
 -85.9407
 -85.9532
 -85.9533
 -85.9532
 -85.953
 -85.9409
 -85.9414
 -85.9407
 -85.9395
 -85.9396
 -85.939
 -85.9392
 -85.9446
 -85.9443
 -85.9444
 -85.9449
 -85.9551
 -85.9561
 -85.9304
 -85.9306
 -85.9423
 -85.9419
 -85.947
 -85.9465
 -85.9467
 -85.9466
 -85.9525
 -85.953
 -85.9526
 -85.9531
 -85.9478
 -85.9479
 -85.9481
 -85.9482
 -85.9381
 -85.9372
 -85.9378
 -85.9377
 -85.9507
 -85.9501
 -85.9503
 -85.9399
 -85.9396
 -85.9398
 -85.9398
 -85.9582
 -85.9581
 -85.9585
 -85.9579
 -85.9529
 -85.9529
 -85.953
 -85.9524
 -85.9404
 -85.9408
 -85.9403
 -85.9467
 -85.9461
 -85.9466
 -85.9469
 -85.9382
 -85.9381
 -85.9383
 -85.9409
 -85.9415
 -85.9413
 -85.941
 -85.9408
 -85.9407
 -85.9412
 -85.9409
 -85.9465
 -85.946
 -85.9459
 -85.9457
 -85.9602
 -85.96
 -85.9598
 -85.9599
 -85.9514
 -85.952
 -85.9518
 -85.9519
 -85.9461
 -85.9454
 -85.9459
 -85.9493
 -85.9491
 -85.949
 -85.9578
 -85.9572
 -85.9577
 -85.9574
 -85.9515
 -85.9515
 -85.9511
 -85.9518
 -85.9456
 -85.9461
 -85.9462
 -85.9462
 -85.9372
 -85.9373
 -85.9404
 -85.9401
 -85.9406
 -85.9405
 -85.9287
 -85.9285
 -85.9279
 -85.9286
 -85.9546
 -85.9547
 -85.9547
 -85.9544
 -85.9413
 -85.9408
 -85.941
 -85.9409
 -85.9479
 -85.9475
 -85.9477
 -85.9471
 -85.9361
 -85.9359
 -85.9359
 -85.9358
 -85.9496
 -85.9494
 -85.9492
 -85.9492
 -85.9465
 -85.9539
 -85.9538
 -85.9533
 -85.9535
 -85.9457
 -85.9451
 -85.9449
 -85.9455
 -85.9452
 -85.9455
 -85.9459
 -85.9457
 -85.9439
 -85.9434
 -85.9435
 -85.9433
 -85.9401
 -85.9396
 -85.9404
 -85.9563
 -85.9564
 -85.9565
 -85.9557
 -85.9453
 -85.9452
 -85.9452
 -85.945
 -85.9558
 -85.956
 -85.9563
 -85.9531
 -85.9527
 -85.9529
 -85.9528
 -85.9552
 -85.9558
 -85.9555
 -85.9559
 -85.9388
 -85.9394
 -85.9387
 -85.9235
 -85.9238
 -85.9238
 -85.9533
 -85.9539
 -85.9538
 -85.9497
 -85.9506
 -85.9502
 -85.9507
 -85.9445
 -85.9447
 -85.945
 -85.9445
 -85.9461
 -85.9463
 -85.9456
 -85.9457
 -85.9316
 -85.9319
 -85.931
 -85.9321
 -85.948
 -85.9477
 -85.9476
 -85.9476
 -85.951
 -85.9512
 -85.9515
 -85.9508
 -85.9413
 -85.9414
 -85.9426
 -85.9417
 -85.9422
 -85.9422
 -85.9534
 -85.953
 -85.9533
 -85.9533
 -85.9411
 -85.9415
 -85.9516
 -85.9514
 -85.9383
 -85.9246
 -85.9245
 -85.9245
 -85.9249
 -85.936
 -85.9366
 -85.9606
 -85.9609
 -85.9607
 -85.9373
 -85.9378
 -85.9383
 -85.9378
 -85.9541
 -85.954
 -85.9422
 -85.9421
 -85.9422
 -85.9422
 -85.9439
 -85.9448
 -85.9445
 -85.9539
 -85.9543
 -85.954
 -85.9546
 -85.9519
 -85.9524
 -85.9519
 -85.9521
 -85.9568
 -85.9569
 -85.9573
 -85.9462
 -85.9457
 -85.9462
 -85.9455
 -85.9479
 -85.9569
 -85.9563
 -85.9568
 -85.9567
 -85.9386
 -85.9385
 -85.9387
 -85.939
 -85.9491
 -85.9486
 -85.949
 -85.9485
 -85.9547
 -85.9541
 -85.9546
 -85.9542
 -85.9271
 -85.9273
 -85.9276
 -85.9277
 -85.9405
 -85.96
 -85.945
 -85.9456
 -85.9451
 -85.9447
 -85.9487
 -85.9492
 -85.9486
 -85.9484
 -85.9415
 -85.9408
 -85.9412
 -85.9413
 -85.9497
 -85.9495
 -85.9497
 -85.9498
 -85.9402
 -85.9402
 -85.9406
 -85.9395
 -85.9398
 -85.9402
 -85.9398
 -85.9459
 -85.9464
 -85.9455
 -85.946
 -85.9547
 -85.955
 -85.9542
 -85.9612
 -85.9615
 -85.9612
 -85.9611
 -85.9313
 -85.9308
 -85.9307
 -85.9474
 -85.9474
 -85.9463
 -85.9465
 -85.946
 -85.9468
 -85.9587
 -85.9586
 -85.9587
 -85.9589
 -85.9533
 -85.953
 -85.9532
 -85.9529
 -85.9401
 -85.9408
 -85.9403
 -85.9348
 -85.9457
 -85.9452
 -85.9453
 -85.9457
 -85.9468
 -85.9471
 -85.947
 -85.9529
 -85.9527
 -85.9527
 -85.9531
 -85.9551
 -85.9544
 -85.9548
 -85.9546
 -85.9451
 -85.9448
 -85.9537
 -85.9536
 -85.9539
 -85.9542
 -85.9501
 -85.9499
 -85.95
 -85.9505
 -85.9598
 -85.9599
 -85.9511
 -85.9506
 -85.9512
 -85.9509
 -85.9537
 -85.9539
 -85.9541
 -85.9542
 -85.9529
 -85.9533
 -85.9529
 -85.9529
 -85.9475
 -85.9478
 -85.946
 -85.9463
 -85.9459
 -85.9456
 -85.9436
 -85.9431
 -85.9434
 -85.9434
 -85.95
 -85.9504
 -85.9503
 -85.95
 -85.9397
 -85.94
 -85.9403
 -85.9406
 -85.9414
 -85.9412
 -85.941
 -85.9412
 -85.9299
 -85.9302
 -85.9301
 -85.9295
 -85.9436
 -85.9428
 -85.9493
 -85.9485
 -85.9492
 -85.9489
 -85.945
 -85.9448
 -85.9452
 -85.9455
 -85.9484
 -85.9487
 -85.9489
 -85.9486
 -85.9464
 -85.9463
 -85.9538
 -85.9535
 -85.9606
 -85.9606
 -85.9606
 -85.9608
 -85.9378
 -85.9461
 -85.946
 -85.9462
 -85.9465
 -85.9484
 -85.9478
 -85.948
 -85.948
 -85.9427
 -85.9423
 -85.9422
 -85.9417
 -85.9527
 -85.9521
 -85.9527
 -85.9521
 -85.9487
 -85.9483
 -85.9481
 -85.9486
 -85.9401
 -85.94
 -85.9403
 -85.9396
 -85.9395
 -85.9445
 -85.9452
 -85.9445
 -85.9449
 -85.9443
 -85.9451
 -85.9445
 -85.9442
 -85.9402
 -85.9402
 -85.9398
 -85.9402
 -85.9415
 -85.9417
 -85.9424
 -85.9421
 -85.9464
 -85.9468
 -85.9461
 -85.946
 -85.9403
 -85.9401
 -85.9399
 -85.94
 -85.9495
 -85.9497
 -85.949
 -85.9427
 -85.9427
 -85.9426
 -85.9426
 -85.9338
 -85.9343
 -85.9493
 -85.9496
 -85.9497
 -85.9488
 -85.9495
 -85.9492
 -85.9495
 -85.9386
 -85.939
 -85.9392
 -85.9372
 -85.9375
 -85.9375
 -85.9373
 -85.9515
 -85.9514
 -85.9517
 -85.9512
 -85.9489
 -85.9481
 -85.9489
 -85.9557
 -85.955
 -85.9553
 -85.9471
 -85.9467
 -85.9468
 -85.9568
 -85.9569
 -85.9569
 -85.9285
 -85.9281
 -85.9282
 -85.9285
 -85.9598
 -85.9599
 -85.9597
 -85.9599
 -85.9435
 -85.9431
 -85.9501
 -85.9495
 -85.94
 -85.94
 -85.94
 -85.9404
 -85.9508
 -85.9507
 -85.9513
 -85.9541
 -85.9545
 -85.9544
 -85.9545
 -85.9566
 -85.9561
 -85.9387
 -85.9387
 -85.9386
 -85.9495
 -85.9494
 -85.9489
 -85.9421
 -85.9416
 -85.9421
 -85.9387
 -85.9387
 -85.9384
 -85.9383
 -85.9457
 -85.9458
 -85.9454
 -85.946
 -85.945
 -85.9445
 -85.9447
 -85.9449
 -85.9522
 -85.952
 -85.952
 -85.9526
 -85.954
 -85.9537
 -85.9539
 -85.9534
 -85.9444
 -85.9442
 -85.9448
 -85.9514
 -85.9514
 -85.9511
 -85.9532
 -85.9536
 -85.9533
 -85.9534
 -85.9616
 -85.9615
 -85.9616
 -85.9478
 -85.9476
 -85.9476
 -85.9528
 -85.953
 -85.9524
 -85.947
 -85.9474
 -85.9468
 -85.9432
 -85.9426
 -85.9426
 -85.9388
 -85.939
 -85.9389
 -85.939
 -85.9471
 -85.947
 -85.9476
 -85.9472
 -85.942
 -85.9418
 -85.9414
 -85.9399
 -85.9404
 -85.9527
 -85.9523
 -85.9531
 -85.9526
 -85.9527
 -85.953
 -85.9526
 -85.9522
 -85.9403
 -85.9409
 -85.9411
 -85.9412
 -85.9401
 -85.9396
 -85.9398
 -85.9395
 -85.9356
 -85.9354
 -85.9356
 -85.9352
 -85.9583
 -85.9585
 -85.9562
 -85.9557
 -85.9559
 -85.9562
 -85.9596
 -85.9429
 -85.9434
 -85.9428
 -85.9481
 -85.9483
 -85.9479
 -85.9478
 -85.9403
 -85.9403
 -85.9466
 -85.9466
 -85.947
 -85.9381
 -85.9383
 -85.9555
 -85.9556
 -85.9559
 -85.9552
 -85.9571
 -85.957
 -85.9576
 -85.9573
 -85.9545
 -85.9547
 -85.9542
 -85.9434
 -85.9438
 -85.9438
 -85.9566
 -85.9566
 -85.9568
 -85.9569
 -85.942
 -85.9413
 -85.9418
 -85.942
 -85.955
 -85.9547
 -85.9546
 -85.955
 -85.9421
 -85.9415
 -85.9414
 -85.9424
 -85.939
 -85.9393
 -85.9388
 -85.9598
 -85.9603
 -85.96
 -85.9599
 -85.9395
 -85.9397
 -85.9396
 -85.9457
 -85.9459
 -85.9463
 -85.9459
 -85.9588
 -85.9592
 -85.959
 -85.9419
 -85.9415
 -85.9419
 -85.9416
 -85.9513
 -85.9581
 -85.9583
 -85.9576
 -85.958
 -85.9381
 -85.9383
 -85.9385
 -85.9382
 -85.9529
 -85.9522
 -85.9527
 -85.953
 -85.9479
 -85.9481
 -85.9473
 -85.9391
 -85.9387
 -85.9392
 -85.938
 -85.952
 -85.9519
 -85.9522
 -85.9414
 -85.9413
 -85.9291
 -85.9286
 -85.9292
 -85.9295
 -85.9359
 -85.9348
 -85.9346
 -85.9568
 -85.9566
 -85.9577
 -85.9572
 -85.9571
 -85.9573
 -85.9368
 -85.937
 -85.9364
 -85.9371
 -85.945
 -85.9453
 -85.9453
 -85.9454
 -85.9466
 -85.9459
 -85.946
 -85.9462
 -85.949
 -85.9488
 -85.9494
 -85.9488
 -85.9494
 -85.9486
 -85.9491
 -85.9487
 -85.9589
 -85.94
 -85.9398
 -85.94
 -85.9399
 -85.9591
 -85.9589
 -85.9594
 -85.9499
 -85.9493
 -85.9491
 -85.9493
 -85.9388
 -85.9393
 -85.9394
 -85.9485
 -85.9481
 -85.9484
 -85.948
 -85.9472
 -85.9521
 -85.9523
 -85.9528
 -85.9526
 -85.9423
 -85.9422
 -85.9423
 -85.9474
 -85.9483
 -85.948
 -85.9592
 -85.959
 -85.9587
 -85.959
 -85.9468
 -85.9466
 -85.9465
 -85.9271
 -85.9274
 -85.9268
 -85.9468
 -85.9464
 -85.9467
 -85.946
 -85.9524
 -85.9529
 -85.9528
 -85.9477
 -85.9478
 -85.9569
 -85.957
 -85.9566
 -85.9567
 -85.9546
 -85.955
 -85.9547
 -85.9547
 -85.9603
 -85.9602
 -85.96
 -85.9598
 -85.9492
 -85.9482
 -85.949
 -85.9492
 -85.9536
 -85.9534
 -85.9532
 -85.953
 -85.9568
 -85.9571
 -85.9574
 -85.9417
 -85.9419
 -85.9412
 -85.9415
 -85.9462
 -85.9467
 -85.944
 -85.9437
 -85.9441
 -85.9439
 -85.9525
 -85.9524
 -85.9525
 -85.9528
 -85.9468
 -85.9473
 -85.9471
 -85.9467
 -85.9523
 -85.9521
 -85.9528
 -85.9522
 -85.9476
 -85.9478
 -85.9481
 -85.9482
 -85.9471
 -85.9466
 -85.9467
 -85.9563
 -85.956
 -85.9563
 -85.9584
 -85.9583
 -85.9582
 -85.9588
 -85.9576
 -85.9575
 -85.9578
 -85.9538
 -85.9543
 -85.9538
 -85.9308
 -85.9307
 -85.9303
 -85.9461
 -85.9467
 -85.9462
 -85.956
 -85.9563
 -85.956
 -85.956
 -85.9461
 -85.9463
 -85.946
 -85.9494
 -85.9497
 -85.9496
 -85.9492
 -85.9513
 -85.9503
 -85.9507
 -85.9505
 -85.9472
 -85.9476
 -85.9475
 -85.9479
 -85.9408
 -85.9412
 -85.9409
 -85.9407
 -85.9463
 -85.9494
 -85.9494
 -85.9497
 -85.9487
 -85.9395
 -85.9396
 -85.9397
 -85.9397
 -85.9389
 -85.9393
 -85.939
 -85.9392
 -85.9401
 -85.9403
 -85.9402
 -85.9399
 -85.9516
 -85.9516
 -85.9521
 -85.9524
 -85.9416
 -85.9413
 -85.9415
 -85.9416
 -85.96
 -85.9597
 -85.96
 -85.9597
 -85.9347
 -85.935
 -85.9354
 -85.9353
 -85.9411
 -85.9412
 -85.941
 -85.938
 -85.9376
 -85.9375
 -85.9375
 -85.9396
 -85.9393
 -85.9399
 -85.9398
 -85.9399
 -85.9481
 -85.948
 -85.9483
 -85.9491
 -85.9585
 -85.9582
 -85.958
 -85.9584
 -85.9584
 -85.9585
 -85.9582
 -85.9406
 -85.9402
 -85.9595
 -85.9598
 -85.9594
 -85.9564
 -85.9563
 -85.9564
 -85.9568
 -85.9396
 -85.9394
 -85.9396
 -85.96
 -85.9601
 -85.9598
 -85.9602
 -85.9437
 -85.9439
 -85.9442
 -85.9434
 -85.9402
 -85.9396
 -85.9399
 -85.9403
 -85.9378
 -85.9385
 -85.9382
 -85.9381
 -85.9327
 -85.9328
 -85.9324
 -85.9324
 -85.9506
 -85.9514
 -85.951
 -85.9512
 -85.9443
 -85.9443
 -85.9441
 -85.9435
 -85.9597
 -85.9595
 -85.9598
 -85.9265
 -85.9271
 -85.9268
 -85.9274
 -85.9357
 -85.9363
 -85.936
 -85.9365
 -85.9597
 -85.9602
 -85.9599
 -85.9599
 -85.9475
 -85.9475
 -85.948
 -85.9574
 -85.9579
 -85.958
 -85.9404
 -85.9403
 -85.9396
 -85.9598
 -85.9597
 -85.9596
 -85.9597
 -85.9563
 -85.956
 -85.9559
 -85.9556
 -85.9424
 -85.9427
 -85.943
 -85.9426
 -85.9443
 -85.9437
 -85.9442
 -85.9436
 -85.9548
 -85.9548
 -85.9549
 -85.9554
 -85.9488
 -85.9485
 -85.9481
 -85.9484
 -85.9338
 -85.9344
 -85.9345
 -85.9343
 -85.9568
 -85.9561
 -85.9566
 -85.9563
 -85.9603
 -85.9479
 -85.948
 -85.9484
 -85.9484
 -85.9582
 -85.9584
 -85.9583
 -85.9587
 -85.9395
 -85.9395
 -85.9396
 -85.9396
 -85.9594
 -85.9596
 -85.9592
 -85.9591
 -85.9469
 -85.9467
 -85.9445
 -85.9442
 -85.9446
 -85.9448
 -85.9544
 -85.9539
 -85.9538
 -85.9539
 -85.9493
 -85.9499
 -85.9497
 -85.9441
 -85.9441
 -85.9443
 -85.9547
 -85.9546
 -85.9541
 -85.9542
 -85.9533
 -85.953
 -85.9535
 -85.9531
 -85.9406
 -85.9403
 -85.9402
 -85.9472
 -85.9483
 -85.9483
 -85.9476
 -85.9348
 -85.9345
 -85.9351
 -85.9344
 -85.9339
 -85.9599
 -85.9591
 -85.9598
 -85.9593
 -85.9481
 -85.9478
 -85.9475
 -85.9481
 -85.9572
 -85.9575
 -85.9459
 -85.9451
 -85.9452
 -85.942
 -85.9416
 -85.9423
 -85.9421
 -85.9596
 -85.9594
 -85.9598
 -85.9597
 -85.9401
 -85.9403
 -85.9402
 -85.9423
 -85.9422
 -85.9426
 -85.9422
 -85.944
 -85.9446
 -85.9441
 -85.9435
 -85.9524
 -85.9532
 -85.9526
 -85.9529
 -85.9414
 -85.9421
 -85.9417
 -85.9417
 -85.9539
 -85.9507
 -85.9513
 -85.9515
 -85.9506
 -85.9583
 -85.9585
 -85.958
 -85.9592
 -85.9591
 -85.959
 -85.9587
 -85.9511
 -85.9514
 -85.9509
 -85.9512
 -85.9607
 -85.9606
 -85.9606
 -85.9602
 -85.9441
 -85.9497
 -85.949
 -85.949
 -85.9495
 -85.9482
 -85.9473
 -85.9478
 -85.9479
 -85.9328
 -85.9335
 -85.9337
 -85.933
 -85.9465
 -85.9466
 -85.9468
 -85.9462
 -85.9457
 -85.9457
 -85.9459
 -85.9462
 -85.946
 -85.9461
 -85.9465
 -85.9574
 -85.9571
 -85.9569
 -85.9456
 -85.945
 -85.9451
 -85.9454
 -85.9568
 -85.9574
 -85.9571
 -85.9474
 -85.947
 -85.9486
 -85.949
 -85.9488
 -85.9485
 -85.9483
 -85.9484
 -85.9479
 -85.948
 -85.9487
 -85.9485
 -85.9579
 -85.958
 -85.958
 -85.9442
 -85.9589
 -85.9493
 -85.9497
 -85.9492
 -85.9488
 -85.9395
 -85.9394
 -85.9389
 -85.9407
 -85.9412
 -85.9415
 -85.9485
 -85.9487
 -85.9481
 -85.9469
 -85.9469
 -85.9472
 -85.9474
 -85.9482
 -85.9477
 -85.9485
 -85.9477
 -85.9268
 -85.9269
 -85.9264
 -85.9547
 -85.9542
 -85.9546
 -85.9469
 -85.9471
 -85.9557
 -85.9552
 -85.9553
 -85.9551
 -85.95
 -85.9504
 -85.95
 -85.933
 -85.9332
 -85.9325
 -85.9327
 -85.9455
 -85.9449
 -85.9455
 -85.9449
 -85.941
 -85.9408
 -85.9406
 -85.9405
 -85.9521
 -85.9515
 -85.9519
 -85.9521
 -85.9434
 -85.9428
 -85.9433
 -85.9426
 -85.9347
 -85.9346
 -85.9346
 -85.944
 -85.9439
 -85.9436
 -85.9437
 -85.9522
 -85.9528
 -85.9525
 -85.9526
 -85.9475
 -85.9481
 -85.9482
 -85.9479
 -85.9418
 -85.9416
 -85.9418
 -85.9451
 -85.9447
 -85.9448
 -85.9448
 -85.9408
 -85.9403
 -85.9409
 -85.9404
 -85.9381
 -85.9388
 -85.9386
 -85.9379
 -85.9595
 -85.9596
 -85.9595
 -85.9597
 -85.9404
 -85.9407
 -85.9406
 -85.9407
 -85.9415
 -85.9412
 -85.9417
 -85.9416
 -85.9514
 -85.952
 -85.9519
 -85.9522
 -85.9436
 -85.9435
 -85.944
 -85.9438
 -85.9614
 -85.9614
 -85.9614
 -85.9615
 -85.9462
 -85.9459
 -85.9464
 -85.9392
 -85.9388
 -85.939
 -85.9394
 -85.9402
 -85.94
 -85.9401
 -85.94
 -85.9401
 -85.9393
 -85.9531
 -85.9527
 -85.9532
 -85.9525
 -85.9613
 -85.9611
 -85.9612
 -85.9611
 -85.9449
 -85.9444
 -85.9446
 -85.9443
 -85.9408
 -85.9405
 -85.9405
 -85.952
 -85.9515
 -85.9515
 -85.9519
 -85.9461
 -85.946
 -85.9462
 -85.9467
 -85.942
 -85.9421
 -85.9419
 -85.9424
 -85.9388
 -85.9394
 -85.939
 -85.9549
 -85.9554
 -85.9556
 -85.955
 -85.9566
 -85.9565
 -85.9561
 -85.9449
 -85.9448
 -85.9452
 -85.9455
 -85.9454
 -85.9451
 -85.9457
 -85.9417
 -85.9423
 -85.9426
 -85.9424
 -85.9518
 -85.9515
 -85.9513
 -85.9401
 -85.9401
 -85.9396
 -85.9479
 -85.9484
 -85.9482
 -85.9565
 -85.956
 -85.9564
 -85.9527
 -85.9526
 -85.9438
 -85.9442
 -85.9437
 -85.9441
 -85.9444
 -85.9441
 -85.9467
 -85.9461
 -85.942
 -85.9383
 -85.9384
 -85.938
 -85.957
 -85.9569
 -85.9563
 -85.945
 -85.9454
 -85.9453
 -85.9449
 -85.9423
 -85.9476
 -85.9478
 -85.952
 -85.9522
 -85.9519
 -85.9524
 -85.9475
 -85.9471
 -85.9476
 -85.9451
 -85.9453
 -85.9446
 -85.9451
 -85.944
 -85.9448
 -85.9457
 -85.9452
 -85.9449
 -85.9459
 -85.9576
 -85.9572
 -85.9571
 -85.9575
 -85.958
 -85.9582
 -85.9586
 -85.9585
 -85.94
 -85.9404
 -85.9473
 -85.9473
 -85.947
 -85.9466
 -85.9497
 -85.9498
 -85.9501
 -85.9502
 -85.9511
 -85.9516
 -85.9511
 -85.951
 -85.9468
 -85.9465
 -85.9463
 -85.9469
 -85.9459
 -85.9463
 -85.946
 -85.9457
 -85.9564
 -85.9558
 -85.9564
 -85.9564
 -85.9405
 -85.9411
 -85.9413
 -85.9417
 -85.9407
 -85.9413
 -85.941
 -85.9547
 -85.9551
 -85.9557
 -85.9559
 -85.9418
 -85.9422
 -85.942
 -85.9423
 -85.9589
 -85.9587
 -85.9589
 -85.9589
 -85.9568
 -85.9566
 -85.9568
 -85.9565
 -85.9445
 -85.9447
 -85.9443
 -85.9445
 -85.9528
 -85.953
 -85.9528
 -85.9523
 -85.9422
 -85.9425
 -85.9428
 -85.9429
 -85.9546
 -85.9543
 -85.9544
 -85.9404
 -85.9407
 -85.9403
 -85.9405
 -85.9505
 -85.9503
 -85.9506
 -85.9508
 -85.944
 -85.9441
 -85.954
 -85.9548
 -85.9544
 -85.9543
 -85.955
 -85.9549
 -85.9545
 -85.9462
 -85.9469
 -85.9463
 -85.9555
 -85.9555
 -85.9557
 -85.956
 -85.9352
 -85.9354
 -85.9358
 -85.9356
 -85.942
 -85.9422
 -85.9426
 -85.9427
 -85.9505
 -85.9499
 -85.9499
 -85.9505
 -85.9578
 -85.9579
 -85.9576
 -85.9581
 -85.9568
 -85.9572
 -85.9572
 -85.9569
 -85.9578
 -85.9577
 -85.9579
 -85.9577
 -85.9579
 -85.943
 -85.9433
 -85.943
 -85.9435
 -85.9407
 -85.9408
 -85.9401
 -85.9406
 -85.9428
 -85.9428
 -85.9439
 -85.9445
 -85.9441
 -85.944
 -85.9454
 -85.9454
 -85.946
 -85.9454
 -85.941
 -85.941
 -85.9406
 -85.9482
 -85.9479
 -85.9479
 -85.9477
 -85.9615
 -85.9615
 -85.9612
 -85.9431
 -85.943
 -85.9433
 -85.9438
 -85.9555
 -85.9549
 -85.9552
 -85.9554
 -85.9523
 -85.9528
 -85.9526
 -85.9474
 -85.9472
 -85.9477
 -85.9528
 -85.9534
 -85.9528
 -85.9564
 -85.9561
 -85.9524
 -85.9524
 -85.9523
 -85.9423
 -85.9425
 -85.9426
 -85.942
 -85.9584
 -85.9587
 -85.9585
 -85.9583
 -85.9507
 -85.9512
 -85.9509
 -85.9316
 -85.9309
 -85.9307
 -85.9314
 -85.9389
 -85.9387
 -85.9492
 -85.944
 -85.9447
 -85.9443
 -85.944
 -85.9482
 -85.9488
 -85.9487
 -85.9543
 -85.9544
 -85.954
 -85.9544
 -85.9592
 -85.9593
 -85.9474
 -85.9472
 -85.9472
 -85.9468
 -85.9382
 -85.9377
 -85.9377
 -85.9382
 -85.957
 -85.9573
 -85.9572
 -85.957
 -85.9504
 -85.9506
 -85.9502
 -85.9275
 -85.9272
 -85.9268
 -85.9269
 -85.9405
 -85.9404
 -85.94
 -85.943
 -85.9434
 -85.9426
 -85.9431
 -85.9504
 -85.9505
 -85.9502
 -85.9509
 -85.9474
 -85.9478
 -85.9392
 -85.9394
 -85.9393
 -85.9393
 -85.9508
 -85.9513
 -85.943
 -85.9423
 -85.9426
 -85.9428
 -85.9449
 -85.9451
 -85.9445
 -85.945
 -85.9476
 -85.9482
 -85.9483
 -85.9479
 -85.9425
 -85.9422
 -85.9417
 -85.9521
 -85.9515
 -85.9522
 -85.9516
 -85.955
 -85.9554
 -85.9558
 -85.955
 -85.9543
 -85.9544
 -85.9545
 -85.9548
 -85.9377
 -85.9372
 -85.9375
 -85.9371
 -85.948
 -85.9476
 -85.9301
 -85.9295
 -85.9296
 -85.9292
 -85.9448
 -85.9443
 -85.944
 -85.9594
 -85.9251
 -85.9253
 -85.9253
 -85.9245
 -85.9466
 -85.9469
 -85.9466
 -85.9466
 -85.9438
 -85.9443
 -85.9439
 -85.9545
 -85.9549
 -85.955
 -85.9545
 -85.9547
 -85.9546
 -85.9551
 -85.9551
 -85.9542
 -85.9544
 -85.954
 -85.9538
 -85.9424
 -85.9429
 -85.9422
 -85.9428
 -85.9402
 -85.9399
 -85.9397
 -85.9397
 -85.9511
 -85.9511
 -85.9516
 -85.9511
 -85.9452
 -85.9445
 -85.9455
 -85.945
 -85.9612
 -85.9579
 -85.958
 -85.95
 -85.95
 -85.9454
 -85.945
 -85.9451
 -85.9584
 -85.9588
 -85.9585
 -85.9584
 -85.9463
 -85.9461
 -85.95
 -85.9496
 -85.933
 -85.9336
 -85.9329
 -85.9335
 -85.9424
 -85.9422
 -85.9419
 -85.9421
 -85.9506
 -85.9512
 -85.9507
 -85.951
 -85.9341
 -85.9336
 -85.934
 -85.9342
 -85.9603
 -85.9601
 -85.9605
 -85.9602
 -85.958
 -85.9575
 -85.9591
 -85.9588
 -85.9585
 -85.9591
 -85.9552
 -85.9556
 -85.9441
 -85.9444
 -85.9439
 -85.9259
 -85.9265
 -85.9258
 -85.9259
 -85.9349
 -85.9353
 -85.9354
 -85.935
 -85.9583
 -85.9585
 -85.9583
 -85.9581
 -85.953
 -85.9536
 -85.9532
 -85.9487
 -85.9481
 -85.9477
 -85.9483
 -85.943
 -85.9438
 -85.9432
 -85.943
 -85.9565
 -85.9568
 -85.9567
 -85.9584
 -85.9479
 -85.9486
 -85.9423
 -85.9425
 -85.9522
 -85.9528
 -85.9521
 -85.9523
 -85.9402
 -85.9396
 -85.9404
 -85.9396
 -85.9398
 -85.9394
 -85.9396
 -85.9268
 -85.9277
 -85.9275
 -85.9273
 -85.9429
 -85.9433
 -85.9432
 -85.9437
 -85.9567
 -85.9568
 -85.9558
 -85.9562
 -85.9561
 -85.9562
 -85.9421
 -85.942
 -85.9425
 -85.9418
 -85.9543
 -85.9541
 -85.9545
 -85.9524
 -85.9524
 -85.9526
 -85.9521
 -85.956
 -85.9563
 -85.9558
 -85.9564
 -85.9431
 -85.9436
 -85.9434
 -85.9431
 -85.9592
 -85.9587
 -85.9458
 -85.9317
 -85.932
 -85.9324
 -85.9326
 -85.9541
 -85.9541
 -85.9544
 -85.9349
 -85.9345
 -85.9347
 -85.9343
 -85.9521
 -85.952
 -85.952
 -85.9524
 -85.9393
 -85.9393
 -85.9388
 -85.9394
 -85.9413
 -85.9412
 -85.9416
 -85.9416
 -85.9515
 -85.9518
 -85.9518
 -85.9441
 -85.9443
 -85.9441
 -85.9437
 -85.951
 -85.9508
 -85.9512
 -85.9504
 -85.9495
 -85.9492
 -85.9552
 -85.9554
 -85.9553
 -85.9524
 -85.9526
 -85.9521
 -85.9315
 -85.9316
 -85.9321
 -85.9316
 -85.94
 -85.9405
 -85.9399
 -85.9406
 -85.9565
 -85.9559
 -85.956
 -85.9559
 -85.9556
 -85.9554
 -85.9415
 -85.9425
 -85.9416
 -85.9526
 -85.952
 -85.9522
 -85.9519
 -85.9524
 -85.9523
 -85.952
 -85.9427
 -85.9424
 -85.9427
 -85.9428
 -85.9583
 -85.9585
 -85.9443
 -85.9441
 -85.9443
 -85.9447
 -85.942
 -85.9421
 -85.9422
 -85.953
 -85.9532
 -85.9472
 -85.9469
 -85.9473
 -85.9477
 -85.9398
 -85.9396
 -85.9513
 -85.9512
 -85.9446
 -85.9438
 -85.9439
 -85.9443
 -85.9483
 -85.9483
 -85.9479
 -85.9487
 -85.9482
 -85.9479
 -85.9483
 -85.9366
 -85.9367
 -85.9364
 -85.9374
 -85.9347
 -85.9347
 -85.9351
 -85.9351
 -85.9523
 -85.952
 -85.9515
 -85.9519
 -85.9569
 -85.9569
 -85.9566
 -85.9566
 -85.9494
 -85.9497
