 -85.2582
 -85.2726
 -85.2705
 -85.2774
 -85.4109
 -85.412
 -85.4144
 -85.4159
 -85.3848
 -85.3809
 -85.3856
 -85.3821
 -85.3898
 -85.3852
 -85.3851
 -85.3826
 -85.4495
 -85.4515
 -85.4478
 -85.4467
 -85.4442
 -85.4418
 -85.446
 -85.4427
 -85.2036
 -85.1943
 -85.1972
 -85.2023
 -85.228
 -85.2298
 -85.23
 -85.2263
 -85.4436
 -85.4424
 -85.4392
 -85.442
 -85.4427
 -85.4432
 -85.4423
 -85.4464
 -85.1571
 -85.1497
 -85.1605
 -85.1623
 -85.3812
 -85.3822
 -85.3778
 -85.3805
 -85.2977
 -85.2977
 -85.292
 -85.3032
 -85.4183
 -85.4132
 -85.411
 -85.4148
 -85.3631
 -85.3608
 -85.3641
 -85.3675
 -85.2325
 -85.2254
 -85.2383
 -85.2265
 -85.4353
 -85.4371
 -85.4347
 -85.4377
 -85.3934
 -85.3905
 -85.3945
 -85.3916
 -85.3671
 -85.3692
 -85.3698
 -85.3729
 -85.4292
 -85.4293
 -85.4311
 -85.4331
 -85.2085
 -85.1944
 -85.2094
 -85.1993
 -85.4553
 -85.4561
 -85.4583
 -85.4579
 -84.3991
 -84.363
 -84.3089
 -84.3904
 -85.4088
 -85.4098
 -85.4055
 -85.4052
 -85.3571
 -85.353
 -85.3561
 -85.3592
 -85.3753
 -85.3768
 -85.3745
 -85.3731
 -85.3342
 -85.341
 -85.3442
 -85.3345
 -85.2227
 -85.2132
 -85.2234
 -85.2187
 -85.2969
 -85.2947
 -85.2888
 -85.2934
 -85.4145
 -85.4143
 -85.4118
 -85.4095
 -85.36
 -85.3666
 -85.3578
 -85.3611
 -85.2986
 -85.3041
 -85.3043
 -85.2986
 -85.4017
 -85.3978
 -85.403
 -85.3986
 -85.4109
 -85.4092
 -85.4087
 -85.4096
 -85.303
 -85.298
 -85.3049
 -85.2934
 -85.2507
 -85.2486
 -85.2483
 -85.2495
 -85.3978
 -85.3918
 -85.3975
 -85.3956
 -85.0622
 -85.081
 -85.0764
 -85.0957
 -85.4028
 -85.4029
 -85.4093
 -85.4074
 -85.46
 -85.4581
 -85.4594
 -85.4574
 -85.3806
 -85.3798
 -85.3818
 -85.3754
 -85.411
 -85.4142
 -85.4125
 -85.412
 -85.1585
 -85.154
 -85.1616
 -85.1477
 -85.3944
 -85.3919
 -85.393
 -85.3973
 -85.4429
 -85.4422
 -85.445
 -85.4438
 -85.2815
 -85.2876
 -85.2849
 -85.2821
 -85.3977
 -85.403
 -85.4016
 -85.4015
 -85.226
 -85.2341
 -85.222
 -85.21
 -85.3116
 -85.3071
 -85.3052
 -85.3021
 -85.3679
 -85.3641
 -85.3628
 -85.3606
 -85.208
 -85.2053
 -85.2005
 -85.2043
 -85.3699
 -85.3657
 -85.3656
 -85.3692
 -85.3169
 -85.3077
 -85.3154
 -85.3043
 -85.3814
 -85.3839
 -85.3807
 -85.384
 -85.2901
 -85.2966
 -85.2934
 -85.3021
 -85.3802
 -85.3792
 -85.3835
 -85.3769
 -85.4039
 -85.4046
 -85.4068
 -85.4088
 -85.4098
 -85.4083
 -85.4104
 -85.4046
 -85.2779
 -85.2801
 -85.2671
 -85.2834
 -85.3265
 -85.3233
 -85.3255
 -85.333
 -84.5605
 -84.4809
 -84.4655
 -84.5135
 -85.2965
 -85.2964
 -85.2894
 -85.2946
 -85.3612
 -85.3672
 -85.365
 -85.3666
 -85.321
 -85.3196
 -85.3289
 -85.3146
 -85.3204
 -85.3281
 -85.3191
 -85.327
 -85.23
 -85.2235
 -85.233
 -85.232
 -85.4323
 -85.4359
 -85.4369
 -85.4319
 -85.4499
 -85.451
 -85.4519
 -85.4524
 -85.3723
 -85.3776
 -85.3681
 -85.371
 -85.2982
 -85.2966
 -85.3029
 -85.2948
 -85.4019
 -85.404
 -85.4062
 -85.4016
 -85.2063
 -85.1862
 -85.1922
 -85.1913
 -85.1992
 -85.1882
 -85.1873
 -85.2039
 -84.5203
 -84.4706
 -84.5527
 -84.5432
 -85.3829
 -85.3869
 -85.385
 -85.3892
 -85.2671
 -85.2798
 -85.282
 -85.2693
 -85.253
 -85.2435
 -85.2516
 -85.2628
 -85.4532
 -85.4555
 -85.4545
 -85.4558
 -85.2538
 -85.2519
 -85.2457
 -85.2538
 -85.2614
 -85.2564
 -85.2495
 -85.2603
 -85.2777
 -85.2838
 -85.2781
 -85.2718
 -85.3396
 -85.3379
 -85.3435
 -85.342
 -85.268
 -85.2762
 -85.271
 -85.273
 -85.3101
 -85.315
 -85.3167
 -85.312
 -85.3257
 -85.3243
 -85.3221
 -85.3192
 -85.2404
 -85.2302
 -85.2448
 -85.2347
 -84.2809
 -84.234
 -84.3985
 -84.4117
 -85.2202
 -85.2238
 -85.2297
 -85.2247
 -85.3844
 -85.3824
 -85.3868
 -85.3791
 -85.3858
 -85.3847
 -85.3888
 -85.3854
 -85.4083
 -85.4073
 -85.4055
 -85.4111
 -85.2229
 -85.2221
 -85.2236
 -85.2267
 -85.4566
 -85.4565
 -85.4549
 -85.4583
 -85.4073
 -85.4107
 -85.4073
 -85.4079
 -85.1038
 -85.0986
 -85.0809
 -85.0892
 -85.3122
 -85.3128
 -85.3091
 -85.3218
 -85.261
 -85.2657
 -85.2546
 -85.2587
 -85.2643
 -85.2596
 -85.2605
 -85.2265
 -85.2253
 -85.2251
 -85.2224
 -85.3944
 -85.3917
 -85.3896
 -85.396
 -85.3345
 -85.3425
 -85.3389
 -85.3342
 -85.3895
 -85.3937
 -85.391
 -85.2954
 -85.2854
 -85.2911
 -85.2869
 -85.3523
 -85.3548
 -85.3537
 -85.3485
 -85.4259
 -85.4226
 -85.4226
 -85.4283
 -85.2074
 -85.2107
 -85.2287
 -85.2212
 -85.2388
 -85.2307
 -85.2277
 -85.2326
 -85.3851
 -85.3804
 -85.379
 -85.3806
 -85.4031
 -85.4008
 -85.4075
 -85.4066
 -85.143
 -85.1369
 -85.1295
 -85.1146
 -85.2312
 -85.2333
 -85.2482
 -85.244
 -85.3218
 -85.3299
 -85.3341
 -85.3236
 -85.4452
 -85.4475
 -85.446
 -85.4467
 -85.383
 -85.3877
 -85.3885
 -85.3868
 -85.3516
 -85.3425
 -85.3515
 -85.3511
 -84.7835
 -84.7161
 -84.7955
 -84.787
 -85.3417
 -85.3354
 -85.343
 -85.347
 -85.4253
 -85.4219
 -85.4255
 -85.4201
 -85.2672
 -85.2525
 -85.2748
 -85.2684
 -85.2577
 -85.2597
 -85.2503
 -85.2555
 -85.2453
 -85.235
 -85.2379
 -85.2414
 -85.1363
 -85.1341
 -85.1334
 -85.1393
 -85.2518
 -85.238
 -85.2381
 -85.2381
 -85.3874
 -85.3865
 -85.3872
 -85.3841
 -85.1989
 -85.202
 -85.2071
 -85.2109
 -85.4416
 -85.4391
 -85.4404
 -85.4415
 -85.1945
 -85.1792
 -85.1813
 -85.193
 -85.4249
 -85.4196
 -85.4247
 -85.4216
 -85.3394
 -85.3338
 -85.3339
 -85.3378
 -85.3073
 -85.3126
 -85.3163
 -85.3085
 -85.2879
 -85.2889
 -85.2973
 -85.29
 -85.2738
 -85.2735
 -85.2685
 -85.2648
 -85.4546
 -85.4564
 -85.457
 -85.457
 -85.2818
 -85.2788
 -85.2813
 -85.2793
 -85.4599
 -85.4583
 -85.4593
 -85.457
 -85.4048
 -85.4041
 -85.409
 -85.4054
 -84.9671
 -85.0155
 -85.0028
 -84.9603
 -85.4471
 -85.4463
 -85.4488
 -85.45
 -85.2321
 -85.2466
 -85.2354
 -85.2252
 -84.8799
 -84.8631
 -84.8563
 -84.8704
 -85.4187
 -85.418
 -85.4164
 -85.4183
 -85.4508
 -85.4531
 -85.4516
 -85.451
 -85.3639
 -85.3664
 -85.3628
 -85.3625
 -85.4128
 -85.4087
 -85.414
 -85.4101
 -85.2645
 -85.2548
 -85.2595
 -85.259
 -85.3765
 -85.3747
 -85.3769
 -85.3815
 -85.3061
 -85.3003
 -85.3069
 -85.3074
 -85.2313
 -85.2348
 -85.2303
 -85.2298
 -85.1684
 -85.1665
 -85.1665
 -85.1761
 -85.3353
 -85.3327
 -85.3391
 -85.3307
 -85.3524
 -85.3534
 -85.351
 -85.3474
 -85.2548
 -85.2521
 -85.2585
 -85.2643
 -85.2574
 -85.2475
 -85.2581
 -85.2555
 -85.3917
 -85.3923
 -85.3885
 -85.389
 -85.4446
 -85.4438
 -85.447
 -85.4474
 -85.4405
 -85.4381
 -85.4408
 -85.4414
 -85.439
 -85.435
 -85.436
 -85.4376
 -85.3943
 -85.3923
 -85.3959
 -85.3913
 -85.2557
 -85.2458
 -85.2536
 -85.2506
 -85.2588
 -85.2635
 -85.2657
 -85.2681
 -85.349
 -85.3482
 -85.338
 -85.339
 -85.4057
 -85.4032
 -85.41
 -85.4077
 -85.4045
 -85.402
 -85.4031
 -85.406
 -85.3696
 -85.3653
 -85.3679
 -85.3686
 -85.3815
 -85.3853
 -85.3795
 -85.381
 -85.1616
 -85.1587
 -85.1645
 -85.1783
 -83.5738
 -83.4883
 -83.5789
 -83.3468
 -85.2712
 -85.2697
 -85.2572
 -85.264
 -84.1929
 -84.3438
 -84.2969
 -85.2747
 -85.273
 -85.2781
 -85.2654
 -85.4292
 -85.4269
 -85.4284
 -85.426
 -85.3642
 -85.3675
 -85.3681
 -85.3717
 -85.4446
 -85.4433
 -85.4468
 -85.4431
 -85.2559
 -85.2576
 -85.2489
 -85.2573
 -85.3984
 -85.3966
 -85.4024
 -85.4011
 -85.3704
 -85.371
 -85.3649
 -85.3667
 -85.4517
 -85.453
 -85.454
 -85.4503
 -85.4224
 -85.4218
 -85.4231
 -85.4269
 -85.2712
 -85.2806
 -85.2742
 -85.2709
 -85.3973
 -85.3966
 -85.3927
 -85.397
 -85.4269
 -85.4213
 -85.4247
 -85.4219
 -84.8429
 -84.7641
 -84.822
 -84.7725
 -85.3612
 -85.364
 -85.366
 -85.3665
 -85.426
 -85.4268
 -85.429
 -85.4264
 -85.3876
 -85.3915
 -85.3842
 -85.3933
 -85.4214
 -85.4174
 -85.422
 -85.4214
 -85.2534
 -85.2618
 -85.2661
 -85.2682
 -85.4209
 -85.4281
 -85.4209
 -85.4269
 -85.3273
 -85.3315
 -85.3185
 -85.3257
 -85.3431
 -85.3465
 -85.3502
 -85.3418
 -85.4206
 -85.4204
 -85.4172
 -85.4223
 -85.4601
 -85.4586
 -85.4587
 -85.4599
 -85.1737
 -85.1815
 -85.1862
 -85.1899
 -85.3053
 -85.3102
 -85.3147
 -85.3071
 -85.3754
 -85.3728
 -85.3697
 -85.3713
 -85.4219
 -85.4241
 -85.4237
 -85.424
 -85.2845
 -85.2791
 -85.2805
 -85.2809
 -85.1835
 -85.2008
 -85.2079
 -85.1875
 -85.4015
 -85.4017
 -85.3969
 -85.3968
 -85.386
 -85.3902
 -85.3862
 -85.3878
 -85.4478
 -85.4496
 -85.4516
 -85.4477
 -85.2208
 -85.2338
 -85.2175
 -85.23
 -85.4507
 -85.4527
 -85.4523
 -85.4509
 -85.2963
 -85.3074
 -85.3035
 -85.2999
 -83.7267
 -83.6804
 -83.7174
 -83.7832
 -85.4362
 -85.4388
 -85.4395
 -85.4385
 -85.3951
 -85.3978
 -85.3932
 -85.388
 -85.4398
 -85.4398
 -85.438
 -85.4373
 -85.3496
 -85.343
 -85.3486
 -85.3509
 -85.3373
 -85.3418
 -85.3428
 -85.3387
 -85.4152
 -85.4107
 -85.4119
 -85.4123
 -85.2553
 -85.2585
 -85.2513
 -85.2567
 -85.2434
 -85.2491
 -85.249
 -85.2465
 -84.626
 -84.5822
 -84.6025
 -84.5743
 -85.3684
 -85.3723
 -85.3742
 -85.3768
 -85.3538
 -85.35
 -85.3587
 -85.3532
 -85.3893
 -85.3826
 -85.3863
 -85.3904
 -85.3057
 -85.3145
 -85.3152
 -85.3031
 -85.4448
 -85.4445
 -85.4466
 -85.4421
 -85.4501
 -85.4542
 -85.4504
 -85.4494
 -85.3918
 -85.3939
 -85.3982
 -85.3982
 -82.4398
 -82.424
 -82.4794
 -82.5512
 -85.324
 -85.32
 -85.3259
 -85.3169
 -85.331
 -85.3289
 -85.3222
 -85.329
 -85.326
 -85.3266
 -85.3195
 -85.3193
 -85.4167
 -85.4151
 -85.4197
 -85.4141
 -84.8344
 -84.8783
 -84.786
 -84.8287
 -84.2992
 -84.3406
 -84.1899
 -84.2145
 -85.4171
 -85.414
 -85.4174
 -85.4131
 -85.2885
 -85.298
 -85.2844
 -85.298
 -85.3222
 -85.3221
 -85.3244
 -85.3247
 -85.3905
 -85.3872
 -85.3867
 -85.3818
 -85.2495
 -85.2539
 -85.2577
 -85.2532
 -85.4231
 -85.4187
 -85.42
 -85.4224
 -85.3066
 -85.2918
 -85.3005
 -85.2899
 -85.2913
 -85.289
 -85.2814
 -85.2899
 -85.1798
 -85.1703
 -85.1907
 -85.1667
 -85.3258
 -85.3352
 -85.3279
 -85.3351
 -85.4295
 -85.4315
 -85.4315
 -85.4288
 -85.397
 -85.4022
 -85.4038
 -85.399
 -85.2364
 -85.2337
 -85.2447
 -85.2442
 -85.2799
 -85.2902
 -85.2906
 -85.2797
 -85.4408
 -85.4418
 -85.4436
 -85.4431
 -85.4216
 -85.419
 -85.4208
 -85.4192
 -85.3304
 -85.328
 -85.3234
 -85.3276
 -85.2218
 -85.2233
 -85.2229
 -85.2259
 -84.9948
 -85.0546
 -85.0499
 -85.0099
 -85.3924
 -85.3884
 -85.386
 -85.3908
 -85.1831
 -85.1645
 -85.1822
 -85.1384
 -85.4324
 -85.4286
 -85.4284
 -85.4319
 -85.3775
 -85.3839
 -85.3801
 -85.3756
 -85.4298
 -85.429
 -85.4277
 -85.4283
 -85.4022
 -85.3979
 -85.3976
 -85.4001
 -85.3309
 -85.3282
 -85.3302
 -85.3351
 -85.26
 -85.2469
 -85.2501
 -85.2554
 -85.0381
 -85.084
 -85.0362
 -85.0524
 -85.1378
 -85.1033
 -85.1396
 -85.1257
 -85.2448
 -85.2284
 -85.2249
 -85.2279
 -85.3449
 -85.3469
 -85.3452
 -85.3365
 -85.3478
 -85.3476
 -85.3505
 -85.3432
 -85.3542
 -85.3486
 -85.3586
 -85.3527
 -85.3954
 -85.3926
 -85.3965
 -85.3959
 -84.7737
 -84.7138
 -84.6981
 -84.6927
 -85.3694
 -85.3703
 -85.368
 -85.3726
 -85.2342
 -85.2209
 -85.2261
 -85.2298
 -85.3194
 -85.3281
 -85.3224
 -85.3277
 -85.4483
 -85.444
 -85.4479
 -85.4471
 -85.3388
 -85.3353
 -85.3354
 -85.3327
 -85.2044
 -85.1992
 -85.2024
 -85.1874
 -85.3136
 -85.3139
 -85.3183
 -85.3224
 -85.2641
 -85.2695
 -85.2683
 -85.2622
 -85.3308
 -85.3234
 -85.3332
 -85.3282
 -84.8216
 -84.7768
 -84.7931
 -84.8157
 -85.3246
 -85.3247
 -85.3316
 -85.3319
 -85.3965
 -85.3951
 -85.398
 -85.3959
 -85.3806
 -85.3812
 -85.3835
 -85.3812
 -85.4403
 -85.4349
 -85.4396
 -85.437
 -85.282
 -85.28
 -85.2867
 -85.2819
 -85.251
 -85.259
 -85.252
 -85.2691
 -85.4373
 -85.4332
 -85.4377
 -85.437
 -85.264
 -85.2635
 -85.2746
 -85.264
 -85.4296
 -85.4281
 -85.4313
 -85.428
 -85.3615
 -85.3689
 -85.3639
 -85.3667
 -85.3464
 -85.3377
 -85.3462
 -85.3479
 -85.2615
 -85.2692
 -85.2671
 -85.2606
 -85.3367
 -85.3355
 -85.3408
 -85.3339
 -85.4319
 -85.4302
 -85.4322
 -85.4323
 -83.7366
 -83.7391
 -83.7552
 -83.6227
 -85.2196
 -85.2183
 -85.2184
 -85.2201
 -85.2025
 -85.203
 -85.2023
 -85.194
 -85.2913
 -85.2939
 -85.2878
 -85.2984
 -85.3214
 -85.3163
 -85.3208
 -85.3175
 -85.283
 -85.2792
 -85.2753
 -85.2855
 -85.4482
 -85.4467
 -85.4512
 -85.4457
 -85.2555
 -85.2505
 -85.2524
 -85.2614
 -85.3895
 -85.3905
 -85.3924
 -85.3881
 -85.3436
 -85.4197
 -85.4153
 -85.417
 -85.4169
 -85.3805
 -85.3836
 -85.3866
 -85.3849
 -85.1586
 -85.1763
 -85.1819
 -85.169
 -85.2994
 -85.2956
 -85.3008
 -85.3063
 -85.2584
 -85.2473
 -85.2565
 -85.2623
 -85.4265
 -85.4232
 -85.4233
 -85.4236
 -85.3283
 -85.3171
 -85.325
 -85.3216
 -85.4307
 -85.4317
 -85.4274
 -85.4272
 -85.4003
 -85.4031
 -85.3989
 -85.4045
 -85.1755
 -85.1825
 -85.1769
 -85.1898
 -85.2395
 -85.225
 -85.2495
 -85.2416
 -85.3982
 -85.4009
 -85.4009
 -85.3979
 -85.3369
 -85.3281
 -85.3341
 -85.1999
 -85.1894
 -85.1928
 -85.2062
 -85.3903
 -85.3834
 -85.3876
 -85.3833
 -85.2674
 -85.2574
 -85.2558
 -85.2666
 -85.34
 -85.3299
 -85.3346
 -85.34
 -85.438
 -85.438
 -85.434
 -85.4376
 -85.2888
 -85.2854
 -85.2817
 -85.2884
 -85.4207
 -85.417
 -85.4205
 -85.4217
 -85.3518
 -85.3491
 -85.3526
 -85.3462
 -85.4097
 -85.4075
 -85.4044
 -85.4066
 -85.4352
 -85.4354
 -85.4385
 -85.4369
 -85.2928
 -85.2921
 -85.2971
 -85.2969
 -83.5878
 -83.8351
 -83.7362
 -83.8878
 -85.45
 -85.448
 -85.4485
 -85.4475
 -85.387
 -85.3853
 -85.3819
 -85.3842
 -85.2172
 -85.218
 -85.2363
 -85.2215
 -85.3156
 -85.3189
 -85.3221
 -85.3144
 -84.8994
 -84.9128
 -84.9261
 -84.8784
 -85.4319
 -85.4335
 -85.4376
 -85.4339
 -85.23
 -85.2264
 -85.2285
 -85.2289
 -85.3639
 -85.3686
 -85.3614
 -85.3653
 -85.2349
 -85.2125
 -85.2289
 -85.2319
 -85.4549
 -85.4542
 -85.4547
 -85.4512
 -85.4538
 -85.4536
 -85.4516
 -85.4503
 -85.4
 -85.3955
 -85.3945
 -85.4005
 -85.369
 -85.3709
 -85.3688
 -85.3651
 -85.371
 -85.1774
 -85.1839
 -85.1544
 -85.1775
 -85.2261
 -85.2201
 -85.2174
 -85.2324
 -85.391
 -85.3956
 -85.3959
 -85.3954
 -85.2354
 -85.2414
 -85.2415
 -85.2352
 -85.2578
 -85.2561
 -85.2541
 -85.2646
 -85.3972
 -85.3989
 -85.3976
 -85.3938
 -85.2989
 -85.3072
 -85.2987
 -85.3073
 -85.395
 -85.3955
 -85.3965
 -85.3995
 -85.2637
 -85.2611
 -85.2519
 -85.2654
 -85.2943
 -85.3013
 -85.3006
 -85.3018
 -85.3297
 -85.3347
 -85.3264
 -85.3339
 -85.369
 -85.3745
 -85.3705
 -85.3757
 -85.4142
 -85.4123
 -85.4176
 -85.4176
 -85.3592
 -85.3576
 -85.3544
 -85.3549
 -85.3609
 -85.3624
 -85.365
 -85.3631
 -85.1803
 -85.18
 -85.1857
 -85.1896
 -85.3888
 -85.3902
 -85.3913
 -85.3907
 -85.3477
 -85.3493
 -85.3512
 -85.3466
 -85.3578
 -85.3583
 -85.3542
 -85.3578
 -85.3082
 -85.3108
 -85.3015
 -85.3065
 -85.205
 -85.2041
 -85.2103
 -85.1967
 -85.4084
 -85.4086
 -85.4115
 -85.4107
 -85.209
 -85.1985
 -85.2029
 -85.2165
 -85.4503
 -85.4501
 -85.4531
 -85.4516
 -85.4226
 -85.4199
 -85.4248
 -85.4234
 -85.4253
 -85.4254
 -85.4253
 -85.4242
 -85.4222
 -85.4215
 -85.4208
 -85.4244
 -85.4003
 -85.4022
 -85.3979
 -85.4025
 -85.0271
 -85.0039
 -84.9543
 -85.3599
 -85.3527
 -85.3592
 -85.3568
 -85.4181
 -85.4169
 -85.4156
 -85.4184
 -85.3045
 -85.2962
 -85.3011
 -85.3035
 -85.2737
 -85.2743
 -85.271
 -85.2764
 -85.4036
 -85.4042
 -85.408
 -85.4001
 -85.3268
 -85.3245
 -85.3292
 -85.3325
 -85.2816
 -85.2821
 -85.2809
 -85.2779
 -85.4465
 -85.4497
 -85.3826
 -85.3812
 -85.3772
 -85.3768
 -85.3319
 -85.332
 -85.3272
 -85.3695
 -85.3705
 -85.3688
 -85.3654
 -85.0433
 -85.044
 -85.0758
 -85.073
 -85.421
 -85.424
 -85.4236
 -85.4203
 -85.3688
 -85.3674
 -85.3647
 -85.3649
 -85.3027
 -85.2951
 -85.2984
 -85.3043
 -85.3536
 -85.3469
 -85.3493
 -85.3515
 -85.2318
 -85.2298
 -85.2302
 -85.23
 -85.1853
 -85.2043
 -85.191
 -85.1948
 -85.3222
 -85.328
 -85.3291
 -85.3255
 -85.2025
 -85.1974
 -85.203
 -85.2146
 -85.33
 -85.3265
 -85.3278
 -85.3251
 -85.4253
 -85.4249
 -85.421
 -85.4203
 -85.24
 -85.2443
 -85.2472
 -85.2437
 -84.5917
 -84.6684
 -84.5521
 -84.6184
 -85.3749
 -85.3661
 -85.3725
 -85.3726
 -85.3151
 -85.32
 -85.3141
 -85.3203
 -85.2294
 -85.2271
 -85.2349
 -85.2325
 -85.3358
 -85.331
 -85.3372
 -85.338
 -85.4416
 -85.4404
 -85.4424
 -85.4417
 -85.2659
 -85.2659
 -85.262
 -85.2669
 -85.3802
 -85.3759
 -85.3757
 -85.3752
 -85.313
 -85.3187
 -85.3133
 -85.3242
 -85.3993
 -85.4015
 -85.4007
 -85.4044
 -85.4266
 -85.4257
 -85.4278
 -85.4248
 -85.2229
 -85.2314
 -85.2256
 -85.2414
 -85.287
 -85.2922
 -85.2909
 -85.2898
 -85.3669
 -85.3663
 -85.36
 -85.3635
 -85.2247
 -85.2267
 -85.2264
 -85.2293
 -83.8316
 -83.7417
 -83.7526
 -83.8267
 -85.3511
 -85.3453
 -85.3466
 -85.3438
 -83.4977
 -83.4742
 -83.4715
 -83.6133
 -83.7859
 -83.9676
 -83.9083
 -83.8092
 -85.0522
 -85.075
 -85.064
 -85.042
 -85.3876
 -85.3844
 -85.3816
 -85.3794
 -85.3865
 -85.389
 -85.3899
 -85.3924
 -85.3927
 -85.3902
 -85.3925
 -85.3878
 -85.3777
 -85.3726
 -85.3739
 -85.3786
 -84.9141
 -84.8826
 -84.9131
 -84.9146
 -85.2446
 -85.2412
 -85.2498
 -85.2459
 -85.2056
 -85.1966
 -85.2042
 -85.192
 -85.2999
 -85.3079
 -85.3004
 -85.3086
 -85.3578
 -85.3545
 -85.3583
 -85.3551
 -85.4004
 -85.3989
 -85.3972
 -85.4002
 -85.2437
 -85.257
 -85.263
 -85.2484
 -85.3882
 -85.3415
 -85.3463
 -85.3465
 -85.3437
 -85.4527
 -85.4536
 -85.4563
 -85.4546
 -85.3257
 -85.328
 -85.3311
 -85.3269
 -85.4337
 -85.4376
 -85.4345
 -85.2411
 -85.2445
 -85.2484
 -85.2397
 -84.2589
 -84.3584
 -84.2978
 -84.3461
 -85.3371
 -85.3374
 -85.3459
 -85.3336
 -85.3069
 -85.2952
 -85.297
 -85.2966
 -85.2164
 -85.2219
 -85.2293
 -85.2339
 -85.2281
 -85.2318
 -85.2242
 -85.2335
 -85.0247
 -85.0034
 -85.0209
 -85.022
 -85.3689
 -85.3673
 -85.3699
 -85.3773
 -85.3403
 -85.3474
 -85.3384
 -85.344
 -85.2858
 -85.2758
 -85.2857
 -85.281
 -85.3229
 -85.3198
 -85.3309
 -85.4031
 -85.4012
 -85.4006
 -85.2465
 -85.2489
 -85.233
 -85.2302
 -85.1417
 -85.1377
 -85.1376
 -85.1408
 -85.2642
 -85.2712
 -85.2692
 -85.2625
 -85.106
 -85.0794
 -85.1124
 -85.0715
 -85.4129
 -85.4174
 -85.4141
 -85.4154
 -85.3989
 -85.4011
 -85.4022
 -85.4049
 -85.2294
 -85.2267
 -85.2281
 -85.2267
 -84.912
 -84.8553
 -84.9116
 -84.9215
 -85.3529
 -85.3449
 -85.3521
 -85.3492
 -85.4446
 -85.4411
 -85.4452
 -85.4417
 -85.1038
 -85.1003
 -85.0893
 -85.1017
 -85.3848
 -85.3808
 -85.3797
 -85.3859
 -84.601
 -84.541
 -84.5834
 -84.5434
 -85.3993
 -85.4011
 -85.3987
 -85.4044
 -85.3046
 -85.2975
 -85.3082
 -85.2956
 -85.4134
 -85.4138
 -85.4167
 -85.4169
 -85.2382
 -85.2407
 -85.2415
 -85.2484
 -85.2907
 -85.2841
 -85.2847
 -85.2848
 -85.2305
 -85.227
 -85.2415
 -85.2383
 -85.2687
 -85.266
 -85.2769
 -85.2587
 -85.3524
 -85.3564
 -85.3557
 -85.3504
 -85.3218
 -85.3165
 -85.3235
 -85.3233
 -85.4172
 -85.4141
 -85.4111
 -85.4115
 -85.4495
 -85.4515
 -85.447
 -85.4473
 -85.3097
 -85.3089
 -85.3036
 -85.3081
 -85.4242
 -85.4226
 -85.4219
 -85.4263
 -85.3942
 -85.3994
 -85.4023
 -85.3981
 -84.8182
 -84.8023
 -84.7445
 -84.826
 -85.1849
 -85.2091
 -85.2031
 -85.1966
 -85.304
 -85.2995
 -85.2976
 -85.2991
 -85.0208
 -85.0019
 -84.9979
 -84.9711
 -85.357
 -85.3627
 -85.3621
 -85.3604
 -85.4106
 -85.4177
 -85.4139
 -85.4141
 -85.0362
 -85.0811
 -85.037
 -85.0347
 -85.3256
 -85.3311
 -85.3275
 -85.3284
 -85.2756
 -85.2756
 -85.2758
 -85.2716
 -83.8068
 -83.9238
 -83.8745
 -83.7729
 -85.3002
 -85.2993
 -85.2974
 -85.3054
 -85.3441
 -85.3482
 -85.3478
 -85.3485
 -85.3981
 -85.4026
 -85.3997
 -85.4037
 -85.2716
 -85.2742
 -85.2772
 -85.3426
 -85.3413
 -85.3391
 -85.3422
 -85.2831
 -85.2853
 -85.2938
 -85.2871
 -85.3872
 -85.383
 -85.386
 -85.3856
 -85.3851
 -85.39
 -85.3899
 -85.3879
 -85.4291
 -85.426
 -85.428
 -85.4245
 -85.2422
 -85.2468
 -85.2517
 -85.2442
 -85.4419
 -85.4432
 -85.4447
 -85.4425
 -85.2611
 -85.2683
 -85.2628
 -85.2593
 -85.3396
 -85.3465
 -85.3459
 -85.35
 -85.3518
 -85.3464
 -85.347
 -85.3448
 -83.6504
 -83.5138
 -83.619
 -83.6336
 -85.275
 -85.2686
 -85.2752
 -85.2762
 -85.3324
 -85.3325
 -85.3375
 -85.3444
 -85.329
 -85.3315
 -85.3311
 -85.3247
 -85.4508
 -85.4507
 -85.448
 -85.4506
 -85.2606
 -85.2684
 -85.2728
 -85.2632
 -85.2751
 -85.2701
 -85.2774
 -85.2682
 -85.398
 -85.4015
 -85.3981
 -85.401
 -85.223
 -85.2205
 -85.2131
 -85.2116
 -85.2231
 -85.2199
 -85.2272
 -85.2199
 -85.3811
 -85.3747
 -85.3806
 -85.3777
 -85.3885
 -85.3878
 -85.3842
 -85.3879
 -85.3541
 -85.3541
 -85.3609
 -85.3595
 -85.2673
 -85.2634
 -85.3729
 -85.3691
 -85.3758
 -85.3703
 -85.2746
 -85.2787
 -85.2755
 -85.2763
 -85.3166
 -85.3236
 -85.3256
 -85.3221
 -85.4341
 -85.4323
 -85.4307
 -85.435
 -85.3151
 -85.3171
 -85.3206
 -85.3217
 -85.4056
 -85.4085
 -85.4105
 -85.4042
 -85.2313
 -85.2537
 -85.2458
 -85.2527
 -85.3052
 -85.2995
 -85.297
 -85.3016
 -85.3324
 -85.3417
 -85.3363
 -85.34
 -85.2493
 -85.2421
 -85.2389
 -85.2437
 -84.5969
 -84.5743
 -84.5669
 -84.5074
 -85.4453
 -85.4448
 -85.4442
 -85.4452
 -85.097
 -85.0876
 -85.1019
 -85.0872
 -85.3604
 -85.3629
 -85.3572
 -85.3577
 -84.5573
 -84.5442
 -84.6382
 -84.568
 -85.3711
 -85.3753
 -85.3715
 -85.3711
 -85.2638
 -85.2621
 -85.2599
 -85.2589
 -85.2652
 -85.2668
 -85.2593
 -85.2635
 -85.3476
 -85.3504
 -85.3423
 -85.3483
 -85.418
 -85.4134
 -85.4167
 -85.4128
 -85.299
 -85.3083
 -85.306
 -85.308
 -85.2283
 -85.2256
 -85.2285
 -85.2315
 -85.4155
 -85.4208
 -85.4179
 -85.4218
 -85.2387
 -85.2191
 -85.2404
 -85.2399
 -85.2955
 -85.3036
 -85.302
 -85.3061
 -85.3952
 -85.4026
 -85.4012
 -85.3983
 -85.346
 -85.3518
 -85.3523
 -85.3523
 -85.3217
 -85.3163
 -85.3219
 -85.3246
 -85.4332
 -85.4359
 -85.4371
 -85.438
 -85.4224
 -85.4235
 -85.4236
 -85.4217
 -85.363
 -85.3631
 -85.3567
 -85.3602
 -85.3234
 -85.3276
 -85.322
 -85.3345
 -85.2763
 -85.2795
 -85.2814
 -85.2931
 -85.2043
 -85.2022
 -85.1954
 -85.4036
 -85.4066
 -85.4047
 -85.4089
 -84.4454
 -84.3883
 -84.3424
 -84.3159
 -85.3847
 -85.3785
 -85.3818
 -85.3813
 -85.253
 -85.243
 -85.248
 -85.2486
 -85.2371
 -85.2318
 -85.2335
 -85.2334
 -85.4222
 -85.4182
 -85.4204
 -85.4257
 -85.3519
 -85.3478
 -85.3538
 -85.3496
 -85.3231
 -85.321
 -85.2735
 -85.3124
 -85.3197
 -85.3115
 -85.316
 -84.6251
 -84.6651
 -85.3792
 -85.3815
 -85.384
 -85.1359
 -85.1501
 -85.1215
 -85.1402
 -85.38
 -85.3745
 -85.376
 -85.3762
 -85.293
 -85.3012
 -85.2993
 -85.2994
 -85.2694
 -85.2803
 -85.2735
 -85.2734
 -85.434
 -85.4341
 -85.4385
 -85.4356
 -85.1616
 -85.1752
 -85.1596
 -85.1755
 -85.3771
 -85.378
 -85.3782
 -85.3813
 -85.439
 -85.4401
 -85.436
 -85.4364
 -85.3457
 -85.3401
 -85.3466
 -85.3422
 -85.3759
 -85.3696
 -85.3727
 -85.3718
 -85.3344
 -85.3405
 -85.3366
 -85.3273
 -85.4544
 -85.4499
 -85.4531
 -85.449
 -85.451
 -85.4509
 -85.4494
 -85.4478
 -85.4485
 -85.4474
 -85.4471
 -85.4487
 -85.317
 -85.3103
 -85.3162
 -85.3158
 -85.3622
 -85.3569
 -85.3585
 -85.362
 -85.3192
 -85.3182
 -85.3131
 -85.3171
 -85.3098
 -85.3062
 -85.3169
 -85.3073
 -85.3878
 -85.3898
 -85.3906
 -85.3863
 -85.4169
 -85.4219
 -85.4206
 -85.4221
 -85.4146
 -85.4162
 -85.4118
 -85.4174
 -85.3401
 -85.344
 -85.3394
 -85.3427
 -85.3302
 -85.3288
 -85.3282
 -85.3251
 -85.2623
 -85.2568
 -85.2599
 -85.2683
 -85.3985
 -85.4024
 -85.4021
 -85.3974
 -84.993
 -84.9888
 -84.9686
 -85.0327
 -85.4094
 -85.4122
 -85.4085
 -85.4073
 -85.3576
 -85.3653
 -85.3565
 -85.3633
 -85.3518
 -85.356
 -85.3527
 -85.3508
 -85.1492
 -85.1471
 -85.1308
 -85.116
 -83.0473
 -83.1537
 -83.0587
 -83.068
 -85.2867
 -85.2938
 -85.2866
 -85.2889
 -85.4088
 -85.4033
 -85.4052
 -85.4085
 -85.2372
 -85.2307
 -85.2352
 -85.2409
 -85.3597
 -85.3621
 -85.3567
 -85.3637
 -85.3686
 -85.373
 -85.3775
 -85.3754
 -85.3971
 -85.3993
 -85.3934
 -85.3956
 -84.9559
 -84.9138
 -84.927
 -84.941
 -85.0204
 -85.0166
 -85.0052
 -85.0048
 -85.4072
 -85.4134
 -85.4105
 -85.4109
 -85.3895
 -85.3828
 -85.3834
 -85.3876
 -85.2869
 -85.2876
 -85.2837
 -85.2846
 -85.3363
 -85.3333
 -85.3386
 -85.3421
 -85.3575
 -85.3597
 -85.3576
 -85.357
 -85.2752
 -85.2723
 -85.2821
 -85.2726
 -85.3779
 -85.3753
 -85.3751
 -85.3718
 -85.4635
 -85.4611
 -85.4628
 -85.4631
 -85.3652
 -85.3701
 -85.3702
 -85.374
 -85.3373
 -85.3406
 -85.3356
 -85.344
 -85.3368
 -85.3357
 -85.3302
 -85.3375
 -85.3576
 -85.3603
 -85.3576
 -85.3529
 -85.4435
 -85.4442
 -85.4416
 -85.4436
 -85.4178
 -85.4146
 -85.417
 -85.3748
 -85.3743
 -85.3781
 -85.3742
 -85.2293
 -85.2286
 -85.2343
 -85.2276
 -85.3055
 -85.3067
 -85.3008
 -85.3081
 -85.4146
 -85.4093
 -85.4093
 -85.4093
 -85.2631
 -85.265
 -85.2673
 -85.2708
 -85.2951
 -85.2879
 -85.2872
 -85.2963
 -85.303
 -85.3006
 -85.2901
 -85.2974
 -85.3855
 -85.3825
 -85.3815
 -85.3808
 -85.3578
 -85.3525
 -85.3589
 -85.3483
 -85.3749
 -85.3653
 -85.3688
 -85.37
 -85.2436
 -85.2445
 -85.2476
 -85.2432
 -85.3078
 -85.3131
 -85.3148
 -85.3086
 -85.3815
 -85.3778
 -85.3821
 -85.3849
 -85.2861
 -85.2901
 -85.294
 -85.2828
 -85.3645
 -85.3684
 -85.3692
 -85.3655
 -85.2395
 -85.2374
 -85.2414
 -85.2363
 -85.4397
 -85.4406
 -85.4371
 -85.4397
 -85.2551
 -85.247
 -85.2567
 -85.2607
 -85.2346
 -85.2168
 -85.2278
 -85.2276
 -85.3926
 -85.3923
 -85.3955
 -85.3969
 -85.2618
 -85.2642
 -85.2659
 -85.2643
 -85.3717
 -85.3705
 -85.3723
 -85.3673
 -85.1265
 -85.134
 -85.1066
 -85.1156
 -85.3516
 -85.3495
 -85.3512
 -85.3556
 -85.4294
 -85.4344
 -85.4298
 -85.4329
 -85.3535
 -85.3462
 -85.3456
 -85.3513
 -85.3977
 -85.3999
 -85.3976
 -85.3977
 -85.3686
 -85.366
 -85.367
 -85.371
 -85.3641
 -85.3667
 -85.3672
 -85.3718
 -85.4438
 -85.4437
 -85.445
 -85.44
 -85.237
 -85.2336
 -85.2293
 -85.2271
 -85.2392
 -85.2356
 -85.2273
 -85.2349
 -85.4217
 -85.4212
 -85.4192
 -85.4243
 -85.4325
 -85.4344
 -85.4319
 -85.276
 -85.2742
 -85.2733
 -85.2778
 -85.3785
 -85.3832
 -85.3777
 -85.3774
 -85.3574
 -85.3598
 -85.3534
 -85.3605
 -85.2068
 -85.2149
 -85.1937
 -85.2024
 -85.3986
 -85.4016
 -85.4004
 -85.4002
 -85.3326
 -85.3247
 -85.3264
 -85.3318
 -85.3501
 -85.3443
 -85.3445
 -85.344
 -85.4025
 -85.406
 -85.4057
 -85.4048
 -85.2139
 -85.2116
 -85.2153
 -85.2189
 -85.2689
 -85.2572
 -85.2632
 -85.2586
 -85.4473
 -85.4441
 -85.4471
 -85.4457
 -85.2456
 -85.2447
 -85.2466
 -85.2565
 -85.2257
 -85.2231
 -85.2242
 -85.2248
 -85.3367
 -85.3382
 -85.3354
 -85.3434
 -84.6971
 -84.721
 -84.664
 -84.7645
 -85.3475
 -85.3484
 -85.3451
 -85.3483
 -85.407
 -85.4057
 -85.4044
 -85.4035
 -85.4192
 -85.4164
 -85.4179
 -85.1685
 -85.168
 -85.1815
 -85.1732
 -85.2587
 -85.2667
 -85.2555
 -85.2634
 -85.2147
 -85.2112
 -85.1942
 -85.2014
 -85.271
 -85.2636
 -85.2689
 -85.2681
 -85.45
 -85.4516
 -85.4528
 -85.4519
 -85.1807
 -85.1816
 -85.1765
 -85.1661
 -85.2424
 -85.2359
 -85.2433
 -85.2564
 -85.418
 -85.4211
 -85.4183
 -85.4171
 -85.2975
 -85.2967
 -85.3017
 -85.2458
 -85.2399
 -85.2516
 -85.3531
 -85.3521
 -85.3463
 -84.7639
 -84.8417
 -84.8513
 -84.7891
 -85.3509
 -85.3552
 -85.3534
 -85.3568
 -85.3459
 -85.3501
 -85.3417
 -85.342
 -85.422
 -85.4246
 -85.421
 -85.4206
 -85.4336
 -85.433
 -85.4382
 -85.433
 -85.1959
 -85.1738
 -85.1733
 -85.2052
 -85.3599
 -85.365
 -85.3661
 -85.3625
 -85.3556
 -85.3603
 -85.3622
 -85.3611
 -85.3228
 -85.3322
 -85.3276
 -85.3334
 -85.2847
 -85.2869
 -85.2901
 -85.2767
 -85.3607
 -85.3543
 -85.3598
 -85.3605
 -85.2441
 -85.2467
 -85.2436
 -85.249
 -85.4307
 -85.4292
 -85.4308
 -85.4315
 -85.2763
 -85.2728
 -85.2764
 -85.284
 -85.4183
 -85.4147
 -85.4172
 -85.416
 -85.4379
 -85.4364
 -85.4332
 -85.4366
 -85.4386
 -85.4378
 -85.4371
 -85.4363
 -85.2575
 -85.2525
 -85.3944
 -85.393
 -85.3906
 -85.393
 -85.2259
 -85.2409
 -85.2348
 -85.2295
 -85.4037
 -85.4101
 -85.4084
 -85.4096
 -85.4167
 -85.4147
 -85.4189
 -85.4149
 -85.2619
 -85.2733
 -85.2718
 -85.2688
 -85.3603
 -85.3604
 -85.3645
 -85.3634
 -85.2722
 -85.2719
 -85.2791
 -85.2725
 -85.31
 -85.3083
 -85.3108
 -85.3168
 -83.9863
 -84.148
 -83.9194
 -84.0529
 -85.4268
 -85.4247
 -85.4301
 -85.4265
 -85.2721
 -85.2678
 -85.276
 -85.2852
 -85.1647
 -85.1538
 -85.1541
 -85.1676
 -85.3219
 -85.3176
 -85.3252
 -85.3248
 -85.1268
 -85.0982
 -85.0815
 -85.1323
 -85.3205
 -85.3144
 -85.3094
 -85.3183
 -85.3914
 -85.3901
 -85.3947
 -85.3879
 -85.3285
 -85.3241
 -85.3242
 -85.3266
 -85.4231
 -85.4283
 -85.4235
 -85.3212
 -85.3276
 -85.3229
 -85.3282
 -84.0387
 -83.9498
 -83.9671
 -83.9333
 -85.4521
 -85.4526
 -85.4537
 -85.4521
 -85.3588
 -85.3568
 -85.3601
 -85.3556
 -85.4064
 -85.4039
 -85.3999
 -85.4048
 -85.2096
 -85.2196
 -85.1908
 -85.2044
 -85.281
 -85.2888
 -85.2767
 -85.2863
 -85.2819
 -85.295
 -85.2852
 -85.2942
 -85.4358
 -85.4337
 -85.437
 -85.4389
 -85.2984
 -85.2933
 -85.288
 -85.291
 -85.4484
 -85.4474
 -85.4491
 -85.4458
 -85.3869
 -85.3815
 -85.3819
 -85.3874
 -85.2422
 -85.2441
 -85.2465
 -85.2411
 -84.6293
 -84.6677
 -84.7265
 -84.6154
 -85.31
 -85.299
 -85.3057
 -85.2956
 -85.3328
 -85.3337
 -85.3386
 -85.3327
 -85.3934
 -85.3943
 -85.3915
 -85.3883
 -84.108
 -83.9254
 -84.1315
 -84.0944
 -85.3147
 -85.3102
 -85.3184
 -85.3153
 -85.4454
 -85.443
 -85.4424
 -85.4429
 -85.4139
 -85.4168
 -85.4155
 -85.4141
 -85.4116
 -85.4125
 -85.4153
 -85.4108
 -85.4062
 -85.4031
 -85.4016
 -85.4036
 -85.4129
 -85.4184
 -85.4157
 -85.4151
 -85.3726
 -85.3738
 -85.3729
 -85.3732
 -85.2434
 -85.2688
 -85.2768
 -85.2769
 -85.2738
 -85.3857
 -85.3812
 -85.3829
 -85.3814
 -85.3848
 -85.3858
 -85.3794
 -85.3808
 -85.142
 -85.1466
 -85.1459
 -85.1423
 -85.4259
 -85.4259
 -85.4244
 -85.4262
 -85.4043
 -85.4075
 -85.4122
 -85.4094
 -85.2462
 -85.2558
 -85.2551
 -85.243
 -85.2439
 -85.2406
 -85.2684
 -85.2735
 -85.2706
 -85.2777
 -85.2335
 -85.2197
 -85.2012
 -85.2124
 -85.3832
 -85.388
 -85.3864
 -85.3835
 -85.4486
 -85.4488
 -85.448
 -85.4492
 -85.3393
 -85.3354
 -85.3389
 -85.3328
 -85.4347
 -85.4293
 -85.4268
 -85.4269
 -85.3176
 -85.3173
 -85.3132
 -85.3195
 -85.3809
 -85.3776
 -85.3745
 -85.3749
 -85.1935
 -85.1883
 -85.1894
 -85.1667
 -85.3623
 -85.367
 -85.3597
 -85.3633
 -85.37
 -85.3763
 -85.3786
 -85.3715
 -85.2555
 -85.2524
 -85.2461
 -85.2497
 -85.2961
 -85.2915
 -85.3045
 -85.2977
 -85.3185
 -85.318
 -85.3116
 -85.3079
 -85.3606
 -85.3642
 -85.362
 -85.3634
 -85.027
 -85.0489
 -85.0579
 -85.0794
 -85.3711
 -85.366
 -85.3698
 -85.3725
 -85.2972
 -85.2884
 -85.2982
 -85.3044
 -85.3927
 -85.3912
 -85.3926
 -85.389
 -85.4202
 -85.4169
 -85.4198
 -85.4177
 -85.4404
 -85.4388
 -85.4379
 -85.4392
 -85.4329
 -85.435
 -85.4296
 -85.4511
 -85.4516
 -85.4532
 -85.4538
 -85.4108
 -85.4072
 -85.4028
 -85.4074
 -85.3304
 -85.3289
 -85.3337
 -85.3328
 -85.4356
 -85.433
 -85.4307
 -85.435
 -85.3506
 -85.3518
 -85.3484
 -85.3473
 -85.3612
 -85.3641
 -85.3622
 -85.4363
 -85.4385
 -85.4371
 -85.4365
 -85.4286
 -85.4258
 -85.4269
 -85.3528
 -85.3496
 -85.3553
 -85.3572
 -85.293
 -85.2984
 -85.2928
 -85.304
 -85.3885
 -85.3854
 -85.3842
 -85.3834
 -85.4373
 -85.4395
 -85.4381
 -85.4367
 -85.2424
 -85.2428
 -85.2526
 -85.2399
 -85.3313
 -85.33
 -85.3244
 -85.3243
 -85.3378
 -85.3453
 -85.3355
 -85.3386
 -85.3918
 -85.3872
 -85.3908
 -85.3917
 -85.261
 -85.2542
 -85.2682
 -85.2559
 -85.2161
 -85.2069
 -85.2175
 -85.2085
 -85.342
 -85.3426
 -85.3414
 -85.3474
 -85.4459
 -85.4438
 -85.4436
 -85.4443
 -85.2806
 -85.2718
 -85.2815
 -85.2775
 -85.2266
 -85.2363
 -85.2258
 -85.2349
 -85.3716
 -85.3643
 -85.3715
 -85.371
 -85.266
 -85.2677
 -85.2625
 -85.2419
 -85.2478
 -85.246
 -85.3644
 -85.3623
 -85.369
 -85.3635
 -85.237
 -85.2337
 -85.2263
 -85.2364
 -85.2515
 -85.2423
 -85.2487
 -85.2497
 -85.3719
 -85.3739
 -85.3705
 -85.2121
 -85.2081
 -85.4186
 -85.4189
 -85.4253
 -85.4256
 -85.3875
 -85.394
 -85.3942
 -85.3914
 -85.0501
 -85.0792
 -85.0243
 -85.0842
 -84.789
 -84.7693
 -84.7437
 -84.7864
 -85.2584
 -85.2411
 -85.2529
 -85.2527
 -85.4315
 -85.4313
 -85.4329
 -85.4315
 -85.3796
 -85.3763
 -85.3737
 -85.3763
 -85.2182
 -85.2173
 -85.2167
 -85.2162
 -85.2734
 -85.2752
 -85.2781
 -85.2854
 -85.2774
 -85.2765
 -85.2741
 -85.2603
 -85.2666
 -85.2675
 -85.268
 -85.2671
 -85.2612
 -85.2705
 -85.2716
 -85.2296
 -85.2216
 -85.2291
 -85.2176
 -85.4443
 -85.446
 -85.4449
 -85.4445
 -85.4346
 -85.4377
 -85.4332
 -85.3403
 -85.3363
 -85.3407
 -85.3333
 -85.257
 -85.2433
 -85.2585
 -85.2534
 -85.4529
 -85.4546
 -85.2411
 -85.2367
 -85.2376
 -85.2334
 -85.3516
 -85.3617
 -85.3552
 -85.3587
 -85.3761
 -85.3747
 -85.2342
 -85.2314
 -85.2448
 -85.2344
 -85.4382
 -85.44
 -85.437
 -85.4419
 -85.4486
 -85.4466
 -85.4473
 -85.4511
 -85.3226
 -85.3259
 -85.3222
 -85.092
 -85.1105
 -85.0976
 -85.239
 -85.2518
 -85.238
 -85.2419
 -85.4
 -85.3961
 -85.403
 -85.3962
 -85.2798
 -85.2681
 -85.2724
 -85.2618
 -85.2763
 -85.27
 -85.2799
 -85.2675
 -85.383
 -85.3816
 -85.3848
 -85.3895
 -84.2018
 -84.2035
 -84.1473
 -84.042
 -85.3959
 -85.3973
 -85.4008
 -85.3997
 -85.4
 -85.3994
 -85.4027
 -85.4048
 -85.2196
 -85.2197
 -85.2066
 -85.2164
 -85.4286
 -85.4299
 -85.4305
 -85.4275
 -83.9789
 -83.7847
 -83.8643
 -83.7203
 -85.4398
 -85.4335
 -85.4339
 -85.4328
 -85.4145
 -85.4117
 -85.2669
 -85.2722
 -85.2691
 -85.2766
 -85.209
 -85.1993
 -85.2041
 -85.2126
 -85.4264
 -85.4291
 -85.4283
 -85.4275
 -85.2941
 -85.2974
 -85.297
 -85.2918
 -85.445
 -85.4428
 -85.4444
 -85.2634
 -85.2544
 -85.2487
 -85.1958
 -85.2067
 -85.2097
 -85.4403
 -85.4415
 -85.4404
 -85.4394
 -85.2728
 -85.2689
 -85.2692
 -85.2682
 -85.428
 -85.4285
 -85.2056
 -85.2107
 -85.2022
 -85.2063
 -85.3472
 -85.3522
 -85.3531
 -85.347
 -85.2828
 -85.2763
 -85.3081
 -85.3217
 -85.3192
 -85.311
 -85.2644
 -85.2624
 -85.2636
 -85.2546
 -85.4474
 -85.4512
 -85.4467
 -85.4483
 -85.2298
 -85.2269
 -85.2283
 -85.4154
 -84.0384
 -84.0674
 -84.0667
 -83.9959
 -85.4253
 -85.426
 -85.4281
 -85.4217
 -85.2816
 -85.282
 -85.2935
 -85.2914
 -85.3932
 -85.3914
 -85.3917
 -85.3924
 -85.2628
 -85.2568
 -85.2526
 -85.2616
 -85.3823
 -85.1396
 -85.1366
 -85.136
 -85.1407
 -85.38
 -85.3805
 -85.3787
 -85.3747
 -85.4112
 -85.4134
 -85.4149
 -85.4083
 -85.4118
 -85.4076
 -85.4131
 -85.427
 -85.4301
 -85.4288
 -85.4284
 -85.2141
 -85.2185
 -85.23
 -85.2251
 -85.4215
 -85.4214
 -85.4211
 -85.4245
 -85.1595
 -85.1562
 -85.1627
 -85.1436
 -85.4173
 -85.4195
 -85.4211
 -85.4212
 -85.3373
 -85.3336
 -85.3327
 -85.3304
 -85.3916
 -85.3946
 -85.396
 -85.3971
 -85.3524
 -85.3498
 -85.3476
 -85.3458
 -85.4393
 -85.4345
 -85.3557
 -85.3506
 -85.3508
 -85.355
 -85.1057
 -85.0947
 -85.1232
 -85.0949
 -85.1245
 -85.1146
 -85.151
 -85.1209
 -85.3526
 -85.3578
 -85.358
 -85.3588
 -85.3993
 -85.3996
 -85.3981
 -85.4036
 -85.4053
 -85.402
 -85.4039
 -85.4068
 -85.4356
 -85.4315
 -85.4328
 -85.4304
 -85.4066
 -85.4114
 -85.4089
 -85.4062
 -85.1215
 -85.1318
 -85.1402
 -85.1181
 -85.226
 -85.2265
 -85.2236
 -85.2418
 -85.4537
 -85.452
 -85.4513
 -85.4514
 -85.3638
 -85.3654
 -85.365
 -85.3721
 -85.2344
 -85.2471
 -85.2321
 -85.2484
 -84.3682
 -84.3422
 -84.4754
 -84.3582
 -85.4257
 -85.4276
 -85.4238
 -85.4312
 -85.2601
 -85.2588
 -85.2623
 -85.268
 -85.3084
 -85.3161
 -85.3033
 -85.3107
 -85.1691
 -85.1618
 -85.1669
 -85.174
 -85.3796
 -85.3774
 -85.3796
 -85.3801
 -85.4354
 -85.4356
 -85.4346
 -85.4355
 -85.3691
 -85.363
 -85.3646
 -85.3632
 -85.3232
 -85.3226
 -85.331
 -85.3278
 -85.1156
 -85.1256
 -85.1343
 -85.0979
 -85.4341
 -85.3865
 -85.3899
 -85.3847
 -85.3892
 -85.3045
 -85.301
 -85.2935
 -85.2939
 -85.3971
 -85.4
 -85.3994
 -85.4025
 -85.2301
 -85.23
 -85.2247
 -85.2415
 -85.3798
 -85.3823
 -85.3768
 -85.0787
 -85.1034
 -85.082
 -85.0695
 -85.4157
 -85.4086
 -85.4133
 -85.4109
 -85.2296
 -85.2286
 -85.2337
 -85.2302
 -85.4601
 -85.4592
 -85.4597
 -85.4613
 -85.2672
 -85.2688
 -85.2695
 -85.2687
 -84.7043
 -84.8246
 -84.8241
 -84.7934
 -85.0428
 -85.0413
 -85.0705
 -85.0541
 -85.4536
 -85.4523
 -85.4512
 -85.4505
 -85.4419
 -85.4414
 -85.4435
 -85.4439
 -85.3405
 -85.3462
 -85.3443
 -85.3459
 -85.268
 -85.2674
 -85.2735
 -85.3562
 -85.3564
 -85.3485
 -85.3518
 -85.386
 -85.3837
 -85.389
 -85.3895
 -85.3512
 -85.3619
 -85.3585
 -85.3576
 -85.3451
 -85.3475
 -85.3553
 -85.351
 -85.4503
 -85.4479
 -85.4482
 -85.447
 -85.2444
 -85.2421
 -85.2517
 -85.2445
 -85.0348
 -84.9639
 -84.9823
 -85.3979
 -85.3943
 -85.3966
 -85.395
 -85.4252
 -85.4286
 -85.426
 -85.425
 -85.2484
 -85.2436
 -85.2509
 -85.2442
 -85.2455
 -85.2488
 -85.2385
 -85.4302
 -85.4282
 -85.4314
 -85.4261
 -85.3299
 -85.3292
 -85.3339
 -85.329
 -85.2437
 -85.2324
 -85.2415
 -85.2431
 -85.3085
 -85.3046
 -85.3054
 -85.31
 -85.4168
 -85.4162
 -85.4131
 -85.4163
 -85.234
 -85.2507
 -85.2256
 -85.2475
 -85.3148
 -85.3044
 -85.3089
 -85.3104
 -85.2805
 -85.286
 -85.2808
 -85.4418
 -85.4412
 -85.4389
 -85.4398
 -85.3276
 -85.3303
 -85.3244
 -85.3314
 -85.4537
 -85.453
 -85.4569
 -85.352
 -85.3544
 -85.354
 -85.3518
 -85.103
 -85.1198
 -85.0874
 -85.0964
 -85.3706
 -85.3719
 -85.3753
 -85.3792
 -85.3419
 -85.3491
 -85.3397
 -85.2505
 -85.2557
 -85.2625
 -85.2515
 -85.226
 -85.2281
 -85.2241
 -85.2294
 -85.2529
 -85.257
 -85.263
 -85.2491
 -84.652
 -84.6477
 -84.7407
 -84.7461
 -85.2922
 -85.2894
 -85.2855
 -85.2859
 -85.281
 -85.2777
 -85.2898
 -85.2756
 -85.4314
 -85.4271
 -85.4279
 -85.4333
 -85.1864
 -85.2041
 -85.1982
 -85.1947
 -85.3836
 -85.3812
 -85.3848
 -85.386
 -85.4437
 -85.4442
 -85.4423
 -85.4408
 -85.4449
 -85.441
 -85.443
 -85.4444
 -85.4124
 -85.4153
 -85.4123
 -85.4145
 -85.4468
 -85.4502
 -85.4499
 -85.4444
 -85.4339
 -85.4347
 -85.4343
 -85.454
 -85.4493
 -85.4509
 -85.4508
 -85.176
 -85.1678
 -85.1734
 -85.1639
 -85.305
 -85.2998
 -85.2949
 -85.3006
 -85.2764
 -85.2869
 -85.2807
 -85.2884
 -85.2976
 -85.2937
 -85.2926
 -85.2908
 -85.4382
 -85.4352
 -85.4371
 -85.4381
 -85.3089
 -85.3095
 -85.3035
 -85.2989
 -85.2558
 -85.2436
 -85.2452
 -85.2534
 -85.3883
 -85.3869
 -85.392
 -85.3858
 -85.2535
 -85.2663
 -85.2539
 -85.2569
 -85.4002
 -85.3969
 -85.3966
 -85.3543
 -85.3601
 -85.3596
 -85.4279
 -85.4243
 -85.4256
 -85.4261
 -85.3088
 -85.3115
 -85.3065
 -85.3065
 -85.3791
 -85.375
 -85.376
 -85.3795
 -85.2951
 -85.2853
 -85.2905
 -85.2965
 -85.4545
 -85.4531
 -85.4449
 -85.4435
 -85.4422
 -85.4456
 -85.1484
 -85.1457
 -85.1461
 -85.1391
 -85.3811
 -85.3851
 -85.3857
 -85.3886
 -85.245
 -85.2613
 -85.2524
 -85.2407
 -83.457
 -83.1079
 -83.4211
 -83.3215
 -85.269
 -85.2663
 -85.2614
 -85.2655
 -85.3983
 -85.3943
 -85.3977
 -85.2001
 -85.1976
 -85.2111
 -85.2106
 -85.4421
 -85.4391
 -85.4431
 -85.4403
 -85.2734
 -85.2762
 -85.2732
 -85.276
 -85.379
 -85.3831
 -85.3805
 -85.3795
 -85.0926
 -85.1113
 -85.0819
 -85.1007
 -84.4355
 -84.3803
 -84.4814
 -84.4932
 -85.2529
 -85.259
 -85.252
 -85.2506
 -85.299
 -85.2963
 -85.3016
 -85.3596
 -85.3523
 -85.3612
 -85.3581
 -85.2141
 -85.2142
 -85.1985
 -85.4003
 -85.399
 -85.4013
 -85.404
 -85.4132
 -85.419
 -85.4137
 -85.4186
 -85.3939
 -85.39
 -85.3935
 -85.3938
 -85.4395
 -85.4325
 -85.4354
 -85.436
 -85.4091
 -85.4054
 -85.407
 -85.2744
 -85.2792
 -85.2795
 -85.2826
 -85.4039
 -85.4002
 -85.3874
 -85.3825
 -85.381
 -85.3857
 -85.3981
 -85.3963
 -85.3966
 -85.3994
 -85.2507
 -85.2572
 -85.2542
 -85.2427
 -85.265
 -85.2706
 -85.264
 -85.2695
 -83.6132
 -83.7263
 -83.7442
 -83.6724
 -85.2615
 -85.2666
 -85.2614
 -85.2725
 -85.2682
 -85.2669
 -85.2694
 -85.3376
 -85.3371
 -85.3338
 -85.3325
 -85.2754
 -85.285
 -85.2851
 -85.2794
 -85.1336
 -85.1467
 -85.1329
 -85.1288
 -85.4132
 -85.4087
 -85.4129
 -85.4091
 -85.3391
 -85.3432
 -85.338
 -85.3347
 -85.4391
 -85.4393
 -85.438
 -85.4396
 -85.366
 -85.3609
 -85.3655
 -85.3627
 -85.4355
 -85.4367
 -85.4358
 -84.6202
 -84.6993
 -84.6548
 -84.6781
 -85.3951
 -85.4012
 -85.396
 -85.3966
 -85.3169
 -85.3106
 -85.3178
 -85.3146
 -85.2311
 -85.223
 -85.2909
 -85.2917
 -85.2956
 -85.2935
 -85.3163
 -85.3089
 -85.3117
 -85.4298
 -85.4308
 -85.4283
 -85.4305
 -85.4311
 -85.4291
 -85.4262
 -85.428
 -85.2415
 -85.2366
 -85.2424
 -85.2388
 -85.3327
 -85.3296
 -85.2639
 -85.2735
 -85.2681
 -85.2592
 -85.4048
 -85.4025
 -85.4083
 -85.4082
 -85.0752
 -85.0584
 -85.0715
 -85.0677
 -85.2519
 -85.2562
 -85.2491
 -85.2486
 -85.2662
 -85.2738
 -85.2772
 -85.2737
 -85.3503
 -85.3486
 -85.3506
 -85.357
 -85.4021
 -85.4011
 -85.3987
 -85.3991
 -85.4089
 -85.4045
 -85.4018
 -85.4062
 -84.1985
 -84.1707
 -84.146
 -84.0932
 -85.2053
 -85.2153
 -85.2182
 -85.3596
 -85.351
 -85.356
 -85.3662
 -85.3716
 -85.3664
 -85.3712
 -85.4363
 -85.4381
 -85.4367
 -85.4394
 -85.3279
 -85.2586
 -85.2574
 -85.2459
 -85.2504
 -85.3814
 -85.3783
 -85.3742
 -85.3767
 -85.4117
 -85.4076
 -85.4086
 -85.4127
 -85.4259
 -85.4269
 -85.2445
 -85.2422
 -85.2378
 -85.2363
 -85.3405
 -85.3445
 -85.3422
 -85.3464
 -85.2222
 -85.2203
 -85.2222
 -85.2244
 -85.3674
 -85.2976
 -85.2909
 -85.3044
 -85.308
 -85.285
 -85.2903
 -85.2926
 -85.2889
 -85.438
 -85.4337
 -85.4428
 -85.445
 -85.4453
 -85.4437
 -84.8639
 -84.8506
 -84.8524
 -84.8759
 -85.4073
 -85.4083
 -85.4035
 -85.4102
 -85.3696
 -85.3626
 -85.3643
 -85.3695
 -84.4115
 -84.4392
 -84.4481
 -84.3835
 -85.3382
 -85.3389
 -85.3414
 -85.3352
 -85.3348
 -85.3277
 -85.3243
 -85.3261
 -85.217
 -85.2007
 -85.2149
 -85.2099
 -85.4523
 -85.4541
 -85.4544
 -85.4544
 -85.3263
 -85.3198
 -85.3213
 -85.2659
 -85.2759
 -85.2746
 -85.2669
 -85.4466
 -85.4508
 -85.448
 -85.4487
 -85.2697
 -85.2645
 -85.2554
 -85.2754
 -85.3155
 -85.3202
 -85.4178
 -85.4187
 -85.4214
 -85.4152
 -85.3595
 -85.3594
 -85.3655
 -85.364
 -85.4414
 -85.4392
 -85.4418
 -85.4409
 -85.3247
 -85.3339
 -85.2586
 -85.2625
 -85.2645
 -85.2633
 -85.2748
 -85.2747
 -85.2792
 -85.2824
 -85.4223
 -85.422
 -85.4178
 -85.419
 -85.4121
 -85.4108
 -85.4131
 -85.4137
 -85.4048
 -85.3993
 -85.4046
 -85.4022
 -85.2845
 -85.2939
 -85.2898
 -85.2841
 -84.9172
 -84.8939
 -84.918
 -84.9222
 -85.4461
 -85.4488
 -85.4461
 -85.4473
 -85.2083
 -85.2124
 -85.2142
 -85.2229
 -85.3542
 -85.3568
 -85.36
 -85.3537
 -85.2899
 -85.3042
 -85.2947
 -85.2998
 -85.3528
 -85.3464
 -85.3509
 -85.3779
 -85.3835
 -85.3777
 -85.3832
 -85.3407
 -85.3457
 -85.3419
 -85.3382
 -85.3952
 -85.3966
 -85.4003
 -85.3941
 -85.3948
 -85.3938
 -85.3956
 -85.3889
 -84.3224
 -84.4893
 -84.3359
 -85.0862
 -85.1165
 -85.1167
 -85.1062
 -85.3503
 -85.3459
 -85.3479
 -85.3476
 -85.4197
 -85.4227
 -85.4205
 -85.4236
 -85.2477
 -85.2356
 -85.247
 -85.2702
 -85.2739
 -85.2736
 -85.3722
 -85.3705
 -85.3741
 -85.374
 -85.3508
 -85.3545
 -85.3575
 -85.3578
 -85.4621
 -85.4619
 -85.4609
 -85.4625
 -85.0287
 -85.0263
 -85.0149
 -84.9625
 -85.4025
 -85.4051
 -85.3022
 -85.3116
 -85.3113
 -85.3043
 -85.3916
 -85.3944
 -85.3941
 -85.3952
 -85.3639
 -85.3657
 -85.3693
 -85.366
 -85.3156
 -85.3144
 -85.3209
 -85.3097
 -85.3876
 -85.3915
 -85.3896
 -85.391
 -85.2437
 -85.2463
 -85.2468
 -85.2522
 -85.1951
 -85.19
 -85.1969
 -85.1936
 -85.4138
 -85.4153
 -85.4194
 -85.4236
 -85.3497
 -85.3533
 -85.3574
 -84.7465
 -84.7398
 -84.7656
 -85.4245
 -85.4272
 -85.4277
 -85.4284
 -85.4311
 -85.43
 -85.4281
 -85.4273
 -85.341
 -85.3429
 -85.3455
 -85.3468
 -85.4367
 -85.4386
 -85.4385
 -85.4382
 -85.4405
 -85.4439
 -85.4411
 -85.4446
 -85.3135
 -85.3169
 -85.3219
 -85.3156
 -85.4081
 -85.4101
 -85.4119
 -85.4115
 -85.4606
 -85.4608
 -85.4597
 -85.4616
 -85.4084
 -85.4078
 -85.4058
 -85.4109
 -85.3551
 -85.3492
 -85.3516
 -85.3457
 -85.4214
 -85.422
 -85.4196
 -85.4186
 -85.3952
 -85.3938
 -85.3973
 -85.3722
 -85.3766
 -84.8547
 -84.8861
 -84.8425
 -84.8354
 -85.3689
 -85.3744
 -85.3722
 -85.3725
 -85.0057
 -85.018
 -85.0228
 -85.029
 -84.964
 -84.9455
 -85.0041
 -84.9901
 -85.3587
 -85.3623
 -85.362
 -85.3577
 -85.3036
 -85.3041
 -85.2978
 -85.3054
 -85.3779
 -85.3833
 -85.3816
 -85.3814
 -85.348
 -85.3434
 -85.176
 -85.1702
 -85.1731
 -85.1824
 -85.446
 -85.4475
 -85.4486
 -85.4473
 -85.3053
 -85.3019
 -85.3135
 -85.3078
 -85.4205
 -85.4189
 -85.4163
 -85.4191
 -85.168
 -85.1532
 -85.1658
 -85.156
 -85.432
 -85.436
 -85.4351
 -85.4354
 -85.3695
 -85.364
 -85.3689
 -85.3692
 -85.2471
 -85.2322
 -85.2194
 -85.2309
 -85.4603
 -85.4597
 -85.4597
 -85.4587
 -85.2874
 -85.2944
 -85.2883
 -85.288
 -85.3092
 -85.3007
 -85.3082
 -85.2996
 -85.4489
 -85.4495
 -85.4472
 -85.4504
 -85.3403
 -85.3314
 -85.3353
 -85.3354
 -85.4241
 -85.4265
 -85.4245
 -85.4238
 -85.4195
 -85.4166
 -85.4176
 -85.3192
 -85.3092
 -85.3115
 -85.3137
 -85.4203
 -85.4231
 -85.421
 -85.4222
 -85.2391
 -85.247
 -85.2456
 -85.2394
 -85.4303
 -85.4323
 -85.4322
 -85.431
 -85.4285
 -85.4272
 -85.4289
 -85.4278
 -85.244
 -85.2408
 -85.2548
 -85.2474
 -85.258
 -85.2567
 -85.2638
 -85.2531
 -82.6926
 -82.7427
 -82.6015
 -82.6614
 -85.404
 -85.3994
 -85.3998
 -84.9533
 -84.9937
 -85.0115
 -84.9734
 -85.4435
 -85.4406
 -85.4414
 -85.4415
 -85.2294
 -85.4227
 -85.4185
 -85.4189
 -85.4216
 -85.4232
 -85.4191
 -85.4202
 -84.0576
 -83.9715
 -84.0323
 -84.0665
 -83.7113
 -83.8158
 -83.7366
 -83.6927
 -85.4396
 -85.4364
 -85.4387
 -85.441
 -85.2567
 -85.2535
 -85.2599
 -85.2516
 -85.3933
 -85.3919
 -85.396
 -85.2927
 -85.2863
 -85.2923
 -85.2836
 -85.3202
 -85.3204
 -85.3201
 -85.421
 -85.42
 -85.4248
 -85.3707
 -85.3751
 -85.3748
 -85.3709
 -85.2958
 -85.2866
 -85.2878
 -85.2942
 -85.2536
 -85.2573
 -85.2527
 -85.2562
 -85.3943
 -85.3973
 -85.3977
 -85.1315
 -85.1479
 -85.1111
 -85.1065
 -85.242
 -85.257
 -85.2414
 -85.3111
 -85.3236
 -85.319
 -85.3172
 -85.1884
 -85.2015
 -85.2063
 -85.2008
 -85.2538
 -85.2624
 -85.2645
 -85.2614
 -85.4237
 -85.4206
 -85.4215
 -85.4209
 -85.3297
 -85.3241
 -85.3265
 -85.3315
 -85.2613
 -85.2663
 -85.3531
 -85.3501
 -85.3515
 -85.346
 -85.4339
 -85.4448
 -85.4456
 -85.4452
 -85.4448
 -82.3744
 -82.3417
 -82.338
 -82.384
 -85.4143
 -85.4184
 -85.4153
 -85.4544
 -85.4541
 -85.4526
 -85.4541
 -85.4062
 -85.4011
 -85.4033
 -85.4016
 -85.2476
 -85.2502
 -85.2548
 -85.2483
 -85.324
 -85.3185
 -85.3184
 -85.3134
 -85.4564
 -85.4564
 -85.456
 -85.4553
 -85.4038
 -85.4003
 -85.398
 -85.4013
 -85.109
 -85.0803
 -85.0758
 -85.1171
 -85.3141
 -85.3131
 -85.315
 -85.3027
 -85.3079
 -85.3114
 -85.3141
 -85.3078
 -82.3989
 -82.3792
 -82.3706
 -82.4145
 -85.2383
 -85.2367
 -85.2352
 -85.241
 -85.4053
 -85.4105
 -85.4061
 -85.408
 -85.3729
 -85.3725
 -85.3776
 -85.3712
 -85.3296
 -85.3324
 -85.3387
 -85.3344
 -85.3982
 -85.4029
 -85.401
 -85.4014
 -85.372
 -85.3734
 -85.3772
 -85.3723
 -85.3993
 -85.3985
 -85.3962
 -85.4032
 -85.4604
 -85.4572
 -85.4579
 -85.4609
 -85.4123
 -85.4097
 -85.409
 -85.4033
 -85.3943
 -85.3907
 -85.3891
 -85.3941
 -85.3903
 -85.3541
 -85.3535
 -85.3498
 -85.3595
 -85.4453
 -85.4445
 -85.4437
 -85.4436
 -85.3302
 -85.3251
 -85.3309
 -85.3288
 -85.3706
 -85.3728
 -85.3751
 -85.3672
 -85.3444
 -85.3374
 -85.3426
 -85.3481
 -85.2885
 -85.2746
 -85.2863
 -85.2777
 -84.579
 -84.6111
 -84.7224
 -84.6111
 -85.4623
 -85.4594
 -85.3875
 -85.3845
 -85.3845
 -83.0419
 -83.0659
 -83.0949
 -85.2601
 -85.2523
 -85.257
 -85.2482
 -84.9017
 -84.9348
 -84.8574
 -84.8373
 -85.1848
 -85.1761
 -85.1895
 -85.1606
 -85.4439
 -85.4391
 -85.4417
 -85.4415
 -85.3586
 -85.3529
 -85.3543
 -85.3521
 -85.3909
 -85.3964
 -85.3954
 -85.3996
 -85.3722
 -85.3733
 -85.3678
 -85.3664
 -85.402
 -85.403
 -85.4
 -85.4006
 -85.337
 -85.3359
 -85.4218
 -85.4133
 -85.4219
 -85.4149
 -85.4013
 -85.3984
 -85.3963
 -85.4033
 -85.2606
 -85.2516
 -85.2622
 -85.2538
 -85.2715
 -85.2745
 -85.2742
 -85.2748
 -85.3688
 -85.3688
 -85.3673
 -85.3711
 -85.3575
 -85.3594
 -85.3632
 -85.3667
 -85.2035
 -85.1868
 -85.1846
 -85.2032
 -85.396
 -85.3937
 -85.3923
 -85.3912
 -85.4572
 -85.4558
 -85.4566
 -85.4563
 -85.4268
 -85.4249
 -85.4255
 -85.4242
 -85.4605
 -85.4616
 -85.46
 -85.4618
 -85.4324
 -85.4353
 -85.4343
 -85.4347
 -85.3528
 -85.3595
 -85.3527
 -85.3541
 -85.3954
 -85.3917
 -85.3405
 -85.3475
 -85.3389
 -85.3438
 -85.2664
 -85.2722
 -85.273
 -85.2753
 -85.4119
 -85.4156
 -85.4159
 -85.4122
 -85.3378
 -85.3351
 -85.3382
 -85.3313
 -85.3137
 -85.3083
 -85.3066
 -85.3098
 -85.2459
 -85.2473
 -85.2523
 -85.2563
 -85.2737
 -85.2687
 -85.267
 -85.2803
 -85.2341
 -85.2389
 -85.2456
 -85.2379
 -84.7684
 -84.791
 -84.757
 -84.7533
 -85.4073
 -85.4089
 -85.4042
 -85.4078
 -85.389
 -85.3904
 -84.7748
 -84.85
 -84.8404
 -84.7607
 -85.2904
 -85.2916
 -85.3837
 -85.3807
 -85.3841
 -85.4272
 -85.4272
 -85.2356
 -85.2351
 -85.2317
 -85.2395
 -84.8114
 -84.8589
 -84.8536
 -84.8579
 -85.1939
 -85.1984
 -85.2067
 -85.2108
 -85.2859
 -85.2885
 -85.2915
 -85.2944
 -85.3751
 -85.3691
 -85.3689
 -85.3698
 -85.3882
 -85.3861
 -85.3857
 -85.3845
 -85.2819
 -85.2917
 -85.2912
 -85.2891
 -85.3721
 -85.3714
 -85.3734
 -85.3663
 -85.3468
 -85.3423
 -85.3413
 -85.3443
 -85.3588
 -85.3628
 -85.3658
 -85.3625
 -85.3614
 -85.3554
 -85.3629
 -85.3392
 -85.3354
 -85.3445
 -85.3408
 -85.2956
 -85.2991
 -85.2926
 -85.2912
 -85.2574
 -85.2642
 -85.2537
 -85.2627
 -85.4433
 -85.4426
 -85.4444
 -85.446
 -85.3283
 -85.3278
 -85.3338
 -85.3344
 -85.186
 -85.1825
 -85.1737
 -85.183
 -85.1368
 -85.1273
 -85.1301
 -85.1193
 -85.2245
 -85.2204
 -85.2205
 -85.2228
 -85.2343
 -85.2347
 -85.246
 -85.2466
 -85.2589
 -85.2537
 -85.2511
 -85.2549
 -85.4404
 -85.4421
 -85.4417
 -85.4421
 -85.3156
 -85.3154
 -85.3138
 -85.3205
 -85.4044
 -85.4057
 -85.4031
 -85.4019
 -85.2507
 -85.2617
 -85.2461
 -85.2576
 -85.4461
 -85.4475
 -85.4471
 -85.45
 -85.4505
 -85.4503
 -85.4522
 -85.398
 -85.389
 -85.3922
 -85.3926
 -85.2758
 -85.2785
 -85.2703
 -85.2758
 -85.4566
 -85.4538
 -85.4545
 -85.3085
 -85.3019
 -85.3049
 -85.2948
 -85.4319
 -85.4324
 -85.4264
 -85.4275
 -85.4308
 -85.4267
 -85.2955
 -85.2895
 -85.2925
 -85.0904
 -85.097
 -85.069
 -85.0827
 -85.2388
 -85.2264
 -85.238
 -85.2415
 -85.3486
 -85.3548
 -85.3479
 -85.4466
 -85.4417
 -85.4423
 -85.4001
 -85.3964
 -85.3942
 -85.3967
 -85.4477
 -85.4481
 -85.4438
 -85.4508
 -85.3213
 -85.328
 -85.3313
 -85.3257
 -85.4303
 -85.4314
 -85.4333
 -85.4278
 -85.3501
 -85.3513
 -85.3469
 -85.3455
 -85.2803
 -85.2737
 -85.2778
 -85.4547
 -85.4523
 -85.4535
 -85.4569
 -85.3905
 -85.3729
 -85.3784
 -85.3776
 -85.3745
 -85.3765
 -85.3765
 -85.3728
 -85.2712
 -85.2678
 -85.2673
 -85.2669
 -85.2666
 -85.2758
 -85.3282
 -85.3209
 -85.3193
 -85.3167
 -85.312
 -85.3203
 -85.3133
 -85.3177
 -85.3973
 -85.4573
 -85.4539
 -85.453
 -85.4555
 -84.2376
 -84.1139
 -84.2538
 -84.2583
 -85.2963
 -85.2893
 -85.2777
 -85.2747
 -85.2777
 -85.2795
 -85.2675
 -85.2684
 -85.2584
 -85.2625
 -85.4036
 -85.399
 -85.4002
 -85.4024
 -85.4082
 -85.4108
 -85.4056
 -85.4085
 -85.2688
 -85.2614
 -85.3925
 -85.3918
 -85.3978
 -85.394
 -85.3976
 -85.4015
 -85.3975
 -85.3641
 -85.3611
 -85.3582
 -85.3559
 -85.3282
 -85.3219
 -85.3264
 -85.3223
 -85.4052
 -85.4101
 -85.4095
 -85.4064
 -85.4183
 -85.4201
 -85.4222
 -85.4192
 -85.4101
 -85.4145
 -85.411
 -85.4083
 -85.4098
 -85.4088
 -85.405
 -85.3262
 -85.3284
 -85.3281
 -85.3235
 -85.0456
 -85.0529
 -85.0686
 -85.0677
 -85.3056
 -85.3038
 -85.3005
 -85.3024
 -85.4172
 -85.4138
 -85.4115
 -85.4152
 -85.391
 -85.3902
 -85.3893
 -85.3943
 -85.3034
 -85.3081
 -85.3099
 -85.3117
 -85.3921
 -85.3873
 -85.39
 -85.3917
 -85.3623
 -85.3644
 -85.355
 -85.3633
 -85.3658
 -85.3709
 -85.3692
 -85.3698
 -85.3907
 -85.3925
 -85.3931
 -85.4444
 -85.4448
 -85.4436
 -85.4441
 -85.3026
 -85.3094
 -85.3058
 -85.3081
 -85.3449
 -85.3513
 -85.3499
 -85.3479
 -85.0126
 -84.9813
 -84.9763
 -85.0127
 -85.2399
 -85.248
 -85.2467
 -85.241
 -85.2592
 -85.2404
 -85.2477
 -85.2389
 -85.2456
 -85.2495
 -85.2485
 -85.2516
 -85.3594
 -85.3557
 -85.3575
 -85.2137
 -85.2123
 -85.2164
 -85.2172
 -85.209
 -85.2155
 -85.2267
 -85.2117
 -85.4538
 -85.4518
 -85.4514
 -85.4527
 -85.3639
 -85.3603
 -85.3599
 -85.3575
 -85.4213
 -85.4218
 -85.4203
 -85.4177
 -85.3736
 -85.3759
 -85.3724
 -85.3691
 -85.3894
 -85.3931
 -85.39
 -85.3912
 -85.2623
 -85.2538
 -85.2596
 -85.2468
 -85.3419
 -85.353
 -85.3453
 -85.3455
 -85.4196
 -85.4216
 -85.4182
 -85.4193
 -85.3786
 -85.377
 -85.3825
 -85.3807
 -85.2133
 -85.2111
 -85.2295
 -85.2298
 -85.4434
 -85.4445
 -85.4439
 -85.4447
 -85.3035
 -85.2967
 -85.2188
 -85.3446
 -85.3475
 -85.3502
 -85.3427
 -85.3275
 -85.3319
 -85.3248
 -85.3248
 -84.9341
 -84.9252
 -84.979
 -85.293
 -85.2869
 -85.2846
 -85.2805
 -85.3741
 -85.3823
 -85.3793
 -85.3829
 -85.3474
 -85.3532
 -85.3496
 -85.3481
 -85.4361
 -85.4375
 -85.4377
 -85.4369
 -85.2531
 -85.2648
 -85.2565
 -85.2566
 -85.2559
 -85.2536
 -85.2662
 -84.9288
 -84.8731
 -84.8934
 -84.9398
 -85.2472
 -85.2571
 -85.2515
 -85.3691
 -85.3795
 -85.3705
 -85.2472
 -85.2469
 -85.2401
 -85.2433
 -85.3262
 -85.3328
 -85.3347
 -85.3329
 -82.4253
 -82.4306
 -82.4123
 -82.4933
 -85.3224
 -85.3193
 -85.3212
 -85.1894
 -85.1891
 -85.1903
 -85.1918
 -85.3215
 -85.3176
 -85.3109
 -85.3176
 -85.2436
 -85.2514
 -85.2511
 -85.2538
 -85.3925
 -85.3942
 -85.3913
 -85.3956
 -85.4051
 -85.4022
 -85.4054
 -85.4067
 -85.4505
 -85.4505
 -85.4516
 -85.4492
 -85.3666
 -85.3599
 -85.3659
 -85.3678
 -85.2359
 -85.2292
 -85.2349
 -85.2311
 -85.2604
 -85.2561
 -85.1371
 -85.1345
 -85.1451
 -85.1426
 -85.3364
 -85.339
 -85.2919
 -85.3028
 -85.3008
 -85.2646
 -85.2688
 -85.2729
 -85.267
 -85.4419
 -85.4425
 -85.4382
 -85.4389
 -85.4393
 -85.4382
 -85.4368
 -85.4384
 -85.2647
 -85.2697
 -85.2649
 -85.2545
 -85.2169
 -85.2188
 -85.3754
 -85.376
 -85.3746
 -85.3795
 -85.2592
 -85.253
 -85.2635
 -85.261
 -85.3005
 -85.2903
 -85.3087
 -85.4608
 -85.4615
 -85.4599
 -85.3492
 -85.3561
 -85.3524
 -85.3535
 -85.4284
 -85.4323
 -85.4275
 -85.4262
 -85.3569
 -85.362
 -85.3628
 -85.357
 -85.404
 -85.4077
 -85.4082
 -85.402
 -85.235
 -85.2414
 -85.2363
 -85.2334
 -85.2411
 -85.2536
 -85.237
 -85.2504
 -85.3605
 -85.355
 -85.3639
 -85.3576
 -85.2936
 -85.303
 -85.3058
 -85.2925
 -85.2145
 -85.2186
 -85.2233
 -85.2341
 -85.3262
 -85.3307
 -85.3341
 -85.3372
 -85.3843
 -85.3855
 -85.3823
 -85.3574
 -85.3622
 -85.3591
 -85.3624
 -83.348
 -83.5635
 -83.5813
 -83.4704
 -85.22
 -85.2197
 -85.2209
 -85.2204
 -85.292
 -85.2892
 -85.2919
 -85.2993
 -84.7835
 -84.8161
 -84.7322
 -84.7995
 -85.4276
 -85.4269
 -85.4243
 -85.4528
 -85.4512
 -85.4494
 -85.451
 -85.4101
 -85.4168
 -85.4137
 -85.4139
 -85.3557
 -85.3844
 -85.3893
 -85.3916
 -85.3879
 -85.3435
 -85.3476
 -85.3401
 -85.3411
 -85.155
 -85.128
 -85.1458
 -85.2511
 -85.2554
 -85.2575
 -85.2424
 -83.5405
 -83.3444
 -83.5143
 -83.2386
 -84.9112
 -84.9067
 -84.9374
 -84.8831
 -85.2823
 -85.2825
 -85.2877
 -85.2931
 -85.4558
 -85.4526
 -85.4536
 -85.453
 -83.9203
 -83.8538
 -84.0224
 -83.9205
 -85.3991
 -85.4021
 -85.3962
 -85.3997
 -85.3591
 -85.3596
 -85.3647
 -85.36
 -85.2638
 -85.2462
 -85.2444
 -85.3315
 -85.3244
 -85.3217
 -85.3215
 -85.4534
 -85.4537
 -85.4545
 -85.1665
 -85.1929
 -85.1979
 -85.3284
 -85.333
 -85.3393
 -85.3382
 -85.2898
 -85.2881
 -85.2868
 -85.2836
 -85.298
 -85.2963
 -85.3048
 -85.3072
 -85.1633
 -85.1545
 -85.1514
 -85.1718
 -85.333
 -85.3374
 -85.3306
 -85.3391
 -85.4425
 -85.4373
 -85.4376
 -85.4351
 -85.4361
 -85.435
 -85.4337
 -85.4375
 -85.153
 -85.1495
 -85.16
 -85.1461
 -85.4245
 -85.4254
 -85.4249
 -85.4213
 -85.4393
 -85.443
 -85.4417
 -85.438
 -85.4227
 -85.4228
 -85.4183
 -85.419
 -85.3867
 -85.3849
 -85.3887
 -85.3867
 -85.3477
 -85.3434
 -85.3505
 -85.2834
 -85.2704
 -85.2762
 -85.2762
 -85.4065
 -85.4037
 -85.4002
 -85.4049
 -85.413
 -85.4137
 -85.4161
 -85.4149
 -85.4628
 -85.4625
 -85.4604
 -85.4615
 -84.9583
 -84.9835
 -84.9734
 -84.9788
 -85.1431
 -85.1376
 -85.139
 -85.1458
 -85.1716
 -85.1714
 -85.1941
 -85.1713
 -85.2872
 -85.2767
 -85.2845
 -85.2847
 -85.3082
 -85.3093
 -85.3089
 -85.4414
 -85.4438
 -85.4468
 -85.445
 -85.4174
 -85.4163
 -85.4143
 -85.4133
 -85.3417
 -85.3373
 -85.3357
 -85.3397
 -85.4376
 -85.4401
 -85.3745
 -85.3753
 -85.3752
 -85.3703
 -85.4359
 -85.4374
 -85.4403
 -85.4373
 -85.3648
 -85.371
 -85.3632
 -85.3722
 -85.2783
 -85.2877
 -85.273
 -85.282
 -85.0821
 -85.0529
 -85.0778
 -85.0966
 -83.3363
 -83.4791
 -83.2177
 -83.4272
 -85.4303
 -85.4282
 -85.428
 -85.4309
 -85.436
 -85.4362
 -85.4367
 -85.4388
 -85.3193
 -85.3097
 -85.3171
 -85.3131
 -85.3558
 -85.3529
 -85.3521
 -85.3565
 -85.2521
 -85.2442
 -85.2575
 -85.3757
 -85.3724
 -85.3728
 -85.3696
 -85.2587
 -85.2567
 -85.2614
 -85.2633
 -85.3469
 -85.3406
 -85.3363
 -85.3399
 -85.3894
 -85.3869
 -85.3887
 -85.3897
 -85.3589
 -85.3569
 -85.3554
 -85.4243
 -85.4204
 -85.4221
 -85.422
 -85.3803
 -85.3864
 -84.6364
 -84.6992
 -84.5851
 -84.6397
 -85.4083
 -85.4062
 -85.4081
 -85.262
 -85.2638
 -85.2662
 -85.2594
 -85.3825
 -85.3828
 -85.3808
 -85.341
 -85.3351
 -85.3428
 -85.3373
 -85.3778
 -85.3713
 -85.38
 -85.3758
 -85.3803
 -85.386
 -84.2489
 -84.2512
 -84.1868
 -84.2191
 -83.4168
 -83.284
 -83.1353
 -83.3213
 -85.349
 -85.3418
 -85.3442
 -85.3411
 -85.3771
 -85.3739
 -85.3766
 -85.3726
 -84.2415
 -84.2464
 -84.2265
 -84.3238
 -85.2645
 -85.255
 -85.1466
 -85.1543
 -85.1538
 -85.1646
 -85.3827
 -85.3817
 -85.3879
 -85.3846
 -85.3733
 -85.3738
 -85.3783
 -85.371
 -85.3778
 -85.3728
 -85.3721
 -85.3723
 -85.2924
 -85.2945
 -85.2988
 -85.2922
 -85.219
 -85.2063
 -85.1981
 -85.2195
 -84.9027
 -84.9502
 -84.9386
 -84.8908
 -85.2397
 -85.2408
 -85.2408
 -85.2548
 -85.4073
 -85.4047
 -85.409
 -85.4073
 -85.3492
 -85.3353
 -85.3429
 -84.889
 -84.9122
 -84.9523
 -85.3929
 -85.3992
 -85.3961
 -85.3962
 -85.3962
 -85.3896
 -85.3925
 -85.3948
 -85.319
 -85.3144
 -85.3117
 -85.3324
 -85.3352
 -85.3407
 -85.3344
 -85.2387
 -85.2341
 -85.2328
 -85.2332
 -85.4232
 -85.422
 -85.4247
 -85.4238
 -85.228
 -85.2265
 -85.2267
 -85.229
 -85.1943
 -85.1883
 -85.1951
 -85.4507
 -85.4546
 -85.456
 -85.4535
 -85.4202
 -85.4228
 -85.2784
 -85.2732
 -85.2816
 -85.2811
 -85.345
 -85.3517
 -85.3462
 -85.3317
 -85.3293
 -85.3303
 -85.3232
 -85.2018
 -85.2164
 -85.2075
 -85.4201
 -85.4226
 -85.4176
 -85.4187
 -85.1999
 -85.2201
 -85.2053
 -85.2001
 -85.4006
 -85.397
 -85.3944
 -85.3955
 -85.23
 -85.233
 -85.2267
 -85.2147
 -85.2224
 -85.2193
 -85.2703
 -85.2644
 -85.2674
 -85.2695
 -84.9481
 -84.9205
 -84.8767
 -84.9288
 -85.4092
 -85.413
 -85.3017
 -85.306
 -85.3076
 -85.3068
 -85.451
 -85.45
 -85.4504
 -85.452
 -85.2864
 -85.2782
 -85.2872
 -85.2959
 -85.4154
 -85.4193
 -85.4202
 -85.4199
 -85.4365
 -85.4402
 -85.4348
 -85.4388
 -85.3996
 -85.3946
 -85.444
 -85.4465
 -85.4456
 -85.4446
 -85.2106
 -85.2121
 -85.2022
 -85.219
 -85.4448
 -85.4453
 -85.4455
 -85.4445
 -85.4541
 -85.457
 -85.4558
 -85.4541
 -85.3683
 -85.3683
 -85.3736
 -85.3719
 -85.331
 -85.3274
 -85.3353
 -85.339
 -85.4317
 -85.4275
 -85.4304
 -85.4318
 -84.7299
 -84.7839
 -84.7184
 -84.7306
 -85.4295
 -85.434
 -85.297
 -85.3032
 -85.304
 -85.312
 -85.4301
 -85.4281
 -85.4252
 -85.4254
 -85.2401
 -85.2483
 -85.247
 -85.2458
 -85.3026
 -85.2892
 -85.2945
 -85.301
 -85.2179
 -85.2162
 -85.2336
 -85.2364
 -85.2321
 -85.2368
 -85.23
 -85.2138
 -85.2207
 -85.2173
 -85.2208
 -85.3744
 -85.3703
 -85.3688
 -85.4265
 -85.4266
 -85.4295
 -85.4297
 -85.3626
 -85.3596
 -85.3565
 -85.2396
 -85.2339
 -85.2388
 -85.3434
 -85.3511
 -85.3441
 -85.3497
 -85.3822
 -85.3818
 -85.3818
 -85.3874
 -85.3234
 -85.3302
 -85.3313
 -85.3292
 -85.3232
 -85.3208
 -85.3178
 -85.3059
 -85.3007
 -85.2983
 -85.3058
 -85.3122
 -85.3157
 -85.3031
 -85.4276
 -85.4266
 -85.4279
 -85.4244
 -85.3916
 -85.3886
 -85.3916
 -85.3933
 -85.3372
 -85.3369
 -85.3334
 -85.3433
 -85.1659
 -85.1504
 -85.1707
 -85.3646
 -85.3612
 -85.3638
 -85.3655
 -85.2666
 -85.2538
 -85.262
 -85.2542
 -84.4382
 -84.5008
 -84.4434
 -84.4136
 -85.3126
 -85.3085
 -85.3117
 -85.311
 -85.432
 -85.4308
 -85.4345
 -85.4333
 -85.3034
 -85.3103
 -85.3057
 -85.3015
 -85.2263
 -85.2265
 -85.2283
 -85.2312
 -85.2258
 -85.2191
 -85.2209
 -85.3273
 -85.3286
 -85.3249
 -85.3853
 -85.3013
 -85.2867
 -85.2959
 -85.2951
 -85.4376
 -85.437
 -85.4389
 -85.4325
 -85.4332
 -85.4346
 -85.297
 -85.3042
 -85.2988
 -85.3031
 -85.453
 -85.4545
 -85.4553
 -85.4553
 -85.2458
 -85.3732
 -85.3678
 -85.3712
 -85.37
 -85.2337
 -85.2375
 -85.2363
 -85.2379
 -85.4355
 -85.438
 -85.4338
 -85.4359
 -85.3877
 -85.3942
 -85.3921
 -85.3888
 -85.4123
 -85.415
 -85.4096
 -85.4109
 -85.2144
 -85.2181
 -85.2197
 -85.2149
 -85.2826
 -85.2891
 -85.2819
 -85.2837
 -85.3657
 -85.3619
 -85.3656
 -85.36
 -85.2797
 -85.269
 -85.2823
 -85.2729
 -85.3842
 -85.3865
 -85.3909
 -85.3899
 -85.2466
 -85.2444
 -85.2533
 -85.2518
 -85.2715
 -85.2723
 -85.2808
 -85.2785
 -85.3718
 -85.3725
 -85.3726
 -85.3772
 -85.4358
 -85.4393
 -85.4372
 -85.4397
 -85.1235
 -85.1437
 -85.1456
 -85.1543
 -84.9223
 -84.8553
 -84.9246
 -84.9109
 -85.4393
 -85.4425
 -85.4408
 -85.4408
 -85.0268
 -84.9937
 -84.958
 -84.9269
 -84.9016
 -84.9436
 -85.3474
 -85.3488
 -85.3439
 -85.3419
 -85.2788
 -85.2838
 -85.2834
 -85.2767
 -85.4622
 -85.4623
 -85.4625
 -85.4613
 -85.4355
 -85.435
 -85.4387
 -85.3856
 -85.3851
 -85.3895
 -85.3842
 -85.2371
 -85.239
 -85.2311
 -85.2417
 -85.2734
 -85.2718
 -85.2698
 -85.2682
 -85.2739
 -85.2778
 -85.3876
 -85.3955
 -85.3929
 -85.3895
 -85.3788
 -85.3783
 -85.3738
 -85.3798
 -85.3931
 -85.3921
 -85.3881
 -85.3927
 -85.4523
 -85.4524
 -85.4482
 -85.4538
 -85.4026
 -85.4022
 -85.3982
 -85.3101
 -85.3552
 -85.3528
 -85.354
 -85.35
 -85.3595
 -85.3525
 -85.3548
 -85.3589
 -85.4234
 -85.4224
 -85.4219
 -85.4198
 -85.4038
 -85.4009
 -85.4016
 -85.405
 -85.3778
 -85.3737
 -85.3728
 -85.2899
 -85.2786
 -85.2887
 -85.2773
 -85.3536
 -85.362
 -85.3576
 -85.3572
 -85.309
 -85.3144
 -85.3055
 -83.8034
 -83.7762
 -83.677
 -83.8372
 -85.4251
 -85.4311
 -85.4284
 -85.4239
 -85.4184
 -85.425
 -85.4215
 -84.095
 -85.3624
 -85.3629
 -85.3616
 -85.3676
 -85.3768
 -85.3774
 -85.1244
 -85.124
 -85.1203
 -85.1297
 -85.1676
 -85.1721
 -85.1932
 -85.1666
 -85.2465
 -85.2525
 -85.2438
 -85.2626
 -85.2545
 -85.2592
 -85.2615
 -85.2532
 -85.2525
 -85.2582
 -85.3038
 -85.2946
 -85.2915
 -85.2945
 -85.3144
 -85.3228
 -85.4625
 -85.4622
 -85.211
 -85.2296
 -85.2077
 -85.2203
 -85.3308
 -85.3286
 -85.3346
 -85.326
 -85.0974
 -85.113
 -85.0768
 -85.0764
 -85.4292
 -85.4311
 -85.4264
 -85.4284
 -85.4166
 -85.4133
 -85.4162
 -85.413
 -85.3844
 -85.3883
 -85.3888
 -85.386
 -85.3664
 -85.3679
 -85.3747
 -85.3725
 -85.3481
 -85.3459
 -85.2142
 -85.3996
 -85.4035
 -85.4035
 -85.4038
 -85.4486
 -85.4475
 -85.4515
 -85.447
 -85.4205
 -85.4249
 -85.4194
 -85.4215
 -82.433
 -82.4134
 -82.4491
 -82.5012
 -85.4499
 -85.4506
 -85.4497
 -85.4499
 -85.2604
 -85.2594
 -85.2515
 -85.2635
 -85.2956
 -85.2858
 -85.2898
 -85.2825
 -85.3959
 -85.3963
 -85.3988
 -85.3997
 -85.3981
 -85.3964
 -85.3945
 -85.3957
 -85.2346
 -85.2455
 -85.2391
 -85.2434
 -85.4479
 -85.4487
 -85.4475
 -85.448
 -85.431
 -85.4325
 -85.4318
 -85.4337
 -85.399
 -85.3995
 -85.4026
 -85.403
 -85.432
 -85.4291
 -85.431
 -85.4316
 -85.2687
 -85.2792
 -85.2796
 -85.2813
 -85.2372
 -85.2383
 -85.242
 -85.2426
 -85.426
 -85.424
 -85.4224
 -85.4232
 -85.326
 -85.3223
 -85.3221
 -85.3155
 -85.3303
 -85.3272
 -85.3255
 -85.3296
 -83.6015
 -83.7521
 -83.7222
 -83.7674
 -85.4475
 -85.448
 -85.435
 -85.4352
 -85.433
 -85.4371
 -85.1573
 -85.1472
 -85.1419
 -85.159
 -85.2827
 -85.2703
 -85.2691
 -85.2659
 -85.4318
 -85.4296
 -85.4341
 -85.4341
 -85.3212
 -85.3231
 -85.3196
 -85.3271
 -85.3004
 -85.3028
 -85.2943
 -85.2951
 -85.4512
 -85.452
 -85.4506
 -85.4505
 -85.3618
 -85.3598
 -85.3615
 -85.3638
 -85.3481
 -85.3497
 -85.3487
 -85.3442
 -85.4142
 -85.4152
 -85.4165
 -85.4135
 -85.3876
 -85.3855
 -85.3843
 -85.3813
 -85.319
 -85.3189
 -85.3106
 -85.2839
 -85.2914
 -85.2869
 -85.2999
 -85.0127
 -84.9761
 -84.9944
 -85.0346
 -85.2937
 -85.2982
 -85.2996
 -85.3009
 -85.3566
 -85.3534
 -85.3554
 -85.3519
 -85.4492
 -85.4502
 -85.45
 -85.4464
 -85.3002
 -85.3123
 -85.3062
 -85.3041
 -85.1404
 -85.1374
 -85.1189
 -85.1027
 -85.3952
 -85.4
 -85.3977
 -85.3948
 -85.3775
 -85.3759
 -85.3735
 -85.3547
 -85.3612
 -85.3636
 -85.365
 -84.92
 -84.8998
 -84.9074
 -84.9421
 -85.3643
 -85.3601
 -85.3611
 -85.3589
 -85.4464
 -85.4463
 -85.4467
 -85.4468
 -85.3588
 -85.3573
 -85.3603
 -85.3604
 -85.2044
 -85.1977
 -85.2035
 -85.2052
 -85.2493
 -85.2559
 -85.2495
 -85.2415
 -85.4628
 -85.4621
 -85.4628
 -85.4627
 -85.266
 -85.2692
 -85.2671
 -85.2506
 -85.377
 -85.3705
 -85.3718
 -85.3746
 -85.4622
 -85.4627
 -85.4615
 -85.461
 -85.4372
 -85.4415
 -85.4388
 -85.3969
 -85.3965
 -85.4018
 -85.4033
 -85.4269
 -85.428
 -85.4318
 -85.4257
 -84.5568
 -84.6196
 -84.6551
 -84.6385
 -85.2225
 -85.2357
 -85.2102
 -85.4434
 -85.4464
 -85.4457
 -85.4464
 -85.375
 -85.3729
 -85.3778
 -85.371
 -85.4107
 -85.4092
 -85.4145
 -85.4066
 -85.1486
 -85.1444
 -85.1291
 -85.1279
 -85.3191
 -85.3282
 -85.3187
 -85.3245
 -85.3848
 -85.377
 -85.3802
 -85.1524
 -85.1556
 -85.1605
 -85.1606
 -85.2443
 -85.2081
 -85.2139
 -85.2104
 -85.3061
 -85.4444
 -85.4463
 -85.4447
 -85.4469
 -84.6185
 -84.6004
 -84.5344
 -84.5549
 -85.4119
 -85.4186
 -85.4157
 -85.4193
 -85.38
 -85.3768
 -85.377
 -85.372
 -84.0071
 -85.4209
 -85.4184
 -85.4228
 -85.443
 -85.4467
 -85.4443
 -85.4445
 -85.3376
 -85.3365
 -85.3467
 -85.3401
 -85.3925
 -85.3925
 -85.3956
 -85.3903
 -85.2588
 -85.2512
 -85.3487
 -85.346
 -85.3449
 -85.3507
 -85.2566
 -85.2497
 -85.2433
 -85.2503
 -85.2847
 -85.282
 -85.2933
 -85.2944
 -85.3999
 -85.3967
 -85.3998
 -85.4005
 -84.7667
 -84.7527
 -84.7399
 -84.8093
 -85.2399
 -85.2361
 -85.2394
 -85.2344
 -84.9099
 -84.9268
 -85.2033
 -85.2055
 -85.2057
 -85.2034
 -85.1735
 -85.1619
 -85.1766
 -85.1649
 -85.4507
 -85.4492
 -85.447
 -85.4469
 -85.3705
 -85.3698
 -85.3677
 -85.375
 -85.3138
 -85.3245
 -85.3183
 -85.3186
 -85.3527
 -85.3502
 -85.3487
 -85.3541
 -85.4479
 -85.4471
 -85.1503
 -85.1446
 -85.1461
 -85.1502
 -85.4464
 -85.4477
 -85.445
 -84.7001
 -84.7026
 -84.6934
 -84.6697
 -85.4396
 -85.4352
 -85.4383
 -85.4365
 -85.2862
 -85.2803
 -85.2886
 -85.2786
 -85.3338
 -85.3326
 -85.3308
 -85.4442
 -85.4424
 -85.4432
 -85.4447
 -85.3699
 -85.3647
 -85.3697
 -85.3666
 -85.3332
 -85.3373
 -85.3407
 -85.3359
 -85.2887
 -85.2851
 -85.3122
 -85.2975
 -85.3063
 -85.3033
 -85.3792
 -85.3736
 -85.3769
 -85.4504
 -85.4469
 -85.4464
 -85.4499
 -85.3316
 -85.3354
 -85.3307
 -85.3334
 -85.3176
 -85.3127
 -85.2781
 -85.2704
 -85.2674
 -85.2774
 -84.8888
 -84.897
 -84.9468
 -85.371
 -85.3724
 -85.3657
 -85.3657
 -85.449
 -85.4493
 -85.4493
 -84.8812
 -84.8936
 -84.8849
 -85.3245
 -85.3201
 -85.323
 -85.3169
 -85.3904
 -85.391
 -85.3861
 -85.3877
 -84.5063
 -84.4544
 -84.4788
 -84.5193
 -85.4291
 -85.4302
 -85.4284
 -85.4278
 -85.3942
 -85.3917
 -85.392
 -85.3895
 -85.4198
 -85.4209
 -85.4184
 -85.4426
 -85.4434
 -85.4471
 -85.4446
 -85.3531
 -85.3457
 -85.3521
 -85.3537
 -85.4433
 -85.4421
 -85.4416
 -85.4407
 -85.2946
 -85.2936
 -85.2984
 -85.2892
 -85.4495
 -85.3859
 -85.3458
 -85.3442
 -85.3493
 -85.3425
 -85.3787
 -85.377
 -85.3741
 -85.3728
 -85.4053
 -85.4059
 -85.4032
 -85.4006
 -85.3819
 -85.3806
 -85.3851
 -85.3828
 -85.4094
 -85.4067
 -85.41
 -85.4096
 -85.3457
 -85.342
 -85.3429
 -85.3483
 -85.3347
 -85.3354
 -85.337
 -85.3399
 -85.3164
 -85.3138
 -85.3119
 -85.3193
 -85.3362
 -85.3358
 -85.3303
 -85.2283
 -85.2297
 -85.2285
 -85.2343
 -85.3533
 -85.3888
 -85.3935
 -85.3942
 -85.3929
 -85.4456
 -85.4459
 -85.442
 -85.2741
 -85.2587
 -85.2631
 -85.259
 -85.3592
 -85.3655
 -85.3631
 -85.3802
 -85.378
 -85.3764
 -85.3744
 -85.3911
 -85.3933
 -85.3971
 -85.3987
 -85.4348
 -85.4364
 -85.4389
 -85.4357
 -85.2545
 -85.2535
 -85.2584
 -85.2465
 -85.3574
 -85.3541
 -85.3544
 -85.3505
 -85.3395
 -85.3377
 -85.3326
 -85.3407
 -85.3348
 -85.3322
 -85.3302
 -85.3261
 -85.3487
 -85.3473
 -85.3507
 -85.3441
 -85.4037
 -85.3966
 -85.405
 -85.3999
 -85.3332
 -85.324
 -85.3275
 -85.3299
 -85.1465
 -85.1469
 -85.1461
 -85.1502
 -85.01
 -85.0244
 -85.0093
 -85.3473
 -85.3485
 -85.3526
 -85.3545
 -85.3505
 -85.3505
 -85.3541
 -85.3568
 -85.335
 -85.3295
 -85.339
 -85.3383
 -85.4409
 -85.4417
 -85.4375
 -85.4378
 -85.4057
 -85.4024
 -85.4012
 -85.4052
 -85.2749
 -85.2805
 -85.2785
 -85.2808
 -85.1703
 -85.1948
 -85.1873
 -85.1581
 -85.433
 -85.4313
 -85.4294
 -85.4328
 -84.6891
 -84.5959
 -84.6128
 -84.7039
 -85.2988
 -85.3058
 -85.3019
 -85.3011
 -85.1744
 -85.1797
 -85.1784
 -85.2417
 -85.2465
 -85.2487
 -85.2577
 -85.3992
 -85.3986
 -85.4018
 -85.3948
 -85.2255
 -85.2174
 -85.216
 -85.2265
 -84.9988
 -85.0694
 -85.0251
 -84.4912
 -84.5654
 -84.5956
 -84.5329
 -85.4547
 -85.4555
 -85.4559
 -85.458
 -85.2678
 -85.2619
 -85.266
 -85.2702
 -85.3712
 -85.3644
 -85.3661
 -85.3693
 -85.4377
 -85.4363
 -85.4335
 -85.4359
 -85.4193
 -85.4227
 -85.4178
 -85.4192
 -85.2717
 -85.2752
 -85.2684
 -85.2718
 -85.0992
 -85.0692
 -85.0375
 -85.0754
 -85.3667
 -85.3695
 -85.3638
 -85.3665
 -85.1464
 -85.1623
 -85.3186
 -85.3064
 -85.3096
 -85.3156
 -85.3233
 -85.3227
 -85.3188
 -85.3255
 -85.3122
 -85.3127
 -85.309
 -85.2063
 -85.2111
 -85.2069
 -85.3731
 -85.3733
 -85.3755
 -85.3766
 -85.3682
 -85.3673
 -85.3646
 -85.3722
 -85.2727
 -85.2809
 -85.2763
 -85.274
 -85.4079
 -85.4113
 -85.4063
 -85.4075
 -85.3447
 -85.3371
 -85.341
 -85.3462
 -85.2247
 -85.2246
 -85.2235
 -85.2244
 -85.3093
 -85.3167
 -85.3105
 -85.3738
 -85.3731
 -85.3693
 -85.372
 -85.3534
 -85.3575
 -85.3596
 -85.4532
 -85.4527
 -85.4518
 -85.4512
 -84.952
 -84.9236
 -84.9619
 -84.8956
 -85.2988
 -85.3048
 -85.3053
 -85.2997
 -85.2864
 -85.2849
 -85.2784
 -85.2872
 -85.4546
 -85.4542
 -85.4574
 -85.4591
 -85.4153
 -85.4173
 -85.4167
 -85.2369
 -85.2402
 -85.23
 -85.2411
 -85.4133
 -85.409
 -85.4108
 -85.2686
 -85.2703
 -85.2642
 -85.2659
 -83.2067
 -83.2929
 -83.2838
 -83.3639
 -85.4405
 -85.4413
 -85.4434
 -85.4393
 -85.2087
 -85.2051
 -85.2002
 -85.1925
 -85.4515
 -85.4509
 -85.4504
 -85.4509
 -85.2356
 -85.2455
 -85.2368
 -85.2435
 -83.4507
 -83.2219
 -83.3653
 -83.4136
 -85.0611
 -85.0453
 -85.0646
 -85.0644
 -85.2161
 -85.2225
 -85.2297
 -85.2142
 -85.3401
 -85.3329
 -85.1614
 -85.1699
 -85.1355
 -85.1377
 -85.3783
 -85.3748
 -85.3736
 -85.3709
 -85.3352
 -85.335
 -85.3338
 -85.3418
 -85.4368
 -85.4334
 -85.4391
 -85.4396
 -85.4295
 -85.4283
 -85.4314
 -85.431
 -85.421
 -85.4174
 -85.4202
 -85.4177
 -85.4348
 -85.4355
 -85.4362
 -85.4339
 -85.3903
 -85.3899
 -85.3934
 -85.3905
 -85.4229
 -85.4261
 -85.4254
 -85.4243
 -85.0001
 -84.943
 -84.9419
 -84.9989
 -85.4311
 -85.4332
 -85.4328
 -85.4322
 -85.3155
 -85.3092
 -85.3044
 -85.3073
 -85.4121
 -85.4065
 -85.4071
 -85.43
 -85.4328
 -85.4333
 -85.432
 -85.2066
 -85.1927
 -85.1923
 -85.1987
 -85.0971
 -85.0926
 -85.0834
 -85.0867
 -85.3982
 -85.3979
 -85.3955
 -85.4021
 -85.3145
 -85.3148
 -85.3142
 -85.3076
 -85.3927
 -85.3908
 -85.3924
 -85.3912
 -85.391
 -85.3907
 -85.3984
 -85.3026
 -85.3006
 -85.2947
 -85.3875
 -85.3901
 -85.3607
 -85.354
 -85.4499
 -85.4518
 -85.4515
 -85.4499
 -85.3524
 -85.354
 -85.3503
 -85.3569
 -85.3868
 -85.3855
 -85.3912
 -85.3854
 -85.3732
 -85.3753
 -85.3729
 -85.3768
 -85.4231
 -85.4144
 -85.4158
 -85.4132
 -85.4125
 -85.3274
 -85.33
 -85.3234
 -85.3236
 -85.1883
 -85.1884
 -85.1878
 -85.1871
 -85.3876
 -85.3838
 -85.3885
 -85.3858
 -85.3942
 -85.3926
 -85.3906
 -85.3961
 -83.8481
 -83.9653
 -83.9933
 -84.0333
 -85.3462
 -85.3514
 -85.3481
 -85.3444
 -85.3379
 -85.3327
 -85.3302
 -85.335
 -85.386
 -85.3827
 -85.2322
 -85.2335
 -85.2365
 -85.2326
 -85.293
 -85.297
 -85.296
 -85.2921
 -85.2448
 -85.241
 -85.2394
 -85.2402
 -85.2784
 -85.2836
 -85.283
 -85.2769
 -85.2326
 -85.2315
 -85.2273
 -85.2332
 -85.4177
 -85.4156
 -85.4165
 -85.4191
 -85.4308
 -85.43
 -85.4267
 -85.4289
 -85.2708
 -85.2664
 -85.2616
 -85.2697
 -85.3475
 -85.3435
 -85.3476
 -85.344
 -85.4211
 -85.4176
 -85.4207
 -85.4191
 -85.3271
 -85.322
 -85.3222
 -85.331
 -85.2637
 -85.2716
 -85.138
 -85.1468
 -85.1498
 -85.1348
 -85.3394
 -85.3375
 -85.3321
 -85.33
 -85.4217
 -85.4202
 -85.4208
 -85.4248
 -85.4477
 -85.4455
 -85.4461
 -85.448
 -84.0895
 -84.0518
 -85.3102
 -85.3182
 -85.3179
 -85.323
 -85.3001
 -85.2893
 -85.2963
 -85.2967
 -85.2939
 -85.2931
 -85.2451
 -85.2474
 -85.2485
 -85.2492
 -85.3359
 -85.3413
 -85.3443
 -84.9844
 -85.0047
 -85.0091
 -85.0294
 -85.4318
 -85.434
 -85.4292
 -85.4323
 -85.4469
 -85.4468
 -85.4464
 -85.4547
 -85.4534
 -85.4508
 -85.4528
 -85.3697
 -85.3766
 -85.3749
 -85.3751
 -85.346
 -85.3534
 -85.3441
 -85.3504
 -85.4094
 -85.4148
 -85.4165
 -85.4137
 -85.3836
 -85.3822
 -85.3869
 -85.3828
 -85.3771
 -85.3813
 -85.3786
 -85.3575
 -85.3581
 -85.3557
 -85.3627
 -85.4009
 -85.409
 -85.4059
 -85.4015
 -85.3262
 -85.3207
 -85.3244
 -85.3257
 -85.3499
 -85.3484
 -85.3554
 -85.3474
 -85.3918
 -85.3906
 -85.3883
 -85.3918
 -85.3475
 -85.3446
 -85.343
 -85.3487
 -83.5009
 -83.4461
 -83.6667
 -83.6454
 -85.2576
 -85.2543
 -85.253
 -85.2486
 -85.4006
 -85.4001
 -85.405
 -85.4056
 -85.2252
 -85.225
 -85.2056
 -85.2019
 -85.1928
 -85.1733
 -85.1935
 -85.2056
 -85.424
 -85.4231
 -85.4253
 -85.4208
 -85.4187
 -85.4145
 -85.4184
 -85.4172
 -85.4335
 -85.4301
 -85.4328
 -85.4343
 -85.4053
 -85.4053
 -85.4092
 -85.4073
 -85.3122
 -85.3091
 -85.3053
 -85.3087
 -85.2633
 -85.2599
 -85.267
 -85.2581
 -85.3931
 -85.3866
 -85.3937
 -85.388
 -85.2658
 -85.2688
 -85.2695
 -85.2692
 -85.1692
 -85.1728
 -85.1768
 -85.1806
 -85.3432
 -85.348
 -85.3438
 -85.3478
 -85.2986
 -85.2934
 -85.2884
 -85.3031
 -85.3071
 -85.3166
 -85.3101
 -85.1511
 -85.1402
 -85.1262
 -85.1415
 -85.2684
 -85.2669
 -85.2646
 -85.2649
 -85.3988
 -85.4013
 -85.3991
 -85.4002
 -85.3544
 -85.359
 -85.3604
 -85.4566
 -85.4542
 -85.4547
 -85.4559
 -85.4395
 -85.4425
 -85.4445
 -85.4414
 -85.2937
 -85.3005
 -85.29
 -85.2995
 -85.3611
 -85.3653
 -85.1483
 -85.1462
 -85.1216
 -85.1562
 -85.3539
 -85.3478
 -85.3463
 -85.3514
 -85.4322
 -85.4332
 -85.43
 -85.4329
 -85.2592
 -85.2614
 -85.2631
 -85.3192
 -85.3219
 -85.3225
 -85.3131
 -85.2954
 -85.3043
 -85.305
 -85.304
 -85.343
 -85.3482
 -85.3496
 -85.343
 -85.3282
 -85.3321
 -85.3366
 -85.3315
 -85.3489
 -85.3513
 -85.3468
 -85.3537
 -85.3234
 -85.3282
 -85.4131
 -85.4101
 -85.4159
 -85.4121
 -85.3265
 -85.321
 -85.323
 -85.327
 -85.3763
 -85.37
 -85.3734
 -85.3253
 -85.3314
 -85.3268
 -85.3306
 -85.3798
 -85.3772
 -85.3745
 -85.3779
 -85.2352
 -85.2253
 -85.2327
 -85.2189
 -85.3293
 -85.3278
 -85.3357
 -85.3656
 -85.3669
 -85.372
 -85.3627
 -85.3406
 -85.339
 -85.3431
 -85.2432
 -85.2452
 -85.2387
 -85.382
 -85.381
 -85.3804
 -85.3757
 -85.3404
 -85.3446
 -85.3459
 -84.3536
 -84.3966
 -84.4148
 -84.2717
 -85.3831
 -85.3795
 -85.377
 -85.3838
 -85.3035
 -85.2967
 -85.298
 -85.2945
 -85.4206
 -85.4206
 -85.4221
 -85.4235
 -85.4291
 -85.4262
 -85.4307
 -85.4298
 -85.1759
 -85.1992
 -85.169
 -85.1753
 -85.3641
 -85.3607
 -85.3571
 -85.2726
 -85.2638
 -85.271
 -85.2699
 -85.427
 -85.4221
 -85.425
 -85.3516
 -85.3568
 -85.3533
 -85.3576
 -85.3966
 -85.3984
 -85.3981
 -85.3968
 -85.4381
 -85.4388
 -85.4405
 -85.4379
 -82.6363
 -82.5304
 -82.5439
 -82.6254
 -85.2787
 -85.281
 -85.2853
 -85.2776
 -85.3583
 -85.3675
 -85.3641
 -85.3665
 -85.1007
 -85.084
 -85.0664
 -85.3404
 -85.3454
 -85.3445
 -85.3389
 -85.4421
 -85.3885
 -85.3848
 -85.3801
 -85.3851
 -85.4253
 -85.4253
 -85.4256
 -85.4271
 -85.4091
 -85.4083
 -85.4073
 -85.4108
 -85.3632
 -85.3615
 -85.3515
 -85.3451
 -85.3461
 -85.3451
 -84.3451
 -84.4517
 -84.3422
 -84.3884
 -85.2931
 -85.2906
 -85.2872
 -85.2816
 -85.2803
 -85.2864
 -85.2823
 -85.444
 -85.4481
 -85.4447
 -85.4439
 -85.3434
 -85.3433
 -85.3487
 -85.3494
 -85.3592
 -85.3568
 -85.3522
 -85.356
 -85.4288
 -85.426
 -85.4307
 -85.4264
 -85.3477
 -85.3461
 -85.3532
 -85.3492
 -84.934
 -84.9318
 -84.891
 -84.9063
 -85.3374
 -85.3357
 -85.3399
 -85.3373
 -85.2743
 -85.2752
 -85.2765
 -85.2815
 -85.2569
 -85.2494
 -85.2492
 -85.2532
 -85.1939
 -85.1983
 -85.1933
 -85.1913
 -84.8346
 -84.8224
 -84.7863
 -84.8578
 -85.4529
 -85.4511
 -85.4518
 -85.4512
 -84.6082
 -84.6284
 -84.5387
 -84.6271
 -85.3448
 -85.3407
 -85.3445
 -85.3398
 -85.4503
 -85.4506
 -85.4483
 -85.4491
 -85.3134
 -85.3106
 -85.3155
 -85.3163
 -85.1836
 -85.4358
 -85.4342
 -85.4348
 -85.4386
 -85.2239
 -84.9111
 -84.967
 -84.9622
 -84.9045
 -85.3697
 -85.3762
 -85.4117
 -85.4071
 -85.4134
 -85.4084
 -85.4228
 -85.4228
 -85.4252
 -85.4245
 -85.456
 -85.4537
 -85.4568
 -85.4134
 -85.4182
 -85.4173
 -85.4166
 -85.3131
 -85.4466
 -85.3934
 -85.3927
 -85.391
 -85.4466
 -85.4482
 -85.4488
 -85.4477
 -85.319
 -85.3173
 -85.3185
 -85.313
 -85.2694
 -85.2734
 -85.263
 -85.2619
 -85.3878
 -85.3848
 -85.3865
 -85.3929
 -85.4428
 -85.4447
 -85.4416
 -85.4409
 -85.4331
 -85.4322
 -85.4336
 -85.4319
 -85.3752
 -85.3829
 -85.3821
 -84.7365
 -84.6849
 -84.8242
 -84.7169
 -82.8973
 -83.1343
 -83.0078
 -83.0751
 -85.0531
 -85.0185
 -84.9985
 -85.0256
 -85.3543
 -85.3593
 -85.354
 -84.9492
 -84.9759
 -84.9637
 -84.9498
 -85.4154
 -85.4143
 -85.4186
 -85.4197
 -85.4201
 -85.418
 -85.4197
 -85.2253
 -85.221
 -85.3965
 -85.3983
 -85.4628
 -85.4615
 -85.4627
 -85.4531
 -85.4544
 -85.4539
 -85.455
 -85.3251
 -85.3204
 -85.3294
 -85.3254
 -85.2894
 -85.2879
 -85.284
 -85.2935
 -85.3401
 -85.3399
 -85.346
 -85.3432
 -85.4501
 -85.4499
 -85.4506
 -85.4499
 -85.3977
 -85.4002
 -85.3989
 -85.3962
 -85.1809
 -85.1789
 -85.1805
 -85.1875
 -85.3978
 -85.3997
 -85.3965
 -85.4006
 -85.3663
 -85.3676
 -85.3623
 -85.3685
 -85.3903
 -85.3931
 -85.3929
 -82.3505
 -82.3779
 -82.4033
 -85.2805
 -85.2748
 -85.3185
 -85.3183
 -85.3131
 -85.3227
 -85.4103
 -85.4145
 -85.4111
 -85.4103
 -85.3982
 -85.3995
 -85.4043
 -85.4017
 -85.4016
 -85.3995
 -85.4063
 -84.4797
 -84.4863
 -85.1811
 -85.1781
 -85.1848
 -85.1821
 -85.3652
 -84.4582
 -84.3529
 -84.3866
 -84.394
 -85.2722
 -85.2812
 -85.2757
 -85.2741
 -85.3295
 -85.3254
 -84.8594
 -84.9455
 -84.933
 -84.884
 -85.4528
 -85.4555
 -85.4547
 -85.4533
 -85.4414
 -85.4427
 -85.4415
 -85.445
 -85.211
 -85.2348
 -85.2164
 -85.2278
 -85.2803
 -85.2761
 -85.2918
 -85.2893
 -85.2873
 -85.2842
 -85.2876
 -85.405
 -85.4077
 -85.4018
 -85.4051
 -85.164
 -85.1802
 -85.187
 -85.1876
 -85.3394
 -85.34
 -85.3386
 -85.3845
 -85.3861
 -85.3875
 -85.3913
 -85.283
 -85.2852
 -85.289
 -85.2865
 -85.2428
 -85.2511
 -85.2581
 -85.2474
 -85.2602
 -85.2551
 -85.2568
 -85.2632
 -85.3091
 -85.3104
 -85.3184
 -85.3128
 -85.3819
 -85.3789
 -85.2747
 -85.2756
 -85.2769
 -85.2702
 -85.4548
 -85.4505
 -85.4514
 -85.4516
 -85.2468
 -85.2517
 -85.2478
 -85.2528
 -85.0917
 -85.0807
 -85.1043
 -85.0992
 -85.3667
 -85.366
 -84.7757
 -84.768
 -84.7333
 -84.7804
 -85.2946
 -85.3024
 -85.2909
 -85.4444
 -85.4439
 -85.4458
 -85.4458
 -84.8455
 -84.8069
 -84.8269
 -85.2522
 -85.2507
 -85.2577
 -85.2548
 -84.8399
 -85.2399
 -85.235
 -85.2377
 -85.2279
 -85.3461
 -85.3419
 -85.3473
 -85.347
 -85.3163
 -85.3178
 -85.3214
 -85.3159
 -85.4473
 -85.4502
 -85.3588
 -85.3622
 -85.3609
 -85.3589
 -85.2096
 -85.1891
 -85.2126
 -85.1879
 -85.2898
 -85.3037
 -85.2958
 -85.2914
 -85.4342
 -85.4323
 -85.4323
 -85.4329
 -85.3222
 -85.3264
 -85.3319
 -85.3287
 -85.3684
 -85.4217
 -85.4232
 -85.4201
 -85.2895
 -85.292
 -85.2836
 -85.2934
 -85.3966
 -85.3951
 -85.3967
 -85.3928
 -85.2979
 -85.2894
 -85.2931
 -85.2999
 -85.4456
 -85.4433
 -85.4421
 -85.4446
 -85.4609
 -85.4617
 -85.4603
 -85.2562
 -85.26
 -85.2674
 -85.2633
 -85.3789
 -85.3801
 -85.3748
 -85.3772
 -85.3919
 -85.3936
 -85.396
 -85.3976
 -85.2715
 -85.274
 -85.2345
 -85.2309
 -85.2268
 -85.2391
 -85.3089
 -85.3204
 -85.3682
 -85.3706
 -85.3678
 -85.366
 -85.3795
 -85.3812
 -85.3852
 -85.3797
 -85.3066
 -85.3137
 -85.3182
 -85.3128
 -85.3627
 -85.3629
 -85.3632
 -85.4283
 -85.4246
 -85.4233
 -85.4254
 -85.4101
 -85.4086
 -85.4108
 -85.3109
 -85.3189
 -85.3071
 -85.3158
 -85.246
 -85.2309
 -85.2249
 -85.2426
 -85.3947
 -85.3892
 -85.3899
 -85.3928
 -85.3212
 -85.3199
 -85.3115
 -85.2173
 -85.2163
 -85.2174
 -85.2166
 -85.2817
 -85.2814
 -85.2842
 -85.2864
 -85.4159
 -85.4137
 -85.4121
 -85.4552
 -85.4524
 -85.4531
 -85.39
 -85.3923
 -85.3927
 -85.2813
 -85.2742
 -85.2841
 -85.2785
 -85.455
 -85.4556
 -85.4551
 -85.4564
 -85.3851
 -85.3822
 -85.3842
 -85.3876
 -85.4211
 -85.4226
 -85.4269
 -85.4265
 -85.4171
 -85.4192
 -85.4175
 -85.4178
 -85.0162
 -84.9615
 -84.9828
 -85.3072
 -85.3092
 -85.3046
 -85.3096
 -85.4223
 -85.4236
 -85.4206
 -85.4208
 -85.3321
 -85.3345
 -85.3343
 -85.3404
 -85.3981
 -85.3983
 -85.3978
 -85.3936
 -85.4359
 -85.4382
 -85.1763
 -85.1848
 -85.1834
 -85.189
 -85.4075
 -85.4047
 -85.4109
 -85.4063
 -85.3125
 -85.3108
 -85.3074
 -85.3149
 -85.3919
 -85.3856
 -85.4507
 -85.4507
 -85.448
 -85.4514
 -85.4202
 -85.4247
 -85.4185
 -85.426
 -85.456
 -85.4566
 -85.4587
 -85.4592
 -85.4057
 -85.4057
 -85.4077
 -85.3917
 -85.3973
 -85.3969
 -85.3947
 -85.3951
 -85.3925
 -85.3942
 -85.3894
 -85.2695
 -85.2714
 -85.2655
 -85.2628
 -84.9562
 -84.9424
 -84.9834
 -85.3448
 -85.3443
 -85.3456
 -85.4278
 -85.4242
 -85.4263
 -85.4234
 -85.3129
 -85.3173
 -85.323
 -85.3176
 -85.2232
 -85.2042
 -85.2087
 -85.2257
 -85.3491
 -85.3437
 -85.3403
 -85.3411
 -85.2926
 -85.3045
 -85.2936
 -85.4519
 -85.4527
 -85.4494
 -85.4491
 -85.1888
 -85.1914
 -85.2376
 -85.2423
 -85.2427
 -85.4007
 -85.402
 -85.3979
 -85.4048
 -85.3416
 -85.3492
 -85.3472
 -85.3472
 -85.2169
 -85.219
 -85.2265
 -85.2186
 -85.3601
 -85.3498
 -85.3514
 -85.3563
 -85.2922
 -85.2854
 -85.2966
 -85.2967
 -85.4329
 -85.4344
 -85.439
 -85.2842
 -85.2843
 -85.289
 -85.2887
 -85.3592
 -85.3632
 -85.204
 -85.2142
 -85.2078
 -85.2057
 -85.2223
 -85.2122
 -85.2186
 -85.2137
 -85.4362
 -85.4347
 -85.2373
 -85.247
 -85.2401
 -85.2306
 -85.3509
 -85.346
 -85.3482
 -85.3516
 -85.3043
 -85.0735
 -85.0389
 -85.0514
 -85.3675
 -85.3662
 -85.3668
 -85.3631
 -85.4393
 -85.4396
 -85.4378
 -85.4409
 -84.9948
 -85.0246
 -85.0147
 -84.9757
 -85.241
 -85.2462
 -85.2388
 -85.2408
 -85.3884
 -85.3901
 -85.3903
 -85.0434
 -85.0297
 -85.0628
 -85.06
 -85.4555
 -85.4531
 -85.4541
 -85.456
 -85.1736
 -85.1794
 -85.182
 -85.1679
 -85.3849
 -85.3805
 -85.3835
 -85.3874
 -85.3097
 -85.3154
 -85.3128
 -85.3083
 -85.2113
 -85.215
 -85.211
 -85.2947
 -85.3024
 -85.2948
 -85.301
 -85.23
 -85.2238
 -85.228
 -85.2281
 -85.2297
 -85.2228
 -85.2232
 -85.4103
 -85.4065
 -85.4112
 -85.4041
 -85.4006
 -85.3358
 -85.3473
 -85.3394
 -85.3399
 -85.4445
 -85.4434
 -85.4415
 -85.4433
 -85.3692
 -85.3749
 -85.3663
 -85.3732
 -85.3819
 -85.3854
 -85.3817
 -85.3808
 -85.2399
 -85.237
 -85.2445
 -85.2391
 -85.2341
 -85.3837
 -85.3785
 -85.3817
 -85.3852
 -85.4418
 -85.4457
 -85.3542
 -85.3561
 -85.35
 -85.3568
 -85.2219
 -85.2207
 -85.2255
 -85.4324
 -85.435
 -85.4316
 -85.433
 -85.3567
 -85.3486
 -85.3519
 -85.3532
 -85.2376
 -85.2342
 -85.2383
 -85.2408
 -85.3389
 -85.3384
 -85.3469
 -85.3407
 -85.3795
 -85.3875
 -85.1582
 -85.1529
 -85.1553
 -85.1499
 -85.2175
 -85.2405
 -85.2516
 -85.248
 -85.2559
 -85.2523
 -85.2363
 -85.2203
 -85.2195
 -85.2297
 -85.3541
 -85.3523
 -85.352
 -85.3726
 -85.3707
 -85.3685
 -85.3664
 -85.2728
 -85.2713
 -85.273
 -85.272
 -85.3157
 -85.3134
 -85.3618
 -85.3587
 -85.3607
 -85.3578
 -85.363
 -85.3628
 -85.3409
 -85.3457
 -85.3475
 -85.3413
 -84.6632
 -84.7582
 -84.7424
 -84.7683
 -85.3601
 -85.231
 -85.237
 -85.2325
 -85.2311
 -85.451
 -85.453
 -85.4505
 -85.4019
 -85.4011
 -85.3979
 -85.4023
 -85.3349
 -85.3363
 -85.3334
 -85.325
 -85.3575
 -85.3613
 -85.3546
 -85.2542
 -85.2601
 -85.258
 -85.2537
 -85.4339
 -85.4365
 -85.4313
 -85.4349
 -85.387
 -85.3853
 -85.3888
 -85.3872
 -85.4344
 -85.4358
 -85.4306
 -85.4335
 -85.1482
 -85.1439
 -85.1378
 -85.1393
 -85.2638
 -85.27
 -85.4094
 -85.4079
 -85.4061
 -85.4086
 -85.4418
 -85.4413
 -85.442
 -85.4407
 -85.4613
 -85.4622
 -85.4602
 -85.4625
 -85.438
 -85.4354
 -85.4377
 -85.3826
 -85.3873
 -85.382
 -85.3853
 -85.4404
 -85.442
 -85.4422
 -85.4418
 -85.1831
 -85.1918
 -85.2023
 -85.1904
 -85.4224
 -85.4255
 -85.4258
 -85.385
 -85.3836
 -85.3823
 -85.382
 -85.2281
 -85.2253
 -85.2279
 -85.2237
 -85.389
 -85.3936
 -85.3912
 -85.3913
 -85.3697
 -85.3734
 -85.3753
 -85.3698
 -85.2568
 -85.2572
 -85.27
 -85.273
 -85.1626
 -85.1649
 -85.1512
 -85.1512
 -85.3176
 -85.3193
 -85.3249
 -85.3187
 -84.5014
 -84.4885
 -84.6376
 -84.5359
 -85.227
 -85.2336
 -85.2257
 -85.2487
 -85.239
 -85.2375
 -85.2347
 -84.0525
 -84.0471
 -83.9385
 -84.1382
 -85.4325
 -85.4303
 -85.4308
 -85.4172
 -85.4178
 -85.4211
 -85.4205
 -85.251
 -85.2674
 -85.2622
 -84.9903
 -85.0118
 -84.9896
 -85.138
 -85.1307
 -85.1424
 -85.146
 -85.2696
 -85.2687
 -85.2744
 -85.2636
 -85.3856
 -85.3925
 -85.3893
 -85.3885
 -84.6915
 -84.6551
 -84.676
 -84.6149
 -85.3753
 -85.3674
 -85.3671
 -85.374
 -85.416
 -85.4177
 -85.413
 -85.4159
 -85.365
 -85.3645
 -85.3724
 -85.3684
 -85.3285
 -85.3231
 -85.3322
 -85.2357
 -85.2352
 -85.2359
 -85.2396
 -85.4358
 -85.4381
 -85.4393
 -85.4378
 -85.4233
 -85.4256
 -85.4228
 -85.4206
 -85.2581
 -85.265
 -85.2602
 -85.2542
 -85.4425
 -85.4441
 -85.4457
 -85.4412
 -85.4455
 -85.4426
 -85.4427
 -85.4454
 -85.4455
 -85.443
 -85.4441
 -84.9165
 -84.9056
 -84.0747
 -84.1205
 -84.064
 -84.1795
 -85.3764
 -85.3742
 -85.3708
 -85.3357
 -85.3323
 -85.3408
 -85.3329
 -85.3508
 -85.3569
 -85.3552
 -85.3517
 -82.4574
 -85.3167
 -85.3715
 -85.3764
 -85.423
 -85.4248
 -85.4242
 -85.4237
 -84.9989
 -85.296
 -85.3019
 -85.296
 -85.4635
 -85.4625
 -85.4626
 -85.4625
 -85.3517
 -85.3478
 -85.3523
 -85.357
 -85.4447
 -85.443
 -85.4453
 -85.442
 -85.3263
 -85.3334
 -85.3196
 -85.3064
 -85.3154
 -85.3094
 -85.4342
 -85.4345
 -85.4312
 -85.4347
 -85.376
 -85.3726
 -85.3692
 -85.3678
 -85.1907
 -85.1819
 -85.197
 -85.1953
 -85.4182
 -85.4245
 -85.4223
 -85.446
 -85.4498
 -85.45
 -85.446
 -85.4202
 -85.419
 -85.4169
 -85.419
 -85.2587
 -85.2586
 -85.2754
 -85.2578
 -85.2813
 -85.2762
 -85.2771
 -85.2776
 -85.4345
 -85.4365
 -85.4364
 -85.4365
 -85.313
 -85.3163
 -85.308
 -85.4118
 -85.4118
 -85.4108
 -85.4085
 -85.2043
 -85.2148
 -85.1988
 -85.2019
 -85.3806
 -85.383
 -85.3766
 -85.3793
 -85.2057
 -85.2142
 -85.2067
 -85.2049
 -85.3605
 -85.3625
 -85.3573
 -85.3618
 -85.4155
 -85.4153
 -85.4186
 -85.4133
 -85.1814
 -85.1774
 -85.1859
 -85.3517
 -85.3567
 -85.4284
 -85.427
 -85.4263
 -85.4242
 -85.3117
 -85.307
 -85.3058
 -85.1851
 -85.1767
 -85.1725
 -85.1775
 -85.3938
 -85.3953
 -85.3936
 -85.3969
 -85.3799
 -85.3795
 -85.3868
 -85.3815
 -83.2291
 -83.2553
 -83.4315
 -83.2672
 -85.3496
 -85.3426
 -85.3463
 -84.5411
 -84.6073
 -84.6367
 -85.3499
 -85.3477
 -85.3437
 -85.3491
 -85.3427
 -85.1103
 -85.128
 -85.0885
 -85.1114
 -85.3279
 -85.3351
 -85.3356
 -85.4233
 -85.4233
 -85.4234
 -85.4217
 -85.3315
 -85.3347
 -85.3385
 -85.3383
 -85.343
 -85.3415
 -85.3411
 -85.4599
 -85.4592
 -85.4585
 -85.4571
 -85.2258
 -85.2473
 -85.2431
 -85.2395
 -85.1375
 -85.1394
 -85.1459
 -85.1472
 -85.3031
 -85.3015
 -85.311
 -85.3036
 -85.4297
 -85.4304
 -85.4316
 -85.4272
 -83.1401
 -83.2897
 -83.1045
 -83.3381
 -85.4126
 -85.4084
 -85.4107
 -85.4109
 -85.1137
 -85.1021
 -85.1204
 -85.1137
 -85.4226
 -85.4145
 -85.4172
 -85.4209
 -85.4076
 -85.4056
 -85.4033
 -85.4057
 -85.4128
 -85.4143
 -85.2658
 -85.2584
 -85.257
 -85.2636
 -85.4374
 -85.438
 -85.4378
 -85.4047
 -85.3993
 -85.4011
 -85.4055
 -85.2545
 -85.262
 -85.257
 -85.2503
 -85.2921
 -85.2897
 -85.2978
 -82.3611
 -82.3674
 -82.2992
 -82.3562
 -85.3382
 -85.3325
 -85.3413
 -85.4383
 -85.4405
 -85.4373
 -85.4366
 -85.4144
 -85.4116
 -85.4315
 -85.4352
 -85.4369
 -85.4333
 -85.3968
 -85.3972
 -85.0572
 -85.047
 -85.0285
 -85.0642
 -85.4111
 -85.4108
 -85.411
 -85.4072
 -85.3485
 -85.3508
 -85.2951
 -85.2989
 -85.2962
 -85.2945
 -85.421
 -85.4231
 -85.4235
 -85.4228
 -85.2682
 -85.2513
 -85.2533
 -85.2652
 -85.4349
 -85.435
 -85.438
 -85.4414
 -85.367
 -85.3679
 -85.3629
 -85.103
 -85.0943
 -85.0876
 -85.0997
 -85.3847
 -85.3845
 -85.3828
 -85.3798
 -85.2256
 -85.2135
 -85.2164
 -85.2068
 -85.2449
 -85.2293
 -85.2407
 -82.9426
 -82.9029
 -82.9735
 -83.0525
 -85.1625
 -85.1774
 -85.1819
 -85.1673
 -85.4133
 -85.4117
 -85.4155
 -85.4114
 -85.3449
 -85.3474
 -85.3406
 -85.3008
 -85.2275
 -85.233
 -85.2298
 -85.2337
 -85.3157
 -85.3092
 -85.315
 -85.3181
 -85.4007
 -85.407
 -85.4075
 -85.4018
 -85.1932
 -85.1946
 -85.2182
 -85.0144
 -85.3655
 -85.3672
 -85.3618
 -85.37
 -85.2324
 -85.2424
 -84.2763
 -84.188
 -85.2187
 -85.2273
 -85.2203
 -85.2092
 -85.3992
 -85.4023
 -85.4283
 -85.4279
 -85.429
 -85.4275
 -85.297
 -85.304
 -85.3033
 -85.3044
 -85.4483
 -85.4491
 -85.4509
 -85.4493
 -85.2819
 -85.285
 -85.2677
 -85.2665
 -85.4103
 -85.4111
 -85.4081
 -85.4046
 -85.2569
 -85.2573
 -85.2616
 -85.2608
 -85.4091
 -85.4109
 -85.4061
 -85.4091
 -85.3132
 -85.3226
 -85.4407
 -85.4395
 -85.3959
 -85.3995
 -85.3948
 -85.4001
 -85.3927
 -85.391
 -85.3917
 -85.3964
 -85.3593
 -85.3568
 -85.3616
 -85.3608
 -85.408
 -85.4041
 -85.4098
 -85.4117
 -85.2521
 -85.2442
 -85.2483
 -85.2479
 -85.4388
 -85.438
 -85.4378
 -85.4417
 -85.4435
 -85.4408
 -85.4426
 -85.204
 -85.2138
 -85.2136
 -85.2078
 -85.3951
 -85.3903
 -85.391
 -85.3934
 -85.152
 -85.173
 -85.1735
 -85.1901
 -85.3564
 -85.3327
 -85.3409
 -85.341
 -85.3342
 -85.4208
 -85.421
 -85.4206
 -85.4171
 -84.6119
 -84.5392
 -84.5686
 -84.6565
 -85.3931
 -85.3954
 -85.3982
 -85.3944
 -85.3466
 -85.3514
 -85.34
 -85.3446
 -85.4053
 -85.4022
 -85.4016
 -85.4011
 -85.3847
 -85.4599
 -85.4594
 -85.4565
 -85.4576
 -85.4128
 -85.4138
 -85.4089
 -85.4096
 -84.1517
 -84.1668
 -84.2421
 -84.1478
 -85.3169
 -85.3102
 -85.307
 -85.3122
 -85.2723
 -85.3496
 -85.3512
 -85.3523
 -85.3568
 -85.4341
 -85.4343
 -85.4311
 -85.4296
 -85.4237
 -85.4229
 -85.4272
 -85.4331
 -85.4272
 -85.4299
 -85.4287
 -83.1332
 -83.1682
 -85.4087
 -85.407
 -85.4064
 -85.2629
 -85.2628
 -85.2599
 -85.2698
 -85.4005
 -85.3985
 -85.4003
 -85.3967
 -85.359
 -85.3939
 -85.3893
 -85.3939
 -85.3928
 -85.4401
 -85.4343
 -85.4363
 -85.4397
 -85.3918
 -85.395
 -85.3992
 -85.3926
 -85.3112
 -85.3145
 -85.3033
 -85.3196
 -85.2257
 -85.2272
 -85.2235
 -85.2283
 -85.4567
 -85.454
 -85.4569
 -85.4561
 -85.4014
 -85.4
 -85.4025
 -85.3981
 -85.4543
 -85.4534
 -85.4537
 -85.4553
 -85.2673
 -85.253
 -85.2679
 -85.2699
 -85.3536
 -85.3509
 -85.4399
 -85.444
 -85.4399
 -85.4417
 -85.3568
 -85.3573
 -85.357
 -85.3626
 -85.3384
 -85.3437
 -85.3582
 -85.3583
 -85.3636
 -85.3577
 -85.426
 -85.426
 -85.4247
 -85.4288
 -85.2921
 -85.2831
 -85.2791
 -85.2872
 -84.9566
 -84.9743
 -84.9485
 -84.9445
 -85.1868
 -85.181
 -85.1831
 -85.1789
 -85.2787
 -85.2859
 -85.2874
 -85.2797
 -85.3178
 -85.309
 -85.3145
 -85.3327
 -85.3234
 -85.3288
 -85.33
 -85.3532
 -85.3507
 -85.3478
 -85.3533
 -84.9654
 -84.9802
 -84.9855
 -85.3088
 -85.2996
 -85.3103
 -85.3076
 -85.3624
 -85.3674
 -85.3667
 -85.3604
 -85.2515
 -85.2376
 -85.2533
 -85.2394
 -85.2892
 -85.295
 -85.2946
 -85.2934
 -85.3662
 -85.3656
 -85.3692
 -85.3728
 -85.3519
 -85.3466
 -85.3511
 -85.35
 -85.3967
 -85.3947
 -85.3956
 -85.3938
 -85.1693
 -85.1735
 -85.1769
 -85.419
 -85.4167
 -85.4212
 -85.4179
 -85.2533
 -85.2631
 -85.2538
 -85.2473
 -85.3226
 -85.321
 -85.3167
 -85.3253
 -85.3316
 -85.338
 -85.3387
 -85.3735
 -85.3739
 -85.3755
 -85.3787
 -85.3904
 -85.3904
 -85.3936
 -85.3881
 -85.3946
 -85.3967
 -85.3993
 -85.4274
 -85.4281
 -85.4289
 -85.391
 -85.3889
 -85.386
 -85.3879
 -85.427
 -85.4283
 -85.4245
 -85.4374
 -85.4375
 -85.437
 -85.4346
 -85.3345
 -85.3222
 -85.3305
 -85.3259
 -85.2648
 -85.2587
 -85.2709
 -85.2621
 -85.2434
 -85.4268
 -85.4257
 -85.4308
 -85.425
 -85.4277
 -85.4214
 -82.7861
 -82.7175
 -82.7983
 -82.908
 -85.4102
 -85.407
 -85.3179
 -85.317
 -85.325
 -85.4537
 -85.4556
 -85.3763
 -85.3699
 -85.3721
 -85.3739
 -85.3133
 -85.3168
 -85.317
 -85.4116
 -85.4181
 -85.4151
 -85.4167
 -85.2765
 -85.2791
 -85.2731
 -85.2843
 -83.7865
 -83.8799
 -83.8592
 -83.7262
 -85.3715
 -85.3723
 -85.3712
 -85.3762
 -85.423
 -85.4294
 -85.4238
 -85.416
 -85.4151
 -85.4165
 -85.4136
 -85.2466
 -85.2337
 -85.232
 -85.2276
 -85.2708
 -85.276
 -85.1822
 -85.1956
 -85.1758
 -85.4523
 -85.45
 -85.4203
 -85.4163
 -85.4203
 -85.4163
 -85.3549
 -85.3611
 -85.3592
 -85.4091
 -85.4049
 -85.4127
 -85.4117
 -85.2505
 -85.2298
 -85.2334
 -85.2437
 -85.3418
 -85.3406
 -85.3469
 -85.3481
 -85.3421
 -85.3458
 -85.3476
 -85.3428
 -85.2228
 -85.227
 -85.2128
 -85.2714
 -85.2639
 -85.2706
 -85.2682
 -85.4608
 -85.4621
 -85.4613
 -85.4631
 -85.0973
 -85.063
 -85.4354
 -85.4379
 -85.4373
 -85.4354
 -85.3272
 -85.3337
 -85.3308
 -85.3271
 -85.3639
 -85.3674
 -85.3671
 -85.3683
 -85.1894
 -85.1952
 -85.3467
 -85.3427
 -85.3426
 -85.3384
 -85.3183
 -85.3155
 -85.313
 -85.321
 -85.4237
 -85.4234
 -85.4222
 -85.4244
 -85.3326
 -85.3387
 -85.3387
 -85.3317
 -85.2756
 -85.2772
 -85.3822
 -85.3824
 -85.3796
 -85.383
 -85.4007
 -85.3999
 -85.4031
 -85.3544
 -85.3601
 -85.358
 -85.3614
 -85.2239
 -85.2312
 -85.2206
 -85.2359
 -83.8287
 -83.981
 -83.9515
 -83.7979
 -85.339
 -85.3363
 -85.3426
 -85.348
 -85.3673
 -85.3728
 -85.3676
 -85.3682
 -85.3114
 -85.3153
 -85.3077
 -85.3092
 -85.2634
 -85.2589
 -85.2674
 -85.271
 -85.4251
 -85.4276
 -85.3813
 -85.3789
 -85.3766
 -84.7346
 -84.7039
 -84.6688
 -84.7571
 -85.2417
 -85.2329
 -85.2439
 -85.2266
 -85.3579
 -85.3585
 -85.3567
 -85.3536
 -85.4253
 -85.4265
 -85.4261
 -85.3271
 -85.3232
 -85.3159
 -85.3163
 -85.2679
 -85.2784
 -85.2743
 -85.2676
 -85.4046
 -85.3993
 -85.3993
 -85.402
 -85.3727
 -85.3714
 -85.3692
 -85.3694
 -85.4141
 -85.4147
 -85.4141
 -85.4127
 -85.413
 -85.4136
 -85.4127
 -85.3053
 -85.3082
 -85.3003
 -85.2991
 -85.3347
 -85.3307
 -85.3365
 -84.167
 -84.1974
 -84.2032
 -84.1202
 -85.2782
 -85.2792
 -85.0777
 -85.0624
 -85.0906
 -85.1083
 -85.2308
 -85.1969
 -85.4306
 -85.2781
 -85.2701
 -85.2753
 -85.2668
 -85.4569
 -85.3807
 -85.3778
 -85.3803
 -85.3747
 -85.2732
 -85.2781
 -85.2747
 -85.307
 -85.3141
 -85.3139
 -85.4179
 -85.4187
 -85.4142
 -85.4184
 -85.42
 -85.4181
 -85.4204
 -85.4178
 -85.2084
 -85.1916
 -85.1922
 -85.2029
 -85.444
 -85.4441
 -85.4461
 -85.4423
 -85.3435
 -85.3385
 -85.3322
 -85.4186
 -85.4206
 -85.42
 -85.3617
 -85.3572
 -85.3588
 -85.3627
 -85.2779
 -85.2825
 -85.2737
 -85.2755
 -85.3685
 -85.3752
 -85.3679
 -85.2901
 -85.2944
 -85.2936
 -85.2863
 -85.3265
 -85.335
 -85.421
 -85.4238
 -85.4246
 -85.4275
 -85.4309
 -85.4349
 -85.4324
 -85.4317
 -85.2011
 -85.2139
 -85.2014
 -85.2184
 -85.4003
 -85.3949
 -85.3983
 -85.4018
 -85.3776
 -85.3704
 -85.3758
 -85.3802
 -85.3169
 -85.3098
 -85.3203
 -85.3146
 -85.4266
 -85.4246
 -85.4237
 -85.4215
 -85.3301
 -85.3227
 -85.3341
 -85.3295
 -85.3452
 -85.3424
 -85.342
 -85.3505
 -85.324
 -85.3196
 -85.3253
 -85.3261
 -85.2399
 -85.2527
 -85.1915
 -85.2015
 -85.209
 -85.192
 -85.0241
 -84.9797
 -85.0244
 -85.0338
 -85.3792
 -85.3787
 -85.3767
 -85.3825
 -85.3677
 -85.3643
 -85.3626
 -85.448
 -85.4484
 -85.4485
 -85.4483
 -85.4512
 -85.4531
 -85.4501
 -85.4353
 -85.4369
 -85.4326
 -85.365
 -85.3709
 -85.3734
 -85.3664
 -85.3934
 -85.3954
 -85.3976
 -85.3907
 -85.4212
 -85.424
 -85.4224
 -85.4246
 -85.2812
 -85.273
 -85.2751
 -85.2792
 -85.1219
 -85.1376
 -85.1481
 -85.1482
 -85.4548
 -85.4556
 -85.4523
 -85.4571
 -85.2585
 -85.2559
 -85.2494
 -85.259
 -85.3543
 -85.3535
 -85.3565
 -85.3524
 -85.4565
 -85.4564
 -85.4532
 -85.4587
 -85.3789
 -85.374
 -85.3808
 -85.379
 -85.3224
 -85.3198
 -85.3236
 -85.3201
 -85.2684
 -85.2617
 -85.2634
 -85.1921
 -85.206
 -85.1977
 -85.1899
 -85.2453
 -85.2433
 -85.2471
 -85.242
 -85.2015
 -85.2094
 -85.248
 -85.2553
 -85.2347
 -85.4121
 -85.4094
 -85.4091
 -85.4085
 -85.4453
 -85.4441
 -85.4444
 -85.4443
 -85.3901
 -85.388
 -85.3903
 -85.3842
 -85.328
 -85.4275
 -85.429
 -85.4288
 -85.4261
 -85.2208
 -85.2208
 -85.22
 -85.2192
 -85.4473
 -85.4485
 -85.4469
 -85.4502
 -85.2932
 -85.2911
 -85.3008
 -85.4005
 -85.173
 -85.1699
 -85.1557
 -85.2475
 -85.2392
 -85.231
 -85.2505
 -85.3522
 -85.352
 -85.3436
 -85.3506
 -85.4077
 -85.4074
 -85.4046
 -85.4107
 -85.3279
 -85.4
 -85.3977
 -85.3976
 -85.333
 -85.333
 -85.3336
 -85.3399
 -85.2922
 -85.2941
 -85.2888
 -85.2879
 -85.3079
 -85.3001
 -85.3056
 -85.3082
 -85.4016
 -85.2634
 -85.2659
 -85.2685
 -85.4108
 -85.4082
 -85.4124
 -85.4097
 -85.4265
 -85.4254
 -85.4296
 -85.4241
 -85.4422
 -85.4438
 -85.4418
 -85.2874
 -85.2881
 -85.2832
 -85.2872
 -85.1475
 -85.1384
 -85.1483
 -85.4168
 -85.4169
 -85.4241
 -85.4227
 -85.4211
 -85.4208
 -85.3326
 -85.3358
 -85.3387
 -85.4497
 -85.4494
 -85.4514
 -85.4493
 -85.4256
 -85.4248
 -85.4263
 -85.4271
 -85.3844
 -85.3859
 -85.3879
 -85.3894
 -85.3602
 -85.3619
 -85.358
 -85.3537
 -85.2692
 -85.2693
 -85.2662
 -85.2718
 -85.4234
 -85.4235
 -85.4214
 -85.4258
 -85.2908
 -85.2933
 -85.2825
 -85.3136
 -85.3192
 -85.3212
 -85.3217
 -85.4434
 -85.4424
 -85.4462
 -85.4447
 -85.3976
 -85.3979
 -85.3972
 -85.395
 -85.4518
 -85.4501
 -85.4476
 -85.4511
 -85.3028
 -85.3068
 -85.3101
 -85.309
 -85.3571
 -85.3578
 -85.3529
 -85.3621
 -85.4334
 -85.4327
 -85.4351
 -85.4339
 -85.3494
 -85.3533
 -85.3456
 -85.3473
 -85.4521
 -85.4541
 -85.4522
 -85.2788
 -85.2753
 -85.2757
 -85.277
 -85.3694
 -85.3694
 -85.3665
 -85.3643
 -85.3791
 -85.3827
 -85.3791
 -85.3805
 -85.3408
 -85.3385
 -85.3473
 -85.3401
 -85.4266
 -85.4267
 -85.4303
 -85.4274
 -85.3413
 -85.3342
 -85.3386
 -85.3371
 -85.3796
 -85.3783
 -85.3781
 -85.3764
 -85.2158
 -85.2159
 -85.2149
 -85.2158
 -85.4171
 -85.4177
 -85.4147
 -85.4128
 -85.188
 -85.1869
 -85.1869
 -85.2737
 -85.2692
 -85.2691
 -85.2742
 -85.2138
 -85.222
 -85.2439
 -85.2245
 -85.4044
 -85.4037
 -85.4061
 -85.4084
 -85.3894
 -85.3946
 -85.3899
 -85.3915
 -85.2884
 -85.2801
 -85.2824
 -85.2763
 -85.4595
 -85.4581
 -85.4566
 -84.2206
 -84.1947
 -85.3776
 -85.3805
 -85.3749
 -85.3781
 -84.8439
 -84.7691
 -84.6887
 -84.739
 -85.3889
 -85.3905
 -85.3948
 -85.3921
 -85.3154
 -85.2966
 -85.2925
 -85.2912
 -85.2864
 -85.4105
 -85.4109
 -85.4118
 -85.4135
 -85.4355
 -85.4332
 -85.4371
 -85.4346
 -85.2157
 -85.2154
 -85.3988
 -85.401
 -85.4068
 -85.4007
 -85.3653
 -85.3557
 -85.367
 -85.3617
 -85.2549
 -85.2535
 -85.2495
 -85.2665
 -85.3413
 -85.3347
 -85.3341
 -85.3409
 -85.4208
 -85.4169
 -85.4255
 -85.4467
 -85.4459
 -85.446
 -85.4457
 -85.455
 -85.4551
 -85.4561
 -85.298
 -85.2942
 -85.2946
 -85.3006
 -85.4356
 -85.434
 -85.4324
 -85.4324
 -85.2352
 -85.2295
 -85.2317
 -85.2327
 -85.3885
 -85.3857
 -85.3889
 -85.3828
 -85.3671
 -85.373
 -85.3681
 -85.368
 -85.4459
 -85.4461
 -85.4457
 -85.4474
 -85.3951
 -85.3966
 -85.3945
 -85.3917
 -84.5806
 -84.534
 -84.5414
 -84.5977
 -85.3263
 -85.3144
 -85.3245
 -85.3198
 -85.2946
 -85.3008
 -85.3035
 -85.2913
 -85.4067
 -85.4076
 -85.4042
 -85.4023
 -85.2438
 -85.2387
 -85.2372
 -85.2371
 -85.375
 -85.3716
 -85.3705
 -85.3761
 -85.2774
 -85.2744
 -85.2689
 -85.055
 -85.0495
 -85.0217
 -85.042
 -85.3733
 -85.3783
 -85.3718
 -85.3843
 -85.3842
 -85.3823
 -85.2614
 -85.2559
 -85.2499
 -85.2234
 -85.2233
 -85.2271
 -85.2318
 -85.4337
 -82.5656
 -82.6459
 -82.5904
 -82.4681
 -85.4256
 -85.424
 -85.428
 -85.4253
 -85.1787
 -85.3092
 -85.3075
 -85.3075
 -85.3142
 -85.2966
 -85.2899
 -85.3068
 -85.2228
 -85.2415
 -85.2325
 -85.2301
 -84.7718
 -84.7751
 -84.8177
 -84.7179
 -85.2318
 -85.2375
 -85.2358
 -85.362
 -85.3595
 -85.3591
 -85.3006
 -85.2977
 -85.4622
 -85.4598
 -85.4596
 -85.2154
 -85.2278
 -85.2122
 -85.299
 -85.3044
 -85.3076
 -85.4351
 -85.4381
 -85.438
 -85.41
 -85.4101
 -85.4131
 -85.4108
 -85.2579
 -85.2605
 -85.2652
 -85.1773
 -85.1652
 -85.4449
 -85.4434
 -85.4466
 -85.4456
 -84.9127
 -84.9189
 -84.8516
 -84.947
 -85.2031
 -85.1992
 -83.8176
 -83.7202
 -84.4804
 -84.4685
 -84.4857
 -85.3069
 -85.3134
 -85.3051
 -85.4421
 -85.4393
 -85.4368
 -85.397
 -85.3966
 -85.4
 -85.2723
 -85.266
 -85.2738
 -85.2787
 -85.2713
 -85.4311
 -85.1836
 -85.1833
 -85.1879
 -85.1879
 -85.2997
 -85.3121
 -85.3017
 -85.3055
 -85.4066
 -85.407
 -85.4096
 -85.3944
 -85.3953
 -85.3926
 -85.3936
 -85.3066
 -85.3039
 -85.3113
 -85.3176
 -85.4023
 -85.4029
 -85.4072
 -85.4067
 -85.4117
 -85.4094
 -85.4113
 -85.4148
 -85.3446
 -85.3996
 -85.4022
 -85.4021
 -85.4037
 -85.4508
 -85.4521
 -85.4504
 -85.4493
 -85.236
 -85.2162
 -85.211
 -85.224
 -85.4458
 -85.4486
 -85.4474
 -85.4469
 -83.5889
 -83.7515
 -83.6088
 -85.4413
 -85.4395
 -85.444
 -85.4432
 -85.241
 -85.2388
 -85.2279
 -85.2281
 -85.4194
 -85.4158
 -85.4185
 -85.4211
 -85.2137
 -85.2148
 -85.1846
 -85.1915
 -85.4505
 -85.4181
 -85.4138
 -85.4161
 -85.4126
 -85.434
 -85.4362
 -85.4358
 -85.1726
 -85.1791
 -85.1706
 -85.1666
 -85.4031
 -85.4006
 -85.4
 -85.3978
 -85.374
 -85.3794
 -85.3795
 -85.3771
 -85.3656
 -85.3681
 -85.3631
 -85.3617
 -85.459
 -85.4566
 -85.3178
 -85.3178
 -85.3164
 -85.3092
 -85.3156
 -85.3187
 -85.3202
 -85.4015
 -85.3982
 -85.4044
 -85.4058
 -85.3969
 -85.3984
 -85.3979
 -85.4018
 -85.3764
 -85.3784
 -85.3803
 -85.3747
 -85.2576
 -85.2547
 -85.2845
 -85.2802
 -85.2794
 -85.3019
 -85.307
 -85.3068
 -85.3073
 -85.1062
 -85.0841
 -85.1006
 -85.0952
 -85.3013
 -85.2917
 -85.2862
 -84.725
 -84.7335
 -84.7732
 -85.2993
 -85.2993
 -85.2924
 -85.3046
 -85.2447
 -85.2552
 -85.2374
 -85.3419
 -85.4044
 -85.4017
 -85.4071
 -85.3196
 -85.3193
 -85.3241
 -85.3268
 -85.2034
 -85.2028
 -85.233
 -85.2195
 -85.3514
 -85.3563
 -85.3572
 -85.3571
 -85.4157
 -85.4133
 -85.459
 -85.4574
 -85.4563
 -85.459
 -85.4023
 -85.4031
 -85.405
 -85.3999
 -85.3279
 -85.3269
 -85.3262
 -85.3306
 -85.4503
 -85.4507
 -85.4547
 -85.4487
 -85.4495
 -85.4503
 -85.4512
 -85.3553
 -85.3497
 -85.3461
 -85.3522
 -85.2246
 -85.2226
 -85.2278
 -85.3162
 -85.3165
 -85.324
 -85.3161
 -85.1079
 -85.0939
 -85.1229
 -85.0851
 -85.3886
 -85.3891
 -85.3903
 -85.3796
 -85.2188
 -85.2188
 -85.2184
 -85.2202
 -85.2678
 -85.2714
 -85.2737
 -85.2711
 -85.4428
 -85.4394
 -85.4439
 -85.4404
 -85.3499
 -85.3506
 -85.3453
 -85.3509
 -85.298
 -85.2941
 -85.3001
 -85.2942
 -85.41
 -85.4099
 -85.4123
 -85.4181
 -85.416
 -85.4153
 -85.3092
 -85.318
 -85.3147
 -85.3249
 -85.3282
 -85.3325
 -85.3304
 -85.3307
 -85.2214
 -85.228
 -85.2207
 -85.3025
 -85.2975
 -85.2929
 -83.0925
 -82.9611
 -83.1196
 -83.0222
 -85.2734
 -85.2753
 -85.1558
 -85.1619
 -85.1549
 -85.1333
 -85.3662
 -85.3605
 -85.3655
 -85.3594
 -84.7996
 -84.8734
 -84.8882
 -84.845
 -85.2477
 -85.2462
 -85.2393
 -85.395
 -85.3957
 -85.3947
 -85.3928
 -85.2266
 -85.2371
 -85.2229
 -85.1658
 -85.1685
 -85.1441
 -85.1579
 -85.2906
 -85.2877
 -85.2877
 -85.2964
 -85.4097
 -85.4184
 -84.5061
 -84.5511
 -85.2639
 -85.2584
 -85.3327
 -85.3267
 -85.3293
 -85.3275
 -85.3883
 -85.3923
 -85.389
 -85.3937
 -85.3389
 -85.3399
 -85.3429
 -85.3437
 -85.122
 -85.0847
 -85.1034
 -85.1101
 -85.3709
 -85.3659
 -85.3676
 -85.2249
 -85.2176
 -85.221
 -85.2193
 -85.436
 -85.4349
 -85.4379
 -85.4337
 -85.3916
 -85.3919
 -85.3927
 -85.388
 -85.2366
 -85.2411
 -85.234
 -85.3267
 -85.3186
 -85.3259
 -85.3285
 -85.1639
 -85.1551
 -85.1618
 -85.2222
 -85.2377
 -85.2326
 -85.2268
 -85.2443
 -85.2427
 -85.2508
 -85.2451
 -85.3281
 -85.3217
 -85.3214
 -85.3181
 -85.4504
 -85.4492
 -85.4479
 -85.4484
 -85.3786
 -85.3839
 -85.3813
 -85.3834
 -85.3195
 -85.3105
 -85.3166
 -85.3573
 -85.355
 -85.3542
 -85.4333
 -85.4287
 -85.4331
 -85.4302
 -85.3786
 -85.3783
 -85.3748
 -85.381
 -85.3159
 -85.3223
 -85.3213
 -85.3237
 -85.1233
 -85.1211
 -85.2364
 -85.2328
 -85.2398
 -85.2396
 -84.1372
 -84.0857
 -83.937
 -84.0869
 -85.4073
 -85.4076
 -85.4077
 -85.4055
 -85.2446
 -85.2355
 -85.2373
 -85.2365
 -85.3411
 -85.3365
 -85.3391
 -85.3321
 -85.0675
 -85.0506
 -85.0578
 -85.0521
 -85.3601
 -85.3584
 -85.3562
 -85.3557
 -85.3242
 -85.3991
 -85.399
 -85.3942
 -85.3953
 -85.3154
 -85.3062
 -85.3049
 -85.3115
 -85.3038
 -85.309
 -85.3145
 -85.3108
 -85.2835
 -85.274
 -85.2753
 -85.2743
 -85.2174
 -85.2064
 -85.2236
 -85.4204
 -85.4209
 -85.4218
 -85.4151
 -85.3083
 -85.3067
 -85.3066
 -85.304
 -85.4167
 -85.4178
 -85.4209
 -85.3937
 -85.39
 -85.3926
 -85.3916
 -85.4111
 -85.4166
 -85.414
 -85.4174
 -85.1376
 -85.1556
 -85.1325
 -82.4685
 -82.5469
 -82.5652
 -85.3948
 -85.4001
 -85.399
 -85.3606
 -85.3691
 -85.3655
 -85.3713
 -85.2971
 -85.2994
 -85.3024
 -85.2942
 -85.3197
 -85.3206
 -85.3118
 -85.3139
 -84.6084
 -84.6516
 -84.5251
 -84.6661
 -85.3402
 -85.3375
 -85.3365
 -85.3361
 -85.375
 -85.3765
 -85.3789
 -85.3721
 -85.2361
 -85.2401
 -85.2674
 -85.2535
 -85.2605
 -85.2615
 -85.3967
 -85.3936
 -85.3961
 -85.3951
 -85.2449
 -85.252
 -85.3809
 -85.3786
 -85.1368
 -82.8179
 -82.7954
 -82.8312
 -82.9792
 -85.0232
 -85.056
 -85.4547
 -85.4575
 -85.4553
 -85.0903
 -85.1125
 -85.1328
 -85.1136
 -85.4015
 -85.4003
 -85.2699
 -85.2678
 -85.2689
 -85.2699
 -85.286
 -85.3002
 -85.2962
 -85.4001
 -85.4031
 -85.401
 -85.4053
 -85.3825
 -85.3872
 -85.3825
 -85.3848
 -85.4252
 -85.426
 -85.4296
 -85.3218
 -85.3151
 -85.3226
 -85.3139
 -85.3414
 -85.4253
 -85.4206
 -85.4244
 -85.4235
 -85.1835
 -85.1823
 -85.1846
 -85.1897
 -85.355
 -85.349
 -85.3529
 -85.3474
 -85.4074
 -85.4025
 -85.4061
 -85.4029
 -83.5898
 -83.6618
 -83.7154
 -83.773
 -85.2327
 -85.4503
 -85.304
 -85.3126
 -85.3064
 -85.2997
 -85.3511
 -85.3547
 -85.3483
 -85.3473
 -85.2408
 -85.2276
 -85.2345
 -85.2384
 -85.3623
 -85.3601
 -85.3626
 -85.3636
 -85.2297
 -85.2308
 -85.2371
 -85.2036
 -85.2107
 -85.2182
 -85.211
 -85.3156
 -85.3207
 -85.31
 -85.3159
 -85.4075
 -85.4099
 -85.4028
 -85.4586
 -85.4607
 -85.4589
 -85.4582
 -84.5885
 -84.5416
 -84.5078
 -85.3372
 -85.3381
 -85.3212
 -85.3238
 -85.3173
 -85.327
 -85.4398
 -85.4386
 -85.4394
 -85.4408
 -85.3953
 -85.3921
 -85.3945
 -85.3912
 -85.214
 -85.2297
 -85.2201
 -84.9774
 -85.3144
 -85.3085
 -85.31
 -85.3155
 -85.3283
 -85.331
 -85.3297
 -85.3924
 -85.3905
 -85.3902
 -85.3937
 -85.4105
 -85.4056
 -85.409
 -85.4069
 -85.3058
 -85.3022
 -85.3982
 -85.3977
 -85.4004
 -85.4033
 -85.3661
 -85.3646
 -85.365
 -85.3696
 -85.4479
 -85.449
 -85.374
 -85.3694
 -85.3748
 -85.3722
 -85.3988
 -85.4007
 -85.4021
 -85.403
 -85.3925
 -85.3952
 -85.3921
 -85.3929
 -85.3378
 -85.3402
 -85.3195
 -85.3227
 -85.317
 -85.3134
 -85.2808
 -85.2741
 -85.2784
 -85.2784
 -85.3636
 -85.367
 -85.3673
 -85.3632
 -85.2088
 -85.2175
 -85.2217
 -85.226
 -85.2404
 -85.2384
 -85.2343
 -85.2388
 -84.3723
 -84.3794
 -84.3626
 -84.2723
 -85.2792
 -85.2674
 -85.3563
 -85.349
 -85.3552
 -85.3518
 -85.3044
 -85.3014
 -85.3084
 -85.3117
 -85.3466
 -85.3499
 -85.3517
 -85.3489
 -85.3242
 -85.3237
 -85.399
 -85.3969
 -85.4547
 -85.4554
 -85.4553
 -85.4562
 -85.1261
 -85.3201
 -85.32
 -85.3223
 -85.3265
 -85.3494
 -85.3432
 -85.3447
 -85.3443
 -85.2643
 -85.2585
 -85.2557
 -85.2485
 -85.3893
 -85.384
 -85.3894
 -85.3846
 -85.3487
 -85.3448
 -85.3427
 -85.3483
 -85.2284
 -85.2264
 -85.2316
 -85.217
 -85.2142
 -85.2934
 -85.3045
 -85.2952
 -85.304
 -85.2956
 -85.308
 -85.297
 -85.2931
 -85.22
 -85.2197
 -85.2115
 -85.2187
 -85.2424
 -85.2473
 -85.2604
 -85.2558
 -85.3203
 -85.3256
 -85.3148
 -85.3143
 -85.2346
 -85.2309
 -85.2286
 -85.231
 -85.3592
 -85.3617
 -85.3543
 -85.2776
 -85.2772
 -85.2766
 -85.2744
 -84.9119
 -84.9467
 -85.3566
 -85.3597
 -85.3616
 -85.3542
 -85.3608
 -85.3579
 -85.3607
 -85.1745
 -85.1831
 -85.1895
 -85.1406
 -85.1481
 -85.1477
 -85.1388
 -85.3785
 -85.3782
 -85.3804
 -85.3751
 -85.3511
 -85.3434
 -85.3518
 -85.4157
 -85.4102
 -85.4124
 -85.3306
 -85.3251
 -85.3265
 -85.4248
 -85.4253
 -85.4252
 -83.9221
 -83.8376
 -83.8943
 -83.9308
 -85.4489
 -85.4496
 -85.4484
 -85.4497
 -85.2825
 -85.2764
 -85.365
 -85.3585
 -85.2027
 -85.2065
 -85.2065
 -85.2168
 -85.3719
 -85.3708
 -85.3764
 -85.402
 -85.4052
 -85.4049
 -85.4056
 -85.4232
 -85.4182
 -85.189
 -85.1898
 -85.1877
 -85.3587
 -85.3573
 -85.3529
 -85.2649
 -85.2551
 -85.2642
 -85.155
 -85.1584
 -85.15
 -85.1385
 -85.3147
 -85.3164
 -85.3103
 -85.3184
 -85.3053
 -85.2972
 -85.3008
 -85.3036
 -85.385
 -85.3832
 -85.3831
 -85.388
 -85.401
 -85.3989
 -85.4004
 -85.3962
 -85.2935
 -85.2898
 -85.2996
 -85.3792
 -85.3785
 -85.3757
 -85.3947
 -85.3979
 -85.3949
 -85.3954
 -85.4621
 -85.4612
 -85.4627
 -85.3407
 -85.3398
 -85.3394
 -85.39
 -85.3924
 -85.3868
 -85.3318
 -85.3361
 -85.3286
 -85.2729
 -85.2629
 -85.2639
 -85.1894
 -85.1985
 -85.1922
 -85.1924
 -85.3309
 -85.3336
 -85.34
 -85.3349
 -85.2521
 -85.2466
 -85.2372
 -85.2118
 -85.2211
 -85.3895
 -85.3867
 -85.3933
 -85.3894
 -85.3897
 -85.3926
 -85.3887
 -85.3852
 -85.2209
 -85.231
 -85.2359
 -85.2399
 -85.2215
 -85.2142
 -85.2163
 -85.2122
 -85.0429
 -85.0295
 -85.046
 -85.0213
 -85.4373
 -85.4388
 -85.4195
 -85.4154
 -85.4173
 -85.4197
 -85.4473
 -85.2704
 -85.2787
 -85.2674
 -85.3454
 -85.3477
 -85.3427
 -85.3422
 -85.2327
 -85.2301
 -85.3267
 -85.3268
 -85.3301
 -85.1664
 -85.1723
 -85.4138
 -85.4144
 -85.4178
 -85.4118
 -85.4266
 -85.426
 -85.431
 -85.4289
 -85.4063
 -85.4075
 -85.4031
 -85.2811
 -85.2869
 -85.2861
 -85.4235
 -85.4233
 -85.4247
 -85.4257
 -85.2561
 -85.2427
 -85.2531
 -85.2574
 -85.4097
 -85.4072
 -85.4071
 -85.4096
 -85.2516
 -85.2365
 -85.2328
 -85.2563
 -85.1648
 -85.1736
 -85.1554
 -85.4479
 -85.4522
 -85.4498
 -85.4493
 -85.2226
 -85.225
 -85.2241
 -85.315
 -85.3188
 -85.322
 -85.3181
 -85.4414
 -85.4445
 -85.4428
 -85.2412
 -85.2307
 -85.2355
 -85.2275
 -85.377
 -85.4349
 -85.4366
 -85.4304
 -85.4342
 -85.174
 -85.1769
 -85.1824
 -85.1774
 -85.393
 -85.3863
 -85.3909
 -85.3932
 -85.3434
 -85.3457
 -85.3363
 -85.1643
 -85.1461
 -85.1655
 -85.1225
 -85.3826
 -85.3823
 -85.3849
 -85.2431
 -85.2407
 -84.0749
 -83.991
 -84.146
 -84.1647
 -85.019
 -84.9477
 -84.9344
 -85.4254
 -85.4238
 -85.4321
 -85.4274
 -85.4271
 -85.4288
 -85.1012
 -85.1138
 -85.0811
 -85.1158
 -85.3064
 -85.3104
 -85.3105
 -85.3111
 -85.3267
 -85.3181
 -85.3192
 -85.3227
 -85.3526
 -85.3509
 -85.357
 -85.3508
 -85.358
 -85.3495
 -85.3555
 -85.3516
 -85.4409
 -85.2275
 -85.2248
 -85.2281
 -85.2255
 -85.4435
 -85.4421
 -85.4451
 -85.3636
 -85.358
 -85.3562
 -85.3578
 -85.1847
 -85.197
 -85.1993
 -85.3469
 -85.3418
 -85.346
 -85.3411
 -85.3338
 -85.384
 -85.3857
 -85.3899
 -85.3885
 -85.2667
 -85.2676
 -85.2666
 -85.3356
 -85.3461
 -85.3434
 -85.444
 -85.4425
 -85.44
 -85.4423
 -85.3272
 -85.3233
 -85.3229
 -83.7307
 -83.8109
 -83.6286
 -85.3276
 -85.3232
 -85.3262
 -85.3177
 -85.3872
 -85.3911
 -85.3905
 -85.3403
 -85.3398
 -85.425
 -85.4261
 -85.4232
 -85.4234
 -85.4068
 -85.4098
 -85.4076
 -85.4076
 -85.4511
 -85.4505
 -85.4487
 -85.4477
 -85.3569
 -85.3469
 -85.3541
 -85.3568
 -85.3969
 -85.3962
 -85.3943
 -85.3919
 -85.4252
 -85.4274
 -85.4293
 -85.2585
 -85.2634
 -85.2506
 -85.2546
 -85.3183
 -85.325
 -85.2923
 -85.2875
 -85.2943
 -85.2907
 -85.3884
 -85.3871
 -85.388
 -85.3901
 -85.3276
 -85.334
 -85.3308
 -85.3267
 -85.3868
 -85.3848
 -85.3907
 -85.3859
 -85.3382
 -85.3406
 -85.3435
 -85.3452
 -85.3343
 -85.3285
 -85.3301
 -85.4207
 -85.4183
 -85.4207
 -85.4376
 -85.4367
 -85.4361
 -85.4412
 -85.4311
 -85.4306
 -85.433
 -85.3992
 -85.4035
 -85.3996
 -84.4961
 -84.4199
 -84.3907
 -85.3184
 -85.3263
 -85.32
 -85.4184
 -85.4202
 -85.4188
 -85.418
 -85.3177
 -85.3208
 -85.3171
 -85.3575
 -85.3611
 -85.3587
 -85.3555
 -85.3758
 -85.3653
 -85.3695
 -85.3682
 -85.3344
 -85.3387
 -85.3385
 -85.3428
 -85.2375
 -85.244
 -85.2386
 -85.2357
 -85.3203
 -85.3579
 -85.3581
 -85.3609
 -85.3513
 -85.2203
 -85.2221
 -85.2232
 -85.2227
 -85.1747
 -85.1849
 -85.1771
 -85.1827
 -85.2189
 -85.2172
 -85.2215
 -85.2106
 -85.3789
 -85.3793
 -85.3837
 -85.3863
 -85.2553
 -85.249
 -85.253
 -85.2557
 -85.4502
 -85.4474
 -85.4498
 -85.4477
 -84.9272
 -84.9415
 -84.9729
 -84.9623
 -85.2351
 -85.2357
 -85.2341
 -85.1601
 -85.1535
 -85.1506
 -85.1505
 -85.1948
 -85.1878
 -85.2026
 -85.2289
 -85.23
 -85.3444
 -85.3434
 -85.3463
 -85.3552
 -85.4386
 -85.4357
 -85.4344
 -85.4374
 -85.4369
 -85.4386
 -85.436
 -85.2363
 -85.2314
 -85.4461
 -85.4486
 -85.4454
 -85.4214
 -85.4207
 -85.4211
 -85.4244
 -85.1969
 -85.1924
 -85.1961
 -85.45
 -85.4508
 -85.4489
 -85.4517
 -85.2827
 -85.2854
 -85.2907
 -85.2788
 -85.2236
 -85.2091
 -85.2134
 -85.2237
 -85.1585
 -85.1751
 -85.1681
 -85.1649
 -84.7826
 -84.7813
 -84.753
 -84.7494
 -85.3688
 -85.3771
 -85.3739
 -85.3753
 -85.2934
 -85.2946
 -85.291
 -85.2824
 -85.448
 -85.4457
 -85.448
 -83.425
 -83.6186
 -83.5158
 -83.6766
 -85.0257
 -85.0603
 -85.0367
 -85.0684
 -85.4482
 -85.4514
 -85.4498
 -85.4495
 -85.3395
 -85.34
 -85.3455
 -85.4297
 -85.4339
 -85.4348
 -85.2116
 -85.2082
 -85.1905
 -85.4485
 -85.4471
 -85.4462
 -85.4477
 -85.4205
 -85.4185
 -85.4177
 -85.4148
 -85.2651
 -85.2703
 -85.276
 -85.2687
 -85.2938
 -85.2858
 -85.2918
 -85.2815
 -85.4085
 -85.4086
 -85.4087
 -85.4128
 -85.3522
 -85.3495
 -85.3453
 -85.348
 -84.8232
 -84.8729
 -84.8877
 -84.8516
 -85.4249
 -85.4185
 -85.4226
 -85.4207
 -85.4519
 -85.3399
 -85.3415
 -85.3457
 -85.3452
 -85.4352
 -85.4373
 -85.4362
 -85.4397
 -85.2238
 -85.2241
 -85.2247
 -85.2253
 -85.4456
 -85.4475
 -85.4443
 -85.4433
 -85.3302
 -85.3278
 -85.2976
 -85.2939
 -85.3004
 -85.3016
 -85.404
 -85.3997
 -85.3996
 -85.3998
 -85.3575
 -85.3628
 -85.3607
 -85.2918
 -85.2906
 -85.2934
 -85.4069
 -85.4059
 -85.402
 -85.4027
 -85.3948
 -85.3925
 -85.3968
 -85.3932
 -85.2318
 -85.2279
 -85.2247
 -85.3338
 -85.3464
 -85.3472
 -85.3389
 -84.9818
 -84.9231
 -84.9699
 -84.9173
 -84.8686
 -85.4486
 -85.4426
 -85.4486
 -85.4448
 -85.3445
 -85.3413
 -85.3386
 -85.3445
 -85.4283
 -85.4305
 -85.3171
 -85.3067
 -85.3087
 -85.2595
 -85.2522
 -85.2634
 -85.2613
 -85.4465
 -85.4452
 -85.4479
 -85.4476
 -85.2322
 -85.2337
 -85.2333
 -85.2672
 -85.2651
 -85.2716
 -85.2657
 -85.2897
 -85.2997
 -85.2918
 -85.2817
 -85.3864
 -85.3935
 -85.388
 -85.3905
 -85.2511
 -85.2615
 -85.2562
 -85.2543
 -85.4012
 -85.3719
 -85.3774
 -85.379
 -85.3702
 -85.4368
 -85.4378
 -85.4341
 -85.443
 -85.4419
 -85.4417
 -85.4396
 -85.3752
 -85.3784
 -85.3729
 -85.3758
 -85.4552
 -85.4549
 -85.4547
 -85.452
 -85.293
 -85.3605
 -85.3529
 -85.3536
 -85.3588
 -85.345
 -85.3355
 -85.3409
 -85.3415
 -84.7863
 -84.8462
 -84.8654
 -84.8014
 -85.323
 -85.3248
 -85.3271
 -85.3193
 -85.3161
 -85.3161
 -85.3182
 -85.3225
 -85.3221
 -85.3226
 -85.3287
 -85.4292
 -85.4265
 -85.4252
 -85.3158
 -85.3066
 -85.3093
 -85.3116
 -85.4243
 -85.429
 -85.4267
 -85.3342
 -85.3284
 -85.3511
 -85.3548
 -85.3532
 -85.347
 -85.3448
 -85.3465
 -85.3424
 -85.3437
 -85.3508
 -85.3485
 -85.4333
 -85.4346
 -85.4347
 -85.2923
 -85.4419
 -85.3561
 -85.3597
 -85.3548
 -85.3504
 -85.1703
 -85.1639
 -85.1501
 -85.2108
 -85.2224
 -85.2322
 -85.3486
 -85.3511
 -85.3444
 -85.3289
 -85.3288
 -85.3313
 -85.3349
 -85.3455
 -85.3404
 -85.3493
 -85.3416
 -83.658
 -83.701
 -83.5451
 -85.4068
 -85.4029
 -85.4059
 -85.3323
 -85.3336
 -85.4159
 -85.4111
 -85.4128
 -85.4107
 -85.3633
 -85.3677
 -85.3629
 -84.7658
 -84.823
 -84.7392
 -84.7611
 -85.3122
 -85.3052
 -85.3128
 -85.3023
 -85.243
 -85.2399
 -85.2363
 -85.2345
 -85.3849
 -85.3788
 -85.3828
 -85.3849
 -85.2797
 -85.2694
 -85.2785
 -85.2658
 -84.9697
 -84.9644
 -84.9715
 -85.29
 -85.2876
 -85.2837
 -85.286
 -85.385
 -85.3901
 -85.3878
 -85.3888
 -85.3391
 -85.3458
 -85.346
 -85.3427
 -85.2581
 -85.255
 -85.2595
 -85.3081
 -85.3023
 -85.3044
 -85.3041
 -85.2281
 -85.2161
 -85.2285
 -85.2194
 -85.1257
 -85.1472
 -85.1294
 -85.1128
 -85.4467
 -85.4479
 -85.4467
 -85.4477
 -85.2335
 -85.2394
 -85.2378
 -85.2396
 -85.2524
 -85.2468
 -85.2539
 -85.2544
 -85.3782
 -85.3831
 -85.3824
 -85.3854
 -85.2729
 -85.2738
 -85.2823
 -85.276
 -85.4607
 -85.4612
 -85.461
 -85.4617
 -85.3233
 -85.3204
 -85.3262
 -85.1993
 -85.1913
 -85.1935
 -85.2049
 -85.2305
 -85.2275
 -85.2293
 -85.2271
 -85.2144
 -85.1921
 -85.3952
 -85.3905
 -85.3946
 -85.3892
 -85.46
 -85.4587
 -85.4596
 -85.4591
 -85.3032
 -85.2966
 -85.2996
 -85.2958
 -85.2412
 -85.2375
 -85.2367
 -85.3836
 -85.3787
 -85.3792
 -85.3825
 -85.318
 -85.319
 -85.3183
 -85.3268
 -85.2571
 -85.2597
 -85.2561
 -85.2631
 -85.1883
 -85.2032
 -85.1948
 -85.4094
 -85.4136
 -85.4155
 -85.4102
 -85.423
 -85.4222
 -85.4194
 -85.3009
 -85.2965
 -85.3028
 -85.3095
 -85.3085
 -85.3068
 -85.3144
 -85.2491
 -85.2617
 -85.2675
 -85.2603
 -85.3814
 -85.3789
 -85.3762
 -85.2159
 -85.2138
 -85.2052
 -85.3402
 -85.3458
 -85.3442
 -85.4227
 -85.4185
 -85.4216
 -85.3896
 -85.3889
 -85.2887
 -85.2933
 -85.2859
 -85.2919
 -85.2947
 -85.2914
 -85.3303
 -85.3227
 -85.2538
 -85.1764
 -85.1774
 -85.1681
 -85.4261
 -85.4256
 -85.42
 -85.3004
 -85.307
 -85.3048
 -85.3003
 -85.2695
 -85.3382
 -85.341
 -85.3833
 -85.3854
 -85.3819
 -85.3866
 -85.3363
 -85.3323
 -85.3384
 -85.3032
 -85.307
 -85.2963
 -85.3027
 -85.2873
 -85.2997
 -85.3149
 -85.3087
 -85.3041
 -85.3169
 -85.4312
 -85.4279
 -85.4273
 -85.4302
 -85.4336
 -85.4356
 -85.4385
 -85.4381
 -85.2181
 -85.2257
 -85.3314
 -85.3335
 -85.3299
 -85.3237
 -85.3621
 -85.3634
 -85.3661
 -85.3679
 -85.3745
 -85.3788
 -85.3748
 -85.3735
 -85.331
 -85.326
 -85.3243
 -85.331
 -85.3174
 -85.3225
 -85.3189
 -85.3168
 -85.4216
 -85.4169
 -85.4219
 -85.4214
 -85.2111
 -85.2219
 -85.2314
 -85.2362
 -85.2287
 -85.2394
 -85.2347
 -85.4074
 -85.4109
 -85.4154
 -85.4173
 -85.2573
 -85.2636
 -85.2606
 -85.2655
 -85.4419
 -85.4399
 -85.4419
 -85.4412
 -85.4252
 -85.4233
 -85.4247
 -85.4221
 -85.2968
 -85.3005
 -85.2942
 -85.2976
 -85.391
 -85.3926
 -85.3908
 -85.3863
 -85.2636
 -85.2675
 -85.274
 -85.2755
 -85.4071
 -85.4046
 -85.4053
 -85.2336
 -85.2386
 -85.2324
 -85.2354
 -85.3702
 -85.3676
 -85.371
 -85.3729
 -85.2887
 -85.2904
 -85.4007
 -85.4073
 -85.4042
 -85.4033
 -85.4097
 -85.4088
 -85.4059
 -85.3225
 -85.3309
 -85.3241
 -85.4137
 -85.414
 -85.4157
 -85.4179
 -84.9982
 -85.0015
 -85.0272
 -85.0253
 -85.2554
 -85.2601
 -85.2645
 -85.269
 -85.3694
 -85.3629
 -85.3637
 -85.3693
 -85.4328
 -85.4339
 -85.4315
 -85.4345
 -85.4244
 -85.4275
 -85.4277
 -85.4253
 -85.4328
 -85.4321
 -85.4332
 -85.4322
 -85.4336
 -85.2691
 -85.2738
 -85.268
 -85.276
 -85.229
 -85.2312
 -85.217
 -85.2275
 -85.2735
 -85.2736
 -85.2898
 -85.2978
 -85.292
 -85.2892
 -85.3112
 -85.3104
 -85.3178
 -85.3102
 -85.2482
 -85.2483
 -85.2418
 -85.3434
 -85.3395
 -85.3404
 -85.3383
 -85.4621
 -85.4615
 -85.4599
 -85.268
 -85.2643
 -85.2689
 -85.2792
 -85.4141
 -85.4088
 -85.412
 -85.4133
 -85.3859
 -85.3908
 -85.3888
 -85.3349
 -85.3314
 -85.3376
 -85.3908
 -85.3955
 -85.3913
 -85.4212
 -85.4191
 -85.3868
 -85.3871
 -85.3867
 -85.2634
 -85.2667
 -85.2679
 -85.2594
 -85.4373
 -85.4392
 -85.4375
 -85.4365
 -85.3714
 -85.3757
 -85.3736
 -84.5809
 -84.4722
 -84.4294
 -84.5486
 -85.1581
 -85.1507
 -85.3563
 -85.2911
 -85.3026
 -85.2948
 -85.2913
 -85.3465
 -85.3529
 -85.3527
 -85.4045
 -85.4047
 -85.4018
 -85.4051
 -85.4446
 -85.4455
 -85.3363
 -85.3345
 -85.3347
 -85.3302
 -85.1282
 -85.0991
 -85.1021
 -85.1142
 -85.4264
 -85.4282
 -85.428
 -85.4266
 -85.3667
 -85.3691
 -85.3656
 -83.7664
 -83.6589
 -83.5976
 -83.6144
 -85.2332
 -85.2312
 -85.2262
 -85.2719
 -85.2795
 -85.2655
 -85.2738
 -85.3684
 -85.3693
 -85.3672
 -85.3731
 -85.3353
 -85.3396
 -85.2177
 -85.2195
 -85.2189
 -85.2192
 -85.371
 -85.3761
 -85.2778
 -85.2638
 -85.2669
 -85.2718
 -85.3032
 -85.3059
 -85.2979
 -85.3038
 -85.3387
 -85.3451
 -85.3463
 -85.3417
 -85.2595
 -85.2539
 -85.2423
 -85.3841
 -85.3788
 -85.3847
 -85.3795
 -85.409
 -85.4126
 -85.4159
 -85.4099
 -85.4038
 -85.4043
 -85.405
 -85.4079
 -85.0933
 -85.0753
 -85.0783
 -85.0581
 -85.3429
 -85.3385
 -84.3158
 -84.2552
 -84.2335
 -84.1682
 -85.3035
 -85.297
 -85.2928
 -85.4455
 -83.0431
 -83.1251
 -83.146
 -82.8761
 -85.3242
 -85.3266
 -85.3231
 -85.3233
 -85.2877
 -85.2951
 -85.2891
 -85.4059
 -85.4095
 -85.4095
 -85.4056
 -85.4078
 -85.4063
 -85.411
 -85.411
 -85.4026
 -85.4048
 -85.4012
 -85.3995
 -85.268
 -85.2743
 -85.2645
 -85.2733
 -85.2086
 -85.2048
 -85.1928
 -85.1971
 -85.3745
 -85.3753
 -85.38
 -85.3747
 -85.3051
 -85.2936
 -85.3095
 -85.3032
 -85.4587
 -85.4338
 -85.4344
 -85.364
 -85.3642
 -85.3071
 -85.3015
 -85.3032
 -85.4366
 -85.4411
 -85.4385
 -85.4373
 -85.3194
 -85.3167
 -85.3651
 -85.361
 -84.7471
 -84.8192
 -84.7559
 -84.8264
 -85.2663
 -85.2627
 -85.257
 -85.2601
 -85.3692
 -85.3755
 -85.3707
 -85.3735
 -84.8387
 -84.8032
 -84.8412
 -84.8555
 -85.4517
 -85.4506
 -85.4534
 -85.4515
 -85.4343
 -85.431
 -85.4432
 -85.4411
 -85.4383
 -85.4437
 -85.4112
 -85.4143
 -85.2912
 -85.2936
 -85.287
 -83.1891
 -83.3568
 -83.1412
 -83.1954
 -84.9227
 -84.951
 -84.9579
 -84.9325
 -85.4363
 -85.4386
 -85.4363
 -85.4349
 -85.3919
 -85.3977
 -85.3942
 -85.3502
 -85.3443
 -85.3406
 -85.3463
 -85.2734
 -85.2864
 -85.2749
 -85.2722
 -85.4212
 -85.4244
 -85.4233
 -85.4378
 -85.3405
 -85.3483
 -85.2541
 -85.2577
 -85.3856
 -85.3914
 -85.3847
 -85.3866
 -85.2099
 -85.196
 -85.2142
 -85.1956
 -85.2165
 -85.2069
 -85.2106
 -83.5543
 -83.7459
 -83.6724
 -83.6795
 -85.2682
 -85.2736
 -85.274
 -85.2805
 -85.4239
 -85.4245
 -85.4168
 -85.4195
 -85.4186
 -85.4195
 -85.2601
 -85.259
 -85.2667
 -85.2562
 -85.4041
 -85.4018
 -85.4055
 -85.3881
 -85.3886
 -85.3893
 -85.3853
 -85.4181
 -85.4197
 -85.4159
 -85.4208
 -85.278
 -85.286
 -85.2832
 -85.2788
 -85.4435
 -85.4394
 -85.317
 -84.6276
 -84.6779
 -84.6983
 -84.7417
 -85.4023
 -85.4019
 -85.4048
 -84.9554
 -84.9217
 -84.9141
 -84.9075
 -85.3838
 -85.3831
 -85.3826
 -85.387
 -85.2021
 -85.2016
 -85.1912
 -85.2039
 -85.2478
 -85.2449
 -85.2515
 -85.2519
 -85.3784
 -85.3815
 -85.3812
 -85.2933
 -85.2955
 -85.2922
 -85.2871
 -85.3747
 -85.373
 -85.3763
 -85.3691
 -85.3581
 -85.3556
 -85.4116
 -85.4129
 -85.4127
 -85.3878
 -85.3885
 -85.384
 -84.6731
 -84.6871
 -84.7488
 -84.6909
 -85.2195
 -85.228
 -85.2147
 -85.2313
 -85.4221
 -85.417
 -85.4176
 -85.4172
 -85.4146
 -85.4139
 -85.2468
 -85.2656
 -85.2486
 -85.3888
 -85.3843
 -85.386
 -85.3833
 -85.3873
 -85.3866
 -85.3846
 -85.272
 -85.268
 -85.2732
 -85.274
 -85.4375
 -85.438
 -85.2951
 -85.2926
 -85.2951
 -85.3007
 -85.2656
 -85.2665
 -85.2697
 -85.3933
 -85.3947
 -85.3326
 -85.3286
 -85.3343
 -85.338
 -85.2243
 -85.2222
 -85.3773
 -85.3768
 -85.2978
 -85.2845
 -85.2856
 -85.2933
 -85.3445
 -85.3445
 -85.3406
 -85.3489
 -85.3441
 -85.3407
 -85.3446
 -85.0374
 -85.0277
 -85.0228
 -85.0728
 -84.9036
 -84.9119
 -84.9376
 -84.9448
 -85.3863
 -85.3822
 -85.3779
 -85.3819
 -85.4255
 -85.4262
 -85.4235
 -85.4232
 -85.3569
 -85.3604
