 -86.0262
 -86.0262
 -86.0262
 -86.0262
 22.5093
 22.6146
 22.3144
 22.2481
 -74.8246
 -89.2836
 -52.4745
 -87.7908
 3.29087
 -42.1136
 -85.9222
 -85.4491
 23.8848
 24.526
 23.7066
 23.7231
 23.8631
 23.518
 24.3345
 23.5404
 -86.0262
 -86.0262
 -86.0262
 -86.0262
 -86.0262
 -86.0262
 -86.0262
 -86.0262
 24.3833
 24.1975
 23.8586
 24.3524
 23.8499
 23.9333
 23.7288
 24.5944
 -86.0262
 -86.0262
 -86.0262
 -86.0262
 16.6903
 15.477
 -61.3654
 -6.32558
 -86.0262
 -86.0262
 -86.0262
 -86.0262
 22.899
 23.9304
 24.71
 23.337
 -85.9384
 -86.0303
 -85.9889
 -85.7959
 -86.0262
 -86.0262
 -86.0262
 -86.0262
 22.7447
 23.057
 22.7825
 23.2874
 24.1319
 24.4597
 24.2075
 26.7611
 -86.0257
 -86.0851
 -86.0283
 -86.0675
 22.7305
 22.8082
 22.8536
 23.1345
 -86.0262
 -86.0262
 -86.0262
 -86.0262
 25.2371
 25.2659
 25.8718
 25.9962
 -86.0262
 -86.0262
 -86.0262
 -86.0262
 25.9458
 24.6194
 26.2292
 26.4633
 -86.0318
 -86.0253
 -86.0268
 -86.037
 -85.7762
 -85.7293
 -85.8303
 -85.9436
 -86.0261
 -86.0264
 -86.0292
 -86.0256
 -86.0262
 -86.0262
 -86.0262
 -86.0262
 -86.0262
 -86.0262
 -86.0262
 -86.0262
 24.1015
 24.4965
 24.6254
 25.608
 -86.0423
 -85.9968
 -86.0427
 -86.0435
 -86.0262
 -86.0262
 -86.0262
 -86.0262
 15.8655
 -49.1541
 15.7474
 -38.8374
 22.4355
 22.448
 22.3806
 22.4096
 -86.0262
 -86.0262
 -86.0262
 -86.0262
 -86.0262
 -86.0262
 -86.0262
 -86.0262
 -52.8362
 -88.4335
 -72.6089
 -61.6521
 -86.0262
 -86.0262
 -86.0262
 -86.0262
 26.1066
 25.0281
 23.1486
 23.586
 27.3321
 26.5244
 26.9301
 26.3881
 -85.7944
 -85.0741
 -85.0403
 -85.8113
 23.9971
 23.5516
 23.5594
 24.4379
 -86.0262
 -86.0262
 -86.0262
 -86.0262
 31.6635
 7.0359
 14.6949
 31.0898
 24.3006
 24.1121
 24.6098
 24.3178
 -86.0262
 -86.0262
 -86.0262
 -86.0262
 24.694
 26.3908
 28.2615
 24.4724
 -86.0262
 -86.0262
 -86.0262
 -86.0262
 -86.0262
 -86.0262
 -86.0262
 -86.0262
 -85.8981
 -86.0287
 -86.0377
 -86.043
 -86.0262
 -86.0262
 -86.0262
 -86.0262
 -86.295
 -85.9857
 -86.1003
 -86.1622
 -86.0261
 -86.0262
 -86.0261
 -86.0262
 -85.1966
 -85.3612
 -86.0635
 -87.3172
 -86.0262
 -86.0262
 -86.0262
 -86.0262
 -65.0998
 -62.5645
 12.2273
 -83.6855
 23.6061
 23.916
 23.4324
 22.9913
 23.5905
 25.2447
 24.2422
 29.9781
 -86.0262
 -86.0262
 -86.0262
 -86.0262
 -86.0262
 -86.0262
 -86.0262
 -86.0261
 -86.0262
 -86.0262
 -86.0262
 -86.0262
 -86.0262
 -86.0262
 -86.0262
 -86.0262
 -86.0264
 -86.0115
 -86.0506
 -86.045
 -86.0262
 -86.0262
 -86.0262
 -86.0262
 -86.0262
 -86.0262
 -86.0262
 -86.0262
 -86.0262
 -86.0262
 -86.0262
 -86.0262
 23.0657
 23.5072
 23.6365
 22.9978
 23.6604
 23.9346
 24.0911
 24.334
 -85.5078
 -87.3929
 -85.9372
 -85.6004
 -86.0262
 -86.0262
 -86.0262
 -86.0262
 24.5151
 24.1737
 23.8418
 26.746
 -86.0262
 -86.0262
 -86.0262
 -86.0262
 -86.0262
 -86.0262
 -86.0262
 -86.0262
 -86.0262
 -86.0262
 -86.0262
 -86.0262
 -88.6165
 -46.0609
 -87.645
 -42.2885
 -86.0262
 -86.0262
 -86.0262
 -86.0262
 -86.0262
 -86.0262
 -86.0262
 -86.0262
 24.7761
 25.4729
 25.1073
 25.6424
 -86.0262
 -86.0262
 -86.0262
 -86.0262
 -86.0262
 -86.0262
 -86.0262
 -86.0262
 -86.0262
 -86.0262
 -86.0262
 -86.0262
 -86.0262
 -86.0262
 -86.0261
 -86.0262
 -86.0262
 -86.0262
 -86.0262
 -86.0262
 -86.0262
 -86.0262
 -86.0262
 -86.0262
 -86.0262
 -86.0262
 -86.0262
 -86.0262
 -86.0262
 -86.0262
 -86.0262
 -86.0262
 -86.0262
 -86.0262
 -86.0262
 -86.0262
 -86.0262
 -86.0262
 -86.0262
 -86.0262
 -57.9752
 -89.4616
 -61.8446
 -89.9755
 -52.7282
 -83.2789
 -38.0948
 -88.4543
 23.6831
 25.3118
 24.8065
 24.0772
 -86.0262
 -86.0262
 -86.0262
 -86.0262
 25.9141
 25.9195
 25.5671
 26.3903
 27.229
 25.2517
 27.361
 26.7809
 -86.0262
 -86.0262
 -86.0262
 -86.0262
 -86.0262
 -86.0262
 -86.0262
 -86.0262
 -86.0262
 -86.0262
 -86.0262
 -86.0262
 -86.0262
 -86.0262
 -86.0262
 -86.0262
 -86.0262
 -86.0262
 -86.0262
 30.852
 12.4549
 12.0182
 29.4894
 -86.0274
 -86.0211
 -86.0212
 -86.0269
 -59.7621
 14.0321
 -71.6677
 -86.0262
 -86.0262
 -86.0262
 -86.0262
 -86.0268
 -86.0198
 -86.0231
 -86.0267
 22.8112
 22.5772
 22.5298
 23.024
 -86.0262
 -86.0262
 -86.0262
 -86.0262
 -86.0262
 -86.0262
 -86.0262
 -86.0262
 -87.9476
 -85.0844
 -85.6827
 -86.65
 24.8291
 23.268
 25.3058
 25.6317
 -86.0262
 -86.0262
 -86.0262
 -86.0262
 -86.0262
 -86.0262
 -86.0262
 -86.0262
 -86.0262
 -86.0262
 -86.026
 -86.0262
 23.6822
 23.7766
 23.7545
 23.5984
 -85.3757
 -16.065
 19.5779
 -34.6677
 -86.0396
 -86.0263
 -86.0483
 -86.0674
 -86.0262
 -86.0262
 -86.0262
 -86.0262
 -86.0257
 -86.0262
 -86.0261
 -86.0259
 22.4824
 22.3711
 22.3862
 22.4126
 -86.0262
 -86.0262
 -86.0262
 -86.0262
 -86.0262
 -86.0262
 -86.0262
 -86.0262
 -86.0262
 -86.0262
 -86.0262
 -86.0262
 -86.0262
 -86.0262
 -86.0262
 -86.0262
 -86.0262
 -86.0262
 -86.0262
 -86.0262
 -85.445
 -88.4926
 -93.8683
 -83.8989
 -86.0262
 -86.0262
 -86.0262
 -86.0262
 22.8839
 22.5782
 22.8716
 22.9497
 -86.0262
 -86.0262
 -86.0262
 -86.0262
 22.6584
 22.5617
 22.8148
 22.6303
 -86.0261
 -86.0262
 -86.0262
 -86.0262
 -86.0262
 -86.0262
 -86.0262
 -86.0262
 -86.0262
 -86.0262
 -86.0262
 -86.0262
 -86.0262
 -86.0262
 -86.0262
 -86.0262
 25.5544
 26.0032
 26.1499
 25.9295
 -86.0262
 -86.0262
 -86.0262
 -86.0262
 26.9541
 26.3266
 26.8222
 25.9328
 25.0471
 25.0508
 23.6667
 24.2231
 -86.0262
 -86.0262
 -86.0262
 -86.0262
 24.6192
 24.5272
 24.8904
 25.0091
 -86.0262
 -86.0262
 -86.0262
 -86.0262
 -86.0262
 -86.0262
 -86.0262
 -86.0262
 22.624
 22.7341
 23.0645
 22.7684
 24.1645
 25.0057
 24.2874
 23.964
 -85.9989
 -86.0399
 -86.0023
 -86.0449
 23.3712
 24.0948
 23.1604
 24.1982
 -86.0262
 -86.0262
 -86.0262
 -86.0262
 -83.5607
 -87.1073
 -88.0772
 -82.1647
 -86.0262
 -86.0262
 -86.0262
 -86.0262
 -86.0262
 -86.0262
 -86.0262
 -86.0262
 -86.0262
 -86.0262
 -86.0262
 -86.0262
 -86.0262
 -86.0262
 -86.0262
 -86.0262
 -86.0292
 -86.0214
 -86.0281
 -86.027
 -86.0262
 -86.0262
 -86.0262
 -86.0262
 -86.0262
 -86.0262
 -86.0262
 -86.0262
 -48.6456
 11.821
 -26.0914
 -76.1484
 24.2753
 23.9963
 24.5069
 24.7005
 23.2472
 23.0503
 23.354
 23.3275
 23.0225
 22.7681
 22.6183
 22.9618
 25.1533
 27.4405
 24.8175
 27.8673
 -86.0262
 -86.0262
 -86.0262
 -86.0262
 -86.0262
 -86.0262
 -86.0262
 -86.0262
 -86.0281
 -86.0265
 -86.0259
 -86.026
 28.9609
 26.1272
 28.4938
 29.3255
 27.8429
 29.5496
 31.759
 25.2464
 -85.9066
 -86.081
 -85.722
 -85.6362
 -63.1984
 14.1308
 -76.5687
 -70.9201
 -86.0262
 -86.0262
 -86.0262
 -86.0262
 -86.0262
 -86.0262
 -86.0262
 -86.0262
 -86.0262
 -86.0262
 -86.0262
 -86.0262
 -86.0262
 -86.0262
 -86.0262
 -86.0262
 -86.0262
 -86.0262
 -86.0262
 22.8356
 22.728
 22.7492
 22.646
 -86.0583
 -86.0309
 -85.9286
 -85.9809
 23.2808
 23.0715
 23.4435
 22.9516
 -86.0262
 -86.0262
 -86.0262
 -86.0262
 25.6362
 27.4773
 24.4536
 25.5834
 -85.7023
 -85.9846
 -86.0586
 -85.9791
 25.3877
 25.6835
 25.8512
 24.8888
 22.5705
 22.634
 22.5332
 22.3203
 -86.0262
 -86.0262
 -86.0262
 -86.0262
 26.5536
 27.7659
 31.8727
 25.2924
 22.4768
 22.5225
 22.4916
 22.4962
 -86.0262
 -86.0262
 -86.0262
 -86.0262
 -86.1099
 -86.045
 -85.6032
 -85.9348
 22.2362
 22.2237
 22.4054
 22.2839
 -59.0897
 19.399
 -85.4656
 29.2736
 22.3127
 22.2604
 22.3432
 22.3977
 -86.0262
 -86.0262
 -86.0262
 -86.0262
 22.5575
 22.5863
 22.5802
 22.4417
 -86.026
 -86.0266
 -86.0262
 -86.0262
 -86.0202
 -86.0136
 -86.0212
 -86.0186
 22.4615
 22.6819
 23.0923
 22.4833
 26.8814
 26.3463
 26.2686
 26.6015
 -86.0262
 -86.0262
 -86.0262
 -86.0262
 -86.0262
 -86.0262
 -86.0262
 -86.0262
 -81.107
 -91.266
 -86.5293
 -86.2042
 22.7116
 22.5132
 22.5178
 22.5282
 -86.0262
 -86.0262
 -86.0262
 -86.0262
 -86.0262
 -86.0262
 -86.0262
 -86.0262
 26.2013
 26.9362
 30.5539
 27.8541
 24.2123
 25.4274
 26.0763
 26.369
 24.9916
 25.5384
 25.9664
 25.1165
 -86.0262
 -86.0262
 -86.0262
 -86.0262
 24.2487
 24.6324
 24.567
 24.3767
 -86.0262
 -86.0262
 -86.0262
 -86.0262
 -86.0262
 -86.0262
 -86.0262
 -86.0262
 23.0801
 23.256
 23.4898
 23.2925
 17.7301
 22.1721
 -36.3044
 -70.5788
 22.6497
 22.7011
 22.5585
 22.5302
 -86.0258
 -86.0264
 -86.0228
 -86.0245
 -86.0261
 -86.0264
 -86.0266
 -86.0267
 23.2725
 24.8743
 24.2922
 24.0676
 -86.0262
 -86.0262
 -86.0262
 -86.0262
 -86.0262
 -86.0262
 -86.0262
 -86.0262
 -86.0262
 -86.0262
 -86.0262
 -86.0262
 -86.0596
 -87.079
 -85.3188
 -88.8327
 -86.0746
 -86.0302
 -85.9687
 -86.0442
 -91.457
 -84.8225
 -85.7003
 -83.9403
 -86.0262
 -86.0262
 -86.0262
 -86.0262
 24.5214
 24.289
 24.7041
 24.0349
 24.644
 25.3314
 24.4648
 24.5212
 -42.3298
 6.07899
 12.9133
 19.5624
 -86.0262
 -86.0262
 -86.0262
 -86.0262
 -86.0262
 -86.0262
 -86.0262
 -86.0262
 -86.0262
 -86.0262
 -86.0262
 -86.0262
 -86.0262
 -86.0262
 -86.0262
 -86.0262
 22.8736
 22.9019
 22.5783
 23.1838
 -86.0262
 -86.0262
 -86.0262
 -86.0262
 -86.0262
 -86.0262
 -86.0262
 -86.0262
 22.2957
 22.3371
 22.3562
 22.457
 -86.0262
 -86.0262
 -86.0262
 -86.0262
 -86.0262
 -86.0262
 -86.0262
 -86.0262
 26.7454
 28.2141
 24.7782
 16.0235
 -86.0262
 -86.0262
 -86.0262
 -86.0262
 22.4323
 22.5219
 22.5313
 22.3699
 -86.0262
 -86.0262
 -86.0262
 -86.0262
 -86.0262
 -86.0262
 -86.0262
 -86.0262
 -86.0262
 -86.0262
 -86.0262
 -86.0262
 -86.0262
 -86.0262
 -86.0262
 -86.026
 22.5954
 22.7261
 22.5832
 22.4633
 28.0415
 25.9295
 24.4484
 26.8747
 -86.0262
 -86.0262
 -86.0262
 -86.0262
 -86.0262
 -86.0262
 -86.0262
 -86.0262
 23.2107
 23.3565
 23.694
 23.473
 22.7286
 23.2418
 22.9295
 23.078
 -86.0262
 -86.0262
 -86.0262
 -86.0262
 -86.0262
 -86.0262
 -86.0262
 -86.0262
 -86.0262
 -86.0262
 -86.0262
 -86.0262
 16.5245
 -78.7753
 -88.7199
 -77.3441
 -86.0262
 -86.0262
 -86.0262
 -86.0262
 23.0912
 22.6611
 22.6466
 23.1133
 -89.9448
 -27.4357
 -76.0415
 -87.6125
 22.5932
 22.7609
 22.8919
 22.7275
 24.3186
 24.7738
 33.3059
 27.2246
 -86.0261
 -86.0261
 -86.0261
 -86.0261
 -86.0262
 -86.0262
 -86.0262
 -86.0262
 -86.0262
 -86.0262
 -86.0262
 -86.0262
 -86.0262
 -86.0262
 -86.0262
 -86.0262
 -86.0262
 -86.0262
 -86.0262
 -86.0262
 -86.024
 -86.0201
 -86.0259
 -86.0268
 -86.0261
 -86.0264
 -86.0255
 -86.0261
 -86.018
 -86.0304
 -86.0028
 -86.0262
 -91.7366
 -91.863
 -70.7192
 -79.1077
 -86.0262
 -86.0262
 -86.0262
 -86.0262
 -86.0752
 -86.0312
 -86.0724
 -85.9208
 -86.0262
 -86.0262
 -86.0262
 -86.0262
 -86.0262
 -86.0262
 -86.0262
 -86.0262
 24.0351
 23.4731
 23.9546
 23.6954
 -86.0262
 -86.0262
 -86.0262
 -86.0262
 -86.0262
 -86.0262
 -86.0262
 -86.0262
 -86.0262
 -86.0262
 -86.0262
 -86.0262
 -86.0262
 -86.0262
 -86.0262
 -86.0262
 -86.0262
 -86.0262
 -86.0262
 -86.0262
 -86.0262
 -86.0262
 -86.0262
 -86.0262
 -86.0262
 -86.0262
 -86.0262
 -86.0262
 18.0191
 -36.2584
 23.1673
 -41.9193
 -29.7906
 -30.1519
 17.3188
 -33.9046
 23.8914
 22.9843
 23.657
 23.284
 -86.0262
 -86.0262
 -86.0262
 -86.0262
 -86.0262
 -86.0262
 -86.0262
 -86.0262
 23.7697
 23.1681
 23.7287
 23.5097
 -86.0262
 -86.0262
 -86.0262
 -86.0262
 22.4563
 22.4381
 22.6683
 22.4592
 -85.9712
 -85.8126
 -86.0327
 -85.8453
 -86.0258
 -86.027
 -86.0239
 -86.0249
 -86.0262
 -86.0262
 -86.0262
 -86.0262
 -86.026
 -86.0261
 -86.0265
 -86.026
 22.4251
 22.3511
 22.3519
 22.4574
 -86.0262
 -86.0262
 -86.0262
 -86.0262
 -86.0262
 -86.0262
 -86.0262
 -86.0262
 -86.0262
 -86.0262
 -86.0262
 -86.0262
 -86.0262
 -86.0262
 -86.0262
 -86.0262
 -86.0262
 -86.0262
 -86.0262
 -86.0262
 -86.0262
 -86.0262
 -86.0262
 -86.0262
 25.1842
 24.9826
 25.8733
 25.0738
 -86.0262
 -86.0262
 -86.0262
 -86.0262
 -88.0811
 -90.7591
 -84.0615
 -86.4574
 -86.0438
 22.4545
 22.6431
 22.6856
 22.8936
 -87.8214
 -84.7988
 -68.523
 -90.5501
 -86.0262
 -86.0262
 -86.0262
 -86.0262
 -86.0262
 -86.0262
 -86.0262
 -86.0262
 -86.0262
 -86.0262
 -86.0262
 -86.0262
 22.6819
 22.4944
 22.4771
 22.4513
 -86.026
 -86.0262
 -86.0261
 -86.0261
 22.8949
 22.9112
 22.4937
 22.5717
 25.8685
 25.7754
 26.881
 25.6741
 -86.0262
 -86.0262
 -86.0262
 -86.0262
 -86.0262
 -86.0262
 -86.0262
 -86.0262
 -85.9164
 -83.2382
 -88.5031
 -91.659
 -86.0262
 -86.0261
 -86.0262
 -86.0262
 -86.0262
 -86.0262
 -86.0262
 18.7247
 -83.3456
 -3.05632
 -71.5345
 -86.0262
 -86.0262
 -86.0262
 -86.0262
 -86.0273
 -86.0256
 -86.0268
 -86.0284
 23.106
 23.0873
 22.5702
 22.9977
 -86.0262
 -86.0262
 -86.0262
 -86.0262
 22.6735
 23.4921
 22.7939
 22.5691
 -86.0245
 -86.0261
 -86.0237
 -86.0262
 22.9649
 24.2158
 24.885
 23.7959
 22.7466
 22.7005
 23.0971
 22.9856
 -86.0262
 -86.0262
 -86.0262
 -86.0262
 -86.0262
 -86.0262
 -86.0262
 -86.0262
 26.0558
 25.6704
 25.416
 25.4879
 -38.3556
 -70.4128
 -75.2522
 -44.0176
 -86.0262
 -86.0262
 -86.0262
 -86.0262
 -86.0262
 -86.0262
 -86.0262
 -86.0262
 -86.0262
 -86.0262
 -86.0262
 -86.0262
 22.9937
 23.075
 23.5507
 23.1425
 -86.0262
 -86.0262
 -86.0262
 -86.0262
 -85.9767
 -86.0377
 -86.0149
 -86.0581
 -86.0262
 -86.0262
 -86.0262
 -86.0262
 26.2346
 26.2836
 26.3031
 25.7627
 25.49
 25.179
 24.9229
 24.3069
 23.418
 24.8985
 28.4172
 23.5408
 -85.8339
 -85.39
 -86.0108
 -86.0725
 -86.71
 -86.0262
 -86.0262
 -86.0262
 -86.0262
 -86.0262
 -86.0262
 -86.0262
 -86.0262
 21.598
 21.7206
 32.0374
 25.9093
 -86.0262
 -86.0262
 -86.0262
 -86.0262
 -86.0262
 -86.0262
 -86.0262
 -86.0262
 24.8046
 24.8961
 25.5802
 26.7338
 -86.0262
 -86.0262
 -86.0262
 -86.0262
 16.7609
 20.1726
 18.0569
 26.7983
 -86.0262
 -86.0262
 -86.0262
 -86.0262
 -86.0262
 -86.0262
 -86.0262
 -86.0262
 -86.0262
 -86.0262
 -86.0262
 -86.0262
 -85.571
 -88.4779
 -86.315
 -88.49
 23.0717
 23.668
 22.6574
 22.6434
 -86.0218
 -86.0254
 -86.0258
 -86.0251
 -85.961
 -85.9967
 -85.8342
 -85.8975
 -86.0262
 -86.0262
 -86.0262
 -86.0262
 -89.2021
 -94.8523
 -65.1636
 -90.6997
 -86.0294
 -86.0279
 -86.0263
 -86.0263
 -86.0283
 -86.0288
 -86.0253
 -86.023
 -86.0262
 -86.0262
 -86.0262
 -86.0262
 -86.0262
 -86.0262
 -86.0262
 -86.0262
 24.389
 25.6053
 24.5576
 24.0086
 -86.0262
 -86.0262
 -86.0262
 -86.0262
 24.8619
 24.8287
 25.6258
 25.1488
 22.9944
 23.6405
 22.7105
 22.9093
 22.6614
 22.589
 22.6125
 22.8005
 22.4084
 22.3318
 22.3085
 22.4448
 24.1421
 24.4296
 21.918
 24.4657
 -86.0262
 -86.0262
 -86.0262
 -86.0165
 -86.0328
 -86.043
 -86.0486
 23.3937
 23.6734
 24.1944
 23.2946
 -86.0262
 -86.0262
 -86.0262
 -86.0262
 -86.0262
 -86.0262
 -86.0262
 -86.0262
 27.7184
 27.7717
 27.2395
 19.0966
 -86.0261
 -86.0262
 -86.0262
 -86.0261
 -86.0262
 -86.0262
 -86.0262
 -86.0262
 24.9261
 25.6941
 -72.1511
 -83.8734
 -88.4422
 -90.1757
 -86.0262
 -86.0261
 -86.0262
 -86.083
 -85.8383
 -85.7855
 -86.1023
 -86.0262
 -86.0262
 -86.0262
 -86.0262
 22.6963
 22.4229
 22.457
 22.8075
 -86.1083
 -86.0567
 -86.0101
 -86.0354
 -86.0262
 -86.0262
 -86.0262
 -86.0262
 -86.0256
 -86.0262
 -86.0259
 -86.0264
 -86.0262
 -86.0262
 -86.0262
 -86.0262
 -86.0262
 -86.0262
 -86.0262
 -86.0262
 -86.0262
 -86.0262
 -86.0262
 -86.0262
 -86.0262
 -86.0262
 -86.0262
 -86.0262
 -86.0262
 -86.0262
 -86.0262
 -86.0262
 22.5815
 22.4111
 22.5433
 22.5014
 -86.0262
 -86.0262
 -86.0262
 -86.0262
 -86.0262
 -86.0262
 -86.0262
 -86.0262
 -82.411
 -87.0976
 -89.7529
 -79.6641
 -86.0262
 -86.0262
 -86.0262
 -86.0262
 -86.0262
 -86.0262
 -86.0262
 -86.0262
 -86.0262
 -86.0262
 -86.0261
 -86.0262
 22.7003
 22.7046
 22.9721
 22.8133
 -86.0262
 -86.0262
 -86.0262
 -86.0262
 -84.121
 -85.5552
 -85.8099
 -86.1631
 -86.0262
 -86.0261
 -86.0261
 -86.0262
 27.9122
 26.6844
 26.0736
 25.2009
 22.3652
 22.3796
 22.4069
 22.3859
 -86.0262
 -86.0262
 -86.0262
 -86.0262
 -86.0262
 -86.0262
 -86.0262
 -86.0262
 -86.0011
 -86.0335
 -86.0255
 -86.0138
 -86.0262
 -86.0262
 -86.0262
 -86.0262
 -86.0262
 -86.0262
 -86.0262
 -86.0262
 -86.0243
 -86.0262
 -86.0265
 -86.0259
 -86.0262
 -86.0262
 -86.0262
 -86.0262
 -86.0262
 -86.0262
 -86.0262
 -86.0262
 -86.0262
 -86.0262
 -86.0262
 -86.0262
 -70.4288
 -89.1191
 -88.0118
 -87.172
 -89.8795
 -65.6855
 -67.7802
 -0.0443515
 10.2692
 -84.427
 -40.121
 -88.1334
 -88.9579
 -86.1247
 -88.2591
 -86.8474
 -86.0262
 -86.0262
 -86.0262
 -86.0262
 -86.0262
 -86.0262
 -86.0262
 -86.0262
 -86.0262
 -86.0262
 -86.0262
 -86.0262
 -86.0262
 -86.0262
 -86.0262
 -86.0262
 -86.0252
 -86.0255
 -86.0287
 -86.025
 15.6533
 18.8503
 14.131
 25.0278
 -86.0262
 -86.0262
 -86.0262
 -86.0262
 -62.6702
 -86.0262
 -86.0261
 -86.0263
 -86.0262
 25.8365
 26.0754
 26.7375
 26.2791
 -86.0262
 -86.0262
 -86.0261
 -86.0262
 22.583
 23.0955
 22.8224
 -86.0262
 -86.0262
 -86.0262
 -86.0262
 -86.0262
 -86.0262
 -86.0262
 -86.0262
 -86.0267
 -86.023
 -86.0119
 -86.0269
 -86.0261
 -86.0262
 -86.0262
 -86.0262
 -86.0262
 -86.0262
 -86.0262
 -86.0262
 -86.0262
 -86.0262
 -86.0262
 -86.0262
 -86.0262
 -86.0262
 -86.0262
 -86.0262
 -85.8723
 -86.9363
 -86.2996
 -82.8124
 -86.0275
 -86.0255
 -86.0268
 -86.0277
 -86.0262
 -86.0262
 -86.0262
 -86.0262
 -86.0262
 -86.0262
 -86.0261
 23.636
 24.6491
 24.175
 -86.0262
 -86.0262
 -86.0262
 -86.0262
 -86.0262
 -86.0262
 -86.0262
 -86.0262
 -86.0262
 -86.0262
 -86.0262
 -86.0262
 -86.0262
 -86.0262
 -86.0262
 -86.0262
 24.9276
 23.0967
 24.3437
 23.9083
 24.1841
 23.3952
 23.7923
 23.04
 -86.0262
 -86.0262
 -86.0262
 -86.0262
 -86.0262
 -86.0262
 -86.0262
 -86.0262
 -86.0299
 -86.0271
 -86.0152
 -86.0548
 24.0737
 23.7375
 24.3895
 23.9209
 -86.0262
 -86.0262
 -86.0262
 -86.0262
 -47.0049
 -84.4909
 -85.7608
 4.27067
 -86.0262
 -86.0262
 -86.0262
 -86.0262
 26.7393
 25.0766
 20.5591
 25.676
 -86.0262
 -86.0262
 -86.0262
 -86.0262
 24.2283
 24.9321
 23.222
 23.7551
 -86.0262
 -86.0262
 -86.0262
 -86.0262
 -86.0262
 -86.0262
 -86.0262
 -86.0262
 -86.0262
 -86.0262
 -86.0262
 -86.0262
 -86.0262
 -86.0262
 -86.0262
 -86.0262
 -86.0231
 -86.0117
 -86.0089
 -86.0447
 -86.0262
 -86.0262
 -86.0262
 -86.0262
 23.054
 24.5279
 25.3428
 23.582
 24.9988
 25.495
 24.4076
 24.3924
 -86.0262
 -86.0262
 -86.0262
 -86.0262
 22.6039
 22.6148
 22.4648
 22.6784
 18.6671
 27.7824
 27.0385
 29.2139
 -86.0262
 -86.0262
 -86.0262
 -86.0262
 -86.0262
 -86.0262
 -86.0262
 -86.0262
 -86.0262
 -86.0262
 -86.0262
 -86.0262
 -86.0262
 -86.0262
 -86.0262
 -86.0262
 -86.0288
 -86.0226
 -86.0653
 -86.0165
 26.1661
 22.8087
 23.9952
 23.7785
 -86.0262
 -86.0262
 -86.0262
 -86.0262
 -86.0262
 -86.0262
 -86.0262
 -86.0262
 -86.0262
 -86.0262
 -86.0262
 -86.0262
 -86.0262
 -86.0262
 -86.0262
 -86.0262
 -86.0262
 -86.0262
 -86.0262
 -86.0262
 -86.0262
 -86.0258
 -86.0262
 -86.0266
 -64.4844
 19.3637
 -26.6283
 25.0216
 -86.0262
 -86.0262
 -86.0262
 -86.0263
 -86.0265
 -86.0264
 -86.0263
 -86.0262
 -86.0262
 -86.0262
 -86.0262
 -87.928
 -86.1557
 -87.2614
 -87.7269
 -59.9925
 23.0172
 -52.2743
 12.3437
 22.9128
 22.6202
 22.8141
 22.5284
 -86.0262
 -86.0262
 -86.0262
 -86.0262
 24.0078
 24.0667
 24.2734
 24.1508
 -86.0262
 -86.0262
 -86.0262
 -86.0262
 -86.0262
 -86.012
 -86.0195
 -86.0226
 -86.0255
 -86.0264
 -86.0264
 -86.0263
 -86.0262
 -86.0262
 -86.0262
 -86.0262
 -86.0262
 -86.0262
 -86.0262
 -86.0262
 -86.0266
 -86.0266
 -86.026
 -86.0243
 -86.0262
 -86.0262
 -86.0262
 -86.0262
 25.8275
 25.9087
 25.2407
 25.7412
 -86.0262
 -86.0262
 -86.0262
 -86.0262
 -86.0262
 -86.0262
 -86.0262
 -86.0262
 21.8943
 25.2794
 16.9856
 24.2719
 -86.0262
 -86.0262
 -86.0262
 -86.0262
 -86.0262
 -86.0262
 -86.0262
 -86.0262
 -81.6637
 -86.0353
 -83.0278
 -86.8081
 -86.723
 -86.2602
 -85.3668
 -89.3086
 -86.0219
 -86.0263
 -86.061
 -86.0432
 -86.0262
 -86.0262
 -85.6074
 -86.2122
 -84.3233
 -86.2457
 -86.0262
 -86.0262
 -86.0262
 -86.0262
 -86.0262
 -86.0262
 -86.0262
 -86.0262
 23.0281
 22.8492
 22.7241
 23.0453
 -86.0262
 -86.0262
 -86.0262
 -86.0262
 28.1958
 27.9454
 25.833
 30.7642
 -86.0262
 -86.0262
 -86.0262
 -86.0262
 -86.0262
 -86.0262
 -86.0262
 -86.0262
 -86.0261
 -86.0266
 -86.0263
 -86.0261
 -86.0262
 -86.0262
 -86.0262
 -86.0262
 -86.0262
 -86.0262
 -86.0262
 -86.0262
 23.3858
 23.2283
 22.9934
 23.1617
 -86.0262
 -86.0262
 -86.0262
 -86.0262
 -86.0274
 -86.0265
 -86.0279
 -86.0242
 -86.0262
 -86.0262
 -86.0262
 -86.0262
 -86.0952
 -85.3571
 -85.795
 -86.0311
 -86.0262
 -86.0262
 -86.0262
 -86.0262
 -86.0262
 -86.0262
 -86.0262
 -86.0262
 -86.0276
 -86.0279
 -86.0264
 -86.0273
 22.4647
 23.1885
 22.5747
 23.4792
 -86.0262
 -86.0262
 -86.0262
 -86.0262
 -86.0262
 -86.0262
 -86.0262
 -86.0262
 22.7044
 22.5085
 22.6216
 22.5616
 -86.0262
 -86.0262
 -86.0262
 -86.0262
 -86.0262
 -86.0262
 -86.0262
 -86.0262
 27.8327
 23.7817
 26.5366
 23.61
 -86.0262
 -86.0264
 -86.0274
 -86.0265
 -86.0262
 -86.0262
 -86.0262
 -86.0262
 22.8918
 23.1583
 23.4043
 23.6831
 22.663
 22.5676
 22.5005
 22.7096
 -86.0443
 -86.0901
 -86.0243
 -86.0203
 -86.0262
 -86.0262
 -86.0262
 -86.0262
 -86.0262
 -86.0262
 -86.0262
 -86.0262
 -86.0262
 -86.0262
 -86.0262
 23.7644
 23.556
 23.6283
 22.8476
 -86.0262
 -86.0262
 -86.0262
 -86.0262
 9.4989
 -72.4483
 -32.8775
 -52.2789
 -86.0262
 -86.0262
 -86.0262
 -86.0262
 -86.0262
 -86.0262
 -86.0262
 -86.0262
 22.6776
 22.5494
 22.3716
 22.7673
 -86.0262
 -86.0261
 -86.0262
 -86.0262
 -86.0262
 -86.0262
 -86.0262
 -86.0262
 -86.0262
 -86.0262
 -86.0262
 -86.0262
 -86.0262
 -82.5447
 -75.1617
 -62.5556
 -86.0262
 -86.0262
 -86.0262
 -86.0262
 -42.2045
 -85.9037
 -78.6987
 -75.1301
 -86.0262
 -86.0262
 -86.0262
 -86.0262
 -86.0262
 -86.0262
 -86.0262
 -86.0262
 22.5565
 22.5764
 22.9678
 22.4908
 -86.0262
 -86.0262
 -86.0262
 -86.0262
 -86.454
 -85.6709
 -88.028
 -88.5245
 23.5733
 23.6039
 23.3556
 23.1991
 -86.014
 -86.0262
 -86.02
 -86.0267
 -88.9077
 -85.6234
 -85.5749
 -85.9167
 -86.0267
 -86.0262
 -86.0274
 -86.026
 25.8122
 24.5503
 25.8139
 24.7135
 24.7475
 24.6636
 24.4803
 23.9685
 23.404
 23.2085
 23.364
 23.5469
 -86.0262
 -86.0262
 -86.0262
 -86.0262
 -85.9727
 -86.043
 -86.0464
 -86.0355
 -86.0262
 -86.0262
 -86.0262
 -86.0262
 -86.0262
 -86.0262
 -86.0261
 -86.0262
 -66.0106
 -55.1132
 -47.9897
 -87.7718
 22.8904
 22.466
 22.6838
 22.4897
 22.5186
 22.5364
 22.7116
 22.3821
 -86.0262
 -86.0262
 -86.0262
 -86.0262
 -86.0261
 -86.0262
 -86.0262
 -86.0262
 -86.0262
 -86.0262
 -86.0262
 -86.0262
 24.2354
 26.0554
 27.2447
 26.9115
 -86.0262
 -86.0262
 -86.0262
 -86.0262
 25.2663
 24.3853
 25.1488
 25.644
 -86.0726
 -85.8466
 -86.056
 -86.0122
 -86.0305
 -86.0251
 -86.0235
 -86.0271
 -86.0262
 -86.0262
 -86.0262
 -86.0262
 -86.0262
 -86.0262
 -86.0262
 -86.0262
 -86.0262
 -86.0262
 -86.0262
 -86.0262
 25.4206
 24.7577
 22.3774
 25.058
 -86.0262
 -86.0262
 -86.0262
 -86.0262
 -85.9607
 -85.9959
 -86.0061
 -86.0701
 -85.6357
 -86.8188
 -91.598
 -86.5811
 27.5468
 30.365
 16.9703
 23.854
 -86.0262
 -86.0262
 -86.0262
 -86.0262
 -86.0262
 -86.0262
 -86.0262
 -86.0262
 23.9001
 22.7453
 22.562
 23.5607
 -59.8758
 -85.9612
 -88.7479
 -87.1427
 -86.0262
 -86.0262
 -86.0262
 -86.0262
 -86.0264
 -86.0262
 -86.0263
 -86.026
 -86.0207
 -86.0273
 -86.0245
 -86.02
 -86.0262
 -86.0262
 -86.0262
 -86.0262
 -85.7799
 -85.6086
 -88.5519
 -85.8582
 27.8053
 27.0675
 27.6528
 27.7689
 -85.6164
 -87.4386
 -90.1124
 -89.7863
 -86.0266
 -86.0261
 -86.027
 -86.0255
 -86.0264
 -86.0257
 -86.0266
 -86.024
 -86.0255
 -86.0089
 -86.0281
 -86.026
 24.0183
 23.8865
 23.3514
 23.8496
 23.3217
 24.4305
 23.6032
 -83.6987
 -85.2989
 -87.3827
 -82.867
 -86.0262
 -86.0262
 -86.0262
 -86.0262
 -86.0262
 -86.0262
 -86.0262
 -86.0262
 22.7379
 23.569
 24.7192
 23.4968
 -86.0262
 -86.0262
 -86.0262
 -86.0262
 -86.0262
 -86.0262
 -86.0262
 -86.0262
 -86.0262
 -86.0262
 -86.0262
 -86.0262
 -68.8792
 -91.2385
 -95.0038
 -87.9787
 -86.027
 -86.0216
 -86.0332
 -86.0246
 -85.9189
 -85.8206
 -85.6907
 -86.3574
 -86.0262
 -86.0262
 -86.0262
 -86.0262
 -86.0262
 -86.0262
 -86.0262
 -86.0262
 -85.8774
 -88.6362
 -81.8827
 -48.4152
 -86.0262
 -86.0262
 -86.0262
 -86.0262
 -85.923
 -85.9578
 -86.1187
 -86.0549
 -86.0262
 -86.0262
 -86.0262
 -86.0262
 22.8222
 22.9421
 22.5651
 22.7389
 -86.0262
 -86.0262
 -86.0262
 -86.0262
 -86.0262
 -86.0262
 -86.0262
 -86.0262
 33.4599
 26.1608
 25.7926
 25.4499
 -86.0262
 -86.0262
 -86.0262
 -86.0262
 -85.7469
 -86.0329
 -85.9896
 -86.0641
 -86.0262
 -86.0262
 -86.0262
 -86.0262
 -86.0269
 -86.0264
 -86.0264
 -86.0294
 22.7472
 23.3748
 22.9111
 23.2217
 -86.029
 -86.0263
 -86.0258
 -86.0264
 -34.0639
 19.3835
 13.7391
 -38.436
 -85.8975
 -86.0172
 -86.0862
 -86.0286
 -86.0209
 -86.0402
 -86.047
 -86.1784
 23.6012
 23.5231
 23.7073
 23.069
 -86.0262
 -86.0262
 -86.0262
 -86.0262
 -86.0262
 -86.0262
 -86.0262
 -86.0262
 22.5336
 22.4858
 22.532
 22.6045
 22.5646
 22.626
 22.5311
 -86.0262
 -86.0262
 -86.0262
 -86.0262
 -86.0305
 -85.5691
 -85.9548
 -85.8597
 -86.0221
 -86.0349
 -86.0261
 -86.0369
 -86.0262
 -86.0262
 -86.0262
 -86.0262
 13.6825
 28.9053
 34.5383
 26.9939
 -86.0261
 -86.0262
 -86.0262
 -86.0261
 -86.0272
 -86.0236
 -86.0304
 -86.0284
 25.5813
 24.5194
 24.9172
 24.4751
 -86.0262
 -86.0262
 -86.0262
 -86.0262
 -86.0262
 -86.0262
 -86.0262
 -86.0262
 24.1793
 23.0352
 23.8124
 23.6508
 -86.0262
 -86.0262
 -86.0262
 -86.0262
 -86.0262
 -86.0262
 -86.0262
 -86.0262
 -86.0261
 -86.0262
 -86.0262
 -86.0263
 -86.0262
 -86.0262
 -86.0262
 -86.0262
 -86.0202
 -86.0233
 -86.0268
 -86.0133
 26.6195
 28.9219
 29.4838
 30.9745
 22.5824
 22.8768
 22.7871
 -86.0262
 -86.0262
 -86.0262
 -86.0262
 -86.0262
 -86.0262
 -86.0262
 -86.0262
 -86.0262
 -86.0262
 -86.0262
 -86.0262
 -86.0262
 -86.0262
 -86.0262
 -86.0262
 24.1505
 24.5653
 24.813
 24.7059
 -86.0262
 -86.0262
 -86.0262
 -86.0262
 -86.0262
 -86.0262
 -86.0262
 -86.0262
 23.3818
 23.0393
 23.3436
 23.9062
 -86.0262
 -86.0262
 -86.0262
 -86.0262
 -86.0262
 -86.0262
 -86.0011
 -86.0589
 -86.0291
 -86.0262
 -86.0262
 -86.0262
 -86.0262
 -86.0259
 -86.0263
 -86.0263
 -86.0265
 -86.026
 -86.0345
 -86.0254
 -86.0247
 22.4098
 22.4372
 22.3734
 22.3856
 23.0559
 22.7547
 23.6145
 22.9212
 -86.0262
 -86.0262
 -86.0262
 -86.0262
 -86.0274
 -85.9398
 -86.1442
 -85.9497
 -86.0287
 -86.0339
 -85.9934
 -86.0468
 -86.0262
 -86.0262
 -86.0262
 -86.0261
 -86.0262
 -86.0262
 -86.0262
 -86.0262
 -86.0265
 -86.0264
 -86.0257
 -86.024
 -86.0262
 -86.0262
 -86.0262
 -86.0262
 22.4574
 22.488
 22.4668
 22.5329
 -86.0262
 -86.0262
 -86.0262
 -86.0262
 22.5344
 23.0518
 22.7701
 22.5104
 23.4298
 22.9986
 22.9387
 23.2885
 22.6464
 22.5637
 22.5239
 22.4865
 -86.0262
 -86.0262
 -81.9113
 -65.517
 -89.6306
 -92.0661
 -86.0262
 -86.0262
 -86.0262
 -86.0262
 26.107
 23.9007
 24.2889
 24.0035
 22.3653
 22.9434
 22.4206
 22.7022
 -86.0262
 -86.0262
 -86.0262
 -86.0262
 -86.0209
 -86.0203
 -86.0929
 -86.0198
 -86.0262
 -86.0262
 -86.0262
 -86.0262
 -86.0262
 -86.0262
 -86.0262
 -86.0262
 -86.0262
 -86.0262
 -86.0262
 -86.0262
 22.4902
 22.395
 22.6406
 22.4925
 -86.0262
 -86.0262
 -86.0262
 -86.0262
 -86.0262
 -86.0262
 -86.0262
 -86.0262
 -86.0262
 -86.0262
 -86.0262
 -86.0262
 -86.0262
 -86.0262
 -86.0262
 -86.0262
 -86.0262
 -86.0262
 -86.0262
 -86.0262
 -24.2032
 -41.7156
 15.7284
 -75.3766
 -86.0262
 -86.0262
 -86.0262
 -86.0262
 22.4763
 22.6622
 22.5055
 -86.0262
 -86.0261
 -86.0262
 -86.0261
 -86.0262
 -86.0262
 -86.0262
 -86.0262
 24.8582
 25.1463
 25.3555
 24.9045
 -86.0266
 -86.0263
 -86.0225
 -86.026
 27.7687
 13.4567
 -46.0216
 20.059
 -86.0262
 -86.0262
 -86.0262
 -86.0262
 -86.0262
 -86.0262
 -86.0262
 -86.0262
 -86.0262
 -86.0262
 -86.0262
 -86.0262
 22.7428
 22.3378
 22.4861
 22.8464
 -86.0262
 -86.0262
 -86.0262
 -86.0262
 24.8392
 24.5105
 25.0951
 24.3192
 -25.1617
 -78.5653
 -74.1076
 12.8637
 -86.0262
 -86.0262
 -86.0262
 -86.0262
 -86.0262
 -86.0262
 -86.0262
 -86.0262
 -86.0261
 -86.0261
 -86.0261
 -86.0262
 -86.0262
 -86.0262
 -86.0261
 -86.0262
 31.4832
 18.3158
 5.01339
 -57.0624
 -86.0262
 -86.0262
 -86.0262
 -86.0262
 -86.0262
 -86.0262
 -86.0262
 -86.0262
 23.4906
 23.1147
 23.2962
 23.4088
 24.5069
 23.3398
 23.7526
 24.141
 22.9881
 23.1922
 22.7365
 23.6206
 22.8758
 25.1912
 24.9442
 23.4377
 23.2216
 22.5031
 22.677
 22.8276
 -86.0172
 -85.9924
 -86.0338
 -86.0323
 -86.0262
 -86.0262
 -86.0262
 -86.0262
 -86.0262
 -86.98
 -85.9598
 -86.012
 -86.2458
 -86.3622
 -89.0487
 -85.0134
 -85.4716
 -86.0262
 -86.0262
 -86.0262
 -86.0262
 22.3988
 22.4386
 22.4537
 22.4072
 27.3102
 25.7943
 23.6518
 24.5044
 -86.0262
 -86.0262
 -86.0262
 -86.0262
 -86.0262
 -86.0262
 -86.0262
 -86.0262
 -86.0262
 -86.0262
 -86.0262
 -86.0262
 -86.0262
 -86.0262
 -88.496
 -78.6246
 -82.085
 -86.9077
 23.66
 23.943
 23.7372
 23.8537
 -86.0262
 -86.0262
 -86.0261
 -86.0262
 23.2853
 22.7422
 22.6894
 22.6262
 -86.0262
 -86.0262
 -86.0262
 -86.0262
 -86.9243
 -88.4827
 -86.2422
 -86.0429
 -86.0262
 -86.0262
 -86.0262
 -86.0262
 -86.0305
 -85.9908
 -86.0271
 -86.0375
 -85.4165
 -86.2869
 -86.5662
 -86.0665
 -86.0262
 -86.0262
 -86.0262
 -86.0262
 -86.0262
 -86.0262
 -86.0262
 -86.0262
 -86.0262
 -86.0262
 -86.0262
 -86.0262
 -86.0005
 -86.1159
 -86.0589
 -85.9612
 -86.0262
 -86.0262
 -86.0262
 -86.0262
 -87.0223
 -86.0156
 -86.9814
 -85.7836
 -86.0262
 -86.0262
 -86.0262
 -86.0262
 -75.1796
 -72.0548
 -67.7338
 -88.6584
 22.4835
 22.3681
 22.4838
 22.4183
 22.657
 22.5742
 22.5251
 22.6371
 23.3516
 23.5703
 22.9086
 24.8146
 25.4323
 25.5481
 25.8117
 22.84
 24.4439
 26.8219
 23.3595
 -86.0262
 -86.0262
 -86.0262
 -86.0262
 23.3444
 23.1943
 23.0443
 23.3297
 -86.0256
 -86.0255
 -86.0262
 -86.0264
 -86.0181
 -86.0343
 -86.0355
 22.3612
 22.6435
 22.4206
 22.4516
 22.4427
 22.4041
 22.3909
 -86.029
 -86.0265
 -86.0317
 -86.0088
 -86.0262
 -86.0262
 -86.0262
 -86.0262
 -82.7043
 -87.788
 -85.9794
 -85.7426
 22.6349
 22.8357
 22.7844
 22.6758
 -86.0262
 -86.0262
 -86.0262
 -86.0262
 -86.0262
 -86.0262
 -86.0262
 -86.0262
 -86.0255
 -86.0299
 -86.026
 -86.0266
 14.7701
 -58.7132
 7.19429
 11.0604
 -86.0262
 -86.0262
 -86.0262
 -86.0262
 -86.0262
 -86.0262
 -86.0262
 -86.0262
 -86.0261
 -86.0263
 -86.026
 -86.0265
 24.46
 24.1519
 24.0073
 24.302
 -86.0262
 -86.0262
 -86.0262
 -86.0262
 -86.0262
 -86.0262
 -86.0262
 -86.0262
 -85.5443
 -85.9133
 -86.4827
 -85.5689
 -86.0262
 -86.0262
 -86.0262
 -86.0262
 -86.0262
 -86.0262
 -86.0095
 -86.0426
 -85.9445
 -86.0965
 -86.0262
 -86.0262
 -86.0262
 -86.0262
 -86.0262
 -86.0262
 -86.0262
 -86.0262
 -86.9296
 -89.6305
 -88.3304
 -86.0262
 -86.0262
 22.3924
 22.5256
 22.4835
 22.6137
 -77.0761
 18.2141
 14.6636
 -25.5237
 -86.0262
 -86.0262
 -86.0262
 -86.0262
 -86.0262
 -86.0262
 -86.0262
 -86.0262
 -86.0262
 -86.0262
 -86.0262
 -86.0262
 22.5615
 22.4996
 22.6557
 22.5827
 -44.3407
 -75.0973
 -87.5838
 -77.2537
 -86.0262
 -86.0262
 -86.0262
 -86.0262
 -86.0262
 -86.0262
 -86.0262
 -86.0262
 -86.0262
 -86.0262
 -86.0262
 -86.0262
 -86.0262
 -86.0262
 -86.0262
 -86.0262
 -86.0262
 -86.0262
 -86.0262
 -86.0262
 -86.0262
 -86.0262
 -86.0262
 22.6515
 23.2081
 22.6636
 22.7917
 23.416
 23.7489
 23.2953
 -86.0262
 -86.0261
 -86.0262
 -86.0262
 -86.0262
 -86.0262
 -86.0262
 -86.0262
 24.6496
 25.2483
 -86.0262
 -86.0262
 -86.0262
 -86.0262
 -86.0855
 -85.52
 -86.0388
 -85.9284
 -85.7211
 -85.9983
 -86.0262
 -86.0262
 -86.0262
 -86.0262
 23.7298
 23.8777
 23.4558
 24.2629
 24.4487
 24.0566
 24.3895
 25.3415
 -86.0262
 -86.0262
 -86.0262
 -86.0262
 -86.0262
 -86.0262
 -86.0262
 -86.0262
 -86.0262
 -86.0262
 26.3616
 28.2993
 23.8154
 28.0345
 -86.0262
 -86.0262
 -86.0262
 -86.0262
 -86.0262
 -86.0262
 -86.0262
 -86.0262
 -85.3755
 -80.2343
 -78.3429
 20.3045
 -86.0262
 -86.0262
 -86.0262
 -86.0262
 20.8408
 34.6102
 25.5392
 24.9806
 30.3935
 31.9648
 26.0526
 27.41
 -86.0262
 -86.0262
 -86.0262
 -86.0262
 22.4025
 22.4882
 22.4517
 22.3813
 -86.0262
 -86.0262
 -86.0262
 -86.0262
 23.0296
 22.5147
 22.5657
 22.489
 22.4057
 23.6694
 -86.0262
 -86.0262
 -86.0262
 -86.0262
 -86.0262
 -86.0262
 -86.0262
 -86.0262
 22.3834
 22.42
 22.4594
 22.3919
 -86.0262
 -86.0262
 -86.0262
 -86.0262
 24.874
 24.5753
 24.6792
 -86.0262
 -86.0262
 -86.0262
 -86.0262
 -86.0262
 -86.0262
 22.3645
 22.6925
 22.7452
 22.4571
 -86.0262
 -86.0262
 -86.0262
 -86.0262
 22.386
 22.4152
 -86.0262
 -86.0262
 -86.0262
 -86.0262
 -86.0272
 -86.0233
 -86.0248
 -86.0264
 -86.0262
 -86.0262
 -86.0261
 -86.0263
 -86.0261
 -86.0261
 -86.0262
 -86.0262
 -86.0262
 -86.0262
 24.4325
 24.6418
 23.9765
 24.2757
 -86.0262
 -86.0262
 -86.0262
 23.9773
 -86.0262
 -86.0262
 -86.0262
 -86.0262
 22.4463
 22.3853
 22.4623
 22.4669
 -86.0262
 -86.0262
 -86.0262
 -86.0262
 30.9617
 22.7736
 27.8661
 27.8625
 -86.0262
 -86.0262
 -86.0262
 -86.0262
 -92.5252
 -86.0262
 -86.0262
 -86.0262
 -86.0262
 -69.7383
 -86.8056
 -86.4916
 -86.8094
 22.7745
 22.6743
 22.403
 23.7069
 23.8607
 24.4509
 23.2942
 22.3355
 22.5281
 22.4156
 22.4918
 -86.0262
 -86.0262
 -86.0262
 -86.0262
 22.4593
 22.4759
 22.3866
 22.5894
 -86.0262
 -86.0262
 -86.0262
 -86.0262
 22.3409
 22.3909
 22.4865
 22.4589
 -86.0262
 -86.0262
 -86.0261
 -86.0262
 24.9901
 25.6665
 27.4109
 28.1509
 -86.0264
 -86.0264
 -86.0263
 -86.0262
 23.5484
 23.0524
 -86.0339
 -86.0279
 -86.0288
 -86.029
 -86.0262
 -86.0262
 -86.0262
 -86.0262
 -86.0262
 -86.0262
 -86.0262
 -86.0262
 -86.0266
 -86.0259
 -86.0322
 -86.019
 21.6545
 19.3278
 24.3544
 25.5241
 23.7405
 26.9613
 24.8072
 23.3579
 22.3366
 22.4404
 22.445
 22.3645
 23.7109
 23.101
 23.741
 23.9658
 -86.0262
 -86.0262
 -86.0262
 -86.0262
 -86.0262
 -86.0262
 -86.0262
 -86.0262
 25.4192
 24.98
 24.8391
 24.9458
 -85.54
 -85.9267
 -85.5538
 -88.0871
 -86.0262
 -86.0262
 -86.0262
 -86.0262
 -86.0262
 -86.0262
 -86.0262
 -86.0262
 22.6325
 22.5925
 22.5893
 22.8006
 -86.0262
 -86.0262
 -86.0262
 -86.0262
 -86.0261
 -86.026
 -86.0262
 -86.0261
 -86.0262
 -86.0262
 -86.0262
 -86.0262
 -85.8238
 -85.3935
 -85.0894
 -84.8898
 22.7317
 22.8315
 22.6476
 22.7178
 -85.6096
 -86.0734
 -86.0878
 -85.9943
 -86.0261
 -86.0262
 -86.0261
 -86.026
 -86.0262
 -86.0262
 -86.0262
 -86.0262
 22.9561
 14.9
 25.9064
 -64.9377
 25.254
 -86.0262
 -86.0262
 -86.0262
 -86.0262
 24.8152
 23.626
 25.2566
 23.7732
 -86.0262
 -86.0262
 -86.0262
 -86.0262
 -86.0982
 -85.3149
 -86.1038
 -86.0262
 -86.0262
 -86.0262
 -86.0262
 22.919
 25.2766
 23.7252
 23.7761
 -86.0262
 -86.0262
 -86.0262
 -86.0262
 27.2765
 27.0631
 27.2549
 27.5858
 -86.0262
 -86.0262
 -86.0262
 -86.0262
 -86.0262
 -86.0262
 -86.0262
 -86.0262
 -86.0262
 -86.0262
 -86.0262
 -86.0262
 24.9876
 24.613
 24.3919
 24.4712
 22.9705
 23.3337
 23.5194
 23.4868
 -86.0262
 -86.0265
 -86.0264
 -86.0263
 -86.0262
 -86.0262
 -86.0262
 -86.0156
 -86.0084
 -86.0259
 -86.0223
 -68.5051
 -92.9196
 7.62614
 -53.044
 -86.0188
 -86.0839
 -86.0725
 -86.047
 -86.0251
 -86.0248
 -86.0383
 -86.0259
 25.3234
 24.9035
 24.926
 24.753
 -86.0262
 -86.0262
 -86.0262
 -86.0262
 -86.0262
 -86.0262
 -86.0262
 26.605
 24.1502
 25.1467
 19.1867
 22.8049
 22.5442
 22.5545
 22.5909
 -86.0262
 -86.0262
 -86.0262
 -86.0262
 -86.0262
 -86.0262
 -86.0262
 22.6447
 22.4771
 22.7457
 22.3658
 -86.0262
 -86.0262
 -86.0262
 -86.0262
 -86.0262
 -86.0262
 -86.0262
 -86.0262
 -86.0262
 -86.0262
 -86.0262
 -86.0262
 22.8382
 22.8573
 23.3431
 22.9715
 -86.0262
 -86.0262
 -86.0262
 -86.0262
 -86.0262
 -86.0262
 -86.0262
 -86.0262
 -86.0262
 -86.0262
 -86.0262
 23.1091
 22.9875
 22.7106
 22.7701
 -86.0261
 -86.0262
 -86.0262
 -86.0259
 25.6963
 25.1247
 26.4611
 -86.0249
 -86.0172
 -86.0246
 -86.026
 -86.0262
 -86.0262
 -86.0262
 -86.0262
 -86.0618
 -86.0581
 -86.194
 -85.0263
 -86.0237
 -86.0311
 -86.0252
 -86.0262
 -86.0262
 -86.0262
 -86.0262
 -86.0262
 -86.0262
 -86.0262
 -86.0262
 -86.0262
 -86.0262
 -86.0262
 -86.0262
 -86.0262
 -86.0262
 -86.0262
 -86.0262
 -86.0262
 -86.0262
 -86.0262
 -86.0262
 -86.0262
 -86.0262
 -86.0262
 -86.0262
 23.0493
 22.6572
 22.6945
 23.2458
 -86.0262
 -86.0262
 -86.0262
 -86.0262
 -86.3725
 -88.4514
 -88.0695
 -85.3983
 24.6415
 24.7747
 24.4212
 24.1488
 24.7313
 23.9809
 24.3033
 24.4583
 23.4285
 22.9797
 23.3349
 23.2773
 25.0191
 25.8265
 25.7717
 24.812
 22.9554
 22.8968
 22.7962
 25.7199
 24.8331
 25.0931
 25.1106
 -86.0262
 -86.0262
 -86.0262
 -86.0262
 -86.0262
 -86.0262
 -86.0262
 -86.0262
 -86.0262
 -86.0262
 -86.0262
 -86.0262
 -86.0262
 -86.0262
 -86.0262
 -86.0262
 22.8936
 22.7891
 23.1804
 23.2489
 -86.0262
 -86.0262
 -86.0262
 -86.0262
 -86.0262
 -86.0262
 -86.0262
 -86.0262
 24.9483
 15.0447
 27.1156
 15.9879
 -86.0262
 -86.0262
 -86.0262
 -86.0262
 26.9463
 14.3554
 15.8364
 -86.0255
 -86.0377
 -86.0366
 22.7377
 22.3952
 22.5041
 22.5097
 -86.0262
 -86.0262
 -86.0262
 -86.0262
 -87.944
 -88.1213
 -87.6428
 -86.2563
 -86.0262
 -86.0262
 -86.0262
 -86.0262
 25.6345
 25.4468
 24.0674
 23.934
 23.5709
 24.2661
 -86.0262
 -86.0262
 -86.0262
 -86.0262
 -89.8217
 -77.6355
 -63.4343
 -11.6227
 -86.0262
 -86.0262
 -86.0262
 -86.0262
 -86.0262
 -86.0262
 -86.0262
 -86.0262
 -86.0262
 -86.0262
 -86.0262
 -86.0262
 23.8648
 -50.7923
 23.9594
 -86.0262
 -86.0262
 -86.0262
 -86.0262
 24.145
 23.8467
 24.3091
 24.0881
 -86.0262
 -86.0262
 -86.0262
 -86.0262
 -86.5873
 -90.8134
 -88.0337
 -87.1699
 -86.0262
 -86.0262
 -86.0262
 -86.0262
 -86.0262
 -86.0262
 -86.0262
 -86.0262
 -86.0262
 -86.0262
 -86.0262
 -86.0262
 -86.0262
 -86.0262
 -86.0262
 -86.0061
 -86.0275
 -86.0017
 -86.0572
 -86.0262
 -86.0262
 -86.0262
 25.6588
 28.037
 25.3524
 23.8715
 24.47
 23.1318
 24.415
 23.4768
 17.8416
 -47.0804
 15.5566
 18.4118
 23.9207
 23.1297
 23.3193
 23.4257
 23.8206
 24.6283
 23.2113
 -86.0262
 -86.0262
 -86.0262
 -86.0262
 26.4696
 26.3171
 -78.1197
 -88.2587
 -90.7657
 -87.5018
 -16.8419
 -34.5345
 16.5362
 26.7658
 -86.0262
 -86.0262
 -86.0262
 -86.0262
 -86.0262
 -86.0262
 -86.0262
 -86.0262
 -86.0262
 -86.0262
 -86.0262
 -86.0262
 -86.0262
 -86.0262
 -86.0262
 -86.0262
 -86.0262
 -86.0262
 -86.0262
 -86.0262
 -86.0262
 -86.0262
 -86.0262
 -86.0262
 -86.0262
 -86.0262
 -86.0262
 -86.0262
 -86.0262
 -86.0262
 -86.0262
 22.7733
 23.668
 22.8469
 23.3516
 -86.0261
 -86.0262
 -86.0261
 -86.0261
 22.4988
 22.4813
 22.4028
 22.5843
 -86.0259
 -86.0235
 -86.0362
 -86.0248
 23.4613
 23.7353
 23.6397
 -86.0262
 -86.0262
 -86.0262
 -86.0262
 15.7749
 27.7112
 26.5301
 25.4811
 -86.0262
 -86.0262
 -86.0262
 -86.0262
 -86.0262
 -86.0262
 -86.0262
 -86.0262
 -86.0262
 -86.0262
 -86.0262
 -86.0262
 -86.0262
 22.8462
 22.9254
 22.735
 22.8893
 23.0915
 22.8611
 22.6831
 22.8522
 -86.0262
 -86.0262
 -86.0262
 -86.0262
 -86.0262
 -86.0262
 -86.0262
 -86.0262
 -86.0262
 -86.0262
 24.4419
 26.9805
 23.9558
 23.8432
 -86.0262
 -86.0262
 -86.0262
 -86.0262
 -86.0262
 -86.0262
 -86.0262
 -86.0262
 -86.0262
 -86.0262
 -86.0262
 -86.0262
 -86.0344
 -86.0348
 -86.0225
 -86.0303
 29.1078
 25.7001
 13.6245
 -13.8385
 23.6394
 25.7586
 32.3586
 26.2623
 -86.0262
 -86.0262
 -86.0262
 -86.0262
 -86.0262
 -86.0262
 -86.0262
 -86.0042
 -86.0261
 -86.0218
 -85.9967
 -86.2217
 -85.8504
 -86.623
 22.7496
 23.138
 22.8977
 23.1183
 -86.0262
 -86.0262
 -86.0262
 -86.0262
 -86.0262
 -64.7868
 -74.1511
 -87.768
 -86.3495
 23.0073
 23.8507
 23.9541
 22.9576
 23.1935
 23.1328
 -86.0262
 -86.0262
 -86.0262
 -86.0262
 -86.0262
 -86.0262
 -86.0261
 -86.0261
 -86.0262
 -86.0262
 -86.0262
 -86.0262
 -85.6824
 -86.0261
 -86.0261
 -86.0261
 -86.0261
 -86.0262
 -86.0262
 -86.0262
 -86.0262
 22.627
 22.5682
 23.5774
 23.9927
 24.2992
 23.7852
 -86.0262
 -86.0262
 -86.0262
 -86.0262
 24.408
 24.3833
 26.1336
 24.9169
 -85.8479
 -85.9301
 -86.1564
 -86.9156
 -86.0262
 -86.0262
 -86.0262
 -86.0262
 -86.0262
 -86.0262
 -86.0262
 -86.0262
 -86.0262
 -86.0261
 -86.0262
 -86.0262
 -86.0262
 -86.0262
 -86.0262
 -86.0262
 25.04
 25.5918
 25.6792
 25.7331
 -86.0262
 -86.0262
 -86.0262
 -86.0262
 -86.0262
 -86.0262
 -86.0262
 23.58
 24.1043
 23.5775
 23.6165
 -86.0262
 -86.0262
 -86.0262
 -86.0262
 -86.0262
 -86.0262
 22.8917
 22.7461
 22.5542
 23.7108
 -86.0748
 -86.0161
 -85.7528
 -85.9547
 23.6755
 23.4489
 23.8732
 23.7166
 -86.0262
 -86.0262
 -86.0262
 -86.0262
 -86.0262
 -86.0262
 -86.0262
 -86.0262
 -86.0262
 -86.0262
 22.7286
 22.6517
 23.0078
 22.8376
 24.8369
 26.1528
 24.1602
 24.525
 25.8829
 30.3026
 24.3866
 26.6305
 -86.0262
 -86.0262
 -86.0262
 -86.0262
 -86.0262
 -86.0262
 -86.0262
 -86.0262
 24.9392
 25.5092
 24.8934
 25.2009
 -86.0262
 -86.0262
 -86.0262
 -86.0262
 -86.0216
 -86.0328
 -86.0417
 -86.0246
 -86.0262
 -86.0261
 -86.0262
 -86.0261
 -86.0261
 -86.0262
 -86.026
 -90.9884
 -74.3105
 -90.5459
 -47.0624
 -86.0261
 -86.0262
 -86.0262
 -86.0261
 28.8806
 30.8037
 27.3845
 17.5964
 26.5832
 23.0062
 33.4069
 -39.116
 -86.0262
 -86.0262
 -86.0262
 -86.0262
 -86.0262
 -86.0262
 -86.0262
 -86.0254
 -86.026
 -86.026
 -86.0261
 22.9845
 22.4819
 22.6926
 22.5326
 -86.0262
 -86.0262
 -86.0262
 -86.0262
 -86.0262
 -86.0262
 -85.6367
 -86.08
 -85.9981
 -85.9668
 -86.0262
 -86.0258
 -86.0265
 -86.0294
 28.1408
 28.0878
 27.7481
 28.4067
 -86.0262
 -86.0262
 -86.0262
 -86.0262
 28.9165
 26.7443
 -86.0262
 -86.0262
 -86.0262
 -86.0262
 18.6125
 21.959
 19.9537
 23.3251
 -86.0246
 -86.0287
 -85.9194
 -86.1267
 -86.0262
 -86.0262
 -86.0262
 -86.0262
 -91.2644
 -64.4511
 -67.8911
 -70.4921
 -86.0262
 -86.0262
 -86.0262
 -86.0262
 -86.0262
 -86.0262
 -86.0262
 -86.0262
 22.7477
 22.7071
 22.6392
 22.8006
 -86.0263
 -86.0261
 -86.025
 -86.0262
 -86.0262
 -86.0262
 22.1947
 22.3122
 22.2315
 22.2712
 22.3749
 22.2695
 22.3716
 22.2657
 -86.0262
 -86.0265
 -86.0266
 -86.0255
 22.8344
 23.0996
 22.9236
 23.0244
 24.0355
 24.4278
 24.0978
 24.5395
 -86.0262
 -86.0262
 -86.0262
 -86.0262
 22.5823
 22.4912
 22.4059
 22.3625
 27.7082
 28.0048
 27.293
 27.9867
 25.8967
 25.2882
 26.6985
 24.093
 -86.0257
 -86.0234
 -86.0267
 -86.0263
 22.5315
 22.6588
 22.6164
 22.741
 5.65925
 -30.8844
 14.9379
 -86.1256
 -85.6896
 -86.0262
 -86.0262
 -86.0262
 -86.0262
 -86.2354
 -89.1525
 -86.5791
 -87.1935
 -86.0262
 -86.0262
 -86.0262
 -86.0262
 -86.0262
 -86.0262
 -86.0262
 -86.0262
 -86.031
 -86.0342
 -86.0262
 -86.0272
 -86.0262
 -86.0262
 -86.0262
 -86.0262
 -64.9627
 12.7696
 15.0363
 -16.6227
 -86.022
 -86.0245
 -86.0262
 -86.0262
 -86.0262
 -86.0262
 24.2785
 24.4232
 24.6926
 24.2051
 -86.0262
 -86.0262
 -86.0262
 -86.0262
 22.4785
 22.4304
 22.4583
 22.3621
 -86.0262
 -86.0262
 -86.0262
 -86.0262
 22.5688
 23.2866
 22.9411
 23.2098
 -85.8049
 -85.9453
 -86.1076
 -86.7107
 -86.0262
 -86.0262
 -86.0262
 -86.0262
 26.396
 26.0144
 26.1181
 25.6063
 -86.0262
 -86.0262
 -86.0262
 -86.0262
 -86.0262
 -86.0262
 -86.0262
 -86.0262
 24.1908
 24.2604
 23.8596
 24.2685
 -86.0262
 -86.0262
 -86.0261
 -86.0261
 22.4366
 22.2926
 22.446
 22.454
 22.5507
 22.8318
 22.6722
 -86.0262
 -86.0262
 -86.0262
 -86.0262
 22.6598
 22.4866
 22.6052
 22.4852
 -86.0262
 -86.0262
 -86.0262
 -86.0262
 22.4496
 22.5255
 22.5293
 22.4478
 22.3867
 22.3584
 22.3376
 22.3964
 -86.0262
 -86.0262
 -86.0262
 -86.0262
 -86.0262
 -86.0262
 -86.0262
 -86.0262
 -86.0262
 -86.0262
 -86.0262
 -86.0262
 23.476
 23.2535
 23.3611
 -86.0262
 -86.0262
 -86.0262
 -86.0262
 23.5387
 23.1973
 23.2447
 23.3096
 -86.0262
 22.4503
 22.4173
 22.5072
 22.5777
 22.4602
 22.4092
 22.4572
 -86.0262
 -86.0262
 -86.0262
 -86.0262
 -86.0262
 -86.0262
 -86.0262
 -86.0262
 23.9093
 23.4042
 23.9125
 24.1134
 -86.0262
 -86.0262
 -86.0262
 -86.0262
 -37.9405
 -67.7743
 17.6606
 -86.0262
 -86.0262
 -86.0262
 -86.0262
 -86.0262
 -86.0262
 -86.0262
 22.4083
 22.5184
 22.4973
 -86.034
 -86.0283
 -86.0517
 -86.0401
 -86.0262
 -86.0262
 -86.0262
 -86.0262
 -86.0262
 -86.0262
 -86.0262
 -86.0262
 -84.5533
 -64.0486
 -40.522
 -86.0262
 -86.0262
 -86.0262
 -86.0262
 -86.0262
 -86.0262
 -86.0262
 -86.0262
 -86.0261
 -86.0261
 -86.0262
 -86.0262
 -86.0262
 -86.0262
 -86.0262
 -86.0262
 -86.0262
 -86.0262
 -86.0262
 22.6772
 22.6898
 22.5694
 22.3116
 -86.0262
 -86.0262
 -86.0264
 -86.0266
 -86.0262
 -86.0262
 -86.0263
 -86.027
 -86.0263
 -86.0262
 23.3928
 22.9117
 23.0254
 22.9661
 22.913
 -86.0262
 -86.0262
 -86.0262
 -86.0262
 23.1185
 22.4466
 22.9852
 24.5823
 24.4959
 24.2944
 24.3938
 25.9029
 18.1974
 23.0854
 20.7496
 -86.0262
 -86.0262
 -86.0262
 -86.0262
 -86.0262
 -86.0262
 -86.0262
 -86.0262
 24.9313
 24.9905
 24.7715
 24.7038
 22.9936
 23.4626
 24.0254
 24.1396
 -86.0262
 -86.0262
 -86.0262
 -86.0262
 -86.0262
 -86.0262
 -86.0262
 -86.0262
 -86.0262
 -86.0262
 -86.0262
 -86.0262
 -86.0262
 -86.0262
 -86.0262
 -86.0262
 -86.0262
 -86.0262
 -86.0262
 -86.0262
 24.2388
 23.0262
 24.2976
 23.3034
 -85.6217
 -85.22
 -87.8061
 -85.1821
 -86.0262
 -86.0262
 -86.0262
 -86.0262
 21.7312
 24.617
 28.5492
 24.8454
 -85.2198
 -86.5183
 -80.5138
 -87.6698
 24.4445
 24.0064
 28.6991
 24.6504
 26.635
 25.7048
 26.1137
 27.062
 22.6404
 23.0908
 23.3101
 26.0195
 28.2979
 13.5511
 0.113173
 25.7301
 -58.3234
 -86.0157
 -86.0482
 -86.025
 -86.0535
 23.0606
 22.9151
 22.7612
 22.841
 -86.0262
 -86.0262
 -86.0262
 -86.0262
 -85.991
 -85.5682
 -85.556
 -86.0988
 -86.0256
 -86.0264
 -86.026
 -86.0257
 -86.0262
 -86.0262
 -86.0261
 -86.0262
 -86.0262
 -86.0262
 -86.0262
 -86.0262
 27.6017
 26.6924
 -85.6563
 -84.8367
 -85.7189
 -86.0262
 -86.0262
 -86.0262
 -86.0262
 -86.0262
 -86.0262
 -86.0262
 -86.0262
 -86.0262
 -86.0262
 -86.0262
 -86.0262
 -86.0262
 -86.0262
 -86.0262
 24.1153
 23.6135
 23.7551
 23.9301
 -86.0314
 -86.0257
 -86.0264
 -86.0249
 14.6911
 30.3029
 26.7559
 26.504
 -88.2316
 -89.3228
 -86.3809
 -85.6066
 29.0532
 25.9469
 22.0956
 29.1016
 -86.0261
 -86.0262
 22.4547
 24.0785
 22.4563
 23.7814
 24.4009
 28.102
 23.589
 23.459
 -86.0262
 -86.0262
 -86.0262
 -86.0262
 -86.0262
 -86.0262
 -86.0262
 -86.0262
 -86.0624
 -86.0321
 -86.0501
 -86.1125
 -86.0146
 -86.0206
 -85.9993
 -86.32
 -86.0262
 -86.0262
 -86.0262
 -86.0262
 28.08
 24.9625
 10.8637
 16.1189
 26.2346
 26.0259
 26.3283
 25.9551
 22.4181
 22.4408
 22.3857
 22.4165
 26.7278
 27.0488
 26.4153
 27.2808
 22.5156
 22.7556
 22.6912
 22.6967
 -86.0333
 -86.1084
 -86.048
 -86.0452
 19.0889
 -44.9047
 -86.0262
 -86.0254
 -86.0262
 -86.0258
 -86.0262
 -86.0262
 -86.0262
 -86.0262
 23.983
 22.6653
 22.8128
 23.242
 -86.0262
 -86.0262
 -86.0261
 -86.0262
 -86.0262
 -86.0262
 -86.0262
 -86.0262
 -86.0262
 -86.0262
 -86.0262
 -86.0262
 -86.0262
 -86.0262
 -86.0262
 -86.0262
 -86.0262
 -86.0262
 -86.0262
 -86.0262
 -86.0262
 -86.0262
 -86.0262
 -86.0262
 25.1435
 23.5711
 28.0461
 25.5752
 -67.565
 -57.5667
 -86.0262
 -86.0262
 -86.0262
 -86.0262
 -86.0262
 -86.0262
 -84.9416
 -87.4168
 -85.0191
 22.4853
 22.4319
 -86.0262
 -86.0262
 -86.0262
 -86.0262
 -86.0262
 -86.0262
 -86.0262
 -86.0262
 -86.0262
 -86.0262
 -86.0262
 -86.0262
 -86.0262
 -86.0262
 -86.0262
 -86.0262
 -85.3651
 -85.8053
 -85.8819
 -85.9662
 27.6493
 28.123
 14.1152
 28.4951
 -86.0262
 -86.0262
 -86.0262
 -86.0262
 -86.0713
 -86.1932
 -86.099
 -86.0439
 -86.0262
 -86.0262
 -86.0262
 -86.0262
 -86.0688
 -86.0761
 -86.0634
 -86.0297
 -86.0325
 -86.0307
 -85.963
 -86.0262
 -86.0261
 -86.0261
 -86.0262
 -86.0262
 -86.0262
 -86.0262
 -86.0262
 -86.0262
 -86.0262
 -86.0262
 -86.0262
 23.3463
 23.256
 23.4061
 23.6658
 -86.0261
 -86.0261
 -86.0261
 -86.0263
 -86.0262
 -86.0262
 -86.0262
 -86.0262
 -86.0262
 -86.0262
 -86.0262
 -86.0262
 -86.0262
 -86.0262
 -86.0262
 -86.0262
 -86.0262
 -86.0262
 -86.0262
 -86.0262
 -86.0262
 -86.0262
 -86.0262
 -86.0262
 22.4121
 22.6319
 22.6573
 22.6341
 -86.0262
 -86.0262
 -86.0262
 -86.0262
 25.8111
 23.9631
 24.6961
 27.0097
 -86.0262
 -86.0262
 -86.0262
 -86.0262
 23.9236
 24.0027
 24.1797
 24.2272
 24.6851
 24.4631
 25.0058
 27.0948
 14.9722
 23.2749
 32.3498
 -86.0262
 -86.0262
 -86.0262
 -86.0262
 25.7358
 24.9674
 25.228
 -86.0262
 -86.0262
 -86.0262
 -86.0262
 22.4873
 22.5543
 22.5528
 22.5001
 22.3336
 22.5198
 -86.0262
 -86.0262
 -86.0262
 -86.0262
 -86.0262
 -86.0262
 -86.0262
 -86.0262
 -86.0262
 -86.0262
 -86.0262
 -86.0252
 -86.0224
 -86.0258
 24.7542
 23.8725
 23.8884
 27.4967
 25.9211
 18.3269
 25.5402
 24.6023
 24.1006
 23.693
 24.9037
 -86.0262
 -86.0262
 -86.0261
 -86.0262
 23.037
 23.0359
 23.1975
 22.6672
 -86.0262
 -86.0261
 -86.0262
 -86.0263
 -86.0262
 -86.0262
 -86.0262
 25.3334
 24.7963
 25.1271
 26.003
 -94.5486
 -85.785
 -85.8988
 -85.9631
 -85.921
 -85.88
 -86.5292
 -85.8811
 -86.0262
 -86.0262
 -86.0262
 -86.0262
 -86.0262
 -86.0262
 -86.0262
 -86.0262
 -86.0262
 -86.0261
 -86.0262
 -86.0262
 -86.0262
 -86.0262
 27.2575
 26.0361
 25.2344
 25.149
 25.587
 -86.0262
 -86.0262
 -86.0262
 -86.0262
 -86.0262
 -86.0262
 -86.0262
 -86.0262
 -86.0262
 -86.0262
 -86.0262
 -86.0262
 -86.0262
 -86.0262
 25.2962
 28.841
 29.3521
 27.1119
 23.6902
 23.8396
 24.6356
 23.6276
 -86.0262
 -86.0262
 27.8318
 24.5885
 24.7829
 24.3128
 12.9176
 29.6112
 24.7722
 -85.9956
 -86.0091
 -86.0369
 -86.0359
 -86.0262
 -86.0262
 -86.0262
 -86.0262
 25.9884
 23.2902
 24.4572
 25.5068
 22.4029
 22.4218
 22.3248
 22.4681
 23.1658
 22.6455
 22.9069
 25.8849
 26.0921
 25.1904
 26.4641
 -86.0262
 -86.0262
 -86.0262
 -86.0262
 -86.0262
 -86.0262
 -86.0262
 -86.0262
 -86.0262
 -86.0262
 -86.0262
 -86.0262
 22.5552
 23.1377
 23.6292
 22.7801
 -44.4357
 -93.6989
 -94.6572
 -39.8034
 -86.0262
 -86.0262
 -86.0261
 -86.0262
 -74.3072
 -92.714
 -69.984
 -76.8408
 -86.1091
 -85.9838
 -86.0563
 -85.8295
 -86.045
 -86.0941
 -86.0339
 -86.0022
 -75.8494
 13.7206
 -15.627
 22.555
 22.822
 22.6016
 22.6975
 -86.0262
 -86.0262
 -86.0262
 -86.0262
 -86.0261
 -86.0264
 -86.0263
 -86.0259
 -86.0262
 -86.0262
 -86.0262
 -86.0262
 -86.0262
 -86.0262
 -86.0262
 -86.0262
 -86.0262
 -86.0262
 -86.0262
 -86.0262
 -86.0262
 -86.0262
 -86.0262
 -86.0262
 -86.1491
 -86.0876
 -86.0808
 -86.0262
 -86.0262
 -86.0262
 -86.0262
 -86.0262
 -86.0262
 -86.0262
 -86.0262
 25.6861
 25.1131
 25.1098
 25.439
 -86.0297
 -86.0172
 -86.0608
 -86.0338
 22.6697
 22.7944
 23.2071
 23.1528
 -85.3613
 -86.4829
 -85.2924
 -85.9006
 -81.5132
 -55.2441
 -92.1953
 -90.5005
 -86.0262
 -86.0262
 -86.0262
 -86.0262
 -86.0195
 -86.0452
 -86.03
 -86.0389
 22.3393
 22.4122
 22.2484
 22.2908
 -87.814
 -86.2844
 -83.3858
 -88.9009
 -86.0262
 -86.0262
 -86.0262
 -86.0262
 22.4981
 22.6144
 22.7322
 22.8284
 -86.0262
 -86.0262
 -86.0262
 -86.0259
 -86.0257
 -86.0298
 -86.0262
 -86.0262
 -86.0262
 -86.0262
 -86.0262
 -86.0262
 -86.0262
 -86.0262
 -86.0262
 -86.0262
 -86.0262
 -86.0262
 -87.7746
 -83.7382
 -86.5882
 -68.6309
 -86.0273
 -86.0226
 -86.0326
 -86.025
 22.9014
 23.0027
 23.104
 22.9102
 -86.0262
 -86.0262
 -86.0262
 -86.0262
 -86.0262
 -86.0262
 -86.0262
 -86.0262
 -86.0262
 -86.0262
 -86.0262
 -86.0262
 -86.0262
 -86.0262
 -87.2575
 -77.115
 -86.7275
 -86.0262
 -86.0262
 -86.0262
 -86.0262
 -86.0262
 -86.0261
 -86.0261
 -86.0262
 -86.0262
 -86.0262
 -86.0262
 -86.0262
 -86.0262
 -86.0262
 -86.0262
 -86.0262
 -86.0262
 -86.0262
 -86.0262
 -86.0261
 -86.0262
 -86.0262
 -86.0262
 -86.0262
 -86.0262
 -86.0262
 -86.0262
 23.904
 23.7684
 24.7085
 24.3143
 23.2924
 24.906
 23.6023
 22.2116
 24.7074
 24.771
 24.966
 24.1518
 -85.389
 -86.0997
 -85.8531
 -85.7786
 -86.0262
 -86.0262
 -86.0262
 -86.0262
 -86.0262
 -86.0262
 -86.0262
 -86.0262
 -86.0262
 -86.0262
 -86.0269
 -86.0266
 -86.0262
 -86.0262
 -86.0262
 -86.0262
 -86.0262
 -86.0262
 -86.0262
 23.6967
 24.058
 23.6367
 23.6583
 22.9023
 22.82
 22.7852
 23.074
 -86.0262
 -86.0262
 -86.0262
 -86.0262
 -86.0262
 -86.0262
 -85.6497
 -85.4772
 -85.2151
 -89.2863
 -86.0262
 -86.0262
 -86.0262
 -86.0262
 -86.0262
 -86.0262
 -86.0261
 27.4211
 27.6955
 27.0857
 -86.0258
 -86.0357
 -86.0252
 -86.027
 22.5831
 23.0988
 22.7038
 22.4772
 -85.9832
 -85.9987
 -85.9625
 -85.9709
 27.8047
 25.9811
 26.1457
 28.2321
 -86.0262
 -86.0262
 -86.0262
 -86.0262
 -86.0262
 -86.0262
 -86.0262
 -86.0262
 -86.0255
 -86.04
 -85.8469
 -86.0418
 -86.0262
 -86.0262
 -86.0262
 -86.0262
 -86.0262
 -86.0262
 -86.0262
 -86.0262
 -86.0261
 -86.0261
 -86.026
 -86.0262
 23.6734
 22.1257
 11.2354
 -86.0402
 -86.0032
 -86.0758
 -86.0387
 -86.0262
 -86.0262
 -86.0262
 -86.0262
 -86.0262
 -86.0262
 -86.0262
 -86.0262
 -86.0262
 -86.0262
 -86.0262
 -86.0262
 -86.0262
 -86.0262
 -86.0262
 -86.0262
 22.7842
 22.717
 22.6672
 25.1512
 24.9333
 24.3833
 24.8673
 23.3718
 22.6885
 22.9166
 22.92
 -86.0378
 12.0515
 30.278
 29.9963
 19.6049
 -86.0255
 -86.0263
 -86.0261
 -86.0267
 -86.0262
 -86.0262
 -86.0262
 -86.0262
 -86.0262
 -86.0262
 -86.0262
 -86.0262
 -86.0262
 -86.0262
 -86.0262
 -86.0262
 -86.0262
 -86.0262
 -86.0262
 -86.0262
 -86.0262
 -86.0262
 -86.0262
 25.6085
 24.6069
 25.0087
 24.8624
 -86.0262
 -86.0262
 -86.0262
 -86.0262
 25.5286
 27.9902
 21.5028
 28.7832
 -86.0256
 -86.0132
 -86.0589
 -86.0256
 -86.0262
 -86.0262
 -86.0262
 -86.0262
 -86.0262
 -86.0262
 -86.0262
 24.4744
 24.5762
 24.738
 -86.0262
 -86.0262
 -86.0262
 -86.0262
 -86.0262
 -86.0262
 -86.0262
 -86.0262
 -86.0262
 -86.0262
 -86.0262
 -86.0262
 -86.0262
 -86.0262
 -86.0262
 -86.0262
 -86.0262
 -86.0262
 -86.0262
 -86.0261
 -86.0263
 -86.0261
 -86.0262
 24.6353
 23.9242
 24.0267
 23.6881
 22.6775
 22.4509
 22.6813
 22.8621
 -86.0262
 -86.0262
 -86.0262
 -86.0262
 22.5949
 22.7348
 22.603
 22.5597
 23.7488
 24.3308
 24.1369
 23.5651
 22.4208
 22.369
 22.3153
 22.3209
 -89.0156
 -87.7391
 -71.8023
 -86.3835
 -86.0221
 -86.0205
 -86.0477
 -86.0262
 -86.0262
 -86.0262
 -86.0262
 23.3771
 22.9417
 23.4455
 22.9939
 24.5239
 23.5951
 23.2436
 23.5059
 27.5991
 27.6931
 26.397
 27.2928
 -86.0262
 -86.0262
 -86.0262
 -86.0262
 -86.0262
 -86.0262
 -86.0262
 -86.0262
 -86.0262
 -86.0262
 -86.0262
 -86.0262
 -86.0262
 -86.0262
 -86.0262
 -86.0262
 -86.0262
 -86.0262
 -86.0262
 23.9216
 24.2288
 24.6606
 24.4111
 23.4911
 23.9367
 25.0181
 24.6737
 -86.0261
 -86.0262
 -86.0262
 -86.0261
 22.9063
 22.915
 -85.9641
 -85.9369
 -86.0266
 -86.0344
 22.5937
 22.7816
 23.1564
 22.6384
 -86.184
 -85.6416
 -86.1586
 -85.6234
 -86.0262
 -86.0262
 -86.0262
 -86.0262
 -86.0262
 -86.0262
 -86.0262
 -86.0262
 -86.0262
 -86.0262
 -86.0262
 -86.0262
 22.3791
 22.3466
 22.2215
 22.3811
 23.5375
 23.6433
 23.6179
 23.9988
 -86.0262
 -86.0262
 -86.0262
 -86.0262
 -86.0249
 -86.0269
 -86.0263
 -86.0202
 -86.0262
 -86.0262
 -86.0262
 -78.1016
 -85.7721
 -85.5299
 -85.6136
 -86.0262
 -86.0262
 -86.0262
 -86.0262
 -86.0276
 -86.0278
 -86.0258
 -86.0263
 -86.0673
 -88.3492
 -90.9892
 -74.9201
 -86.0173
 -86.0158
 -86.0163
 22.4809
 22.4185
 22.4168
 22.3916
 -85.8034
 -32.119
 -86.0262
 -86.0262
 -86.0262
 -86.0262
 26.1244
 27.9541
 27.1804
 -86.0262
 -86.0262
 -86.0262
 -86.0262
 -85.9769
 -85.8866
 -86.0882
 -86.0261
 -86.0262
 -86.0262
 -86.0261
 -90.7874
 -87.9642
 -79.0357
 -92.5503
 -82.5899
 -30.1661
 -86.0262
 -86.0262
 -86.0262
 -86.0262
 -86.0262
 -86.0262
 -86.0262
 -86.0262
 -86.0183
 -86.0246
 -86.0261
 -86.0265
 -85.095
 -85.9316
 -85.7282
 -86.1103
 -86.0262
 -86.0262
 -86.0262
 -86.0262
 -86.0262
 -86.0262
 -86.0262
 -86.0262
 -86.0262
 -86.0262
 -54.5737
 -80.0802
 20.734
 -24.3208
 -85.5359
 -85.9909
 -89.1798
 -85.514
 -85.141
 -87.4839
 -87.7068
 -86.8434
 -86.0262
 -86.0262
 -86.0262
 -86.0262
 -86.0262
 -86.0262
 -86.0262
 -86.0262
 -86.0262
 -86.0262
 -86.0262
 -86.0262
 -86.0262
 -86.0262
 -86.0262
 -86.0262
 23.8664
 25.3763
 24.0619
 24.9798
 -86.0271
 -86.026
 -86.0295
 -86.0262
 -86.0262
 -86.0262
 16.5268
 25.7439
 19.9498
 27.2689
 31.8412
 -59.3889
 19.1973
 23.8966
 -86.0262
 -86.0262
 -86.0262
 -86.0261
 -86.0266
 -86.0262
 -86.0261
 -86.0262
 -86.0262
 -86.0262
 -86.0262
 22.5154
 22.6661
 22.4333
 22.5841
 -86.0262
 -86.0262
 -86.0262
 -86.0262
 -86.0262
 -86.0262
 -86.0262
 25.3577
 26.0313
 26.4431
 25.8535
 22.4338
 22.5282
 -86.0262
 -86.0262
 -86.0262
 -86.0262
 -86.0262
 -86.0264
 -86.0262
 -86.0262
 -86.0262
 -86.0261
 -86.0262
 -86.0262
 -86.0262
 -86.0262
 23.154
 22.855
 24.0285
 23.395
 -86.0262
 -86.0262
 -86.0262
 -86.0262
 25.928
 18.1124
 12.9251
 27.4949
 -86.0262
 -86.0262
 -86.0262
 -86.0262
 -86.0262
 -86.0262
 -86.0262
 -86.0262
 -86.0262
 -86.0262
 -86.0262
 -86.0262
 -86.0262
 -86.0262
 26.5847
 23.8533
 -86.0262
 -86.0262
 -86.0262
 -86.0262
 24.4099
 24.2716
 24.5802
 24.5067
 -86.0262
 -86.0262
 -86.0262
 -86.0262
 23.1074
 22.5019
 22.3767
 22.4564
 23.2628
 23.6903
 22.9164
 23.6009
 28.5792
 18.145
 23.1007
 23.4684
 23.2553
 23.2227
 -86.0262
 -86.0262
 -86.0262
 -86.0262
 22.8551
 23.015
 22.9929
 22.8604
 25.4038
 26.0696
 26.0698
 25.6019
 -86.476
 -85.3501
 -83.1726
 -83.0137
 -86.026
 -86.0261
 -86.0273
 -86.0273
 23.0625
 22.7616
 22.8502
 23.001
 -86.0262
 -86.0262
 -86.0262
 -86.0262
 22.9149
 23.3101
 -86.0262
 -86.0262
 -86.0262
 -86.0262
 22.456
 22.3701
 22.4758
 22.4902
 -86.0262
 -86.0262
 -86.0262
 -86.0262
 -86.0262
 -86.0262
 -86.0262
 -86.0262
 -86.0262
 -86.0262
 -86.0262
 -86.0262
 -86.0262
 -86.0262
 -86.0262
 -86.0262
 -86.0262
 -86.0262
 -86.0262
 -84.11
 -85.1438
 -85.5541
 22.3654
 22.42
 22.6605
 22.4872
 -86.0257
 -86.0272
 -86.0237
 -86.0262
 -86.0262
 -86.0262
 -86.0261
 -86.0262
 -86.0261
 -86.0252
 -89.8136
 -88.5376
 -87.7886
 -64.5564
 -86.0262
 -86.0262
 -86.0262
 -86.0262
 -86.0262
 -86.0262
 -86.0262
 -86.0262
 -86.0262
 -86.0262
 -86.0262
 -86.0261
 -86.0262
 -86.0261
 22.3615
 22.2461
 22.2952
 22.3147
 24.3736
 26.114
 26.9742
 23.9524
 -86.0262
 -86.0261
 -86.0261
 -86.0262
 -86.0262
 -86.0262
 -86.0262
 -86.0795
 -86.0318
 -86.0425
 -86.091
 -86.0262
 -86.0262
 -86.0262
 -86.0262
 -86.0262
 -86.0262
 -86.0262
 -86.0262
 -86.0262
 -86.0262
 -86.0262
 -86.0262
 22.5048
 22.5541
 22.8353
 22.6349
 -86.0262
 -86.0262
 -86.0262
 -86.0262
 -86.0262
 -86.0262
 -86.0262
 -86.0262
 -86.0262
 -86.0262
 -86.0262
 -86.0262
 -86.0262
 -86.0262
 -90.3779
 -86.0262
 -86.0262
 -86.0262
 -86.0262
 23.0888
 23.0467
 23.2807
 22.4972
 22.5255
 22.6629
 -86.0262
 -86.0262
 -86.0262
 -86.0262
 25.6733
 25.7441
 25.9559
 26.0508
 -86.0262
 -86.0396
 -86.0335
 -86.0762
 -86.0763
 -86.0262
 -86.0262
 -86.0262
 -86.0262
 23.2318
 23.2875
 22.8144
 23.0368
 12.7407
 26.8559
 17.8503
 24.8737
 23.9527
 23.2858
 24.4119
 24.086
 -86.0262
 -86.0262
 -86.0262
 -86.0262
 -86.0262
 -86.0262
 -86.0262
 -86.0262
 -86.0302
 -86.0266
 -86.0305
 -86.0246
 -86.0262
 -86.0262
 -86.0262
 -86.0262
 -47.2841
 -30.2142
 24.117
 10.8519
 -86.0262
 -86.0262
 -86.0262
 -86.0262
 -86.0262
 -86.0262
 -86.0262
 -86.0262
 -86.2009
 -86.0048
 -85.8193
 -89.4629
 23.4757
 24.013
 23.7533
 24.0726
 -86.0262
 -86.0262
 -86.0262
 -86.0262
 -86.0262
 -86.0262
 -86.0262
 -86.0262
 23.0778
 23.3681
 23.3154
 23.4928
 -86.0262
 -86.0262
 -86.0262
 -86.0262
 -86.0262
 -86.0262
 -86.0259
 -86.0266
 -86.0261
 -86.026
 -86.0262
 -86.0262
 -86.0262
 -86.0262
 27.1352
 27.5628
 27.427
 26.9657
 22.8697
 22.822
 23.4067
 15.7197
 14.1627
 30.9633
 14.2863
 -86.0262
 -86.0262
 -86.0262
 -86.0262
 -86.0262
 -86.0262
 -86.0262
 -86.0262
 -86.0262
 -86.0262
 21.4173
 26.8595
 24.2904
 17.6642
 -60.8032
 -63.3307
 -88.6304
 -53.464
 28.2573
 25.0146
 29.5194
 25.3461
 25.0183
 25.1343
 24.2259
 25.3316
 23.75
 23.1945
 24.602
 -86.0262
 -86.0482
 -86.0328
 -86.045
 -86.024
 -86.0257
 -86.0268
 -86.0292
 -86.0294
 22.5239
 22.7234
 22.6756
 23.054
 24.3272
 26.0197
 24.9596
 24.5446
 -85.1817
 -86.1895
 -85.7405
 -86.0262
 -86.0262
 -86.0262
 -86.0262
 -86.0324
 -85.9732
 -86.0383
 -86.0146
 -86.0262
 -86.0262
 -86.0262
 -86.0262
 -86.0262
 -86.0262
 -86.0262
 22.402
 22.6742
 22.5575
 22.5027
 22.4627
 22.5858
 22.5017
 -86.0262
 -86.0962
 -85.8782
 -86.0313
 -85.6568
 -86.1465
 -85.7812
 -86.0262
 -86.0262
 -86.0262
 -86.0262
 -86.0262
 -86.0262
 -86.0262
 -86.0262
 -86.0262
 -86.0262
 -86.0262
 -86.0262
 -86.0262
 -86.0262
 -86.0262
 -86.0262
 -86.0262
 -86.0262
 -86.0262
 -86.0262
 -86.0262
 -86.0262
 -86.0261
 -86.0262
 28.1758
 28.3205
 -86.0262
 -86.0262
 -86.0262
 -86.0262
 -86.0258
 -86.0261
 -86.0264
 -86.0261
 -86.0262
 -86.0262
 -86.0262
 -86.0262
 22.501
 22.7844
 22.4205
 22.5718
 22.2923
 22.3754
 22.3822
 22.3999
 -22.6986
 17.4327
 20.4479
 15.157
 -86.018
 -86.0261
 -86.0885
 -86.0162
 -86.0463
 -86.0184
 -86.0262
 26.9122
 24.6148
 24.9611
 24.3583
 24.9566
 24.8659
 25.7153
 24.7141
 22.4868
 22.5317
 22.6129
 22.476
 -86.0262
 -86.0262
 -86.0262
 -86.0262
 24.1681
 24.4155
 24.1832
 24.2106
 -86.0262
 -86.0262
 -86.0262
 -86.0262
 -86.0262
 -86.0262
 -86.0262
 -86.0262
 -48.5574
 -7.07243
 11.3811
 12.9548
 4.71564
 0.0630131
 -76.8132
 -58.6309
 -86.0262
 -86.0262
 -86.0262
 -86.0262
 23.2058
 23.4691
 23.0849
 23.1942
 22.5084
 22.525
 22.4937
 22.6119
 23.8583
 24.3077
 23.636
 23.2121
 22.8681
 22.652
 22.7972
 22.9132
 -86.0262
 -86.0262
 -86.0262
 -86.0262
 -86.0262
 -86.0262
 -86.0262
 -86.0262
 22.4631
 22.4231
 22.495
 22.4771
 -86.0262
 -86.0261
 -86.0262
 -86.0262
 -86.0262
 -86.0262
 -86.0262
 -86.0262
 -86.0262
 -86.0262
 -86.0262
 -86.0262
 24.1683
 24.4312
 23.3304
 23.3512
 22.995
 23.6221
 -86.0262
 -86.0262
 -86.0262
 -86.0262
 -86.0262
 -86.0262
 -86.0262
 -86.0262
 22.4918
 22.3917
 22.7191
 22.6752
 -86.0262
 -86.0262
 -86.0262
 -86.0262
 -86.0262
 -86.0262
 -86.0262
 -86.0262
 24.6446
 24.8288
 24.3821
 24.2486
 -86.0229
 -86.0261
 -86.0284
 -86.0264
 -86.0263
 -86.0264
 -86.0262
 -86.0262
 24.116
 24.8346
 23.7497
 24.2244
 -37.8036
 -48.4376
 -72.7309
 -86.6671
 -86.0262
 -86.0262
 -86.0262
 -86.0262
 -86.0262
 -86.0262
 -86.0262
 -86.0262
 -86.0262
 -86.0262
 -86.0262
 -86.0262
 -86.0262
 -86.0262
 -86.0262
 -86.0243
 -86.0265
 -86.0245
 -86.0266
 25.5539
 25.7056
 25.6645
 25.1133
 -86.0262
 -86.0262
 -86.0262
 -86.0262
 -86.0262
 -86.0262
 -86.0262
 -86.0262
 20.7105
 25.6696
 24.8061
 24.2042
 -87.7825
 -84.5301
 -86.5174
 -86.1418
 -85.6015
 -85.8719
 -84.9452
 -86.0262
 -86.0262
 -86.0262
 -86.0262
 -85.9224
 -86.077
 -86.0335
 -86.0308
 23.0796
 23.261
 22.8942
 23.2552
 -86.0278
 -86.0284
 -86.0208
 -86.0261
 -86.0262
 -86.0262
 -86.0262
 -86.0262
 -86.0262
 -86.0262
 -86.0262
 -86.0262
 28.7512
 28.5218
 28.847
 28.9415
 -86.0262
 -86.0262
 -86.0262
 -86.0262
 -85.4309
 -85.7118
 -85.2447
 -85.4761
 27.6624
 27.6331
 27.1373
 27.219
 23.2711
 23.8485
 23.4982
 27.0467
 29.5528
 23.6919
 23.4535
 22.6868
 22.7623
 23.1623
 22.6541
 -86.0262
 -86.0262
 -86.0262
 -86.0262
 -86.0262
 -86.0262
 -86.0262
 24.5125
 24.9831
 24.8927
 24.9898
 -84.8717
 -84.8408
 -88.1849
 -85.532
 22.8367
 22.8658
 22.7198
 23.3455
 -86.0262
 -86.0262
 -86.0262
 -86.0262
 -86.0262
 -86.0262
 -86.0262
 -86.0262
 -2.47662
 -85.743
 -79.1289
 -86.0262
 -86.0262
 -86.0262
 -86.0262
 -86.0262
 -86.0262
 -86.0262
 -86.0262
 -86.0262
 24.4384
 24.773
 24.5177
 24.9005
 -86.0262
 -86.0262
 -86.0262
 -86.0262
 23.795
 22.7178
 22.9443
 22.6732
 -85.7115
 -86.5884
 -84.2711
 -86.3925
 -86.0262
 22.4425
 22.6361
 22.4243
 24.5164
 25.1775
 24.7609
 24.9311
 -86.0264
 -86.026
 -86.0257
 -86.0261
 -84.8367
 -87.2666
 -74.0614
 -88.0769
 -86.0262
 -86.0262
 -86.0248
 -86.0261
 -86.0263
 -86.0249
 -86.0262
 -86.0262
 -86.0262
 -86.0262
 -86.0262
 -86.0262
 -86.0262
 -86.0262
 29.7263
 15.3735
 30.9625
 24.9521
 -86.0262
 -86.0262
 -86.0262
 -86.0262
 -86.0262
 -86.0262
 -86.0262
 -86.0262
 -86.0262
 -86.0262
 -86.0262
 -86.0262
 -86.0262
 -86.0262
 -86.0262
 -86.0262
 -86.0262
 -86.0262
 24.279
 24.2515
 23.7058
 23.8163
 -88.2782
 -85.7875
 -85.691
 -87.919
 -86.0262
 -86.0262
 -86.0262
 -86.0262
 -86.0257
 -86.0262
 -86.0262
 -86.0264
 24.7231
 24.7466
 -86.0262
 -86.0262
 -86.0262
 -86.0262
 25.1777
 25.0485
 24.7852
 -86.0262
 -86.0262
 -86.0262
 -86.0262
 23.5286
 23.3637
 23.6777
 23.1154
 -86.0262
 -86.0262
 -86.0262
 -86.0262
 -86.0262
 -86.0261
 -86.0262
 24.8042
 24.499
 24.5299
 24.9171
 -85.3025
 -86.025
 -85.574
 -85.9824
 -86.0262
 -86.0262
 -86.0262
 -86.0261
 -86.0262
 -86.0262
 -86.0262
 -86.0262
 -86.0262
 -86.0262
 -86.0417
 -85.539
 -86.7213
 25.436
 24.5875
 24.3946
 25.0873
 -86.0262
 -86.0262
 -86.0261
 -86.0262
 -86.0262
 -86.0262
 -86.0262
 -86.0262
 -86.0262
 -86.0262
 -86.0262
 -86.0262
 -86.0262
 -86.2295
 -86.2059
 -85.9869
 -86.002
 24.0549
 24.029
 24.199
 -86.0262
 -86.0262
 -86.0262
 -86.0262
 -86.0262
 -86.0262
 -86.0262
 15.8855
 21.957
 -65.422
 -59.0176
 -86.0262
 -86.0262
 -86.0262
 -86.0262
 22.3523
 22.5104
 22.4263
 22.4296
 17.2161
 16.6661
 16.9733
 14.2642
 22.3039
 22.4596
 22.3509
 24.2753
 24.4062
 25.106
 24.5797
 -86.0249
 -86.026
 -86.0259
 -86.0263
 22.9123
 22.9064
 22.8266
 22.7685
 -86.0262
 -86.0262
 -86.0262
 -86.0262
 25.0107
 -87.669
 -86.0267
 -86.0262
 -86.0257
 -86.0262
 -89.6473
 -89.1235
 -86.277
 -86.2876
 25.2244
 24.3433
 25.4683
 29.9463
 -88.6921
 -86.2353
 -80.8149
 -87.3166
 22.7005
 23.2039
 22.44
 22.7407
 -86.0261
 -86.0263
 -86.0263
 -86.0237
 -86.0261
 -86.0262
 -86.0262
 -86.0263
 -86.0262
 -86.0262
 -86.0262
 -86.0262
 -86.0262
 -86.0261
 -86.0262
 -86.0262
 -86.0262
 -86.0262
 -86.0262
 -86.0254
 3.30445
 26.0957
 25.5052
 24.5189
 24.0199
 24.0787
 23.6029
 -86.0262
 -86.0262
 -86.0262
 -86.0262
 -86.0278
 -86.0117
 -86.016
 -66.4557
 -60.0409
 -87.2389
 -85.9651
 25.7785
 24.4875
 25.5727
 27.1472
 22.4975
 22.7121
 22.6523
 22.5214
 -86.0262
 -86.0262
 -86.0262
 -86.0262
 -85.8959
 -86.0578
 -86.061
 -86.0459
 -86.0262
 -86.0264
 -86.0261
 -86.0264
 -86.0262
 -86.0262
 -86.0262
 -86.0262
 -86.0259
 -86.0261
 -86.0255
 -86.0264
 24.3108
 30.2355
 23.717
 25.1688
 -86.0262
 -86.0262
 -86.0262
 -86.0262
 -86.0262
 -86.0262
 -86.0262
 -86.0262
 -86.0262
 -86.0262
 -86.0262
 -86.0261
 -86.0259
 -86.0253
 -86.0262
 -86.0263
 -86.0263
 -86.0254
 -86.0259
 -86.0262
 -86.0262
 -86.0262
 -86.0262
 23.9067
 23.8867
 23.5014
 23.7524
 24.3374
 25.6229
 25.2544
 24.6134
 -86.0262
 -86.0262
 -86.0262
 -86.0262
 -86.0262
 -86.0262
 -86.0262
 -86.0262
 22.3902
 22.4715
 22.4154
 22.4594
 -86.0262
 -86.0262
 -86.0262
 -86.0262
 -86.0262
 -86.0262
 -86.0262
 -86.0262
 -86.0262
 -86.0262
 -86.0262
 -86.0262
 -86.0262
 -86.0262
 -86.0262
 25.6362
 25.228
 26.612
 17.7667
 -86.0262
 -86.0262
 -86.0262
 -86.0262
 -86.0262
 -86.0262
 -86.0262
 -86.0262
 -86.0262
 -86.0262
 -86.0262
 25.2698
 25.4498
 25.9673
 26.437
 -86.0262
 -86.0262
 -86.0262
 -86.0262
 -85.8297
 -85.8254
 -85.7403
 -86.122
 23.5664
 23.2565
 23.0332
 23.2286
 22.7905
 22.4661
 22.9917
 22.6481
 -86.0262
 -86.0262
 -86.0262
 -86.0262
 -86.0262
 -86.0262
 -86.0262
 -86.0262
 -86.0239
 -86.0405
 -86.0715
 -86.0815
 -86.0262
 -86.0262
 -86.0262
 -86.0262
 -86.0262
 -86.0262
 -86.0262
 -86.0262
 -86.0262
 -86.0262
 -86.0262
 -86.0262
 -86.0262
 -86.0262
 -86.0262
 -86.0262
 -85.6484
 -86.6685
 -86.152
 -83.3465
 -85.7778
 -85.6809
 -86.0282
 -86.1617
 -86.0262
 -86.0262
 -86.0262
 -86.0262
 24.6004
 23.2024
 25.2167
 24.2324
 -86.0262
 -86.0262
 -86.0262
 -86.0261
 -86.0262
 -86.0262
 -86.0262
 -86.0262
 -86.0262
 -86.0262
 -86.0262
 -85.8271
 -85.9547
 -86.0124
 -85.9364
 -86.0223
 -86.0229
 -86.0395
 25.48
 25.2587
 25.1203
 24.9925
 -86.0262
 -86.0262
 -86.0262
 -86.0262
 -86.0262
 -86.0262
 -86.0262
 -86.0262
 -86.0262
 -86.0262
 -86.0262
 -86.0262
 26.0963
 25.6797
 26.2333
 26.7271
 24.2205
 23.5335
 23.6357
 -86.0262
 -86.0262
 -86.0262
 -86.0262
 22.5347
 23.2173
 22.6559
 -86.0262
 -86.0262
 -86.0262
 -86.0262
 -86.0262
 -86.0262
 -86.0262
 -86.0262
 22.8406
 23.0948
 23.6541
 23.0504
 -86.0262
 -86.0262
 -86.0262
 -86.0262
 24.2302
 24.2864
 24.1661
 24.3208
 -86.0262
 -86.0262
 -86.0262
 -86.0262
 -86.0262
 -86.0262
 -86.0262
 -86.0262
 -86.0262
 -86.0262
 -86.0262
 -86.0262
 -86.0262
 -86.0262
 -86.0262
 -86.0262
 -86.0261
 -86.0262
 -86.0262
 -86.0262
 -86.0262
 -86.0262
 -85.4961
 -85.3749
 -85.644
 -86.0203
 -86.0261
 -86.0261
 -86.0261
 -86.0263
 23.1974
 22.5786
 23.3267
 23.5367
 22.494
 22.4702
 22.5542
 22.7633
 22.6769
 22.9015
 22.7976
 23.6897
 22.5165
 22.4926
 22.6673
 22.4643
 11.9376
 18.1849
 22.9147
 20.5795
 22.5251
 22.6786
 22.5618
 22.6454
 -86.0262
 -86.0262
 -86.0262
 -86.0262
 23.0627
 23.2248
 23.1463
 23.0998
 -86.0262
 -86.0262
 -86.0262
 -86.0262
 24.0209
 27.7713
 25.5717
 22.4879
 22.7517
 22.75
 22.7619
 -86.0262
 -86.0262
 -86.0262
 -86.0262
 -86.0262
 -86.0262
 -86.0262
 -86.0262
 25.0603
 24.9839
 26.7489
 23.7221
 -86.0262
 -86.0261
 -86.0262
 -86.0262
 10.1646
 -39.7222
 20.0157
 22.1669
 21.5699
 19.5753
 29.6365
 -86.0261
 -86.0262
 -86.0262
 -18.46
 18.2095
 -86
 -86.0235
 25.2856
 25.4554
 25.6552
 25.3003
 -86.0266
 -86.0265
 -86.0263
 -86.0259
 17.9354
 -45.948
 11.7495
 -30.554
 -85.7473
 -85.7607
 -85.9963
 -86.7022
 22.4828
 22.7061
 22.4565
 22.7446
 22.8041
 -86.0262
 -86.0262
 -86.0262
 -86.0262
 -86.0262
 -86.0262
 -86.0262
 -86.0262
 12.9309
 -45.3769
 16.7488
 13.4069
 6.47883
 -91.8721
 -74.6997
 -42.8517
 -86.0262
 -86.0262
 -86.0262
 -86.0262
 -86.0165
 -86.0277
 -86.0121
 -86.0285
 -86.0262
 -86.0262
 -86.0262
 -86.0262
 -57.8042
 -87.6105
 -86.0262
 -86.0262
 -86.0262
 -86.0262
 -86.0262
 -86.0262
 -86.0262
 -86.0262
 -86.0262
 -86.0262
 -86.0262
 -86.0262
 -86.0262
 -86.0262
 -86.0262
 -86.0262
 -86.0262
 -86.0262
 -86.0262
 -86.0262
 25.1736
 24.9758
 24.6325
 23.319
 23.0299
 22.9506
 22.6877
 22.9454
 -86.0262
 -86.0262
 -86.0262
 -86.0262
 -86.0261
 -86.0261
 -86.0261
 -86.0261
 22.6235
 23.4088
 22.8495
 23.1236
 -86.0262
 -86.0262
 -86.0262
 -86.0262
 -86.0262
 -86.0262
 -86.0262
 -86.0262
 -86.0262
 -86.0262
 -86.0262
 -86.0262
 -86.0262
 -86.0262
 22.359
 22.374
 22.3909
 22.4049
 23.6308
 23.5166
 23.7003
 23.6684
 -86.0262
 -86.0262
 -86.0262
 -86.0262
 -86.0262
 -86.0262
 -86.0262
 -86.0262
 -86.0262
 -86.0262
 -86.0262
 -86.0262
 -86.0262
 -86.0262
 -86.0262
 -86.0262
 -86.0268
 -86.027
 -86.024
 -86.0262
 -86.0262
 -86.0262
 -86.0262
 22.5537
 22.8088
 22.3638
 22.5924
 23.3323
 23.2072
 23.3156
 25.8782
 25.1911
 24.7987
 25.2282
 -86.1224
 -85.6723
 -86.0201
 -85.7607
 -86.0254
 -86.0187
 -86.0267
 -86.0219
 23.6189
 22.428
 22.4657
 22.7427
 -38.9898
 -39.8912
 -0.347716
 -45.2481
 -86.8623
 -82.834
 -87.6433
 -86.0675
 -86.1125
 -85.9929
 -86.1215
 29.9266
 24.4068
 25.8963
 28.3538
 -86.0262
 -86.0262
 -86.0262
 -86.0262
 -86.0329
 -86.0253
 -86.0911
 -86.0222
 -95.1879
 -92.2654
 -90.8338
 -66.5637
 -86.0262
 -86.0262
 -86.0262
 -86.0247
 -86.0262
 -86.0262
 -86.0262
 -86.0262
 -86.0262
 -86.0262
 -86.0262
 -86.0262
 31.7554
 25.6385
 25.0514
 27.2848
 -86.0262
 -86.0262
 -86.0262
 -86.0262
 -86.0262
 -86.0262
 -86.0262
 -86.0262
 22.6124
 22.4413
 22.5474
 22.4238
 22.2528
 22.2724
 22.2626
 22.2285
 22.9189
 22.7665
 23.1167
 22.9264
 22.942
 23.0413
 22.5809
 22.7843
 -86.0262
 -86.0262
 -86.0262
 -86.0262
 -86.0262
 -86.0262
 -86.0262
 -86.0262
 8.55111
 -87.412
 -0.749714
 -75.2852
 -86.0262
 -86.0262
 -86.0262
 -86.0262
 -86.0262
 -86.0262
 -86.0262
 -86.0262
 -86.0262
 -86.0263
 -86.0264
 -86.0265
 -86.0262
 -86.0262
 -86.0262
 -86.0262
 -86.0262
 -86.0261
 -86.0261
 -86.0262
 -86.0262
 -86.0262
 -86.0262
 -86.0262
 -86.0262
 -86.0262
 -86.0262
 13.015
 23.9372
 15.1616
 14.8337
 -86.0368
 -86.0456
 -86.0351
 25.655
 25.1542
 25.2199
 25.5289
 24.0203
 24.2081
 24.6078
 24.1367
 -86.0262
 -86.0262
 -86.0262
 -86.0262
 -86.023
 -86.0423
 -86.0262
 -86.0262
 -86.0262
 -86.0262
 -86.0286
 -86.0233
 -86.0259
 -86.0259
 23.2632
 23.399
 23.0501
 23.3418
 -86.0262
 -86.0262
 -86.0262
 -86.0262
 -86.0262
 -86.0262
 -86.0262
 -86.0262
 -86.0262
 -86.0262
 -86.0262
 -86.0262
 -86.0256
 -86.0263
 -86.0262
 -86.0262
 -86.0262
 -86.0262
 -86.0262
 -86.0386
 -86.0304
 -86.0074
 -86.0896
 -86.0262
 -86.0262
 22.6918
 22.93
 22.3852
 22.8027
 -86.0262
 -86.0262
 -86.0262
 -86.0262
 -92.0917
 -85.439
 -86.2325
 -86.0262
 -86.0262
 -86.0262
 -86.0262
 -85.4795
 -85.9719
 -86.071
 -85.8325
 -86.0262
 -86.0262
 -86.0262
 -86.0262
 -86.0262
 -86.0262
 -86.0262
 -85.2671
 -85.5287
 -88.4703
 -85.6498
 -86.0261
 -86.0262
 -86.0262
 -86.0262
 -86.0262
 -86.0262
 -89.0803
 -87.9008
 -87.7148
 -84.6372
 -86.0262
 -86.0261
 -86.0261
 -86.0262
 -86.0262
 -86.0262
 -86.0262
 -27.3916
 -64.4548
 -84.4623
 -51.9703
 -86.0262
 -86.0262
 -86.0262
 -86.0262
 22.7761
 22.9622
 22.6993
 22.5052
 22.2392
 22.4664
 22.3201
 22.3329
 -86.0262
 -86.0262
 -86.0262
 -86.0262
 -86.0464
 -86.0289
 -86.0265
 -86.0262
 -86.0262
 -86.0262
 -86.0262
 22.7543
 22.4325
 22.5709
 -86.0264
 -86.0255
 -86.0257
 -86.0223
 -21.0993
 25.375
 18.6406
 15.571
 22.8454
 23.1865
 23.1337
 22.9172
 -86.0262
 -86.0262
 -86.0262
 -86.0262
 -86.0262
 -86.0262
 -86.0262
 -86.0262
 -86.0111
 -85.8726
 -85.7138
 -86.2055
 -86.0262
 -86.0262
 -86.0262
 -86.0273
 -86.0274
 -86.0272
 -86.026
 23.7149
 -75.6668
 -87.5092
 -86.887
 -88.5365
 22.4183
 22.4314
 22.4177
 22.3971
 24.9549
 26.7321
 26.7916
 25.1967
 -86.0676
 -86.0254
 -86.0263
 -86.0261
 -86.0259
 -86.0261
 -86.0262
 -86.0262
 -86.0262
 -86.0262
 -86.0262
 -86.0262
 -86.0262
 -86.0262
 -86.0262
 -86.0262
 -86.0262
 23.6273
 24.4698
 23.4567
 23.5308
 -86.0263
 -86.0261
 -86.0257
 -86.0257
 -86.0178
 -86.0224
 -86.0262
 -86.0212
 22.4331
 22.3624
 22.5314
 22.3294
 -86.0265
 -86.0257
 -86.0262
 -86.0258
 -86.0262
 -86.0262
 -86.0262
 -86.0262
 -86.0262
 -86.0261
 -86.0261
 -86.0261
 -86.0262
 -86.0262
 -86.0262
 -86.0262
 -86.0262
 -86.0262
 -86.0262
 -86.0262
 -86.0262
 -86.0262
 -86.0262
 -86.0262
 -86.0262
 -86.0262
 -86.0262
 -86.0262
 26.1502
 25.7444
 26.0334
 25.7627
 -86.0262
 -86.0262
 -86.0262
 -86.0262
 -86.026
 -86.0261
 -86.0262
 -86.0262
 25.4816
 25.2536
 25.0237
 25.0649
 -86.0262
 -86.0262
 -86.0262
 -86.0262
 -86.0262
 23.0071
 22.8291
 22.8833
 23.02
 -86.0262
 -86.0262
 -86.0262
 -86.0262
 -86.0262
 -85.4935
 -86.8907
 24.0009
 26.4607
 24.5751
 25.6307
 22.3542
 22.2491
 22.3619
 22.4192
 26.3959
 25.7089
 26.1302
 23.4145
 22.6225
 22.619
 22.5073
 -86.0262
 24.4522
 16.3422
 -57.8172
 -73.9453
 23.3149
 23.6834
 23.6751
 23.7159
 -86.0262
 -86.0262
 -86.0262
 -86.0262
 -86.0262
 -86.0262
 -86.0262
 -86.0262
 21.8504
 -28.8663
 -34.592
 17.2457
 23.903
 24.3469
 23.7137
 23.8086
 22.5254
 22.519
 22.7359
 22.4682
 -87.7878
 -78.8575
 -80.6055
 -86.0262
 -86.0262
 -86.0262
 -86.0262
 -86.0262
 -86.0262
 -86.0262
 -86.0262
 -86.0262
 -86.0262
 -86.0262
 -86.0262
 -86.0246
 -86.0215
 -86.0279
 -86.0262
 -86.0262
 -86.0262
 -86.0262
 22.4149
 22.4007
 22.3654
 23.0804
 22.8469
 23.3917
 22.9571
 -86.0262
 -86.0262
 22.0151
 26.0061
 27.506
 26.9624
 27.6775
 25.899
 26.0138
 26.0002
 26.3362
 -86.0262
 -86.0262
 -86.0262
 -86.0262
 -86.0262
 -86.0262
 -86.0262
 -86.0262
 -86.0262
 -86.0262
 -86.0261
 -86.0261
 24.3431
 24.2701
 24.44
 24.2803
 18.9889
 24.1107
 25.5403
 -29.4905
 -86.0262
 -86.0262
 -86.0262
 -86.0262
 25.8202
 26.0661
 17.4289
 30.5532
 -86.0838
 -86.0935
 -86.0396
 -86.0623
 -23.9276
 19.026
 15.8246
 -86.0262
 -86.0262
 -86.0262
 -86.0262
 -86.0262
 -86.0262
 -86.0262
 -86.0262
 -86.0262
 25.2099
 24.3736
 26.13
 25.079
 24.6634
 27.475
 25.7372
 26.5351
 27.721
 32.4823
 25.302
 -86.0262
 -86.0262
 -86.0262
 -86.0262
 -86.0262
 -86.0262
 -85.9953
 -86.0262
 -86.0262
 -86.0262
 -86.0262
 -86.0262
 -86.0262
 -86.0262
 -86.0262
 -86.0262
 -86.0262
 -86.0262
 -86.0262
 -86.0262
 -86.0262
 26.2258
 26.918
 26.5252
 26.3929
 24.2906
 24.3555
 24.1975
 24.7367
 -86.0262
 -86.0262
 -86.0262
 -86.0262
 -86.0262
 -86.0262
 -86.0262
 -86.0262
 -86.0262
 -86.0262
 -86.0262
 25.5122
 26.1192
 32.1532
 25.7838
 -86.0262
 -86.0262
 -86.0262
 -86.0262
 -86.0263
 -86.0262
 -86.0262
 -85.4391
 -83.7432
 -85.8181
 -93.3944
 -86.0262
 -86.0262
 -86.0262
 -86.0262
 -86.0262
 -86.0262
 -86.0262
 -86.0262
 -86.0262
 -86.0262
 -86.0262
 -86.0262
 -86.0262
 -86.0262
 -86.0262
 -86.0262
 -57.6044
 -80.4469
 -86.0262
 -86.0262
 -86.0262
 -86.0262
 26.4071
 25.5372
 25.5999
 25.7063
 -86.0262
 -86.0262
 -86.0262
 -86.0262
 -86.0262
 -86.0262
 -86.0262
 -86.0262
 -86.117
 -85.3395
 -86.0262
 -86.0262
 -86.0262
 -86.0262
 -86.0262
 -86.0262
 -86.0262
 22.8647
 22.8691
 23.0138
 23.0892
 -86.0262
 -86.0262
 -86.0262
 -86.0262
 -86.0262
 -86.0262
 -86.0262
 -86.0262
 -86.0262
 -86.0262
 -86.0262
 -86.0262
 -86.0259
 -86.0261
 -86.0275
 -86.0263
 -86.0262
 -86.0262
 -86.0262
 -86.0262
 23.5629
 24.3223
 -86.034
 -86.0274
 -86.0217
 -86.0214
 -86.0262
 -86.0262
 -86.0262
 -86.0262
 -86.0262
 -86.0262
 -86.0262
 -86.0262
 23.2076
 22.8323
 22.894
 22.9205
 -86.0262
 -86.0262
 -86.0262
 -86.0262
 -86.0315
 22.4798
 22.5915
 22.5533
 -86.0262
 -86.0262
 -86.0262
 -86.0262
 23.334
 22.6119
 31.805
 -39.0308
 -86.0262
 -86.0262
 -86.0262
 -86.0262
 24.1744
 23.5252
 23.6155
 23.6916
 27.4828
 27.8371
 27.4006
 -86.0262
 -86.0262
 -86.0262
 -86.0262
 -87.8458
 -90.0888
 -85.4955
 -86.2524
 22.6307
 23.4109
 27.4271
 26.001
 -86.0262
 -86.0262
 -86.0262
 -86.0262
 -86.0262
 -86.0262
 -86.0262
 -86.0262
 -85.6789
 -86.5883
 -86.1318
 -86.082
 -53.9347
 4.9851
 17.6096
 -68.5707
 -86.0262
 -86.0262
 -86.0262
 -86.0262
 -86.1154
 -85.8951
 -85.9081
 22.8152
 22.753
 22.619
 22.7762
 23.3931
 23.7543
 22.9295
 -86.0262
 -86.0262
 -86.0262
 -86.0262
 -86.0262
 -86.0262
 -86.0262
 -86.0262
 20.0786
 -21.3275
 -48.6147
 13.8396
 -86.0262
 -86.0262
 -86.0262
 -86.0262
 -86.0262
 -86.0262
 -86.0262
 -86.0262
 -86.0262
 -86.0262
 -86.0262
 23.1573
 23.3822
 24.3834
 25.853
 25.2273
 25.3113
 -24.8293
 10.2437
 19.9118
 -86.0262
 -86.0262
 -86.0262
 -86.0262
 24.7741
 24.7939
 24.6052
 24.955
 -86.3072
 -86.579
 -91.4148
 -76.0969
 22.6474
 22.6625
 22.7256
 22.6606
 23.3615
 22.9376
 23.2942
 23.2478
 -86.0262
 -86.0262
 -86.0262
 -86.0262
 -86.0262
 -86.0262
 -86.0262
 22.6799
 22.5666
 22.9195
 22.7885
 -86.0262
 -86.0262
 -86.0262
 -86.0262
 27.2863
 26.4476
 29.6919
 21.6672
 23.4475
 23.8073
 -86.0262
 -86.0262
 -86.0262
 -86.0262
 23.6785
 24.4797
 23.3158
 24.8166
 -86.0262
 -86.0262
 -86.0262
 -86.0262
 -4.15261
 -67.5545
 24.6673
 24.6065
 24.2742
 24.887
 22.6917
 22.5378
 22.6763
 22.6077
 25.5499
 25.5202
 25.8225
 26.3859
 26.1902
 27.0178
 25.5082
 17.1679
 25.6288
 27.4407
 21.5253
 30.0915
 24.8759
 26.5755
 13.1795
 -86.0262
 -86.0262
 -86.0262
 -86.0262
 -86.0262
 -86.0262
 -86.0262
 -86.0207
 -86.0254
 -86.0224
 22.7822
 22.5441
 22.6397
 22.5158
 -86.0262
 -86.0262
 -86.0262
 -86.0262
 -86.0262
 -86.0262
 -86.0262
 -86.0262
 -86.0197
 -86.026
 -86.0273
 -86.0281
 -86.0262
 -86.0262
 -86.0262
 24.3639
 24.6194
 23.9118
 24.0732
 -86.0262
 -86.0262
 -86.0262
 -86.0262
 -86.0262
 28.7836
 25.5899
 28.2126
 24.2008
 -86.0262
 -86.026
 -86.026
 -86.026
 -86.0262
 -86.0262
 -86.0262
 -86.0262
 -85.993
 -86.0198
 -86.0677
 -86.043
 -86.0262
 -86.0262
 -86.0262
 -86.0262
 22.9948
 23.1683
 23.6694
 -86.0262
 -86.0262
 -86.0262
 -86.0262
 -86.009
 -85.9892
 -86.0262
 -86.0262
 -86.0262
 -86.0262
 -86.0262
 -86.0262
 -86.0262
 -86.0262
 23.3744
 23.1094
 -86.0262
 -86.0262
 -86.0262
 -86.0262
 -86.025
 -86.0257
 -86.0261
 -86.0263
 -86.0262
 -86.0262
 -86.0262
 -86.0262
 -85.6818
 -85.1633
 -85.2175
 -86.2796
 23.3735
 23.4612
 23.1158
 23.5986
 -86.0262
 -86.0262
 -86.0262
 -86.0262
 -86.0262
 -86.0262
 -86.0262
 -86.0262
 32.4545
 26.0139
 25.8662
 -86.0262
 -86.0262
 -86.0262
 -86.0262
 25.8358
 25.3027
 25.6567
 25.9747
 -86.0262
 -86.0262
 -86.0262
 -86.0262
 -79.0994
 -92.6181
 -85.3886
 -44.8702
 -86.0262
 -86.0262
 -86.0262
 -86.0262
 -86.0262
 -86.0262
 -86.0262
 -86.0262
 -86.0262
 -86.0262
 -86.0262
 -86.0262
 -86.0262
 -86.0262
 -86.0262
 -86.0262
 -86.0262
 -86.0262
 26.6341
 26.6889
 24.3268
 24.7698
 25.7913
 -86.0252
 -86.0359
 -86.0243
 -86.0271
 23.2334
 23.2459
 22.8712
 23.2151
 -85.8357
 -85.3852
 -86.1379
 -85.8251
 -41.6047
 20.4961
 2.1837
 -52.9605
 -86.0262
 -86.0262
 -86.0262
 -86.0262
 -86.0262
 -86.0848
 -86.0016
 -85.7802
 -85.6324
 23.1259
 23.7566
 -86.0405
 -86.0329
 -86.0279
 -86.0508
 -86.0262
 -86.0262
 -86.0262
 22.666
 22.8144
 22.6505
 22.6225
 -86.0282
 -86.0261
 -86.0276
 -86.0265
 -86.0262
 -86.0262
 -86.0262
 -86.0262
 -86.029
 -86.0277
 -86.0209
 -86.0258
 -85.1002
 16.5597
 -86.0262
 -86.0262
 -86.0262
 -86.0262
 -86.0262
 -86.0262
 -86.0262
 -86.0262
 -86.0262
 -86.0262
 -86.0262
 -86.0262
 -86.0262
 -86.0262
 -86.0263
 -86.0262
 -86.0266
 -86.7293
 -86.9907
 -86.1755
 -86.0397
 -86.0262
 -86.0262
 -86.0262
 -86.0262
 -86.0262
 -86.0262
 -85.9571
 -86.0234
 -86.0255
 -86.0353
 -85.9219
 -86.0685
 -86.0263
 -86.0258
 -86.0247
 -86.0265
 -86.0262
 -86.0262
 -86.0262
 -86.0262
 -86.0047
 -86.0262
 -86.0262
 -86.0262
 -86.0262
 24.4459
 24.9749
 24.4567
 25.837
 31.1847
 29.3616
 26.0281
 -86.0262
 -86.0261
 -86.0262
 -86.0262
 -86.0258
 -86.0248
 -86.0243
 -86.0262
 -86.0262
 -86.0262
 -86.0262
 23.2336
 23.5502
 22.9261
 23.3415
 -87.1834
 -87.4809
 -84.929
 -86.3299
 23.0911
 23.2301
 22.8379
 23.0271
 -86.0262
 -86.0262
 -86.0262
 -86.0262
 -86.0262
 -86.0262
 25.9475
 27.5331
 28.0076
 26.823
 23.3813
 23.7208
 23.802
 23.3354
 27.4358
 27.7158
 27.3311
 27.9178
 23.2426
 23.0804
 23.4365
 -89.013
 -91.6148
 -88.362
 -87.6165
 22.4575
 22.4825
 22.7354
 22.5729
 -86.0262
 -86.0262
 -86.0262
 -86.0262
 22.4775
 22.3437
 22.3743
 -85.2396
 -83.7983
 -84.8552
 -89.604
 -86.0262
 -86.0262
 -86.0262
 -86.0262
 16.0926
 22.5465
 23.5626
 27.0334
 -85.9821
 -86.6146
 -86.5037
 -85.7398
 -86.0262
 -86.0262
 -86.0262
 -86.0262
 -86.0262
 -86.0262
 -86.0262
 -86.0262
 -86.0262
 -86.0262
 -86.0262
 -86.0262
 -86.0262
 -86.0262
 -86.0262
 -86.0262
 -86.0262
 -86.0262
 -86.0262
 -86.0262
 -86.0262
 -86.0262
 -86.0262
 -86.0262
 -86.0262
 -86.0262
 -86.0262
 22.5287
 22.448
 22.4379
 22.55
 22.6774
 22.3866
 22.5109
 -86.0262
 -86.0262
 -86.0262
 -86.0262
 -86.0262
 -86.0262
 -86.0262
 -86.0262
 -86.0262
 -86.0262
 -86.0262
 -86.0262
 -86.0262
 -86.0262
 -87.1127
 -62.3802
 -90.4521
 -89.1556
 -86.0262
 -86.0262
 -86.0262
 -86.0262
 -86.1282
 -85.7417
 -85.558
 -85.6584
 22.6124
 22.499
 22.916
 22.7099
 -86.0834
 -86.0324
 -85.7982
 -85.9832
 -86.0262
 -86.0262
 -86.0261
 -86.0262
 -86.0262
 -86.0262
 -86.0262
 23.3308
 23.7344
 23.9085
 23.7506
 22.4896
 22.3331
 22.485
 22.6941
 -86.0262
 -86.0262
 -86.0262
 -86.0262
 24.0092
 24.344
 24.4823
 23.0851
 23.6974
 23.1718
 23.2937
 23.4751
 23.5447
 23.3607
 23.2208
 -86.0262
 -86.0262
 -86.0262
 -86.0262
 -86.0262
 -86.0262
 -82.4719
 -86.319
 -86.7237
 -86.0262
 -86.0262
 -86.0262
 -86.0262
 -86.0244
 -86.0241
 -86.0257
 -86.0249
 -86.0262
 -86.0262
 -87.5651
 -85.8049
 22.5438
 22.4513
 22.4301
 22.451
 -86.0262
 -86.0262
 -86.0262
 -86.0262
 27.9517
 27.6841
 27.6681
 27.7268
 -86.0476
 -86.0241
 -86.0383
 -86.1246
 24.7711
 24.5115
 24.5146
 24.3166
 -86.0262
 -86.0261
 -86.0262
 -86.0262
 -86.0262
 -86.0262
 22.4352
 22.5426
 22.3357
 22.446
 -85.2088
 -85.5314
 -85.7863
 -86.1761
 -86.0262
 -86.0262
 -86.0262
 -86.0262
 22.5231
 22.3614
 22.3652
 24.2837
 25.1988
 25.0638
 24.4088
 22.5973
 22.6498
 23.2625
 22.5866
 -86.0262
 -86.0262
 -86.0262
 -86.0262
 -86.0262
 -86.0262
 -86.0262
 -86.0262
 22.6202
 22.7514
 22.7783
 22.8834
 -86.0262
 -86.0262
 -86.0262
 24.5306
 24.2525
 25.2239
 25.9755
 -86.0262
 -86.0262
 -86.0262
 -86.0262
 -86.372
 -88.0009
 -85.313
 -84.9356
 -86.0262
 -86.0262
 -86.0262
 -86.0262
 -86.0273
 -86.0359
 -86.0257
 -86.025
 23.246
 22.9306
 22.6269
 24.2353
 -86.0262
 -86.0262
 -86.0262
 -86.0258
 -86.025
 22.5148
 22.7123
 22.7199
 22.917
 -86.0262
 -86.0262
 -86.0262
 -86.0262
 -86.0262
 -86.0262
 -86.0262
 -57.6407
 -4.86439
 -87.3583
 21.2977
 -88.048
 -91.0805
 -23.3251
 -89.1479
 -86.0262
 -86.0262
 -86.0262
 -86.0262
 -86.0267
 -86.0258
 -86.0255
 -86.0262
 -86.0262
 -86.0262
 -86.0256
 -86.0272
 -86.028
 -86.0307
 -86.0256
 -86.0262
 -86.0262
 -86.0262
 -86.0262
 -86.0262
 -86.0261
 -86.0262
 22.5536
 22.4933
 22.5519
 22.6822
 -86.0262
 -86.0262
 -86.0262
 -86.0261
 -86.0262
 -86.0262
 -86.0262
 27.2255
 26.829
 26.8467
 26.3723
 -86.0262
 -86.0262
 -86.0262
 -86.0262
 -86.0262
 -86.0262
 -86.0262
 -86.0262
 -86.0262
 -86.0262
 -86.0262
 -86.0262
 22.7158
 22.8525
 22.9518
 22.5709
 -86.0262
 -86.0262
 -86.0262
 -86.0262
 28.5292
 28.6833
 28.4813
 30.3537
 -86.0262
 -86.0262
 -86.0262
 -86.0262
 22.5983
 23.5315
 23.4627
 22.8847
 22.7057
 22.9347
 23.6612
 22.945
 26.097
 25.0791
 -86.0262
 -86.0262
 -86.0262
 -86.0262
 22.8411
 22.9613
 22.8444
 24.3925
 25.6265
 25.9651
 23.7598
 -86.0262
 -86.0262
 -86.0262
 -86.0262
 -86.0262
 -86.0262
 -86.0262
 -86.0262
 -86.0262
 -86.0262
 -86.0262
 -86.0261
 -86.0261
 -86.0262
 22.8242
 22.886
 22.763
 22.6482
 22.6006
 22.8274
 22.7001
 23.1452
 23.3255
 22.8862
 24.1946
 23.6048
 -86.0262
 -86.0262
 -86.0262
 -86.0262
 23.2939
 23.7003
 23.3711
 24.5679
 -86.026
 -86.0259
 -86.0262
 -86.0262
 -86.0262
 -86.0262
 25.3998
 24.4186
 23.6418
 24.3702
 -86.0262
 -86.0262
 -86.0262
 -86.0262
 22.9437
 22.8673
 23.2392
 23.5031
 -86.4168
 -86.4284
 -85.9905
 -86.0262
 -86.0262
 -86.0262
 -86.0262
 -87.476
 -89.961
 -87.3604
 -86.168
 -86.0262
 -86.0262
 -86.0262
 -86.0262
 -86.0262
 -86.0262
 -86.0262
 -86.0262
 -86.0262
 -86.0262
 -86.0262
 -86.0262
 -86.0262
 -86.0262
 -86.0262
 22.4704
 22.7463
 22.4659
 22.6325
 -86.0262
 -86.0261
 -86.0262
 -86.0262
 -86.0262
 -86.0262
 -86.0262
 -86.0262
 -86.0262
 -86.0262
 -86.0262
 -86.0262
 19.2258
 29.3381
 28.7503
 25.4226
 -86.0262
 -86.0262
 -86.0262
 -86.0262
 -85.8385
 -86.1629
 -85.9583
 -86.8994
 -86.0262
 -86.0262
 -86.0262
 -86.0262
 -86.0262
 -86.0262
 -86.0262
 -86.0262
 30.2835
 25.4698
 22.3767
 22.3451
 22.4008
 22.3505
 -86.0262
 -86.0262
 -86.0262
 -86.0262
 23.9821
 24.0196
 24.4614
 24.0015
 -86.0262
 -86.0262
 -86.0262
 -86.0262
 25.2778
 24.3477
 25.5153
 23.3712
 -86.0262
 -86.0262
 -86.0262
 -86.0262
 23.2117
 22.5865
 23.5062
 22.6465
 -86.0262
 -86.0262
 23.4892
 23.1602
 -83.8579
 -45.9718
 -78.7192
 -47.9274
 -56.1359
 -64.5479
 -58.8504
 15.0426
 -86.0435
 -86.0609
 -86.0358
 -85.9619
 23.3198
 24.6622
 23.1055
 22.6817
 -86.0262
 -86.0262
 -86.0262
 -86.0262
 23.2147
 22.7747
 22.8002
 24.0126
 23.9278
 23.5466
 23.9985
 -86.0262
 -86.0262
 -86.0262
 -86.0262
 23.8467
 29.1663
 29.9634
 29.2458
 -86.0262
 -86.0262
 -86.0262
 -86.0262
 -86.0214
 -86.0262
 -86.0262
 -86.0261
 -86.0262
 22.5019
 22.5415
 22.5637
 22.7463
 -86.0262
 -86.0262
 -86.0262
 -86.0262
 24.3477
 23.8594
 24.7044
 23.8564
 -86.0261
 -86.0262
 -86.0262
 -86.0262
 25.3274
 0.00796462
 7.78085
 -26.1982
 18.0117
 27.1242
 26.4699
 25.7648
 26.2373
 22.9069
 23.0993
 24.0508
 23.7498
 -86.0262
 -86.0262
 -86.0262
 -86.0262
 -86.0262
 -86.0262
 -86.0262
 -86.0262
 -86.0262
 -86.0259
 -86.027
 -86.026
 -86.0256
 22.9646
 22.9654
 22.6067
 22.5836
 22.351
 22.2584
 22.3162
 23.0629
 22.3507
 22.5447
 22.61
 -86.0262
 -86.0262
 25.0284
 23.8768
 23.8433
 -86.0262
 -86.0262
 -86.0262
 -86.0262
 28.523
 31.323
 25.5225
 28.8534
 -86.0283
 13.0476
 -63.5207
 20.4154
 -35.7826
 23.6795
 23.0753
 23.337
 23.6892
 9.33778
 16.3781
 31.1428
 24.9321
 -86.0262
 -86.0261
 -86.0262
 -86.0261
 -86.0262
 -86.0262
 -86.0262
 -86.0262
 26.0565
 25.4788
 26.2363
 26.1224
 26.3537
 28.7464
 24.557
 27.565
 25.2048
 24.9409
 25.0435
 25.5278
 -86.0262
 -86.0262
 -86.0262
 -86.0262
 -86.0251
 -86.0265
 23.7775
 24.3537
 23.7131
 24.0516
 -86.0264
 -86.0241
 -86.0243
 -86.0145
 -86.0261
 -86.0263
 -86.0258
 -86.0315
 -86.0334
 -86.025
 22.321
 22.331
 22.3132
 22.3413
 -86.0262
 -86.0262
 -86.0262
 -86.0262
 -86.0262
 -86.0262
 -86.0262
 -86.0262
 -86.0262
 -86.0262
 -86.0262
 -86.0262
 -86.0262
 -86.0262
 -86.0262
 -86.0262
 -86.0262
 -86.0262
 -86.0262
 -86.0261
 -86.0262
 -86.0262
 -86.0262
 -86.026
 -86.0257
 -86.0261
 -86.0261
 -86.0262
 -86.0262
 -86.0262
 -86.0262
 -86.0262
 -86.0262
 -86.0262
 -86.0528
 -86.1377
 -86.1771
 -86.023
 -86.0262
 -86.0262
 -86.0262
 -86.0262
 -86.0262
 -86.0262
 -86.0262
 -86.0262
 -85.7258
 -85.7944
 -85.9317
 -88.4489
 -86.0261
 -86.0262
 -86.026
 -86.0262
 -2.17259
 -7.16718
 16.1311
 11.9706
 -86.0262
 -86.0262
 -86.0262
 22.769
 22.8221
 22.5203
 22.7689
 -86.0262
 -86.0262
 -86.0262
 -86.0262
 -86.0262
 -86.0262
 -86.0262
 -86.0262
 -86.0261
 -86.0262
 -86.0263
 -85.7485
 -87.4778
 -82.9304
 -57.7243
 -41.5956
 4.06416
 20.0817
 -51.2862
 25.3911
 31.5382
 26.2815
 22.5024
 22.2908
 22.4262
 -92.7254
 -90.1404
 -86.0414
 -90.7646
 22.7146
 22.7619
 22.4169
 23.1741
 23.2365
 23.0359
 22.7195
 -86.0262
 -86.0263
 -86.026
 -86.027
 -86.0262
 -86.0262
 -86.0262
 -86.0262
 -86.0262
 22.5607
 22.3196
 22.8337
 22.4923
 22.5711
 22.4391
 -86.0262
 -86.0262
 -86.0262
 -86.0262
 24.115
 25.2883
 -86.0262
 -86.0262
 -86.0261
 25.5044
 26.0695
 -86.9337
 -86.0933
 -86.6717
 -87.0361
 -86.0262
 -86.0262
 -86.0262
 24.5298
 22.9785
 24.0879
 23.0477
 -86.0262
 -86.0262
 -86.0262
 -86.0262
 -86.0262
 -86.0262
 -86.0262
 -86.0262
 -85.2397
 -85.0709
 -85.0771
 -89.0341
 22.4481
 22.8801
 22.4459
 23.1478
 23.1084
 22.8977
 23.9205
 -86.0262
 -86.0262
 -86.0262
 -86.0262
 -86.0262
 -86.0262
 -86.0262
 -86.0262
 -86.0262
 25.7656
 25.6825
 22.4518
 22.475
 22.4321
 22.5454
 -86.0807
 -85.4653
 -85.8187
 25.9557
 28.6219
 24.0302
 24.608
 -86.0262
 -86.0262
 -86.0262
 -86.0262
 -86.0262
 -86.0261
 -86.0261
 -86.0262
 -86.0261
 -86.0258
 -86.0264
 -86.0262
 -86.0262
 -86.0262
 -86.0262
 -86.0262
 -86.0262
 -86.0262
 -86.0262
 27.7806
 28.4378
 28.0335
 28.7231
 -86.0262
 -86.0262
 22.8633
 22.8664
 22.8276
 22.6454
 -86.0261
 -86.0261
 -86.026
 -86.0259
 -86.0125
 -86.0373
 -86.0896
 -86.0306
 -86.0262
 -86.0262
 -86.0262
 -86.0262
 -86.0261
 -86.0262
 -86.0261
 -86.0262
 -86.0262
 -86.0261
 22.4595
 22.484
 22.6135
 22.4349
 -86.0262
 -86.0262
 -86.0262
 -86.0262
 -86.0262
 -86.0262
 -86.1246
 -85.7676
 -86.0067
 -86.5816
 28.2092
 26.9394
 26.0944
 -86.0283
 -86.0412
 -86.0325
 -86.0371
 -86.0262
 -86.0262
 -86.0262
 -86.0262
 -86.0262
 -86.0262
 -86.0262
 -86.0262
 -86.0228
 -86.0265
 -86.0266
 -86.0228
 -85.9453
 -86.4463
 -85.8391
 -85.9872
 -86.0262
 -86.0262
 -86.0262
 -86.0262
 -86.0262
 -86.0262
 -86.0262
 -86.0262
 22.471
 22.5675
 -87.5981
 -85.0407
 -87.0956
 -86.0262
 -86.0262
 -86.0262
 -86.0262
 -86.0262
 -86.0262
 -86.0262
 -86.0262
 -86.0337
 -86.0399
 -86.0322
 -86.0227
 22.3926
 22.3923
 22.4049
 -86.0262
 -86.0262
 -86.0262
 -86.0262
 -86.0262
 -86.0262
 -86.0262
 -86.0262
 26.4479
 25.5868
 27.6725
 28.5262
 -84.7468
 -86.3109
 -86.2922
 -85.4802
 22.2855
 22.3193
 22.3725
 24.0818
 23.8738
 24.0232
 23.6523
 -86.0262
 -86.0262
 -86.0262
 -86.0262
 -86.0265
 -86.0263
 -86.0261
 -86.0262
 -86.0262
 -86.0262
 -86.0262
 -86.0262
 -86.0262
 -86.0262
 -86.0262
 -86.0262
 -86.0262
 -86.0262
 -86.0262
 22.8148
 -86.0262
 -86.0262
 -86.0262
 -86.0262
 25.9363
 -87.6165
 -87.0695
 -89.3794
 -86.1182
 -86.0262
 -86.0262
 -86.0262
 -86.0262
 -86.0262
 -86.0262
 22.4949
 22.3548
 22.9176
 22.4386
 22.8358
 23.238
 22.7569
 23.2291
 -86.0262
 -86.0262
 -86.0262
 -86.0262
 23.6085
 23.7894
 23.8622
 23.3377
 -86.0354
 -86.0214
 -86.0265
 23.1789
 22.6581
 22.8723
 -86.0075
 -86.0406
 -86.0257
 -86.0127
 -86.0262
 -86.0262
 -86.0262
 -86.0262
 -86.1687
 -85.1962
 -85.7022
 -86.0262
 -86.0262
 -86.0262
 -86.0262
 -86.0262
 -86.0261
 22.4757
 22.4112
 22.3926
 22.5697
 23.0522
 23.3227
 23.1177
 23.106
 -86.0262
 -86.0262
 -86.0262
 -86.0262
 28.1358
 21.7807
 29.7215
 25.3166
 -86.7197
 -85.591
 -86.4662
 -88.7392
 -86.0262
 -86.0262
 -86.0262
 -86.0262
 22.6026
 22.4568
 22.4427
 22.2759
 -86.0261
 -86.0261
 -86.0263
 -86.0261
 -86.0252
 -86.0263
 -86.0264
 -86.0248
 -86.0262
 -86.0262
 -86.0262
 -86.0262
 -86.0262
 -86.0262
 -86.0262
 -86.0262
 -86.0262
 -86.0262
 -86.0262
 -86.0262
 -86.0262
 -86.0262
 -85.4223
 -85.469
 -89.6187
 -82.6391
 -86.8678
 -85.776
 -86.5521
 23.632
 23.633
 23.8651
 23.591
 26.1352
 26.4234
 25.9663
 23.3513
 23.6919
 23.1474
 -85.6269
 -86.2159
 -89.365
 -85.7705
 24.2515
 23.1763
 25.03
 25.7156
 22.7067
 22.4522
 22.6481
 22.5594
 -86.0262
 -86.0262
 -86.0262
 -86.0262
 -86.0262
 -86.0262
 -86.0262
 -86.0262
 25.4522
 25.4622
 25.2225
 26.0985
 -86.0262
 -86.0262
 -86.0262
 -86.0262
 -86.0264
 -86.0264
 -86.0236
 -86.0271
 26.028
 25.8889
 25.1922
 26.5308
 -38.898
 -84.0764
 11.6487
 -45.2738
 -86.0262
 -86.0262
 -86.0262
 -86.0262
 -86.0262
 -86.0262
 -86.0262
 -86.0262
 -86.0262
 -86.0262
 -86.0262
 -86.0262
 -86.0262
 -86.0262
 -86.0262
 -86.0262
 -86.0262
 -86.0262
 -86.0262
 -86.0262
 22.4492
 22.5598
 22.5351
 22.5526
 23.0719
 22.7588
 22.7929
 22.7568
 -60.6525
 -68.5574
 -74.1634
 -91.4764
 -86.0262
 22.7678
 22.9196
 22.7146
 22.7177
 -86.0262
 -86.0262
 -86.0262
 -86.0262
 24.8742
 25.1479
 24.5875
 25.3977
 -86.0262
 -86.0262
 -86.0262
 23.2999
 -86.0262
 -86.0262
 -86.0262
 -86.0262
 -86.0262
 -86.0262
 -86.0262
 -86.0258
 -86.0248
 -86.0262
 -86.0258
 23.8897
 23.8673
 24.7731
 23.4323
 -86.0262
 19.8968
 20.0971
 -34.3648
 -86.0262
 -86.0262
 -86.0262
 -86.0262
 -86.0262
 -86.0262
 -86.0262
 -86.0262
 -86.0262
 -86.0262
 -86.0262
 -86.0262
 31.7004
 -86.0262
 -86.0262
 -86.0262
 22.5493
 22.9216
 22.6024
 22.7493
 22.5391
 22.3976
 22.4926
 22.5017
 23.1189
 23.2589
 23.0485
 -86.0262
 -86.0262
 -86.0262
 -86.0262
 -86.0262
 -86.0262
 -86.0262
 22.255
 22.295
 22.5577
 22.4128
 22.4408
 22.4168
 -86.026
 -86.026
 -86.0244
 24.7954
 24.4597
 24.9961
 24.3337
 22.3986
 22.4004
 22.4111
 22.4378
 -67.8401
 -86.0993
 -45.8982
 -48.4296
 -86.0487
 -86.1533
 -86.016
 -86.0148
 -86.0262
 -86.0262
 -86.0262
 -86.0262
 22.4212
 22.4222
 22.4033
 22.6211
 -86.0262
 -86.0262
 -86.0262
 -86.0262
 -86.0262
 -86.0262
 -86.0262
 23.1263
 23.1222
 23.5926
 23.2616
 25.5591
 26.0189
 8.1571
 17.7421
 25.0969
 24.6906
 24.4321
 24.6893
 -86.0262
 -86.0262
 -86.0262
 -86.0262
 -86.0466
 -86.0286
 -86.0259
 -86.0085
 22.2783
 22.3863
 22.4198
 22.3604
 -86.026
 -86.0231
 -86.0259
 -86.0256
 24.9549
 25.7424
 25.0768
 -86.0262
 -86.0262
 -86.0262
 -86.0262
 -85.7861
 -85.4482
 -85.8387
 -86.1681
 -82.65
 -45.7106
 -78.0435
 -77.3302
 -86.0262
 -86.0262
 -86.0258
 -86.0261
 22.4332
 22.4055
 22.5695
 22.6035
 -86.0265
 -86.0262
 -86.0262
 -86.0262
 -87.9077
 -85.9959
 -87.1966
 -85.9646
 -86.0262
 -86.0262
 -86.0262
 -86.0262
 23.435
 23.1432
 24.0009
 24.8566
 -86.0262
 -86.0262
 -86.0262
 -86.0262
 -86.0262
 -86.0262
 -86.0262
 -86.0262
 -86.0262
 -86.0262
 -86.0262
 22.8839
 24.4523
 23.5639
 22.6765
 12.4655
 25.826
 15.0561
 24.5485
 -86.0262
 -86.0262
 -86.0262
 -86.0262
 26.568
 26.0794
 25.5782
 -86.0262
 -86.0262
 -88.7304
 -81.5938
 -86.4451
 -87.9549
 -86.0262
 -86.0262
 -86.0262
 -86.0262
 19.0477
 20.8211
 24.5695
 21.0182
 -86.0262
 -86.0262
 -86.0262
 -86.0262
 -86.0262
 26.8505
 24.4639
 24.3473
 24.0094
 22.2761
 22.4019
 22.4319
 22.2946
 -86.0262
 -86.0262
 28.9992
 28.7309
 24.5281
 28.2485
 -85.6138
 -85.825
 -87.6988
 -85.755
 -86.0262
 -86.0262
 -86.0262
 -86.0262
 -86.0268
 -86.0255
 -86.0259
 -86.026
 22.5588
 22.9467
 22.4264
 22.7412
 22.5993
 22.813
 22.9356
 26.167
 26.1439
 26.2583
 -86.0262
 -86.0262
 -86.0262
 -86.0262
 23.4105
 23.0988
 23.0685
 22.9105
 -86.0262
 -86.0262
 -86.0262
 -86.0262
 -16.522
 19.9396
 22.7024
 -69.7141
 -86.23
 -85.8577
 -86.0104
 -86.1118
 23.1701
 23.1309
 23.1602
 23.3881
 13.5048
 23.026
 16.3175
 -21.8684
 -86.0262
 -86.0262
 -86.0262
 -86.0262
 -86.0261
 -86.0262
 -86.0262
 -86.0261
 -86.0262
 -86.0262
 -86.0262
 -86.0262
 24.9714
 23.9603
 25.5357
 26.9875
 -86.0262
 -86.0262
 -86.0262
 -86.0262
 -89.354
 -85.6508
 -86.1167
 -89.9444
 -86.0262
 -86.0262
 -86.0262
 -86.0262
 -86.0262
 -86.0262
 -86.0262
 -73.3848
 -32.1029
 -85.9989
 13.6147
 -33.4158
 -66.5809
 -86.0262
 -86.0262
 -86.0262
 -86.0262
 -86.0262
 -86.0262
 -86.0262
 23.3167
 -86.0262
 -86.0262
 -86.0262
 -86.0262
 22.4754
 22.4248
 22.611
 22.5528
 -86.0262
 -86.0262
 -86.0262
 -86.0262
 -86.0262
 -86.0262
 -86.0262
 -86.0262
 -86.0262
 -86.0262
 -86.0262
 -86.0262
 -86.0262
 -86.0262
 -86.0262
 -86.0262
 -86.0262
 -86.0262
 -86.0262
 -86.0301
 -86.0258
 -86.0191
 -86.0262
 -86.0262
 27.226
 26.6863
 26.6473
 -86.0262
 -86.0262
 -86.0262
 -86.0262
 -86.0262
 -86.0262
 23.5405
 23.8388
 23.8672
 24.086
 23.9681
 23.0244
 24.2278
 -86.0262
 -86.0262
 -86.0262
 -86.0262
 -86.0262
 24.0858
 23.7669
 24.2808
 24.0674
 -86.0262
 -86.0262
 -86.0262
 -86.0262
 -86.0262
 -86.0262
 -86.0262
 -86.0262
 -86.0262
 -86.0262
 -86.0262
 -86.0262
 -86.0262
 -86.0262
 23.7116
 23.4848
 23.3915
 29.107
 27.5855
 27.9384
 -86.0262
 -86.0262
 -86.0262
 -86.0262
 -86.0262
 22.8341
 -86.0262
 -86.0262
 -86.0262
 -86.0262
 -86.0262
 -86.0262
 -86.0262
 -86.0262
 25.6361
 27.201
 25.3498
 24.7162
 24.0803
 25.3267
 25.4706
 -86.0262
 -86.0262
 -86.0262
 -86.0262
 20.6471
 32.4235
 27.5387
 29.3919
 23.6785
 24.9154
 24.1343
 23.1177
 -86.0252
 26.8481
 28.7047
 27.9398
 24.1276
 24.5199
 24.8764
 24.6978
 24.1948
 -86.0262
 -86.0262
 -86.0262
 -86.0262
 23.4243
 23.7065
 23.3913
 23.421
 -86.0262
 -86.0262
 -86.0262
 24.2529
 23.9392
 24.7038
 24.4721
 -86.0262
 -86.0262
 -86.0262
 -86.0262
 23.1661
 23.9657
 23.5789
 22.9029
 -86.0262
 -86.0262
 -86.0262
 -86.0262
 25.7809
 22.5407
 23.081
 22.8079
 23.2527
 22.5571
 22.9226
 22.7269
 -86.0262
 -86.0262
 -86.0262
 -86.0262
 23.724
 26.2861
 23.7536
 26.293
 -86.0306
 -85.88
 -86.1976
 -86.0394
 -85.9001
 -85.9766
 -86.0301
 -86.0438
 25.9973
 25.4733
 -86.0262
 -86.0262
 -86.0262
 -86.0262
 -86.0262
 -86.026
 -86.0262
 28.3951
 35.3147
 26.2008
 25.2676
 25.6067
 24.5796
 24.0286
 23.5896
 -78.9586
 -83.8991
 -40.2823
 -85.4506
 -86.0262
 -86.0262
 -86.0262
 -86.0262
 -86.0262
 -86.0262
 -86.0262
 -86.0262
 -86.0262
 -86.0262
 -86.0262
 -86.0262
 -86.0262
 -86.0262
 -86.0262
 -86.0262
 -86.0262
 -86.0262
 -86.0262
 -86.0262
 -86.0262
 -86.0262
 -86.0262
 -86.0262
 -86.0262
 -86.0262
 -86.0263
 24.7013
 24.7114
 25.4415
 -86.0262
 -86.0262
 -86.0262
 -86.0262
 -86.0262
 -86.0262
 -86.0262
 -86.0262
 -86.0266
 -86.0252
 -86.0274
 -86.0259
 22.5354
 22.7407
 26.916
 26.3467
 25.9988
 26.9797
 25.8032
 26.1477
 24.7581
 29.9043
 -86.0262
 -86.0262
 -86.0262
 -86.0262
 25.1817
 25.2241
 26.2912
 24.8392
 23.5924
 23.752
 23.9514
 -86.0245
 -86.0264
 -86.0263
 -86.0264
 -86.0262
 -86.0262
 -86.0262
 -86.0261
 -86.0261
 -86.0261
 -86.0261
 -86.0262
 -86.0262
 -86.0262
 -86.0262
 32.9175
 17.1532
 30.13
 -75.6564
 -86.0262
 -86.0262
 -86.0262
 -86.0262
 -86.0262
 -86.0262
 -86.0262
 -86.0262
 24.1117
 23.7966
 24.292
 23.814
 -86.0258
 -86.0268
 -86.0262
 -86.0261
 -86.0262
 -86.0262
 -86.0262
 -86.0262
 24.7807
 25.0447
 22.6134
 22.3355
 22.3259
 22.3309
 -86.026
 -86.0265
 -86.0261
 -86.0266
 -86.0262
 -86.0262
 -86.0262
 -86.0262
 -86.0262
 -86.0262
 -86.0262
 -86.0262
 -86.0262
 -86.0262
 -86.0262
 -86.0262
 -86.0262
 -86.0262
 -86.0262
 -86.0262
 -86.0262
 -86.0262
 -86.0262
 -86.0262
 -86.1537
 -86.0212
 -86.0999
 -86.0132
 -86.0262
 -86.0262
 -86.0262
 -86.0262
 -86.0262
 -86.0262
 -86.0262
 -74.9913
 -35.5291
 -36.8008
 -71.5522
 -86.0262
 -86.0262
 -86.0262
 -86.0262
 -86.0262
 -86.0262
 -86.0262
 -86.0262
 -86.0262
 -86.0262
 -86.0262
 23.1335
 22.6034
 -86.0262
 -86.0262
 -86.0262
 -86.0262
 -86.0262
 -86.0262
 -86.0262
 -86.0262
 -66.5677
 6.9104
 -60.098
 20.8905
 -86.0262
 -86.0262
 -86.0262
 -86.0262
 -86.0262
 -86.0262
 -86.0262
 -86.0262
 -86.002
 -86.0556
 -85.8749
 -86.0262
 -86.0262
 -86.0262
 -86.0262
 22.7447
 22.9802
 23.0815
 22.6827
 -81.8066
 -78.3233
 -86.9745
 -86.3776
 -86.0262
 -86.0262
 -86.0262
 -86.0264
 -86.026
 -86.0266
 -86.0272
 -86.0262
 -86.0262
 -86.0262
 -86.0262
 -86.0262
 -86.0262
 -86.0262
 -86.0262
 -86.0262
 -86.0262
 -86.0262
 -86.0262
 -86.0261
 -86.0261
 -86.0261
 23.8973
 23.5986
 23.372
 23.3658
 -86.2186
 -88.5683
 -86.2778
 -86.379
 -86.0262
 -86.0262
 -86.0262
 -86.0558
 -86.028
 -86.0276
 22.6019
 22.3167
 22.5982
 22.3597
 -88.9113
 -81.3461
 -88.5877
 -69.5186
 -86.0262
 -86.0262
 -86.0262
 -86.0262
 -86.0262
 -86.0262
 -86.0262
 -86.0262
 -86.0262
 -86.0262
 -86.0262
 -86.0262
 -86.0262
 -86.0262
 27.8548
 25.702
 25.6163
 25.1484
 -86.0262
 -86.0262
 -86.0262
 -86.0262
 -86.026
 -86.0262
 -86.0262
 -86.0262
 -86.0262
 -86.0262
 -86.0262
 -86.0262
 -86.0869
 -86.0217
 -86.0264
 -86.0295
 -86.0262
 23.754
 28.5637
 25.4928
 24.9506
 -86.0262
 -86.0262
 -86.0262
 -86.0262
 -86.0262
 -86.0262
 -86.0262
 -86.0262
 -86.0262
 -86.0262
 -86.0262
 -86.0262
 -86.0262
 -86.0262
 -86.0262
 22.4207
 22.4609
 22.4443
 22.5196
 -86.0262
 -86.0262
 -86.0262
 -86.0262
 22.3073
 22.3814
 22.3804
 -69.9684
 -86.6064
 -64.4579
 -90.4474
 23.1384
 22.5421
 22.6
 22.4228
 -86.0262
 -86.0262
 -86.0262
 -86.0262
 -86.0262
 -86.0262
 28.3172
 24.975
 27.1151
 -85.9321
 -87.8938
 -85.2513
 -85.3596
 -86.0262
 -86.0262
 -86.0262
 -86.0262
 -86.0262
 -86.0262
 -86.0261
 -86.0262
 -86.0262
 -86.0262
 -86.0262
 -86.0262
 -86.0261
 -86.0262
 -86.0262
 -86.0262
 -85.534
 -85.9273
 -88.6077
 -85.8693
 -86.0262
 -86.0262
 -86.0262
 -86.0262
 -86.0262
 -86.0262
 -1.19191
 -90.6393
 -71.2373
 -23.6734
 -86.0262
 -86.0262
 -85.1361
 -85.8699
 -86.0262
 -86.0262
 -86.0262
 -86.0262
 -86.0262
 -86.0262
 -86.0262
 25.4522
 26.0407
 25.4613
 -86.0262
 -86.0262
 -86.0262
 -86.0262
 27.7734
 26.8545
 -86.0262
 -86.0262
 -86.0262
 -86.0262
 -86.0262
 -86.0262
 -86.0262
 24.2567
 24.2281
 25.2424
 23.6088
 -89.6083
 -81.3085
 -86.7232
 -89.5663
 22.437
 22.4502
 22.5539
 -86.0262
 -86.0262
 -86.0262
 -86.0262
 -86.0265
 22.5856
 22.5363
 22.5691
 22.5068
 -86.0262
 -86.0262
 -86.0262
 -86.0262
 -86.0265
 -86.0272
 -86.027
 -86.0263
 24.3883
 28.1358
 24.7953
 24.083
 -86.0262
 -86.0262
 -86.0262
 -86.0262
 -86.0262
 25.2239
 -86.0262
 -86.0262
 -86.0262
 -86.0262
 -86.0264
 -86.027
 -86.0261
 -86.0259
 -86.0262
 -86.0262
 -86.0262
 -86.0262
 -86.0487
 -86.0179
 -86.0117
 -86.0184
 -86.0262
 -86.0262
 -86.0262
 -86.0262
 -86.0262
 -86.0262
 -86.0262
 -86.0262
 -86.0262
 -86.0262
 -86.0262
 24.1375
 23.3072
 27.2268
 27.1937
 27.9348
 27.3101
 26.8214
 -86.0262
 -86.0262
 -86.0262
 -86.0262
 -86.0262
 -86.0262
 -86.0262
 -86.0262
 -86.0262
 23.2612
 23.2122
 22.9957
 23.5277
 31.8691
 17.7868
 26.4385
 7.43056
 -86.0262
 -86.0262
 -86.0262
 -86.0262
 -86.0262
 -86.0262
 -86.0262
 -86.0262
 -86.0262
 -86.0262
 -86.0262
 -71.7112
 -92.0553
 -67.691
 -48.0347
 25.5095
 26.0108
 24.6871
 27.3654
 -86.0262
 -86.0262
 22.8871
 19.3568
 25.36
 37.5418
 -85.999
 -85.9837
 -86.0261
 -86.1524
 23.9724
 24.157
 -84.5133
 -86.2535
 -87.397
 -86.2332
 16.8281
 21.8652
 27.4749
 29.8675
 -83.2402
 -56.7177
 -79.751
 -92.3958
 -86.0262
 -86.0261
 -86.026
 -86.0264
 -86.0263
 -86.0261
 -86.0262
 -86.0262
 -86.0262
 -86.0262
 -86.0213
 -86.0142
 -86.0164
 -86.021
 -86.0262
 -86.0262
 -86.0262
 -86.0262
 -86.0262
 -86.0262
 -86.0262
 -86.0262
 -86.0262
 -86.0262
 -86.0262
 -86.0262
 -86.0262
 -86.0262
 -86.0286
 -86.0244
 -86.0373
 -86.0275
 -86.0262
 -86.0262
 -86.0262
 -86.0262
 -86.026
 -86.0262
 -86.0262
 -86.0262
 -86.0262
 -86.0262
 24.7507
 24.0012
 25.0639
 25.1271
 25.2145
 25.3068
 -86.0262
 -86.0262
 -86.0262
 -86.0262
 -86.0262
 -86.0259
 -86.0262
 -86.0258
 -86.0261
 -86.0262
 -86.0262
 -86.0262
 -86.0262
 25.2952
 -5.44074
 20.3602
 -50.8232
 -86.0262
 -86.0262
 -86.0262
 -86.026
 -86.0262
 -86.0262
 -86.0262
 -86.0262
 -86.0262
 -86.0262
 -86.0262
 -86.0262
 -86.0262
 -86.0262
 -86.0262
 -86.0262
 -86.0262
 -86.0262
 -86.0262
 -86.0262
 -86.0262
 -86.0262
 -86.0262
 -86.0262
 -86.0262
 -86.0262
 -86.0262
 -86.0262
 -86.0262
 -86.0262
 -86.0262
 -86.0262
 -86.0262
 -86.0307
 -86.0219
 -86.03
 -86.0262
 -86.0262
 -86.0262
 -86.0262
 -86.0262
 -86.0262
 -86.0506
 -86.0203
 -85.8263
 -86.0271
 -86.0277
 -86.0268
 -86.0172
 -86.0262
 -86.0262
 -86.0262
 -86.0262
 -86.0262
 -86.0262
 -86.0262
 -84.561
 -85.9682
 -76.5317
 -83.9948
 -86.0354
 -86.0223
 -86.0153
 23.0661
 27.8719
 23.7393
 -86.0262
 -86.0261
 -86.0262
 22.3922
 22.4438
 22.4443
 -86.0262
 -86.0262
 -86.0262
 -86.0262
 23.8609
 24.0801
 23.842
 24.1242
 -86.0262
 -86.0262
 -86.0194
 -86.0258
 -86.0262
 -86.0262
 -86.0262
 -86.0262
 -86.2299
 -85.9903
 -88.7223
 23.5444
 23.0604
 23.4281
 22.9496
 22.4782
 22.5996
 -86.0262
 -86.0262
 -86.0262
 -86.051
 -86.0364
 -86.0318
 -86.0262
 -86.0262
 -86.0262
 -86.0262
 -86.0262
 -86.0262
 -86.0262
 -86.0262
 -86.0262
 -86.0262
 -86.0262
 -86.0262
 -86.0262
 -86.0262
 -86.0262
 18.07
 23.6649
 15.042
 29.8529
 24.3732
 26.8894
 25.3274
 26.2639
 -86.0262
 -86.0262
 -86.0262
 -85.8698
 -85.5858
 -85.9198
 -68.795
 9.98981
 13.7154
 25.8844
 28.68
 28.1688
 28.9192
 -86.0256
 -86.0258
 -86.0257
 20.0279
 20.3628
 -3.20513
 -86.0262
 -86.0262
 -86.0262
 -86.0262
 -86.0262
 -86.0262
 -86.0262
 -86.0262
 -86.0262
 -86.0262
 -86.0262
 -86.0262
 -86.0262
 -86.0262
 -86.0262
 -86.0262
 -86.0262
 -86.0262
 -86.0262
 -84.7907
 -92.565
 -56.9956
 -82.8385
 -73.1109
 -32.9656
 -85.0429
 -90.032
 -86.0262
 -86.0262
 -86.0262
 -86.0262
 -86.0262
 -86.0262
 -86.0262
 -86.0262
 -86.0262
 -86.0262
 -86.0262
 -86.0262
 23.6918
 23.9147
 22.5539
 23.0792
 22.7097
 22.4745
 24.2128
 -86.0262
 -86.0262
 -86.0262
 -86.0265
 -86.0266
 -86.0263
 -86.0262
 -86.0262
 -86.0262
 -86.0262
 -86.0261
 -86.0262
 -86.0262
 -86.0262
 23.1952
 22.9151
 22.4983
 23.7321
 22.592
 22.4157
 22.9886
 22.5139
 26.7532
 24.3607
 24.9072
 -86.0262
 -86.0262
 -86.0262
 22.4935
 22.3776
 22.5449
 22.5086
 -86.0262
 -86.0262
 -86.0262
 -86.0262
 24.6877
 25.9233
 27.1708
 25.1436
 -86.0262
 -86.0262
 -86.0262
 -86.0262
 -86.0262
 -86.0262
 -86.0262
 24.2718
 25.057
 24.7792
 24.4624
 -86.0262
 -86.0262
 -86.0262
 -86.0262
 -86.0262
 -86.0261
 -86.0261
 24.3375
 24.7013
 24.5187
 -86.0262
 -86.0262
 -86.0262
 -86.0262
 -85.8901
 23.4632
 23.5799
 22.964
 23.341
 -86.0262
 -86.0262
 -86.0262
 -86.0262
 -74.9614
 -86.0066
 -90.9836
 -83.54
 -86.0262
 -86.0262
 -86.0262
 -86.0262
 -86.0262
 -86.0262
 -86.0262
 -79.3501
 -87.3673
 -69.3762
 -86.0262
 -86.0262
 -86.0262
 -86.0262
 -86.0262
 -86.0262
 -86.0262
 -86.0262
 -86.0262
 22.7446
 22.6339
 23.1685
 22.7711
 22.7324
 22.8694
 -86.0262
 -86.0262
 -86.0262
 -86.0262
 -86.0262
 -86.0262
 -86.0262
 -86.0262
 -86.0262
 -86.0262
 -86.0262
 -86.0262
 -86.026
 -86.0262
 -86.0204
 -86.0264
 -86.0277
 -86.025
 -86.0362
 -86.0238
 23.3544
 -86.0262
 -86.0262
 -86.0262
 -86.0262
 23.6685
 23.2339
 23.721
 -86.1133
 -86.0474
 -86.0292
 -86.0192
 -86.0262
 -86.0262
 -86.0262
 -86.0261
 -86.0262
 -86.0262
 -86.0261
 -86.0262
 11.8661
 17.7583
 28.0128
 18.8351
 -86.0262
 -86.0262
 -86.0262
 -86.026
 -86.0274
 -86.0271
 24.2703
 24.208
 23.6939
 24.0543
 -86.0261
 -86.0262
 -86.0262
 -86.0262
 -86.0262
 -86.0262
 -86.0262
 -86.0262
 -86.0262
 -86.0262
 19.6596
 26.241
 24.7284
 -86.0261
 -86.0261
 22.3768
 22.3869
 22.4418
 22.3868
 27.3197
 25.3945
 26.0278
 26.6452
 24.3825
 24.2186
 23.9509
 23.4487
 -86.086
 -86.0218
 -86.0471
 -86.0406
 25.0475
 18.4236
 21.1224
 23.8494
 22.3957
 22.3959
 22.5002
 -86.0262
 -86.0262
 -86.0262
 -86.0262
 -86.0262
 -86.0262
 -86.0262
 -86.0262
 -86.0262
 -86.0262
 -81.2796
 -73.0591
 -81.424
 -55.2765
 -86.0262
 -86.0262
 -86.0262
 -86.0262
 -87.0172
 -85.7754
 -89.3382
 -84.6044
 -86.0261
 -86.0262
 -86.0262
 -86.0259
 -86.0261
 -86.0262
 -86.0262
 22.5489
 22.7877
 22.6328
 22.9351
 23.1333
 22.8235
 23.3346
 22.4793
 22.4969
 22.3455
 17.369
 27.0322
 26.0833
 -86.0262
 -86.0262
 -86.0262
 -86.0262
 -86.0262
 -86.0262
 22.8951
 22.6363
 22.8584
 22.9662
 -86.0262
 -86.0262
 -86.0262
 -86.0514
 -85.9502
 -85.9927
 -86.0347
 -70.1771
 -87.0179
 -88.4991
 -84.9913
 -86.0269
 -86.0268
 -86.0276
 -86.0261
 -86.0262
 -86.0262
 -86.0262
 -86.0262
 -86.0262
 -86.0562
 -86.068
 -86.101
 -86.012
 -86.0262
 -86.0262
 -86.0262
 -86.0262
 -86.0262
 -86.0262
 -86.0262
 -86.0262
 -86.0262
 -86.0262
 -86.0262
 -86.0262
 -79.711
 -85.9268
 -47.2661
 13.4834
 -86.0262
 -86.0262
 -86.0262
 -86.0262
 25.7096
 25.1286
 25.5985
 25.1371
 -86.0262
 -86.0262
 -86.0262
 -86.0262
 -86.0262
 -86.0262
 -86.0262
 -86.0262
 -86.0262
 -86.0262
 -86.0262
 -86.0262
 -86.0262
 -86.0262
 -86.0262
 -86.0262
 -86.0226
 -86.0242
 -86.0209
 -86.039
 22.773
 22.6179
 22.5124
 22.8918
 22.7622
 23.0612
 22.6694
 -86.0262
 -86.0262
 24.8129
 24.9799
 24.6696
 22.4044
 22.4102
 22.3991
 22.4385
 -86.0262
 -86.0262
 -86.0262
 23.7851
 24.1305
 23.935
 24.1405
 -86.0262
 -86.0262
 -86.0262
 -86.0262
 -86.0262
 -86.0262
 -86.0262
 -86.0262
 -86.0262
 -86.0262
 -86.0262
 -86.0262
 -86.0262
 -86.0262
 -86.0262
 -86.0262
 -86.7633
 -80.3064
 -88.2543
 -77.6278
 -86.0262
 -86.0262
 -86.0262
 -86.0262
 24.5022
 23.9047
 24.3932
 -86.0262
 -86.0262
 -86.0262
 -86.0262
 -86.0262
 -86.0262
 -86.0262
 -86.0262
 23.7761
 24.2901
 23.9861
 23.9668
 -86.0262
 -86.0262
 -86.0262
 22.3897
 22.517
 22.4642
 -86.0262
 -86.0262
 -86.0262
 24.7571
 24.0274
 24.234
 24.3724
 22.3778
 22.3995
 22.2581
 22.4563
 -86.0262
 -86.0262
 -86.0262
 -86.0262
 -86.0262
 -86.0262
 -86.0262
 -86.0262
 25.0375
 24.4094
 24.9807
 23.7735
 -86.0256
 -86.027
 -86.0266
 -86.0262
 -86.0262
 -86.0262
 -86.0262
 -86.0262
 22.3955
 22.567
 22.4693
 22.3239
 25.0992
 -86.0262
 -86.0262
 -86.0262
 -86.0261
 23.2054
 23.3205
 23.443
 23.7203
 -86.0262
 -86.0262
 -86.0262
 -86.0262
 24.4055
 24.9032
 24.2909
 24.0812
 -86.026
 -86.0261
 -86.0262
 -86.0262
 -86.0262
 -86.0262
 26.7344
 27.4666
 28.5534
 33.4226
 -86.0234
 -85.9674
 -86.0236
 -86.0262
 -86.0262
 -86.0262
 25.3556
 25.8657
 26.8109
 28.4771
 26.2943
 25.4802
 23.9164
 24.8786
 -86.0262
 -86.0262
 -86.0262
 -86.03
 -86.0042
 -86.0118
 -86.0237
 -86.0262
 -86.0262
 -86.0262
 -86.0262
 -86.0262
 24.7053
 24.1351
 24.7234
 24.2054
 -86.0214
 -86.0255
 -86.0294
 -86.0126
 22.6011
 23.0622
 -86.0262
 -86.0262
 -86.0262
 -86.0262
 -86.0262
 -86.0262
 -86.0262
 23.7448
 23.4471
 23.9372
 23.8607
 -86.0262
 -86.0262
 -86.0262
 -86.0262
 -86.0262
 -86.0262
 -86.0262
 -86.0262
 -86.0262
 -86.0262
 -86.0262
 -32.7152
 28.0626
 15.0485
 25.7734
 -86.0262
 -86.0262
 -86.0262
 -86.0262
 25.5263
 -85.9968
 -86.2227
 -87.1687
 -86.0992
 22.4701
 22.6451
 22.4928
 23.8688
 23.7331
 23.7493
 23.3239
 -85.9078
 -85.8076
 -86.0021
 -85.9001
 26.1498
 26.1499
 26.0864
 25.4309
 -86.0262
 -85.9852
 -86.0264
 -86.0283
 -86.0288
 -86.0258
 -86.0262
 -86.0264
 -86.0258
 -86.0262
 -86.0262
 -86.0262
 -86.0262
 -86.0262
 -86.0262
 -86.0262
 -86.0262
 -86.0262
 -86.0262
 -86.0262
 -86.0262
 -86.0262
 -86.0262
 -86.0262
 22.46
 22.3781
 22.4316
 -86.0262
 -86.0262
 -86.0261
 -86.0262
 22.5091
 22.8259
 22.6406
 -86.0261
 -86.0262
 -86.0264
 -86.0262
 -86.027
 -86.0261
 -86.0261
 -86.0261
 -86.0254
 -86.0265
 -86.0142
 -86.0155
 22.6246
 22.7524
 22.6546
 -86.0262
 23.0046
 -86.0278
 -86.0277
 -86.0278
 -86.0252
 -86.0262
 -86.0262
 -86.0262
 -86.0262
 -86.0262
 -86.0262
 -86.0246
 -86.0214
 -86.0256
 -86.0262
 -86.0262
 -86.0262
 -86.0262
 -86.0262
 -86.0261
 -86.0264
 -86.0261
 -86.0262
 -86.0262
 -86.0262
 24.3573
 25.2601
 24.7545
 -86.0261
 -86.0261
 22.4259
 22.9318
 22.8192
 22.745
 -86.0228
 -86.0242
 -86.0288
 -86.0262
 -86.0262
 -86.0262
 -86.0262
 -86.0262
 -86.0262
 -86.0262
 -86.0262
 -86.0262
 -86.0262
 -86.0262
 -86.0262
 -73.4438
 -90.2832
 -90.9832
 -80.2387
 -86.0262
 -86.0262
 -86.0262
 -86.0262
 -86.0262
 -86.0262
 -86.0262
 -86.0262
 -86.0262
 -86.0262
 -86.0262
 -13.1629
 23.8175
 19.8017
 22.0036
 -86.0261
 -86.0269
 -86.0265
 -86.0265
 -86.0262
 -86.0262
 -86.0262
 -86.0262
 -86.0262
 -86.0262
 -86.0262
 -86.0262
 -86.0262
 -86.0262
 -86.0262
 -86.0262
 -86.0262
 -86.0262
 -86.0262
 23.4981
 23.7647
 23.6121
 23.5382
 -86.0262
 -86.0262
 -86.0262
 -86.0262
 -86.0262
 -86.0262
 -86.0262
 -86.0262
 -85.6924
 -89.1586
 -87.5183
 -87.1393
 -86.0262
 -86.0262
 -86.0262
 -86.0262
 27.7445
 28.0746
 27.9834
 28.1053
 -86.0262
 -86.0262
 -86.0262
 -86.0262
 -86.0262
 -86.0262
 -86.0262
 -86.0262
 -86.0262
 -86.0262
 -86.0262
 -86.0262
 -86.0262
 -90.4395
 -90.7783
 -71.6184
 -87.1709
 25.8229
 25.4386
 25.6845
 25.6373
 -86.0262
 -86.0262
 -86.0262
 -86.0262
 -86.0262
 -86.0262
 -86.0262
 -83.3479
 -88.2106
 -85.7077
 -93.3269
 -86.0262
 -86.0262
 -86.0262
 -86.0262
 -86.0262
 -86.0262
 -86.0262
 -86.0262
 -86.0262
 -86.0262
 -86.0262
 22.961
 22.5663
 22.495
 22.8812
 23.2623
 22.9585
 24.223
 -86.0262
 -86.0262
 -86.0262
 -86.0262
 -86.0262
 -86.0262
 -86.0262
 -86.0262
 -86.0262
 -86.0262
 -86.0262
 -87.6205
 -87.3848
 -85.9548
 -86.0262
 -86.0262
 -86.0262
 -86.0262
 -86.0262
 -86.0262
 22.6589
 23.4888
 23.0906
 13.0986
 -37.3865
 -86.0262
 -86.0262
 -86.0262
 -86.0262
 -86.0262
 -86.0262
 -86.0262
 -86.0262
 -86.0262
 -86.0262
 -86.0262
 -86.0262
 22.6713
 22.6603
 22.5463
 -86.0262
 -86.0262
 -86.0262
 -86.0262
 -86.0262
 -86.0263
 -86.0262
 -80.5765
 -87.5853
 -89.9047
 -71.9364
 -86.0267
 -86.0261
 -86.0282
 -86.0262
 -86.0262
 -86.0262
 -86.0262
 -86.0262
 -86.0262
 -86.0261
 -86.0262
 -86.0262
 -86.026
 22.4334
 22.3823
 22.3423
 22.3501
 22.4638
 22.6505
 23.1908
 22.8131
 -86.0262
 -86.0262
 -86.0262
 -86.0262
 -86.0262
 -86.0262
 -86.0244
 -86.033
 -86.0228
 -86.0472
 -87.8384
 -67.143
 -90.0589
 -86.7504
 -86.0262
 -86.0262
 -86.0262
 -86.0262
 -86.0262
 -86.0262
 -86.0262
 -86.0262
 22.6513
 23.528
 22.6092
 22.9524
 -86.0262
 -86.0262
 -86.0262
 -86.0262
 -86.0262
 -86.0262
 -86.0262
 24.4717
 24.0239
 22.8335
 22.4751
 -86.0262
 -86.0262
 -86.0262
 -86.0262
 22.511
 22.4903
 22.7231
 22.446
 22.9665
 23.6193
 23.1438
 23.3871
 -86.0262
 -86.0262
 -86.0262
 -86.0262
 14.2037
 19.4794
 13.5681
 -64.1237
 -86.0262
 -86.0262
 -86.0262
 -86.0262
 28.5787
 29.5707
 27.72
 -86.0262
 -86.0262
 -86.0262
 -86.0262
 -86.0115
 -86.0862
 -86.0907
 -86.0426
 -86.0262
 -86.0262
 20.9959
 26.7154
 27.5124
 30.0255
 27.2649
 25.6145
 24.0475
 -86.0262
 -86.0262
 -86.0262
 24.0675
 24.174
 23.7106
 22.922
 -86.0262
 -86.0262
 -86.0262
 -86.0262
 -86.0262
 -86.0262
 -86.0262
 -86.0262
 -85.7051
 -86.0597
 -86.025
 -85.6949
 22.8484
 22.7078
 22.5527
 22.7888
 22.4266
 22.338
 22.3564
 22.3816
 23.1188
 23.2209
 23.242
 22.5039
 22.5676
 -86.0262
 -86.0262
 -86.0262
 -86.0262
 -86.0262
 -86.0262
 -86.0262
 -86.0262
 -86.0262
 -86.0262
 -86.0262
 -86.0262
 -86.0262
 -86.0262
 -86.0262
 -86.0262
 -86.0262
 -86.0262
 -86.0262
 -86.0262
 -86.0262
 -86.0262
 -86.0262
 -86.0262
 -86.0262
 27.7916
 27.6438
 27.0953
 -86.0262
 -86.0262
 -86.0262
 -86.0262
 22.3406
 22.5271
 22.3371
 22.3719
 -50.3988
 15.5513
 18.9406
 -86.0262
 -86.0262
 -86.0262
 -34.6161
 24.2223
 -74.3662
 22.5184
 23.1021
 -81.0903
 -64.8348
 -72.9962
 -86.0262
 -86.0262
 -86.0262
 -86.0262
 22.995
 23.2148
 22.9924
 22.9338
 -85.8737
 -87.1339
 -85.7495
 -86.0262
 -86.0262
 -86.0262
 -86.0262
 -86.0262
 -86.0262
 -86.0399
 -86.0262
 -86.0262
 -86.0262
 -86.0262
 -86.0264
 -86.0253
 -86.0259
 25.8776
 29.7716
 4.56788
 22.4118
 22.6465
 22.9592
 -86.0261
 -86.0261
 -86.0261
 -86.0262
 -86.0262
 -86.0262
 -86.0262
 -86.0262
 22.4141
 22.44
 22.4128
 22.3884
 -86.1479
 -86.101
 -85.9786
 -86.0262
 -86.0262
 -86.0262
 -86.0262
 -86.0262
 -86.0262
 -86.0262
 -86.0262
 -86.0262
 -86.0262
 -86.0262
 -85.6575
 -85.8853
 -86.0417
 -85.768
 -86.0262
 -86.0262
 -86.0262
 -86.0262
 -86.0262
 -86.0262
 -87.1873
 -76.1369
 -86.0262
 -86.0262
 -86.0262
 -86.0262
 -86.0262
 -86.0262
 -86.0262
 -86.0262
 -86.0261
 -86.0263
 -86.026
 -86.0262
 -86.0262
 -86.0262
 -86.0262
 -10.0189
 -88.1823
 -23.0655
 -77.2043
 23.4355
 22.7793
 22.5635
 23.7017
 23.5093
 23.8616
 24.0422
 23.0888
 -86.0262
 -86.0262
 -86.0262
 -86.0262
 -86.0262
 -86.0262
 -86.0262
 -86.0262
 -86.0262
 -86.0262
 -86.0262
 -86.0262
 -86.0262
 24.4997
 -86.0262
 -86.0262
 -86.0262
 -86.0262
 -86.0262
 -86.0262
 -86.0262
 -86.0262
 -86.0262
 -86.0262
 -86.0262
 22.7932
 22.7867
 22.6217
 23.6314
 23.3219
 23.9851
 22.9445
 22.8826
 23.2732
 23.0618
 23.9403
 23.9601
 -86.0262
 -86.0262
 -86.0262
 -86.0262
 -86.0262
 -86.0262
 -86.0262
 -86.0262
 -87.5164
 -86.2308
 -89.4389
 -86.3111
 -86.0262
 -86.0261
 -86.0262
 -86.0262
 26.5736
 23.2538
 23.2226
 -86.0776
 -85.7895
 -86.0262
 -86.0262
 -86.0262
 23.5182
 24.1688
 23.763
 23.6488
 -86.0262
 -86.0262
 -86.047
 -86.0258
 -86.0262
 -86.0262
 -86.0262
 -86.0262
 -86.0262
 -86.0262
 -86.0262
 -86.0262
 -87.1335
 -84.0475
 -86.8468
 -85.2496
 -86.0262
 -86.0262
 -86.0262
 -86.0262
 26.0593
 25.8194
 26.3536
 25.6775
 22.6767
 22.5077
 23.102
 22.7577
 22.5484
 23.0576
 23.4704
 22.9493
 -86.0262
 -86.0262
 -86.0262
 -86.0262
 -86.0262
 -86.0262
 -86.0262
 -86.0262
 -86.0262
 -86.0262
 -86.0262
 22.8571
 23.0359
 22.8137
 22.655
 17.7188
 26.8997
 25.9474
 -86.0261
 -86.0262
 -86.0261
 -86.0264
 -86.0262
 -86.0262
 -86.0262
 -86.0262
 22.3098
 22.5267
 22.2184
 22.5513
 -86.0262
 -86.0256
 -86.0262
 -86.0262
 -85.7025
 -45.0377
 -89.0704
 -88.3111
 -86.0262
 -86.0262
 -86.0262
 -86.0262
 -86.0262
 -86.0262
 -86.0262
 -86.0262
 -86.0262
 -86.0262
 -86.0262
 -86.0262
 -86.0262
 -86.0262
 -86.0262
 22.402
 22.4097
 23.1285
 22.6291
 22.8539
 22.6233
 -86.0262
 -86.0262
 -86.0262
 -86.0262
 25.1058
 26.0385
 26.447
 -84.7478
 -90.7232
 -76.2252
 -86.9593
 22.6284
 22.4363
 22.648
 22.4112
 -86.0262
 -86.0262
 -86.0262
 -86.0262
 23.9203
 23.3248
 -86.0262
 -86.0262
 -86.0262
 -86.0262
 -86.0262
 26.2213
 26.6477
 26.804
 -86.0262
 -86.0262
 -86.0262
 -86.0262
 15.6105
 16.8982
 16.9539
 27.4408
 -86.0262
 -86.0262
 -86.0262
 -86.0262
 -86.0262
 -86.0262
 -86.0262
 -86.0262
 -89.2705
 -73.6257
 -72.5027
 -86.0262
 -86.0262
 -86.0262
 -86.0262
 -85.952
 -85.8893
 -85.8037
 -86.0481
 -86.063
 -86.0326
 22.3983
 22.3865
 22.344
 -73.8272
 -51.36
 -74.1243
 -86.0262
 -86.0262
 -86.0262
 -86.0262
 -86.0262
 -86.0262
 -86.0262
 -86.0262
 22.5623
 22.6092
 22.4958
 22.5329
 24.6868
 27.3926
 -86.0262
 -86.0262
 -86.0262
 -70.5554
 -87.3921
 -88.7267
 -84.1734
 -89.3581
 -86.6255
 -84.9765
 -86.0262
 -86.0262
 -86.0262
 -86.0262
 23.7514
 23.8665
 -86.0262
 -86.0262
 -86.0262
 -86.0262
 -86.0262
 -86.0262
 -86.0262
 -91.405
 -82.9999
 -86.0261
 -86.0262
 -86.0261
 -86.0261
 -86.0262
 -86.0262
 -86.3219
 -85.6278
 -86.0262
 -86.0262
 -86.0262
 -86.0262
 -86.0261
 -86.0262
 -86.0262
 -86.0262
 -86.0262
 -86.0262
 -86.0261
 -86.0262
 -86.0262
 -86.0262
 -86.0262
 -86.0262
 -86.0262
 -86.0262
 -86.0262
 18.6054
 18.399
 -68.0787
 -37.683
 22.8096
 22.7404
 22.567
 22.6664
 -86.0299
 -86.0307
 -86.0259
 -86.0265
 -86.0261
 -86.0261
 -86.0262
 -86.0261
 24.0355
 23.7526
 -86.0262
 -86.0262
 -86.0262
 -86.0262
 -86.0262
 22.5184
 22.536
 22.4474
 22.4066
 -86.0266
 -86.0259
 -86.0262
 -86.0263
 -86.0262
 -86.0262
 -86.0262
 -86.0262
 -86.0262
 -86.0262
 -86.0262
 -86.0262
 -86.0262
 -85.5859
 -86.0748
 -85.864
 -86.0691
 -86.0262
 -86.0262
 -86.0262
 -86.0262
 -86.0262
 23.6751
 23.6197
 23.7529
 23.0633
 23.1972
 23.0094
 -86.0262
 -86.0262
 -86.0262
 -86.0262
 -86.0262
 -86.0262
 -86.0262
 -86.0262
 22.6138
 22.5004
 22.6536
 -86.0262
 -86.0262
 -86.0262
 -86.0262
 -86.0262
 -86.0262
 -86.0262
 -86.0262
 -70.1295
 -33.7141
 9.38731
 -54.7343
 -85.3207
 -86.8006
 -86.6438
 -31.6213
 -26.3964
 -72.6775
 -18.2325
 24.8326
 26.9815
 23.4668
 29.5947
 -86.0262
 -86.0262
 -86.0262
 -86.0262
 -86.0262
 -86.0925
 -86.0224
 -86.0205
 -86.0443
 -86.0262
 -86.0262
 -86.0262
 -86.0262
 18.0059
 -66.5343
 -46.9688
 19.2343
 -86.0262
 -86.0262
 22.5724
 22.4611
 22.4623
 22.3573
 27.0808
 -42.5994
 16.5118
 21.4584
 -86.0262
 -86.0262
 -86.0262
 -86.0262
 22.6565
 22.4022
 -86.0262
 -86.0262
 -86.0262
 -86.0262
 -86.0262
 -86.0262
 -86.0262
 -86.0262
 -86.0262
 -86.0262
 -86.0262
 -86.0262
 24.2858
 24.4629
 24.4757
 24.3252
 22.6438
 22.6148
 22.498
 -86.0262
 -86.0262
 -86.0262
 23.8978
 24.3003
 -86.0262
 -86.0262
 -86.0262
 -86.0262
 22.3505
 22.5857
 22.3114
 22.6123
 -86.0262
 -86.0262
 -86.0262
 -86.0262
 -86.0262
 -86.0262
 -86.0262
 23.1045
 22.6523
 22.692
 22.8391
 -86.0262
 -86.0262
 -86.0262
 -86.0262
 -86.0262
 -86.0262
 -86.0262
 -86.0262
 -86.0262
 -86.0262
 -86.0262
 -85.941
 -86.0435
 -85.848
 -86.0257
 -86.026
 -86.0267
 -86.0241
 -86.0998
 -86.0416
 -85.9555
 -86.0704
 -86.0262
 -86.0262
 -86.0262
 -86.0262
 -86.0262
 -86.0262
 -86.0262
 -86.0262
 -86.0262
 -86.0262
 -88.1153
 -47.3223
 -88.8039
 -85.1168
 -86.0247
 -86.0262
 -86.0258
 -86.0259
 -86.0277
 -86.0237
 -86.0255
 -86.026
 -86.0269
 -86.0238
 -86.0262
 -86.0262
 -86.0262
 -86.0262
 22.762
 22.9289
 22.703
 -86.0262
 -86.0262
 -86.0262
 -86.0262
 -86.0262
 -86.0262
 -86.0262
 -86.0262
 -86.0262
 -86.0262
 -86.0262
 -86.0262
 -86.0262
 -86.0262
 -86.0262
 -86.0262
 -86.0262
 -86.0262
 -86.0262
 -86.0262
 24.7408
 18.6875
 25.8499
 24.7567
 24.713
 24.4489
 24.6151
 -86.0262
 -86.0262
 -86.0262
 -86.0262
 -86.0262
 -86.0261
 -86.0261
 -86.0261
 24.6173
 23.7507
 25.754
 24.3174
 -86.0262
 -86.0262
 -86.0262
 -86.0262
 -86.0262
 -86.0262
 -86.0262
 -86.0262
 23.0087
 23.9373
 25.2986
 25.2479
 -86.0262
 -86.0262
 22.5026
 22.4114
 22.6197
 -86.0276
 -86.0022
 -86.0262
 -86.0262
 -86.0262
 -86.0262
 -86.0262
 -86.0262
 -86.0262
 -86.0262
 -86.0262
 -86.0262
 -86.0262
 -86.0261
 -86.0262
 -86.1331
 -88.3071
 -87.7919
 -85.887
 -86.0262
 -86.0262
 -86.8627
 -54.8918
 -86.0262
 -86.0262
 -86.0262
 -86.0262
 -91.5645
 -86.2306
 -90.5129
 -82.7152
 26.6966
 23.648
 23.1085
 23.8016
 23.4293
 23.474
 23.1925
 23.246
 -86.0262
 -86.0262
 -86.0262
 -86.0262
 -86.0262
 -86.0262
 23.8123
 24.4772
 -86.0262
 -86.0262
 -86.0262
 -86.0262
 -86.0262
 -86.0262
