 15.2574
 15.1204
 15.1583
 15.064
 12.5758
 12.5532
 12.4652
 12.4198
 13.3275
 13.4242
 13.3027
 13.4301
 13.2212
 13.3031
 13.3597
 13.3923
 11.5725
 11.4365
 11.6376
 11.6744
 11.6387
 11.7525
 11.5515
 11.7101
 15.7638
 15.865
 15.8325
 15.7643
 15.7297
 15.6876
 15.6872
 15.7574
 11.5643
 11.6195
 11.7424
 11.6095
 11.6847
 11.6654
 11.7126
 11.5152
 16.0981
 16.1603
 16.0644
 16.046
 13.2807
 13.2717
 13.3712
 13.3048
 14.7452
 14.7625
 14.8404
 14.6727
 12.5522
 12.7097
 12.758
 12.6623
 13.7821
 13.803
 13.74
 13.66
 15.4458
 15.5195
 15.3932
 15.5162
 12.0576
 11.9689
 12.0528
 11.9129
 13.0106
 13.0783
 12.9809
 13.0561
 13.7725
 13.7507
 13.7334
 13.6693
 12.0273
 12.0375
 11.9767
 11.8788
 15.6677
 15.7811
 15.6601
 15.7411
 11.2472
 11.2475
 11.1093
 11.0867
 16.8919
 16.9516
 16.951
 16.8671
 12.8432
 12.7798
 12.8854
 12.9055
 13.9263
 13.9893
 13.8877
 13.8636
 13.6279
 13.6125
 13.6714
 13.7046
 14.3768
 14.2691
 14.2183
 14.3616
 15.4684
 15.5436
 15.4542
 15.4594
 14.8106
 14.8379
 14.9317
 14.8733
 12.6767
 12.6976
 12.7387
 12.8192
 13.8659
 13.694
 13.8939
 13.8387
 14.7357
 14.65
 14.6577
 14.7312
 13.0898
 13.21
 13.0857
 13.1875
 12.5391
 12.5953
 12.5958
 12.5804
 14.7493
 14.8587
 14.7392
 14.9026
 15.3458
 15.3544
 15.3709
 15.3666
 13.1502
 13.2913
 13.1844
 13.1994
 15.8934
 15.8533
 15.8322
 15.8189
 12.8807
 12.8648
 12.6718
 12.7195
 10.8583
 11.0033
 10.9019
 11.0303
 13.5032
 13.5374
 13.484
 13.6205
 12.7491
 12.6526
 12.6932
 12.7536
 15.794
 15.7973
 15.7114
 15.8616
 13.0657
 13.1622
 13.1206
 13.0154
 11.5765
 11.6211
 11.5046
 11.5761
 15.013
 14.9295
 14.9667
 15.0057
 13.0807
 12.9148
 12.9593
 12.9311
 15.3191
 15.227
 15.2962
 15.3936
 14.735
 14.8002
 14.8364
 14.8644
 13.7601
 13.8406
 13.8557
 13.9483
 15.4878
 15.5272
 15.5575
 15.4772
 13.5662
 13.6619
 13.649
 13.5849
 14.5489
 14.657
 14.5336
 14.6991
 13.4953
 13.4315
 13.4905
 13.4366
 14.854
 14.7682
 14.8336
 14.7066
 13.3509
 13.3648
 13.2725
 13.4387
 12.7861
 12.782
 12.713
 12.6433
 12.7114
 12.7962
 12.7426
 12.8939
 14.9413
 14.9664
 15.0786
 14.9004
 14.3214
 14.3766
 14.371
 14.2456
 16.7326
 16.7791
 16.8333
 16.7668
 14.8537
 14.8848
 14.9744
 14.8679
 13.9081
 13.7622
 13.8366
 13.8157
 14.5328
 14.535
 14.3908
 14.606
 14.6443
 14.5395
 14.6529
 14.5572
 15.581
 15.6384
 15.5595
 15.5596
 11.9657
 11.8247
 11.7632
 11.9735
 11.6272
 11.5787
 11.5197
 11.4769
 13.6857
 13.5538
 13.7739
 13.6977
 14.8148
 14.8439
 14.7765
 14.8992
 12.8474
 12.8005
 12.7377
 12.855
 15.6204
 15.8191
 15.7396
 15.7352
 15.6702
 15.7474
 15.7871
 15.6576
 16.9178
 16.9823
 16.9022
 16.9186
 13.4232
 13.2897
 13.3751
 13.269
 15
 14.891
 14.8711
 14.9859
 15.2275
 15.2995
 15.1824
 15.1724
 11.376
 11.2339
 11.2865
 11.2152
 15.4336
 15.4804
 15.5585
 15.4561
 15.2454
 15.296
 15.3531
 15.2518
 15.0658
 14.9917
 15.0797
 15.1586
 14.1483
 14.1717
 14.0825
 14.0964
 15.1769
 15.064
 15.1472
 15.1099
 14.7534
 14.7016
 14.6701
 14.7217
 14.3162
 14.3463
 14.3892
 14.4247
 15.3753
 15.4954
 15.3494
 15.485
 17.1376
 17.1517
 17.0514
 17.0503
 15.5925
 15.5566
 15.4937
 15.5462
 13.3302
 13.4138
 13.2989
 13.4667
 13.3146
 13.3638
 13.2744
 13.3805
 12.743
 12.827
 12.8395
 12.7411
 15.8178
 15.8313
 15.8014
 15.759
 11.0944
 11.1133
 11.2132
 11.0183
 12.8901
 12.7867
 12.9104
 12.8734
 15.8594
 15.8548
 15.944
 15.9624
 14.6937
 14.7027
 14.7376
 14.5712
 15.2783
 15.2057
 15.362
 15.3011
 15.2537
 15.3005
 15.3087
 15.7807
 15.7923
 15.8038
 15.8436
 13.0869
 13.1589
 13.2371
 13.0481
 14.3385
 14.1938
 14.2425
 14.3141
 13.275
 13.1609
 13.2603
 14.8233
 14.96
 14.8678
 14.9067
 14.0907
 13.9985
 14.0313
 14.1516
 12.1531
 12.3424
 12.3282
 12.0928
 15.6147
 15.6016
 15.4801
 15.5238
 15.3152
 15.3832
 15.4394
 15.3728
 13.4242
 13.5508
 13.572
 13.525
 12.9133
 12.9883
 12.8062
 12.817
 15.7732
 15.752
 15.7917
 15.8591
 15.3653
 15.3351
 15.1808
 15.2274
 14.422
 14.3039
 14.2376
 14.404
 11.7239
 11.6442
 11.6889
 11.6628
 13.3755
 13.252
 13.2014
 13.2625
 13.9717
 14.1345
 14.0054
 13.972
 16.7676
 16.8662
 16.7657
 16.769
 14.2306
 14.3085
 14.182
 14.1179
 12.1568
 12.2928
 12.1569
 12.3289
 15.0908
 15.2384
 15.0306
 15.0692
 15.4001
 15.3814
 15.4778
 15.4209
 15.4179
 15.5132
 15.4904
 15.4643
 16.236
 16.2456
 16.243
 16.1977
 15.1411
 15.2899
 15.2765
 15.2801
 13.394
 13.402
 13.3841
 13.4731
 15.8234
 15.7883
 15.7589
 15.7254
 11.9418
 12.0543
 11.9547
 11.9213
 15.6541
 15.7726
 15.7625
 15.6627
 12.2198
 12.4041
 12.1979
 12.3168
 14.347
 14.4328
 14.4289
 14.3629
 14.5636
 14.4625
 14.4327
 14.5284
 14.9612
 14.9604
 14.8233
 14.9239
 15.1623
 15.1626
 15.2507
 15.2701
 11.2389
 11.1102
 11.0711
 11.0934
 15.0812
 15.149
 15.0796
 15.1339
 10.8807
 11.003
 10.9204
 11.0942
 12.881
 12.9237
 12.7807
 12.8869
 16.5146
 16.4166
 16.4361
 16.5162
 11.4435
 11.4657
 11.3718
 11.3273
 15.4395
 15.3419
 15.4336
 15.5146
 16.4727
 16.5368
 16.5688
 16.4788
 12.4848
 12.5283
 12.5923
 12.5361
 11.4965
 11.3292
 11.4582
 11.5296
 13.6816
 13.6643
 13.7087
 13.7441
 12.6292
 12.7689
 12.6
 12.7546
 15.3086
 15.4246
 15.3575
 15.3879
 13.4813
 13.5282
 13.4885
 13.3894
 14.6498
 14.6765
 14.5954
 14.5864
 15.7022
 15.6522
 15.7252
 15.7261
 16.0413
 16.0608
 16.0704
 15.9799
 14.2891
 14.3283
 14.2267
 14.3649
 13.9745
 13.991
 14.0186
 14.093
 15.3432
 15.3568
 15.2772
 15.2644
 15.3462
 15.4864
 15.3606
 15.3731
 13.2455
 13.2208
 13.3051
 13.3111
 11.5986
 11.6924
 11.5106
 11.4729
 11.8476
 11.9201
 11.82
 11.7847
 11.9166
 12.053
 12.0211
 11.9433
 12.9513
 13.0234
 12.9177
 13.0264
 15.3474
 15.4877
 15.3835
 15.4222
 15.2977
 15.2221
 15.1965
 15.1801
 13.9861
 14.0522
 14.1618
 14.1887
 12.9259
 12.9854
 12.8261
 12.9098
 12.9709
 13.0354
 12.9858
 12.8993
 13.72
 13.8235
 13.7423
 13.72
 13.3575
 13.2574
 13.3801
 13.3614
 15.9102
 15.9206
 15.8668
 15.7802
 17.4426
 17.5025
 17.4325
 17.5328
 15.0684
 15.0777
 15.1857
 15.1209
 17.2
 17.1041
 17.1263
 15.1398
 15.1655
 15.1006
 15.2113
 11.9864
 12.069
 12.013
 12.0934
 13.8288
 13.7794
 13.7451
 13.6589
 11.7477
 11.8055
 11.6719
 11.8289
 15.3821
 15.3672
 15.4794
 15.3905
 12.9913
 12.9959
 12.8049
 12.8545
 13.6904
 13.7162
 13.8378
 13.7579
 11.2929
 11.2111
 11.1799
 11.4161
 12.4676
 12.4944
 12.4403
 12.3352
 15.0402
 14.9395
 15.0078
 15.0439
 12.9503
 12.963
 13.0736
 12.9351
 12.2571
 12.4423
 12.346
 12.4118
 16.4487
 16.5582
 16.5287
 16.5514
 13.8553
 13.8155
 13.7432
 13.7285
 12.2493
 12.2008
 12.1882
 12.298
 13.2789
 13.1767
 13.3528
 13.1095
 12.25
 12.3836
 12.236
 12.2434
 15.2542
 15.159
 15.1059
 15.1235
 12.4121
 12.1962
 12.435
 12.2391
 14.3397
 14.2833
 14.4509
 14.3423
 14.1353
 14.094
 14.0243
 14.1609
 12.4711
 12.5219
 12.6063
 12.4105
 10.9266
 11.033
 11.0381
 10.9622
 15.9378
 15.8827
 15.8285
 15.7952
 14.7943
 14.6946
 14.6472
 14.7697
 13.4204
 13.4963
 13.5429
 13.511
 12.5263
 12.4391
 12.4702
 12.4267
 15.0373
 15.1262
 15.0838
 15.0736
 15.7374
 15.6306
 15.5786
 15.7147
 12.8875
 12.8796
 13.0361
 13.0184
 13.1683
 13.0697
 13.1748
 13.1287
 11.412
 11.2944
 11.1917
 11.401
 15.5041
 15.3739
 15.5299
 15.4479
 11.5466
 11.4239
 11.4441
 11.524
 14.8021
 14.6958
 14.78
 14.8136
 17.3786
 17.3889
 17.344
 17.3256
 11.9551
 11.8985
 11.8098
 11.8785
 13.1162
 13.0514
 13.182
 13.2805
 12.0542
 12.0359
 12.1204
 12.1265
 14.0597
 14.1841
 14.1045
 14.0507
 14.2999
 14.2469
 14.224
 14.2854
 12.6228
 12.7719
 12.7609
 12.7074
 15.364
 15.3131
 15.4141
 15.3413
 15.5629
 15.5079
 15.4955
 15.5465
 16.8717
 16.9159
 16.9302
 16.9476
 13.613
 13.5433
 13.4906
 13.4461
 13.9469
 13.9909
 13.809
 13.9332
 13.3388
 13.5192
 13.3837
 13.3026
 14.7312
 14.5804
 14.5645
 14.7513
 11.5074
 11.5113
 11.4332
 11.6486
 11.4727
 11.266
 11.4711
 11.4996
 13.2343
 13.1804
 13.0895
 13.0795
 17.9768
 17.9912
 17.96
 17.9029
 14.337
 14.4012
 14.3188
 14.4587
 14.2893
 14.3166
 14.4371
 14.3164
 14.3459
 14.3189
 14.4554
 14.4469
 12.4821
 12.5369
 12.3767
 12.548
 16.6476
 16.5451
 16.7018
 16.6493
 16.9229
 16.938
 16.9976
 17.0395
 12.3742
 12.4662
 12.377
 12.5123
 14.8912
 14.7601
 14.94
 14.783
 14.5773
 14.602
 14.557
 14.5521
 13.0809
 13.1282
 13.1768
 13.2863
 15.4957
 15.4376
 15.4012
 15.4566
 12.4168
 12.5141
 12.5015
 12.4018
 14.7048
 14.8854
 14.8047
 14.9472
 14.8529
 14.8646
 14.9535
 14.8833
 15.7505
 15.8062
 15.7019
 15.8135
 14.4502
 14.3174
 14.3884
 14.2968
 12.1853
 12.1213
 12.1363
 12.2213
 12.9942
 12.8677
 12.8218
 12.9375
 15.4595
 15.472
 15.3833
 15.3843
 15.0575
 14.9296
 14.9298
 15.0522
 11.851
 11.7956
 11.7045
 11.7684
 12.5135
 12.6172
 12.5602
 12.5875
 14.2435
 14.2873
 14.3541
 14.2828
 15.864
 15.8403
 15.8459
 15.8058
 16.2805
 16.136
 16.1698
 16.2649
 13.1878
 13.3159
 13.3677
 13.2613
 15.6306
 15.7235
 15.6346
 15.8207
 11.9856
 12.1435
 12.1337
 11.9981
 13.4403
 13.2805
 13.3719
 13.4674
 12.4251
 12.4655
 12.5141
 12.4439
 12.9244
 13.076
 13.0597
 12.9673
 14.3198
 14.3862
 14.3113
 14.24
 15.2634
 15.4406
 15.4004
 15.3229
 16.1213
 15.9766
 16.1018
 16.0891
 15.7846
 15.9107
 15.7742
 15.8133
 15.2934
 15.4018
 15.4211
 15.3556
 14.1548
 14.1143
 14.1133
 14.3024
 14.1773
 14.1044
 14.1295
 14.2219
 14.0604
 14.1537
 13.9766
 14.0732
 13.2865
 13.3521
 13.2355
 13.2573
 16.5635
 16.6642
 16.613
 16.6219
 13.7755
 13.7417
 13.7938
 13.6748
 15.4785
 15.582
 15.5357
 15.5123
 14.5972
 14.4535
 14.5588
 14.4816
 11.5841
 11.8041
 11.6204
 11.6851
 14.1397
 14.1952
 14.2001
 14.2491
 15.6591
 15.7157
 15.6834
 15.7927
 14.5451
 14.575
 14.4856
 14.4296
 15.2361
 15.1782
 15.183
 15.274
 14.2401
 14.3787
 14.2421
 14.3553
 16.5104
 16.5874
 16.5504
 16.4733
 14.6
 14.5898
 14.5091
 14.4931
 13.1709
 13.2029
 13.11
 13.2086
 13.3193
 13.307
 13.2607
 13.2992
 11.7346
 11.9866
 11.7905
 11.8833
 15.0288
 15.0424
 14.9403
 15.0121
 15.2629
 15.1934
 15.2798
 15.0892
 11.703
 11.8829
 11.7112
 11.7457
 15.2378
 15.2351
 15.1284
 15.2326
 12.2474
 12.2917
 12.1523
 12.3059
 13.7805
 13.617
 13.7138
 13.6369
 14.1779
 14.3374
 14.1902
 14.153
 15.3329
 15.2214
 15.234
 15.3347
 14.2501
 14.2447
 14.1051
 14.2344
 12.209
 12.2432
 12.1922
 12.1771
 17.4499
 17.4168
 17.3912
 17.508
 15.9066
 15.9295
 15.9302
 15.8966
 15.7982
 15.7763
 15.8012
 15.8724
 14.8856
 14.8358
 14.9423
 14.7931
 14.6085
 14.6978
 14.6321
 14.6844
 15.0052
 15.0679
 15.0923
 14.9984
 11.3921
 11.452
 11.2372
 11.4638
 15.3743
 15.4449
 15.4393
 15.2969
 13.3722
 13.3689
 13.3249
 13.4535
 14.0852
 12.4152
 12.5486
 12.536
 12.5673
 13.5017
 13.397
 13.3111
 13.3948
 16.0123
 15.9585
 15.937
 15.978
 14.7901
 14.8356
 14.7489
 14.6808
 15.0824
 15.19
 15.1196
 15.1144
 12.1518
 12.2907
 12.265
 12.2497
 14.4888
 14.6516
 14.5366
 14.5819
 12.0151
 11.9972
 12.1392
 12.1169
 12.9801
 12.9063
 13.0357
 12.8753
 15.9669
 15.8982
 15.9371
 15.8136
 15.3187
 15.4274
 15.2483
 15.3247
 13.2872
 13.2077
 13.1893
 13.2771
 14.2168
 14.3546
 14.2
 15.7295
 15.7759
 15.734
 15.6892
 13.1907
 13.4035
 13.2587
 13.3562
 15.1262
 15.2517
 15.2282
 15.1763
 14.2574
 14.4177
 14.3324
 14.2425
 11.8866
 11.8874
 12.0843
 11.9229
 14.904
 14.9475
 15.0124
 14.9233
 12.4594
 12.6237
 12.4973
 12.4451
 14.0567
 14.1427
 14.0637
 14.1931
 12.6749
 12.7586
 12.8689
 12.7929
 12.042
 12.0405
 11.8866
 11.9562
 14.8332
 14.85
 14.7635
 14.7718
 17.3878
 17.2639
 17.2734
 17.211
 11.182
 11.2693
 11.2751
 11.292
 13.2957
 13.3567
 13.3987
 13.3255
 15.4936
 15.5069
 15.3152
 15.4634
 14.5757
 14.4824
 14.4711
 14.5801
 16.3876
 16.3615
 16.3757
 16.452
 12.0131
 11.9295
 11.7697
 11.8934
 15.7907
 15.8584
 15.8228
 15.8098
 13.6675
 13.5581
 13.7179
 13.6361
 15.3928
 15.5853
 15.431
 15.4458
 11.0641
 11.0865
 11.078
 11.222
 11.2458
 11.2814
 11.3708
 11.462
 12.8683
 12.984
 13.0211
 12.8369
 13.5992
 13.5568
 13.5879
 13.6794
 13.5707
 15.5808
 15.5621
 15.6751
 15.6025
 15.4479
 15.4867
 15.5218
 15.4179
 13.1538
 13.0442
 13.0376
 13.0236
 15.6433
 15.5566
 15.5563
 15.6485
 15.2285
 15.2662
 15.2778
 15.1829
 12.9117
 12.8646
 12.8812
 13.0032
 14.7681
 14.6371
 14.7667
 14.642
 13.1554
 13.1452
 13.1355
 13.0446
 15.1812
 15.2053
 15.2867
 15.2009
 14.9201
 14.8529
 14.8244
 14.8147
 14.385
 14.2696
 14.424
 14.3116
 13.6392
 13.5065
 13.5759
 13.4513
 12.5649
 12.6289
 12.4371
 12.4719
 13.7544
 13.7887
 13.8519
 13.837
 13.79
 13.7235
 13.6986
 13.7216
 16.0276
 16.0297
 15.9728
 15.9395
 13.3459
 13.3365
 13.2733
 13.3203
 14.1016
 14.0785
 14.0205
 14.1014
 13.9706
 13.9868
 14.0633
 13.9989
 14.7718
 14.7453
 14.8565
 14.7823
 15.727
 15.7391
 15.6835
 15.8235
 12.792
 12.832
 12.7684
 12.721
 15.6905
 15.7646
 15.7389
 15.6176
 11.406
 11.417
 11.232
 11.3423
 12.5492
 12.6385
 12.4825
 12.5407
 12.4979
 12.4764
 12.4651
 12.5153
 12.2825
 12.3404
 12.3529
 12.2097
 12.9943
 12.9369
 13.0501
 12.9384
 16.396
 16.4517
 16.545
 13.8351
 13.9966
 13.8603
 13.8772
 12.6108
 12.6701
 12.7063
 12.6266
 14.8263
 14.9468
 14.8834
 14.8558
 15.2016
 15.1652
 15.2431
 15.1542
 12.9348
 12.9116
 12.8247
 13.0421
 14.3973
 14.4281
 14.3919
 14.2847
 15.1055
 15.0968
 15.1445
 15.1535
 11.4422
 11.2655
 13.3803
 13.3957
 13.5218
 13.5031
 14.3392
 14.3802
 14.4418
 13.7513
 13.7104
 13.7263
 13.8477
 16.1399
 16.1802
 16.0737
 16.0871
 12.4594
 12.3708
 12.369
 12.5156
 13.7957
 13.8255
 13.8941
 13.877
 14.8367
 14.9269
 14.8705
 14.7753
 13.889
 14.0037
 13.968
 13.9159
 15.6934
 15.7459
 15.6529
 15.6986
 15.9106
 15.7416
 15.8655
 15.8328
 14.3987
 14.3114
 14.2747
 14.3399
 15.6196
 15.6416
 15.6335
 15.5554
 14.246
 14.3046
 14.2812
 14.3237
 12.2835
 12.3172
 12.4581
 12.473
 15.5753
 15.5154
 15.471
 15.5385
 16.8393
 16.7544
 16.7978
 16.7527
 13.4361
 13.6527
 13.5288
 13.4728
 14.5317
 14.4531
 14.5517
 14.4554
 15.6896
 15.7057
 15.6051
 15.6254
 14.3379
 14.3938
 14.2753
 14.2951
 12.0034
 12.0456
 11.9675
 11.9915
 15.2966
 15.3048
 15.3561
 15.3089
 13.5427
 13.608
 13.605
 13.6473
 14.5983
 14.4694
 14.5536
 14.4028
 13.0376
 12.9475
 12.9549
 12.8685
 12.3597
 12.3671
 12.3002
 12.417
 15.5098
 15.4257
 15.4807
 15.3346
 14.9501
 14.8703
 14.8909
 14.9159
 13.6194
 13.6316
 13.7772
 13.6827
 15.7416
 15.7012
 15.7174
 15.6855
 17.3929
 17.4726
 17.4661
 17.4198
 13.9085
 14.0049
 14.0125
 14.0177
 17.5795
 17.6022
 17.5579
 17.5001
 17.4264
 17.3336
 17.3319
 17.3753
 16.1044
 16.0436
 16.0518
 16.1324
 13.3193
 13.4029
 13.4758
 13.5163
 13.3961
 13.29
 13.289
 13.2064
 13.2102
 13.3131
 13.236
 13.3648
 13.4936
 13.6198
 13.5944
 13.4475
 16.503
 16.5736
 16.5242
 16.5429
 15.5225
 15.5754
 15.4633
 15.504
 15.5166
 15.6443
 15.6277
 15.5974
 14.7286
 14.6096
 14.7216
 14.5978
 13.7667
 13.8364
 13.7636
 13.8148
 13.0424
 13.0543
 13.1096
 13.0074
 15.372
 15.2586
 15.2398
 15.3523
 13.2883
 14.3602
 14.28
 14.2771
 14.3455
 11.2116
 11.1811
 11.0199
 11.1197
 14.5076
 14.5064
 14.4217
 14.5001
 12.0833
 11.9271
 12.0412
 15.6032
 15.5429
 15.509
 15.622
 17.1967
 17.1149
 17.1438
 17.0927
 14.1903
 14.2071
 14.0776
 14.2701
 14.7841
 14.921
 14.8905
 14.9077
 15.6262
 15.555
 15.4968
 15.4725
 15.4419
 15.4048
 15.4954
 15.3951
 16.2126
 16.3546
 16.2694
 16.2726
 13.6501
 13.6675
 13.5844
 13.4256
 14.2465
 14.1336
 14.2732
 14.1839
 15.0629
 15.1502
 15.0658
 15.0988
 14.3829
 14.4698
 14.2559
 12.7756
 12.8472
 12.8716
 15.2737
 15.2662
 15.3936
 15.4156
 16.2533
 16.2942
 16.2917
 16.2568
 15.0923
 15.0254
 15.0296
 15.1162
 16.1331
 16.2219
 16.1149
 16.2594
 12.7693
 12.5778
 12.7188
 12.6833
 12.8742
 12.8276
 12.789
 12.7167
 15.7462
 15.7858
 15.7678
 15.7812
 16.3107
 16.4308
 16.3533
 16.3185
 13.873
 14.023
 13.9002
 13.961
 11.5885
 11.7032
 11.5219
 11.673
 16.21
 16.2114
 16.2625
 16.2033
 13.2796
 13.403
 13.4076
 13.2555
 16.9075
 16.9606
 16.8973
 16.9376
 13.0419
 12.9633
 13.0738
 12.8685
 14.6554
 14.7407
 14.6095
 14.7709
 12.7842
 12.7801
 12.6502
 12.6673
 15.6267
 15.5926
 15.5712
 15.4773
 14.8489
 14.937
 14.9224
 14.9317
 15.2037
 15.2402
 15.1363
 15.1369
 15.1458
 15.1886
 15.0689
 15.2325
 13.919
 13.8461
 13.8612
 13.9623
 14.4667
 14.5614
 14.454
 14.4606
 12.5889
 12.7021
 12.7592
 12.7061
 11.3789
 11.2637
 11.5178
 11.5343
 14.5633
 14.5752
 14.6559
 14.5856
 12.2942
 12.3376
 12.4006
 12.2088
 13.1085
 12.9415
 12.8831
 12.9605
 16.5146
 16.5658
 16.6524
 16.5341
 15.7122
 15.5415
 15.5732
 15.6272
 14.6857
 14.7615
 14.7915
 14.7456
 16.1816
 16.2496
 16.2688
 16.3139
 13.8086
 13.6853
 13.7023
 13.7562
 12.7662
 12.5511
 12.6702
 12.6408
 16.1239
 15.9939
 16.1138
 16.1256
 14.3446
 14.2538
 14.32
 14.3015
 15.1115
 15.1265
 15.1228
 15.1747
 17.3492
 17.2861
 17.2627
 17.3364
 14.885
 14.9029
 14.9067
 14.815
 14.2579
 14.1869
 14.2082
 14.1691
 13.221
 13.1127
 13.1856
 13.0781
 15.2325
 15.2085
 15.1894
 14.2379
 14.258
 14.2865
 14.2635
 14.9337
 14.9868
 14.8068
 14.9103
 13.3984
 13.5081
 13.4062
 13.4631
 13.3409
 13.2057
 13.2507
 13.2555
 12.057
 12.1525
 12.0884
 12.239
 15.4457
 15.4522
 15.3775
 15.4708
 11.6104
 11.5741
 11.5227
 11.5816
 15.2814
 15.1902
 15.2725
 15.3266
 14.2577
 14.1358
 14.1518
 14.0876
 14.1245
 14.2495
 14.1992
 14.2702
 17.4982
 17.5729
 17.5002
 17.5236
 14.976
 15.0394
 14.9663
 14.9487
 14.2873
 14.3166
 14.2105
 14.0882
 14.3831
 14.3538
 14.3304
 14.4798
 11.1825
 11.1921
 11.3249
 11.2331
 15.2866
 15.1777
 15.1152
 15.2562
 15.1529
 15.2148
 15.0964
 15.2419
 13.1125
 12.9758
 13.0794
 13.025
 15.5499
 15.5697
 15.6269
 15.6375
 15.5827
 15.6028
 15.5405
 15.6132
 13.4037
 13.5495
 13.4179
 13.5067
 13.3803
 13.3713
 13.4759
 13.3701
 14.0315
 14.0169
 13.8485
 13.9192
 15.1862
 15.2373
 13.6682
 13.7594
 13.6176
 13.7344
 15.1737
 15.1158
 15.178
 15.1467
 14.6283
 14.5147
 14.4742
 14.5079
 12.0204
 12.1016
 12.1562
 12.0102
 14.5144
 14.4811
 14.4266
 14.4047
 12.9076
 12.8219
 12.7739
 12.94
 15.3311
 15.1663
 15.224
 15.1759
 14.8027
 14.9029
 14.915
 14.8722
 14.326
 14.1295
 14.2309
 14.2193
 15.5048
 15.5932
 15.6273
 15.5612
 16.7792
 16.7352
 16.7861
 16.8298
 11.7853
 11.8157
 11.8805
 11.8281
 16.1407
 16.1435
 16.1013
 16.1747
 13.7359
 13.6914
 13.8072
 13.801
 16.7775
 16.7638
 16.7285
 16.8207
 13.7415
 13.6247
 13.6986
 13.7137
 15.2756
 15.2874
 15.3242
 15.3045
 15.3132
 15.2821
 15.3817
 15.3216
 13.9619
 13.9206
 14.0482
 13.9727
 12.5032
 12.6284
 12.517
 12.6534
 14.8334
 14.6702
 14.6964
 14.6988
 15.772
 15.8049
 15.7665
 15.7182
 12.5345
 12.3549
 12.4402
 12.3135
 15.2392
 15.2964
 15.1755
 15.1628
 14.7476
 14.6446
 14.674
 14.6097
 13.0588
 12.8228
 12.8801
 12.9543
 14.085
 13.9793
 13.9455
 13.9439
 14.4285
 14.4675
 14.4135
 14.3527
 12.0181
 11.9392
 11.8637
 11.815
 12.5208
 12.4661
 12.4814
 12.5405
 13.8688
 13.8428
 13.9917
 13.9359
 14.4482
 14.388
 14.4952
 14.2701
 14.9784
 14.9435
 14.9402
 14.8046
 15.7605
 15.7665
 15.844
 12.8889
 12.8263
 12.8331
 12.7491
 16.8223
 16.8768
 16.9631
 16.936
 13.2218
 13.3666
 13.2891
 13.3222
 15.4289
 15.5577
 15.4865
 15.4769
 15.6517
 15.7559
 15.7242
 15.7377
 12.2606
 12.387
 12.3268
 12.1565
 14.135
 14.1982
 14.0959
 14.1703
 14.3521
 14.3898
 15.1855
 14.5797
 14.4699
 14.6029
 14.5285
 16.7896
 16.7147
 13.4214
 13.3784
 13.3396
 15.918
 15.8717
 15.9908
 15.9191
 13.3144
 13.4422
 13.4032
 13.3957
 14.7336
 14.6313
 14.6615
 14.6742
 15.2209
 15.0659
 15.1572
 15.1371
 12.1505
 12.1493
 11.9851
 12.1043
 15.9041
 15.8116
 15.9121
 15.8018
 13.5765
 13.581
 13.5375
 13.4698
 11.7784
 11.7564
 11.9148
 11.917
 14.1388
 14.2613
 14.1674
 14.2431
 13.4938
 13.6733
 13.6175
 13.6182
 14.356
 14.2675
 14.3499
 14.5122
 11.1949
 11.4608
 11.2329
 11.4562
 11.4447
 11.4288
 11.5033
 11.623
 11.6953
 11.7656
 11.774
 11.6825
 14.6223
 14.7131
 14.6058
 14.6204
 13.8036
 13.9559
 13.8949
 13.8328
 14.4648
 14.4791
 14.5561
 14.4963
 14.6828
 14.7068
 14.5826
 14.7215
 13.2964
 13.265
 13.2486
 13.3854
 12.5604
 12.4265
 12.4911
 12.4026
 12.4991
 12.4488
 12.5744
 12.3845
 14.0894
 14.0317
 14.1148
 14.0408
 14.4256
 14.4183
 14.4605
 14.5115
 15.3049
 15.3597
 15.3272
 15.2155
 12.9623
 12.8583
 12.8494
 13.0006
 16.1232
 16.1125
 16.2052
 16.0968
 12.8774
 12.8104
 12.8767
 12.8915
 13.9633
 13.7772
 13.9442
 13.8181
 14.0041
 13.9799
 13.9809
 14.0863
 15.8076
 15.8154
 15.8582
 15.9361
 17.7014
 17.6401
 17.7297
 17.7186
 14.9357
 14.8327
 14.9341
 14.9129
 12.8264
 12.966
 12.9077
 12.8266
 15.6229
 15.7182
 15.6485
 15.5813
 13.7804
 13.7164
 13.8549
 13.72
 13.6624
 13.578
 13.4661
 13.5056
 13.0828
 13.0194
 13.197
 13.1467
 16.3204
 16.3669
 16.3735
 16.2987
 16.2995
 16.283
 16.3282
 16.3493
 12.7712
 12.5957
 12.6508
 12.6883
 13.2872
 13.4553
 13.4791
 13.371
 15.0164
 15.0008
 15.0593
 15.0577
 14.3204
 14.3498
 14.247
 14.1911
 14.0214
 13.9966
 14.0019
 14.0689
 15.0131
 15.0959
 14.9214
 15.0631
 13.5182
 13.5999
 13.563
 13.6508
 10.7007
 10.8809
 10.7471
 10.7204
 13.7072
 13.5564
 13.5772
 13.5031
 14.299
 14.2476
 14.3239
 14.1933
 14.2523
 14.2571
 14.3509
 14.2574
 13.9949
 13.9128
 13.9803
 14.0777
 11.6304
 11.6326
 11.7488
 11.6461
 12.618
 12.7327
 12.6646
 13.5444
 13.5373
 13.478
 13.5595
 15.758
 15.7718
 15.6789
 15.7775
 14.6466
 14.6466
 14.7294
 14.6119
 12.5363
 12.6983
 12.7525
 12.6899
 15.303
 15.2615
 15.2439
 15.2002
 14.8333
 14.904
 14.9126
 14.803
 14.6832
 14.7359
 14.853
 14.7456
 13.2964
 13.3833
 13.413
 13.3939
 13.9296
 14.0186
 13.9195
 14.1084
 13.5377
 13.7358
 13.6611
 13.6265
 15.5772
 15.5229
 15.5152
 15.5576
 14.8008
 14.7325
 14.7093
 14.8117
 13.411
 13.4953
 13.3876
 13.2831
 14.8524
 14.8084
 14.749
 14.897
 13.7095
 13.5922
 13.5969
 13.6541
 15.6239
 15.6612
 15.5986
 15.6781
 11.9324
 11.892
 12.0316
 11.9339
 15.34
 15.4036
 15.305
 15.268
 15.4274
 15.6137
 15.4979
 15.497
 13.0539
 13.0494
 12.9627
 12.9359
 15.3519
 15.3311
 15.3105
 15.319
 13.6861
 13.7445
 13.6901
 13.8058
 15.8528
 15.8468
 15.9619
 15.9413
 13.9976
 14.0566
 14.0353
 13.9216
 12.1054
 11.8934
 12.0648
 11.9521
 13.922
 14.0768
 14.0754
 14.0012
 13.151
 13.1003
 13.1421
 13.1583
 13.6865
 13.7282
 13.6906
 13.6369
 13.7062
 13.673
 13.6338
 13.5506
 11.7215
 11.6924
 11.6448
 11.8497
 15.5136
 15.5759
 15.6286
 15.637
 15.3879
 15.4321
 15.5213
 15.4377
 12.3528
 12.3351
 12.4208
 12.2365
 12.1631
 12.0913
 12.1689
 15.0875
 15.1325
 15.1366
 15.0608
 13.6949
 13.564
 13.6747
 13.6943
 13.7768
 13.7403
 13.8574
 13.7249
 15.4248
 15.3408
 15.4805
 15.4092
 13.0856
 13.0025
 13.031
 13.0017
 14.392
 14.5057
 14.4965
 14.3711
 13.9613
 14.0845
 14.0656
 14.1068
 12.9836
 12.8923
 12.8685
 12.8971
 15.8413
 15.8823
 15.8333
 15.7834
 15.0502
 15.1682
 15.1465
 15.1368
 11.6314
 11.8339
 11.6768
 11.7296
 15.5136
 15.5298
 15.4964
 15.3557
 15.8401
 15.887
 15.8659
 15.8555
 14.3684
 14.3202
 14.3756
 14.2286
 16.7948
 16.7653
 16.8226
 16.7087
 14.122
 14.1004
 14.1567
 14.1112
 12.8864
 12.9491
 12.9826
 13.0033
 12.5031
 12.5827
 12.5479
 15.9194
 15.9064
 15.8808
 15.9141
 15.2986
 15.185
 15.3185
 15.2095
 15.4233
 15.4584
 15.4947
 15.5329
 15.1434
 15.2208
 15.1714
 15.2
 11.5183
 11.4256
 11.3738
 11.4079
 15.7678
 15.7601
 15.7932
 15.8541
 15.2034
 15.2837
 15.218
 15.1102
 12.6115
 12.547
 12.6219
 12.6754
 14.8341
 14.8767
 14.8043
 15.1069
 15.2183
 15.1374
 13.8623
 13.9763
 14.0595
 16.608
 16.5102
 16.4936
 16.5734
 14.1029
 14.0453
 14.0963
 14.0026
 14.1289
 14.0759
 14.2324
 14.1945
 12.306
 12.2314
 12.3653
 12.391
 11.9944
 12.0488
 11.8105
 12.0286
 15.5032
 15.581
 15.5919
 15.4353
 13.8554
 13.7276
 13.7307
 13.7507
 13.8266
 13.7398
 13.6896
 13.7274
 14.3568
 14.2226
 14.2818
 14.1878
 14.8894
 14.8364
 14.8299
 14.9588
 13.8842
 13.989
 13.9311
 13.8675
 15.5503
 15.5269
 15.5727
 15.4985
 12.2316
 12.2804
 12.2228
 12.1876
 15.1668
 15.1834
 15.132
 15.0851
 12.4967
 12.6155
 12.548
 12.508
 11.8772
 11.9612
 12.0317
 11.9011
 12.0895
 12.1346
 12.1311
 12.1648
 15.3267
 15.3979
 13.2523
 13.2718
 13.3565
 13.3003
 15.4528
 15.3229
 15.3905
 15.4298
 12.9196
 12.7117
 12.7864
 12.7416
 12.4632
 12.5856
 12.4209
 12.5704
 14.9619
 14.8986
 14.8805
 14.9354
 13.9549
 13.9631
 13.8611
 13.9151
 15.1606
 15.1507
 15.0793
 15.149
 14.5753
 14.5732
 14.5577
 14.4648
 17.2439
 17.1146
 17.2663
 17.1515
 12.1379
 12.2083
 12.0348
 12.1684
 15.0944
 15.1925
 15.0733
 15.0368
 15.9106
 15.9847
 15.9806
 15.8801
 14.4587
 14.5023
 14.4016
 14.3588
 15.8171
 15.9453
 15.9699
 15.8204
 14.5526
 14.6728
 14.6946
 14.6074
 13.2005
 13.2425
 13.1033
 13.2824
 14.2813
 14.3549
 14.3558
 14.3098
 12.2974
 12.0947
 12.2965
 14.4422
 14.336
 14.4903
 14.3642
 17.2902
 17.3297
 17.3267
 17.3648
 11.3804
 11.3311
 11.2836
 11.388
 14.0619
 14.0718
 14.0068
 14.089
 12.9339
 13.0181
 13.1112
 12.9879
 15.5597
 15.4706
 15.6865
 15.5916
 14.8935
 14.8143
 14.9814
 14.8888
 14.902
 14.7532
 14.8282
 14.7581
 12.0633
 12.1554
 12.0441
 11.9641
 14.7864
 14.8702
 14.9274
 14.8981
 11.4271
 11.4735
 11.389
 11.5472
 13.2866
 13.4148
 13.4187
 13.2752
 15.5145
 15.4916
 15.4526
 15.5059
 16.8399
 16.8174
 16.7446
 16.8681
 14.5464
 14.6946
 14.6063
 14.7208
 14.2316
 14.2349
 14.139
 14.2561
 13.0808
 13.0908
 13.1526
 13.2604
 17.1747
 17.2478
 17.1356
 17.1956
 14.5358
 14.6177
 14.4786
 14.5165
 11.6972
 11.7795
 11.8062
 11.7737
 12.7387
 12.6283
 12.6719
 12.7131
 12.6637
 12.6885
 12.5701
 12.7219
 12.6844
 12.7866
 12.8153
 12.7647
 12.6437
 12.4849
 12.583
 12.5928
 13.7273
 13.68
 13.7325
 13.7348
 15.3967
 15.2293
 15.1238
 15.101
 15.1748
 13.4236
 13.5676
 13.5175
 13.516
 13.4505
 13.4164
 13.5648
 13.5493
 16.2634
 16.2139
 16.2213
 16.2628
 12.3842
 12.3871
 12.4475
 12.389
 12.942
 12.842
 12.728
 12.8098
 15.5338
 15.3878
 15.4155
 15.2505
 15.2527
 15.274
 15.2176
 15.1515
 15.1739
 15.1092
 15.3333
 15.4471
 15.5873
 15.5062
 13.4443
 13.3192
 13.3516
 13.4757
 11.6744
 11.6389
 11.7056
 11.6392
 14.2561
 14.3045
 14.2268
 14.3612
 11.9457
 12.1541
 12.2068
 12.2259
 14.5144
 14.5422
 14.5845
 14.4715
 13.3974
 13.5058
 13.5729
 13.5551
 15.4152
 15.4319
 15.4539
 15.5291
 13.9188
 13.7845
 13.963
 13.8544
 13.7023
 13.5754
 13.508
 13.6935
 15.3499
 15.3954
 15.4847
 15.4392
 14.8265
 14.8926
 14.6946
 14.7591
 14.4579
 14.4725
 14.5543
 14.6144
 13.8195
 13.7728
 13.8188
 13.7597
 16.0342
 16.0284
 15.9934
 15.9213
 13.5261
 13.6475
 13.5836
 13.5003
 14.8114
 14.9387
 14.7908
 14.739
 13.2654
 13.288
 13.2668
 13.3471
 12.2576
 12.3734
 12.2804
 12.3331
 11.9645
 12.0519
 12.0417
 12.0052
 11.9615
 11.8793
 12.0993
 11.3986
 11.3096
 11.2515
 11.1888
 12.6311
 12.7667
 12.8903
 12.7234
 14.2606
 14.2844
 14.2059
 14.223
 11.8452
 11.9249
 12.0029
 11.8668
 14.1326
 14.1279
 14.1921
 14.2063
 13.748
 13.6871
 13.719
 12.2315
 12.1082
 12.1802
 12.1903
 12.2494
 12.3838
 12.3282
 13.8812
 13.9101
 13.8213
 13.7928
 14.8722
 14.8239
 14.8882
 14.7514
 13.3461
 13.4386
 13.4704
 13.4877
 12.0289
 11.9389
 12.0079
 12.0607
 15.1786
 15.212
 15.1696
 15.2625
 14.3343
 14.3722
 14.445
 14.4772
 14.1534
 13.9935
 14.1504
 14.1494
 13.1736
 13.2889
 13.2116
 13.2057
 15.2439
 15.3134
 15.1737
 15.2934
 15.5937
 15.6732
 15.5856
 15.5928
 14.251
 14.2519
 14.2679
 14.1666
 11.4672
 11.5455
 11.5593
 11.5385
 15.1016
 15.2166
 15.0869
 15.158
 15.4933
 15.414
 15.5272
 15.4164
 13.5677
 13.7149
 13.5635
 13.5887
 15.1317
 15.0801
 15.1409
 15.588
 15.5022
 15.5403
 13.7947
 13.8855
 13.7077
 13.8438
 15.4382
 15.4824
 15.5507
 15.4447
 15.5063
 15.6165
 15.524
 15.5306
 13.5081
 13.4774
 13.5357
 15.3182
 15.3326
 12.3944
 12.3631
 12.1945
 12.1725
 13.3436
 13.1771
 13.1836
 13.2331
 16.0714
 16.0025
 16.1306
 15.974
 16.6272
 16.5852
 16.6944
 16.5959
 15.0649
 15.2456
 15.1399
 15.1252
 12.2136
 12.2154
 12.1423
 12.1964
 13.33
 13.4125
 13.465
 13.4186
 15.8842
 15.9071
 15.9138
 15.9278
 15.1414
 15.1362
 15.0794
 15.0206
 15.1103
 15.0806
 15.1039
 15.3721
 15.3021
 15.2909
 15.2943
 15.3066
 15.3806
 15.2906
 15.2586
 15.5553
 15.6689
 15.5813
 15.6486
 11.9035
 11.7722
 11.8754
 11.8622
 11.8786
 11.7617
 11.9576
 14.3117
 14.386
 14.2963
 14.4154
 15.1664
 15.2945
 15.1479
 15.1816
 11.3902
 11.2825
 15.5792
 15.6501
 15.6305
 15.6909
 13.9496
 13.7669
 13.8843
 13.7949
 13.6228
 13.667
 15.4475
 15.4678
 15.3727
 15.4411
 11.8456
 11.746
 11.8963
 11.6612
 11.5187
 11.6212
 11.5367
 11.3346
 14.4969
 14.451
 14.4861
 16.2329
 16.1546
 16.1887
 15.259
 15.1326
 15.2689
 15.2403
 12.9311
 13.0475
 12.85
 13.0253
 14.8974
 14.9659
 14.9992
 15.0564
 15.0592
 15.1142
 15.0215
 15.1304
 13.4023
 13.3975
 13.3576
 13.2186
 17.0982
 17.0273
 17.1055
 17.1749
 13.1144
 13.0955
 12.9842
 13.0005
 13.0447
 13.0586
 12.9587
 12.9207
 15.6054
 15.5974
 15.7351
 15.6345
 12.2872
 12.2019
 12.1868
 12.315
 17.2599
 17.3534
 17.3576
 17.4226
 11.9207
 12.1557
 12.1529
 12.1516
 12.5406
 12.6614
 15.0495
 14.9787
 14.994
 14.9236
 15.7092
 15.8078
 15.7485
 15.6745
 12.3735
 12.2569
 12.2729
 12.3278
 14.9403
 14.9184
 14.9255
 14.9885
 11.4199
 11.5018
 11.4489
 15.2097
 15.2974
 15.3276
 15.8351
 15.7213
 15.6943
 12.0173
 11.942
 11.9844
 12.0358
 15.1949
 15.2573
 15.2619
 15.2489
 12.3134
 12.3006
 15.88
 15.8054
 15.8803
 15.8553
 14.1903
 14.0735
 14.0822
 14.1633
 15.0788
 15.1202
 14.6825
 14.4858
 14.5024
 14.6132
 14.996
 15.0098
 15.0006
 15.1063
 11.5134
 11.3969
 11.5905
 11.5391
 15.7746
 15.8221
 15.8004
 12.6901
 17.2113
 17.2442
 17.2347
 17.2676
 12.3291
 12.2919
 12.2281
 12.435
 15.0486
 15.0373
 14.865
 14.9135
 13.0547
 13.12
 13.1003
 13.0705
 15.0198
 15.0946
 15.1385
 15.0472
 13.4559
 16.2516
 16.2793
 16.28
 16.2395
 13.4164
 13.4224
 13.4491
 13.5392
 12.6031
 12.5504
 12.477
 12.7026
 12.6604
 12.797
 12.649
 12.2925
 12.1412
 12.2536
 12.226
 15.549
 15.5164
 15.4018
 15.4625
 12.2434
 12.2419
 12.2628
 12.1441
 15.884
 15.9014
 15.8833
 15.9826
 12.364
 12.2889
 12.2481
 12.2444
 14.3688
 14.4283
 14.4421
 14.4675
 13.1166
 13.047
 13.0067
 12.9789
 13.8808
 13.9368
 13.9706
 14.0017
 11.8346
 12.0121
 14.1052
 14.2041
 14.1806
 14.1071
 16.1518
 16.1932
 16.0766
 16.1896
 15.8536
 15.8929
 15.7616
 15.8744
 13.8949
 13.8041
 13.7839
 13.7775
 13.0409
 13.0489
 13.0604
 12.9151
 12.7893
 12.9056
 12.8303
 12.761
 12.1399
 12.277
 12.2395
 12.3306
 12.8041
 12.646
 12.7342
 12.7991
 15.826
 15.8402
 15.7758
 15.9008
 15.4596
 15.4716
 15.4904
 15.3514
 11.286
 11.3974
 11.442
 11.4271
 13.7502
 13.6861
 13.7233
 13.5553
 15.323
 15.1975
 15.3088
 15.2469
 16.8736
 16.8848
 16.7861
 16.9333
 12.2813
 12.2239
 12.3352
 12.1039
 15.2893
 15.2588
 15.2345
 15.1712
 14.5996
 14.5115
 14.659
 14.5779
 15.986
 16.0101
 15.9937
 15.9186
 13.549
 13.6159
 13.5647
 13.5589
 12.0256
 12.0151
 12.0686
 12.0282
 13.7196
 13.8894
 13.8268
 13.8547
 14.4983
 14.4582
 14.369
 14.4259
 16.0824
 16.0317
 15.986
 16.1198
 11.985
 13.2539
 13.1698
 13.3077
 13.1664
 14.5672
 14.6201
 14.7101
 14.6572
 12.9464
 12.8792
 12.9021
 12.7919
 15.2846
 15.3838
 15.3259
 15.2646
 13.6175
 13.5346
 13.6629
 16.136
 15.9969
 16.1004
 16.0986
 12.575
 12.7957
 12.6642
 12.7289
 15.7375
 15.7571
 15.6828
 15.7393
 10.8741
 10.9329
 10.8893
 10.798
 15.3135
 15.2995
 15.281
 15.3016
 16.6774
 16.481
 16.5038
 16.5782
 16.166
 16.1774
 16.103
 16.0955
 11.3356
 11.4232
 11.4622
 11.5134
 11.8285
 11.838
 11.7703
 11.7533
 14.3118
 14.2172
 14.257
 14.1988
 15.1773
 15.216
 15.152
 13.9953
 14.0111
 14.1527
 14.103
 13.31
 13.3739
 13.2299
 13.2407
 13.9115
 13.7025
 13.7732
 13.7997
 14.1337
 14.1115
 13.924
 14.0128
 11.2835
 11.3839
 11.3834
 11.4356
 15.5259
 15.5693
 15.4193
 15.5241
 16.1278
 16.276
 16.2617
 13.0206
 13.0902
 13.08
 13.1492
 12.4593
 12.3438
 12.413
 12.4364
 15.2801
 15.2909
 15.26
 15.4846
 15.4652
 15.4051
 15.555
 12.1383
 12.2153
 12.0846
 12.2758
 14.3561
 14.3849
 14.2738
 14.3509
 15.4056
 15.5139
 15.4263
 15.4328
 14.6112
 14.6701
 14.6609
 14.5855
 12.5988
 12.5896
 12.7016
 12.5915
 15.2687
 15.1358
 15.3292
 15.1803
 14.4925
 14.66
 14.6271
 14.5481
 15.0125
 14.8869
 14.9757
 11.8822
 11.9078
 11.9854
 12.0034
 14.2373
 14.237
 14.3049
 14.1797
 11.2372
 11.3039
 11.0487
 14.0938
 14.023
 14.0624
 14.0928
 16.0164
 15.9441
 16.0637
 16.0218
 13.7617
 13.7373
 13.6793
 13.5785
 14.1593
 14.0125
 14.1975
 15.2424
 15.2216
 15.1251
 15.1629
 15.7892
 15.7572
 15.8219
 15.7305
 15.3029
 15.2383
 15.1771
 15.3075
 16.7321
 16.7029
 16.6219
 16.6085
 14.7399
 14.7629
 14.8085
 14.8227
 15.0408
 15.0859
 14.9465
 15.109
 11.976
 12.1658
 12.1272
 11.9152
 15.7334
 15.6083
 15.6484
 15.6785
 13.4735
 13.5155
 13.4448
 13.3903
 11.468
 11.4372
 11.515
 11.5835
 11.4431
 11.6309
 11.5456
 11.5051
 12.7158
 12.6416
 12.7055
 12.6892
 11.4413
 11.2644
 11.2825
 11.524
 12.032
 12.0255
 12.0425
 11.1957
 11.4099
 11.3538
 11.3538
 16.0344
 16.0822
 16.0371
 16.1155
 14.5831
 14.7155
 14.7348
 14.6945
 14.9415
 14.8237
 14.9154
 14.82
 14.8765
 14.9425
 14.937
 14.9674
 11.899
 11.9867
 11.8774
 11.8508
 14.7033
 14.6987
 14.7969
 14.8179
 15.2633
 15.3775
 15.3929
 15.2953
 13.1475
 13.18
 13.0616
 13.223
 15.1262
 15.0377
 15.13
 15.0415
 12.9858
 13.0795
 13.1305
 14.0072
 13.8913
 13.8612
 12.1437
 12.2854
 12.2894
 12.2356
 14.6024
 14.56
 14.6407
 14.6404
 13.4561
 13.5597
 13.5226
 13.4282
 14.9084
 15.0358
 14.9814
 14.8733
 11.2208
 11.3035
 11.6723
 11.7222
 11.7717
 11.6046
 16.0933
 16.1315
 16.1293
 16.1917
 13.4583
 13.3698
 13.3437
 13.2575
 15.2323
 15.1311
 15.2336
 15.2835
 17.5479
 17.6755
 17.5542
 17.5935
 15.2714
 15.3195
 15.382
 15.3093
 13.0921
 13.2074
 13.0969
 15.7801
 15.7938
 15.6643
 15.6754
 11.5396
 11.6764
 11.5157
 11.641
 15.2536
 15.2085
 15.2415
 15.1926
 13.5807
 13.4659
 13.5032
 13.5699
 15.9319
 15.9083
 16.0024
 15.9317
 17.0138
 16.9952
 16.9775
 16.9343
 15.4119
 15.3303
 15.4121
 15.4411
 14.7242
 14.7675
 14.6866
 13.8616
 14.0446
 13.8674
 13.9436
 15.5739
 15.5584
 15.6483
 12.8982
 12.9513
 12.8669
 12.7907
 12.7131
 12.5449
 12.7259
 12.5814
 13.135
 13.2753
 13.17
 13.1446
 11.6995
 11.9856
 11.8924
 11.8456
 12.7547
 12.816
 12.7239
 14.9961
 14.9219
 14.9424
 14.8877
 12.9033
 13.0142
 13.341
 13.4452
 13.4844
 13.4027
 13.1398
 13.184
 13.156
 13.0901
 15.3373
 15.2932
 15.3152
 15.4009
 15.3342
 15.2558
 15.3275
 15.2466
 17.567
 17.5087
 17.4867
 17.5271
 15.3361
 15.2482
 15.3358
 14.9207
 14.9608
 14.9876
 14.9507
 14.1235
 14.1235
 14.1841
 14.2071
 14.9378
 14.839
 14.8305
 14.9023
 16.0346
 15.9803
 16.0517
 16.0482
 12.5513
 12.7263
 12.6001
 12.6739
 14.3496
 14.2693
 14.3429
 14.4213
 12.0865
 12.0895
 12.1286
 12.0402
 13.8844
 13.9783
 13.89
 13.9589
 11.8023
 11.7281
 11.7849
 16.9249
 16.8438
 16.8691
 16.8651
 13.1702
 12.9853
 13.1271
 13.1086
 14.4488
 14.5397
 14.4283
 14.4789
 15.4929
 15.5626
 14.9078
 14.8822
 14.8282
 14.8512
 14.5567
 14.6814
 14.6598
 12.0846
 12.0409
 12.1633
 12.0762
 11.947
 12.0206
 12.1201
 12.078
 15.5519
 15.5756
 15.5157
 15.5662
 14.4165
 14.4438
 15.1451
 15.0454
 15.1117
 15.1967
 12.8139
 12.9196
 12.7214
 12.7109
 15.9968
 15.9716
 16.009
 15.9418
 15.4146
 15.3874
 15.4689
 15.4783
 15.1908
 15.0805
 15.0308
 15.0864
 14.0034
 14.0152
 14.0253
 13.8614
 13.0358
 13.0474
 13.1202
 13.1338
 12.7843
 12.8483
 12.9435
 12.8386
 17.2727
 17.2879
 17.3236
 17.3527
 15.7589
 15.6642
 15.6243
 13.8061
 14.0041
 13.8866
 13.7107
 13.6232
 13.7296
 13.5875
 12.0032
 11.9042
 11.9787
 11.8633
 14.2938
 15.2327
 15.2317
 15.3306
 15.3183
 13.3576
 13.4215
 13.5195
 13.4737
 12.6344
 12.7733
 12.7666
 12.6156
 12.555
 12.5427
 15.5579
 15.6023
 15.6454
 15.6583
 14.0823
 13.9893
 14.0211
 13.9792
 15.8553
 15.8876
 15.8589
 15.8174
 13.6448
 14.7584
 14.8203
 14.6587
 14.621
 14.9676
 14.8986
 14.8548
 14.9228
 12.002
 12.1357
 11.7607
 11.6615
 11.5915
 11.7005
 16.437
 16.5172
 16.4688
 16.4377
 12.7771
 12.7625
 12.9113
 12.7194
 13.718
 13.849
 13.7846
 13.6613
 17.1337
 17.1065
 17.1086
 17.17
 14.16
 14.1575
 14.1026
 14.2125
 14.2528
 14.3729
 14.442
 14.4397
 15.522
 15.6151
 15.479
 15.5237
 11.3804
 11.2454
 11.2351
 11.2094
 14.354
 14.4676
 14.4572
 15.0205
 14.92
 14.9148
 15.0103
 11.675
 11.5036
 11.6332
 11.6103
 15.0627
 15.1247
 15.2048
 15.0453
 14.4813
 14.4058
 12.5153
 12.5227
 12.4214
 12.6243
 13.8475
 13.8283
 13.6956
 13.6959
 11.7102
 11.784
 11.6289
 11.7133
 14.4214
 14.2523
 15.3869
 15.3517
 15.3276
 15.332
 15.0972
 15.0773
 15.0068
 14.974
 12.3885
 12.3647
 12.5166
 12.4621
 12.7746
 12.8372
 12.7253
 12.7342
 12.8399
 12.9735
 12.8539
 12.8655
 15.0901
 14.9631
 15.0144
 15.0786
 16.5066
 16.5685
 16.542
 16.5114
 11.428
 11.2867
 11.4144
 11.3489
 15.583
 15.5776
 15.565
 15.5128
 13.9308
 13.8374
 13.8248
 13.9043
 14.8499
 14.6932
 14.8024
 14.7452
 13.9355
 14.0679
 13.9452
 13.4776
 13.3415
 13.4701
 13.3043
 14.2455
 14.1683
 14.2214
 14.3124
 13.0795
 13.0283
 12.9412
 13.106
 13.0681
 13.1154
 13.0629
 13.2531
 17.1108
 16.9885
 17.1044
 15.8923
 15.7991
 15.7439
 15.7826
 13.8974
 13.9739
 13.9421
 13.9508
 12.5554
 12.4171
 12.4914
 12.4144
 15.2033
 15.3307
 15.2055
 15.169
 15.1053
 15.0959
 13.6734
 13.7394
 13.663
 13.6573
 13.9888
 13.8806
 13.8509
 13.834
 10.6596
 10.6953
 10.7702
 10.6144
 16.1404
 16.1019
 16.1669
 16.2764
 12.9541
 12.9318
 14.7189
 14.617
 14.6028
 14.7108
 13.1893
 13.1226
 13.1345
 13.1039
 13.732
 13.7116
 13.6366
 13.6725
 14.6192
 14.6109
 14.5143
 14.6855
 13.381
 13.2731
 13.3006
 13.2856
 15.5466
 15.503
 15.517
 15.4409
 15.8192
 15.9081
 15.8063
 15.8554
 12.5255
 12.4729
 12.3902
 12.2124
 13.9622
 13.908
 13.8203
 16.6135
 16.6584
 16.5817
 12.3347
 12.2656
 12.2457
 12.1992
 12.1981
 12.2403
 12.2964
 12.3047
 14.1951
 14.1715
 14.1502
 14.0852
 11.9954
 11.914
 11.9456
 11.933
 11.6281
 11.4651
 11.6074
 11.4498
 14.5638
 14.5144
 14.4311
 14.5405
 12.6171
 12.557
 12.5107
 12.5226
 10.7527
 10.7068
 10.8407
 10.6814
 12.8643
 12.8486
 12.9221
 12.7445
 13.8604
 14.0194
 13.9502
 14.0584
 12.4206
 12.3474
 12.4433
 12.4758
 13.1881
 13.2145
 13.1341
 13.5463
 13.4468
 16.2882
 16.2775
 16.3093
 16.342
 13.5803
 13.4694
 13.4959
 13.5187
 16.4589
 16.4374
 16.421
 16.4172
 16.3442
 16.361
 16.2663
 16.2325
 13.7551
 13.703
 13.6924
 13.792
 14.7478
 14.7484
 14.8373
 14.7026
 13.3713
 13.2496
 13.2808
 13.2956
 14.1199
 14.1986
 15.948
 15.9999
 15.9759
 15.895
 11.5457
 11.4984
 11.4339
 11.5391
 14.6845
 14.7655
 14.601
 14.6694
 12.2814
 12.3258
 12.4228
 12.3439
 15.9257
 16.001
 15.925
 15.9614
 12.1193
 11.9192
 11.9818
 11.9499
 13.5444
 13.6954
 13.577
 13.5949
 15.1648
 15.2642
 15.338
 15.2809
 10.9937
 11.0601
 11.0442
 11.142
 15.0023
 14.8816
 14.9745
 15.0041
 14.5129
 14.6678
 14.5638
 14.6214
 11.5252
 11.5014
 11.6209
 11.4942
 14.193
 14.3501
 14.3071
 14.3117
 12.4494
 12.3544
 12.4109
 12.4611
 12.4617
 12.5491
 12.5111
 14.4861
 14.6731
 14.587
 14.626
 12.5412
 12.4268
 12.5024
 12.4642
 15.6344
 15.526
 15.537
 15.6401
 12.2398
 12.1589
 12.1683
 12.2263
 12.2951
 12.3393
 12.2656
 12.3193
 15.42
 15.442
 15.2587
 15.3552
 15.3595
 15.3998
 15.301
 15.4428
 17.8834
 17.8594
 17.933
 17.9144
 12.7502
 12.8894
 12.8707
 16.2801
 16.1528
 16.155
 16.2078
 11.7758
 11.8796
 11.8545
 11.83
 15.4475
 12.3398
 12.4645
 12.4211
 12.3267
 12.3377
 12.4331
 12.442
 17.2467
 17.346
 17.3197
 17.2742
 17.3678
 17.3749
 17.388
 17.4146
 11.7643
 11.8724
 11.773
 11.6938
 15.3413
 15.3869
 15.2903
 15.4043
 13.2239
 13.2852
 13.1499
 14.8859
 14.9738
 14.8929
 15.034
 14.4879
 14.481
 14.5279
 12.3094
 12.363
 12.1794
 13.7346
 13.6579
 13.6374
 13.7145
 14.858
 14.964
 14.9723
 14.8939
 15.4613
 15.4287
 15.4797
 15.4381
 13.2522
 13.1788
 13.1663
 15.9554
 15.9095
 16.0425
 16.0461
 15.3699
 15.1804
 15.3012
 14.5706
 14.4028
 14.4312
 14.511
 15.4419
 15.3447
 15.3535
 15.3886
 15.4177
 15.2883
 15.2654
 15.2968
 12.2254
 12.3071
 12.3003
 12.3202
 14.3893
 14.4842
 14.4079
 14.3566
 15.0012
 15.0291
 13.8558
 13.9354
 13.8806
 13.9909
 11.8337
 11.922
 11.8698
 11.9072
 11.9273
 17.9832
 18.01
 18.0228
 17.9846
 12.6516
 12.5239
 12.5923
 11.3937
 11.437
 11.4926
 11.4223
 12.9199
 13.0848
 13.0577
 13.0773
 15.4843
 15.445
 15.3919
 15.4913
 14.4724
 14.5473
 14.5838
 14.5582
 11.2882
 11.3001
 11.3425
 11.363
 12.7374
 12.8263
 12.903
 12.8136
 16.0094
 16.0843
 16.0907
 15.9689
 14.6226
 14.5919
 14.5692
 14.7324
 14.7888
 14.7383
 14.6774
 14.7623
 18.0038
 18.0186
 18.0175
 17.9973
 15.6441
 15.6639
 15.6963
 15.6012
 12.7673
 12.6222
 12.7796
 12.6998
 13.6265
 13.6366
 13.5319
 13.672
 14.3143
 14.2392
 14.1526
 14.2902
 13.1025
 12.9847
 13.0224
 13.027
 13.5402
 13.5462
 13.444
 13.5557
 12.9901
 12.987
 13.0782
 12.8561
 10.9508
 11.1691
 11.1007
 10.8896
 12.5982
 12.6558
 12.685
 12.8461
 13.0421
 13.112
 13.1998
 13.0798
 13.2547
 13.9118
 13.9132
 13.9863
 13.8088
 11.8273
 11.8794
 11.9039
 11.8976
 14.4178
 14.478
 14.3733
 14.413
 13.7247
 13.6753
 13.616
 13.7906
 14.0802
 14.1956
 14.1189
 14.0275
 14.8055
 14.9535
 14.8433
 14.939
 16.8186
 16.7757
 16.674
 16.833
 10.7776
 10.9792
 13.3964
 13.461
 13.4728
 17.6594
 17.6597
 17.6682
 15.2011
 15.2726
 15.2259
 15.3101
 16.3108
 16.3025
 16.4302
 16.4331
 15.6371
 15.6859
 15.6142
 15.7388
 11.6416
 11.8124
 11.7412
 11.7182
 13.9546
 14.0914
 14.0328
 14.1104
 13.1612
 13.0337
 13.0371
 12.9281
 13.5627
 13.6063
 13.6758
 13.7603
 13.0381
 12.9837
 13.0854
 13.0503
 14.2909
 14.2853
 12.3886
 12.6462
 12.4149
 12.6318
 12.8962
 12.9722
 13.0293
 12.8045
 15.2285
 15.3487
 15.2123
 15.3317
 15.2861
 15.2583
 15.2611
 15.2471
 13.8199
 13.8016
 13.8485
 13.7733
 13.8345
 13.7638
 13.6921
 13.6112
 15.6753
 15.803
 15.8399
 15.6427
 12.9834
 13.074
 13.1159
 13.1281
 11.058
 11.1306
 11.0657
 11.1217
 12.3038
 12.3715
 12.3668
 12.4234
 10.9386
 10.8706
 11.0013
 10.8355
 12.1721
 12.0397
 12.0736
 12.0675
 13.9885
 13.8437
 13.9664
 13.9316
 13.1844
 13.2587
 14.235
 14.0997
 14.2702
 14.1974
 15.2968
 15.2003
 15.2155
 15.178
 12.7296
 12.5576
 12.5531
 12.6699
 14.275
 14.3007
 14.2709
 14.3937
 14.5411
 14.6248
 14.654
 14.6056
 15.4439
 15.4428
 15.3946
 15.3073
 15.0649
 15.0653
 15.1249
 14.9697
 15.3558
 15.2874
 15.2773
 15.3222
 16.7616
 16.7487
 16.813
 16.7883
 12.8224
 12.7796
 12.9047
 12.8032
 13.2785
 13.2484
 16.5301
 16.5132
 16.5214
 16.6118
 14.9176
 14.8781
 13.3795
 13.473
 13.3624
 12.434
 12.3978
 15.645
 15.6613
 15.7107
 15.5885
 16.6386
 16.5879
 16.591
 16.5657
 15.7794
 15.7229
 15.6667
 15.6477
 14.9367
 14.8535
 14.8299
 14.8145
 13.5711
 13.7092
 13.7146
 13.7046
 13.1281
 13.1781
 13.1954
 13.2148
 14.9809
 14.8872
 14.8742
 14.9006
 13.7777
 13.7847
 13.7327
 13.8989
 13.9891
 14.0663
 14.0919
 14.0339
 13.9083
 13.8281
 13.7756
 13.8267
 13.7817
 13.9523
 13.7805
 14.2372
 14.3222
 14.1518
 14.224
 14.7163
 14.6689
 14.7984
 14.7264
 15.3598
 15.2774
 15.414
 15.2802
 11.7823
 11.8229
 11.7456
 11.6669
 14.4036
 14.4036
 14.2881
 14.3
 15.8202
 15.8188
 15.9698
 15.8531
 16.0152
 15.9968
 16.0316
 16.0592
 15.7878
 15.8594
 15.854
 15.8082
 15.3672
 15.3764
 15.263
 15.2412
 15.4071
 15.469
 15.4962
 15.4514
 12.1037
 12.0297
 12.0217
 11.9881
 14.4879
 14.4903
 14.5122
 14.4054
 12.9434
 12.831
 12.929
 12.9845
 15.3426
 15.2205
 15.3662
 15.2777
 11.6645
 11.619
 11.6279
 11.5299
 11.4803
 11.5087
 11.3639
 12.9406
 13.1674
 13.0934
 13.0835
 15.1951
 15.1432
 15.2521
 15.165
 11.1457
 11.3286
 11.291
 14.6386
 14.7235
 14.6578
 14.7949
 12.1945
 12.1733
 12.4461
 12.4055
 12.3027
 12.4446
 14.8092
 14.8736
 14.8312
 15.8338
 15.7968
 15.9066
 15.8713
 15.3232
 15.3711
 15.2708
 15.2693
 14.0598
 13.936
 14.0958
 11.4996
 11.7281
 11.7079
 12.9737
 13.1182
 13.1561
 13.0779
 11.4972
 11.544
 11.6956
 11.3921
 14.5765
 14.4605
 14.4062
 14.4743
 12.0176
 11.9927
 11.9319
 12.111
 13.9568
 13.9297
 14.0079
 14.0651
 15.0877
 15.1918
 15.1392
 11.2602
 11.3767
 11.3115
 11.1327
 13.3301
 13.7083
 13.5715
 13.6236
 13.6847
 13.4613
 13.4463
 13.5358
 15.14
 15.2044
 15.1893
 15.1932
 15.1969
 15.0667
 14.5283
 14.6368
 14.6378
 14.6545
 14.4939
 14.3643
 14.4623
 14.3852
 13.0542
 11.1235
 11.3221
 11.3503
 11.2215
 17.0308
 17.1268
 17.0803
 17.0906
 14.9612
 15.0202
 15.1851
 15.2192
 15.1669
 15.1415
 15.2112
 15.2011
 15.3376
 15.2872
 12.888
 13.0372
 13.0248
 12.9468
 12.7968
 12.7454
 12.8888
 12.7743
 14.9485
 15.0382
 13.1666
 13.1438
 12.995
 13.0922
 13.1318
 13.0004
 13.1203
 13.7197
 13.8061
 13.8679
 13.9041
 14.3648
 14.4644
 14.3699
 14.4731
 12.8849
 12.7151
 12.7368
 12.8712
 12.487
 12.4621
 12.3745
 12.5031
 12.6319
 12.505
 12.5981
 12.833
 12.7981
 12.813
 12.9131
 14.5495
 14.5204
 14.5031
 14.5916
 16.2806
 16.3105
 16.2481
 16.2369
 14.8069
 14.8185
 14.8728
 14.8459
 12.466
 12.5915
 12.6763
 12.5646
 13.1977
 13.2573
 13.2618
 13.1625
 14.7713
 14.7142
 14.6712
 14.6639
 13.2422
 13.3615
 13.281
 13.2477
 13.8322
 13.7925
 13.9498
 13.7822
 13.8575
 13.7461
 13.7896
 13.7449
 13.2974
 13.2104
 13.2254
 11.9792
 11.937
 12.0136
 11.9873
 14.8441
 14.7376
 14.786
 14.7779
 14.2511
 14.1428
 14.1544
 14.1781
 16.1455
 16.2003
 16.1871
 16.1047
 15.435
 15.3622
 15.3704
 15.4241
 15.3187
 15.4719
 15.3959
 15.4902
 15.492
 15.4354
 15.45
 15.4081
 13.8601
 13.9203
 13.8991
 15.8877
 15.9094
 15.8586
 15.8389
 15.6038
 15.5659
 15.4983
 15.5919
 11.2149
 11.3575
 11.363
 11.2618
 13.7987
 13.8606
 13.9254
 13.9707
 12.5179
 12.5106
 12.5813
 12.6221
 13.6017
 13.5475
 13.6235
 13.6954
 13.3255
 13.2361
 13.3307
 13.3041
 15.1331
 15.2191
 15.1778
 15.2978
 14.1107
 13.8997
 14.0661
 14.0386
 12.4112
 12.3214
 12.409
 12.3681
 13.5446
 13.5903
 13.43
 13.4551
 15.5177
 15.5733
 15.4689
 15.4253
 11.9378
 11.8931
 11.9246
 11.8706
 14.6733
 14.7674
 15.6303
 14.1164
 14.0659
 13.985
 14.1404
 14.4033
 14.2986
 14.4173
 14.4426
 16.5812
 16.5962
 16.5047
 14.8443
 14.9451
 14.968
 15.0292
 13.556
 13.3737
 13.4522
 13.3472
 13.9604
 13.8779
 13.9259
 13.966
 11.996
 11.9354
 11.922
 11.9614
 15.3928
 15.2281
 15.343
 15.1843
 15.1902
 15.2175
 15.0882
 16.3705
 16.5016
 16.4282
 16.3828
 15.4419
 15.3225
 15.4074
 13.5962
 13.3752
 13.561
 15.515
 15.5291
 15.6125
 15.5701
 14.3635
 14.2618
 14.2396
 14.2437
 17.9892
 17.9937
 17.987
 17.9254
 14.5302
 14.5658
 14.5662
 15.8502
 15.8712
 15.8516
 15.8512
 14.5393
 14.59
 14.6795
 14.5972
 15.5947
 15.5093
 15.5163
 15.4692
 13.0351
 12.9838
 13.0569
 12.9553
 12.7428
 12.8451
 12.7631
 12.7051
 11.4899
 11.489
 11.4193
 11.587
 13.7404
 13.8863
 13.7744
 13.7356
 15.6225
 15.7328
 15.6319
 15.6941
 15.0523
 15.0926
 16.2235
 16.2201
 16.1891
 16.191
 14.3128
 14.2685
 14.8298
 14.6675
 14.7028
 15.2909
 15.2282
 15.1819
 15.2349
 11.6686
 11.6052
 11.7932
 11.7694
 11.8963
 11.9271
 11.9777
 11.9175
 15.1565
 15.1207
 15.1868
 15.2686
 15.9018
 15.8712
 13.608
 13.5627
 13.5945
 13.486
 15.2796
 15.3177
 15.2366
 15.242
 14.6719
 14.8064
 14.5849
 10.7931
 10.7418
 10.8784
 14.0264
 13.8794
 13.9317
 13.93
 12.1525
 12.0046
 12.181
 12.2487
 13.8236
 13.723
 13.6975
 13.8375
 12.9114
 12.8203
 12.8024
 12.975
 15.6618
 15.5693
 15.6479
 15.6917
 15.2406
 15.1088
 15.2808
 15.1482
 13.8046
 13.9184
 13.6987
 13.8445
 14.7821
 14.6681
 14.6374
 14.7912
 15.638
 15.6019
 15.5656
 15.4785
 14.3468
 14.2968
 14.2317
 14.1743
 13.2087
 13.1912
 13.2704
 13.9068
 13.7887
 13.8693
 13.8051
 17.5308
 17.4493
 17.3951
 17.4515
 15.8984
 15.9014
 15.8791
 15.8918
 14.8595
 14.861
 14.8711
 14.7651
 16.6401
 16.5561
 16.675
 16.6075
 12.0794
 12.0839
 12.1886
 11.3324
 11.4382
 11.5601
 11.4543
 12.6858
 12.4749
 12.5553
 12.5528
 13.9528
 13.2534
 13.1028
 13.062
 13.1673
 14.1138
 14.0282
 14.1673
 14.1727
 15.6778
 15.7675
 15.719
 15.1766
 15.1505
 15.1189
 15.2616
 17.5185
 17.6053
 17.5291
 17.6365
 16.471
 16.474
 16.4406
 16.4483
 14.9077
 14.9086
 14.844
 14.7827
 11.2088
 11.4045
 11.3376
 11.3591
 17.2916
 17.2744
 17.1966
 17.2138
 13.038
 12.9205
 13.1133
 12.9814
 13.9594
 13.9487
 13.8445
 13.9407
 15.1247
 15.3035
 15.2919
 14.2213
 14.342
 14.3581
 14.3502
 11.4493
 11.3966
 11.3635
 15.6099
 15.4571
 15.4363
 14.5505
 14.5178
 14.3953
 14.4202
 14.923
 14.9518
 14.9822
 15.0043
 14.8329
 14.8542
 14.7336
 14.7113
 15.8144
 15.8757
 15.8666
 15.7656
 14.2676
 14.1909
 14.3014
 14.1887
 11.5721
 11.767
 11.763
 11.8612
 12.068
 12.0994
 12.1027
 11.9972
 16.0044
 15.984
 15.9793
 15.9977
 12.2245
 12.1684
 12.1784
 12.3262
 11.7665
 11.5902
 11.6379
 11.8011
 12.204
 12.2167
 12.3604
 12.3459
 13.396
 13.413
 13.3187
 13.3673
 14.0702
 14.1515
 14.0351
 14.8987
 15.0553
 15.0113
 14.9754
 12.7415
 12.8216
 12.8887
 12.7225
 12.744
 12.681
 12.6228
 12.6596
 10.7541
 10.7543
 10.9719
 10.8404
 16.5571
 16.4933
 16.5111
 16.4952
 16.1902
 16.2375
 16.2145
 16.1459
 15.773
 15.7996
 15.6772
 15.8045
 14.7938
 14.9413
 14.8412
 14.8508
 14.7162
 14.7042
 14.7077
 11.7052
 11.6187
 11.4907
 11.5688
 12.6235
 12.6816
 12.7489
 12.7405
 14.2883
 14.3691
 14.404
 14.3414
 11.9909
 11.9139
 13.6697
 13.6701
 13.6754
 13.7785
 12.1194
 12.0618
 11.8977
 12.0244
 13.8373
 13.6899
 13.8667
 13.6771
 14.9282
 14.8661
 15.0176
 14.97
 16.1193
 16.182
 16.1287
 16.0508
 17.602
 17.5138
 17.6339
 17.5639
 12.2421
 12.2863
 12.3056
 12.2192
 11.7526
 11.7352
 11.7251
 11.6375
 14.525
 14.6527
 14.5764
 14.6433
 14.0392
 14.0994
 14.1175
 14.0375
 15.3319
 15.4318
 15.263
 13.4179
 13.5098
 13.4965
 13.5439
 15.3772
 15.3974
 15.3248
 15.3301
 14.2053
 14.307
 14.396
 14.3268
 13.325
 13.3858
 13.3575
 13.3064
 13.9054
 13.9419
 13.9876
 12.1376
 12.2589
 12.2204
 12.2231
 13.4158
 13.2765
 16.686
 16.5414
 16.6925
 16.6321
 12.8597
 12.9468
 12.8964
 15.1344
 15.0985
 15.1036
 15.1267
 13.5397
 13.563
 13.5975
 14.0829
 14.1936
 14.0755
 14.1444
 13.4787
 13.6055
 13.4066
 13.5232
 13.3687
 13.2392
 17.1966
 17.196
 17.2626
 17.1913
 17.4231
 17.5239
 17.5611
 17.4699
 14.0043
 14.1344
 14.0818
 14.1396
 13.596
 13.6662
 13.5982
 13.681
 17.1225
 17.1404
 17.1109
 17.0474
 15.1878
 15.302
 15.8243
 15.8062
 15.7635
 15.6775
 13.3359
 13.3857
 13.226
 13.3152
 13.6625
 13.6189
 13.5165
 13.7076
 13.4249
 13.5587
 13.5906
 13.555
 14.9488
 14.9456
 14.8433
 14.9493
 15.5582
 15.5663
 15.6665
 15.5443
 16.2692
 16.1671
 16.1752
 16.2601
 15.5477
 15.5567
 15.5532
 15.3958
 12.7895
 12.8884
 12.7725
 12.8507
 14.0026
 14.2608
 14.1343
 16.6183
 16.5641
 16.4986
 13.1739
 12.987
 13.0902
 13.0975
 13.0264
 13.2527
 13.133
 13.0966
 14.4688
 14.5415
 14.58
 14.3661
 14.3299
 14.2283
 14.3182
 15.6107
 15.674
 15.6991
 15.6994
 12.4863
 12.5302
 12.4324
 12.4892
 15.8449
 15.8693
 15.8615
 15.8189
 15.8679
 15.9278
 15.8746
 11.2706
 11.0992
 11.0147
 11.1495
 12.272
 12.1876
 15.1097
 15.1528
 15.0543
 15.0909
 14.1116
 13.9906
 14.1147
 14.3197
 14.3806
 14.3504
 14.4495
 15.6304
 15.5506
 15.5902
 12.5997
 12.5212
 12.69
 12.635
 15.619
 15.4845
 15.5782
 15.5978
 13.0069
 13.1191
 13.159
 13.097
 15.8029
 15.7494
 15.5101
 15.6224
 15.5366
 15.587
 15.1818
 15.2337
 15.2081
 15.1721
 16.4651
 16.4936
 16.5825
 16.5246
 12.7915
 12.6546
 14.8789
 14.8133
 14.8026
 14.812
 11.4409
 11.4996
 11.4594
 11.4106
 14.9007
 14.9532
 14.8156
 14.7405
 12.562
 12.4343
 12.3947
 12.3856
 11.8764
 11.7329
 11.9669
 11.7629
 13.0198
 13.1469
 11.893
 11.7777
 11.8183
 11.8543
 15.6093
 15.628
 15.6261
 15.5327
 11.9432
 11.8906
 11.8732
 11.9521
 11.2832
 11.1124
 11.1276
 11.2502
 13.5605
 13.5526
 13.447
 13.4794
 14.2243
 14.268
 14.1419
 14.089
 11.9776
 12.1429
 12.0434
 11.9703
 16.5839
 16.4764
 16.5342
 16.6109
 12.046
 11.8677
 14.8537
 14.7831
 14.7699
 14.6726
 12.1911
 12.2371
 12.367
 12.3509
 15.5938
 15.4963
 15.5135
 15.5175
 14.6069
 14.764
 14.7103
 14.6271
 15.3597
 15.3918
 15.2673
 15.6003
 15.6581
 15.5996
 15.6983
 15.8226
 15.7329
 15.7587
 15.7146
 13.5673
 13.6405
 13.6769
 12.3229
 12.3066
 12.1937
 12.2186
 13.8918
 13.9525
 13.9869
 15.5945
 15.6704
 15.6186
 14.0629
 13.8938
 14.0382
 13.9423
 13.4698
 13.4973
 13.4541
 13.3195
 14.3831
 14.2567
 14.2393
 14.2881
 14.5648
 14.6225
 14.6489
 14.7053
 14.764
 14.7738
 14.5711
 14.5207
 14.4487
 14.6286
 12.2372
 12.3147
 12.2522
 12.3471
 13.0443
 13.1268
 13.0587
 13.0061
 14.3561
 14.304
 14.3578
 14.1977
 15.577
 15.6477
 15.5975
 13.8777
 13.9488
 13.8747
 13.8617
 15.0133
 15.1481
 15.1022
 15.1613
 16.9326
 16.9091
 16.9551
 16.9837
 14.728
 14.7846
 14.7569
 14.7656
 12.1241
 12.1448
 12.0259
 12.0705
 14.7487
 14.6147
 14.6868
 14.7517
 15.7571
 15.7637
 15.7189
 15.6806
 15.6103
 15.6669
 15.6592
 14.2819
 14.2612
 14.2837
 13.4018
 14.8096
 14.9701
 14.8726
 14.8772
 11.9191
 11.9496
 11.8666
 12.1598
 12.1316
 12.0701
 14.7832
 14.6741
 14.754
 14.6889
 11.1782
 11.1279
 11.0885
 11.0728
 15.5578
 13.7166
 13.8167
 13.7362
 13.7712
 15.4856
 15.4435
 15.4585
 15.434
 11.9378
 11.8771
 12.0661
 11.9436
 13.1957
 13.017
 13.0919
 13.1552
 12.7057
 12.6357
 12.7777
 12.7514
 15.8209
 15.786
 15.7395
 15.8193
 15.0278
 14.9367
 15.0353
 15.0348
 13.9012
 13.9677
 13.8607
 13.9741
 14.861
 14.9751
 14.8143
 14.9286
 13.28
 13.2373
 13.1255
 13.1528
 15.4866
 15.5352
 15.4329
 15.4324
 15.0722
 15.0109
 14.9254
 14.9856
 13.618
 13.606
 13.6287
 13.4798
 11.7912
 11.6332
 11.7249
 11.6366
 15.7583
 15.7467
 15.6503
 15.6987
 16.3878
 16.4984
 16.3806
 16.3899
 11.8779
 11.7768
 11.8211
 11.7685
 16.3718
 16.4568
 16.2228
 16.2636
 16.2744
 16.1823
 14.0946
 14.027
 14.1289
 14.2078
 15.0278
 14.9645
 14.9661
 15.0715
 10.8403
 10.7755
 10.7911
 10.8901
 11.9844
 11.9959
 11.8316
 13.1994
 13.2098
 13.1114
 13.2521
 15.6562
 15.6263
 15.7287
 15.5952
 15.1037
 15.1225
 15.16
 15.2061
 15.1414
 15.0651
 13.2078
 13.0214
 13.0797
 13.153
 13.3821
 13.3764
 13.4814
 13.3537
 13.0305
 13.039
 13.1625
 13.0332
 11.346
 11.318
 11.5608
 11.2701
 12.7747
 12.765
 12.8882
 14.658
 13.8725
 13.8952
 13.8579
 13.9492
 13.8246
 13.9484
 13.9143
 13.8941
 12.4334
 12.5071
 12.5122
 12.5795
 12.8083
 12.8797
 12.8784
 12.7597
 13.6173
 13.7212
 13.7162
 14.8524
 14.9085
 14.8142
 14.9825
 13.9163
 13.7283
 13.8452
 13.8125
 14.7647
 14.7005
 14.819
 17.235
 17.2349
 17.2893
 17.1924
 12.3359
 12.1441
 12.2164
 12.2391
 12.4076
 12.1987
 12.3132
 17.183
 13.8004
 13.7699
 13.8147
 13.6699
 13.6544
 13.6251
 16.2375
 16.2127
 16.223
 16.1902
 15.7453
 15.7143
 15.6268
 15.7605
 15.2267
 15.1689
 15.1725
 15.2922
 15.4016
 15.3532
 15.2838
 15.3978
 15.4109
 15.3214
 14.6004
 14.6741
 14.7051
 14.7236
 14.5259
 14.4196
 10.6454
 10.6395
 15.5696
 15.4083
 15.571
 15.4719
 14.3316
 14.3643
 14.2987
 14.4177
 15.8028
 15.7789
 15.9387
 15.8835
 12.2138
 12.136
 12.3506
 12.2651
 12.4021
 12.5049
 12.4064
 12.5148
 13.301
 13.2216
 13.2022
 13.2571
 13.9471
 13.9105
 13.7493
 13.8263
 14.0085
 14.0775
 15.588
 12.9435
 12.8142
 12.8469
 12.8163
 11.3967
 11.4177
 11.225
 11.4575
 12.32
 12.1861
 12.3462
 12.2918
 17.9823
 17.9817
 17.9677
 17.9389
 11.5434
 11.5206
 11.5831
 11.5754
 15.2752
 15.2714
 15.3714
 15.2174
 14.8573
 14.9752
 14.928
 15.0126
 13.1511
 13.1353
 13.0679
 13.05
 13.1509
 13.1751
 13.239
 13.2105
 15.6184
 15.4522
 15.5365
 15.4983
 11.7325
 11.6701
 11.7458
 11.7269
 12.192
 12.1102
 12.1501
 12.0703
 12.9105
 12.8865
 12.801
 12.8004
 11.9632
 12.0546
 12.0169
 11.9612
 15.0351
 14.9302
 14.9315
 14.8878
 15.6256
 15.5982
 15.5748
 15.5359
 12.2891
 12.3945
 12.4292
 12.3992
 14.4368
 14.4389
 14.4862
 14.5795
 14.2444
 14.2973
 14.319
 14.252
 17.4632
 17.4237
 17.3706
 17.4188
 11.5933
 11.5645
 11.9222
 11.8939
 12.0115
 11.8285
 15.992
 16.0913
 16.1238
 15.9715
 15.0183
 15.1532
 15.152
 15.2051
 12.142
 12.2285
 12.0945
 12.0558
 14.6504
 14.6138
 14.677
 14.5637
 14.7237
 14.6901
 14.8136
 14.804
 11.4125
 11.3833
 11.4574
 11.5045
 13.9303
 13.9572
 13.9217
 13.8758
 14.1863
 14.1478
 14.1793
 14.2544
 12.7205
 12.6518
 12.6144
 12.6714
 13.276
 13.3067
 13.3465
 13.4133
 14.5634
 14.5438
 14.6853
 15.0131
 14.9281
 14.9854
 14.839
 16.1757
 16.2021
 16.2292
 16.0802
 14.8322
 14.7649
 14.7448
 14.7242
 14.0475
 14.1169
 14.0554
 14.1455
 11.273
 11.2331
 11.2553
 11.4173
 14.8433
 14.6543
 14.7551
 14.7545
 15.9139
 15.9115
 15.9853
 16.0344
 12.9618
 12.8576
 12.9108
 13.0016
 13.4728
 13.4857
 13.5446
 13.9623
 13.7999
 13.7915
 13.7476
 16.2327
 16.2297
 16.2241
 16.1545
 13.7876
 13.8949
 13.8474
 13.9427
 11.8343
 11.8196
 11.8189
 11.7979
 13.9113
 13.8917
 13.88
 13.8153
 15.8482
 15.912
 15.8732
 15.8354
 15.4752
 15.4077
 15.4894
 15.5698
 10.5516
 10.5954
 10.5338
 10.527
 15.0627
 15.0407
 15.0564
 15.1885
 13.523
 13.7063
 13.6499
 13.6104
 10.7428
 10.7278
 10.8303
 10.8274
 11.9385
 11.7728
 11.855
 12.9636
 12.9754
 12.8391
 12.8003
 12.1448
 12.1481
 11.9805
 12.1901
 17.0253
 16.966
 16.9035
 16.9265
 15.3515
 15.246
 15.3886
 11.5368
 11.3879
 11.4149
 11.4044
 13.585
 13.6128
 13.4925
 13.6483
 12.6159
 12.6426
 12.4979
 12.7183
 15.7122
 15.7232
 15.8045
 15.853
 14.6802
 14.5645
 14.7028
 14.61
 13.2481
 13.4285
 13.3753
 16.1647
 16.1265
 16.072
 16.0805
 15.525
 15.6488
 15.5869
 15.6252
 14.7615
 11.5119
 11.4448
 11.4834
 11.3885
 16.8402
 16.8379
 16.9118
 16.9196
 12.7302
 12.5396
 12.6379
 12.5141
 13.4366
 13.5191
 13.4694
 13.5936
 17.3024
 12.3766
 12.4767
 12.3214
 11.5882
 11.4257
 11.5239
 11.5049
 14.3334
 14.2964
 14.1355
 14.2601
 13.3257
 13.3323
 13.2376
 13.3964
 15.3024
 15.4059
 14.1206
 14.1747
 14.1678
 14.0479
 15.3139
 15.3753
 15.4267
 15.3387
 14.9214
 14.9696
 14.8173
 14.822
 13.046
 13.1224
 13.0413
 13.0033
 16.5171
 16.5201
 16.5192
 16.4115
 15.6509
 15.7125
 15.6688
 15.7442
 16.3693
 16.2878
 15.94
 15.9442
 15.9302
 15.9334
 16.0347
 16.1027
 15.9904
 16.0842
 11.4577
 11.5158
 11.6267
 11.6287
 13.6112
 13.607
 13.6559
 13.4837
 14.6771
 14.5326
 14.627
 14.6139
 13.8697
 13.9114
 13.9379
 13.8325
 11.3958
 11.4084
 16.2107
 16.2632
 16.2515
 16.2073
 11.4136
 11.3751
 11.4755
 16.7233
 16.7607
 16.7257
 16.7752
 11.6937
 11.8218
 11.7249
 11.8221
 14.8245
 14.9044
 14.7911
 14.904
 14.3999
 14.373
 14.4286
 11.4343
 11.5064
 11.4856
 11.4117
 13.7152
 13.8206
 13.6935
 13.7933
 14.312
 14.2611
 14.1565
 14.2619
 14.7774
 14.8382
 14.5367
 14.7229
 14.5807
 14.6593
 13.4706
 13.5912
 13.5361
 11.3037
 11.503
 11.5226
 11.377
 14.4579
 14.3836
 14.4673
 14.4437
 14.6315
 14.6904
 15.0151
 15.1277
 15.1528
 15.0643
 16.6558
 16.6415
 16.5592
 13.7813
 13.7566
 13.9008
 13.9064
 11.5547
 11.5475
 11.5315
 16.3496
 16.421
 16.348
 14.3714
 14.456
 14.3986
 14.5006
 13.1835
 13.1881
 13.3259
 13.2776
 16.9379
 16.9703
 16.9443
 16.9317
 12.2409
 12.2066
 12.2849
 12.3013
 13.1105
 13.2054
 13.1887
 13.2236
 12.2932
 12.2551
 12.3382
 11.5555
 11.5307
 11.3376
 11.4485
 13.9996
 14.1288
 14.0132
 14.0038
 11.8794
 11.9105
 11.9612
 11.9774
 14.8611
 14.8992
 14.828
 14.9463
 11.3658
 13.4127
 14.1788
 14.2323
 14.1299
 14.2656
 13.4518
 13.4759
 13.5815
 13.5966
 12.8363
 12.8018
 12.8732
 12.9827
 13.4638
 13.5186
 13.3841
 13.4396
 12.6152
 12.6948
 12.5857
 12.6057
 14.1699
 14.2379
 14.1869
 14.0959
 14.3076
 14.2657
 14.2466
 14.1992
 14.6641
 14.6856
 14.7268
 14.5943
 14.2064
 14.2114
 14.3096
 15.7639
 15.7425
 15.7651
 15.6882
 14.0972
 13.2078
 13.0467
 13.0373
 13.1336
 11.61
 11.6006
 11.7509
 14.9304
 15.0829
 15.0159
 15.0639
 13.9294
 13.7901
 13.824
 13.3964
 13.4024
 13.4976
 13.4999
 13.161
 13.1247
 13.0057
 12.9801
 12.0575
 11.9914
 11.9137
 12.0134
 15.3659
 15.3883
 15.3201
 15.4784
 13.8069
 13.8889
 13.9175
 13.9499
 14.2363
 14.3084
 14.3748
 14.2585
 14.3674
 14.4444
 14.4533
 14.5278
 14.1455
 14.1912
 14.1264
 14.2435
 12.7984
 12.9955
 12.7692
 12.9051
 14.3354
 14.5121
 14.445
 14.427
 16.2382
 16.2356
 16.239
 16.1989
 16.2875
 16.221
 16.2307
 14.1349
 14.1185
 14.0208
 14.0105
 14.0839
 14.0236
 13.9892
 13.9593
 14.2373
 14.3326
 14.1758
 14.1743
 11.7019
 11.6913
 11.8495
 11.8317
 12.7946
 12.9167
 12.9171
 12.7832
 15.1122
 15.0484
 15.061
 15.0343
 15.6591
 15.5506
 15.5641
 15.7021
 12.1851
 12.2114
 12.2848
 12.1779
 16.8091
 16.8581
 16.8387
 16.7527
 14.7348
 14.6285
 14.6891
 14.7027
 15.8969
 15.8286
 15.8391
 15.4192
 15.3509
 15.3428
 15.2717
 13.014
 13.0566
 12.9622
 13.1388
 15.3433
 15.4934
 15.4338
 15.3982
 16.219
 16.0319
 16.1584
 16.9269
 16.8425
 16.7911
 16.8205
 11.2564
 11.2124
 11.136
 11.0333
 15.2744
 15.3424
 15.2846
 15.2484
 13.5698
 13.728
 13.7015
 13.5968
 11.8331
 11.9241
 12.0216
 11.9385
 12.5205
 12.3539
 12.5776
 12.4744
 15.1745
 15.1613
 15.2293
 15.1842
 15.9513
 16.05
 16.1299
 16.0261
 13.8462
 13.7737
 13.8861
 13.8222
 15.9163
 15.7874
 14.5489
 14.7084
 14.6797
 14.5915
 14.3986
 14.4079
 14.4717
 14.364
 14.5261
 14.5159
 14.5708
 15.7164
 15.6802
 15.7157
 13.5067
 13.5034
 13.468
 13.4318
 13.7099
 13.7233
 13.8113
 13.6177
 15.1677
 15.0456
 15.0987
 15.1583
 12.7542
 12.6184
 12.8013
 12.7368
 14.1677
 14.3051
 14.2309
 14.123
 15.8636
 15.8646
 15.8873
 15.8678
 14.7854
 14.7175
 14.7851
 13.6691
 13.6691
 13.7742
 13.6756
 14.0498
 13.9882
 13.9109
 11.2552
 11.321
 11.344
 11.3797
 16.4061
 16.4484
 16.3978
 16.5241
 14.9094
 14.7957
 14.8141
 14.8812
 14.9527
 14.9787
 15.0683
 14.9514
 11.1295
 11.18
 11.0247
 10.9179
 12.7146
 12.646
 12.6588
 15.3157
 15.3454
 15.3812
 15.3357
 12.4946
 12.6389
 12.5768
 15.2683
 15.2639
 15.3391
 15.3169
 17.5842
 17.5249
 17.5801
 17.5291
 11.8668
 11.8189
 11.7343
 11.891
 15.699
 15.7285
 15.7739
 15.8621
 11.4774
 11.5285
 11.5485
 11.5123
 15.4549
 15.3291
 15.422
 15.3749
 17.5582
 17.658
 17.5707
 17.5745
 16.1194
 16.2259
 16.1411
 16.0843
 15.6678
 15.5878
 15.5252
 15.6847
 14.1395
 14.3017
 15.6681
 15.6527
 15.8063
 15.7828
 13.5622
 13.6185
 13.6573
 13.7208
 14.2845
 14.2823
 14.3523
 14.2019
 11.9279
 12.0861
 11.8189
 11.7929
 12.189
 12.267
 12.1802
 12.1224
 12.4697
 12.541
 12.4809
 12.5866
 12.1182
 12.0946
 12.0631
 12.1484
 13.1323
 13.1729
 13.0589
 13.1486
 12.4149
 12.282
 12.3233
 12.3869
 16.3097
 16.4307
 16.4478
 16.2956
 11.9724
 11.9009
 11.9333
 11.9528
 14.6039
 14.6897
 14.7353
 14.6884
 12.6976
 12.893
 12.8334
 12.1723
 12.0539
 12.0659
 12.1171
 15.6462
 15.7565
 15.7677
 15.727
 16.171
 16.2064
 16.2586
 16.2297
 12.9002
 12.9238
 12.9964
 12.8103
 14.4211
 14.4382
 14.4678
 14.5274
 13.1664
 13.2538
 13.1737
 13.1844
 13.1802
 13.1791
 12.9631
 14.7176
 14.749
 14.8415
 13.2303
 13.1912
 13.8481
 13.9999
 11.2994
 11.2264
 11.2264
 11.2891
 13.9498
 13.8973
 13.9589
 13.8334
 13.2196
 13.2821
 13.1278
 13.2767
 13.6919
 13.6254
 13.6726
 13.573
 12.4452
 12.4814
 12.4178
 12.4934
 12.5041
 14.4758
 14.4655
 14.5746
 14.5792
 15.8821
 15.8821
 15.8798
 15.8699
 13.1887
 13.3116
 13.1891
 13.2605
 13.1714
 13.2537
 13.2781
 13.1542
 17.3704
 17.3167
 17.2826
 17.2153
 14.1352
 14.043
 14.0891
 14.1552
 14.1688
 14.2651
 14.3039
 14.2079
 13.3154
 13.4022
 15.6985
 15.6699
 15.625
 15.6846
 14.9392
 14.8772
 14.9168
 14.9799
 15.5347
 15.5805
 15.6221
 15.6115
 15.0498
 14.9753
 14.9908
 15.0676
 15.4906
 15.4985
 15.5451
 15.4755
 12.7018
 12.7504
 12.7028
 12.6264
 11.9624
 11.9682
 12.0945
 12.0149
 15.2202
 15.2646
 15.3241
 15.2091
 14.1472
 14.2557
 14.162
 14.1951
 12.4674
 12.6182
 12.5154
 12.5871
 14.594
 14.6417
 14.6531
 14.5275
 15.2267
 15.1552
 16.0651
 16.0208
 15.9945
 16.0737
 14.3831
 14.4197
 14.4668
 14.5194
 12.3541
 12.414
 12.4149
 12.2654
 11.6462
 11.7322
 11.7072
 11.6247
 17.1143
 17.1057
 14.5506
 14.4629
 14.4209
 14.4027
 14.7067
 14.8603
 14.7613
 14.7585
 14.8519
 14.8906
 15.4338
 15.3745
 15.3943
 15.3372
 14.3092
 14.2057
 14.1654
 16.2834
 16.2233
 16.2181
 16.1694
 12.087
 11.9909
 12.1671
 12.0746
 11.7644
 11.7669
 11.7589
 11.1806
 11.2909
 11.3947
 11.304
 13.766
 13.5919
 13.6647
 13.6356
 14.1496
 14.0155
 14.208
 14.0884
 12.6861
 12.5097
 12.4426
 12.5524
 13.2859
 13.2953
 13.1865
 13.2876
 13.5134
 13.4046
 13.4574
 13.9808
 13.9593
 14.0218
 13.8883
 13.0054
 12.7908
 12.8652
 12.9829
 14.5312
 14.574
 14.5122
 14.4977
 14.0535
 14.0842
 13.9672
 14.1254
 13.3063
 13.3324
 13.3869
 13.271
 14.1449
 14.2291
 14.2625
 14.136
 17.5229
 17.5497
 17.4662
 17.4668
 15.3791
 15.4214
 15.4172
 15.4912
 13.014
 13.0069
 12.8848
 12.8709
 15.3683
 15.3436
 15.4647
 15.5038
 15.6527
 15.7852
 15.6482
 15.5667
 12.2184
 12.2328
 12.1483
 12.3145
 12.3317
 12.4575
 12.3421
 12.3679
 11.9303
 12.0443
 11.9177
 11.9011
 12.7
 12.7076
 12.5984
 12.6383
 14.6371
 14.6438
 14.7221
 14.6427
 15.3791
 15.4147
 15.3318
 15.4292
 13.182
 13.3571
 13.1769
 13.3128
 15.329
 15.298
 15.2834
 15.2902
 16.0596
 16.0333
 16.0067
 15.9549
 14.2725
 14.1865
 14.2533
 14.1681
 14.8372
 14.9041
 14.9828
 14.7441
 14.7152
 14.5859
 14.6972
 15.9378
 15.9939
 16.0828
 15.9992
 15.2441
 15.259
 15.3068
 15.2746
 13.1223
 13.0477
 13.1094
 13.0489
 14.0211
 13.9233
 13.9093
 11.196
 11.3255
 11.3194
 11.2339
 11.6931
 11.5838
 11.4983
 11.6197
 14.8697
 14.7935
 14.9118
 14.7927
 13.7332
 13.6492
 15.7443
 15.7494
 15.8524
 15.7109
 13.987
 14.0804
 14.1452
 14.0599
 11.8732
 11.8395
 11.9616
 11.8603
 15.3348
 15.315
 15.2709
 14.5743
 14.5631
 14.5308
 14.6649
 14.797
 14.6453
 14.673
 14.7108
 14.2107
 14.0957
 14.0846
 14.239
 14.2801
 14.2181
 14.1435
 14.2329
 13.926
 13.8543
 13.9337
 13.8334
 14.3965
 14.3186
 12.5985
 12.647
 12.4494
 12.6119
 14.3021
 14.4101
 14.3716
 14.305
 13.4852
 13.6567
 13.598
 14.3506
 14.2478
 14.3118
 14.2541
 13.5741
 13.6293
 13.687
 13.6007
 15.3959
 15.498
 15.4204
 15.5469
 14.5073
 14.5255
 14.4078
 13.7625
 13.7547
 13.6053
 13.829
 14.333
 14.3467
 14.27
 15.5392
 15.5031
 15.5998
 13.4221
 13.4331
 13.4313
 13.5556
 14.1286
 14.0483
 14.0386
 17.1462
 17.1236
 17.0818
 17.2296
 13.3011
 13.3805
 13.4352
 13.2958
 14.7497
 14.8802
 14.8651
 14.8899
 12.5398
 12.5467
 12.5043
 12.4128
 12.326
 12.407
 12.2663
 12.2857
 15.6134
 15.4805
 15.6382
 15.6151
 13.861
 13.949
 13.9997
 14.99
 15.1032
 15.0291
 15.0289
 12.0999
 12.2861
 12.1881
 14.1009
 14.012
 14.0769
 13.9673
 13.1808
 13.1369
 13.1368
 13.1525
 11.984
 11.9184
 11.9018
 12
 17.8368
 17.9101
 17.8905
 17.8363
 15.1441
 15.1269
 15.0636
 15.1506
 13.8267
 13.6379
 13.7079
 13.6661
 16.056
 16.1378
 16.15
 14.1114
 14.0133
 14.0485
 14.1313
 11.7006
 13.3113
 13.3824
 13.5313
 13.4149
 12.4109
 12.4146
 12.3805
 12.3358
 12.7418
 12.8094
 12.83
 12.7561
 13.8268
 13.8699
 13.988
 14.1192
 14.1248
 14.1093
 16.9282
 16.847
 16.9208
 16.8687
 14.9731
 15.0189
 15.0601
 15.1231
 15.1067
 15.0319
 15.1023
 11.7575
 11.5073
 11.7659
 11.7685
 14.2172
 14.2284
 14.0943
 14.1078
 13.7524
 13.7992
 13.8868
 13.8116
 12.2214
 12.2919
 12.1636
 12.3005
 14.0621
 14.0885
 13.9743
 14.09
 16.354
 16.3116
 16.402
 16.3712
 14.3343
 14.375
 14.3154
 14.3573
 15.1709
 15.1685
 15.1528
 15.084
 15.3774
 15.4544
 15.432
 15.3946
 15.9549
 15.9201
 15.9597
 15.9571
 16.5238
 16.5671
 16.5834
 16.4662
 11.118
 11.2482
 11.1896
 11.2231
 16.7759
 16.741
 16.8219
 16.6809
 14.2297
 14.2955
 14.2187
 14.3224
 11.274
 11.3043
 11.377
 11.3659
 14.6669
 14.6788
 14.6184
 14.5773
 15.8899
 11.9784
 12.0534
 12.0267
 11.9095
 15.4497
 16.3965
 16.2896
 16.2681
 16.3639
 13.6698
 13.539
 12.6763
 12.8257
 12.6712
 12.8111
 12.2555
 12.2758
 12.1927
 12.206
 11.0511
 11.1871
 11.0521
 12.6535
 12.5146
 12.5168
 12.5207
 14.5748
 11.5221
 13.1986
 13.2471
 13.2821
 11.7776
 11.6847
 11.6616
 11.7174
 14.6309
 14.6289
 14.641
 14.7065
 15.1269
 15.104
 15.1666
 15.2225
 13.2051
 13.2837
 13.2539
 13.0888
 11.6336
 11.5196
 11.6598
 11.6529
 12.1443
 12.1796
 12.1028
 12.1882
 13.4916
 13.3201
 13.3406
 16.5213
 16.5774
 16.4065
 16.5139
 17.7597
 17.6691
 17.7189
 17.6681
 15.901
 16.0228
 16.0317
 15.9696
 13.8787
 13.7852
 13.9033
 16.2571
 16.1664
 16.2028
 16.2807
 12.4453
 12.4812
 12.3417
 12.5825
 12.5455
 12.6294
 12.5803
 15.3873
 15.4298
 13.0638
 12.9358
 10.7532
 10.8653
 10.7296
 11.1974
 11.1579
 11.1754
 11.1071
 14.4119
 14.5094
 14.3537
 14.4296
 15.0031
 15.0243
 15.0751
 14.9601
 14.3173
 14.3246
 14.2195
 14.2294
 11.526
 11.5328
 11.5043
 11.5383
 13.1099
 13.0615
 13.0983
 13.171
 15.9321
 15.9363
 15.9335
 15.8518
 13.0401
 13.0093
 13.0928
 12.9591
 13.811
 13.7818
 13.8809
 13.7617
 13.2372
 13.1475
 13.166
 18.0257
 18.0004
 17.9879
 14.9764
 15.0313
 14.6129
 14.6103
 14.7067
 14.5626
 12.8499
 12.7296
 12.8084
 12.8462
 13.0335
 12.9777
 12.8361
 12.9709
 12.9582
 13.0212
 12.8325
 17.0319
 17.0395
 16.012
 16.022
 15.9627
 16.0037
 13.7794
 17.107
 17.1924
 17.1554
 17.1497
 15.2008
 15.079
 15.1794
 15.1931
 14.5098
 14.5536
 16.4977
 16.3417
 16.355
 16.4345
 11.0972
 10.9428
 11.0182
 11.0667
 11.5707
 11.5407
 11.6033
 11.4229
 15.5403
 15.3658
 15.4913
 15.3983
 15.0026
 15.0654
 14.866
 14.9143
 14.9809
 15.0475
 14.9833
 12.8815
 12.8227
 12.9754
 12.8767
 15.884
 15.8254
 15.7803
 15.763
 14.2193
 14.1629
 14.2359
 13.4776
 13.4626
 13.4026
 13.3197
 15.0401
 15.0218
 14.9484
 14.9979
 15.3335
 15.2298
 15.1718
 15.2776
 15.3815
 15.455
 15.4369
 15.3547
 14.6614
 14.6098
 14.5368
 14.6274
 13.3191
 13.4042
 15.1784
 15.1543
 15.1207
 15.2095
 11.1019
 11.314
 11.2899
 11.2756
 15.516
 15.4629
 15.5157
 15.4499
 16.2751
 16.301
 16.1887
 16.2481
 13.7492
 13.7052
 16.7605
 16.7297
 16.8229
 16.7086
 14.8111
 14.7582
 14.8583
 11.8129
 11.8669
 11.7711
 11.7542
 16.642
 16.6747
 16.6475
 15.3971
 15.4
 15.305
 15.3382
 16.4248
 15.4287
 15.4702
 15.4564
 15.5602
 14.0836
 14.1527
 14.0726
 14.0914
 14.487
 14.463
 14.4051
 14.4945
 11.6375
 11.4813
 13.9634
 13.9113
 13.9368
 13.9664
 15.4669
 15.5837
 15.4505
 15.5904
 14.9297
 14.7173
 14.8266
 14.9266
 11.9845
 12.0836
 12.0708
 12.0746
 14.5096
 14.4745
 14.3651
 14.3968
 13.7696
 12.3312
 12.2481
 12.36
 14.8888
 14.8642
 14.964
 14.8202
 13.1079
 13.1408
 13.0757
 13.2281
 14.7075
 14.7757
 14.7819
 14.6583
 11.6151
 11.7578
 11.7741
 11.7068
 10.778
 10.7043
 10.8246
 15.397
 15.3211
 15.2251
 15.2962
 13.5385
 13.4715
 13.6114
 13.5669
 13.1155
 13.0846
 13.0033
 12.9499
 15.0032
 15.0013
 15.3374
 15.3886
 15.4214
 15.3089
 14.6944
 14.5346
 13.5637
 13.5281
 13.5828
 13.6231
 13.3404
 13.2943
 13.2111
 13.3474
 14.5627
 14.5281
 14.4363
 14.4835
 13.6732
 13.6616
 13.6561
 12.0881
 12.2424
 12.2764
 12.2091
 12.6836
 12.7198
 12.6454
 14.5911
 14.4224
 14.5796
 14.5032
 15.2402
 15.3627
 15.4253
 15.2932
 13.1211
 13.2474
 13.2457
 13.1534
 14.4964
 14.5066
 14.6173
 15.9191
 15.9338
 15.9139
 15.9324
 15.0282
 15.0434
 14.9932
 14.9564
 12.612
 12.615
 12.7201
 11.1687
 11.3233
 11.3139
 13.2288
 13.1715
 13.1677
 15.035
 15.1321
 14.9989
 15.1
 11.3613
 11.3562
 11.3758
 11.2886
 13.425
 13.4835
 13.4169
 13.3345
 12.423
 12.3654
 12.1862
 12.2268
 12.616
 12.5587
 12.6231
 12.6107
 16.1844
 16.2471
 16.2568
 14.6421
 14.617
 14.6905
 14.6054
 12.5094
 12.4412
 12.5584
 12.556
 14.3685
 14.3162
 14.2982
 14.1838
 13.0108
 13.0091
 13.0407
 13.1713
 11.769
 11.6905
 15.9532
 15.8815
 15.8941
 15.8467
 12.8097
 12.8738
 12.7215
 12.8429
 14.6814
 14.735
 14.7654
 14.6553
 13.2455
 13.3718
 11.4273
 11.4325
 11.5317
 11.3671
 12.4275
 12.2814
 12.4721
 12.2077
 11.2212
 11.2219
 11.1142
 11.0272
 12.9161
 12.945
 12.8779
 13.2126
 13.0581
 13.0948
 13.1294
 13.0294
 13.12
 13.0867
 13.2072
 15.1927
 15.164
 15.2628
 15.2894
 16.3799
 16.428
 16.317
 14.1312
 14.108
 14.1102
 12.1376
 12.2498
 12.1766
 12.2856
 14.5463
 14.4759
 14.3868
 14.4699
 15.5106
 15.6242
 15.6016
 15.5057
 14.1051
 14.2133
 14.264
 14.2692
 14.7218
 14.5808
 14.7116
 11.4576
 11.402
 11.5597
 11.5501
 15.8472
 15.8099
 15.6397
 15.5828
 15.5736
 13.0518
 13.0073
 13.1218
 12.9409
 14.2467
 14.1404
 14.1223
 14.1915
 15.6603
 15.6431
 15.5597
 15.6431
 13.7438
 13.9289
 13.9268
 13.7981
 14.8835
 14.9562
 14.8258
 14.8326
 12.0128
 11.986
 11.8145
 15.0297
 15.053
 14.9604
 14.969
 13.7937
 13.7164
 15.6994
 15.5761
 15.6083
 15.6804
 15.5501
 15.6375
 15.5946
 15.6333
 11.8254
 11.9107
 15.394
 15.3049
 15.3542
 15.4291
 14.0915
 14.2019
 14.1383
 14.0933
 14.7381
 16.2941
 16.375
 16.3496
 13.7192
 13.7325
 13.6925
 13.7954
 11.8399
 11.8258
 11.9183
 11.7741
 16.1354
 16.1308
 16.0826
 16.1652
 15.5767
 15.4968
 15.5985
 15.5807
 13.1432
 13.082
 13.0773
 16.0321
 16.0176
 15.9674
 15.9402
 11.1589
 11.3007
 11.2027
 11.1358
 15.9229
 15.8534
 15.8284
 15.9645
 13.352
 13.4729
 13.3807
 13.2564
 14.7104
 14.6514
 14.6706
 14.7428
 15.6268
 15.5908
 15.6077
 14.8185
 14.6998
 14.8304
 14.7318
 15.7484
 15.8483
 15.7845
 15.7836
 15.4769
 15.5422
 15.4899
 12.7966
 12.8957
 12.766
 12.8333
 12.9548
 14.2475
 14.0251
 14.1651
 14.1616
 11.7628
 11.8167
 11.8831
 11.817
 13.7271
 13.6102
 13.7962
 13.6564
 13.2956
 13.2095
 13.2961
 13.3334
 15.6011
 15.6457
 15.5353
 15.3686
 15.3949
 13.4944
 13.632
 13.529
 13.4792
 11.856
 11.6841
 13.8932
 13.863
 13.9629
 13.8348
 15.7368
 15.7618
 15.6701
 12.0875
 12.0353
 12.1387
 12.095
 13.9421
 14.0801
 14.0416
 14.0132
 15.6511
 15.7087
 15.6522
 15.6113
 14.2021
 14.2208
 14.0681
 14.1723
 13.4132
 13.2259
 16.1035
 16.1518
 16.1245
 16.183
 15.397
 15.2432
 15.1646
 15.2208
 15.1401
 15.1632
 15.1759
 15.2939
 15.2483
 15.1874
 14.0336
 14.0263
 14.0552
 13.4928
 13.5408
 13.5804
 13.6327
 15.2708
 15.2813
 15.2606
 15.2809
 14.7137
 14.7241
 13.7552
 13.8453
 13.8124
 13.8985
 13.7903
 13.7722
 14.2784
 14.1484
 14.1357
 14.2421
 16.7104
 16.6101
 16.6288
 16.5766
 13.8034
 15.7513
 15.6543
 15.7227
 15.744
 11.4943
 11.3888
 11.5133
 12.8961
 12.9448
 13.0018
 12.8789
 14.2346
 14.166
 14.2061
 14.3629
 14.0519
 13.9603
 14.0861
 15.4399
 15.3634
 15.4077
 15.4628
 11.9075
 11.8126
 12.0462
 11.8766
 13.4272
 13.4637
 13.3622
 13.3924
 11.939
 11.9047
 12.0809
 11.9887
 15.8085
 15.7913
 15.8862
 15.8808
 15.216
 15.1399
 12.8616
 12.9098
 12.9711
 12.9016
 11.7724
 11.7609
 11.7413
 11.817
 10.8168
 10.7619
 10.8578
 10.7078
 11.8975
 11.9849
 11.8765
 13.4271
 13.3538
 13.4603
 13.3965
 12.1213
 12.0743
 12.0049
 12.0584
 15.9103
 15.8229
 15.7537
 15.842
 12.3883
 12.3191
 12.2886
 13.449
 13.482
 13.511
 13.5068
 15.7636
 15.8103
 15.7621
 15.8373
 13.1471
 13.0217
 13.1032
 13.0921
 13.652
 13.5671
 13.5358
 13.6304
 15.0448
 14.9881
 14.9577
 14.8821
 15.9755
 15.9582
 16.0743
 16.0662
 14.4358
 14.4009
 14.3133
 14.4151
 16.8986
 16.8653
 16.7589
 16.8026
 15.521
 15.4604
 15.533
 15.3123
 15.415
 15.4136
 15.4365
 17.2513
 17.2068
 17.3094
 17.2144
 12.1516
 12.2436
 12.2368
 12.553
 12.5401
 12.4414
 12.467
 15.235
 15.0835
 15.1309
 16.3545
 16.3382
 16.3813
 15.9098
 16.0071
 15.9087
 15.9052
 15.1783
 15.193
 15.1073
 15.263
 13.372
 13.2334
 13.3166
 13.3328
 16.6842
 16.6767
 16.6048
 16.7028
 13.5831
 13.7533
 13.778
 13.6423
 12.5441
 12.4451
 12.6297
 12.5391
 13.8245
 13.826
 13.6666
 13.7224
 14.5037
 14.568
 14.4155
 15.6916
 15.7003
 15.6938
 15.6304
 11.9062
 11.7998
 11.7708
 11.7975
 12.4196
 12.349
 12.4252
 12.4925
 15.0936
 15.0139
 15.064
 15.1407
 11.5982
 11.5322
 11.4772
 11.8787
 11.7023
 11.8536
 11.8135
 11.7263
 11.6933
 11.8057
 11.7651
 16.5852
 16.6092
 17.2502
 17.2365
 17.2921
 17.1769
 13.4223
 13.4708
 13.5451
 14.1998
 14.2776
 14.1136
 14.2486
 14.0654
 13.9515
 13.9895
 14.051
 17.952
 14.5471
 13.5497
 13.4451
 12.4874
 12.4103
 12.4547
 12.4431
 16.3642
 14.7791
 14.685
 14.7816
 10.6755
 10.7572
 10.7537
 10.7497
 14.0135
 14.0947
 14.0175
 13.9283
 11.4483
 11.5323
 11.4671
 11.5656
 14.4895
 14.3751
 14.5637
 14.7792
 14.6637
 14.7334
 12.208
 12.1538
 12.303
 12.1953
 13.6107
 13.6574
 13.7352
 13.8003
 15.8858
 15.9575
 15.818
 15.8489
 12.411
 12.2121
 12.2878
 11.5446
 11.3583
 11.3571
 11.5373
 12.4766
 12.498
 12.6048
 12.4767
 15.2444
 15.2621
 15.0964
 15.2709
 15.0246
 15.0963
 15.0818
 15.0931
 12.0803
 11.9852
 11.9948
 11.9755
 14.5668
 14.579
 14.6672
 12.7594
 12.7372
 12.7937
 12.8532
 15.6649
 15.5771
 15.7171
 15.7104
 13.5014
 13.4512
 13.594
 13.5355
 15.7813
 15.7146
 15.7747
 15.767
 13.8294
 13.7304
 13.8165
 13.7829
 12.6231
 12.594
 12.4875
 12.7203
 15.9786
 16.0075
 15.9331
 13.9181
 13.8243
 12.3555
 12.4213
 12.4226
 12.5002
 14.5602
 14.6213
 14.6332
 15.839
 15.9292
 15.955
 15.909
 13.2276
 13.1821
 13.2474
 13.1425
 13.3976
 13.417
 13.2399
 13.3705
 17.6199
 17.6274
 17.5401
 17.5893
 14.1353
 14.246
 14.1732
 17.0492
 16.9781
 16.9557
 14.0126
 14.019
 14.0795
 14.0456
 14.1634
 15.778
 15.7663
 15.9044
 15.8666
 14.4398
 14.3535
 14.3028
 12.473
 12.478
 12.4841
 12.5304
 14.2916
 14.2384
 14.1841
 14.1862
 14.1952
 14.2372
 14.2619
 10.8531
 10.926
 10.9499
 11.0514
 15.3206
 15.1283
 15.1772
 15.2433
 16.0979
 16.0924
 16.052
 16.0628
 14.8086
 14.8472
 14.6829
 14.7906
 12.1799
 12.1079
 12.0985
 12.2659
 17.6763
 17.5985
 17.6543
 17.5484
 12.8486
 12.9711
 12.8847
 12.8743
 16.0755
 16.1466
 16.1096
 16.1194
 12.3872
 12.638
 12.5836
 12.4737
 12.6418
 12.717
 12.7755
 12.6899
 12.837
 12.7722
 15.235
 15.2943
 15.3009
 15.2478
 11.9283
 11.9343
 11.9347
 12.7905
 12.9665
 12.8844
 12.759
 15.3963
 15.2896
 15.3597
 15.4592
 14.797
 14.8398
 14.7084
 18.0344
 18.033
 18.0654
 18.0336
 14.1565
 14.3146
 14.1635
 11.9653
 11.8788
 11.9724
 12.009
 12.5327
 12.6138
 12.0367
 11.9213
 11.8241
 12.0045
 12.9352
 12.9231
 16.1214
 16.0753
 16.1998
 16.0162
 12.6849
 12.7163
 12.6988
 12.838
 13.9912
 13.9254
 14.9003
 14.8186
 14.8401
 14.8862
 12.6935
 12.6409
 12.5853
 12.6409
 15.1671
 15.3382
 15.3316
 15.203
 12.0219
 12.0406
 11.9258
 11.7461
 13.613
 13.5808
 13.7105
 16.2945
 16.3416
 16.3519
 16.2879
 13.4054
 13.4354
 13.4886
 13.5464
 15.3063
 15.3995
 15.4339
 15.4719
 15.2328
 15.3459
 15.2672
 17.7553
 17.7591
 17.7638
 17.71
 15.9576
 15.8067
 15.771
 15.9077
 12.4856
 12.5546
 12.4366
 12.5587
 14.2445
 14.2173
 14.3168
 14.6898
 15.6615
 15.6101
 15.6447
 15.573
 14.6687
 14.7491
 14.6796
 14.6444
 13.0692
 12.9131
 12.8917
 13.0331
 15.6803
 15.6798
 15.5067
 16.3955
 13.6448
 13.5955
 13.7218
 13.5448
 15.6233
 15.4827
 17.1275
 17.1946
 15.6362
 15.5616
 15.6395
 15.7548
 12.9893
 12.8925
 12.3316
 12.3366
 12.2831
 12.3567
 14.928
 14.8406
 14.8201
 14.8477
 11.597
 11.5715
 11.4656
 11.5742
 14.8552
 14.845
 15.0482
 15.0314
 12.798
 12.783
 12.8353
 12.9901
 15.3984
 15.393
 15.3442
 15.3368
 12.6548
 12.5822
 12.726
 12.6333
 14.5018
 14.4195
 11.783
 11.8502
 13.2633
 13.1849
 13.3004
 13.1573
 13.2313
 13.2823
 13.2767
 13.1566
 13.8584
 13.9285
 13.827
 13.8204
 12.654
 12.8049
 12.656
 12.5472
 15.4309
 15.5307
 15.4704
 15.476
 11.8661
 11.9183
 11.9394
 11.6769
 11.643
 11.7684
 11.6839
 15.7376
 15.6249
 15.6259
 15.6741
 12.9733
 13.1139
 13.0938
 13.0383
 15.7282
 15.6476
 15.6378
 15.5545
 14.041
 14.2849
 14.1391
 14.1365
 14.2818
 12.3728
 12.3536
 12.3485
 12.4902
 16.8905
 16.9571
 16.9071
 16.8303
 13.0458
 12.9754
 12.8906
 12.9937
 14.0681
 13.9666
 14.17
 14.089
 13.0371
 13.1212
 13.1366
 13.1391
 13.2486
 10.9019
 10.9886
 11.1605
 11.0664
 12.596
 12.5939
 12.7745
 12.724
 17.0871
 17.0382
 16.9735
 17.1012
 14.5372
 14.6541
 14.7021
 14.5989
 15.0366
 13.9643
 13.9882
 13.9507
 13.8645
 12.0163
 12.0199
 12.1339
 12.198
 12.3928
 12.3964
 12.2799
 12.0229
 12.2911
 12.1605
 12.2178
 17.6365
 17.5911
 12.7604
 12.7636
 12.7445
 15.1043
 15.111
 15.1374
 15.0203
 12.892
 12.9478
 12.8648
 12.9672
 13.8485
 13.1824
 13.2915
 13.1746
 13.2138
 11.6777
 11.8785
 11.8245
 11.6897
 13.1925
 13.1112
 12.9553
 13.1646
 14.5784
 14.5416
 14.685
 14.4647
 15.7859
 15.7661
 15.8185
 15.7436
 11.0847
 11.2431
 11.0392
 11.1021
 12.9609
 13.0136
 12.9095
 13.0513
 11.274
 11.3363
 11.3068
 11.199
 15.0891
 15.2323
 15.0888
 15.0705
 13.8547
 13.9116
 11.7482
 11.5771
 11.7654
 11.671
 13.8592
 13.8248
 13.8261
 13.7215
 14.2562
 14.1317
 13.9546
 13.8847
 13.8281
 13.9509
 12.3201
 12.346
 12.3841
 12.2587
 14.8646
 14.9918
 15.0496
 14.9362
 16.1506
 16.0718
 16.1338
 16.1321
 15.8946
 15.9267
 15.9328
 15.9305
 14.9737
 14.9206
 14.9156
 15.0124
 14.4615
 14.6067
 14.5048
 14.4101
 14.572
 14.4972
 14.4475
 14.0622
 14.1418
 14.1742
 14.0917
 16.2025
 16.2341
 16.1897
 14.6836
 14.7331
 14.6091
 14.6295
 13.8972
 13.8027
 13.8092
 13.9411
 15.2097
 15.303
 15.1561
 15.3165
 15.0233
 14.9337
 14.9581
 14.9657
 13.708
 13.7018
 13.6177
 13.5411
 14.2229
 14.3139
 14.2321
 14.2619
 13.1239
 13.1734
 13.1126
 13.1523
 15.9324
 15.9063
 15.8709
 12.4941
 12.5511
 12.4076
 12.5425
 15.2071
 15.1117
 15.1746
 15.2491
 14.5029
 14.5671
 14.6126
 14.4706
 14.2866
 14.1954
 14.1637
 13.4768
 13.4882
 13.4452
 13.3584
 13.2533
 13.2354
 13.1644
 13.2956
 13.0517
 13.0331
 12.9318
 12.2731
 12.2244
 12.2403
 13.328
 13.3793
 13.4556
 13.3654
 12.1118
 12.0495
 12.1999
 11.9034
 11.8968
 11.9331
 12.0408
 14.2088
 14.409
 14.3003
 14.3432
 15.027
 15.1034
 15.0131
 15.0971
 15.4931
 12.2393
 12.2991
 12.109
 12.2243
 12.1311
 12.3484
 17.8133
 17.859
 17.8072
 17.7776
 12.7491
 12.8469
 14.4515
 14.5745
 14.4469
 11.259
 11.1228
 13.462
 13.6291
 13.582
 13.5559
 14.5379
 14.4834
 14.4806
 12.7315
 12.518
 12.6519
 12.5755
 15.0682
 15.0419
 15.1159
 15.0075
 17.2525
 17.1764
 17.1945
 17.2744
 13.6477
 13.6265
 13.6817
 13.533
 12.3147
 12.1054
 12.3144
 12.6094
 12.6118
 12.5846
 12.6882
 15.2637
 15.4171
 15.3771
 15.4772
 15.2872
 15.2037
 15.6192
 15.5411
 15.6489
 11.1867
 11.271
 12.3244
 12.4469
 12.3095
 12.4745
 13.9212
 13.7616
 13.7863
 12.8526
 12.9874
 12.7625
 12.7527
 15.2105
 15.3587
 15.3314
 15.2586
 14.1043
 14.1146
 14.0166
 13.9931
 14.1759
 14.0919
 14.0879
 14.1803
 15.3939
 15.3417
 15.3753
 15.1998
 15.2514
 15.2129
 15.2224
 10.7501
 10.616
 10.7065
 10.5554
 16.0129
 16.1351
 11.9725
 11.9294
 11.9459
 12.0264
 14.4809
 14.378
 14.4235
 14.4723
 13.9129
 13.8369
 13.8356
 13.8315
 15.9256
 15.8429
 13.9782
 14.0548
 14.0594
 14.1245
 14.4709
 14.5072
 14.5404
 14.434
 12.4367
 12.4639
 12.5055
 12.437
 14.2685
 14.1953
 14.1721
 14.3277
 15.134
 15.1307
 13.5142
 13.5121
 13.573
 13.4799
 12.9806
 13.033
 12.934
 13.9151
 13.8025
 13.8378
 13.7827
 15.5535
 15.5035
 15.5775
 15.4447
 17.3978
 17.3165
 17.3273
 17.4056
 14.237
 14.3045
 14.2276
 14.0987
 13.7744
 13.6222
 13.7351
 13.7702
 14.5835
 14.5251
 14.6441
 14.6194
 14.9105
 14.9742
 14.8991
 14.8486
 12.3898
 12.2606
 13.4686
 13.5236
 13.5646
 16.7146
 16.7536
 16.8041
 16.7039
 15.3749
 15.4585
 15.3129
 15.4913
 13.9556
 13.9147
 13.9877
 14.0244
 12.4137
 12.3635
 12.3608
 14.418
 14.4572
 14.5843
 14.5904
 15.189
 15.05
 15.1
 15.1967
 12.8212
 12.9573
 12.9686
 12.881
 13.4848
 13.5203
 13.5626
 13.5528
 12.4537
 12.4321
 12.4399
 12.7188
 12.6987
 12.7059
 12.6902
 14.7359
 14.7156
 14.7927
 14.8471
 14.3303
 14.3484
 14.2513
 17.2726
 17.2588
 17.2761
 17.3297
 15.185
 15.1813
 16.129
 16.1928
 16.0973
 16.0429
 15.4563
 15.8449
 12.0326
 15.0866
 15.1964
 15.1108
 15.2457
 11.1348
 13.4373
 13.5449
 13.437
 13.5834
 15.1252
 15.0154
 15.0728
 14.7027
 14.6167
 14.6147
 12.4184
 12.4046
 12.5676
 12.429
 12.5543
 12.6304
 12.5311
 12.6204
 15.669
 15.7976
 15.8021
 15.7098
 11.6558
 11.6273
 11.5857
 11.7359
 14.1046
 14.2073
 14.2885
 12.5671
 12.4711
 12.5379
 13.7129
 13.8176
 13.7785
 13.6939
 15.0815
 15.0247
 15.1551
 15.1111
 13.7685
 13.604
 13.7503
 14.9753
 14.9455
 14.9381
 15.0553
 14.4558
 14.3078
 12.4077
 12.3356
 12.3048
 12.2006
 12.0132
 11.858
 11.9418
 11.9857
 15.3906
 15.2882
 15.432
 15.346
 12.9082
 13.0714
 13.0038
 12.8755
 13.5317
 13.7049
 13.5582
 13.4878
 14.6487
 14.7362
 14.5974
 14.6557
 12.1624
 12.2135
 12.2581
 12.3168
 14.4194
 14.5147
 14.3557
 14.3931
 14.1065
 14.1927
 14.1949
 14.0219
 14.3737
 14.4431
 14.3511
 14.3381
 15.3263
 15.2241
 15.4878
 15.4175
 15.346
 15.4658
 16.2708
 16.4056
 16.3155
 16.2802
 13.4676
 13.473
 13.4773
 13.3568
 13.5772
 13.6959
 13.6834
 11.6896
 11.6599
 11.6323
 11.6434
 11.1447
 11.081
 11.1957
 11.8405
 11.7837
 11.9627
 13.7456
 13.6178
 13.5289
 13.6932
 13.1052
 13.0275
 12.9556
 13.1599
 12.4848
 12.3741
 12.469
 12.3565
 14.9869
 15.0949
 15.0681
 14.9998
 16.0856
 16.0045
 15.9592
 15.9603
 11.1949
 11.1874
 11.2864
 11.0559
 15.2093
 15.248
 15.2912
 15.1866
 13.8477
 13.8483
 13.7899
 13.8767
 11.0772
 11.1369
 11.2925
 10.9929
 13.3329
 13.4487
 13.2988
 13.3371
 14.5571
 14.61
 14.5668
 14.604
 15.1751
 15.2608
 15.2495
 15.8205
 15.713
 15.7789
 15.839
 15.5697
 15.6149
 15.5608
 15.6232
 15.4994
 15.574
 15.2679
 15.209
 15.3824
 12.5148
 12.5852
 12.6074
 12.6246
 11.8684
 11.9622
 11.926
 11.948
 13.2749
 13.3073
 13.2984
 13.448
 14.2921
 12.0342
 11.9827
 12.0025
 12.0779
 15.8794
 15.8853
 15.8923
 15.9127
 11.4279
 11.3381
 11.458
 11.2758
 14.7066
 14.803
 14.6465
 13.0331
 15.7577
 15.7629
 15.8313
 15.4222
 15.4746
 15.536
 15.3757
 13.9531
 13.9734
 14.1221
 14.0247
 12.8098
 12.8016
 12.8945
 12.7256
 14.3035
 13.0839
 13.1371
 13.1676
 14.263
 14.2909
 14.2609
 14.1519
 14.9918
 14.9619
 15.045
 15.0448
 14.6819
 14.8145
 14.7171
 14.7027
 13.0221
 15.3159
 15.3045
 15.2509
 12.5924
 12.6715
 12.5691
 12.6404
 12.2553
 12.2965
 12.1537
 12.3314
 11.8304
 11.763
 11.8486
 14.9887
 14.9824
 15.0587
 14.9752
 15.9509
 16.0144
 15.9561
 12.3829
 12.4092
 12.1591
 12.2075
 12.2696
 12.2721
 14.2987
 14.2907
 14.2145
 11.4009
 11.4491
 11.3427
 11.4672
 12.3732
 12.4229
 12.3731
 12.3168
 13.374
 13.3737
 13.3076
 13.2855
 13.8816
 13.8477
 13.9119
 14.0025
 15.2207
 15.2418
 15.2682
 15.1839
 12.2172
 12.2097
 12.271
 12.1109
 14.9227
 14.8926
 15.0236
 14.7126
 14.6219
 14.609
 14.5801
 11.8699
 11.8872
 11.7226
 11.8157
 13.0868
 13.0753
 13.1217
 13.1585
 11.3557
 11.4474
 11.5466
 11.4267
 14.705
 14.6307
 14.5889
 14.6027
 13.8957
 13.8537
 13.9821
 13.7714
 12.2491
 12.2643
 12.188
 12.2388
 13.9482
 13.8619
 13.9768
 13.9559
 11.3709
 11.2041
 11.3419
 15.0232
 15.058
 15.0803
 15.0638
 13.6734
 13.6775
 13.7039
 13.7868
 13.4197
 13.2989
 13.3935
 13.3777
 14.0865
 14.1546
 13.9868
 14.1062
 12.2927
 12.2989
 12.1483
 12.2352
 14.2724
 14.3862
 14.3167
 14.3548
 13.5264
 13.5568
 13.5371
 13.6284
 15.9399
 15.9343
 15.9549
 15.9388
 12.6488
 12.6234
 12.7211
 12.7749
 15.9463
 15.9481
 15.9487
 15.2608
 15.3088
 15.3066
 15.2483
 15.5844
 15.5396
 15.3631
 15.5024
 12.7521
 12.8051
 12.7241
 12.6471
 13.1556
 12.9991
 13.1221
 13.1019
 14.7081
 14.8056
 14.7983
 14.8584
 10.9841
 11.0737
 11.1797
 17.2259
 17.2446
 13.5147
 13.4116
 13.5724
 13.5284
 16.4396
 16.52
 16.6129
 16.5257
 13.1755
 13.1619
 13.0291
 13.0829
 14.6432
 14.9431
 14.9812
 15.0085
 15.0675
 12.8245
 12.7884
 12.7664
 12.7234
 12.1837
 12.2286
 12.1079
 12.2164
 15.9361
 15.9361
 13.0069
 12.9539
 12.7777
 12.9712
 13.6348
 13.8346
 13.619
 13.7237
 15.1264
 15.1234
 15.1937
 14.9888
 14.2803
 14.3741
 14.3968
 14.2693
 12.4101
 12.5471
 12.2909
 11.8314
 11.8724
 11.8548
 11.8723
 11.0992
 11.0957
 11.0584
 14.8774
 14.9416
 14.9217
 14.8612
 11.8265
 11.9256
 11.9602
 11.9815
 15.6566
 15.74
 15.706
 15.6809
 13.2641
 13.2622
 13.2354
 13.3681
 13.7821
 13.6489
 13.7491
 13.7428
 11.7896
 11.7955
 11.8059
 11.7084
 13.1265
 13.0549
 13.1635
 13.2301
 16.6452
 16.693
 16.7203
 16.6554
 14.289
 14.4448
 14.3003
 14.4163
 14.8158
 14.6641
 14.6793
 14.8044
 12.8373
 12.7701
 12.887
 12.9873
 15.5299
 15.603
 15.6393
 15.6269
 13.5295
 13.6132
 13.5837
 13.4535
 14.9017
 14.986
 14.9983
 15.9819
 16.0436
 16.0193
 16.075
 13.4336
 13.3307
 13.5111
 13.2519
 13.2693
 13.3357
 15.291
 15.3924
 15.4607
 15.482
 15.493
 15.4466
 15.4103
 11.905
 17.9044
 17.8579
 17.8665
 17.9406
 12.3279
 12.4218
 12.2329
 12.3405
 15.727
 14.6652
 14.6851
 14.713
 14.5687
 14.8424
 14.9051
 14.7059
 15.2336
 15.1017
 15.1641
 15.2093
 16.6393
 16.6646
 16.6067
 16.7282
 15.6598
 15.5812
 15.5862
 13.9248
 13.984
 13.9747
 14.8963
 14.9332
 10.8122
 10.9639
 10.9738
 15.5788
 15.4967
 15.622
 14.6938
 14.612
 14.5706
 11.8137
 11.6958
 11.7115
 12.7556
 12.7492
 12.6324
 12.7495
 15.1998
 15.1403
 15.1084
 15.9264
 16.0274
 11.5937
 11.7009
 11.5471
 11.5959
 16.3555
 16.3234
 16.4258
 16.2582
 15.5518
 15.5864
 17.3849
 17.4568
 17.0097
 17.0249
 16.9775
 14.6978
 14.6409
 14.7533
 11.6522
 11.7909
 11.8429
 13.0531
 13.0354
 12.927
 15.142
 15.0654
 14.9642
 14.9057
 15.0011
 12.1272
 15.9998
 16.0017
 15.9586
 15.9534
 14.8055
 14.6203
 14.7447
 14.7461
 12.8866
 12.9241
 12.8434
 12.9692
 12.9568
 13.0253
 12.991
 14.7185
 14.7547
 14.6598
 14.585
 13.0485
 13.0043
 12.9235
 12.9283
 12.6623
 12.7638
 12.7045
 12.5732
 14.1318
 12.997
 12.9797
 12.9509
 12.9114
 11.4498
 11.3833
 11.4465
 11.5354
 15.3461
 15.5179
 15.5412
 15.4133
 11.6909
 11.6169
 11.6844
 11.6969
 17.4543
 17.4265
 17.4901
 11.5917
 11.6686
 11.4638
 11.5298
 15.3118
 15.335
 15.429
 15.415
 12.6387
 12.7483
 12.6686
 12.5888
 15.5545
 15.5497
 15.7494
 15.7055
 11.2563
 12.4146
 12.5805
 12.5174
 12.6323
 12.1119
 11.9919
 12.0459
 15.874
 15.8221
 15.9065
 15.9433
 12.7695
 12.8594
 12.8516
 12.9162
 13.6238
 13.5232
 13.5118
 13.5537
 13.7693
 13.7039
 13.8609
 13.8665
 11.0825
 11.2236
 14.501
 14.4889
 14.5004
 14.708
 14.6228
 14.5861
 14.528
 12.9368
 13.0104
 12.817
 12.8068
 12.93
 12.8715
 12.8718
 12.779
 13.4301
 13.4189
 13.3279
 13.4589
 15.3171
 15.3096
 15.0646
 15.1332
 15.1374
 14.6932
 14.6207
 14.6176
 14.6031
 16.0622
 16.1396
 16.1297
 16.1313
 14.7988
 14.8599
 14.9494
 16.5966
 16.6003
 16.5069
 14.7847
 14.7976
 14.8876
 14.7239
 15.2893
 15.157
 15.3145
 14.2806
 12.9261
 12.9613
 12.8263
 14.5583
 14.5935
 14.5232
 14.4591
 15.6111
 15.602
 15.3706
 15.492
 14.1392
 14.0716
 14.0335
 14.0293
 12.4632
 12.5392
 10.9379
 11.0464
 11.1214
 10.9246
 12.8587
 12.9136
 12.8078
 12.9854
 14.5028
 14.524
 14.5348
 14.4751
 11.327
 11.3146
 11.0924
 11.405
 11.6346
 11.5724
 11.5451
 13.9974
 14.1391
 14.1788
 14.0485
 15.8172
 15.847
 15.7638
 14.4233
 14.4355
 14.3096
 14.4215
 15.845
 15.9721
 15.8503
 15.9738
 13.1701
 13.1782
 13.1464
 13.3924
 15.9208
 15.9181
 15.9276
 15.896
 15.2774
 15.2106
 15.1851
 15.2369
 11.5768
 11.7116
 11.5523
 11.6724
 13.9075
 13.9045
 13.9996
 13.8987
 14.8026
 14.8682
 14.7696
 14.8517
 12.9517
 12.926
 12.5518
 12.3656
 12.4213
 12.4381
 14.6036
 14.4881
 14.5189
 14.3866
 14.3486
 14.2799
 14.3268
 14.3403
 15.7412
 15.6815
 15.7631
 14.6322
 14.7062
 14.763
 17.7041
 17.7923
 17.723
 17.7683
 15.2083
 15.161
 15.8815
 15.833
 15.8714
 15.955
 13.6133
 13.7192
 13.6238
 13.7508
 16.6091
 16.5121
 16.4635
 16.5558
 15.4736
 15.5015
 15.6071
 13.2251
 13.1893
 13.2026
 13.2588
 15.4175
 15.336
 15.4533
 15.5549
 15.5482
 15.6377
 15.6244
 14.7063
 14.7668
 14.7512
 14.6422
 12.64
 12.35
 17.0682
 17.0304
 15.2447
 15.3283
 14.4486
 14.5381
 14.5014
 14.5166
 13.2964
 13.2151
 13.2964
 13.1475
 14.1415
 14.1336
 14.0746
 14.054
 15.8292
 15.9842
 15.8561
 15.9213
 13.6711
 13.8028
 13.7305
 15.7919
 15.8187
 15.7735
 15.7774
 11.9628
 11.9443
 11.8563
 12.0115
 13.3199
 13.3246
 13.3301
 13.4351
 15.6688
 15.5993
 15.7
 14.3983
 14.5184
 14.4114
 14.3544
 15.9279
 15.9353
 15.8974
 15.4597
 15.3639
 15.3943
 15.4534
 15.5778
 15.597
 15.5011
 15.5632
 14.5496
 14.6343
 14.6632
 14.6953
 11.56
 11.6271
 11.7183
 11.6819
 13.5315
 13.3964
 13.4506
 13.434
 14.5173
 14.6495
 14.5503
 13.9465
 13.9994
 13.9924
 12.0852
 12.2313
 12.0971
 12.1869
 13.4403
 13.4112
 13.5331
 13.368
 14.6408
 14.5613
 14.5176
 14.5352
 16.0479
 16.0193
 15.694
 15.7566
 15.6413
 15.6394
 17.2214
 17.2484
 17.324
 17.2139
 12.8915
 12.8695
 12.8654
 12.9192
 15.3784
 15.4881
 15.4522
 15.4609
 14.1327
 14.2417
 14.1703
 14.2937
 16.2
 16.2421
 16.2262
 16.2644
 13.8478
 13.9075
 13.9679
 13.9562
 14.3913
 12.92
 13.0125
 13.0578
 13.023
 14.5873
 14.7058
 14.7313
 14.6101
 14.6016
 14.5482
 14.4777
 14.5089
 14.879
 14.9746
 14.9374
 15.0054
 15.6069
 15.7096
 15.5508
 12.3649
 12.3351
 12.2965
 12.5137
 14.6367
 14.6716
 14.6725
 14.7093
 12.4865
 12.432
 12.3508
 13.2508
 13.3297
 13.2544
 13.3174
 12.699
 12.5257
 12.6225
 12.5163
 15.6406
 15.5571
 15.6575
 17.9537
 17.913
 17.902
 13.0225
 12.8846
 12.9195
 13.8193
 13.6328
 13.7312
 13.6257
 14.8013
 14.7535
 14.7047
 14.7845
 14.5007
 14.4566
 14.599
 14.5663
 16.7976
 16.7322
 16.8807
 16.7285
 14.0887
 14.1428
 14.1531
 14.1667
 13.6332
 13.6334
 13.5274
 13.6545
 15.4017
 15.4004
 15.1528
 15.3444
 15.2489
 15.236
 13.1637
 13.2568
 13.1959
 13.1923
 15.5118
 15.4037
 13.5453
 13.5959
 15.7955
 17.7812
 17.8
 17.7863
 17.7244
 16.1816
 16.0879
 11.2437
 11.0946
 11.2188
 15.9671
 15.882
 15.8055
 15.8904
 13.0217
 12.9999
 15.2968
 15.3196
 15.305
 15.2998
 14.9487
 14.773
 14.8467
 12.8974
 12.8566
 12.8826
 12.7548
 13.4178
 13.3086
 13.4034
 13.3696
 12.3287
 12.3251
 12.2023
 14.5492
 14.6431
 14.5412
 14.6921
 14.244
 12.2301
 12.4394
 12.2816
 12.334
 15.931
 15.9591
 15.8964
 15.8546
 14.0117
 14.0992
 13.9652
 14.068
 12.832
 13.0138
 12.8825
 12.975
 17.3745
 17.3565
 17.3292
 17.3237
 15.6359
 11.3092
 14.7194
 14.5655
 14.6649
 14.7644
 13.9796
 13.8808
 14.0073
 14.0465
 15.2884
 15.4221
 15.3493
 15.319
 13.9129
 13.969
 13.9249
 13.9017
 15.7459
 15.7238
 15.6283
 15.7542
 15.6717
 15.6089
 15.6801
 14.4913
 14.389
 14.5418
 14.4826
 12.7739
 12.663
 12.8917
 10.8632
 10.7164
 10.8466
 10.9263
 16.8702
 16.9635
 16.972
 14.3502
 14.3568
 14.4351
 14.3907
 14.501
 14.3553
 11.9002
 11.908
 11.9503
 11.7983
 13.0504
 13.1349
 13.1034
 13.1917
 15.6079
 15.4609
 15.5694
 16.385
 14.6155
 14.7435
 14.6969
 14.6256
 14.352
 14.282
 14.2996
 13.2557
 13.3192
 13.2955
 13.2188
 12.8962
 13.0216
 12.9299
 12.9943
 14.669
 14.7421
 13.0598
 13.07
 13.0459
 12.9602
 13.8493
 13.8821
 13.8529
 13.7565
 11.6662
 11.587
 13.5139
 13.6173
 13.5272
 13.5729
 13.1109
 13.0544
 13.0362
 12.9713
 13.3086
 13.2395
 13.3056
 13.3109
 14.2948
 14.2323
 14.5736
 14.4993
 14.58
 14.6439
 14.9299
 15.0236
 14.9812
 14.9551
 13.815
 13.7386
 13.7395
 13.7975
 15.7044
 15.6328
 15.574
 15.5307
 15.3132
 15.3338
 15.3724
 15.338
 17.0699
 17.0102
 17.0184
 17.1067
 14.9264
 15.0865
 13.8589
 14.0286
 13.9014
 13.9537
 14.6966
 14.718
 14.6747
 14.6016
 14.0408
 13.9695
 13.9219
 14.0053
 14.5292
 14.5105
 12.8929
 12.9378
 11.3347
 11.3111
 11.2919
 11.2722
 15.905
 14.5997
 14.6116
 14.5784
 14.5047
 14.1966
 14.2943
 14.2596
 14.2367
 15.1175
 15.1804
 15.2039
 15.29
 13.1363
 13.2783
 13.1543
 13.2792
 13.953
 14.0238
 14.0585
 13.9588
 15.7536
 15.7892
 15.7089
 15.7921
 15.839
 14.7688
 14.6619
 14.7965
 14.7528
 14.8673
 14.7268
 14.8372
 14.857
 15.6045
 15.6
 15.6883
 15.6046
 15.3482
 15.3202
 15.1911
 15.2516
 14.399
 14.3023
 14.444
 14.4518
 15.7119
 15.7707
 15.808
 15.7729
 13.8989
 13.8674
 14.007
 15.2148
 15.2154
 15.2352
 15.2495
 16.6178
 16.5596
 13.9046
 13.8299
 13.8062
 14.0716
 13.95
 13.9986
 13.9408
 15.8762
 15.805
 15.7703
 16.1772
 16.1299
 16.1294
 16.1628
 13.5159
 13.5429
 13.4497
 13.5445
 13.9682
 14.1102
 13.9621
 12.6809
 12.895
 12.7959
 14.2971
 14.3786
 14.359
 12.3275
 12.3532
 12.3042
 17.1571
 17.2194
 17.2205
 17.163
 11.6595
 11.6088
 11.6828
 11.5962
 14.9986
 15.0901
 13.7932
 13.8721
 15.5631
 15.559
 15.5837
 15.4936
 13.6079
 13.6576
 13.5302
 12.8394
 12.7504
 12.7721
 12.7545
 12.2464
 12.4187
 15.9139
 15.9023
 15.9481
 13.9041
 13.9139
 14.0146
 15.3366
 15.4245
 15.3168
 15.8329
 15.8315
 15.8573
 15.8958
 14.6128
 14.5683
 14.6701
 14.5289
 14.7396
 14.8501
 14.829
 14.7503
 13.218
 13.2489
 13.2632
 13.142
 12.9275
 13.0236
 12.9684
 13.104
 14.8162
 14.7984
 14.73
 13.5596
 13.6005
 13.6612
 13.2157
 13.113
 13.1704
 13.1307
 10.5664
 10.6503
 10.5318
 14.267
 14.299
 14.3003
 13.1652
 13.0977
 13.2382
 14.3663
 14.3091
 14.4385
 15.024
 15.1388
 15.1122
 15.9094
 15.8734
 15.8894
 15.8651
 14.2777
 14.5095
 14.4008
 14.4741
 15.2185
 15.2488
 15.3188
 15.6551
 15.5509
 13.3342
 13.4053
 13.2437
 13.3489
 13.315
 13.217
 13.3683
 13.4339
 15.5735
 15.47
 15.4195
 15.3929
 15.6923
 15.7999
 15.7342
 15.8063
 16.3418
 16.3924
 16.3391
 16.4281
 11.7528
 11.6977
 12.4507
 12.6101
 12.5187
 12.4322
 11.543
 15.0853
 14.9708
 15.0816
 14.1853
 14.1567
 14.2357
 14.277
 15.6532
 15.6579
 14.4243
 14.454
 14.3415
 15.977
 15.9406
 12.5965
 12.5892
 12.4657
 12.6897
 12.1536
 12.1942
 11.9812
 12.1126
 12.8903
 12.8721
 12.9853
 15.0049
 14.93
 14.9353
 12.1898
 12.2105
 12.1646
 12.1379
 15.272
 15.3911
 15.3014
 15.2557
 12.796
 12.8686
 12.901
 12.8031
 15.199
 15.3044
 15.3258
 15.1573
 15.7025
 15.6636
 15.7341
 11.5496
 11.3443
 11.4405
 11.5017
 15.8913
 15.8478
 15.8692
 14.6503
 14.6186
 14.4941
 14.5747
 11.6049
 11.4791
 11.5444
 15.1959
 15.2714
 15.1583
 15.2219
 13.424
 11.8886
 11.813
 12.0695
 11.927
 16.0483
 16.0224
 15.9734
 16.0294
 13.3039
 13.4711
 13.3414
 13.3007
 14.3286
 14.2937
 14.4273
 15.6805
 15.7424
 15.6691
 15.8541
 13.441
 13.4846
 13.3855
 15.3493
 15.392
 17.0865
 17.1706
 17.092
 17.0365
 16.2308
 16.4359
 16.4441
 12.1065
 12.1621
 11.9386
 12.1053
 12.1413
 12.0635
 16.1743
 16.1515
 16.2425
 16.1199
 14.7819
 14.7382
 14.7497
 14.6894
 14.4672
 14.6052
 14.5994
 14.5645
 13.8912
 13.9339
 13.8107
 13.918
 13.8871
 14.057
 13.9499
 14.0453
 11.7718
 15.7753
 15.8192
 15.7688
 15.8006
 11.7241
 11.819
 11.6763
 13.8395
 13.9482
 14.0052
 13.9595
 15.8601
 15.7676
 15.7361
 14.0175
 14.1075
 14.0404
 14.1109
 14.3285
 13.2557
 13.2231
 13.0954
 13.1423
 15.2823
 15.291
 15.2841
 14.3317
 14.1625
 14.2371
 11.6068
 11.6578
 11.7914
 11.675
 14.3365
 14.3544
 14.4007
 17.4327
 17.4066
 17.4877
 14.3461
 14.4177
 14.3515
 14.5149
 13.2018
 13.0924
 13.1293
 14.2343
 14.2039
 12.3886
 12.3179
 12.4544
 12.4274
 12.9196
 12.8131
 12.8652
 12.891
 11.4772
 11.5218
 11.6038
 11.6929
 13.9728
 14.1708
 14.028
 13.996
 13.0355
 13.0679
 13.1056
 13.1442
 12.3949
 12.3043
 12.2138
 15.4203
 15.3614
 15.5139
 15.4534
 14.4442
 14.3435
 14.9612
 15.0372
 14.9531
 14.9898
 13.3397
 13.3483
 13.3624
 13.282
 14.3636
 14.2696
 14.2931
 14.4012
 13.4602
 13.5233
 13.3898
 13.516
 14.2617
 14.2379
 14.1346
 14.1342
 14.4149
 14.4971
 14.4969
 12.443
 12.5296
 12.4743
 11.9688
 11.9641
 12.0013
 11.8178
 12.4228
 12.4263
 12.3405
 13.0812
 12.9105
 13.0478
 16.8845
 16.8787
 16.955
 14.4688
 14.3398
 14.4402
 12.5707
 12.5179
 12.5871
 12.5869
 14.4721
 14.4236
 14.4805
 13.8939
 13.8674
 13.8502
 13.9644
 13.3953
 13.622
 13.5477
 13.5508
 14.3352
 14.2486
 14.2808
 14.2058
 15.5285
 15.4665
 15.5165
 15.5687
 14.4321
 13.9094
 13.9246
 13.8611
 14.0607
 15.8976
 15.8628
 15.8496
 15.8552
 15.8369
 15.7581
 15.8098
 15.7598
 15.6828
 15.6143
 15.6595
 15.7007
 13.419
 13.4496
 13.3023
 13.2426
 15.365
 15.423
 15.3848
 15.3728
 11.1881
 11.3196
 11.2234
 11.3164
 16.3658
 16.3169
 16.2544
 16.2589
 15.3509
 15.3401
 15.3654
 16.0225
 16.0961
 16.1459
 16.1281
 15.648
 15.7154
 15.5868
 15.8282
 15.8112
 14.1746
 14.1904
 14.1145
 13.967
 12.0323
 12.1363
 12.1691
 11.9574
 11.9832
 11.8992
 12.023
 15.6407
 15.7112
 11.4391
 11.36
 11.4751
 12.403
 12.4266
 12.3892
 12.3204
 15.665
 15.7144
 15.6504
 11.5876
 11.5293
 11.6384
 11.4959
 14.9054
 14.8838
 14.8109
 14.97
 15.6213
 15.7413
 15.683
 15.5978
 16.0926
 15.9457
 16.0062
 16.0346
 16.6837
 16.6469
 16.7302
 16.7305
 13.643
 13.4519
 13.5595
 13.4684
 14.8332
 14.8315
 14.871
 15.0056
 11.5201
 11.6882
 11.5321
 17.4806
 17.3901
 17.4517
 17.345
 16.2607
 16.1714
 16.2208
 16.1448
 11.6634
 11.4718
 11.5764
 11.5838
 14.336
 14.3194
 14.2353
 12.3147
 12.1555
 12.1296
 15.4858
 15.4917
 15.6153
 11.4703
 11.6186
 11.619
 11.5277
 12.2948
 12.3405
 12.3689
 12.47
 15.2338
 15.1808
 15.0938
 15.1767
 14.8544
 14.9618
 14.8576
 14.9804
 12.8197
 12.8144
 12.7752
 12.6564
 14.0865
 14.1486
 14.218
 14.1714
 16.4294
 16.3388
 16.3434
 16.3388
 12.2553
 12.5011
 12.3425
 12.4013
 11.336
 14.1082
 14.0797
 14.0102
 14.0123
 11.9608
 11.8905
 11.9095
 11.7837
 15.8842
 15.8838
 15.8675
 15.8663
 11.5366
 11.4341
 11.5747
 11.6258
 14.3986
 14.4222
 14.8102
 14.8657
 14.7956
 14.7577
 12.8351
 12.9517
 12.9649
 12.9621
 13.8786
 13.7532
 13.7695
 14.8566
 14.8749
 14.8333
 12.8597
 12.8638
 12.9992
 13.0072
 12.9782
 13.0399
 12.9212
 13.0099
 15.5542
 15.6482
 15.6552
 14.3349
 14.1122
 14.1156
 14.2384
 16.4716
 16.3879
 16.2986
 16.423
 16.4983
 11.4324
 11.6474
 11.4201
 11.6171
 14.1647
 14.2271
 14.2733
 14.1719
 12.0467
 11.9627
 14.5583
 14.713
 14.7093
 15.3105
 15.4051
 15.2469
 15.2744
 11.6197
 11.6607
 11.5731
 11.5682
 15.7643
 15.7292
 15.7446
 15.2945
 15.3365
 15.2606
 15.3282
 14.9076
 14.8016
 14.8791
 15.0053
 13.2663
 13.0484
 13.1662
 13.1165
 15.4344
 15.3004
 15.3772
 15.3873
 12.8823
 13.7052
 13.5772
 13.5415
 13.7238
 12.002
 11.9578
 12.083
 11.679
 11.7311
 11.7425
 11.8354
 13.6396
 13.5885
 13.7303
 13.6649
 11.0932
 11.0973
 11.0939
 11.2367
 14.9558
 13.7675
 13.9169
 13.9266
 13.8115
 14.1384
 14.2996
 14.2339
 14.1853
 16.6718
 16.5802
 16.5565
 16.6502
 14.3867
 14.3596
 14.322
 14.447
 14.6823
 14.6581
 14.6236
 14.5824
 14.585
 14.5654
 14.4905
 12.2044
 12.329
 12.3794
 14.6546
 14.7619
 14.7481
 14.6719
 12.1971
 12.0177
 12.1155
 14.2482
 14.3157
 14.1274
 14.0599
 14.0929
 14.001
 14.032
 13.9988
 14.2199
 14.1939
 14.0556
 14.1035
 12.1261
 12.0536
 12.0608
 14.9157
 11.8705
 13.8655
 13.7881
 13.8711
 13.9792
 15.5835
 15.5601
 15.6726
 15.3989
 15.3022
 15.2639
 14.1088
 14.0735
 14.176
 14.3097
 14.3149
 14.2602
 14.2066
 14.2282
 14.3098
 14.1582
 14.292
 17.5283
 17.5129
 17.5933
 12.8218
 12.9615
 12.8246
 14.4208
 14.382
 12.4278
 12.6029
 12.5572
 12.6003
 13.7106
 13.619
 13.7058
 16.5848
 16.5909
 16.6833
 16.6457
 14.6135
 14.7451
 14.6527
 14.6794
 15.5234
 15.5723
 15.6241
 15.6553
 13.3227
 13.4791
 13.4018
 13.3378
 15.0739
 15.1463
 15.0902
 15.2042
 16.4197
 16.436
 16.4458
 14.8775
 14.9169
 14.9727
 14.9482
 13.2797
 13.152
 13.1934
 13.1947
 14.2863
 14.1765
 14.1572
 14.2225
 15.4024
 15.454
 15.3978
 14.7838
 14.8636
 14.8245
 14.8452
 15.4246
 15.5284
 15.4057
 15.5017
 15.8344
 15.7121
 15.7155
 15.8536
 11.7425
 11.6625
 11.7031
 11.6621
 15.7019
 15.623
 15.652
 15.6214
 15.4444
 15.5131
 15.4082
 15.4214
 13.5877
 13.4344
 13.497
 13.4124
 14.8731
 14.9097
 14.8091
 14.8441
 10.7512
 10.685
 10.699
 10.6808
 14.6271
 14.6764
 14.5797
 15.8458
 15.9167
 15.886
 15.803
 15.7445
 15.7915
 15.7592
 15.7936
 15.5822
 15.7282
 13.2347
 13.3351
 13.244
 13.3977
 11.0629
 11.1624
 11.1051
 11.1215
 14.7315
 14.8321
 14.7755
 14.8357
 15.5992
 15.6632
 15.6737
 13.3988
 13.515
 13.5354
 13.4223
 14.4957
 14.5237
 14.4492
 14.3874
 15.3264
 15.3256
 15.3366
 15.2489
 15.8933
 15.7466
 15.8359
 12.6744
 12.559
 12.5092
 12.6428
 12.5416
 12.5318
 12.6523
 14.6993
 14.6891
 14.6212
 14.5832
 14.635
 14.6948
 14.5704
 15.3319
 15.2399
 15.2005
 15.2125
 13.4304
 13.4543
 13.5405
 15.6074
 15.6036
 15.7106
 14.1401
 14.0187
 14.0702
 12.4863
 12.6337
 12.561
 13.2301
 13.2612
 14.9337
 14.8628
 14.9385
 14.8543
 14.8156
 14.8605
 14.4382
 14.5657
 15.2247
 15.9981
 15.979
 16.0609
 12.1436
 12.1599
 12.3359
 14.703
 14.6245
 14.6559
 14.7249
 15.2844
 14.246
 14.1642
 13.375
 13.35
 13.3965
 13.296
 14.2771
 14.3713
 14.2591
 14.638
 14.5836
 14.7411
 14.6165
 14.8819
 14.6993
 14.6272
 14.706
 14.7463
 14.5721
 12.2128
 12.3252
 12.3558
 12.2757
 12.1473
 12.0539
 11.885
 11.9462
 15.6442
 15.5584
 14.2247
 14.2643
 14.2931
 14.3713
 13.9298
 13.8997
 13.8649
 13.8169
 13.4725
 13.3738
 13.4839
 13.5016
 14.4702
 14.5268
 14.5683
 14.4511
 14.6233
 14.5556
 14.6045
 14.6604
 12.4744
 12.6492
 12.5037
 12.5479
 15.4474
 15.3312
 15.3194
 15.2451
 15.4864
 15.3709
 15.4339
 12.7381
 12.6294
 12.5008
 12.4626
 15.3731
 15.2989
 15.3242
 15.2509
 12.0265
 12.0816
 11.9904
 12.0509
 12.4972
 12.567
 12.5307
 12.5849
 14.8023
 14.7497
 14.8435
 14.7936
 13.1779
 13.1401
 13.2156
 13.324
 15.2856
 15.2285
 15.1521
 15.1241
 12.9162
 12.979
 12.949
 15.6797
 15.6189
 15.6947
 15.6447
 13.7666
 13.7988
 13.7376
 13.6925
 14.8774
 14.8468
 12.9949
 12.829
 12.9041
 12.9593
 12.877
 12.8986
 12.9712
 14.5665
 14.4259
 14.5554
 12.6995
 12.7129
 12.6671
 12.5594
 16.4078
 16.3671
 16.3055
 16.3405
 15.2787
 15.2458
 15.1534
 15.1392
 13.6553
 13.8012
 13.7821
 13.6418
 12.0608
 12.0423
 12.1264
 12.0461
 12.408
 12.2972
 12.2717
 12.3884
 11.8848
 11.8829
 11.8586
 12.1495
 12.1104
 15.0258
 14.9578
 15.0324
 14.9353
 15.516
 15.4781
 15.6265
 15.5391
 15.1615
 15.1578
 14.9423
 14.8338
 14.9158
 14.9097
 14.6538
 14.6403
 14.5237
 14.6387
 15.5544
 15.5515
 15.6275
 14.0477
 14.1167
 14.0972
 14.1417
 10.7476
 10.7905
 10.906
 15.0001
 15.0176
 14.9846
 14.8936
 12.4479
 12.6
 12.5039
 12.464
 13.2656
 13.126
 13.1689
 14.2006
 14.2627
 14.1493
 13.2499
 13.1209
 13.2588
 12.4725
 12.5861
 13.3504
 13.3322
 13.3305
 15.2528
 15.2134
 15.1864
 15.3019
 11.9631
 11.8807
 11.9695
 12.0092
 13.7345
 13.5968
 13.6828
 16.7715
 16.865
 16.8942
 16.7794
 15.7058
 15.7566
 13.9052
 14.9156
 14.7848
 14.8707
 14.9145
 14.1657
 14.0544
 14.0608
 13.0404
 13.0069
 13.1008
 13.0377
 11.968
 11.8932
 14.3514
 14.3989
 14.393
 14.4607
 15.8096
 15.8779
 15.8872
 15.772
 12.384
 12.3052
 12.3292
 12.381
 13.61
 13.5626
 13.6295
 17.3362
 17.3712
 17.4466
 17.4483
 15.6409
 15.6593
 15.749
 15.0923
 15.0154
 15.1479
 15.0652
 13.7529
 13.7426
 13.8142
 13.6686
 14.2605
 14.1729
 15.9327
 15.9015
 15.9112
 15.9077
 13.5342
 13.4134
 15.1443
 15.2597
 15.1876
 15.1588
 14.7152
 14.6707
 14.7949
 14.7103
 14.2571
 14.1512
 14.0989
 14.1874
 15.1081
 15.1581
 15.2688
 13.2633
 13.4254
 13.2638
 13.3846
 12.6593
 12.5608
 12.4627
 12.6464
 12.799
 12.8125
 12.8046
 12.6824
 15.8452
 15.9446
 15.8691
 15.9417
 14.2876
 14.3556
 16.9708
 17.0689
 17.0213
 17.1129
 14.7716
 14.8728
 14.9163
 11.4771
 17.717
 17.6944
 17.6974
 17.8205
 14.3347
 14.2729
 14.3346
 14.3214
 15.001
 14.902
 14.9517
 12.7138
 12.6169
 12.5946
 12.7264
 12.7092
 12.7526
 12.6271
 12.6367
 12.7707
 12.7192
 12.819
 12.8635
 15.2246
 15.1389
 15.2806
 15.1396
 15.5807
 15.6175
 15.6627
 15.6568
 13.5452
 13.5527
 13.4161
 13.5601
 14.6688
 14.8158
 14.6342
 14.7304
 10.9617
 11.9592
 11.9022
 13.7715
 13.7817
 14.5821
 14.6675
 14.6454
 11.8811
 11.6899
 11.8151
 11.8464
 14.3992
 14.4472
 13.8839
 13.9738
 16.5805
 16.4973
 16.5986
 16.51
 15.2408
 15.2777
 15.3516
 15.298
 13.5632
 13.4256
 13.5454
 13.4578
 16.3887
 16.4875
 16.4132
 16.3729
 11.1588
 11.2198
 11.0869
 11.2098
 12.0499
 12.2047
 11.8066
 11.8914
 11.9911
 11.8025
 12.6892
 12.5922
 14.8442
 14.7876
 14.8557
 17.5349
 17.4545
 17.5599
 17.5542
 16.2845
 16.2232
 16.2083
 16.2878
 12.0003
 11.8978
 11.9995
 12.0672
 13.1022
 12.9339
 13.0228
 14.055
 14.1554
 14.2299
 14.1052
 15.1199
 15.0009
 15.0943
 15.1338
 12.2987
 12.1849
 12.2778
 11.9732
 14.1352
 14.0048
 15.1363
 15.1004
 13.3695
 13.2508
 13.411
 13.3669
 15.5216
 15.641
 15.4865
 15.6546
 15.7135
 15.8166
 15.7772
 17.4326
 17.2932
 17.3092
 17.3593
 15.0602
 15.0034
 15.0134
 14.925
 12.3974
 12.3761
 12.6128
 12.5004
 12.5688
 12.5005
 15.2863
 15.2902
 15.1941
 15.3584
 12.9281
 12.9973
 12.8881
 13.3319
 13.3366
 13.2948
 13.3905
 12.5318
 12.4145
 12.5439
 12.4069
 15.1541
 15.0595
 15.0916
 15.134
 11.6808
 11.8867
 14.6205
 16.815
 16.7837
 16.7216
 16.6925
 12.9107
 12.9472
 12.8479
 16.3306
 16.3894
 16.3353
 16.4222
 13.2536
 13.2652
 13.2603
 13.1549
 15.8075
 15.8116
 15.917
 15.7763
 15.495
 15.5074
 15.4171
 15.3967
 13.4638
 13.376
 13.3618
 14.9219
 14.8715
 14.9497
 15.0063
 13.7138
 13.7301
 13.6583
 13.8245
 13.8392
 13.9402
 12.5257
 12.4852
 12.502
 13.2822
 13.2634
 13.3378
 16.9145
 16.903
 16.8212
 16.8874
 15.6387
 15.5423
 15.6822
 15.511
 12.2424
 12.4063
 12.4122
 12.4219
 12.7521
 12.7956
 15.3654
 15.1818
 15.3541
 13.3094
 13.451
 13.4322
 13.4998
 13.3871
 13.4235
 13.469
 15.2299
 15.2808
 15.2191
 15.1953
 11.7545
 11.7576
 14.8475
 14.8877
 14.8439
 14.7918
 15.3214
 15.3147
 15.2808
 13.2567
 13.2222
 14.308
 14.3508
 14.3446
 14.2339
 15.8227
 15.8627
 13.5681
 13.6262
 14.8421
 14.9771
 14.9515
 14.877
 14.0377
 14.0408
 14.1173
 13.9714
 14.0517
 14.1194
 14.0595
 16.0352
 16.0168
 16.0635
 15.8973
 16.3187
 16.3191
 16.252
 16.2867
 13.203
 13.2797
 13.3715
 13.3024
 12.1544
 12.1428
 12.2255
 12.2248
 13.8442
 13.7844
 13.8819
 14.2443
 14.3092
 14.3558
 14.2916
 14.2279
 12.8229
 12.794
 15.062
 14.9631
 15.0543
 15.083
 15.456
 12.1581
 12.1863
 12.2759
 12.2285
 14.2104
 14.3798
 14.3332
 14.241
 17.301
 17.2469
 14.5474
 14.6748
 14.5474
 16.9176
 16.8935
 16.9406
 16.8533
 13.6624
 13.7449
 13.6754
 13.7216
 15.831
 15.7214
 15.699
 15.2458
 15.16
 11.6015
 11.618
 11.6187
 11.8656
 11.8578
 11.9261
 15.6235
 15.4863
 15.2722
 15.2776
 17.1024
 17.1584
 17.1696
 17.1867
 12.1594
 12.3266
 12.1287
 15.5107
 15.4956
 15.4374
 15.5699
 15.3299
 15.37
 15.2594
 15.3703
 13.2563
 13.2084
 13.1623
 13.225
 13.6901
 13.4583
 13.5739
 13.2861
 13.2695
 13.394
 13.2755
 12.8466
 12.9743
 12.7432
 13.0267
 15.8842
 15.8758
 15.61
 15.6053
 15.5561
 13.7773
 13.8316
 13.9346
 13.8899
 15.4244
 15.4335
 15.3217
 15.3592
 13.1204
 13.1905
 13.1677
 13.1037
 15.8438
 15.7263
 12.2384
 12.319
 12.2756
 12.3787
 13.1108
 13.294
 13.213
 13.0806
 15.0966
 15.0857
 15.1192
 15.0306
 12.4852
 12.3493
 14.6018
 14.5764
 14.5388
 14.5173
 16.398
 16.3777
 16.3918
 16.3746
 15.8399
 15.7847
 15.8434
 15.7628
 11.5394
 11.489
 11.4412
 11.4609
 12.0461
 12.0985
 12.1447
 15.1459
 15.1645
 15.1778
 11.6116
 11.5334
 14.5293
 14.4803
 14.5501
 14.4085
 12.3884
 12.4682
 12.3671
 12.4702
 15.3793
 15.4306
 15.3635
 15.4411
 16.0521
 15.9592
 16.0099
 12.6276
 12.4904
 12.5
 12.5344
 14.7734
 14.6382
 14.6608
 14.698
 15.5527
 15.5176
 15.4522
 15.6195
 15.8693
 16.0174
 15.8381
 13.7848
 13.9004
 13.7267
 14.1477
 14.1241
 14.2102
 14.0849
 13.8381
 13.8511
 13.7386
 13.8722
 14.8725
 14.771
 14.8679
 14.7805
 15.2836
 15.2603
 15.2047
 15.3296
 15.6501
 15.7388
 13.4126
 13.2585
 13.4187
 13.4173
 14.0452
 14.1897
 14.0757
 14.1406
 13.9963
 14.1471
 14.1688
 14.2237
 14.0367
 14.1046
 16.8536
 16.8165
 16.7503
 16.8
 12.0209
 11.8916
 12.0154
 14.7281
 14.7383
 14.7547
 14.8335
 14.3978
 14.4827
 14.4004
 15.7523
 15.6854
 15.7939
 15.7615
 15.4948
 15.5858
 15.5207
 15.546
 14.7787
 14.7494
 14.6678
 15.3672
 15.4207
 13.0957
 13.1635
 13.0096
 11.3961
 11.3686
 11.4794
 11.4154
 15.496
 15.5969
 15.593
 15.4708
 14.4031
 14.3127
 14.2822
 14.3885
 12.8183
 12.7874
 12.8965
 12.8962
 15.4149
 15.3761
 15.4513
 15.3094
 15.1635
 15.1052
 15.072
 14.9884
 12.6073
 12.7101
 12.8424
 12.8166
 15.1933
 15.0824
 12.2073
 12.2506
 12.1422
 13.8406
 13.9345
 16.136
 16.1822
 16.2013
 16.2262
 14.7499
 14.7043
 14.6737
 14.697
 16.1994
 16.2433
 16.1958
 14.445
 14.4644
 13.6277
 13.5566
 13.4396
 13.6188
 14.7511
 14.7438
 13.4126
 13.3048
 14.8354
 14.8983
 14.844
 14.8094
 13.4038
 13.4917
 13.3645
 13.3389
 12.9341
 12.8102
 12.6989
 12.782
 11.6795
 11.6618
 11.7196
 11.7116
 14.3344
 14.2778
 15.4582
 15.4603
 15.6198
 15.6644
 12.8711
 12.9967
 15.7148
 15.6178
 15.6828
 16.6616
 16.6452
 16.5084
 16.567
 16.8166
 16.7438
 16.7866
 14.1256
 13.9979
 14.0115
 14.0296
 14.8182
 14.7278
 14.8012
 15.532
 15.121
 15.0425
 15.1655
 15.0604
 15.557
 15.4861
 15.6264
 15.5332
 14.9052
 14.9844
 14.8877
 14.9788
 13.2629
 13.4673
 13.4606
 13.2938
 11.6682
 11.7184
 11.7201
 11.6072
 14.5814
 14.6135
 14.4688
 14.5117
 12.6163
 12.6767
 12.4751
 12.5129
 15.1306
 13.2236
 13.3837
 13.308
 13.3332
 16.0886
 16.1444
 16.0939
 16.0896
 13.1966
 13.083
 13.0745
 14.9892
 12.13
 12.1196
 12.1869
 11.9869
 11.8558
 11.8499
 11.8421
 11.814
 11.9587
 11.8533
 11.8201
 14.213
 14.2314
 14.2033
 14.336
 11.9219
 11.912
 11.8598
 11.8641
 15.5497
 15.6169
 15.635
 15.6574
 13.4946
 13.5413
 13.5284
 13.6442
 14.6109
 14.4883
 14.5097
 14.5998
 16.4805
 16.4128
 16.4685
 13.6422
 14.4158
 14.4445
 14.4925
 14.3645
 11.9119
 11.8119
 11.8135
 11.7781
 11.9233
 11.8443
 11.7396
 11.7795
 13.5595
 13.5936
 13.5228
 13.6114
 15.112
 15.1774
 15.2122
 15.1737
 14.7203
 14.6092
 14.6815
 12.0854
 12.017
 12.1006
 12.2145
 11.8512
 11.7823
 11.7963
 11.8867
 15.5753
 15.6288
 15.6278
 12.6803
 12.5807
 11.878
 11.911
 11.8895
 15.5159
 15.5828
 15.469
 15.4613
 13.0599
 12.8869
 13.0884
 13.1152
 14.7507
 13.8298
 13.8035
 13.7344
 13.8239
 13.5566
 13.6481
 13.5342
 13.7147
 11.9162
 11.8508
 12.4364
 12.2899
 12.3892
 12.2724
 12.4803
 12.311
 12.3849
 12.256
 12.5825
 12.7137
 12.5408
 12.6867
 13.0739
 12.981
 13.0604
 13.0017
 16.3354
 16.2265
 11.989
 11.939
 11.8592
 15.9075
 15.9264
 15.9028
 15.2902
 15.4191
 15.4467
 15.3274
 12.9884
 13.0581
 12.9684
 12.8643
 14.5381
 14.6415
 14.5959
 14.5849
 11.3199
 11.4249
 11.3198
 11.2257
 13.8888
 13.9155
 13.8378
 13.8684
 12.5564
 12.4654
 12.5765
 13.3965
 13.3983
 13.9164
 14.0854
 13.9548
 13.9567
 14.1045
 14.2546
 14.1341
 14.2169
 15.6756
 15.6325
 15.618
 13.4971
 13.4013
 13.4472
 13.3546
 14.8551
 14.8118
 14.7336
 12.221
 12.2498
 12.0923
 12.2818
 11.8131
 13.7383
 13.8979
 13.9122
 13.8106
 13.4311
 13.3512
 13.3376
 13.3793
 13.5559
 13.6172
 13.6612
 17.5243
 17.5835
 17.5004
 17.5027
 15.3304
 15.2455
 15.7988
 15.8809
 14.4418
 14.6089
 14.5631
 14.4918
 17.9735
 17.9415
 11.4228
 11.3835
 11.341
 11.2445
 13.0345
 12.8194
 15.6792
 15.6941
 15.6354
 15.6389
 14.4232
 14.4106
 14.3288
 14.3649
 12.4728
 12.3556
 12.4042
 12.5359
 15.2095
 15.2473
 15.1635
 15.1994
 14.5401
 14.6236
 14.5034
 14.5563
 12.3778
 12.3179
 12.3118
 12.1961
 14.5546
 14.5182
 14.5156
 14.6515
 11.7117
 11.8175
 11.7871
 11.8296
 13.5252
 13.4331
 13.4639
 15.327
 15.3274
 15.465
 15.3465
 13.6981
 13.7965
 13.7282
 13.8067
 14.0278
 14.1119
 14.942
 14.7877
 14.7629
 13.4551
 13.4797
 13.3498
 13.3264
 11.6017
 11.6135
 11.5045
 11.5074
 12.1467
 12.0536
 11.9741
 12.1655
 15.4381
 15.4557
 15.5408
 15.5106
 15.8884
 15.8977
 15.919
 15.9071
 15.6481
 15.7734
 15.6836
 15.7322
 16.0001
 15.9877
 16.0259
 14.1825
 14.2036
 14.1806
 14.3351
 12.6942
 12.6345
 13.0776
 12.9282
 13.0203
 13.0298
 12.8156
 12.7385
 12.8749
 15.3408
 15.4206
 15.3905
 15.4502
 14.2186
 14.1986
 14.1279
 14.1461
 11.3039
 11.2898
 11.2545
 11.1904
 13.9664
 14.0273
 14.0746
 13.9572
 13.8
 13.9273
 13.7868
 13.9002
 12.0766
 12.0064
 12.1148
 12.1086
 15.7387
 15.8805
 15.8252
 15.7753
 13.0979
 13.1052
 15.7947
 15.8646
 12.5749
 12.6976
 12.5906
 12.4908
 14.0077
 14.0263
 13.9731
 14.1154
 16.1752
 16.0849
 16.1482
 15.8175
 15.849
 15.8974
 15.8932
 15.0458
 15.1618
 14.0031
 14.0532
 13.9739
 14.0471
 13.3657
 13.3814
 13.292
 14.734
 14.8232
 14.8119
 14.7173
 14.8333
 14.6798
 14.8383
 14.7376
 12.8564
 12.966
 12.9231
 12.9188
 16.0383
 16.0441
 16.0001
 11.5053
 11.478
 11.6453
 11.6199
 13.6145
 13.6497
 13.6313
 15.491
 15.4554
 15.4199
 11.8358
 11.839
 11.9526
 11.7802
 12.5834
 15.0795
 15.1953
 15.1793
 15.1394
 11.9695
 12.1852
 12.0957
 12.0014
 13.6193
 13.4805
 13.5268
 11.5613
 11.5377
 11.5368
 11.5511
 11.9867
 12.0794
 12.076
 11.958
 11.9107
 16.1665
 16.1027
 14.4208
 14.4582
 14.3196
 14.4044
 16.2794
 16.3378
 16.3329
 16.3032
 14.9779
 13.5772
 13.5361
 13.7075
 13.0954
 13.0034
 12.9089
 13.0946
 14.9618
 14.946
 15.0237
 15.0567
 15.275
 15.2983
 13.7273
 13.6637
 13.6695
 15.1762
 15.2366
 15.1666
 15.1064
 15.3005
 15.2958
 15.2452
 15.2197
 11.8736
 11.8241
 14.9261
 14.8465
 14.9208
 14.9337
 16.0225
 15.8712
 16.0254
 15.908
 15.3299
 15.3112
 15.1112
 15.2798
 15.9816
 16.0432
 15.9781
 12.7061
 12.8188
 12.6885
 13.1416
 13.1287
 11.9944
 11.9641
 12.0593
 15.6476
 15.7541
 15.7201
 15.7446
 15.5246
 15.4723
 15.4326
 17.6561
 17.5567
 17.6499
 17.7039
 12.7778
 12.9413
 12.7733
 12.6976
 15.1622
 15.1141
 15.1742
 15.0183
 13.6232
 13.7116
 13.6721
 13.6081
 12.8889
 12.9224
 13.0463
 12.9803
 15.4972
 15.4911
 15.4529
 15.41
 14.4505
 14.3567
 14.4595
 13.2247
 13.2037
 13.1264
 13.583
 13.5871
 13.6323
 13.5041
 14.5312
 14.646
 14.6523
 14.6391
 13.537
 13.4814
 13.4365
 16.0231
 15.8506
 15.9947
 15.9749
 14.3026
 14.2923
 14.2739
 14.3839
 15.5722
 15.6637
 15.6623
 15.6219
 15.7169
 15.8563
 15.6935
 15.7256
 11.1571
 11.0003
 11.2177
 15.5821
 15.6568
 15.5883
 11.2185
 12.6644
 12.6476
 12.8098
 12.7467
 15.8162
 13.1321
 15.1106
 15.1229
 15.1918
 15.1717
 16.0229
 16.0826
 16.1287
 16.0763
 13.371
 14.4984
 11.507
 11.5407
 11.5335
 11.5585
 17.5616
 17.4921
 17.5202
 15.1299
 15.2118
 15.2325
 15.9285
 16.0074
 10.9764
 10.9059
 11.0768
 11.016
 14.7199
 14.8801
 14.7775
 14.7487
 12.5127
 12.3813
 12.3714
 13.5363
 13.6345
 13.2967
 13.3469
 13.1615
 13.2784
 11.8733
 11.9603
 11.9944
 11.9095
 14.4999
 14.5075
 14.3526
 14.4055
 12.1136
 12.0431
 12.1704
 12.1068
 14.2577
 14.1939
 14.0809
 14.2301
 12.8394
 12.8254
 12.7699
 12.9049
 12.6834
 12.8141
 12.6945
 12.4553
 15.384
 15.5267
 15.351
 15.2944
 14.1611
 11.7204
 11.5307
 11.6139
 11.5856
 13.844
 13.8184
 13.9582
 13.7775
 13.6592
 13.6486
 15.6626
 15.7195
 15.753
 15.6378
 14.978
 15.0745
 14.9752
 14.2147
 14.2394
 14.2847
 14.3521
 11.3095
 11.4422
 11.4594
 11.4225
 15.2384
 15.2408
 15.3161
 15.3386
 13.14
 13.3082
 13.2978
 13.2285
 14.3051
 14.2806
 14.3707
 15.7246
 15.6366
 15.6762
 15.6549
 16.6093
 16.5962
 16.7035
 16.5596
 14.992
 15.0812
 15.1144
 12.3954
 12.3935
 12.3188
 13.8712
 12.9044
 13.0492
 12.9807
 12.9824
 15.1984
 15.2282
 15.2128
 15.2148
 12.1705
 11.9769
 12.0752
 12.118
 13.9745
 14.1347
 13.401
 13.4748
 13.4422
 13.3797
 13.2809
 13.3195
 13.5095
 16.7453
 16.6984
 16.8256
 16.7363
 10.8597
 10.6516
 10.7145
 10.8427
 14.9464
 14.8517
 14.8955
 15.4406
 15.3776
 15.5168
 15.3473
 13.2839
 13.4196
 13.3594
 17.2813
 17.3625
 17.4084
 17.3332
 12.9315
 12.93
 12.7392
 12.7036
 12.8172
 12.7916
 15.8709
 15.9312
 15.8987
 15.9604
 15.6327
 15.6311
 15.5944
 15.6708
 16.3989
 16.3147
 16.2704
 16.3961
 14.5155
 16.4805
 16.415
 16.4302
 16.3896
 12.8331
 12.9634
 12.9854
 13.0374
 15.6161
 15.5159
 13.1207
 13.0454
 13.0493
 13.1902
 12.3783
 12.3049
 12.3784
 12.3185
 11.3419
 11.2593
 11.273
 11.1201
 17.5458
 17.5782
 17.4725
 13.6194
 13.4992
 13.5386
 13.5605
 12.6332
 12.6025
 12.7215
 12.6553
 16.7677
 16.6956
 16.6684
 16.7733
 13.6625
 12.8413
 12.79
 12.7533
 12.8797
 11.9506
 11.8832
 11.9517
 14.5186
 14.4788
 14.492
 14.4167
 11.4931
 11.3174
 11.2481
 11.3326
 13.8267
 13.7732
 13.834
 13.8494
 13.7011
 15.2919
 15.4194
 15.2663
 13.9426
 14.069
 14.0185
 13.8941
 14.0643
 14.0276
 13.9879
 14.1276
 14.9391
 15.0694
 15.0326
 15.9662
 16.5569
 16.4712
 16.6423
 13.423
 13.3263
 13.3724
 12.9251
 12.8897
 12.9568
 15.391
 15.2841
 15.3444
 15.1938
 13.1375
 13.2115
 12.1115
 12.1669
 12.2184
 12.1628
 11.7555
 11.7903
 11.7957
 12.247
 12.1575
 13.5174
 13.427
 13.5053
 12.4188
 12.5705
 12.4719
 15.6011
 17.3375
 17.3798
 17.3049
 17.3218
 13.698
 13.6669
 13.7658
 13.7375
 17.0951
 17.0708
 16.9833
 17.1083
 13.0318
 13.0325
 12.9551
 14.1695
 14.2202
 14.303
 14.3252
 15.2214
 15.1516
 15.3217
 15.2622
 13.7747
 13.7435
 13.6398
 12.9499
 12.8725
 14.397
 14.2764
 14.3693
 14.3373
 14.9089
 14.8356
 14.8849
 15.6023
 15.5979
 15.5922
 13.5808
 13.5598
 13.4707
 13.6218
 12.7955
 12.6746
 12.7665
 12.6955
 10.8501
 10.9357
 10.8073
 10.9237
 14.033
 14.0428
 10.7919
 10.8846
 10.9376
 13.3394
 15.8696
 15.7897
 15.7151
 15.7547
 15.2228
 15.1494
 15.2152
 15.1717
 13.4108
 13.492
 13.4425
 12.1321
 12.032
 15.9526
 15.9208
 16.0081
 15.8969
 12.9235
 12.9762
 15.8837
 15.9279
 13.8257
 13.8371
 13.8911
 16.1102
 16.1813
 16.0703
 15.1778
 15.1943
 15.2392
 15.2247
 12.0999
 12.0949
 12.0317
 12.1075
 14.7229
 14.7114
 14.7015
 14.4657
 14.6082
 14.5274
 14.5175
 11.8522
 11.9961
 11.9948
 12.0144
 16.6289
 16.5947
 16.6618
 14.1939
 14.3107
 14.2545
 12.7312
 12.6626
 13.2028
 13.2328
 13.3507
 13.332
 16.8189
 16.75
 16.7705
 16.8023
 15.3396
 15.3369
 15.3219
 15.2487
 12.5417
 12.4966
 12.4478
 12.4284
 12.4538
 12.4962
 12.5009
 12.5661
 14.5819
 14.7016
 14.5958
 14.6235
 11.2173
 11.0354
 11.0735
 11.2004
 15.5686
 15.486
 15.6009
 16.8457
 16.9225
 16.898
 13.8155
 13.7658
 13.2015
 13.1742
 13.2654
 13.2065
 12.1797
 12.2414
 12.0613
 12.0567
 14.848
 14.0412
 14.6122
 14.5217
 14.4741
 14.4111
 17.6698
 17.7787
 17.763
 17.6567
 12.8068
 12.8531
 15.3455
 15.2985
 15.2328
 14.9968
 15.0412
 14.9308
 14.8978
 15.8625
 15.9317
 14.8414
 14.8561
 14.9234
 14.7964
 15.6725
