 -26.2314
 -27.2873
 -27.1112
 -27.6859
 -49.9024
 -50.3435
 -50.94
 -51.3552
 -43.3142
 -42.3894
 -43.4761
 -42.678
 -44.5309
 -43.43
 -43.4274
 -42.8119
 -64.7449
 -65.346
 -64.1337
 -63.7978
 -62.1372
 -61.3494
 -62.816
 -61.6222
 -22.6426
 -22.0912
 -22.2656
 -22.5963
 -23.3225
 -23.498
 -23.5086
 -23.1855
 -61.6257
 -61.2239
 -60.1147
 -61.0038
 -61.6405
 -61.7829
 -61.4787
 -62.9285
 -20.537
 -20.2173
 -20.7114
 -20.805
 -42.3618
 -42.5644
 -41.6184
 -42.1931
 -29.6461
 -29.6126
 -28.9937
 -30.2355
 -53.0796
 -51.3589
 -50.6603
 -51.9273
 -38.6851
 -38.2744
 -38.8756
 -39.5578
 -24.5969
 -24.1027
 -24.9694
 -24.1524
 -59.4175
 -60.0108
 -59.1066
 -60.1605
 -45.1847
 -44.5021
 -45.4537
 -44.7701
 -39.4914
 -39.8975
 -40.0364
 -40.6808
 -55.9856
 -56.1517
 -56.6885
 -57.2646
 -23.0851
 -22.3158
 -23.1243
 -22.5812
 -66.4271
 -66.8188
 -67.4709
 -67.2247
 -14.0907
 -13.8208
 -13.7211
 -14.1502
 -49.9178
 -50.1168
 -48.8154
 -48.7583
 -37.6895
 -36.9835
 -37.5773
 -38.0925
 -41.0933
 -41.4537
 -40.9421
 -40.6539
 -33.8729
 -34.8836
 -35.3524
 -33.9182
 -24.221
 -23.6976
 -24.2932
 -24.1702
 -29.3242
 -29.1173
 -28.4717
 -28.913
 -51.6751
 -51.6772
 -50.8456
 -50.1456
 -38.1096
 -39.375
 -37.7357
 -38.3091
 -29.7359
 -30.346
 -30.3534
 -29.7372
 -47.9078
 -46.8313
 -48.3407
 -47.069
 -49.8626
 -49.3755
 -49.2475
 -49.5205
 -30.013
 -29.3972
 -30.1925
 -28.9299
 -25.5491
 -25.4311
 -25.399
 -25.464
 -46.8914
 -45.2392
 -46.815
 -46.228
 -20.3874
 -20.7175
 -20.767
 -20.9841
 -47.9489
 -47.9198
 -49.7284
 -49.1447
 -67.6331
 -67.1091
 -67.3652
 -66.8502
 -42.317
 -42.1483
 -42.6115
 -41.1508
 -50.5744
 -51.5633
 -51.0356
 -50.947
 -21.5952
 -21.5211
 -21.9565
 -21.1857
 -45.8135
 -45.1718
 -45.4441
 -46.5666
 -61.1385
 -60.9441
 -62.0021
 -61.6334
 -27.829
 -28.4144
 -28.1609
 -27.907
 -46.5868
 -48.0143
 -47.6557
 -47.564
 -24.9464
 -25.5072
 -24.9101
 -24.2624
 -30.8322
 -30.2933
 -30.0556
 -29.737
 -39.6805
 -38.9023
 -38.6809
 -38.1604
 -23.9953
 -23.8038
 -23.593
 -23.9324
 -40.0457
 -39.2504
 -39.2248
 -39.9085
 -31.7526
 -30.7431
 -31.6739
 -30.377
 -42.6125
 -43.1664
 -42.3452
 -43.1911
 -28.9256
 -29.5731
 -29.211
 -30.1349
 -42.1303
 -41.933
 -42.8514
 -41.4489
 -48.0511
 -48.3537
 -48.9012
 -49.3965
 -50.0803
 -49.6613
 -50.3008
 -48.5832
 -28.026
 -28.0862
 -27.0757
 -28.4527
 -33.1307
 -32.6985
 -32.9017
 -33.923
 -15.039
 -14.6952
 -14.4625
 -14.7943
 -29.3098
 -29.2307
 -28.5127
 -29.1375
 -38.3509
 -39.5284
 -39.0689
 -39.373
 -32.19
 -32.0318
 -33.2523
 -31.4286
 -31.8919
 -32.8801
 -31.7324
 -32.7108
 -23.9665
 -23.5868
 -24.1044
 -24.1242
 -57.3726
 -58.621
 -58.7848
 -57.1778
 -65.2091
 -65.6032
 -65.7777
 -65.9351
 -40.5941
 -41.7538
 -39.7088
 -40.3245
 -29.5772
 -29.3915
 -30.0422
 -29.1489
 -47.5629
 -48.1603
 -48.7327
 -47.4844
 -23.1603
 -22.0286
 -22.4197
 -22.3996
 -22.9078
 -22.4008
 -22.2515
 -23.0565
 -14.371
 -14.0916
 -14.5373
 -14.436
 -42.891
 -43.8144
 -43.3793
 -44.3823
 -27.6164
 -28.4643
 -28.6689
 -27.6837
 -26.0684
 -25.4872
 -26.1609
 -26.6451
 -65.9388
 -66.5765
 -66.2012
 -66.7357
 -25.2096
 -25.0324
 -24.5282
 -25.1813
 -26.355
 -25.9968
 -25.5115
 -26.282
 -27.4894
 -28.0728
 -27.4934
 -26.9038
 -34.8691
 -34.5998
 -35.4375
 -35.2325
 -26.6145
 -27.382
 -26.8646
 -27.0739
 -30.6613
 -31.2218
 -31.4392
 -30.8937
 -32.9753
 -32.7646
 -32.4689
 -32.1037
 -24.9443
 -24.2236
 -25.2091
 -24.4673
 -13.1821
 -13.052
 -13.669
 -13.691
 -23.6337
 -23.89
 -24.2619
 -23.9216
 -43.1889
 -42.7657
 -43.7817
 -42.0247
 -43.5429
 -43.3004
 -44.2482
 -43.4788
 -49.4649
 -49.3598
 -48.7346
 -50.5255
 -22.9445
 -22.8941
 -23.0339
 -23.2619
 -66.4149
 -66.5375
 -66.1102
 -67.1226
 -49.537
 -50.5443
 -49.5815
 -49.6846
 -20.761
 -20.7305
 -20.1892
 -20.2266
 -31.0795
 -31.0948
 -30.6904
 -32.2345
 -25.9688
 -26.4124
 -25.4195
 -25.7797
 -26.235
 -25.8485
 -25.8772
 -23.1237
 -23.053
 -23.0104
 -22.8193
 -45.6018
 -44.95
 -44.4109
 -46.0607
 -33.9296
 -35.162
 -34.6195
 -33.9387
 -44.4255
 -45.4888
 -44.8526
 -29.4382
 -28.441
 -29.0198
 -28.6655
 -36.6541
 -37.1165
 -36.9052
 -36.0052
 -55.2673
 -54.3744
 -54.3271
 -56.1743
 -23.4386
 -23.5916
 -24.4987
 -24.1356
 -25.1926
 -24.7115
 -24.4585
 -24.7934
 -43.3813
 -42.2825
 -41.9455
 -42.3007
 -48.2686
 -47.6172
 -49.5682
 -49.3093
 -21.6837
 -21.6626
 -21.3983
 -20.9623
 -24.7572
 -24.9089
 -25.9249
 -25.6275
 -32.5501
 -33.564
 -34.1396
 -32.7299
 -63.0884
 -63.9281
 -63.3451
 -63.5145
 -42.8217
 -43.9377
 -44.135
 -43.7287
 -36.78
 -35.3192
 -36.7321
 -36.702
 -15.6004
 -15.0212
 -15.6525
 -15.5936
 -34.9318
 -34.0312
 -35.1414
 -35.7786
 -54.6497
 -53.6975
 -54.7166
 -53.0039
 -27.0666
 -26.002
 -27.6194
 -27.172
 -25.6618
 -25.8115
 -25.0951
 -25.4889
 -25.0468
 -24.3687
 -24.5762
 -24.7706
 -19.8285
 -19.7778
 -19.7773
 -19.9882
 -26.1944
 -25.2033
 -25.2523
 -25.243
 -43.9878
 -43.7243
 -43.8831
 -43.1628
 -22.3421
 -22.5198
 -22.7349
 -22.961
 -62.3655
 -61.516
 -61.7667
 -62.2166
 -22.8321
 -22.0531
 -22.1781
 -22.7367
 -54.8748
 -53.168
 -54.7445
 -53.7161
 -34.593
 -33.7727
 -33.8012
 -34.3812
 -30.848
 -31.5202
 -31.8914
 -31.0204
 -28.3968
 -28.4681
 -29.3926
 -28.6227
 -27.0048
 -26.9825
 -26.4971
 -26.2266
 -66.278
 -66.6518
 -66.8257
 -66.8101
 -27.6539
 -27.3235
 -27.6235
 -27.3848
 -67.5244
 -67.1092
 -67.3878
 -66.8161
 -48.5029
 -48.3782
 -49.7586
 -48.7494
 -17.3587
 -18.0028
 -17.8633
 -17.3027
 -62.4691
 -62.1646
 -63.1051
 -63.5366
 -24.667
 -25.4959
 -24.8429
 -24.2585
 -16.8888
 -16.6104
 -16.483
 -16.8182
 -53.0302
 -52.8258
 -52.2901
 -52.9562
 -64.9571
 -65.6238
 -65.2775
 -65.1872
 -39.0291
 -39.4345
 -38.7818
 -38.6694
 -50.9729
 -49.7456
 -51.3738
 -50.2699
 -26.1215
 -25.3136
 -25.71
 -25.6493
 -41.429
 -41.0672
 -41.5159
 -42.5503
 -30.5848
 -30.0532
 -30.7534
 -30.8096
 -23.4994
 -23.7683
 -23.4031
 -23.3805
 -20.9289
 -20.8156
 -20.8161
 -21.2804
 -34.0669
 -33.6871
 -34.6029
 -33.4066
 -36.8234
 -36.9953
 -36.567
 -35.9854
 -25.8934
 -25.7354
 -26.2038
 -26.5486
 -25.6226
 -24.8068
 -25.6525
 -25.4601
 -44.9861
 -45.0679
 -44.108
 -44.3313
 -62.3926
 -62.4802
 -63.2602
 -63.3285
 -60.9301
 -59.9683
 -61.038
 -61.1584
 -60.4624
 -58.9646
 -59.2296
 -59.8874
 -45.6715
 -45.1084
 -45.9924
 -44.8595
 -25.5283
 -24.6921
 -25.3437
 -25.0872
 -25.8509
 -26.2912
 -26.4858
 -26.6527
 -36.1231
 -35.9545
 -34.4865
 -34.5651
 -49.164
 -48.411
 -50.5248
 -49.8212
 -48.6993
 -47.955
 -48.2193
 -49.0686
 -39.9023
 -39.0283
 -39.5581
 -39.7086
 -42.5072
 -43.338
 -42.0532
 -42.3949
 -21.266
 -21.1705
 -21.4591
 -22.0136
 -11.3153
 -11.0791
 -11.3514
 -10.8459
 -27.4406
 -27.3348
 -26.463
 -26.9486
 -12.8392
 -13.3926
 -13.2383
 -27.4197
 -27.2988
 -27.7041
 -26.7726
 -55.6843
 -54.954
 -55.3926
 -54.5947
 -38.8443
 -39.4766
 -39.5909
 -40.3468
 -62.7418
 -62.2635
 -63.6003
 -62.2839
 -25.4826
 -25.609
 -24.9102
 -25.5707
 -46.8482
 -46.291
 -47.8173
 -47.48
 -40.0401
 -40.2177
 -38.9783
 -39.2936
 -64.8511
 -65.2216
 -65.6554
 -64.754
 -54.2958
 -54.1482
 -54.6122
 -55.8929
 -27.4009
 -28.204
 -27.6553
 -27.3659
 -46.2729
 -46.0933
 -45.1332
 -46.1199
 -56.0445
 -54.0315
 -55.3351
 -54.2347
 -16.8658
 -16.1788
 -16.5025
 -16.2253
 -38.2593
 -38.7763
 -39.1854
 -39.3033
 -55.2426
 -55.4833
 -56.467
 -55.6534
 -44.0791
 -45.051
 -43.2743
 -45.5067
 -53.1218
 -51.9388
 -53.3729
 -53.1045
 -25.9069
 -26.5462
 -26.9306
 -27.0115
 -53.7626
 -56.3193
 -53.8466
 -55.8812
 -33.2563
 -33.7955
 -32.1979
 -33.0835
 -35.3851
 -35.9153
 -36.5314
 -35.2108
 -53.7458
 -53.8251
 -52.7036
 -54.3035
 -67.8955
 -67.4372
 -67.5204
 -67.8821
 -21.3812
 -21.7436
 -22.0225
 -22.2035
 -30.1463
 -30.7684
 -31.2692
 -30.3473
 -41.1438
 -40.6185
 -40.0153
 -40.3144
 -54.5147
 -55.2392
 -55.1924
 -55.1876
 -28.0092
 -27.5061
 -27.686
 -27.7156
 -22.3395
 -23.1284
 -23.4738
 -22.5065
 -47.494
 -47.5351
 -46.3135
 -46.2496
 -43.4361
 -44.4087
 -43.4745
 -43.8325
 -63.1776
 -63.6502
 -64.2644
 -63.1089
 -24.0154
 -24.8284
 -23.8314
 -24.5066
 -65.4078
 -65.9599
 -65.7801
 -65.4275
 -29.609
 -30.6682
 -30.1836
 -29.847
 -11.6472
 -11.5664
 -11.723
 -11.8535
 -59.2651
 -60.3535
 -60.4456
 -60.1921
 -45.9878
 -46.6959
 -45.4965
 -44.1829
 -61.5129
 -61.4539
 -60.8239
 -60.5057
 -36.3346
 -35.2995
 -36.1768
 -36.572
 -34.3584
 -35.0104
 -35.2118
 -34.551
 -51.8822
 -50.504
 -50.9334
 -50.9777
 -25.4683
 -25.7743
 -25.1478
 -25.6038
 -24.4517
 -24.8808
 -24.8904
 -24.6726
 -14.7251
 -14.4514
 -14.493
 -14.3671
 -39.8137
 -40.6083
 -40.9772
 -41.541
 -37.0661
 -36.475
 -37.9985
 -37.017
 -44.5274
 -42.8926
 -43.7174
 -44.8004
 -30.2983
 -31.4007
 -31.4901
 -30.0475
 -61.9678
 -61.6913
 -62.5347
 -61.206
 -64.8523
 -66.099
 -64.9524
 -64.5587
 -45.1187
 -45.6754
 -46.7752
 -46.7717
 -9.08109
 -9.03683
 -9.14268
 -9.30354
 -32.8328
 -32.3043
 -33.0479
 -31.9082
 -33.5601
 -33.2703
 -32.3698
 -33.2766
 -32.9226
 -33.0398
 -32.081
 -32.072
 -52.3079
 -51.8032
 -53.2368
 -51.4838
 -16.1466
 -16.6976
 -15.7757
 -16.1115
 -13.863
 -13.8994
 -13.4373
 -13.3569
 -51.7338
 -50.8166
 -51.9005
 -50.6323
 -28.7779
 -29.7654
 -28.4019
 -29.7087
 -32.1521
 -32.1025
 -32.422
 -32.4603
 -44.5807
 -43.8138
 -43.6776
 -42.4973
 -24.875
 -25.2386
 -25.5389
 -25.1587
 -54.6712
 -53.0844
 -53.5142
 -54.3088
 -30.4708
 -28.9872
 -29.7801
 -28.7154
 -29.0683
 -28.8539
 -28.1978
 -28.9099
 -22.4522
 -22.0396
 -22.7674
 -21.8821
 -32.7245
 -33.9919
 -33.0647
 -34.0282
 -56.9181
 -57.6652
 -57.6535
 -56.6633
 -46.4116
 -47.8258
 -48.21
 -46.9194
 -24.6935
 -24.5503
 -25.2412
 -25.2248
 -27.8876
 -28.8632
 -28.8828
 -27.8939
 -61.4667
 -61.7611
 -62.3115
 -62.3439
 -54.3729
 -53.589
 -54.2008
 -53.5573
 -33.5957
 -33.255
 -32.6636
 -33.2345
 -22.7891
 -22.9124
 -22.8642
 -23.1082
 -18.3046
 -19.2968
 -19.1318
 -18.4858
 -45.1598
 -44.2133
 -43.6517
 -44.8465
 -22.8857
 -22.2286
 -22.8293
 -21.4432
 -57.605
 -56.3783
 -56.2131
 -57.4585
 -41.722
 -43.1526
 -42.2818
 -41.315
 -58.0412
 -57.7817
 -57.3569
 -57.3825
 -47.7823
 -46.6255
 -46.541
 -47.1918
 -33.5593
 -33.1285
 -33.5074
 -34.1653
 -25.9832
 -24.8561
 -25.1341
 -25.5807
 -19.3104
 -20.2871
 -19.405
 -19.5017
 -21.6004
 -20.7148
 -21.6704
 -21.3898
 -25.5643
 -24.6708
 -24.507
 -24.808
 -35.5623
 -35.8751
 -35.6544
 -34.2842
 -35.851
 -35.8216
 -36.2958
 -35.0899
 -37.0439
 -36.1066
 -37.8475
 -36.8246
 -46.2163
 -45.447
 -46.4797
 -46.3118
 -16.3048
 -15.7647
 -15.8647
 -15.8175
 -39.8961
 -40.0699
 -39.6114
 -40.5746
 -24.5346
 -23.7424
 -24.0512
 -24.2784
 -31.9003
 -33.0477
 -32.27
 -32.9329
 -64.3811
 -63.0268
 -64.3664
 -64.1754
 -34.735
 -34.2331
 -34.2175
 -33.844
 -23.0679
 -22.7535
 -22.9458
 -22.1952
 -31.4173
 -31.373
 -31.9671
 -32.469
 -26.2485
 -26.6925
 -26.6143
 -26.0547
 -33.7721
 -32.7081
 -34.0024
 -33.2268
 -16.4914
 -16.0592
 -16.2634
 -16.6236
 -32.3798
 -32.4437
 -33.3443
 -33.36
 -46.3933
 -46.0324
 -46.7955
 -46.2546
 -42.2442
 -42.3426
 -42.8534
 -42.3685
 -60.6332
 -58.7676
 -60.436
 -59.4798
 -27.7989
 -27.6351
 -28.3198
 -27.8284
 -25.8655
 -26.3914
 -25.8808
 -27.1591
 -58.507
 -57.2946
 -58.8028
 -58.6063
 -26.5716
 -26.5455
 -27.414
 -26.5822
 -57.1374
 -56.5419
 -57.6476
 -56.5798
 -38.3944
 -39.8408
 -38.8739
 -39.409
 -35.793
 -34.4068
 -35.7358
 -36.0373
 -25.9026
 -26.6076
 -26.4468
 -25.8418
 -34.2992
 -34.1756
 -35.1024
 -34.0874
 -58.0353
 -57.3318
 -58.0985
 -58.1484
 -11.4866
 -11.5699
 -11.6512
 -11.2078
 -22.5948
 -22.4926
 -22.4948
 -22.6453
 -22.5325
 -22.5794
 -22.5143
 -22.079
 -28.8382
 -29.1342
 -28.4637
 -29.5807
 -32.0071
 -31.3358
 -31.91
 -31.4768
 -28.2156
 -27.8519
 -27.5955
 -28.3959
 -63.4229
 -62.8385
 -64.4145
 -62.4951
 -25.4849
 -25.0606
 -25.1793
 -26.0001
 -44.5401
 -44.8452
 -45.338
 -44.2614
 -35.5243
 -53.1624
 -51.7522
 -52.3231
 -52.3388
 -42.2972
 -43.0094
 -43.7159
 -43.3473
 -21.0189
 -21.5245
 -21.7078
 -21.3357
 -29.654
 -29.2741
 -29.8447
 -30.4493
 -26.8977
 -26.1629
 -26.7334
 -26.9882
 -55.2729
 -54.3151
 -54.2357
 -54.324
 -33.0551
 -31.5834
 -32.6142
 -32.1747
 -56.671
 -57.0804
 -55.5451
 -55.4315
 -47.3609
 -48.1298
 -46.9659
 -48.5282
 -21.301
 -21.6791
 -21.4224
 -22.1098
 -25.3636
 -24.5666
 -25.9245
 -25.4068
 -47.1655
 -47.9575
 -47.9192
 -47.0355
 -34.4681
 -33.2157
 -34.193
 -22.959
 -22.5649
 -22.739
 -23.246
 -44.706
 -43.069
 -44.0026
 -42.9837
 -27.0653
 -26.2858
 -26.2594
 -26.9224
 -34.8144
 -33.3624
 -34.0356
 -34.8576
 -59.9561
 -59.9413
 -58.6514
 -59.8677
 -28.5771
 -28.2425
 -27.8305
 -28.5034
 -53.701
 -52.6425
 -53.7319
 -54.0699
 -36.5767
 -36.0754
 -36.6859
 -35.6221
 -49.9543
 -49.3371
 -48.4119
 -49.0626
 -59.1365
 -59.1823
 -60.2313
 -59.7017
 -29.0105
 -28.9134
 -29.485
 -29.4504
 -11.456
 -12.0935
 -11.9534
 -12.3094
 -63.2021
 -62.4332
 -62.7547
 -62.2762
 -43.7147
 -43.3405
 -42.4976
 -43.0267
 -23.8941
 -23.8596
 -25.0653
 -24.101
 -31.5303
 -32.0319
 -32.3553
 -31.407
 -17.4667
 -17.6241
 -17.6666
 -17.1476
 -57.4643
 -57.7873
 -59.236
 -57.8288
 -23.2669
 -22.956
 -23.1159
 -23.161
 -38.8796
 -39.7776
 -38.4017
 -39.1164
 -24.8375
 -23.5246
 -24.4968
 -24.6054
 -65.4203
 -65.2473
 -65.4391
 -64.1847
 -65.6718
 -65.6185
 -64.9891
 -64.5142
 -46.9669
 -45.7774
 -45.5857
 -47.0236
 -39.9641
 -40.4138
 -40.0265
 -39.2682
 -40.4129
 -23.041
 -23.2004
 -22.3131
 -22.9072
 -24.5358
 -24.2461
 -24.0431
 -24.8155
 -44.7923
 -45.9336
 -46.0136
 -45.8782
 -23.824
 -24.307
 -24.3244
 -23.8036
 -26.1904
 -26.0547
 -25.8921
 -26.6472
 -46.4072
 -46.8194
 -46.4733
 -45.5333
 -29.6397
 -30.6
 -29.626
 -30.5999
 -45.8613
 -45.9935
 -46.3092
 -47.0688
 -26.731
 -26.5666
 -25.9279
 -26.7536
 -29.0013
 -29.7151
 -29.6933
 -29.8077
 -33.2766
 -34.0399
 -32.8372
 -33.8848
 -39.8322
 -40.9602
 -40.1457
 -41.2357
 -51.3902
 -50.8083
 -52.4186
 -52.5084
 -38.0545
 -37.7644
 -37.203
 -37.2984
 -38.258
 -38.5638
 -39.0351
 -38.6791
 -21.3138
 -21.3002
 -21.586
 -21.7905
 -44.3258
 -44.7115
 -44.9505
 -44.8421
 -36.0253
 -36.2997
 -36.5933
 -35.8615
 -37.6309
 -37.726
 -36.9746
 -37.6196
 -30.4974
 -30.7978
 -29.7957
 -30.3462
 -22.7947
 -22.7408
 -23.0561
 -22.2786
 -49.7822
 -49.9443
 -50.8381
 -50.5047
 -23.0625
 -22.5247
 -22.7401
 -23.5189
 -64.6848
 -64.6228
 -65.3759
 -65.1067
 -54.9072
 -54.0386
 -55.742
 -55.2958
 -56.1517
 -56.1186
 -55.9982
 -55.681
 -53.6881
 -53.6649
 -53.3825
 -54.4244
 -47.3134
 -47.8426
 -46.6734
 -47.9549
 -18.1536
 -17.8002
 -17.1679
 -38.0614
 -36.7757
 -37.9296
 -37.504
 -53.0902
 -52.783
 -52.3122
 -53.3077
 -30.0291
 -29.1101
 -29.6396
 -29.8836
 -26.9207
 -27.0168
 -26.6652
 -27.174
 -48.4906
 -48.64
 -49.8222
 -47.4602
 -32.8687
 -32.5928
 -33.144
 -33.6875
 -27.6139
 -27.6544
 -27.4969
 -27.2724
 -62.6061
 -63.5183
 -42.7406
 -42.4306
 -41.5564
 -41.4691
 -33.603
 -33.5535
 -32.8959
 -39.9058
 -40.1175
 -39.7735
 -39.0743
 -19.187
 -19.0704
 -19.7312
 -19.6728
 -53.8279
 -54.8921
 -54.7151
 -53.69
 -39.7098
 -39.4397
 -38.898
 -38.9548
 -29.9051
 -29.1287
 -29.4484
 -30.1531
 -37.0524
 -35.9722
 -36.3443
 -36.7217
 -23.7027
 -23.4549
 -23.796
 -23.604
 -21.7446
 -22.7696
 -22.0323
 -22.2093
 -32.4628
 -33.2298
 -33.4043
 -32.9102
 -23.2861
 -23.1138
 -23.2766
 -23.8455
 -33.5632
 -33.0912
 -33.2719
 -32.9025
 -55.3898
 -55.2667
 -53.9838
 -53.7334
 -24.1788
 -24.5467
 -24.7735
 -24.4546
 -14.7698
 -15.2612
 -14.7711
 -15.0966
 -41.0963
 -39.3039
 -40.5645
 -40.5942
 -31.494
 -32.1118
 -31.3736
 -32.1472
 -23.494
 -23.3757
 -23.9416
 -23.793
 -34.0508
 -33.4043
 -34.3206
 -34.3792
 -62.5327
 -62.0916
 -62.8748
 -62.5566
 -26.2329
 -26.2189
 -25.8907
 -26.2947
 -42.3792
 -41.366
 -41.318
 -41.2437
 -31.3197
 -32.1359
 -31.4615
 -32.7708
 -47.0578
 -47.6015
 -47.3632
 -48.4323
 -56.0762
 -55.6763
 -56.4262
 -55.4506
 -23.961
 -24.5171
 -24.1424
 -25.1666
 -28.2987
 -28.8539
 -28.7106
 -28.5741
 -39.4617
 -39.3525
 -38.1773
 -38.8228
 -23.1951
 -23.3873
 -23.3339
 -23.5239
 -11.7453
 -11.4391
 -11.4702
 -11.675
 -36.8401
 -35.9393
 -36.0573
 -35.7342
 -10.885
 -10.8027
 -10.885
 -11.187
 -11.6592
 -12.1404
 -12.0479
 -11.7939
 -19.5389
 -19.9771
 -19.8268
 -19.3518
 -44.0955
 -43.2985
 -42.6485
 -42.1393
 -43.7741
 -44.3453
 -44.5747
 -45.1856
 -45.2706
 -44.6754
 -45.2069
 -44.0519
 -41.6267
 -40.5131
 -40.788
 -41.8233
 -17.0645
 -16.6523
 -16.9853
 -16.9272
 -24.5715
 -24.2974
 -24.9758
 -24.6768
 -23.7051
 -23.1026
 -23.3447
 -23.1204
 -29.8018
 -30.7156
 -29.8604
 -30.7876
 -37.8374
 -37.2671
 -37.9237
 -37.3899
 -47.3963
 -46.9213
 -46.4995
 -47.3022
 -25.4537
 -26.3069
 -26.6492
 -25.7932
 -44.0909
 -34.7789
 -35.5575
 -35.5752
 -35.1179
 -65.059
 -65.5027
 -66.2628
 -65.7328
 -32.6147
 -32.8987
 -33.3555
 -32.7736
 -58.3916
 -59.8815
 -58.7551
 -24.2699
 -24.548
 -24.8436
 -24.1694
 -12.9465
 -13.3793
 -13.1581
 -13.4087
 -34.5911
 -34.5989
 -35.8604
 -34.0623
 -30.4353
 -29.2292
 -29.4207
 -29.3727
 -23.4607
 -23.8234
 -24.2658
 -24.5318
 -24.3978
 -24.6199
 -24.1113
 -24.7161
 -18.7131
 -18.0917
 -18.4878
 -18.5255
 -39.8282
 -39.522
 -40.1117
 -41.6472
 -34.8752
 -35.9765
 -34.6049
 -35.4457
 -28.3188
 -27.5254
 -28.3154
 -27.9244
 -32.7529
 -32.2022
 -33.7865
 -47.7669
 -47.3151
 -47.1535
 -25.6494
 -25.793
 -24.8162
 -24.6423
 -19.819
 -19.6493
 -19.6578
 -19.8073
 -26.787
 -27.3462
 -27.211
 -26.6392
 -19.8322
 -19.2338
 -19.995
 -19.0398
 -51.4108
 -52.8125
 -51.7432
 -52.2442
 -46.5711
 -47.1479
 -47.4174
 -48.1653
 -23.3083
 -23.1033
 -23.2072
 -23.1167
 -17.8516
 -17.1006
 -17.646
 -17.8366
 -37.097
 -35.8025
 -36.9475
 -36.4681
 -62.2349
 -60.9062
 -62.2454
 -61.1022
 -19.5324
 -19.4884
 -19.2098
 -19.5153
 -43.2354
 -42.3164
 -42.0562
 -43.4794
 -14.5418
 -14.2197
 -14.5044
 -14.2825
 -47.0733
 -47.4799
 -46.951
 -48.4013
 -30.5376
 -29.8053
 -30.9322
 -29.6331
 -51.6279
 -51.7623
 -52.5711
 -52.7783
 -23.9927
 -24.2027
 -24.2695
 -24.8289
 -28.9053
 -28.2499
 -28.3119
 -28.303
 -25.4823
 -25.2144
 -26.0317
 -25.9703
 -26.9947
 -26.7701
 -27.6569
 -26.2504
 -36.9438
 -37.6215
 -37.4818
 -36.572
 -32.3032
 -31.6361
 -32.514
 -32.4658
 -52.756
 -51.8223
 -50.7571
 -50.7329
 -64.0229
 -64.5856
 -63.2978
 -63.6009
 -30.9844
 -30.8827
 -30.2708
 -30.7968
 -54.877
 -54.3045
 -54.1293
 -55.5416
 -45.6421
 -46.9529
 -47.7878
 -46.6487
 -16.6296
 -16.4029
 -15.8843
 -16.6067
 -22.4084
 -23.5823
 -23.2908
 -22.9597
 -30.2483
 -29.7272
 -29.5126
 -29.7207
 -18.947
 -18.5811
 -18.4741
 -18.13
 -37.6755
 -38.6858
 -38.5794
 -38.2614
 -50.4948
 -52.7082
 -51.5327
 -51.5237
 -19.2972
 -20.1927
 -19.3282
 -19.2839
 -32.9088
 -33.6688
 -33.1571
 -33.2856
 -27.2352
 -27.2058
 -27.2266
 -26.8605
 -11.8585
 -12.204
 -12.1734
 -11.8491
 -29.5471
 -29.4412
 -29.2783
 -30.1258
 -35.2489
 -35.9189
 -35.8374
 -35.9675
 -46.9705
 -48.3206
 -47.4668
 -48.6033
 -26.7229
 -26.9273
 -27.1718
 -35.0776
 -34.8774
 -34.5621
 -35.004
 -28.3073
 -28.377
 -29.2674
 -28.6147
 -43.9462
 -42.9314
 -43.6348
 -43.5762
 -43.286
 -44.4123
 -44.4859
 -43.9161
 -56.1225
 -55.0128
 -55.7364
 -54.7059
 -24.8101
 -25.0399
 -25.4261
 -24.8421
 -60.6157
 -61.1074
 -61.5929
 -60.8756
 -25.9754
 -26.6109
 -26.1039
 -25.7715
 -34.7164
 -35.8085
 -35.696
 -36.3733
 -36.5822
 -35.5972
 -35.7962
 -35.3592
 -11.2728
 -10.9325
 -11.2331
 -11.2052
 -27.6241
 -27.123
 -27.6716
 -27.7686
 -33.8182
 -33.762
 -34.5313
 -35.5752
 -33.201
 -33.5345
 -33.5222
 -32.5764
 -63.6845
 -63.7485
 -62.8373
 -63.9564
 -25.947
 -26.6412
 -27.0445
 -26.1591
 -27.158
 -26.7125
 -27.4274
 -26.5293
 -46.7379
 -47.654
 -46.7215
 -47.5602
 -23.9476
 -23.8131
 -23.4201
 -23.3427
 -23.8421
 -23.6865
 -24.1144
 -23.6718
 -42.4556
 -41.0865
 -42.3424
 -41.7384
 -44.2342
 -44.0349
 -43.1864
 -44.0813
 -36.9899
 -36.9886
 -38.2669
 -37.9345
 -26.5512
 -26.2047
 -40.6837
 -39.861
 -41.3143
 -40.0996
 -27.0057
 -27.384
 -27.0631
 -27.1686
 -31.4645
 -32.3664
 -32.6337
 -32.2024
 -58.6238
 -58.0221
 -57.4134
 -59.0693
 -31.515
 -31.7748
 -32.2209
 -32.3762
 -48.898
 -49.8152
 -50.4708
 -48.5254
 -25.1616
 -26.4703
 -26.0071
 -26.4101
 -30.1496
 -29.4691
 -29.2687
 -29.7257
 -33.7519
 -35.151
 -34.3274
 -34.8055
 -24.9194
 -24.3416
 -24.1015
 -24.4701
 -15.004
 -15.0495
 -14.8723
 -14.5735
 -63.6572
 -63.5228
 -63.4129
 -63.7498
 -19.6508
 -19.5194
 -19.8274
 -19.4366
 -38.2432
 -38.6893
 -37.6791
 -37.7721
 -14.9137
 -14.914
 -15.3126
 -14.8236
 -40.1857
 -41.0997
 -40.2937
 -40.1991
 -26.271
 -26.1719
 -25.9698
 -25.9494
 -26.1827
 -26.3386
 -25.6774
 -26.0572
 -36.1663
 -36.5984
 -35.3804
 -36.2405
 -52.7545
 -51.2619
 -52.255
 -51.0518
 -29.5828
 -30.6827
 -30.4334
 -30.6008
 -23.2092
 -23.0225
 -23.2293
 -23.4738
 -51.784
 -53.4011
 -52.4531
 -53.6729
 -25.727
 -24.9482
 -25.9916
 -26.012
 -29.5929
 -30.4255
 -30.2326
 -30.7072
 -45.7467
 -47.6345
 -47.3414
 -46.4874
 -35.754
 -36.6987
 -36.8145
 -36.821
 -32.4161
 -31.8469
 -32.5027
 -32.8514
 -58.0433
 -59.1101
 -59.4745
 -59.7932
 -54.648
 -54.9777
 -55.0903
 -54.4077
 -38.6188
 -38.6495
 -37.4408
 -38.0865
 -32.551
 -33.0804
 -32.2884
 -34.0747
 -27.9762
 -28.2451
 -28.3428
 -29.406
 -22.6672
 -22.5817
 -22.1858
 -47.9823
 -48.8858
 -48.2264
 -49.5307
 -14.4378
 -14.1232
 -13.7823
 -13.7935
 -43.1543
 -41.7851
 -42.5094
 -42.4117
 -25.1809
 -24.3708
 -24.7807
 -24.8308
 -23.9243
 -23.4261
 -23.5655
 -23.5169
 -53.7972
 -52.5386
 -53.1721
 -54.9531
 -36.5925
 -35.9047
 -36.9202
 -36.1904
 -32.6392
 -32.3532
 -26.9308
 -31.1824
 -32.0803
 -31.1023
 -31.6384
 -15.0907
 -15.4366
 -42.0474
 -42.5764
 -43.1369
 -21.0048
 -21.4281
 -20.5532
 -21.0549
 -42.1263
 -40.9818
 -41.294
 -41.3041
 -29.3964
 -30.2357
 -30.0323
 -29.9967
 -26.6242
 -27.6688
 -27.0223
 -27.054
 -58.9376
 -59.0489
 -60.6462
 -59.5574
 -21.3097
 -21.8735
 -21.2459
 -21.9233
 -41.5258
 -41.7203
 -41.7565
 -42.4778
 -60.1234
 -60.535
 -59.1948
 -59.3308
 -35.6818
 -34.7439
 -35.7501
 -35.0212
 -41.2598
 -39.9473
 -40.5583
 -40.3979
 -33.8972
 -34.7787
 -34.147
 -32.8158
 -66.0466
 -64.7048
 -65.5147
 -64.2463
 -65.2888
 -65.0648
 -64.6688
 -64.2975
 -64.8316
 -64.5404
 -64.5166
 -64.857
 -31.5288
 -30.7343
 -31.481
 -31.4298
 -38.4787
 -37.4616
 -37.787
 -38.4247
 -32.0188
 -31.8818
 -31.2678
 -31.7475
 -30.8762
 -30.5107
 -31.7028
 -30.5854
 -44.0112
 -44.5068
 -44.7148
 -43.6807
 -52.4286
 -54.1739
 -53.7206
 -54.167
 -51.2935
 -51.777
 -50.4221
 -51.9891
 -35.0016
 -35.5578
 -34.8683
 -35.3919
 -33.2664
 -33.1315
 -32.9866
 -32.5752
 -26.0021
 -25.5659
 -25.8347
 -26.5549
 -46.679
 -47.7347
 -47.6013
 -46.4236
 -18.9693
 -18.9761
 -18.5046
 -19.3681
 -50.2487
 -51.1522
 -49.9449
 -49.5345
 -37.6384
 -39.1529
 -37.5044
 -38.7504
 -36.6812
 -37.3933
 -36.8352
 -36.4968
 -21.6469
 -21.5547
 -21.1602
 -20.6885
 -10.1546
 -10.3909
 -10.1105
 -10.1398
 -28.3347
 -29.0743
 -28.3397
 -28.5289
 -49.8681
 -48.115
 -48.5877
 -49.6777
 -23.984
 -23.4645
 -23.8217
 -24.2709
 -38.1094
 -38.575
 -37.5543
 -38.8325
 -39.8997
 -40.7775
 -41.749
 -41.2867
 -46.4795
 -47.0677
 -45.4848
 -46.0988
 -18.0224
 -17.6009
 -17.6656
 -17.9997
 -18.4032
 -18.4094
 -18.1843
 -18.1198
 -49.2702
 -51.1537
 -50.2003
 -50.411
 -44.4489
 -42.8053
 -43.0725
 -44.0763
 -28.1551
 -28.2432
 -27.8434
 -27.9261
 -34.1594
 -33.752
 -34.5425
 -35.0775
 -37.5942
 -37.945
 -37.627
 -37.4367
 -27.5483
 -27.1508
 -28.2054
 -27.2716
 -41.6565
 -41.1387
 -41.0144
 -40.3384
 -68.807
 -68.2814
 -68.6836
 -68.769
 -39.077
 -40.1226
 -40.1041
 -40.8655
 -34.4048
 -34.8783
 -34.1334
 -35.4182
 -34.3921
 -34.2587
 -33.4784
 -34.464
 -37.6013
 -38.1152
 -37.595
 -36.7652
 -61.813
 -62.0947
 -61.1128
 -61.8807
 -53.034
 -52.0271
 -52.8355
 -41.1101
 -40.96
 -41.8258
 -40.9721
 -23.3538
 -23.3013
 -23.7261
 -23.2121
 -30.4496
 -30.5627
 -29.8897
 -30.7295
 -51.6239
 -50.0182
 -50.1349
 -49.9965
 -26.0311
 -26.2263
 -26.415
 -26.7059
 -29.3985
 -28.7322
 -28.6835
 -29.5012
 -30.2919
 -29.9854
 -28.9718
 -29.7527
 -43.5082
 -42.8406
 -42.6281
 -42.4366
 -37.7549
 -36.8308
 -37.9368
 -36.1147
 -41.1678
 -39.2309
 -39.9265
 -40.1555
 -24.4121
 -24.6178
 -24.7761
 -24.4798
 -30.3454
 -30.96
 -31.1533
 -30.4055
 -42.5449
 -41.7011
 -42.6657
 -43.2956
 -28.643
 -29.0167
 -29.4309
 -28.3168
 -38.9554
 -39.7312
 -39.8586
 -39.1749
 -24.0301
 -23.8464
 -24.1839
 -23.7604
 -60.9061
 -61.2492
 -59.9272
 -60.8803
 -25.6547
 -25.105
 -25.8024
 -26.1026
 -24.5714
 -23.4208
 -24.1338
 -24.1334
 -45.0823
 -44.9563
 -45.7324
 -46.0993
 -25.981
 -26.161
 -26.2954
 -26.1704
 -40.3326
 -40.0882
 -40.457
 -39.4308
 -21.0793
 -21.2388
 -20.4498
 -20.6092
 -36.607
 -36.2414
 -36.5104
 -37.3009
 -56.5619
 -58.1778
 -56.5758
 -57.6459
 -37.0767
 -35.8172
 -35.7452
 -36.6347
 -46.7447
 -47.3698
 -46.6519
 -46.7524
 -39.8191
 -39.3117
 -39.5303
 -40.3136
 -38.9707
 -39.4686
 -39.54
 -40.4537
 -62.1655
 -61.9468
 -62.4686
 -60.6354
 -24.422
 -24.0815
 -23.8143
 -23.6954
 -24.9124
 -24.6439
 -24.114
 -24.629
 -53.8544
 -53.5865
 -53.0537
 -54.6255
 -58.3735
 -59.0485
 -58.0956
 -27.3287
 -27.1103
 -27.0532
 -27.4957
 -41.9079
 -43.0347
 -41.6908
 -41.6243
 -37.7274
 -38.1331
 -37.0425
 -38.2455
 -24.2139
 -24.7718
 -23.7252
 -24.2173
 -46.9188
 -47.7833
 -47.4372
 -47.3453
 -33.5792
 -32.5167
 -32.714
 -33.5317
 -36.5481
 -35.5801
 -35.6321
 -35.4804
 -48.0175
 -49.0231
 -48.9029
 -48.6287
 -22.6472
 -22.4424
 -22.7079
 -22.9703
 -27.4236
 -26.5631
 -26.8787
 -26.7159
 -64.1102
 -63.0522
 -64.1098
 -63.6104
 -24.5853
 -24.5054
 -24.6794
 -25.5257
 -22.9766
 -22.765
 -22.8496
 -22.9109
 -34.1798
 -34.4258
 -34.0205
 -35.2391
 -15.2135
 -15.4046
 -15.0168
 -15.7253
 -35.9805
 -36.1761
 -35.6455
 -36.1219
 -49.4182
 -49.0857
 -48.7016
 -48.4192
 -53.2395
 -52.3171
 -52.8315
 -21.4049
 -21.4439
 -21.8066
 -21.5361
 -25.8727
 -26.5947
 -25.6628
 -26.3605
 -24.2145
 -24.0051
 -23.497
 -23.5209
 -27.0639
 -26.5253
 -26.8733
 -26.7903
 -64.6955
 -65.243
 -65.6497
 -65.3128
 -22.2559
 -22.2806
 -22.0494
 -21.6393
 -25.7692
 -25.2751
 -25.7217
 -26.5699
 -52.9744
 -54.1136
 -53.1398
 -52.7682
 -29.5012
 -29.3537
 -29.9182
 -26.3931
 -25.8266
 -26.4941
 -36.8902
 -36.6008
 -35.6653
 -16.0868
 -16.7558
 -16.8457
 -16.3092
 -36.4704
 -37.2065
 -36.9007
 -37.5027
 -35.6169
 -36.2661
 -34.9179
 -34.989
 -53.7733
 -54.6505
 -53.5442
 -53.4589
 -58.2029
 -58.0616
 -59.851
 -58.0347
 -23.6942
 -23.0189
 -22.9667
 -24.1941
 -38.1319
 -39.0865
 -39.3159
 -38.6076
 -37.415
 -38.2278
 -38.5921
 -38.3666
 -32.8638
 -34.0666
 -33.5127
 -34.2561
 -28.5386
 -28.8153
 -29.0267
 -27.9039
 -38.2009
 -37.0366
 -38.0328
 -38.1559
 -24.4576
 -24.646
 -24.3916
 -24.838
 -57.5898
 -57.0476
 -57.6297
 -57.8216
 -27.4282
 -27.1847
 -27.4886
 -28.0751
 -52.7444
 -51.6685
 -52.5162
 -51.8054
 -60.076
 -59.5784
 -58.3354
 -59.6011
 -61.3985
 -61.1855
 -60.7925
 -60.4832
 -25.6595
 -25.218
 -45.8308
 -45.4184
 -44.8462
 -45.4832
 -24.3744
 -25.2868
 -24.8881
 -24.5651
 -48.3216
 -50.1769
 -49.7373
 -50.0322
 -51.9162
 -51.5349
 -52.7064
 -51.4963
 -27.4755
 -28.136
 -28.1561
 -27.8098
 -38.1655
 -38.1646
 -38.9351
 -38.7671
 -26.868
 -26.8743
 -27.4804
 -26.9184
 -31.0836
 -30.966
 -31.1937
 -31.9164
 -12.3458
 -12.9752
 -12.1896
 -12.7239
 -55.3929
 -54.705
 -56.5275
 -55.3667
 -27.308
 -26.8663
 -27.5778
 -28.2248
 -21.3104
 -20.8818
 -20.8966
 -21.4784
 -32.3038
 -31.8104
 -32.744
 -32.7899
 -21.3503
 -20.5275
 -20.2503
 -21.412
 -32.1163
 -31.3028
 -30.7959
 -31.7998
 -45.0621
 -44.7305
 -45.865
 -44.1838
 -33.3194
 -32.7137
 -32.7325
 -33.0615
 -54.2613
 -55.833
 -54.4877
 -32.4276
 -33.242
 -32.4906
 -33.256
 -12.3339
 -12.0903
 -12.1335
 -11.99
 -65.3065
 -65.4217
 -65.8336
 -65.4186
 -37.7559
 -37.4193
 -38.0126
 -37.1937
 -49.4036
 -48.6535
 -47.5092
 -48.9491
 -23.5093
 -24.08
 -22.6362
 -23.2603
 -28.219
 -28.9039
 -27.763
 -28.5864
 -28.5294
 -29.7048
 -28.9386
 -29.6296
 -59.4806
 -58.6199
 -59.8291
 -60.6073
 -29.5037
 -28.9261
 -28.4254
 -28.7054
 -63.6262
 -63.1843
 -63.9117
 -62.7173
 -43.731
 -42.4532
 -42.5608
 -43.8624
 -24.5568
 -24.7114
 -24.9414
 -24.5468
 -14.8909
 -15.0799
 -15.5019
 -14.7782
 -31.273
 -30.0792
 -30.798
 -29.8042
 -33.8814
 -33.9754
 -34.7033
 -33.8311
 -45.3116
 -45.6108
 -44.8638
 -44.1066
 -12.7557
 -12.2689
 -12.8942
 -12.6717
 -31.4647
 -30.8932
 -31.9301
 -31.5605
 -62.8426
 -61.8257
 -61.7105
 -61.857
 -51.6973
 -52.5503
 -52.1298
 -51.6619
 -50.4448
 -50.865
 -51.6748
 -50.3557
 -48.5224
 -47.7631
 -47.3135
 -47.8652
 -51.0788
 -52.8445
 -52.0283
 -51.7896
 -40.542
 -40.8195
 -40.6336
 -40.7126
 -25.4605
 -26.5648
 -27.3093
 -27.3642
 -27.0063
 -43.5887
 -42.5858
 -42.9526
 -42.5358
 -43.3884
 -43.6563
 -42.0929
 -42.4779
 -19.7871
 -20.0032
 -19.9417
 -19.782
 -55.9533
 -55.9666
 -55.4976
 -56.1728
 -48.5356
 -49.5175
 -50.8843
 -50.0442
 -24.5845
 -25.4097
 -25.3238
 -25.5152
 -25.5426
 -25.364
 -26.5138
 -26.9734
 -26.7433
 -27.3289
 -24.9481
 -24.1476
 -23.171
 -23.7496
 -42.9428
 -44.0598
 -43.6857
 -43.0122
 -64.8302
 -64.8041
 -64.7534
 -65.0735
 -34.6229
 -34.0687
 -34.6276
 -33.6695
 -58.7844
 -56.8935
 -55.962
 -56.0708
 -31.7983
 -31.7298
 -31.2524
 -32.0629
 -42.3567
 -41.6182
 -40.95
 -41.0329
 -23.8932
 -23.7369
 -23.6642
 -22.983
 -38.4823
 -39.3775
 -37.9905
 -38.6492
 -40.1459
 -41.4715
 -41.9813
 -40.4404
 -25.4963
 -25.2274
 -24.6965
 -24.9924
 -29.3817
 -28.9119
 -30.318
 -29.6543
 -32.0817
 -31.9843
 -31.259
 -30.8174
 -38.2234
 -38.867
 -38.4588
 -38.7549
 -19.5589
 -19.743
 -19.9469
 -20.4626
 -40.2591
 -39.2706
 -39.9946
 -40.5213
 -29.5751
 -28.6939
 -29.7027
 -30.2759
 -45.3926
 -44.9638
 -45.3383
 -44.3943
 -52.7036
 -51.7257
 -52.6056
 -51.9278
 -61.3186
 -60.9004
 -60.3499
 -60.8976
 -57.8648
 -58.5613
 -56.7753
 -65.0473
 -64.9744
 -65.571
 -65.5552
 -50.2115
 -49.2707
 -47.9849
 -49.2111
 -33.5739
 -33.3693
 -34.037
 -33.9048
 -58.4529
 -57.5827
 -56.8375
 -58.324
 -36.3183
 -36.5201
 -35.9289
 -35.7584
 -38.4241
 -38.9471
 -38.5967
 -60.7406
 -61.4575
 -60.9553
 -60.7151
 -56.6064
 -55.766
 -56.0968
 -37.1299
 -36.5873
 -37.5424
 -37.8826
 -29.1764
 -29.6801
 -29.12
 -30.2434
 -44.2113
 -43.4706
 -43.1761
 -42.973
 -60.1421
 -60.8675
 -60.5515
 -60.0204
 -25.9981
 -25.8927
 -26.3752
 -25.6201
 -33.5448
 -33.3353
 -32.6127
 -32.531
 -34.6339
 -35.819
 -34.402
 -34.7298
 -44.9873
 -43.9041
 -44.7737
 -45.0073
 -26.3654
 -25.8822
 -26.9309
 -26.0003
 -23.7488
 -23.2766
 -23.804
 -23.5209
 -35.0438
 -35.1156
 -34.9299
 -35.887
 -62.137
 -61.3746
 -61.2975
 -61.6944
 -27.6209
 -26.7945
 -27.7138
 -27.2959
 -24.1387
 -24.7702
 -24.0386
 -24.6776
 -40.4399
 -39.0164
 -40.4102
 -40.3179
 -26.8469
 -27.0308
 -26.6017
 -24.2709
 -24.7588
 -24.5844
 -38.8744
 -38.4508
 -39.7924
 -38.6909
 -24.6956
 -24.4774
 -23.9891
 -24.6453
 -24.9856
 -24.2574
 -24.7748
 -24.8449
 -40.4295
 -40.8238
 -40.1375
 -24.6507
 -24.5102
 -52.578
 -52.7161
 -54.7813
 -54.887
 -44.0019
 -45.7075
 -45.7591
 -44.9856
 -19.6163
 -20.1688
 -19.1684
 -20.3001
 -16.0703
 -16.1114
 -15.664
 -16.1753
 -26.7018
 -25.4663
 -26.2486
 -26.2785
 -58.1323
 -58.0096
 -58.5633
 -58.055
 -41.9845
 -41.2984
 -40.7661
 -41.2884
 -22.623
 -22.5194
 -22.496
 -22.4398
 -27.0337
 -27.1581
 -27.4633
 -28.2981
 -27.5837
 -27.6095
 -27.4167
 -25.815
 -26.3269
 -26.4171
 -26.4382
 -26.2923
 -25.8152
 -26.578
 -26.6825
 -24.0494
 -23.4709
 -23.9896
 -23.4517
 -63.4242
 -63.8798
 -63.6681
 -63.34
 -58.1959
 -59.3025
 -57.9461
 -34.6952
 -34.0979
 -34.7707
 -33.6638
 -26.3628
 -25.4521
 -26.4777
 -26.1609
 -65.7792
 -66.2997
 -24.233
 -23.8758
 -23.9536
 -23.6153
 -36.819
 -38.594
 -37.4215
 -38.0618
 -41.2491
 -40.9553
 -24.7914
 -24.6373
 -25.3756
 -24.7828
 -60.1277
 -60.5844
 -59.6766
 -61.3002
 -64.299
 -63.6946
 -63.7021
 -64.8931
 -32.318
 -32.7371
 -32.299
 -19.3297
 -19.7797
 -19.5073
 -25.3567
 -26.2293
 -25.2942
 -25.5153
 -47.2769
 -46.1981
 -48.0934
 -46.2193
 -28.3059
 -27.5699
 -27.6201
 -26.992
 -27.7535
 -27.2929
 -28.0613
 -27.0837
 -42.994
 -42.6537
 -43.3798
 -44.559
 -13.1296
 -13.3057
 -13.0007
 -12.6397
 -46.1258
 -46.5455
 -47.4092
 -47.0779
 -47.3905
 -47.2122
 -48.1318
 -48.7684
 -23.6103
 -23.6144
 -22.8079
 -23.4181
 -56.7426
 -57.1213
 -57.3313
 -56.3454
 -12.3242
 -11.803
 -11.9415
 -11.5672
 -61.1402
 -58.8505
 -59.0278
 -58.4273
 -51.2254
 -50.5696
 -27.1707
 -27.656
 -27.4237
 -28.0366
 -22.972
 -22.4184
 -22.7199
 -23.1909
 -56.1041
 -57.0357
 -56.7122
 -56.4792
 -28.9561
 -29.2767
 -29.2248
 -28.6901
 -61.429
 -60.6217
 -61.2691
 -26.6052
 -25.9789
 -25.6453
 -22.2407
 -22.8785
 -23.0381
 -61.6767
 -62.0316
 -61.6917
 -61.3147
 -26.862
 -26.5078
 -26.5173
 -26.4638
 -56.6376
 -56.8517
 -22.314
 -22.6858
 -22.2197
 -22.3817
 -35.7737
 -36.6628
 -36.776
 -35.7385
 -27.9966
 -27.5058
 -30.7161
 -32.3475
 -32.0819
 -31.1123
 -27.1735
 -27.0385
 -27.1216
 -26.4082
 -63.4917
 -64.8827
 -63.3066
 -63.9606
 -23.2988
 -23.0754
 -23.1969
 -52.2352
 -12.5115
 -12.4812
 -12.4988
 -12.3046
 -55.3975
 -55.4677
 -56.2887
 -54.0719
 -27.7747
 -27.8448
 -29.0214
 -28.773
 -45.2039
 -44.8207
 -44.8751
 -44.9919
 -27.0044
 -26.5322
 -26.2253
 -26.8808
 -42.705
 -19.8031
 -19.6907
 -19.6836
 -19.8585
 -42.3065
 -42.4206
 -42.0025
 -41.1482
 -50.2366
 -50.9878
 -51.2762
 -49.4337
 -50.696
 -49.5083
 -51.1469
 -56.0174
 -56.8818
 -56.7278
 -56.4111
 -23.7293
 -23.9841
 -24.6859
 -24.348
 -53.1294
 -53.0855
 -53.0156
 -54.0935
 -21.3436
 -21.2473
 -21.4082
 -20.7446
 -51.8193
 -52.485
 -53.0323
 -53.0599
 -34.2519
 -33.7255
 -33.5882
 -33.2775
 -45.0122
 -45.7699
 -46.1112
 -46.4174
 -36.8917
 -36.4478
 -36.1088
 -35.8143
 -60.5785
 -58.8377
 -37.1889
 -36.2956
 -36.3388
 -37.0934
 -19.7305
 -19.5103
 -20.205
 -19.4884
 -21.2221
 -20.9734
 -21.9583
 -21.1179
 -36.9143
 -37.7836
 -37.8172
 -37.9593
 -47.0713
 -47.1303
 -46.7016
 -48.2106
 -48.6199
 -47.7375
 -48.2008
 -49.081
 -59.7417
 -58.2082
 -58.7787
 -57.9712
 -49.1005
 -50.6068
 -49.8114
 -49.0363
 -21.1442
 -21.2428
 -21.6111
 -20.8487
 -24.3464
 -24.3429
 -24.1714
 -25.2465
 -66.0418
 -65.606
 -65.4854
 -65.4662
 -38.8961
 -39.2374
 -39.1215
 -40.5551
 -25.1053
 -25.9546
 -25.0898
 -25.8335
 -14.1504
 -14.0438
 -14.6626
 -13.9409
 -55.477
 -56.1348
 -54.8263
 -57.456
 -25.9984
 -26.0147
 -26.2342
 -26.7115
 -31.1081
 -31.9457
 -30.5975
 -31.3026
 -21.1375
 -20.8982
 -21.0627
 -21.4368
 -42.1082
 -41.6214
 -42.1289
 -42.254
 -59.1468
 -59.2223
 -58.8601
 -59.1869
 -39.7934
 -38.5706
 -38.9069
 -38.6313
 -32.5395
 -32.5709
 -33.5997
 -33.1474
 -20.2662
 -20.5436
 -20.8043
 -19.8867
 -58.3723
 -43.6683
 -44.5052
 -43.2876
 -44.3162
 -30.8083
 -30.4175
 -29.7134
 -29.9068
 -46.2101
 -46.9564
 -46.8391
 -47.597
 -25.1464
 -24.803
 -24.8771
 -25.5578
 -42.2696
 -42.8447
 -41.5592
 -19.5758
 -20.2875
 -19.7133
 -19.5749
 -52.0749
 -49.8389
 -51.3494
 -50.6048
 -23.345
 -23.2557
 -23.6516
 -23.3664
 -67.7766
 -67.5194
 -67.6451
 -68.1429
 -26.3331
 -26.4661
 -26.5302
 -26.4619
 -15.6242
 -16.7777
 -16.6841
 -16.2922
 -19.2154
 -19.1548
 -19.7024
 -19.5441
 -65.9494
 -65.6628
 -65.1823
 -65.1523
 -61.5731
 -61.4752
 -62.3215
 -62.4278
 -34.7369
 -35.63
 -35.3067
 -35.6072
 -26.9197
 -26.8167
 -27.2998
 -37.428
 -37.4038
 -36.0201
 -36.5762
 -43.6675
 -43.1461
 -44.3723
 -44.5366
 -36.6939
 -38.5447
 -37.9341
 -37.7663
 -35.5505
 -35.9001
 -37.2706
 -36.5277
 -63.7948
 -62.8926
 -63.1032
 -62.7273
 -24.5043
 -24.2835
 -25.1236
 -24.5144
 -19.238
 -18.2257
 -18.3513
 -46.4354
 -45.5308
 -46.1994
 -45.8356
 -55.8545
 -57.0257
 -55.9749
 -55.6923
 -25.7341
 -25.4515
 -25.8841
 -24.6868
 -24.8017
 -25.1132
 -24.2467
 -57.0605
 -56.3594
 -57.4119
 -55.5454
 -33.3436
 -33.2192
 -33.9471
 -33.2559
 -25.059
 -24.315
 -24.9224
 -25
 -30.743
 -30.2808
 -30.3732
 -30.9256
 -52.4541
 -52.203
 -51.2149
 -52.2825
 -25.3745
 -26.3517
 -24.8913
 -26.153
 -31.5913
 -30.3691
 -30.8036
 -31.0995
 -27.8679
 -28.5296
 -27.9746
 -62.0974
 -61.8578
 -60.9184
 -61.5297
 -33.4652
 -33.6861
 -32.99
 -33.9442
 -65.892
 -65.6797
 -66.7815
 -36.5872
 -37.0109
 -36.9343
 -36.5568
 -20.267
 -20.7731
 -19.952
 -20.1719
 -40.1877
 -40.4593
 -41.1591
 -42.0657
 -35.153
 -36.3186
 -34.8213
 -26.0277
 -26.3004
 -26.8814
 -26.3173
 -23.0803
 -23.2597
 -22.9425
 -23.36
 -25.7623
 -26.1302
 -26.6059
 -25.6385
 -15.3056
 -15.3673
 -15.958
 -16.0206
 -29.3114
 -29.0719
 -28.7012
 -28.6953
 -27.9913
 -27.6777
 -28.7864
 -27.5047
 -56.9261
 -55.7248
 -55.9127
 -57.6512
 -22.3913
 -23.2446
 -22.9339
 -22.7627
 -43.0343
 -42.4453
 -43.3087
 -43.5529
 -60.9709
 -61.0675
 -60.3181
 -59.8812
 -61.5016
 -60.2911
 -60.9345
 -61.5568
 -51.0906
 -52.0518
 -50.9584
 -51.8144
 -62.9259
 -64.066
 -64.0029
 -62.0723
 -58.5532
 -58.9121
 -58.7175
 -65.7178
 -64.1287
 -64.7693
 -64.6975
 -21.1615
 -20.8564
 -21.0963
 -20.6949
 -30.689
 -29.9774
 -29.5967
 -30.0955
 -28.1185
 -29.0629
 -28.3747
 -29.1548
 -29.4242
 -28.9954
 -28.923
 -28.7117
 -59.9358
 -58.7818
 -59.3885
 -59.7887
 -30.7169
 -30.7671
 -30.0764
 -29.6736
 -25.9512
 -25.1292
 -25.1013
 -25.7011
 -43.9572
 -43.6317
 -44.8456
 -43.4021
 -26.5597
 -27.3462
 -26.5633
 -26.9846
 -47.2256
 -46.3402
 -46.3038
 -37.0511
 -38.0937
 -38.0588
 -55.9547
 -54.7697
 -55.4817
 -55.4455
 -30.7878
 -31.0968
 -30.5075
 -30.493
 -41.935
 -41.0288
 -41.2567
 -41.9959
 -29.0465
 -28.0733
 -28.5603
 -29.2365
 -66.17
 -65.876
 -62.8697
 -62.3199
 -61.7632
 -62.9278
 -20.4677
 -20.3055
 -20.3056
 -20.0172
 -42.4586
 -43.4064
 -43.4871
 -44.2057
 -25.9538
 -26.9101
 -26.2594
 -25.6498
 -10.9573
 -10.2916
 -10.8986
 -10.6959
 -26.444
 -26.1753
 -25.7379
 -26.1379
 -46.7766
 -45.7523
 -46.5609
 -22.4753
 -22.3914
 -23.1587
 -23.0606
 -60.3666
 -59.4648
 -60.8494
 -60.0354
 -26.8119
 -27.0639
 -26.8108
 -27.0681
 -41.9707
 -42.9101
 -42.2977
 -42.0882
 -20.5397
 -20.8555
 -20.1793
 -20.6336
 -13.8621
 -13.7666
 -14.0654
 -14.212
 -25.2434
 -25.7504
 -25.1947
 -25.0592
 -29.7535
 -29.4461
 -30.0361
 -37.9857
 -36.6428
 -38.261
 -37.6686
 -23.8011
 -23.8281
 -23.0785
 -47.1723
 -46.8582
 -47.4026
 -48.1688
 -51.5202
 -53.4547
 -51.6142
 -53.3047
 -45.5326
 -44.5591
 -45.444
 -45.5094
 -59.9567
 -57.6254
 -58.7098
 -58.8001
 -49.8125
 -48.6387
 -48.9731
 -27.5613
 -28.046
 -28.0018
 -28.3358
 -48.2952
 -47.2863
 -44.0379
 -42.8542
 -42.4841
 -43.6402
 -46.8135
 -46.2923
 -46.3609
 -47.1436
 -25.7092
 -26.1106
 -25.9308
 -25.2313
 -26.1303
 -26.6128
 -26.0681
 -26.5483
 -11.0579
 -11.3382
 -11.4163
 -11.225
 -25.9295
 -26.4243
 -25.9274
 -27.7573
 -27.4256
 -27.2937
 -27.5176
 -34.6024
 -34.5685
 -34.0738
 -33.8853
 -27.8853
 -28.6946
 -28.7208
 -28.1907
 -20.5009
 -20.8774
 -20.4585
 -20.4098
 -50.9797
 -49.6996
 -50.9623
 -49.7683
 -34.5033
 -35.1674
 -34.3579
 -33.8176
 -61.4518
 -61.6059
 -61.043
 -61.5141
 -39.2516
 -38.2554
 -39.1332
 -38.5932
 -58.1484
 -58.3911
 -58.2937
 -14.5275
 -15.0242
 -14.7887
 -14.8914
 -45.9614
 -47.5883
 -46.1795
 -46.3154
 -31.8904
 -31.1488
 -32.0312
 -31.6252
 -24.3964
 -23.8959
 -28.6765
 -28.7955
 -29.2002
 -29.0089
 -31.6147
 -30.6705
 -30.967
 -56.6822
 -57.0333
 -56.2833
 -57.0215
 -56.5261
 -55.8778
 -54.9191
 -55.6619
 -24.3691
 -24.1536
 -24.542
 -24.2442
 -33.5644
 -33.1683
 -26.6149
 -27.385
 -26.9013
 -26.2877
 -48.4786
 -47.9197
 -49.5186
 -49.4534
 -20.0551
 -19.9818
 -19.9606
 -20.1666
 -25.2758
 -25.5799
 -25.0241
 -24.9958
 -26.4926
 -27.2135
 -27.5515
 -27.2022
 -36.4139
 -36.1823
 -36.4604
 -37.5966
 -47.9707
 -47.6574
 -46.9947
 -47.152
 -49.977
 -48.6004
 -47.8526
 -49.124
 -12.6365
 -12.5539
 -12.42
 -12.2585
 -22.7364
 -23.326
 -23.5022
 -38.0394
 -36.4961
 -37.3808
 -39.3677
 -40.3947
 -39.3806
 -40.3771
 -59.4574
 -60.0894
 -59.6132
 -60.5013
 -33.2216
 -26.2692
 -26.2134
 -25.4311
 -25.6738
 -42.6634
 -41.9558
 -41.0373
 -41.5915
 -50.5357
 -49.405
 -49.7144
 -50.8693
 -56.6269
 -57.0286
 -24.5203
 -24.3375
 -24.0022
 -23.893
 -35.0356
 -35.7005
 -35.3647
 -35.9335
 -22.7793
 -22.6564
 -22.8063
 -22.9669
 -39.6222
 -29.8703
 -29.2808
 -30.5589
 -30.8977
 -28.1385
 -28.6649
 -28.9456
 -28.5144
 -60.2344
 -58.7187
 -62.2105
 -62.9918
 -62.8142
 -62.4495
 -16.9376
 -16.6032
 -16.7621
 -16.9838
 -49.2538
 -49.5816
 -48.2307
 -50.1991
 -39.9845
 -38.5565
 -38.8798
 -39.9428
 -13.4316
 -13.5714
 -13.5862
 -13.2756
 -34.6397
 -34.7279
 -35.1282
 -34.186
 -34.0783
 -33.0776
 -32.5942
 -32.7848
 -24.049
 -23.3263
 -24.1144
 -23.8504
 -65.5969
 -66.0251
 -66.1216
 -65.9374
 -32.9399
 -32.0702
 -32.2467
 -27.1551
 -27.9528
 -27.8897
 -27.2423
 -63.4205
 -64.9822
 -63.957
 -64.2135
 -27.278
 -26.8837
 -26.2257
 -27.659
 -31.6439
 -32.245
 -52.6889
 -53.0717
 -53.9588
 -51.8974
 -37.9894
 -38.0022
 -39.1922
 -38.959
 -61.0821
 -60.2402
 -60.7429
 -60.8203
 -32.6735
 -33.9875
 -25.7269
 -26.0316
 -26.1892
 -26.0948
 -27.2666
 -27.3151
 -27.7738
 -28.0648
 -54.4994
 -54.3334
 -52.927
 -53.3345
 -51.0075
 -50.6931
 -51.2649
 -51.534
 -48.6917
 -47.0947
 -48.6327
 -47.8518
 -27.9358
 -28.8894
 -28.4734
 -27.9235
 -17.0573
 -16.746
 -16.9674
 -17.102
 -62.2453
 -63.0057
 -62.104
 -62.4315
 -23.4877
 -23.6018
 -23.7062
 -24.1345
 -37.2127
 -37.725
 -38.2375
 -37.1831
 -29.1673
 -30.5131
 -29.594
 -30.0617
 -37.0134
 -35.9067
 -36.7174
 -41.6804
 -42.9273
 -41.6158
 -42.8073
 -34.8186
 -35.5924
 -34.9868
 -34.4055
 -46.0082
 -46.3866
 -47.4345
 -45.7503
 -45.755
 -45.5377
 -46.0085
 -44.2895
 -13.3411
 -14.0747
 -13.3985
 -20.6021
 -21.2984
 -21.5051
 -21.2467
 -36.6248
 -35.9313
 -36.2234
 -36.1746
 -53.6772
 -54.5683
 -53.8829
 -54.9771
 -25.8223
 -25.0032
 -25.7992
 -26.8337
 -27.1899
 -27.2071
 -40.4662
 -40.1039
 -40.8766
 -40.8406
 -36.5386
 -37.2047
 -37.7074
 -37.7821
 -68.0343
 -68.0445
 -67.7815
 -68.0814
 -19.1538
 -19.3138
 -18.9545
 -18.2006
 -47.9661
 -48.8029
 -30.1079
 -31.0905
 -31.0875
 -30.3097
 -45.046
 -45.7836
 -45.6925
 -45.9765
 -38.7485
 -39.0895
 -39.8013
 -39.1474
 -31.3946
 -31.3048
 -32.1167
 -30.7338
 -44.0138
 -45.0066
 -44.4869
 -44.8445
 -24.4432
 -24.6707
 -24.6744
 -25.1322
 -22.2591
 -21.8893
 -22.3356
 -22.1128
 -51.3345
 -51.7761
 -53.1473
 -54.4305
 -36.5293
 -37.1295
 -37.8401
 -15.8699
 -15.7037
 -16.0552
 -54.6779
 -55.7126
 -55.8236
 -56.042
 -57.558
 -57.175
 -56.4768
 -56.0919
 -34.9976
 -35.2921
 -35.6944
 -35.8988
 -59.8267
 -60.5369
 -60.5907
 -60.389
 -60.0107
 -60.894
 -60.2854
 -61.3261
 -31.2883
 -31.7165
 -32.3459
 -31.5461
 -49.0653
 -49.5873
 -50.1604
 -50.0355
 -67.5137
 -67.4481
 -67.3465
 -67.8052
 -49.8275
 -49.5636
 -49.0298
 -50.501
 -37.3251
 -36.2709
 -36.6851
 -35.7406
 -54.0575
 -54.2023
 -53.4273
 -53.0699
 -45.9621
 -45.5895
 -46.5852
 -40.5758
 -41.4896
 -17.5922
 -17.7817
 -17.4641
 -17.3063
 -39.8454
 -40.9298
 -40.4868
 -40.5471
 -17.7955
 -17.9555
 -18.0424
 -18.1033
 -17.9406
 -17.7553
 -18.4778
 -18.4717
 -37.9913
 -38.5981
 -38.5756
 -37.7899
 -30.0622
 -30.1017
 -29.3937
 -30.2966
 -41.6144
 -42.7994
 -42.4262
 -42.364
 -36.0462
 -35.3115
 -21.3325
 -21.0358
 -21.1856
 -21.6501
 -62.8111
 -63.331
 -63.6845
 -63.4761
 -30.4974
 -30.0578
 -31.3549
 -30.7201
 -52.9848
 -52.4187
 -51.6927
 -52.5985
 -21.4329
 -20.958
 -21.4029
 -21.1032
 -57.7827
 -59.1097
 -58.8674
 -58.8988
 -40.1174
 -38.9355
 -39.9631
 -39.9538
 -26.2616
 -25.4456
 -24.8857
 -25.3219
 -68.0568
 -67.9874
 -67.9119
 -67.7245
 -28.3126
 -29.0828
 -28.429
 -28.3485
 -31.2218
 -30.1873
 -31.0054
 -30.2337
 -64.2189
 -64.4025
 -63.6407
 -64.7765
 -34.9043
 -33.6317
 -34.1541
 -34.1604
 -55.2164
 -55.9561
 -55.2502
 -55.1016
 -53.2168
 -52.2731
 -52.5928
 -32.0571
 -30.7989
 -31.1703
 -31.2831
 -53.826
 -54.6698
 -53.9541
 -54.4269
 -23.9989
 -24.6528
 -24.537
 -24.0254
 -57.5488
 -58.2531
 -58.1665
 -57.8374
 -56.7615
 -56.3037
 -56.8329
 -56.5256
 -24.8629
 -24.6775
 -25.8005
 -25.1949
 -25.6141
 -25.4614
 -26.0838
 -25.1699
 -9.4671
 -9.55455
 -9.29061
 -9.37726
 -47.9648
 -46.8033
 -46.8599
 -18.1178
 -18.8286
 -18.9731
 -18.5146
 -62.3851
 -61.2584
 -61.5771
 -61.5264
 -24.467
 -54.3305
 -52.9011
 -52.9127
 -53.8029
 -54.5945
 -53.0442
 -53.6193
 -12.4502
 -12.0658
 -12.228
 -12.405
 -11.6627
 -11.8126
 -11.6581
 -11.5385
 -60.5976
 -59.3899
 -60.2012
 -61.0696
 -25.5984
 -25.3203
 -25.8921
 -25.1746
 -45.5038
 -45.1754
 -46.2291
 -28.9022
 -28.2406
 -28.8549
 -27.9248
 -32.0976
 -32.1231
 -31.9982
 -53.3201
 -53.1646
 -54.5111
 -40.1731
 -41.0881
 -41.019
 -40.189
 -29.2924
 -28.4252
 -28.4982
 -29.1114
 -25.1015
 -25.3867
 -25.0119
 -25.3055
 -45.8242
 -46.6578
 -46.7512
 -20.8724
 -21.253
 -20.2731
 -20.2294
 -25.253
 -26.3884
 -25.4205
 -31.1867
 -32.6274
 -32.1735
 -31.8458
 -23.6522
 -24.2999
 -24.3513
 -24.098
 -25.2373
 -26.009
 -26.1912
 -25.9486
 -54.2181
 -53.2325
 -53.45
 -53.2247
 -33.3597
 -32.6059
 -32.9688
 -33.6123
 -27.2724
 -27.3627
 -37.048
 -36.5023
 -36.7972
 -35.9047
 -57.3699
 -63.9217
 -64.1552
 -64.0902
 -63.9511
 -9.00654
 -8.93276
 -8.91439
 -9.01153
 -51.5547
 -52.8682
 -51.8672
 -66.5918
 -66.6418
 -66.0708
 -66.487
 -49.168
 -47.6849
 -48.3895
 -47.8394
 -24.7841
 -25.0056
 -25.377
 -24.8056
 -32.4977
 -31.8287
 -31.785
 -31.3313
 -67.0789
 -67.2298
 -67.1609
 -66.9056
 -47.8757
 -46.9566
 -46.3797
 -47.2234
 -20.469
 -19.9339
 -19.8811
 -20.7999
 -31.2462
 -31.2206
 -31.459
 -30.0789
 -30.4164
 -30.8241
 -31.1747
 -30.435
 -9.00384
 -8.96115
 -8.95641
 -9.02599
 -23.9542
 -23.8152
 -23.6699
 -24.1553
 -48.5258
 -50.0504
 -48.79
 -49.3294
 -40.7066
 -40.625
 -41.7296
 -40.3336
 -33.4046
 -33.8277
 -34.6956
 -33.9729
 -46.8171
 -48.1187
 -47.6364
 -47.716
 -40.6118
 -40.8678
 -41.6827
 -40.6621
 -46.9931
 -46.7168
 -46.1586
 -48.0518
 -68.1007
 -67.2958
 -67.4429
 -68.1993
 -50.7715
 -49.982
 -49.7319
 -48.2049
 -45.7038
 -44.7641
 -44.4116
 -45.69
 -44.6524
 -37.1824
 -37.0949
 -36.4739
 -38.1363
 -63.4513
 -63.2337
 -62.9337
 -62.8134
 -33.2813
 -32.6256
 -33.4443
 -33.1313
 -40.1569
 -40.6448
 -41.1731
 -39.4813
 -35.6429
 -34.6086
 -35.3711
 -36.2018
 -29.1541
 -27.9981
 -28.9293
 -28.2013
 -14.7615
 -14.9925
 -15.6768
 -14.8361
 -68.5917
 -67.8023
 -44.0297
 -43.302
 -43.2925
 -10.2486
 -10.2771
 -10.2822
 -26.4232
 -25.8593
 -26.2021
 -25.5985
 -17.7469
 -17.9244
 -17.0886
 -16.9986
 -22.9029
 -22.5578
 -23.0497
 -22.0719
 -62.2508
 -60.5209
 -61.5108
 -61.3379
 -37.7957
 -36.7477
 -37.0041
 -36.6291
 -44.8198
 -46.2171
 -45.9329
 -46.9984
 -40.373
 -40.6135
 -39.4531
 -39.2672
 -47.9914
 -48.1879
 -47.4085
 -47.5206
 -34.2675
 -34.156
 -54.2618
 -51.4406
 -54.3448
 -51.9545
 -47.3853
 -46.6155
 -46.0795
 -47.8446
 -26.1587
 -25.3933
 -26.2754
 -25.5426
 -26.6452
 -26.8963
 -26.8709
 -26.9272
 -39.7909
 -39.7843
 -39.4654
 -40.2681
 -37.6994
 -38.088
 -38.7921
 -39.4492
 -22.9267
 -22.0837
 -21.9218
 -23.0034
 -45.8882
 -45.381
 -45.0537
 -44.7469
 -66.799
 -66.3434
 -66.5327
 -66.5584
 -56.0958
 -55.3833
 -55.6601
 -55.2414
 -68.0579
 -68.3524
 -67.9953
 -68.4133
 -58.182
 -59.1506
 -58.7955
 -58.945
 -36.8757
 -38.0645
 -36.899
 -37.1524
 -46.0879
 -45.087
 -34.7986
 -35.9201
 -34.5419
 -35.2863
 -26.2702
 -26.8355
 -26.8621
 -27.0887
 -50.8342
 -51.8678
 -51.9807
 -50.7763
 -34.3974
 -34.0337
 -34.4357
 -33.4489
 -31.3216
 -30.6676
 -30.4531
 -30.8224
 -24.8931
 -24.9724
 -25.3271
 -25.7621
 -27.4401
 -27.1152
 -26.9108
 -28.0283
 -25.2145
 -25.5616
 -25.853
 -25.4316
 -15.5359
 -15.6791
 -15.365
 -15.4075
 -49.4263
 -49.8456
 -48.4294
 -49.4809
 -44.42
 -44.8123
 -16.3249
 -16.7143
 -16.6291
 -16.007
 -28.7062
 -28.8783
 -42.9755
 -42.2649
 -43.0728
 -56.7898
 -56.6612
 -23.8325
 -23.7577
 -23.4945
 -24.1363
 -16.1176
 -16.4942
 -16.4522
 -16.5837
 -22.3518
 -22.6417
 -23.0661
 -23.2581
 -28.5049
 -28.837
 -29.113
 -29.3427
 -41.2593
 -39.9535
 -39.9386
 -40.0898
 -43.8996
 -43.4343
 -43.3395
 -43.0687
 -28.139
 -29.0147
 -28.9881
 -28.7714
 -40.5301
 -40.3312
 -40.7971
 -39.2851
 -35.9605
 -35.2722
 -35.1016
 -35.576
 -38.0035
 -38.7582
 -39.3009
 -38.7336
 -38.3369
 -37.2377
 -38.6081
 -34.7041
 -34.0988
 -35.528
 -34.9125
 -29.8069
 -30.1411
 -29.4212
 -29.513
 -25.5506
 -26.1174
 -25.2348
 -26.033
 -62.3219
 -62.1661
 -62.7273
 -63.2309
 -33.2254
 -33.1617
 -33.9796
 -34.044
 -22.0654
 -21.9783
 -21.3137
 -21.8696
 -20.58
 -20.4653
 -20.4281
 -20.167
 -23.041
 -22.7254
 -22.7416
 -22.9444
 -24.9441
 -24.8891
 -25.7023
 -25.8321
 -25.6593
 -25.2202
 -25.0338
 -25.3148
 -62.3004
 -62.942
 -62.6849
 -62.744
 -31.6322
 -31.6089
 -31.4181
 -32.2689
 -48.6595
 -48.9293
 -48.1881
 -47.8895
 -25.632
 -26.463
 -25.3592
 -26.1225
 -63.469
 -64.0399
 -63.9273
 -65.0274
 -65.181
 -65.1802
 -65.5431
 -46.6081
 -44.3604
 -45.1861
 -45.254
 -27.0671
 -27.3414
 -26.5793
 -27.1253
 -66.7515
 -66.0291
 -66.2946
 -30.9238
 -30.2086
 -30.6016
 -29.5015
 -58.179
 -58.4149
 -56.3612
 -56.7362
 -57.99
 -56.5858
 -29.4325
 -28.8557
 -29.1476
 -20.7364
 -20.9719
 -20.2397
 -20.5247
 -25.4552
 -24.8826
 -25.5647
 -25.6969
 -36.2222
 -37.3028
 -36.0748
 -63.1082
 -61.3913
 -61.6091
 -47.2718
 -46.3269
 -45.7029
 -46.3423
 -63.6562
 -63.8346
 -62.2959
 -64.7817
 -32.0423
 -32.9602
 -33.4063
 -32.6839
 -56.5958
 -56.9425
 -57.6221
 -55.6879
 -36.4629
 -36.6851
 -35.966
 -35.6875
 -27.5615
 -26.9308
 -27.3057
 -66.2471
 -65.3787
 -65.743
 -66.9367
 -44.8018
 -40.6285
 -41.8428
 -41.6825
 -40.9871
 -41.4308
 -41.3935
 -40.6592
 -26.9403
 -26.5995
 -26.5383
 -26.497
 -26.4745
 -27.3271
 -32.912
 -31.9471
 -31.7779
 -31.479
 -31.3853
 -32.4051
 -31.5548
 -32.1365
 -46.4195
 -67.2749
 -66.3393
 -65.9882
 -66.6661
 -13.379
 -12.8949
 -13.2825
 -13.258
 -29.2506
 -28.6118
 -27.1946
 -26.9391
 -27.2201
 -27.3902
 -26.48
 -26.5785
 -25.688
 -26.0291
 -48.2203
 -46.9505
 -47.3219
 -47.8839
 -49.4416
 -50.3027
 -48.8158
 -49.5172
 -27.5193
 -26.9151
 -45.1767
 -44.9171
 -46.4217
 -45.4666
 -46.6381
 -47.7314
 -46.6177
 -38.886
 -38.3174
 -37.7911
 -37.3928
 -33.1568
 -32.3047
 -32.956
 -32.3383
 -48.7675
 -50.1258
 -49.9743
 -49.1277
 -52.8751
 -53.6068
 -54.1561
 -53.3472
 -49.9349
 -51.263
 -50.0932
 -49.6568
 -50.2183
 -49.7395
 -48.6302
 -32.6583
 -32.9499
 -32.9337
 -32.3008
 -18.7556
 -18.771
 -19.0716
 -19.1063
 -30.1795
 -29.9963
 -29.6151
 -29.8278
 -52.3139
 -51.2692
 -50.5785
 -51.7421
 -44.9552
 -44.8283
 -44.5765
 -45.8759
 -30.1739
 -30.707
 -30.8964
 -31.0996
 -45.2262
 -44.0191
 -44.6581
 -45.1251
 -38.5796
 -38.9627
 -37.2613
 -38.7755
 -39.1318
 -40.1619
 -39.8133
 -39.9523
 -44.7968
 -45.2174
 -45.3792
 -63.7777
 -63.8982
 -63.5349
 -63.7474
 -29.8487
 -30.6375
 -30.219
 -30.4539
 -35.423
 -36.4755
 -36.2497
 -35.9251
 -19.0003
 -18.5792
 -18.6171
 -19.191
 -24.902
 -25.4549
 -25.3564
 -24.9962
 -26.0283
 -24.8171
 -25.3012
 -24.6711
 -24.6534
 -24.9983
 -24.9162
 -25.1628
 -38.1191
 -37.4618
 -37.7835
 -22.436
 -22.3404
 -22.5887
 -22.6689
 -23.5723
 -23.8443
 -24.4293
 -23.6262
 -65.7377
 -65.2942
 -65.0854
 -65.3033
 -38.7875
 -38.1145
 -37.9956
 -37.5794
 -54.0426
 -54.2909
 -53.9021
 -52.7621
 -40.885
 -41.3681
 -40.6157
 -39.9668
 -44.489
 -45.4354
 -44.6691
 -44.9633
 -26.677
 -26.026
 -26.4183
 -25.5028
 -35.2857
 -37.0837
 -35.7862
 -35.8505
 -52.9163
 -53.503
 -52.3042
 -52.6574
 -41.8478
 -41.4963
 -42.7388
 -42.3105
 -23.9338
 -23.707
 -24.561
 -24.6933
 -63.0631
 -63.4573
 -63.3324
 -63.5276
 -30.2783
 -29.5245
 -23.5763
 -35.5054
 -35.9643
 -36.4535
 -35.2151
 -33.0373
 -33.6788
 -32.7219
 -32.6738
 -16.9307
 -16.8266
 -17.452
 -29.0188
 -28.3518
 -28.1459
 -27.7369
 -40.9719
 -42.7739
 -42.1029
 -42.9155
 -36.1377
 -37.0392
 -36.4836
 -36.2266
 -59.4118
 -59.8835
 -59.9594
 -59.6954
 -25.2816
 -26.3191
 -25.59
 -26.2724
 -26.2356
 -26.0267
 -27.0143
 -17.6694
 -16.9073
 -17.248
 -17.7025
 -24.9608
 -25.7274
 -25.2479
 -39.9472
 -42.1173
 -40.2606
 -24.7014
 -24.6637
 -24.125
 -24.3782
 -33.0073
 -33.8847
 -34.1543
 -33.9437
 -9.04534
 -9.04292
 -9.03823
 -9.21053
 -32.244
 -31.8516
 -32.0586
 -22.0701
 -21.9968
 -22.0787
 -22.1104
 -32.2513
 -31.8101
 -30.9942
 -31.7766
 -24.3734
 -24.9821
 -24.9544
 -25.1772
 -44.9547
 -45.3695
 -44.6643
 -45.6909
 -48.3493
 -47.6121
 -48.5266
 -48.8124
 -65.3476
 -65.295
 -65.5649
 -64.9914
 -39.4424
 -38.1948
 -39.3291
 -39.6897
 -23.897
 -23.3469
 -23.8339
 -23.517
 -27.1686
 -26.8163
 -19.891
 -19.8575
 -20.108
 -20.0714
 -34.2832
 -34.6492
 -29.0174
 -30.2039
 -29.9868
 -26.1813
 -26.5683
 -26.9346
 -26.4435
 -61.0694
 -61.1083
 -59.8255
 -60.0583
 -60.3924
 -59.9738
 -59.4456
 -60.1371
 -26.7255
 -27.0995
 -26.693
 -25.9513
 -22.5371
 -22.6703
 -41.1044
 -41.2371
 -40.9428
 -42.0128
 -26.2281
 -25.8506
 -26.5197
 -26.3732
 -30.2585
 -29.2623
 -31.0767
 -67.7665
 -67.9669
 -67.5611
 -36.244
 -37.4314
 -36.8116
 -36.9898
 -56.2758
 -57.7066
 -56.0599
 -55.589
 -37.6861
 -38.6421
 -38.8161
 -37.6777
 -48.5328
 -49.5806
 -49.793
 -47.9318
 -23.7325
 -24.2545
 -23.8215
 -23.5975
 -25.4778
 -26.36
 -25.2104
 -26.1155
 -38.2005
 -37.2127
 -38.8751
 -37.7073
 -29.4514
 -30.3912
 -30.6701
 -29.3413
 -23.3886
 -23.6369
 -23.9023
 -24.567
 -33.142
 -33.6327
 -34.1728
 -34.6196
 -43.0268
 -43.3023
 -42.6014
 -37.612
 -38.5148
 -37.9145
 -38.5264
 -10.8556
 -11.2956
 -11.4437
 -11.1776
 -22.5997
 -22.5979
 -22.6785
 -22.6353
 -29.0169
 -28.8266
 -28.9989
 -29.7512
 -16.0449
 -16.4633
 -15.7266
 -16.2342
 -55.4248
 -55.0666
 -54.3867
 -65.7831
 -65.4948
 -65.0399
 -65.4592
 -50.1855
 -52.2826
 -51.3209
 -51.3374
 -37.3241
 -43.2665
 -44.4122
 -44.9924
 -44.0844
 -35.3645
 -36.0525
 -34.8806
 -35.0065
 -22.1836
 -21.4342
 -21.8755
 -26.0707
 -26.3288
 -26.5033
 -25.4905
 -11.1298
 -10.7101
 -11.0798
 -10.5168
 -17.2066
 -17.1498
 -17.454
 -17.0955
 -28.4453
 -28.4273
 -28.9499
 -29.4709
 -66.6581
 -65.665
 -65.9661
 -65.692
 -12.1617
 -12.1007
 -12.5552
 -12.3557
 -46.9701
 -47.7408
 -46.1468
 -47.0855
 -37.97
 -38.0208
 -39.0187
 -38.1167
 -26.7837
 -25.5747
 -25.4976
 -33.8737
 -32.8964
 -32.6335
 -32.6383
 -66.3236
 -66.2171
 -66.5375
 -22.7337
 -23.8499
 -24.0366
 -32.9212
 -33.5386
 -34.4763
 -34.2978
 -28.5589
 -28.3682
 -28.2085
 -27.9545
 -29.5993
 -29.4579
 -30.359
 -30.5789
 -21.7861
 -21.4019
 -21.3656
 -22.0875
 -34.0465
 -34.6607
 -33.698
 -34.868
 -61.2355
 -59.274
 -59.4725
 -58.592
 -59.5802
 -58.9681
 -58.4724
 -60.0036
 -20.8677
 -20.8375
 -21.0724
 -20.757
 -54.6833
 -54.8231
 -54.61
 -53.6003
 -60.2886
 -61.3994
 -60.8974
 -59.7329
 -53.5042
 -53.6409
 -52.2155
 -52.4555
 -43.8061
 -43.3306
 -44.2587
 -43.747
 -36.0734
 -35.3586
 -36.5038
 -28.4692
 -27.2779
 -27.7193
 -27.8518
 -48.8451
 -48.0562
 -47.0362
 -48.3296
 -51.3064
 -51.4038
 -52.2295
 -51.8277
 -68.6765
 -68.6166
 -68.0679
 -68.342
 -17.1899
 -17.565
 -17.4363
 -17.5111
 -20.0577
 -19.8437
 -19.9406
 -20.2594
 -21.9711
 -21.9667
 -22.8437
 -21.931
 -28.8364
 -27.8405
 -28.5535
 -28.5492
 -30.7212
 -30.8199
 -30.7633
 -61.1704
 -62.083
 -63.0932
 -62.5464
 -52.7808
 -52.4223
 -51.8281
 -51.419
 -34.9162
 -34.2528
 -34.0212
 -34.6144
 -60.1508
 -61.0434
 -40.9139
 -41.0876
 -41.0766
 -40.0317
 -60.0297
 -60.6304
 -61.4713
 -60.3469
 -39.0048
 -40.3173
 -38.7024
 -40.5445
 -28.2094
 -28.8606
 -27.6734
 -28.272
 -19.6838
 -19.1784
 -19.6044
 -20.078
 -10.7007
 -11.0492
 -10.499
 -10.8888
 -57.3215
 -56.593
 -56.4473
 -57.5201
 -58.0009
 -58.0107
 -58.2525
 -58.9557
 -32.1121
 -30.9969
 -31.7961
 -31.2976
 -37.256
 -36.7382
 -36.6007
 -37.3929
 -25.4652
 -24.8405
 -25.9155
 -41.1625
 -40.4586
 -40.5325
 -39.9395
 -25.6245
 -25.4568
 -25.8853
 -26.0014
 -35.7343
 -34.7112
 -34.0151
 -34.574
 -44.487
 -43.8522
 -44.3317
 -44.5392
 -37.9131
 -37.5861
 -37.3154
 -54.0361
 -52.7728
 -53.3477
 -53.3486
 -42.3486
 -43.7468
 -15.3919
 -16.0675
 -15.2009
 -15.5781
 -49.8029
 -49.2288
 -49.8109
 -26.9057
 -27.1019
 -27.1986
 -26.8062
 -42.9005
 -42.9871
 -42.4993
 -35.1988
 -34.3055
 -35.4147
 -34.6569
 -41.7247
 -40.3758
 -42.2335
 -41.3134
 -42.3241
 -43.6071
 -12.9316
 -12.9473
 -12.6644
 -12.8827
 -11.1812
 -10.7864
 -10.549
 -10.9605
 -36.3727
 -35.1973
 -35.6142
 -35.1325
 -41.5935
 -40.9248
 -41.4869
 -40.5717
 -13.1241
 -13.0715
 -13.1079
 -13.5003
 -26.4639
 -25.6819
 -21.3652
 -21.5456
 -21.6545
 -22.1718
 -42.6955
 -42.4942
 -43.9383
 -43.1183
 -40.6831
 -40.7633
 -41.7739
 -40.1898
 -41.6518
 -40.6178
 -40.4566
 -40.5154
 -28.789
 -28.9526
 -29.4993
 -28.774
 -23.9455
 -23.5413
 -23.0527
 -23.9897
 -17.8803
 -18.5259
 -18.4342
 -17.8561
 -24.3847
 -24.4363
 -24.4546
 -25.483
 -49.2672
 -48.6234
 -49.8954
 -49.4515
 -36.3609
 -34.1883
 -35.3318
 -16.5371
 -16.849
 -17.2952
 -45.2359
 -46.8848
 -46.0986
 -46.1514
 -46.0932
 -44.4738
 -45.1436
 -45.7784
 -31.9714
 -31.3942
 -31.0831
 -33.7459
 -34.1205
 -34.9698
 -34.0695
 -24.0151
 -23.6597
 -23.545
 -23.5695
 -55.0829
 -54.649
 -55.5784
 -55.3408
 -23.0329
 -22.9271
 -22.9488
 -23.1301
 -22.1022
 -21.7823
 -22.121
 -63.9671
 -65.3376
 -65.8084
 -64.9747
 -52.708
 -53.555
 -27.6132
 -27.2284
 -27.9917
 -27.8692
 -35.6481
 -36.7392
 -35.8125
 -33.5667
 -33.2148
 -33.3705
 -32.4636
 -23.3264
 -23.9543
 -23.5653
 -53.8484
 -54.729
 -53.0009
 -53.3477
 -23.2674
 -24.2369
 -23.5382
 -23.3478
 -47.3657
 -46.4322
 -45.6662
 -45.8816
 -23.2262
 -23.4696
 -24.1208
 -23.4049
 -23.9091
 -23.6704
 -26.9663
 -26.5531
 -26.7649
 -26.945
 -17.447
 -17.1648
 -16.6467
 -17.1729
 -50.052
 -51.14
 -29.6759
 -30.1672
 -30.3325
 -30.2353
 -64.9172
 -64.6487
 -64.8317
 -65.2646
 -28.6368
 -28.0001
 -28.8779
 -29.6271
 -51.8322
 -53.0758
 -53.3312
 -53.1357
 -59.2532
 -60.5048
 -58.6646
 -59.9167
 -47.0602
 -45.7366
 -63.4157
 -64.2705
 -63.9701
 -63.5338
 -23.4067
 -23.3888
 -23.165
 -23.9153
 -63.9754
 -64.1034
 -64.1217
 -63.924
 -66.112
 -66.9492
 -66.4149
 -66.0066
 -39.7567
 -39.7653
 -40.7962
 -40.4453
 -33.8111
 -33.3679
 -34.4117
 -34.9416
 -57.122
 -55.8313
 -56.8194
 -57.1012
 -16.0222
 -16.5714
 -16.137
 -15.9301
 -56.3155
 -57.676
 -29.4757
 -30.0953
 -30.1756
 -31.0313
 -57.3149
 -56.4072
 -55.5841
 -55.6788
 -24.1995
 -24.838
 -24.7288
 -24.6571
 -30.614
 -29.3622
 -29.8341
 -30.4493
 -24.7701
 -24.5586
 -25.5324
 -23.9897
 -23.6768
 -24.0456
 -23.507
 -22.6516
 -23.1092
 -22.9354
 -23.1788
 -41.0431
 -40.2205
 -39.9097
 -55.8142
 -55.8655
 -56.9216
 -57.0268
 -38.5786
 -38.003
 -37.4247
 -24.1677
 -23.7198
 -24.1
 -35.4258
 -36.6974
 -35.5471
 -36.4267
 -42.6506
 -42.5765
 -42.5669
 -43.8888
 -32.5973
 -33.5515
 -33.6998
 -33.3784
 -32.2609
 -31.9223
 -31.5595
 -30.4748
 -29.9206
 -29.7132
 -30.8417
 -31.4527
 -31.9085
 -30.4926
 -55.8929
 -55.8265
 -56.115
 -54.8761
 -44.7661
 -44.0527
 -44.7967
 -45.1547
 -34.2599
 -34.2644
 -33.7498
 -35.2065
 -22.8845
 -22.3707
 -22.8411
 -38.9057
 -38.2366
 -38.753
 -39.0866
 -27.2355
 -26.2615
 -26.7641
 -26.2474
 -14.1393
 -14.3727
 -14.0848
 -13.9412
 -30.953
 -30.4746
 -30.8338
 -30.7512
 -57.6445
 -57.1855
 -58.5851
 -58.0927
 -30.0477
 -30.9063
 -30.3598
 -29.8808
 -23.184
 -23.1742
 -23.3538
 -23.5678
 -23.7898
 -23.3776
 -23.4096
 -33.2325
 -33.4081
 -33.0159
 -43.5015
 -29.9203
 -28.5396
 -29.3638
 -29.3198
 -59.9096
 -59.717
 -60.3418
 -58.2144
 -58.4488
 -58.9094
 -29.4705
 -30.2625
 -29.641
 -30.1216
 -64.7018
 -65.2365
 -65.5689
 -65.471
 -24.5404
 -40.75
 -39.6144
 -40.3288
 -40.0744
 -24.4662
 -24.7362
 -24.6405
 -24.7482
 -58.9555
 -59.927
 -58.5008
 -59.0964
 -43.8206
 -45.3362
 -44.8755
 -44.0974
 -50.8782
 -51.7224
 -50.0329
 -50.4841
 -22.7005
 -22.8753
 -23.0642
 -22.6907
 -27.8924
 -28.5481
 -27.8396
 -27.9627
 -39.1746
 -38.4447
 -39.1244
 -38.0457
 -28.3068
 -27.4414
 -28.574
 -27.7646
 -43.214
 -43.744
 -44.8195
 -44.559
 -24.8351
 -24.6445
 -25.3234
 -25.2232
 -27.2313
 -27.4225
 -28.142
 -27.8285
 -40.3739
 -40.5035
 -40.52
 -41.5194
 -58.2143
 -59.2338
 -58.6668
 -59.5968
 -21.5272
 -21.8496
 -22.2228
 -22.1836
 -17.5804
 -16.8399
 -17.5977
 -17.4798
 -60.4604
 -61.7847
 -61.065
 -60.8539
 -18.2763
 -17.7539
 -18.3433
 -18.0257
 -17.8328
 -18.4123
 -35.9116
 -36.196
 -35.3945
 -35.0153
 -27.6141
 -28.1042
 -28.0759
 -27.4121
 -68.5373
 -68.479
 -68.5588
 -68.2716
 -59.0545
 -58.8816
 -60.141
 -43.3858
 -43.2581
 -44.3068
 -43.0678
 -23.9626
 -24.1104
 -23.4948
 -24.3196
 -27.1151
 -26.9671
 -26.7664
 -26.5801
 -27.0897
 -27.5033
 -43.9629
 -45.898
 -45.2477
 -44.4061
 -41.7692
 -41.6488
 -40.7137
 -41.9854
 -45.1388
 -44.8606
 -43.9768
 -45.0554
 -65.5168
 -65.4545
 -64.2572
 -65.9992
 -47.8776
 -47.7256
 -46.6455
 -30.8148
 -37.3318
 -36.952
 -37.1691
 -36.4743
 -38.023
 -36.8298
 -37.2265
 -37.8981
 -54.9509
 -54.7234
 -54.4899
 -53.7869
 -48.1332
 -47.2899
 -47.5408
 -48.3897
 -41.7157
 -40.8221
 -40.6087
 -29.116
 -28.3476
 -29.1505
 -28.0779
 -37.0013
 -38.5052
 -37.7071
 -37.671
 -30.5355
 -31.1556
 -30.1232
 -12.1723
 -12.1391
 -11.8622
 -12.3373
 -55.3329
 -57.5636
 -56.5056
 -54.3665
 -52.5677
 -54.6958
 -53.5431
 -12.7267
 -38.5373
 -38.6315
 -38.3691
 -39.5401
 -41.5237
 -41.635
 -19.6537
 -19.7187
 -19.6342
 -19.8615
 -22.1818
 -22.4247
 -23.2113
 -22.2391
 -26.0018
 -26.4152
 -26.0406
 -26.0488
 -25.3369
 -25.7205
 -25.9827
 -25.243
 -25.1847
 -25.697
 -30.6916
 -29.9046
 -29.6251
 -29.7439
 -31.7508
 -32.6981
 -68.1878
 -68.0471
 -23.6563
 -24.6587
 -23.5006
 -24.1649
 -33.6697
 -33.3576
 -34.1259
 -32.9839
 -21.0863
 -21.3452
 -20.3502
 -20.5481
 -56.8349
 -57.5752
 -55.9629
 -56.6698
 -51.5998
 -50.6127
 -51.4808
 -50.5371
 -43.1437
 -44.0676
 -44.1795
 -43.4987
 -39.2568
 -39.6124
 -41.0762
 -40.6077
 -36.239
 -35.8699
 -23.5192
 -47.0129
 -48.0568
 -48.1078
 -48.1625
 -63.5879
 -63.0549
 -64.3847
 -62.939
 -53.2376
 -54.5956
 -52.8644
 -53.483
 -9.06744
 -9.05191
 -9.10643
 -9.20212
 -64.9037
 -65.2139
 -65.0516
 -65.063
 -26.0245
 -26.0214
 -25.3573
 -26.3692
 -29.3724
 -28.4502
 -28.8056
 -28.1439
 -46.2175
 -46.3587
 -46.9454
 -47.2762
 -46.8691
 -46.3673
 -45.886
 -46.2127
 -23.8757
 -24.7891
 -24.2914
 -24.5742
 -64.6187
 -64.8063
 -64.4646
 -64.655
 -57.5992
 -58.0278
 -57.8365
 -58.4639
 -46.6482
 -46.7726
 -47.6064
 -47.7287
 -56.9938
 -55.9648
 -56.7947
 -56.8117
 -27.2919
 -28.1128
 -28.1381
 -28.349
 -24.0669
 -24.1524
 -24.4111
 -24.4966
 -55.5496
 -54.9825
 -54.362
 -54.6524
 -32.8849
 -32.5098
 -32.3877
 -31.587
 -33.6134
 -33.1771
 -32.9646
 -33.5164
 -11.3179
 -11.6134
 -11.6862
 -11.644
 -63.8758
 -64.1727
 -58.7162
 -58.6954
 -58.0532
 -59.456
 -20.8991
 -20.4192
 -20.2412
 -21.0042
 -28.1563
 -27.1083
 -27.0276
 -26.7275
 -57.9064
 -57.147
 -58.8282
 -58.7257
 -31.9307
 -32.1909
 -31.7116
 -32.6945
 -29.8387
 -30.0971
 -29.1726
 -29.2435
 -64.9606
 -65.3113
 -64.823
 -65.0337
 -38.3786
 -37.9971
 -38.3301
 -38.7579
 -35.9241
 -36.2064
 -36.0295
 -35.2986
 -51.7536
 -51.9751
 -52.4232
 -51.2608
 -43.9623
 -43.4628
 -43.1937
 -42.4992
 -31.9104
 -31.9297
 -30.9103
 -28.2079
 -28.8893
 -28.4711
 -29.7351
 -18.8847
 -18.5149
 -18.5487
 -19.3831
 -29.0921
 -29.556
 -29.7174
 -29.8636
 -37.4043
 -36.8212
 -37.173
 -36.5789
 -63.1782
 -63.5961
 -63.5805
 -62.4299
 -29.6566
 -31.0728
 -30.3312
 -30.1686
 -21.1328
 -21.0851
 -20.6066
 -20.185
 -45.8699
 -47.1451
 -46.5491
 -45.7869
 -41.6754
 -41.3385
 -40.8316
 -37.2562
 -38.4393
 -38.847
 -39.1305
 -18.0675
 -17.9896
 -18.0361
 -18.4869
 -38.8662
 -38.037
 -38.2647
 -37.818
 -64.3532
 -64.3514
 -64.3501
 -64.4415
 -37.8157
 -37.5558
 -38.0998
 -38.1081
 -22.3383
 -21.9963
 -22.242
 -22.406
 -24.9918
 -25.5137
 -24.9941
 -24.403
 -68.1607
 -67.8683
 -68.1298
 -68.0616
 -27.3062
 -27.5155
 -27.3782
 -26.2922
 -41.4937
 -40.1106
 -40.3824
 -40.9832
 -68.3104
 -68.4856
 -68.1446
 -67.8941
 -59.8788
 -61.5127
 -60.423
 -46.2731
 -46.2134
 -47.5679
 -47.9673
 -55.552
 -56.0819
 -57.2775
 -55.1516
 -14.043
 -14.396
 -14.6857
 -14.5666
 -24.8576
 -25.678
 -24.4708
 -61.3189
 -62.1345
 -61.9089
 -62.3361
 -41.0788
 -40.638
 -41.6977
 -40.2213
 -50.0929
 -49.7275
 -51.2606
 -48.9157
 -21.8211
 -21.7475
 -21.1938
 -20.9827
 -31.6826
 -32.854
 -31.6157
 -32.3767
 -43.2074
 -41.4827
 -42.1862
 -20.2441
 -20.4283
 -20.6769
 -20.6455
 -24.5542
 -23.0465
 -23.421
 -23.1918
 -30.2887
 -61.6129
 -62.4029
 -61.5928
 -62.3314
 -14.8071
 -14.7765
 -14.358
 -14.3855
 -50.8863
 -53.0591
 -52.076
 -53.3458
 -42.0629
 -41.3361
 -41.4021
 -40.3777
 -12.2372
 -53.4766
 -52.7412
 -54.1106
 -61.5836
 -62.915
 -61.9762
 -62.0962
 -34.3751
 -34.2211
 -35.7438
 -34.787
 -45.3685
 -45.384
 -46.1841
 -44.8029
 -25.8668
 -25.1988
 -36.0612
 -35.6145
 -35.481
 -36.4443
 -25.8515
 -25.3846
 -24.9394
 -25.4754
 -28.3538
 -28.0526
 -29.1773
 -29.2176
 -47.2889
 -46.3932
 -47.2496
 -47.4
 -16.3716
 -16.2823
 -16.256
 -16.9126
 -23.9714
 -23.6559
 -23.907
 -23.5071
 -17.556
 -17.9247
 -22.0541
 -22.0887
 -22.1274
 -22.0607
 -21.119
 -20.6787
 -21.3169
 -20.8034
 -64.7839
 -64.3479
 -63.5116
 -63.5213
 -40.2239
 -40.0893
 -39.6649
 -41.1776
 -31.2078
 -32.504
 -31.7544
 -31.7649
 -36.9659
 -36.5597
 -36.3098
 -37.2237
 -62.8021
 -62.5351
 -20.0662
 -19.8236
 -19.8796
 -20.0622
 -62.6384
 -62.8217
 -61.9777
 -15.361
 -15.2678
 -15.3297
 -15.1064
 -59.7308
 -58.0875
 -59.2825
 -58.7168
 -28.7311
 -28.1959
 -28.9487
 -28.0828
 -33.7234
 -33.6097
 -33.3245
 -61.0324
 -60.351
 -60.7313
 -61.2293
 -39.9706
 -38.9349
 -39.9452
 -39.3166
 -33.8088
 -34.3664
 -34.946
 -34.2042
 -28.9824
 -28.6075
 -31.2828
 -29.7653
 -30.7657
 -30.313
 -41.9814
 -40.7904
 -41.4461
 -64.0865
 -63.0379
 -62.7979
 -64.1348
 -33.3848
 -33.9363
 -33.2654
 -33.6345
 -31.5871
 -31.009
 -27.8275
 -27.1443
 -26.9082
 -27.7109
 -16.4377
 -16.5211
 -17.0784
 -40.2658
 -40.5439
 -39.1373
 -39.1425
 -64.2771
 -64.4782
 -64.3749
 -17.4774
 -17.2927
 -17.4876
 -32.7082
 -32.1396
 -32.5375
 -31.7329
 -44.5636
 -44.7735
 -43.5705
 -43.9772
 -14.1725
 -13.9566
 -14.0922
 -14.2252
 -56.8101
 -57.2449
 -56.7009
 -56.4523
 -45.5828
 -45.0006
 -45.0826
 -44.4255
 -52.6113
 -52.9164
 -52.1838
 -60.7585
 -61.1369
 -62.1582
 -61.247
 -36.7864
 -35.5895
 -36.6265
 -36.8967
 -62.6047
 -62.0746
 -62.0944
 -61.6169
 -29.1609
 -28.9918
 -29.5201
 -28.5625
 -63.83
 -43.611
 -35.5804
 -35.302
 -36.1431
 -35.0443
 -41.86
 -41.4704
 -40.8578
 -40.5886
 -48.6685
 -48.818
 -48.0628
 -47.4176
 -42.5899
 -42.321
 -43.3756
 -42.8274
 -49.5031
 -48.7421
 -49.6203
 -49.5252
 -35.577
 -34.9883
 -35.167
 -36.0241
 -33.9803
 -34.1258
 -34.3412
 -34.7853
 -31.4191
 -31.1117
 -30.8653
 -31.8202
 -34.311
 -34.264
 -33.4705
 -23.2806
 -23.3798
 -23.2983
 -23.7513
 -36.8175
 -44.3532
 -45.4829
 -45.6521
 -45.393
 -62.9242
 -63.017
 -61.6329
 -27.9044
 -26.7749
 -27.1566
 -26.8492
 -37.9091
 -39.1078
 -38.6417
 -42.0944
 -41.5983
 -41.2531
 -40.8317
 -44.879
 -45.4708
 -46.4416
 -46.8871
 -58.6849
 -59.2786
 -60.1253
 -58.9738
 -25.4221
 -25.301
 -25.7362
 -24.7234
 -37.6924
 -37.1293
 -37.13
 -36.5185
 -34.6246
 -34.2958
 -33.5731
 -34.7857
 -33.8854
 -33.4939
 -33.2233
 -32.6681
 -36.0368
 -35.7965
 -36.3692
 -35.261
 -48.0601
 -46.1327
 -48.4355
 -47.0109
 -33.7704
 -32.454
 -32.9443
 -33.236
 -19.9135
 -19.9359
 -19.9022
 -20.074
 -18.3291
 -18.6561
 -18.5094
 -35.9059
 -36.1058
 -36.84
 -37.1358
 -36.3687
 -36.387
 -36.9907
 -37.4539
 -34.1825
 -33.4011
 -34.7739
 -34.677
 -60.8644
 -61.1847
 -59.6583
 -59.8456
 -48.8469
 -47.8577
 -47.5364
 -48.6346
 -27.1733
 -27.673
 -27.515
 -27.7211
 -22.607
 -23.451
 -23.2758
 -22.2434
 -58.4185
 -57.7894
 -57.1363
 -58.3659
 -15.146
 -14.6919
 -14.7986
 -15.3565
 -29.6707
 -30.4682
 -30.0149
 -29.9221
 -21.4966
 -21.8282
 -21.7611
 -25.019
 -25.3649
 -25.4971
 -26.1358
 -46.8707
 -46.7855
 -47.6554
 -45.7073
 -24.8042
 -23.9905
 -24.1965
 -24.6039
 -18.6404
 -19.9084
 -19.0667
 -14.2356
 -14.6607
 -14.9074
 -14.6443
 -66.1648
 -66.4712
 -66.4256
 -67.1778
 -26.4476
 -25.9398
 -26.3118
 -26.6551
 -40.2908
 -38.9471
 -39.2754
 -39.9111
 -59.7775
 -59.4624
 -58.4144
 -59.3387
 -53.2789
 -54.3532
 -52.826
 -53.2149
 -27.0016
 -27.2272
 -26.6537
 -26.9789
 -20.4969
 -19.8268
 -19.2452
 -19.9885
 -39.3581
 -39.9281
 -38.7984
 -39.3247
 -20.9697
 -21.6888
 -31.8748
 -30.5107
 -30.8561
 -31.5051
 -32.5319
 -32.4583
 -31.9383
 -32.8116
 -31.2788
 -31.3439
 -30.9092
 -22.8393
 -23.0642
 -22.8473
 -40.6995
 -40.7344
 -41.1938
 -41.4142
 -39.5999
 -39.4227
 -38.8815
 -40.4119
 -26.9431
 -27.7461
 -27.3219
 -27.0575
 -49.4799
 -50.3648
 -48.9754
 -49.2578
 -35.4352
 -34.2482
 -34.8653
 -35.7161
 -22.8807
 -22.8752
 -22.7812
 -22.8568
 -30.5781
 -31.3982
 -30.6917
 -40.7942
 -40.6413
 -39.8556
 -40.3771
 -36.8465
 -37.5656
 -37.9679
 -65.412
 -65.5018
 -65.0577
 -64.9092
 -17.6458
 -17.3216
 -17.7229
 -16.9085
 -29.3756
 -30.0971
 -30.1064
 -29.5049
 -28.2971
 -28.1337
 -27.5041
 -28.3639
 -65.7603
 -65.6495
 -66.7171
 -67.2496
 -52.2876
 -52.8727
 -52.6952
 -25.3485
 -25.3621
 -24.9064
 -25.4341
 -50.6741
 -49.4876
 -49.9486
 -26.415
 -26.5429
 -25.9958
 -26.1458
 -10.5868
 -10.8108
 -10.677
 -10.8742
 -60.8435
 -61.1287
 -62.0604
 -60.4859
 -22.9641
 -22.7611
 -22.4836
 -22.0315
 -65.4109
 -65.4193
 -65.2413
 -65.3201
 -24.5679
 -25.2948
 -24.6843
 -25.1011
 -10.9272
 -10.4483
 -10.7952
 -10.8463
 -19.3876
 -18.9059
 -19.4037
 -19.5636
 -23.3449
 -23.7556
 -24.2157
 -23.2307
 -34.9142
 -33.7782
 -22.381
 -22.5602
 -21.4422
 -21.5826
 -41.8547
 -41.127
 -40.8799
 -40.276
 -34.1117
 -34.1093
 -33.8539
 -35.0785
 -59.6494
 -58.3631
 -60.2898
 -60.5304
 -56.6958
 -56.4289
 -57.6516
 -57.2366
 -53.8466
 -52.3995
 -53.5341
 -52.817
 -59.1355
 -59.3192
 -59.7044
 -58.7973
 -44.5265
 -44.4482
 -45.3041
 -44.6089
 -54.5355
 -55.6725
 -55.4237
 -55.129
 -18.1865
 -17.4145
 -17.3533
 -18.2268
 -56.7473
 -57.5055
 -57.4059
 -57.215
 -31.518
 -30.8124
 -30.2822
 -30.6058
 -51.0864
 -49.3142
 -49.5309
 -57.0297
 -57.9555
 -58.2097
 -57.8737
 -23.1636
 -22.4396
 -22.3975
 -22.7014
 -19.5506
 -19.4105
 -19.1586
 -19.2667
 -46.5658
 -46.4712
 -45.8957
 -47.6388
 -31.892
 -31.8421
 -31.7278
 -31.0939
 -45.2802
 -44.7975
 -45.1877
 -44.8251
 -44.7723
 -44.6769
 -46.6922
 -30.2069
 -29.9948
 -29.3383
 -44.0254
 -44.695
 -38.1943
 -36.9881
 -63.5599
 -64.2023
 -64.2021
 -63.5827
 -36.8353
 -37.1323
 -36.5402
 -37.6371
 -43.737
 -43.4526
 -44.8009
 -43.3972
 -40.7472
 -41.2295
 -40.624
 -41.5112
 -54.808
 -51.3082
 -51.7052
 -50.9472
 -50.7236
 -32.8348
 -33.1754
 -32.2769
 -32.2928
 -21.9522
 -21.9531
 -21.9493
 -21.9644
 -43.8171
 -42.9362
 -44.0402
 -43.419
 -45.6317
 -45.3195
 -44.7512
 -46.1952
 -11.7953
 -12.1053
 -12.2369
 -12.4929
 -35.8345
 -36.7061
 -36.136
 -35.5897
 -34.5996
 -33.845
 -33.4801
 -34.1908
 -43.5601
 -42.8006
 -23.5648
 -23.6933
 -23.9276
 -23.612
 -28.8207
 -29.2415
 -29.1076
 -28.6828
 -24.4944
 -24.2037
 -24.0332
 -24.0904
 -27.5381
 -28.05
 -27.9638
 -27.4052
 -24.4009
 -24.334
 -24.0548
 -24.4455
 -53.17
 -52.3556
 -52.6043
 -53.4634
 -56.4088
 -56.0125
 -54.9711
 -55.6895
 -26.6969
 -26.3351
 -25.9247
 -26.6374
 -35.8733
 -35.2323
 -35.8893
 -35.3199
 -53.9391
 -52.8656
 -53.9372
 -53.3825
 -32.7093
 -32.0462
 -32.0554
 -33.2147
 -26.5396
 -27.1442
 -20.5195
 -20.7727
 -20.8998
 -20.427
 -34.569
 -34.2701
 -33.4745
 -33.1826
 -53.8215
 -53.3579
 -53.5811
 -54.9163
 -63.9768
 -63.2391
 -63.5021
 -64.0231
 -12.926
 -12.8802
 -31.1657
 -32.0366
 -32.1261
 -32.5993
 -29.9031
 -28.7662
 -29.4797
 -29.5357
 -29.2598
 -29.1019
 -24.8774
 -25.1623
 -25.1584
 -25.338
 -34.2552
 -35.0789
 -35.5371
 -18.2148
 -18.6045
 -18.6337
 -18.9363
 -57.4304
 -58.2509
 -56.4656
 -57.6533
 -64.0831
 -63.9616
 -63.7301
 -66.028
 -65.6285
 -64.6626
 -65.4158
 -39.9845
 -41.457
 -41.0872
 -41.1205
 -35.6326
 -36.8731
 -35.3113
 -36.3363
 -49.8271
 -51.4862
 -51.9596
 -51.1452
 -42.9119
 -42.5918
 -43.6467
 -42.7312
 -41.57
 -42.4792
 -41.8889
 -37.5938
 -37.7168
 -37.2758
 -38.5687
 -47.6235
 -50.0138
 -49.1007
 -47.8167
 -32.6508
 -31.9796
 -32.4709
 -32.6465
 -36.4058
 -36.1802
 -37.3256
 -35.9784
 -45.0818
 -44.7996
 -44.1972
 -45.0502
 -35.8518
 -35.3663
 -35.1202
 -36.0549
 -11.0622
 -10.9394
 -11.4012
 -11.3696
 -25.5697
 -25.2899
 -25.2166
 -24.8179
 -47.5109
 -47.3576
 -48.8014
 -48.9754
 -24.6157
 -24.686
 -23.7741
 -23.5369
 -22.7731
 -21.916
 -22.7901
 -23.3785
 -54.331
 -53.9528
 -54.5866
 -53.2104
 -52.1966
 -50.9422
 -52.1486
 -51.7343
 -57.5914
 -56.4858
 -57.2726
 -57.9159
 -48.2801
 -48.3026
 -49.3716
 -48.8266
 -31.2226
 -30.9142
 -30.4421
 -30.9087
 -25.9556
 -25.6911
 -26.2584
 -25.5273
 -45.4905
 -43.8257
 -45.6637
 -44.2123
 -26.2329
 -26.478
 -26.5374
 -26.5179
 -20.9269
 -21.0688
 -21.2633
 -21.4832
 -35.1401
 -35.9068
 -35.2263
 -35.8843
 -29.491
 -28.9583
 -28.4159
 -30.1607
 -30.5303
 -31.6214
 -30.8151
 -21.0423
 -20.6471
 -20.1555
 -20.6455
 -26.5113
 -26.3885
 -26.148
 -26.2272
 -47.0283
 -47.7101
 -47.0986
 -47.337
 -37.113
 -37.9259
 -38.1794
 -67.1816
 -66.4921
 -66.7281
 -66.9702
 -59.9989
 -60.8983
 -61.6942
 -60.5149
 -29.2239
 -29.8742
 -28.8746
 -29.8177
 -38.3676
 -39.1499
 -21.8753
 -21.8006
 -21.1013
 -22.1207
 -37.0713
 -36.0486
 -35.7825
 -36.6404
 -56.6896
 -57.0711
 -56.0277
 -57.0245
 -25.827
 -25.9981
 -26.1758
 -31.8782
 -32.1879
 -32.2571
 -31.1399
 -29.473
 -30.4509
 -30.4339
 -30.2764
 -35.1686
 -36.037
 -36.2374
 -35.1338
 -33.3147
 -33.8472
 -34.4943
 -33.7558
 -36.3903
 -36.8518
 -36.1224
 -37.1924
 -32.5568
 -33.1948
 -50.8596
 -49.9082
 -51.6621
 -50.5194
 -33.0779
 -32.3103
 -32.5841
 -33.1202
 -41.3515
 -40.0092
 -40.736
 -32.8875
 -33.7212
 -33.1139
 -33.6204
 -42.1411
 -41.5642
 -40.9894
 -41.7029
 -24.7411
 -24.0735
 -24.5779
 -23.7039
 -33.1133
 -32.9395
 -34.0187
 -39.1793
 -39.4352
 -40.4562
 -38.6075
 -34.6942
 -34.4545
 -35.0913
 -24.4243
 -24.6193
 -24.0723
 -42.7467
 -42.5242
 -42.3927
 -41.3202
 -34.9453
 -35.5914
 -35.7811
 -13.2334
 -13.3916
 -13.5502
 -12.8532
 -42.8876
 -42.1289
 -41.576
 -43.0634
 -30.0581
 -29.2389
 -29.3771
 -29.0518
 -53.8848
 -53.9082
 -54.4214
 -54.7685
 -56.8959
 -55.9144
 -57.5137
 -57.2087
 -22.7815
 -23.6863
 -22.5311
 -22.7239
 -38.796
 -38.1877
 -37.5108
 -27.4944
 -26.7418
 -27.3106
 -27.2484
 -55.2619
 -53.7428
 -54.6719
 -36.5394
 -37.4529
 -36.8367
 -37.5953
 -46.4473
 -46.9404
 -46.8564
 -46.4554
 -60.4314
 -60.4543
 -61.3394
 -60.3534
 -9.50232
 -9.2775
 -9.32134
 -9.49746
 -27.3986
 -27.604
 -28.0251
 -27.3087
 -37.9028
 -39.6528
 -38.9764
 -39.4175
 -20.0835
 -19.6587
 -19.4007
 -34.8405
 -35.6058
 -35.4523
 -34.627
 -61.3952
 -44.2252
 -43.317
 -42.231
 -43.424
 -55.6569
 -55.6306
 -55.6912
 -56.2261
 -50.0319
 -49.9103
 -49.6185
 -50.7344
 -38.6127
 -38.3033
 -36.6184
 -35.566
 -35.686
 -35.5699
 -13.9086
 -14.3961
 -13.9436
 -14.2036
 -28.7979
 -28.5224
 -28.1855
 -27.6085
 -27.539
 -28.1337
 -27.6993
 -62.9154
 -63.9209
 -63.277
 -62.8547
 -35.2156
 -35.1913
 -36.1104
 -36.1936
 -38.06
 -37.6421
 -36.8617
 -37.5113
 -56.6124
 -55.5514
 -57.304
 -55.7547
 -36.0655
 -35.8138
 -36.977
 -36.2631
 -17.7849
 -17.8968
 -17.3612
 -17.547
 -34.2737
 -34.0077
 -34.6338
 -34.2371
 -27.0928
 -27.1578
 -27.2784
 -27.7532
 -25.6507
 -25.0906
 -25.1113
 -25.4204
 -21.7925
 -21.9977
 -21.77
 -21.7182
 -16.662
 -16.436
 -16.2845
 -17.0176
 -64.59
 -64.2978
 -64.4496
 -64.1626
 -15.0556
 -15.2314
 -14.7217
 -15.4082
 -35.3969
 -34.7534
 -35.3643
 -34.6019
 -63.8472
 -64.1448
 -63.1824
 -63.5636
 -31.1061
 -30.8078
 -31.387
 -31.5478
 -21.8282
 -59.3226
 -58.7353
 -58.946
 -60.3973
 -24.515
 -17.4945
 -18.2055
 -18.2414
 -17.5536
 -40.0573
 -41.4207
 -50.6874
 -49.3683
 -51.3102
 -49.7711
 -53.7444
 -53.8259
 -54.5714
 -54.3486
 -66.2049
 -65.4515
 -66.5084
 -51.2602
 -52.7854
 -52.4361
 -52.1078
 -31.2448
 -63.021
 -45.4834
 -45.3282
 -44.8631
 -64.2729
 -64.7689
 -64.9181
 -64.6652
 -31.7251
 -31.5465
 -31.6562
 -31.0055
 -27.0739
 -27.3853
 -26.6037
 -26.4772
 -44.1021
 -43.3979
 -43.814
 -45.3596
 -61.1889
 -61.6939
 -60.6402
 -60.2303
 -58.4084
 -58.1029
 -58.596
 -57.9961
 -41.2158
 -42.9283
 -42.7327
 -16.2563
 -15.8842
 -16.9833
 -16.2209
 -9.90593
 -10.3349
 -10.0997
 -10.2671
 -20.2411
 -19.5005
 -19.3302
 -19.7659
 -37.1771
 -38.064
 -37.1243
 -18.0167
 -18.5256
 -18.3243
 -17.9541
 -51.3408
 -50.9806
 -52.2791
 -53.7016
 -53.7106
 -53.0844
 -53.661
 -24.4866
 -24.2181
 -46.3896
 -46.6945
 -68.564
 -68.2774
 -68.6229
 -65.1687
 -65.6982
 -65.4983
 -65.8417
 -32.7593
 -32.0995
 -33.321
 -32.7573
 -28.4902
 -28.3359
 -27.9557
 -28.8876
 -34.7157
 -34.656
 -35.6289
 -35.1834
 -64.9479
 -64.7946
 -65.16
 -64.9066
 -46.6521
 -47.3941
 -47.0358
 -46.3083
 -21.4866
 -21.4145
 -21.479
 -21.872
 -46.7361
 -47.2671
 -46.4051
 -47.4883
 -39.3126
 -39.4941
 -38.522
 -39.747
 -44.6372
 -45.3022
 -45.2832
 -8.92344
 -8.98554
 -9.02658
 -28.0723
 -27.5975
 -31.7632
 -31.7503
 -31.0855
 -32.2917
 -50.5315
 -51.8579
 -50.8389
 -50.4917
 -46.8055
 -47.1417
 -48.4769
 -47.8394
 -47.8149
 -47.1949
 -49.1714
 -13.8519
 -13.8406
 -21.3589
 -21.2423
 -21.5668
 -21.4154
 -39.0387
 -13.5594
 -13.0997
 -13.2706
 -13.3065
 -26.83
 -27.6829
 -27.1173
 -26.9795
 -33.0567
 -32.5526
 -16.8717
 -17.8868
 -17.8081
 -17.2561
 -64.5029
 -65.3436
 -65.2256
 -64.6307
 -60.2354
 -60.8414
 -60.5188
 -61.4575
 -23.6278
 -24.9211
 -23.9142
 -24.5537
 -28.0182
 -27.6239
 -29.0699
 -28.8115
 -28.2425
 -27.8887
 -28.2615
 -48.7535
 -49.6621
 -47.8306
 -48.7573
 -21.6482
 -22.1642
 -22.4493
 -22.4961
 -34.7583
 -34.9291
 -34.6278
 -43.3772
 -43.814
 -44.1359
 -45.1275
 -27.8177
 -27.9997
 -28.4308
 -28.1391
 -25.2733
 -25.9155
 -26.4058
 -25.6118
 -25.6663
 -25.2097
 -25.3582
 -25.9119
 -30.8367
 -31.0369
 -31.9226
 -31.2448
 -42.5688
 -41.8927
 -26.9802
 -27.0856
 -27.239
 -26.6243
 -65.8241
 -64.428
 -64.811
 -64.8372
 -24.6504
 -25.0413
 -24.7111
 -25.1254
 -19.1212
 -18.9289
 -19.5351
 -19.2896
 -39.3892
 -39.2486
 -15.5718
 -15.618
 -15.2248
 -15.7502
 -29.394
 -30.1176
 -29.0407
 -62.853
 -62.9194
 -63.4396
 -63.3816
 -16.2404
 -15.9406
 -16.1274
 -25.2465
 -25.1548
 -25.7611
 -25.5146
 -17.0193
 -24.8763
 -24.5603
 -24.7278
 -24.0705
 -35.9812
 -35.3218
 -36.1447
 -36.0464
 -31.7036
 -31.8953
 -32.3578
 -31.6556
 -63.6148
 -64.6443
 -37.8203
 -38.4848
 -38.2482
 -37.8621
 -24.1096
 -23.2701
 -24.2496
 -23.1974
 -28.5875
 -30.1321
 -29.27
 -28.7155
 -58.5431
 -57.9241
 -57.8951
 -58.2085
 -32.3159
 -32.8161
 -33.6111
 -33.1907
 -39.7395
 -53.8123
 -54.1361
 -53.2103
 -28.731
 -28.961
 -28.1492
 -29.162
 -46.3542
 -45.9276
 -46.3516
 -45.3489
 -29.8829
 -29.1487
 -29.3749
 -30.1129
 -63.1096
 -62.4079
 -61.8723
 -62.9142
 -67.7078
 -67.9242
 -67.6049
 -25.414
 -25.7964
 -26.4541
 -26.0447
 -41.9978
 -42.255
 -41.0986
 -41.6111
 -44.9118
 -45.3813
 -45.935
 -46.342
 -27.3943
 -27.5575
 -25.0197
 -24.7851
 -24.547
 -25.2872
 -30.7398
 -32.0825
 -39.7045
 -40.1501
 -39.6149
 -39.2737
 -42.0029
 -42.3564
 -43.2382
 -42.0536
 -31.0042
 -31.594
 -32.1817
 -31.661
 -38.6932
 -38.7496
 -38.7828
 -55.9465
 -54.9037
 -54.3672
 -55.1371
 -50.0546
 -49.5998
 -50.1853
 -31.0625
 -32.0953
 -30.7644
 -31.6394
 -25.6882
 -24.7738
 -24.3914
 -25.4231
 -45.6247
 -44.253
 -44.424
 -45.1265
 -32.1887
 -32.0493
 -31.0828
 -22.4902
 -22.4263
 -22.5061
 -22.4423
 -27.7872
 -27.7412
 -28.0358
 -28.273
 -52.2955
 -51.4125
 -51.1087
 -66.1575
 -65.2717
 -65.6433
 -44.5402
 -45.0712
 -45.2422
 -27.7708
 -27.1007
 -28.0508
 -27.4461
 -66.8352
 -67.1152
 -66.8262
 -67.1845
 -43.3749
 -42.6781
 -43.1472
 -43.9473
 -53.9387
 -54.4288
 -55.6876
 -55.7298
 -52.6481
 -53.4022
 -52.8302
 -52.9504
 -18.9352
 -18.3047
 -18.4345
 -30.5467
 -30.7571
 -30.2081
 -30.8252
 -54.6102
 -54.9365
 -54.0141
 -54.0627
 -33.5461
 -33.9041
 -33.9385
 -34.867
 -46.6144
 -46.667
 -46.5588
 -45.4595
 -58.0851
 -58.9628
 -21.3476
 -21.7869
 -21.7123
 -21.9905
 -49.3088
 -48.5031
 -50.3442
 -48.9796
 -31.1055
 -30.8701
 -30.543
 -31.3899
 -45.0532
 -43.4547
 -64.8135
 -64.7646
 -63.7872
 -64.8491
 -53.447
 -55.0288
 -52.9125
 -55.3579
 -66.7848
 -67.1197
 -67.7194
 -67.7276
 -48.9692
 -49.0479
 -49.6171
 -44.9992
 -46.4353
 -46.3571
 -45.7737
 -45.7495
 -45.1356
 -45.5764
 -44.3714
 -26.6502
 -26.8388
 -26.2518
 -26.0356
 -17.7635
 -17.548
 -18.1543
 -35.5094
 -35.4723
 -35.6594
 -55.8627
 -54.6314
 -55.2774
 -54.3892
 -31.2782
 -31.824
 -32.5556
 -31.8673
 -24.3879
 -23.5101
 -23.7223
 -24.4652
 -36.2535
 -35.3668
 -34.8442
 -34.9517
 -29.5044
 -30.6231
 -29.5569
 -65.4053
 -65.6383
 -64.4697
 -64.317
 -21.9836
 -22.1595
 -23.9398
 -24.2991
 -24.3357
 -47.4596
 -47.8777
 -46.6998
 -48.6527
 -34.9548
 -36.1578
 -35.8643
 -35.8159
 -23.3969
 -23.5273
 -23.9956
 -23.4991
 -38.323
 -36.5794
 -36.7954
 -37.6525
 -29.0957
 -28.5
 -29.5095
 -29.5378
 -58.1969
 -58.7865
 -60.4676
 -27.9207
 -27.8767
 -28.4074
 -28.3583
 -38.0149
 -38.7621
 -22.896
 -23.6109
 -23.3179
 -23.0162
 -23.9341
 -23.3193
 -23.6234
 -23.375
 -58.7127
 -58.3756
 -24.9508
 -25.5822
 -25.2192
 -24.6293
 -36.4196
 -35.605
 -35.98
 -36.5495
 -30.336
 -18.879
 -18.326
 -18.5047
 -39.6164
 -39.3017
 -39.4428
 -38.7591
 -60.5671
 -60.721
 -60.0911
 -61.2107
 -18.8612
 -19.0971
 -19.189
 -18.6199
 -24.2346
 -24.669
 -24.0791
 -24.2161
 -44.0257
 -44.3854
 -44.4118
 -19.6034
 -19.5565
 -20.0068
 -20.0981
 -66.266
 -65.6248
 -65.6994
 -66.4842
 -21.4009
 -21.7396
 -21.8766
 -21.1496
 -43.3061
 -42.2755
 -42.9695
 -43.8798
 -30.7075
 -31.3683
 -31.071
 -30.5541
 -23.3816
 -23.6098
 -23.415
 -29.2233
 -30.0828
 -29.2151
 -29.9051
 -23.3506
 -22.8688
 -23.2056
 -23.1984
 -24.4427
 -23.9851
 -24.2132
 -50.3921
 -49.2056
 -50.6711
 -48.2258
 -47.2783
 -34.2645
 -36.0568
 -34.8391
 -34.9004
 -62.7241
 -62.4326
 -61.6227
 -62.3781
 -39.9053
 -41.1171
 -39.3086
 -40.7604
 -42.5067
 -43.2767
 -42.4402
 -42.2642
 -24.1061
 -23.8624
 -24.4785
 -25.1305
 -24.8587
 -43.1222
 -41.9526
 -42.6664
 -43.5222
 -61.9886
 -63.3924
 -37.0255
 -37.3329
 -36.3108
 -37.4645
 -23.1335
 -23.014
 -23.4431
 -57.8337
 -58.9061
 -57.6544
 -58.0986
 -37.4055
 -36.0415
 -36.5897
 -36.7984
 -23.8821
 -23.5988
 -23.9214
 -24.1348
 -34.7724
 -34.6864
 -36.012
 -35.0371
 -42.1886
 -44.0295
 -20.5067
 -20.2421
 -20.3676
 -20.1144
 -24.5554
 -25.7755
 -26.1287
 -25.8388
 -26.3805
 -26.1619
 -25.8552
 -24.9864
 -25.1544
 -25.6447
 -36.9915
 -36.6756
 -36.6375
 -40.5544
 -40.1777
 -39.7396
 -39.3421
 -26.7583
 -26.6441
 -26.7795
 -26.6944
 -31.2482
 -30.9858
 -38.3437
 -37.7658
 -38.2887
 -37.7051
 -38.6862
 -38.6659
 -34.7672
 -35.5823
 -35.8512
 -34.8581
 -15.4009
 -16.0785
 -15.9572
 -16.1988
 -38.0567
 -23.3808
 -23.8619
 -23.5112
 -23.3857
 -65.4407
 -66.1198
 -65.3411
 -47.775
 -47.6433
 -46.706
 -47.8825
 -34.0889
 -34.437
 -34.0724
 -32.843
 -37.5607
 -38.2579
 -37.0406
 -25.199
 -25.7009
 -25.4891
 -25.1218
 -57.9695
 -58.8916
 -57.2739
 -58.3293
 -43.8874
 -43.4529
 -44.2938
 -43.8641
 -58.3549
 -58.9163
 -57.0104
 -58.0557
 -21.3885
 -21.387
 -20.9586
 -20.9947
 -26.3028
 -26.8285
 -50.2553
 -49.782
 -49.2804
 -50.079
 -61.311
 -61.2289
 -61.5495
 -60.9756
 -68.1117
 -68.4989
 -67.7245
 -68.4975
 -60.1407
 -59.1496
 -59.9205
 -42.7677
 -43.935
 -42.6755
 -43.4637
 -62.3565
 -62.9075
 -62.8709
 -62.8609
 -21.6304
 -22.1036
 -22.6501
 -22.0251
 -54.2068
 -55.3421
 -55.4827
 -43.3783
 -43.0291
 -42.6994
 -42.597
 -23.2282
 -23.024
 -23.2324
 -22.8814
 -44.1467
 -45.1921
 -44.6908
 -44.7176
 -39.874
 -40.6437
 -41.0543
 -39.9139
 -26.8785
 -27.1055
 -27.7055
 -28.0952
 -21.0405
 -21.1419
 -20.5151
 -20.5409
 -32.0229
 -32.2523
 -32.9662
 -32.1645
 -14.3655
 -14.3955
 -15.1696
 -14.7141
 -24.1501
 -24.5922
 -24.095
 -25.5704
 -24.8733
 -24.819
 -24.6205
 -12.4809
 -12.5707
 -12.1545
 -12.718
 -58.1643
 -57.4309
 -57.641
 -52.3677
 -52.5897
 -53.6688
 -53.5066
 -26.1076
 -27.2532
 -26.8748
 -17.9818
 -18.2265
 -17.9062
 -20.8858
 -20.4585
 -20.943
 -21.0214
 -26.6652
 -26.5838
 -27.1312
 -26.126
 -43.4846
 -45.2333
 -44.4569
 -44.2296
 -15.6084
 -15.5088
 -15.8006
 -15.2875
 -41.2292
 -39.5643
 -39.4676
 -40.9252
 -52.0394
 -52.4569
 -51.0826
 -51.9968
 -39.0218
 -38.8986
 -40.5153
 -39.631
 -32.9575
 -32.2584
 -33.5052
 -23.7245
 -23.6663
 -23.7477
 -24.0531
 -59.1533
 -59.9074
 -60.4223
 -59.7645
 -54.6744
 -55.3617
 -54.436
 -53.6344
 -26.5638
 -27.1231
 -26.7476
 -26.2598
 -60.7845
 -61.4328
 -61.9531
 -61.7775
 -63.4207
 -62.4553
 -62.346
 -63.1164
 -62.9696
 -62.2326
 -62.5202
 -16.7965
 -16.6683
 -12.4438
 -12.5524
 -12.315
 -12.8241
 -41.3361
 -40.8769
 -40.1666
 -34.2849
 -33.7426
 -35.0309
 -33.8719
 -36.4972
 -37.5747
 -37.2657
 -36.6083
 -9.1401
 -31.68
 -40.4453
 -41.4292
 -54.8581
 -55.4176
 -55.2866
 -55.0298
 -18.0412
 -29.3638
 -30.0284
 -29.3444
 -68.8721
 -68.6104
 -68.6383
 -68.5953
 -36.7204
 -36.0458
 -36.8005
 -37.633
 -61.4402
 -60.9983
 -61.8719
 -60.5485
 -32.7236
 -33.6865
 -31.8935
 -30.3958
 -31.4263
 -30.7574
 -59.4003
 -59.3639
 -58.25
 -59.6044
 -41.4107
 -40.6752
 -39.9612
 -39.6678
 -21.9197
 -21.5176
 -22.2783
 -22.1558
 -52.7101
 -54.6654
 -53.935
 -62.7871
 -64.1086
 -64.1112
 -62.791
 -53.5778
 -53.139
 -52.5183
 -53.1383
 -26.2639
 -26.2221
 -27.535
 -26.1558
 -27.7876
 -27.297
 -27.3879
 -27.3944
 -58.8537
 -59.5178
 -59.5039
 -59.5543
 -31.3723
 -31.6646
 -30.7406
 -50.9351
 -50.8939
 -50.6271
 -49.8932
 -22.9353
 -23.5275
 -22.6291
 -22.748
 -42.3348
 -42.9514
 -41.4339
 -42.0535
 -22.6556
 -23.0918
 -22.6598
 -22.6591
 -38.1128
 -38.5296
 -37.6272
 -38.3507
 -51.9844
 -51.8444
 -52.9097
 -51.3409
 -21.4354
 -21.2476
 -21.6626
 -36.7439
 -37.6079
 -56.8648
 -56.5247
 -56.1696
 -55.5418
 -31.2915
 -30.7681
 -30.671
 -21.9368
 -21.4458
 -21.2937
 -21.5348
 -45.6086
 -46.0075
 -45.6177
 -46.443
 -42.2784
 -42.1944
 -43.8644
 -42.6317
 -10.54
 -10.5561
 -10.942
 -10.6417
 -36.285
 -35.1413
 -35.75
 -13.9337
 -14.327
 -14.4784
 -36.3461
 -35.9909
 -35.4361
 -36.2175
 -35.1919
 -21.3131
 -21.5652
 -20.5915
 -20.9923
 -32.9559
 -33.9319
 -34.0716
 -55.0166
 -55.0581
 -55.1582
 -54.483
 -33.8282
 -34.2558
 -34.7896
 -34.7708
 -35.2585
 -34.9718
 -34.869
 -67.5547
 -67.3851
 -67.2485
 -66.8756
 -24.8718
 -26.2219
 -25.9258
 -25.5653
 -20.4275
 -20.4372
 -20.6701
 -20.6846
 -29.9183
 -29.711
 -30.8497
 -29.9875
 -57.1812
 -57.1799
 -57.7873
 -56.2037
 -10.3181
 -10.635
 -10.3182
 -10.7916
 -51.5121
 -50.152
 -50.7936
 -50.8381
 -20.1023
 -19.7492
 -20.0981
 -19.9872
 -54.6451
 -51.8865
 -52.8438
 -54.1263
 -48.8952
 -48.4131
 -47.7714
 -48.3683
 -51.5498
 -51.9803
 -26.645
 -26.1432
 -26.0793
 -26.5018
 -59.5776
 -59.9136
 -59.7671
 -48.3729
 -46.9817
 -47.4079
 -48.6378
 -25.3142
 -25.9781
 -25.5329
 -24.9474
 -29.1649
 -28.8887
 -29.8003
 -8.91075
 -8.92351
 -8.80716
 -8.91417
 -34.7585
 -33.7991
 -35.1014
 -60.2705
 -61.0067
 -59.739
 -59.4877
 -51.3418
 -50.4557
 -57.1724
 -58.6116
 -59.0273
 -57.9628
 -46.0733
 -46.1497
 -19.4
 -19.4112
 -18.8511
 -19.8092
 -50.4422
 -50.4235
 -50.4588
 -49.3582
 -36.2201
 -36.6306
 -29.1002
 -29.5607
 -29.2995
 -29.0783
 -54.7614
 -55.5606
 -55.5389
 -55.4188
 -26.9368
 -25.6723
 -25.7941
 -26.6949
 -58.964
 -59.0662
 -60.2238
 -61.1195
 -39.4692
 -39.6413
 -38.6969
 -19.2066
 -18.9741
 -18.8664
 -19.1807
 -43.2536
 -43.2248
 -42.8225
 -42.096
 -24.8622
 -24.197
 -24.139
 -23.7829
 -25.7726
 -24.8832
 -25.4846
 -9.95411
 -9.90774
 -9.97454
 -10.1629
 -21.1007
 -21.8811
 -22.0906
 -21.3774
 -50.6274
 -50.2453
 -51.3631
 -50.1299
 -35.4516
 -35.8538
 -34.7867
 -30.0673
 -23.5258
 -23.8766
 -23.653
 -24.0112
 -31.4551
 -30.7004
 -31.35
 -31.7218
 -47.5534
 -49.39
 -49.515
 -47.8292
 -22.718
 -22.7557
 -23.9275
 -18.0698
 -39.1893
 -39.5325
 -38.5077
 -40.0774
 -23.804
 -24.5994
 -13.2203
 -12.8605
 -23.3557
 -23.8768
 -23.3928
 -22.729
 -46.9899
 -47.8288
 -56.7585
 -56.6345
 -56.9429
 -56.4664
 -29.3075
 -30.0479
 -30.0026
 -30.0628
 -64.3198
 -64.6352
 -65.0797
 -64.7638
 -28.4582
 -28.6613
 -27.1905
 -27.1629
 -50.3937
 -50.6144
 -49.6423
 -48.7105
 -25.5239
 -25.5643
 -25.9184
 -25.884
 -49.5704
 -50.0661
 -48.7063
 -49.5059
 -31.5087
 -32.4378
 -61.012
 -60.5758
 -46.313
 -47.3446
 -46.0405
 -47.5055
 -45.3929
 -44.8922
 -45.0242
 -46.2913
 -37.9641
 -37.4799
 -38.36
 -38.2415
 -49.5106
 -48.4165
 -50.1419
 -50.6012
 -25.1872
 -24.5562
 -24.9091
 -24.8589
 -60.2212
 -59.8101
 -59.8284
 -60.9866
 -61.8444
 -60.9492
 -61.5286
 -22.7312
 -23.3812
 -23.3547
 -23.0268
 -45.5983
 -44.5123
 -44.6258
 -45.2764
 -22.0601
 -22.723
 -22.7431
 -23.3506
 -37.3718
 -33.8261
 -35.0312
 -35.0607
 -34.022
 -53.5381
 -53.5756
 -53.383
 -52.3185
 -14.6588
 -14.265
 -14.4916
 -14.9851
 -45.1122
 -45.6835
 -46.3624
 -45.4315
 -35.9296
 -36.7068
 -34.913
 -35.5901
 -49.1334
 -48.2175
 -48.0624
 -47.8572
 -43.091
 -67.7502
 -67.6951
 -66.815
 -67.0782
 -50.9099
 -51.2649
 -49.8323
 -49.9502
 -13.0447
 -13.2079
 -13.5366
 -12.9882
 -31.6754
 -30.8174
 -30.4416
 -31.1142
 -27.5861
 -36.3557
 -36.5378
 -36.7318
 -37.5336
 -58.6478
 -58.8043
 -57.5804
 -57.0901
 -54.6239
 -54.1924
 -55.7816
 -58.1689
 -56.1553
 -57.0184
 -56.6988
 -10.3824
 -10.5272
 -49.8586
 -49.2766
 -49.0095
 -26.6773
 -26.6647
 -26.4219
 -27.2562
 -47.3568
 -46.8262
 -47.2755
 -46.3224
 -37.9132
 -45.5661
 -44.3802
 -45.5339
 -45.362
 -60.016
 -57.9469
 -58.744
 -59.8591
 -45.0084
 -45.8403
 -46.918
 -45.2085
 -31.2343
 -31.5942
 -30.3644
 -32.2131
 -23.0906
 -23.1955
 -22.9276
 -23.2945
 -66.6641
 -65.9829
 -66.5646
 -66.4967
 -47.5677
 -47.2114
 -47.8472
 -46.6593
 -66.1033
 -65.8497
 -65.9059
 -66.2342
 -26.9843
 -25.94
 -26.9945
 -27.1382
 -37.0957
 -36.6419
 -60.4613
 -61.9066
 -60.5356
 -61.1067
 -37.5753
 -37.7143
 -37.6536
 -38.6652
 -34.51
 -35.3599
 -37.7295
 -37.7193
 -38.6985
 -37.6279
 -55.3811
 -55.5552
 -55.055
 -56.5012
 -28.8836
 -27.9642
 -27.575
 -28.3767
 -18.6159
 -19.0373
 -18.6403
 -18.6189
 -21.825
 -21.5966
 -21.6321
 -21.5314
 -28.1192
 -28.6656
 -28.7637
 -28.0781
 -31.9033
 -30.8354
 -31.51
 -33.6359
 -32.3753
 -33.0814
 -33.2853
 -36.8023
 -36.3604
 -35.8749
 -36.8272
 -18.4898
 -18.4902
 -18.6719
 -30.7984
 -30.0014
 -31.0736
 -30.8221
 -38.5109
 -39.5428
 -39.3864
 -38.1438
 -25.9951
 -25.1557
 -26.2061
 -25.1958
 -28.4258
 -29.0462
 -28.9693
 -28.8534
 -39.2577
 -39.1528
 -39.8646
 -40.5913
 -36.4829
 -35.59
 -36.3611
 -36.1983
 -46.3507
 -45.8119
 -46.017
 -45.4771
 -21.3151
 -21.4999
 -21.6898
 -53.1901
 -52.3844
 -53.8634
 -52.8632
 -26.1106
 -26.8044
 -26.1677
 -25.7197
 -32.4037
 -32.1242
 -31.6189
 -32.7339
 -33.7372
 -34.5928
 -34.742
 -40.7389
 -40.8192
 -41.1353
 -41.8131
 -44.6826
 -44.6744
 -45.5058
 -44.0729
 -45.7825
 -46.3748
 -47.0014
 -56.2171
 -56.2573
 -56.7957
 -44.9948
 -44.4812
 -43.754
 -44.1545
 -55.2463
 -55.5613
 -54.3728
 -59.7266
 -59.7955
 -59.6427
 -58.7897
 -34.2011
 -32.5994
 -33.6379
 -33.0582
 -27.1024
 -26.616
 -27.4442
 -26.7839
 -24.7136
 -55.8673
 -55.5021
 -57.3883
 -54.9029
 -55.7723
 -53.7229
 -9.69901
 -9.55007
 -9.72155
 -9.89534
 -50.2407
 -49.3078
 -31.9621
 -31.6506
 -32.6492
 -65.8006
 -66.264
 -41.3466
 -40.0007
 -40.4481
 -40.8364
 -31.3088
 -31.7442
 -31.764
 -50.9373
 -53.0391
 -52.1623
 -52.5291
 -27.5731
 -27.7919
 -27.2769
 -28.206
 -12.0831
 -12.4394
 -12.3427
 -11.9458
 -40.3121
 -40.494
 -40.2449
 -41.3177
 -54.3444
 -56.6076
 -54.7647
 -52.2116
 -51.8467
 -52.3551
 -51.454
 -25.6144
 -24.6934
 -24.7156
 -24.2973
 -26.5826
 -27.0393
 -22.8879
 -23.467
 -22.6854
 -64.4958
 -63.8145
 -53.0804
 -51.7952
 -53.0075
 -51.9534
 -37.2541
 -38.3411
 -38.0504
 -50.1249
 -48.853
 -51.2888
 -50.8929
 -26.1411
 -24.9515
 -25.1654
 -25.7323
 -35.2438
 -35.1002
 -36.0506
 -36.2434
 -35.0959
 -35.7233
 -35.9469
 -35.1515
 -24.6922
 -24.9892
 -24.4946
 -26.9806
 -26.499
 -26.9204
 -26.784
 -67.648
 -67.9261
 -67.8013
 -68.3131
 -20.2027
 -19.4226
 -58.7692
 -59.8967
 -59.6056
 -59.0213
 -32.9621
 -33.8572
 -33.4478
 -32.9507
 -38.7747
 -39.4751
 -39.4181
 -39.6635
 -21.8039
 -22.1715
 -35.9918
 -35.3542
 -35.3374
 -34.7103
 -32.1301
 -31.7626
 -31.5107
 -32.4275
 -54.9601
 -54.9644
 -54.5426
 -55.3363
 -33.7925
 -34.629
 -34.6571
 -33.5989
 -27.1677
 -27.2745
 -42.7132
 -42.7546
 -42.1132
 -42.8829
 -47.4543
 -47.2638
 -48.12
 -37.244
 -38.2516
 -37.8631
 -38.4829
 -23.9264
 -24.3611
 -23.7268
 -24.6842
 -11.7955
 -12.2216
 -12.1456
 -11.7266
 -34.6357
 -34.1878
 -35.1186
 -36.0242
 -39.4234
 -40.5516
 -39.5025
 -39.5913
 -31.0169
 -31.5053
 -30.5885
 -30.7735
 -27.6222
 -27.2097
 -27.7978
 -28.1441
 -55.564
 -56.3394
 -42.5955
 -42.0546
 -41.5259
 -15.5991
 -15.3942
 -15.1092
 -15.7358
 -25.1537
 -24.5926
 -25.4039
 -24.2554
 -37.6476
 -37.7695
 -37.4176
 -36.8965
 -55.7069
 -56.0936
 -55.9234
 -32.9774
 -32.5027
 -31.5429
 -31.5699
 -26.5771
 -27.5205
 -27.1724
 -26.5415
 -48.5878
 -47.0999
 -47.1231
 -47.8279
 -40.5457
 -40.2865
 -39.862
 -39.9087
 -50.8187
 -50.9928
 -50.7775
 -51.1175
 -51.2497
 -51.4753
 -51.1066
 -30.2996
 -30.6132
 -29.7979
 -29.6361
 -33.9022
 -33.3954
 -34.205
 -12.547
 -12.6369
 -12.5985
 -12.3257
 -27.2345
 -27.3267
 -19.6377
 -19.2207
 -19.8426
 -20.278
 -24.5144
 -22.228
 -56.788
 -27.4747
 -26.7037
 -27.2375
 -26.3947
 -66.9697
 -42.2686
 -41.6205
 -42.1711
 -40.9761
 -27.319
 -27.8483
 -27.5186
 -30.5157
 -31.3057
 -31.3117
 -52.336
 -52.6279
 -51.3483
 -52.6022
 -53.6535
 -53.1077
 -53.7857
 -52.9142
 -23.1209
 -22.262
 -22.2579
 -22.8482
 -61.8696
 -61.8584
 -62.7856
 -61.4176
 -35.4995
 -34.7163
 -33.8428
 -53.2809
 -53.8734
 -53.7732
 -38.6731
 -37.8246
 -38.1515
 -38.875
 -27.5089
 -27.9219
 -27.0672
 -27.2696
 -39.8166
 -41.2335
 -39.7226
 -28.5595
 -28.9534
 -28.9005
 -28.1201
 -32.8067
 -34.0127
 -53.8176
 -54.7837
 -55.0137
 -56.0365
 -56.9274
 -58.1826
 -57.3215
 -57.2066
 -24.1798
 -24.8516
 -24.019
 -24.7244
 -47.1297
 -45.6969
 -46.6626
 -47.5373
 -41.7075
 -40.2249
 -41.3044
 -42.2905
 -31.5359
 -30.7044
 -31.9389
 -31.2703
 -55.1215
 -54.4452
 -54.1189
 -53.3815
 -33.3549
 -32.4073
 -33.9039
 -33.2971
 -35.6071
 -35.1179
 -35.0633
 -36.4573
 -32.6523
 -32.0886
 -32.8413
 -32.9467
 -25.2506
 -26.0567
 -23.3979
 -23.8827
 -24.3572
 -23.5051
 -18.6025
 -17.8532
 -18.4992
 -18.6792
 -42.1629
 -42.0299
 -41.5094
 -42.864
 -39.6691
 -38.9524
 -38.6948
 -64.567
 -64.6634
 -64.572
 -64.4731
 -63.7613
 -64.5633
 -63.3967
 -58.3181
 -58.9948
 -57.5783
 -39.0358
 -40.2064
 -40.7192
 -39.3236
 -45.259
 -45.7081
 -46.2886
 -44.6115
 -54.1582
 -55.0574
 -54.6188
 -55.3038
 -27.9078
 -27.1681
 -27.3419
 -27.7703
 -20.1884
 -20.6244
 -20.9954
 -20.9604
 -65.9513
 -66.3655
 -65.0879
 -66.659
 -26.1706
 -25.9599
 -25.541
 -26.2511
 -37.1988
 -37.0954
 -37.5982
 -36.8957
 -66.3214
 -66.6293
 -65.4848
 -67.2509
 -41.8589
 -40.8284
 -42.2577
 -41.883
 -32.2271
 -31.8814
 -32.3509
 -31.9267
 -26.6381
 -26.0623
 -26.1781
 -22.162
 -22.8994
 -22.4565
 -22.0624
 -24.4295
 -24.2252
 -24.5442
 -24.14
 -23.6356
 -23.619
 -25.743
 -26.2261
 -24.9197
 -50.1943
 -49.4084
 -49.3428
 -49.2163
 -64.0096
 -63.7321
 -63.727
 -63.7764
 -44.6088
 -44.082
 -44.7265
 -43.2401
 -33.3013
 -55.0061
 -55.5197
 -55.4852
 -54.5486
 -22.6963
 -22.6717
 -22.6398
 -22.5511
 -62.955
 -63.0982
 -62.8241
 -63.7729
 -29.5369
 -29.1659
 -30.1982
 -47.3879
 -22.1707
 -22.0594
 -21.5656
 -25.3664
 -24.882
 -24.4329
 -25.5775
 -36.8407
 -36.7725
 -35.4184
 -36.5053
 -49.3487
 -49.2469
 -48.4833
 -50.2521
 -33.2225
 -47.3397
 -46.6946
 -46.7157
 -33.8387
 -33.8025
 -33.9282
 -34.8507
 -28.6798
 -28.8954
 -28.3138
 -28.2499
 -30.5966
 -29.6745
 -30.3333
 -30.585
 -47.7941
 -26.0385
 -26.2238
 -26.4655
 -50.124
 -49.3435
 -50.5566
 -49.731
 -55.7577
 -55.3278
 -56.7677
 -54.8893
 -61.8294
 -62.4012
 -61.6938
 -28.2426
 -28.3006
 -27.8126
 -28.2672
 -20.9436
 -20.5625
 -20.9116
 -51.6727
 -51.7911
 -54.0134
 -53.5913
 -53.1626
 -52.9985
 -33.7709
 -34.1769
 -34.6529
 -64.0557
 -64.0229
 -64.7531
 -64.1098
 -55.648
 -55.4633
 -56.0019
 -56.1604
 -43.0923
 -43.5671
 -43.9441
 -44.3295
 -38.2449
 -38.5418
 -37.8767
 -37.0931
 -26.6301
 -26.6039
 -26.3597
 -26.8565
 -54.0126
 -53.9318
 -53.2838
 -54.6098
 -28.9052
 -29.1515
 -28.1194
 -31.0826
 -31.7812
 -32.0149
 -32.1024
 -62.9555
 -62.4665
 -63.8099
 -63.4325
 -46.62
 -46.7473
 -46.5994
 -45.9723
 -65.2216
 -64.6424
 -63.7787
 -65.0229
 -30.1094
 -30.5827
 -30.9532
 -30.835
 -37.5751
 -37.7291
 -36.8394
 -38.5048
 -59.1401
 -58.8745
 -59.7592
 -59.3685
 -36.4718
 -37.143
 -35.9537
 -36.1868
 -65.3932
 -65.7884
 -65.3489
 -27.6517
 -27.3565
 -27.3153
 -27.4288
 -39.9613
 -39.9697
 -39.4011
 -38.9627
 -41.9087
 -42.7353
 -41.9308
 -42.2508
 -35.0948
 -34.7073
 -36.0622
 -34.9905
 -55.8352
 -55.927
 -57.1194
 -56.0683
 -34.8417
 -33.7901
 -34.4686
 -34.2116
 -42.0607
 -41.7906
 -41.7202
 -41.3701
 -22.3873
 -22.4104
 -22.327
 -22.3853
 -52.6154
 -52.7531
 -51.8394
 -51.2233
 -21.7371
 -21.7109
 -21.7043
 -26.8212
 -26.447
 -26.4346
 -26.8715
 -23.6225
 -24.0441
 -25.3048
 -24.2241
 -48.1066
 -48.0174
 -48.6465
 -49.2355
 -44.2974
 -45.5245
 -44.3882
 -44.8288
 -29.243
 -28.4935
 -28.6428
 -28.1367
 -67.7836
 -67.4009
 -66.9865
 -12.7946
 -12.6995
 -41.6587
 -42.313
 -41.0606
 -41.7477
 -16.9419
 -16.3533
 -15.75
 -16.2298
 -44.1749
 -44.5989
 -45.6131
 -44.8933
 -31.4857
 -29.1351
 -28.7339
 -28.5777
 -28.107
 -50.4879
 -50.511
 -50.8356
 -51.3277
 -59.9604
 -58.9629
 -60.4974
 -59.6182
 -22.4058
 -22.3988
 -47.0011
 -47.647
 -49.2791
 -47.4883
 -39.2989
 -37.5519
 -39.629
 -38.6148
 -26.3762
 -26.3281
 -25.9561
 -27.2884
 -34.9672
 -33.9496
 -33.8442
 -34.9126
 -53.7861
 -52.5149
 -55.4521
 -64.3511
 -64.0926
 -64.1286
 -64.1395
 -65.8017
 -65.7795
 -66.1944
 -29.5607
 -29.1482
 -29.2594
 -29.8223
 -58.3704
 -58.0775
 -57.4103
 -57.4832
 -23.7659
 -23.3243
 -23.5012
 -23.598
 -44.1387
 -43.361
 -44.1957
 -42.7223
 -39.5381
 -40.7444
 -39.7315
 -39.7202
 -63.8737
 -64.0212
 -63.8713
 -64.3319
 -45.8234
 -46.1874
 -45.7405
 -45.0072
 -15.3573
 -15.0796
 -14.9989
 -15.3865
 -33.1596
 -31.793
 -33.0013
 -32.2606
 -29.4221
 -30.2368
 -30.4007
 -29.2281
 -49.1237
 -49.3135
 -48.3431
 -47.9047
 -24.4988
 -24.0896
 -23.9592
 -23.9549
 -41.1523
 -40.4241
 -40.1657
 -41.3518
 -28.073
 -27.678
 -27.3649
 -19.9733
 -19.7018
 -19.5672
 -19.5325
 -40.7561
 -41.7687
 -40.354
 -43.0677
 -43.0765
 -42.6516
 -25.9689
 -25.4391
 -24.9478
 -24.2174
 -24.193
 -24.4544
 -24.7171
 -57.7948
 -9.31951
 -9.47702
 -9.40124
 -9.16128
 -55.5335
 -55.0606
 -56.3413
 -55.4258
 -22.4649
 -30.7378
 -30.5493
 -30.4964
 -31.3759
 -29.4948
 -28.8827
 -30.5374
 -25.181
 -26.2002
 -25.7147
 -25.452
 -15.9311
 -15.8793
 -16.2474
 -15.4631
 -23.6482
 -24.0961
 -24.0119
 -38.4258
 -37.953
 -37.8716
 -29.5501
 -29.2339
 -68.484
 -67.8489
 -67.8345
 -23.5938
 -24.2789
 -23.3936
 -29.9059
 -30.508
 -30.8683
 -58.0555
 -59.0181
 -59.1247
 -50.1748
 -50.2212
 -51.0878
 -50.4701
 -26.2216
 -26.4833
 -26.8115
 -21.486
 -20.9068
 -62.3609
 -62.0576
 -63.103
 -62.7194
 -17.6522
 -17.8486
 -17.1385
 -18.2458
 -23.5656
 -23.3396
 -11.7501
 -11.4516
 -13.9213
 -13.856
 -14.0178
 -30.5099
 -31.175
 -30.2366
 -61.0649
 -60.3071
 -59.147
 -46.4309
 -46.2679
 -47.171
 -26.9352
 -26.9303
 -27.5977
 -28.0341
 -27.3801
 -57.5705
 -21.471
 -21.4596
 -21.6902
 -21.6952
 -29.8293
 -31.2481
 -30.1153
 -30.4113
 -49.2952
 -49.5194
 -50.2697
 -45.3885
 -45.6417
 -44.9761
 -45.2233
 -30.5937
 -30.261
 -31.0938
 -31.8123
 -48.1934
 -48.3181
 -49.6338
 -49.4913
 -50.6475
 -50.0145
 -50.5906
 -51.6162
 -35.6022
 -46.9303
 -47.8218
 -47.6636
 -48.1259
 -65.0143
 -65.4138
 -64.8103
 -64.6024
 -24.9835
 -23.8028
 -23.5634
 -24.3604
 -63.0267
 -64.235
 -63.8946
 -63.6887
 -11.3175
 -11.5997
 -11.2745
 -60.359
 -59.7116
 -61.1067
 -61.0872
 -25.2597
 -25.1345
 -24.4632
 -24.4992
 -53.632
 -52.459
 -53.4047
 -54.2197
 -23.7968
 -23.8589
 -22.4092
 -22.7357
 -64.0726
 -52.4784
 -51.2087
 -51.9437
 -50.8809
 -58.8615
 -59.5909
 -59.5781
 -21.5644
 -21.8334
 -21.4064
 -21.205
 -47.7695
 -47.1604
 -46.9433
 -46.379
 -40.8087
 -42.0246
 -42.0164
 -41.4862
 -39.1152
 -39.6307
 -38.6081
 -38.3717
 -67.8622
 -67.2408
 -31.8251
 -31.855
 -31.6997
 -30.805
 -31.548
 -31.9101
 -32.1889
 -47.7162
 -46.8249
 -48.4487
 -48.9187
 -46.3653
 -46.7484
 -46.6465
 -47.6923
 -41.3867
 -41.8108
 -42.2198
 -41.0308
 -25.9203
 -25.7741
 -27.961
 -27.5213
 -27.4547
 -30.035
 -30.617
 -30.5889
 -30.66
 -20.0614
 -19.5642
 -19.765
 -19.724
 -29.9741
 -29.1337
 -28.5356
 -15.9451
 -15.9668
 -16.4302
 -29.7822
 -29.7556
 -29.0772
 -30.3432
 -25.5073
 -26.2922
 -25.1175
 -34.9582
 -48.6304
 -47.7963
 -49.3562
 -31.9887
 -31.8922
 -32.5124
 -32.8892
 -23.2116
 -23.206
 -24.8179
 -24.0387
 -36.5201
 -37.3505
 -37.56
 -37.5475
 -51.5743
 -50.8622
 -67.3751
 -66.9591
 -66.6694
 -67.3644
 -47.852
 -48.2147
 -48.7244
 -47.3071
 -32.9395
 -32.8388
 -32.7294
 -33.3112
 -64.1545
 -64.3017
 -65.5736
 -63.5952
 -64.8729
 -65.0333
 -65.4189
 -37.2052
 -36.2862
 -35.6855
 -36.6889
 -22.9538
 -22.8182
 -23.2115
 -32.0045
 -31.9638
 -32.9385
 -31.9513
 -20.9488
 -20.3476
 -21.1614
 -20.2378
 -44.2398
 -44.3483
 -44.6438
 -42.182
 -22.5246
 -22.5286
 -22.4871
 -22.6277
 -26.4211
 -26.7603
 -26.955
 -26.7079
 -60.9737
 -59.8801
 -61.5439
 -60.1842
 -36.544
 -36.6301
 -35.796
 -36.6822
 -29.4715
 -29.0532
 -29.7239
 -29.1049
 -50.7568
 -50.6533
 -50.4862
 -52.1692
 -51.4553
 -51.2538
 -31.1073
 -32.0499
 -31.7244
 -32.9285
 -33.1857
 -33.7766
 -33.4722
 -33.4728
 -23.1482
 -23.5982
 -23.0532
 -30.3337
 -29.7816
 -29.3308
 -10.18
 -9.88222
 -10.1705
 -9.98831
 -26.8658
 -27.0794
 -21.4962
 -21.7994
 -21.4934
 -20.8774
 -39.3443
 -38.3081
 -39.2102
 -38.1018
 -16.1891
 -16.8688
 -17.0848
 -16.564
 -24.7786
 -24.6373
 -24.055
 -45.9733
 -46.1148
 -45.8423
 -45.3568
 -24.4222
 -25.0534
 -24.2144
 -22.8278
 -22.9275
 -22.1853
 -22.4528
 -29.587
 -29.2297
 -29.302
 -30.1242
 -50.0756
 -52.6626
 -13.7869
 -14.016
 -26.2116
 -25.714
 -33.5305
 -32.7054
 -33.063
 -32.8298
 -44.1321
 -45.1592
 -44.318
 -45.485
 -34.6997
 -34.8568
 -35.3182
 -35.4413
 -21.131
 -20.1411
 -20.8175
 -20.6689
 -40.2123
 -39.1789
 -39.5534
 -23.1551
 -22.8944
 -23.1076
 -23.0623
 -58.9623
 -58.4233
 -59.5457
 -58.0101
 -45.1017
 -45.1686
 -45.4473
 -44.2166
 -23.9
 -24.2477
 -23.7055
 -33.0163
 -31.9876
 -32.9152
 -33.2834
 -21.3015
 -21.1102
 -21.3454
 -24.3396
 -25.162
 -24.8852
 -24.4902
 -24.5123
 -24.3846
 -25.0104
 -24.5715
 -32.8914
 -32.0574
 -31.9836
 -31.579
 -65.2368
 -64.9103
 -64.6326
 -64.7012
 -41.8964
 -43.0251
 -42.4282
 -43.0304
 -32.0332
 -30.9629
 -31.6667
 -37.576
 -37.1646
 -37.0304
 -58.1221
 -56.3711
 -58.0104
 -56.8924
 -41.8434
 -41.7837
 -41.0424
 -42.3667
 -31.4752
 -32.2279
 -32.1734
 -32.4421
 -20.2786
 -20.3091
 -23.7872
 -23.4745
 -24.0953
 -24.1071
 -12.7174
 -12.5609
 -12.1269
 -12.6226
 -49.45
 -49.5074
 -49.5768
 -48.8685
 -25.1783
 -24.5437
 -24.6791
 -24.6318
 -35.0251
 -34.3147
 -34.7254
 -33.7247
 -19.1533
 -18.851
 -18.9801
 -18.8145
 -38.1201
 -37.7948
 -37.3779
 -37.3075
 -32.6349
 -46.7582
 -46.9036
 -45.4634
 -45.7838
 -31.5238
 -30.5058
 -30.3718
 -31.1142
 -30.5632
 -31.0933
 -31.6987
 -31.3365
 -28.539
 -27.7667
 -27.9539
 -27.6737
 -23.5354
 -22.9047
 -23.928
 -53.3197
 -53.4824
 -53.7027
 -51.6243
 -30.6458
 -30.4073
 -30.4117
 -30.1164
 -52.1777
 -52.5063
 -53.5142
 -45.6251
 -44.6582
 -45.295
 -45.1059
 -50.4174
 -52.2064
 -51.3756
 -52.4519
 -22.0662
 -22.6613
 -21.9456
 -9.14322
 -9.28058
 -9.31744
 -45.7282
 -47.0977
 -46.8079
 -38.3282
 -39.9646
 -39.2412
 -40.4043
 -29.5681
 -29.8357
 -30.1636
 -29.3714
 -32.1413
 -32.3314
 -31.2271
 -31.4862
 -14.9705
 -15.2988
 -14.4858
 -15.3743
 -34.9903
 -34.5724
 -34.4341
 -34.3605
 -41.1426
 -41.4801
 -41.8719
 -40.4215
 -24.9232
 -25.0737
 -26.6691
 -25.4306
 -26.0388
 -26.1285
 -46.4175
 -45.6113
 -46.2977
 -45.9593
 -24.5702
 -25.2013
 -42.3797
 -41.8286
 -21.4856
 -9.78863
 -9.73077
 -9.79357
 -10.0644
 -18.8547
 -19.477
 -66.2264
 -67.1252
 -66.3841
 -20.4148
 -20.9515
 -21.4948
 -20.9905
 -47.7569
 -47.3516
 -26.5331
 -26.3558
 -26.4463
 -26.5251
 -28.4777
 -29.8547
 -29.4208
 -47.1391
 -48.0985
 -47.4498
 -48.6326
 -42.875
 -43.9809
 -42.9029
 -43.4351
 -55.3278
 -55.6169
 -56.9251
 -32.1132
 -31.2833
 -32.231
 -31.0911
 -34.8657
 -55.0835
 -53.6436
 -54.8474
 -54.6331
 -21.6607
 -21.5636
 -21.7875
 -22.0333
 -37.1185
 -36.1214
 -36.86
 -35.9383
 -49.4017
 -48.0309
 -49.0277
 -48.0817
 -11.5055
 -11.6404
 -11.776
 -11.8645
 -23.7968
 -63.9583
 -30.1764
 -31.2295
 -30.4975
 -29.7315
 -36.5866
 -37.2376
 -36.1648
 -35.9701
 -25.4009
 -24.5877
 -25.0052
 -25.2494
 -38.4659
 -38.056
 -38.5295
 -38.7221
 -23.3078
 -23.4191
 -23.9024
 -22.6738
 -23.1329
 -23.5378
 -23.1046
 -31.7638
 -32.4332
 -31.1695
 -31.793
 -49.4273
 -50.0578
 -48.0721
 -66.8242
 -67.537
 -66.8928
 -66.8546
 -14.5833
 -14.2075
 -14.0871
 -34.2086
 -34.3167
 -32.3692
 -32.6956
 -31.846
 -33.0882
 -61.1715
 -60.5775
 -61.2119
 -61.3003
 -45.8374
 -45.0167
 -45.6389
 -44.8128
 -23.4194
 -24.3889
 -23.7472
 -17.7922
 -31.2897
 -30.5088
 -30.7265
 -31.3758
 -33.1862
 -33.6238
 -33.4396
 -45.2754
 -44.808
 -44.6861
 -45.6182
 -50.6369
 -49.126
 -50.1472
 -49.5387
 -30.4125
 -29.9591
 -46.9342
 -46.7655
 -47.6343
 -48.4383
 -39.2201
 -38.9135
 -38.9944
 -39.9233
 -64.651
 -64.8755
 -40.9338
 -39.9773
 -41.0844
 -40.551
 -47.0056
 -47.5267
 -47.9409
 -48.1005
 -45.3548
 -46.0773
 -45.2142
 -45.4805
 -34.3646
 -34.7467
 -31.9308
 -32.3627
 -31.659
 -31.2103
 -28.1016
 -27.4615
 -27.8166
 -27.8931
 -38.7859
 -39.4274
 -39.4855
 -38.7144
 -22.9595
 -23.4583
 -23.7025
 -23.9972
 -25.3349
 -25.223
 -24.9652
 -25.2309
 -13.5419
 -13.7179
 -13.6529
 -13.2315
 -28.0298
 -26.9461
 -37.4672
 -36.2048
 -37.237
 -36.6832
 -30.2916
 -30.0315
 -30.6697
 -31.0881
 -35.8605
 -36.4129
 -36.7177
 -36.2297
 -32.4308
 -32.4129
 -46.7039
 -46.1303
 -66.4979
 -66.7307
 -66.5984
 -67.0249
 -20.9287
 -31.9211
 -31.8925
 -32.1838
 -32.751
 -36.1825
 -35.1722
 -35.3873
 -35.3347
 -26.7908
 -26.3489
 -26.129
 -25.5881
 -44.2886
 -43.0572
 -44.3446
 -43.2407
 -36.2835
 -35.6607
 -35.3418
 -36.2039
 -23.2579
 -23.0875
 -23.4995
 -22.8905
 -22.6344
 -29.3699
 -30.4014
 -29.3901
 -30.2265
 -29.3756
 -30.6171
 -29.5099
 -29.2022
 -23.6047
 -23.6045
 -23.0967
 -23.5526
 -25.3491
 -25.6143
 -26.522
 -26.1444
 -32.444
 -33.1463
 -31.8994
 -31.8301
 -23.6457
 -23.3264
 -23.1634
 -23.3586
 -38.0547
 -38.495
 -37.149
 -27.1476
 -27.12
 -27.0603
 -26.8728
 -16.6895
 -17.0782
 -37.461
 -38.0657
 -38.3773
 -37.0196
 -38.2172
 -37.6698
 -38.2197
 -21.6078
 -22.0339
 -22.3161
 -20.0491
 -20.3104
 -20.344
 -20.0577
 -41.7811
 -41.7472
 -42.1775
 -40.9643
 -36.6983
 -35.4752
 -36.8345
 -52.2701
 -50.5613
 -51.2225
 -33.6914
 -32.9902
 -33.1758
 -55.1109
 -55.3953
 -55.143
 -12.5299
 -12.2404
 -12.3048
 -12.5192
 -65.0076
 -65.141
 -64.8525
 -65.1591
 -28.1059
 -27.5252
 -39.029
 -37.8116
 -23.2871
 -23.4105
 -23.3124
 -23.891
 -40.4716
 -40.2613
 -41.4271
 -47.4537
 -48.3411
 -48.272
 -48.477
 -54.1317
 -52.5855
 -21.8511
 -21.9155
 -21.7298
 -37.833
 -37.5915
 -36.794
 -26.0828
 -25.3128
 -26.0528
 -21.8479
 -21.8373
 -21.5987
 -21.3586
 -31.3383
 -31.5933
 -30.8242
 -31.8392
 -30.2754
 -29.3725
 -29.7162
 -30.1124
 -43.2119
 -42.7996
 -42.8039
 -43.9167
 -47.4088
 -46.9243
 -47.3052
 -46.2255
 -29.3227
 -29.1153
 -29.9593
 -42.0451
 -41.8995
 -41.2556
 -46.0366
 -46.8122
 -45.9659
 -46.0231
 -67.7651
 -67.3657
 -68.0628
 -34.7921
 -34.6893
 -34.6112
 -44.5054
 -45.0671
 -43.7091
 -33.621
 -34.2132
 -33.1316
 -27.5276
 -26.675
 -26.8283
 -21.9427
 -22.2631
 -22.0519
 -22.1282
 -33.6572
 -33.5933
 -34.5347
 -33.7689
 -26.2635
 -25.9361
 -25.4009
 -23.2323
 -23.8779
 -44.5455
 -43.8446
 -45.554
 -44.5017
 -44.5271
 -45.2546
 -44.3131
 -43.412
 -23.7456
 -24.3642
 -24.6899
 -24.9649
 -23.2715
 -22.7372
 -22.9937
 -22.6967
 -18.4867
 -18.2206
 -18.526
 -18.0507
 -58.9188
 -59.4854
 -53.1704
 -51.9166
 -52.4327
 -53.1909
 -63.382
 -27.1657
 -27.9098
 -26.9914
 -35.5122
 -35.8759
 -35.066
 -34.9778
 -23.8561
 -23.7069
 -32.9483
 -32.8966
 -33.368
 -21.2057
 -21.4407
 -51.2339
 -51.4859
 -52.4954
 -50.7329
 -55.2342
 -55.1241
 -56.6841
 -56.2052
 -49.1827
 -49.5112
 -48.1992
 -27.8852
 -28.4338
 -28.3829
 -53.8077
 -53.8296
 -54.2572
 -54.6344
 -26.0487
 -25.1073
 -25.8282
 -26.1454
 -50.1887
 -49.4402
 -49.4823
 -50.2182
 -26.2233
 -25.3632
 -25.1818
 -26.5682
 -22.3922
 -22.6577
 -22.0866
 -64.0225
 -65.4245
 -64.5721
 -64.5604
 -22.7298
 -22.8993
 -22.8208
 -31.3071
 -31.7448
 -32.2613
 -31.8394
 -60.5269
 -61.6207
 -61.0256
 -25.9139
 -25.3182
 -25.8809
 -25.4381
 -41.3748
 -58.5134
 -58.9702
 -56.9817
 -58.325
 -21.0894
 -21.2373
 -21.5062
 -21.2322
 -45.5319
 -43.793
 -44.9827
 -45.595
 -35.1053
 -35.4326
 -34.0406
 -22.3522
 -21.9366
 -22.4984
 -21.1622
 -42.7378
 -42.7397
 -43.2683
 -25.1264
 -24.9133
 -12.9827
 -12.6134
 -13.0824
 -13.2711
 -18.6651
 -17.4991
 -17.3999
 -54.4045
 -53.862
 -57.1059
 -55.5028
 -55.5606
 -56.046
 -19.6675
 -19.9382
 -19.2411
 -20.0249
 -30.2241
 -30.6743
 -30.6727
 -30.8167
 -32.7922
 -31.6707
 -31.8037
 -32.2228
 -36.9202
 -36.6241
 -37.6473
 -36.6196
 -37.7246
 -36.2582
 -37.2677
 -36.5718
 -60.8623
 -23.1726
 -22.9665
 -23.2109
 -23.0302
 -62.2246
 -61.7693
 -62.805
 -38.8406
 -37.7781
 -37.4365
 -37.763
 -21.8428
 -22.4528
 -22.6084
 -35.9973
 -35.2123
 -35.8566
 -35.1237
 -33.9031
 -42.9768
 -43.3646
 -44.326
 -44.006
 -26.378
 -26.4348
 -26.3644
 -34.0094
 -35.645
 -35.1809
 -62.0734
 -61.5404
 -60.7642
 -61.5105
 -33.1056
 -32.6877
 -32.5618
 -11.5663
 -11.7588
 -11.3243
 -33.1047
 -32.5129
 -32.9461
 -31.7873
 -43.7925
 -44.6453
 -44.5995
 -34.7679
 -34.7475
 -55.4163
 -55.6574
 -54.766
 -54.7508
 -49.3712
 -50.2167
 -49.5501
 -49.6105
 -65.3507
 -65.2066
 -64.6753
 -64.3889
 -37.5229
 -35.7763
 -37.0309
 -37.4737
 -46.2933
 -46.1265
 -45.6127
 -45.03
 -55.5234
 -56.2629
 -56.88
 -25.5516
 -25.975
 -24.9259
 -25.2568
 -32.0658
 -32.916
 -28.7828
 -28.2778
 -28.9577
 -28.608
 -44.2129
 -43.8645
 -44.137
 -44.6656
 -33.0878
 -33.9656
 -33.5643
 -32.9334
 -43.8862
 -43.3976
 -44.9159
 -43.7038
 -34.468
 -34.7795
 -35.3277
 -35.553
 -33.7707
 -32.971
 -33.161
 -53.7197
 -52.9219
 -53.7649
 -60.0668
 -59.712
 -59.4412
 -61.3779
 -58.7512
 -58.5132
 -59.3795
 -47.0914
 -48.2215
 -47.1598
 -14.4292
 -14.2502
 -13.9675
 -31.9113
 -32.9415
 -32.1153
 -53.0708
 -53.7006
 -53.2847
 -52.9273
 -31.8585
 -32.2488
 -31.7904
 -37.6596
 -38.294
 -37.7645
 -37.2765
 -41.386
 -39.2797
 -40.0763
 -39.8538
 -33.9976
 -34.6279
 -34.5985
 -35.2499
 -24.3061
 -24.7477
 -24.3712
 -24.1327
 -32.2011
 -37.7824
 -37.8223
 -38.3296
 -36.6019
 -22.616
 -22.7588
 -22.8294
 -22.8011
 -21.8275
 -22.3018
 -21.9641
 -22.2591
 -23.3427
 -23.5411
 -23.5086
 -23.0885
 -41.9394
 -42.0217
 -43.0138
 -43.5922
 -25.7015
 -25.238
 -25.5427
 -25.6912
 -63.1728
 -62.2421
 -63.191
 -62.3839
 -17.5787
 -17.8406
 -18.2477
 -18.1647
 -24.9942
 -25.0514
 -24.9347
 -20.8107
 -20.4817
 -20.2799
 -20.3341
 -22.8028
 -22.4549
 -23.2115
 -23.1314
 -23.1983
 -35.4429
 -35.2689
 -35.7827
 -37.2701
 -61.006
 -59.8542
 -59.3473
 -59.8725
 -59.6715
 -60.2736
 -59.3781
 -23.8646
 -23.4876
 -62.2737
 -63.0468
 -61.9985
 -53.9803
 -53.6911
 -53.7676
 -55.0167
 -22.7829
 -22.513
 -22.8001
 -65.1016
 -65.2485
 -64.8132
 -65.5958
 -28.2754
 -28.4826
 -29.0219
 -27.8548
 -23.7034
 -22.862
 -23.1287
 -23.7509
 -20.5396
 -21.347
 -21.0126
 -20.845
 -15.8467
 -15.9515
 -15.5612
 -15.5733
 -39.784
 -41.551
 -40.8243
 -41.1917
 -29.0976
 -29.2063
 -28.841
 -27.9411
 -63.9902
 -63.5272
 -64.0079
 -11.037
 -11.4806
 -11.2021
 -11.6777
 -18.646
 -19.2867
 -18.8506
 -19.4127
 -64.6114
 -65.4201
 -65.0878
 -64.9537
 -34.5799
 -34.6683
 -35.5364
 -57.3607
 -58.8667
 -59.1771
 -23.8733
 -23.7735
 -22.9568
 -64.0308
 -63.8751
 -63.4442
 -63.7032
 -52.9473
 -52.2778
 -51.9658
 -51.2216
 -26.2873
 -26.7175
 -27.2701
 -26.6378
 -29.2365
 -28.4812
 -29.1018
 -28.1592
 -49.8155
 -49.8164
 -49.8021
 -51.0399
 -36.64
 -36.146
 -35.4515
 -35.9366
 -16.9572
 -17.4898
 -17.5567
 -17.4025
 -54.9604
 -52.8889
 -54.2224
 -53.5423
 -65.1611
 -34.9181
 -35.1661
 -35.7905
 -35.7429
 -59.007
 -59.7655
 -59.3166
 -60.6111
 -22.799
 -22.813
 -22.862
 -22.8918
 -62.5828
 -63.1979
 -62.0704
 -61.7452
 -33.4458
 -33.1539
 -29.4845
 -29.0762
 -29.7358
 -29.8994
 -48.4225
 -47.2145
 -47.2244
 -47.2736
 -37.6603
 -38.6427
 -38.2949
 -28.8908
 -28.7794
 -29.0562
 -49.265
 -48.8844
 -47.8421
 -48.0972
 -45.4952
 -44.9401
 -45.9981
 -45.1187
 -24.012
 -23.5999
 -23.468
 -33.943
 -35.8586
 -35.9768
 -34.7103
 -17.6155
 -17.5419
 -18.1267
 -17.3327
 -16.8569
 -63.7258
 -61.5562
 -63.706
 -62.5586
 -35.5134
 -35.0383
 -34.5968
 -35.5278
 -55.4785
 -56.2736
 -31.712
 -30.5058
 -30.6752
 -25.8235
 -25.1987
 -26.1872
 -26.0019
 -63.1192
 -62.5226
 -63.6938
 -63.452
 -23.3807
 -23.5288
 -23.4738
 -26.3058
 -26.0852
 -26.6652
 -26.1508
 -28.8258
 -29.7632
 -29.0227
 -28.0947
 -43.6722
 -45.4071
 -44.0275
 -44.6022
 -25.081
 -25.9497
 -25.4966
 -25.3629
 -47.344
 -40.4733
 -41.6845
 -42.0118
 -40.1269
 -59.4769
 -59.8297
 -58.4825
 -61.8161
 -61.4895
 -61.4109
 -60.6686
 -41.1472
 -41.8734
 -40.6475
 -41.2788
 -65.8203
 -65.6277
 -65.4319
 -64.5963
 -28.8399
 -38.2229
 -36.8948
 -37.0037
 -37.9072
 -35.5974
 -34.1704
 -34.9469
 -35.0523
 -15.9626
 -16.5239
 -16.6809
 -16.1244
 -32.542
 -32.7741
 -33.0805
 -32.0587
 -31.3633
 -31.3887
 -31.6526
 -32.1829
 -32.1854
 -32.2516
 -33.0574
 -56.7544
 -55.9104
 -55.5045
 -31.4462
 -30.4271
 -30.6926
 -31.0153
 -54.3297
 -55.7833
 -55.0974
 -34.0307
 -33.3012
 -36.4315
 -37.0908
 -36.8
 -36.006
 -35.6695
 -35.932
 -35.1701
 -35.3644
 -36.5146
 -36.1286
 -58.6383
 -59.0228
 -59.0242
 -28.9758
 -61.8286
 -37.5263
 -38.171
 -37.3206
 -36.5514
 -22.794
 -22.7627
 -22.1324
 -24.3956
 -25.0994
 -25.4454
 -36.0883
 -36.5231
 -35.4235
 -33.3196
 -33.2969
 -33.6454
 -34.1513
 -35.5199
 -34.7154
 -36.1126
 -34.8811
 -11.2076
 -11.3104
 -10.917
 -49.1647
 -48.1038
 -48.857
 -33.5445
 -33.7294
 -51.5495
 -50.2573
 -50.7739
 -50.0428
 -38.7981
 -39.6362
 -38.7287
 -16.1392
 -16.3792
 -15.7432
 -15.9538
 -31.1954
 -30.3476
 -31.2012
 -30.1371
 -24.4625
 -24.1866
 -23.904
 -23.7445
 -43.4226
 -41.9951
 -42.9076
 -43.4135
 -27.7818
 -27.0673
 -27.6882
 -26.7332
 -17.6281
 -17.551
 -17.5917
 -28.6998
 -28.4364
 -28.0472
 -28.2549
 -43.2561
 -44.4538
 -43.9065
 -44.1612
 -34.5888
 -35.6291
 -35.6878
 -35.1405
 -25.4828
 -25.1981
 -25.5922
 -30.4134
 -29.7582
 -30.0244
 -29.9534
 -24.4531
 -23.7483
 -24.5264
 -23.9496
 -21.2681
 -21.9986
 -21.7413
 -21.0194
 -64.1063
 -64.3528
 -63.8741
 -64.2129
 -23.5794
 -24.0406
 -23.8967
 -24.0561
 -25.1284
 -24.6685
 -25.2803
 -25.2931
 -41.848
 -42.9768
 -42.8018
 -43.525
 -28.2505
 -28.1298
 -28.8722
 -28.4669
 -67.6087
 -67.5316
 -67.5252
 -67.8705
 -32.1843
 -31.8121
 -32.5897
 -22.2503
 -21.8563
 -21.9852
 -22.5639
 -23.3473
 -23.112
 -23.2616
 -23.0922
 -23.5899
 -22.5682
 -46.1274
 -44.8171
 -45.9402
 -44.5384
 -68.0403
 -67.8663
 -68.0771
 -67.9468
 -30.0622
 -29.3161
 -29.6765
 -29.2463
 -24.1824
 -23.8481
 -23.7993
 -43.0274
 -41.8877
 -42.0184
 -42.7418
 -31.979
 -32.02
 -32.1253
 -33.0445
 -25.8704
 -25.983
 -25.8498
 -26.436
 -21.8713
 -22.7062
 -22.2089
 -49.7541
 -51.0158
 -51.5638
 -49.9638
 -55.1474
 -54.6493
 -53.7863
 -30.1902
 -29.955
 -30.5425
 -31.133
 -30.9409
 -30.6775
 -31.5564
 -25.628
 -26.4295
 -26.8213
 -26.4232
 -42.5338
 -41.9791
 -41.3843
 -23.5303
 -23.4884
 -22.8744
 -35.0349
 -35.94
 -35.6249
 -54.6385
 -53.2868
 -54.4654
 -44.4477
 -44.3134
 -28.5091
 -28.9965
 -28.288
 -28.9145
 -29.192
 -28.8581
 -33.3082
 -32.2822
 -26.0669
 -21.2335
 -21.3029
 -20.8556
 -55.0461
 -54.9286
 -53.1396
 -30.0668
 -30.7695
 -30.5266
 -29.9857
 -26.5245
 -34.4862
 -34.9734
 -43.0707
 -43.6284
 -42.7522
 -43.867
 -34.3649
 -33.7249
 -34.644
 -30.3935
 -30.8325
 -29.6742
 -30.4142
 -28.6349
 -29.9358
 -31.3843
 -30.7099
 -30.2565
 -31.6582
 -57.7589
 -56.5427
 -56.3341
 -57.3771
 -58.9085
 -59.5682
 -60.4474
 -60.4484
 -23.4799
 -23.9656
 -33.8263
 -33.9705
 -33.5321
 -32.7545
 -38.4161
 -38.6597
 -39.177
 -39.5332
 -40.933
 -41.8447
 -40.9865
 -40.7391
 -33.3347
 -32.6612
 -32.42
 -33.3478
 -31.5838
 -32.2255
 -31.76
 -31.4802
 -54.2486
 -52.6696
 -54.3772
 -54.2204
 -23.9539
 -24.7178
 -24.9879
 -25.4906
 -24.2062
 -24.9363
 -24.567
 -49.3464
 -50.3623
 -51.7012
 -52.3261
 -25.5448
 -26.0769
 -25.8408
 -26.2999
 -62.5866
 -61.8125
 -62.49
 -62.3073
 -55.9828
 -55.349
 -55.9155
 -54.8856
 -29.3716
 -29.7836
 -29.1002
 -29.44
 -44.8005
 -45.2272
 -44.7955
 -43.6896
 -26.079
 -26.4378
 -26.9979
 -27.1549
 -49.5116
 -48.7442
 -48.8858
 -23.693
 -24.0819
 -23.6008
 -23.8355
 -40.0577
 -39.5416
 -40.2576
 -40.6263
 -28.642
 -28.854
 -47.5413
 -49.5463
 -48.5747
 -48.3818
 -50.3434
 -50.0336
 -49.134
 -32.1987
 -33.3689
 -32.3832
 -51.5468
 -51.7069
 -52.2329
 -52.8785
 -17.9699
 -18.0945
 -18.4961
 -18.3867
 -25.8355
 -26.1566
 -26.6139
 -26.9166
 -39.8886
 -38.6194
 -38.7823
 -39.8786
 -57.9552
 -58.4599
 -57.5787
 -58.7595
 -55.1809
 -56.2681
 -56.3161
 -55.5727
 -57.032
 -56.657
 -57.1523
 -57.8755
 -58.458
 -27.1992
 -27.6195
 -27.1036
 -27.809
 -24.1715
 -24.3342
 -23.4255
 -24.0583
 -27.0025
 -27.0156
 -28.8098
 -29.5987
 -29.0145
 -28.8104
 -30.9269
 -30.8932
 -31.7945
 -30.8817
 -24.7191
 -24.73
 -24.2245
 -35.4469
 -34.8646
 -34.9987
 -34.6774
 -68.4118
 -68.2363
 -67.7557
 -27.6084
 -27.4491
 -27.7392
 -28.5018
 -50.8361
 -49.288
 -50.1943
 -50.579
 -43.4972
 -44.6156
 -44.114
 -34.1769
 -33.673
 -34.5671
 -44.8435
 -46.0526
 -45.0431
 -53.9485
 -53.3685
 -43.7554
 -43.8081
 -43.718
 -26.2042
 -26.4728
 -26.6307
 -25.8718
 -60.0457
 -60.7599
 -60.2318
 -59.8615
 -40.3297
 -41.3162
 -40.8492
 -14.9488
 -14.3789
 -14.1892
 -14.8514
 -22.1907
 -21.8741
 -37.4335
 -28.9254
 -30.06
 -29.2824
 -28.927
 -35.7637
 -36.8599
 -36.8291
 -48.8716
 -48.8402
 -48.0151
 -49.0625
 -63.8933
 -64.1064
 -34.1015
 -33.8286
 -33.8603
 -33.2207
 -21.3517
 -20.7594
 -20.7501
 -21.3224
 -56.1708
 -56.7697
 -56.8045
 -56.2594
 -39.4105
 -39.8515
 -39.1985
 -11.8556
 -11.626
 -11.3601
 -11.3792
 -23.7548
 -23.6347
 -23.2063
 -27.3629
 -27.9797
 -26.8935
 -27.541
 -39.6703
 -39.8659
 -39.4208
 -40.6317
 -34.1263
 -34.7814
 -22.4575
 -22.6034
 -22.553
 -22.5791
 -40.2499
 -41.2823
 -27.5391
 -26.5034
 -26.8106
 -27.1439
 -30.0301
 -30.3629
 -29.4507
 -30.0888
 -34.622
 -35.6373
 -35.8511
 -35.1284
 -26.5779
 -26.2047
 -25.4195
 -43.0508
 -41.8978
 -43.226
 -42.0235
 -49.7581
 -50.8755
 -51.8044
 -50.0871
 -48.0187
 -48.1671
 -48.4215
 -49.1308
 -20.7999
 -20.2539
 -20.5543
 -20.0583
 -35.1505
 -34.4813
 -13.7261
 -13.3336
 -13.4153
 -13.0157
 -30.1225
 -29.4404
 -29.0237
 -61.901
 -10.1111
 -10.2357
 -10.2594
 -9.74809
 -32.8379
 -33.2171
 -32.7545
 -32.7907
 -28.3503
 -29.1036
 -28.5405
 -48.5188
 -49.5854
 -49.5005
 -48.4962
 -49.2151
 -48.7709
 -50.134
 -50.1631
 -47.5044
 -48.1256
 -47.1559
 -46.7252
 -26.4835
 -27.0678
 -26.1394
 -27.007
 -23.5477
 -23.3202
 -22.8858
 -22.974
 -40.9774
 -41.1408
 -42.1633
 -41.0067
 -30.5245
 -29.4572
 -31.0222
 -30.3055
 -67.2446
 -58.2708
 -58.2264
 -38.8547
 -38.8817
 -30.7897
 -30.1272
 -30.3221
 -59.4205
 -60.9583
 -60.1307
 -59.6447
 -32.2526
 -31.9063
 -38.9902
 -38.169
 -16.0887
 -16.6443
 -16.048
 -16.6309
 -26.4143
 -26.1149
 -25.6384
 -25.936
 -39.9058
 -41.1776
 -40.2018
 -40.7489
 -17.0931
 -16.5817
 -16.9998
 -17.2345
 -64.1174
 -63.8471
 -64.767
 -64.2296
 -58.6975
 -57.641
 -62.1563
 -61.333
 -60.3012
 -62.3486
 -50.5435
 -51.4995
 -29.0117
 -29.2955
 -28.6967
 -10.6875
 -11.0504
 -10.5741
 -10.6381
 -17.7733
 -18.1589
 -18.2965
 -17.8271
 -59.5204
 -60.2637
 -59.4912
 -59.0369
 -44.9335
 -46.331
 -45.422
 -36.4225
 -35.449
 -34.8649
 -35.7862
 -27.3598
 -28.4264
 -27.5265
 -27.2922
 -53.3774
 -54.435
 -54.221
 -59.8507
 -35.0521
 -36.2659
 -26.3058
 -26.5649
 -43.4763
 -44.9333
 -43.3006
 -43.7496
 -23.5911
 -22.85
 -23.8486
 -22.816
 -23.104
 -22.5441
 -22.7104
 -11.3402
 -11.9357
 -11.7968
 -11.6689
 -27.2483
 -27.7008
 -27.6584
 -28.3103
 -54.8839
 -55.1011
 -52.4518
 -53.3005
 -53.1198
 -53.2787
 -25.9475
 -25.8713
 -26.5505
 -25.559
 -48.4032
 -47.7819
 -48.8268
 -44.1038
 -44.2807
 -44.4104
 -43.4536
 -52.9007
 -53.2756
 -52.0739
 -53.7101
 -27.3569
 -28.1114
 -27.8417
 -27.4451
 -62.2835
 -60.896
 -31.5411
 -14.8931
 -15.1632
 -15.4125
 -15.6558
 -47.8041
 -47.7446
 -48.5445
 -17.9448
 -17.5422
 -17.6709
 -17.3658
 -42.9627
 -42.8254
 -42.6784
 -43.6633
 -22.5014
 -22.4764
 -21.8833
 -22.6264
 -24.805
 -24.6402
 -25.1898
 -25.2944
 -41.7918
 -42.4638
 -42.4028
 -28.8976
 -29.1694
 -28.7579
 -28.259
 -41.0227
 -40.6311
 -41.3635
 -39.7958
 -37.6399
 -37.1806
 -49.9946
 -50.3833
 -50.3459
 -44.1269
 -44.2655
 -43.1614
 -14.7145
 -14.7987
 -15.2598
 -14.8535
 -23.5574
 -24.0913
 -23.2605
 -24.2966
 -53.573
 -51.984
 -52.2689
 -52.1606
 -51.9907
 -51.7963
 -25.3689
 -26.7549
 -25.4966
 -44.2393
 -43.1518
 -43.5869
 -43.0152
 -43.9919
 -43.832
 -43.3273
 -26.7791
 -26.4224
 -26.8854
 -26.9829
 -59.1495
 -59.5025
 -29.3789
 -29.1046
 -29.375
 -29.9168
 -26.2444
 -26.3143
 -26.5764
 -45.5571
 -45.9184
 -33.7299
 -33.2119
 -33.8623
 -34.474
 -22.9458
 -22.7627
 -41.5512
 -41.474
 -29.5527
 -28.3726
 -28.5229
 -29.1515
 -35.6142
 -35.5719
 -34.9972
 -36.3098
 -35.5467
 -35.0252
 -35.6197
 -19.6467
 -19.6649
 -19.4131
 -20.512
 -17.6166
 -17.6629
 -18.0472
 -17.9549
 -43.7456
 -42.7509
 -41.852
