 -85.8839
 -85.8851
 -85.8848
 -85.8854
 -85.9035
 -85.9037
 -85.9041
 -85.9044
 -85.899
 -85.8984
 -85.8991
 -85.8986
 -85.8998
 -85.8991
 -85.899
 -85.8986
 -85.9107
 -85.9111
 -85.9104
 -85.9102
 -85.9097
 -85.9092
 -85.91
 -85.9094
 -85.8797
 -85.879
 -85.8792
 -85.8796
 -85.8807
 -85.8809
 -85.8809
 -85.8805
 -85.9096
 -85.9093
 -85.9087
 -85.9093
 -85.9095
 -85.9095
 -85.9093
 -85.9102
 -85.8771
 -85.8766
 -85.8773
 -85.8774
 -85.8986
 -85.8987
 -85.898
 -85.8984
 -85.8876
 -85.8876
 -85.8869
 -85.8882
 -85.9048
 -85.9038
 -85.9035
 -85.9041
 -85.8956
 -85.8953
 -85.8958
 -85.8963
 -85.882
 -85.8814
 -85.8824
 -85.8815
 -85.908
 -85.9084
 -85.9079
 -85.9085
 -85.9005
 -85.9
 -85.9007
 -85.9002
 -85.8961
 -85.8963
 -85.8964
 -85.8969
 -85.9068
 -85.9068
 -85.9072
 -85.9076
 -85.8804
 -85.8795
 -85.8804
 -85.8798
 -85.9117
 -85.9119
 -85.9124
 -85.9123
 -85.8663
 -85.8658
 -85.8655
 -85.8664
 -85.903
 -85.9033
 -85.9025
 -85.9024
 -85.8947
 -85.8941
 -85.8947
 -85.8951
 -85.8974
 -85.8976
 -85.8972
 -85.897
 -85.8915
 -85.8923
 -85.8928
 -85.8915
 -85.8816
 -85.881
 -85.8817
 -85.8815
 -85.8873
 -85.8871
 -85.8865
 -85.8869
 -85.904
 -85.904
 -85.9036
 -85.9031
 -85.8951
 -85.8961
 -85.8948
 -85.8953
 -85.8877
 -85.8884
 -85.8883
 -85.8877
 -85.9017
 -85.901
 -85.9019
 -85.9012
 -85.9035
 -85.9032
 -85.9031
 -85.9033
 -85.8879
 -85.8873
 -85.8882
 -85.8869
 -85.883
 -85.8829
 -85.8827
 -85.8828
 -85.901
 -85.9
 -85.9009
 -85.9007
 -85.8766
 -85.877
 -85.8771
 -85.8774
 -85.902
 -85.9021
 -85.9032
 -85.9029
 -85.9128
 -85.9124
 -85.9127
 -85.9122
 -85.8982
 -85.898
 -85.8984
 -85.8973
 -85.9035
 -85.9041
 -85.9037
 -85.9037
 -85.8784
 -85.8782
 -85.8788
 -85.8779
 -85.9007
 -85.9002
 -85.9004
 -85.9011
 -85.9094
 -85.9093
 -85.9098
 -85.9096
 -85.8858
 -85.8864
 -85.8861
 -85.8858
 -85.9011
 -85.9021
 -85.9018
 -85.9019
 -85.8823
 -85.883
 -85.8823
 -85.8816
 -85.8887
 -85.8882
 -85.8879
 -85.8876
 -85.8963
 -85.8957
 -85.8955
 -85.8951
 -85.8811
 -85.8809
 -85.8806
 -85.8811
 -85.8968
 -85.8962
 -85.8961
 -85.8967
 -85.8896
 -85.8886
 -85.8895
 -85.8883
 -85.8982
 -85.8986
 -85.8982
 -85.8987
 -85.8868
 -85.8875
 -85.8871
 -85.888
 -85.8983
 -85.8982
 -85.8989
 -85.8978
 -85.9022
 -85.9024
 -85.9027
 -85.9031
 -85.9033
 -85.9029
 -85.9033
 -85.9023
 -85.8858
 -85.8859
 -85.8848
 -85.8863
 -85.891
 -85.8906
 -85.8908
 -85.8917
 -85.8679
 -85.8673
 -85.8668
 -85.8674
 -85.8873
 -85.8872
 -85.8865
 -85.8871
 -85.8952
 -85.8962
 -85.8958
 -85.896
 -85.89
 -85.8899
 -85.8909
 -85.8893
 -85.8895
 -85.8905
 -85.8895
 -85.8904
 -85.8814
 -85.881
 -85.8817
 -85.8816
 -85.9074
 -85.9081
 -85.9083
 -85.9073
 -85.9108
 -85.911
 -85.9112
 -85.9113
 -85.8968
 -85.8978
 -85.8962
 -85.8967
 -85.8875
 -85.8873
 -85.8879
 -85.8871
 -85.9019
 -85.9022
 -85.9026
 -85.9018
 -85.8804
 -85.879
 -85.8794
 -85.8794
 -85.8801
 -85.8794
 -85.8793
 -85.8802
 -85.8667
 -85.8662
 -85.867
 -85.8668
 -85.8986
 -85.8994
 -85.899
 -85.8997
 -85.8854
 -85.8862
 -85.8864
 -85.8854
 -85.8838
 -85.8832
 -85.884
 -85.8845
 -85.9114
 -85.9118
 -85.9116
 -85.9119
 -85.8829
 -85.8826
 -85.882
 -85.8828
 -85.8841
 -85.8837
 -85.8832
 -85.8841
 -85.8854
 -85.886
 -85.8854
 -85.8848
 -85.8925
 -85.8923
 -85.893
 -85.8929
 -85.8845
 -85.8853
 -85.8847
 -85.885
 -85.8885
 -85.8891
 -85.8893
 -85.8888
 -85.8909
 -85.8907
 -85.8904
 -85.8901
 -85.8825
 -85.8817
 -85.8828
 -85.8819
 -85.8644
 -85.8642
 -85.8655
 -85.8655
 -85.881
 -85.8812
 -85.8817
 -85.8813
 -85.899
 -85.8986
 -85.8993
 -85.8981
 -85.8992
 -85.8989
 -85.8996
 -85.899
 -85.9031
 -85.9028
 -85.9026
 -85.9035
 -85.8801
 -85.88
 -85.8801
 -85.8804
 -85.912
 -85.912
 -85.9117
 -85.9124
 -85.9027
 -85.9034
 -85.9027
 -85.9029
 -85.8772
 -85.8771
 -85.8764
 -85.8764
 -85.8889
 -85.8889
 -85.8886
 -85.89
 -85.8838
 -85.8843
 -85.8832
 -85.8836
 -85.8841
 -85.8836
 -85.8837
 -85.8805
 -85.8804
 -85.8803
 -85.8801
 -85.9006
 -85.9002
 -85.8998
 -85.9009
 -85.8916
 -85.8926
 -85.8922
 -85.8916
 -85.8997
 -85.9005
 -85.8999
 -85.8873
 -85.8862
 -85.8869
 -85.8865
 -85.8939
 -85.8943
 -85.8942
 -85.8934
 -85.9063
 -85.9057
 -85.9057
 -85.9068
 -85.8804
 -85.8806
 -85.8817
 -85.8812
 -85.8827
 -85.8821
 -85.8817
 -85.8822
 -85.8989
 -85.8981
 -85.8979
 -85.8982
 -85.9021
 -85.9017
 -85.9028
 -85.9027
 -85.8783
 -85.8783
 -85.8779
 -85.8773
 -85.8822
 -85.8824
 -85.8836
 -85.8832
 -85.8904
 -85.8913
 -85.8918
 -85.8905
 -85.9096
 -85.9101
 -85.9098
 -85.91
 -85.8987
 -85.8995
 -85.8996
 -85.8994
 -85.894
 -85.8927
 -85.8939
 -85.894
 -85.8693
 -85.8682
 -85.8694
 -85.8692
 -85.8925
 -85.8918
 -85.8928
 -85.8933
 -85.9061
 -85.9054
 -85.9061
 -85.9051
 -85.8848
 -85.8836
 -85.8854
 -85.885
 -85.8831
 -85.8832
 -85.8824
 -85.8829
 -85.8829
 -85.882
 -85.8822
 -85.8824
 -85.8759
 -85.8758
 -85.8758
 -85.8762
 -85.8839
 -85.8827
 -85.8828
 -85.8828
 -85.8993
 -85.8991
 -85.8993
 -85.8987
 -85.8794
 -85.8797
 -85.88
 -85.8802
 -85.9092
 -85.9087
 -85.909
 -85.9092
 -85.8799
 -85.8789
 -85.8791
 -85.8798
 -85.9061
 -85.9051
 -85.906
 -85.9055
 -85.8922
 -85.8914
 -85.8915
 -85.892
 -85.8888
 -85.8895
 -85.8899
 -85.8891
 -85.8863
 -85.8864
 -85.8874
 -85.8866
 -85.8848
 -85.8848
 -85.8843
 -85.884
 -85.9117
 -85.9121
 -85.9122
 -85.9122
 -85.8856
 -85.8852
 -85.8856
 -85.8853
 -85.9128
 -85.9125
 -85.9127
 -85.9122
 -85.9024
 -85.9022
 -85.9031
 -85.9024
 -85.8722
 -85.8732
 -85.873
 -85.8721
 -85.9101
 -85.91
 -85.9104
 -85.9107
 -85.882
 -85.883
 -85.8822
 -85.8815
 -85.8714
 -85.8709
 -85.8707
 -85.8713
 -85.9049
 -85.9048
 -85.9045
 -85.9048
 -85.9109
 -85.9113
 -85.9111
 -85.911
 -85.896
 -85.8962
 -85.8958
 -85.8957
 -85.9038
 -85.9031
 -85.904
 -85.9033
 -85.8838
 -85.883
 -85.8834
 -85.8833
 -85.8978
 -85.8975
 -85.8978
 -85.8985
 -85.8885
 -85.8881
 -85.8888
 -85.8888
 -85.881
 -85.8813
 -85.8808
 -85.8808
 -85.8775
 -85.8774
 -85.8773
 -85.878
 -85.8917
 -85.8915
 -85.8922
 -85.8912
 -85.894
 -85.894
 -85.8938
 -85.8932
 -85.8833
 -85.8832
 -85.8838
 -85.8841
 -85.8834
 -85.8824
 -85.8833
 -85.8832
 -85.9001
 -85.9003
 -85.8997
 -85.8996
 -85.9098
 -85.9097
 -85.9103
 -85.9103
 -85.9088
 -85.9084
 -85.909
 -85.9091
 -85.9086
 -85.9078
 -85.908
 -85.9083
 -85.9007
 -85.9004
 -85.901
 -85.9003
 -85.8833
 -85.8823
 -85.883
 -85.8828
 -85.8836
 -85.8841
 -85.8843
 -85.8845
 -85.8938
 -85.8935
 -85.8923
 -85.8923
 -85.9024
 -85.902
 -85.9032
 -85.9028
 -85.9023
 -85.9018
 -85.902
 -85.9026
 -85.8965
 -85.8958
 -85.8962
 -85.8964
 -85.8985
 -85.8992
 -85.8982
 -85.8985
 -85.878
 -85.8778
 -85.8782
 -85.8789
 -85.8605
 -85.8599
 -85.8606
 -85.8595
 -85.8852
 -85.885
 -85.8841
 -85.8847
 -85.8637
 -85.8649
 -85.8645
 -85.8852
 -85.8851
 -85.8855
 -85.8846
 -85.9068
 -85.9064
 -85.9067
 -85.9062
 -85.8957
 -85.8962
 -85.8963
 -85.8969
 -85.9097
 -85.9095
 -85.9101
 -85.9094
 -85.8831
 -85.8833
 -85.8825
 -85.8832
 -85.9013
 -85.9011
 -85.9022
 -85.9019
 -85.8966
 -85.8966
 -85.8957
 -85.8961
 -85.9111
 -85.9114
 -85.9116
 -85.9109
 -85.9055
 -85.9053
 -85.9056
 -85.9063
 -85.8852
 -85.8861
 -85.8855
 -85.8852
 -85.9012
 -85.901
 -85.9004
 -85.9011
 -85.9064
 -85.9053
 -85.906
 -85.9055
 -85.8713
 -85.8701
 -85.8707
 -85.8702
 -85.8953
 -85.8957
 -85.896
 -85.8961
 -85.9063
 -85.9065
 -85.9069
 -85.9064
 -85.8995
 -85.9001
 -85.8989
 -85.9005
 -85.9054
 -85.9046
 -85.9055
 -85.9054
 -85.8836
 -85.8844
 -85.8848
 -85.8847
 -85.9053
 -85.9066
 -85.9053
 -85.9064
 -85.8909
 -85.8914
 -85.8899
 -85.8908
 -85.8929
 -85.8933
 -85.8938
 -85.8927
 -85.9052
 -85.9052
 -85.9046
 -85.9055
 -85.9127
 -85.9124
 -85.9125
 -85.9127
 -85.8781
 -85.8785
 -85.8789
 -85.8791
 -85.8881
 -85.8887
 -85.8892
 -85.8883
 -85.8977
 -85.8972
 -85.8968
 -85.897
 -85.9053
 -85.9058
 -85.9057
 -85.9058
 -85.8859
 -85.8853
 -85.8855
 -85.8856
 -85.8793
 -85.8802
 -85.8806
 -85.8794
 -85.9017
 -85.9018
 -85.901
 -85.9009
 -85.8994
 -85.9
 -85.8993
 -85.8996
 -85.9103
 -85.9107
 -85.9111
 -85.9103
 -85.8813
 -85.8823
 -85.8811
 -85.8819
 -85.9108
 -85.9113
 -85.9112
 -85.9109
 -85.8874
 -85.8884
 -85.8879
 -85.8876
 -85.8612
 -85.861
 -85.8614
 -85.8617
 -85.9081
 -85.9085
 -85.9088
 -85.9086
 -85.9007
 -85.9011
 -85.9003
 -85.8994
 -85.9087
 -85.9087
 -85.9083
 -85.9082
 -85.8937
 -85.8927
 -85.8934
 -85.8938
 -85.8918
 -85.8923
 -85.8925
 -85.892
 -85.9043
 -85.9034
 -85.9037
 -85.9037
 -85.8832
 -85.8835
 -85.8828
 -85.8834
 -85.8819
 -85.8824
 -85.8824
 -85.8821
 -85.8675
 -85.8671
 -85.867
 -85.8668
 -85.8965
 -85.8971
 -85.8975
 -85.8978
 -85.8943
 -85.8938
 -85.8951
 -85.8942
 -85.8996
 -85.8984
 -85.8992
 -85.8998
 -85.8882
 -85.8892
 -85.8893
 -85.8879
 -85.9098
 -85.9097
 -85.9101
 -85.9093
 -85.9109
 -85.9116
 -85.9109
 -85.9107
 -85.9001
 -85.9004
 -85.9012
 -85.9012
 -85.8552
 -85.8551
 -85.8554
 -85.8558
 -85.8907
 -85.8902
 -85.8909
 -85.8898
 -85.8914
 -85.8911
 -85.8902
 -85.8911
 -85.8908
 -85.8909
 -85.89
 -85.89
 -85.9046
 -85.9042
 -85.9051
 -85.9041
 -85.8701
 -85.871
 -85.8694
 -85.87
 -85.8657
 -85.8658
 -85.8649
 -85.8647
 -85.9046
 -85.9041
 -85.9046
 -85.9039
 -85.8867
 -85.8876
 -85.8863
 -85.8876
 -85.8899
 -85.8899
 -85.8902
 -85.8902
 -85.9001
 -85.8996
 -85.8995
 -85.8987
 -85.8825
 -85.8829
 -85.8833
 -85.8829
 -85.9057
 -85.9049
 -85.9051
 -85.9056
 -85.8884
 -85.8868
 -85.8877
 -85.8866
 -85.887
 -85.8868
 -85.8861
 -85.8868
 -85.8793
 -85.8788
 -85.8797
 -85.8786
 -85.8906
 -85.8917
 -85.8909
 -85.8918
 -85.9068
 -85.9072
 -85.9072
 -85.9067
 -85.9011
 -85.902
 -85.9022
 -85.9014
 -85.8823
 -85.8821
 -85.8829
 -85.8828
 -85.8856
 -85.8866
 -85.8866
 -85.8856
 -85.9091
 -85.9093
 -85.9096
 -85.9095
 -85.9054
 -85.9049
 -85.9052
 -85.9049
 -85.8914
 -85.8911
 -85.8906
 -85.8911
 -85.8798
 -85.88
 -85.88
 -85.8802
 -85.8737
 -85.8751
 -85.8749
 -85.8738
 -85.9002
 -85.8994
 -85.899
 -85.8998
 -85.8799
 -85.879
 -85.8798
 -85.878
 -85.9074
 -85.9068
 -85.9067
 -85.9074
 -85.8979
 -85.899
 -85.8984
 -85.8977
 -85.9069
 -85.9067
 -85.9064
 -85.9066
 -85.9019
 -85.9012
 -85.9011
 -85.9016
 -85.8913
 -85.8909
 -85.8912
 -85.8918
 -85.8838
 -85.8825
 -85.8828
 -85.8833
 -85.875
 -85.8764
 -85.8752
 -85.8753
 -85.8782
 -85.8769
 -85.8782
 -85.8779
 -85.8833
 -85.8822
 -85.8821
 -85.8825
 -85.8929
 -85.8932
 -85.8931
 -85.8917
 -85.8932
 -85.8934
 -85.8936
 -85.8927
 -85.8941
 -85.8933
 -85.8947
 -85.8939
 -85.9006
 -85.9001
 -85.9008
 -85.9007
 -85.8701
 -85.8691
 -85.8694
 -85.8693
 -85.8964
 -85.8966
 -85.8962
 -85.8969
 -85.882
 -85.8811
 -85.8815
 -85.8818
 -85.8898
 -85.8908
 -85.8901
 -85.8907
 -85.9104
 -85.9096
 -85.9104
 -85.9102
 -85.8924
 -85.892
 -85.892
 -85.8916
 -85.8802
 -85.8798
 -85.8801
 -85.8791
 -85.8893
 -85.8893
 -85.8899
 -85.8903
 -85.8841
 -85.8846
 -85.8845
 -85.8839
 -85.8915
 -85.8905
 -85.8917
 -85.891
 -85.8707
 -85.87
 -85.8703
 -85.8709
 -85.8902
 -85.8903
 -85.891
 -85.8911
 -85.9009
 -85.9006
 -85.9012
 -85.9007
 -85.8984
 -85.8985
 -85.8989
 -85.8985
 -85.9089
 -85.9079
 -85.9088
 -85.9083
 -85.8858
 -85.8856
 -85.8863
 -85.8858
 -85.8835
 -85.8841
 -85.8834
 -85.8849
 -85.9084
 -85.9076
 -85.9084
 -85.9082
 -85.8842
 -85.8842
 -85.8851
 -85.8842
 -85.9068
 -85.9066
 -85.9072
 -85.9065
 -85.8954
 -85.8965
 -85.8958
 -85.8962
 -85.8931
 -85.8919
 -85.893
 -85.8933
 -85.8837
 -85.8845
 -85.8843
 -85.8836
 -85.892
 -85.8919
 -85.8927
 -85.8918
 -85.9071
 -85.9068
 -85.9072
 -85.9072
 -85.8608
 -85.861
 -85.8612
 -85.8602
 -85.8796
 -85.8794
 -85.8794
 -85.8796
 -85.8795
 -85.8797
 -85.8795
 -85.879
 -85.8868
 -85.8871
 -85.8864
 -85.8875
 -85.8898
 -85.8892
 -85.8897
 -85.8893
 -85.8859
 -85.8855
 -85.8852
 -85.8861
 -85.9106
 -85.9102
 -85.9111
 -85.91
 -85.8832
 -85.8827
 -85.8829
 -85.8838
 -85.8997
 -85.8998
 -85.9001
 -85.8994
 -85.893
 -85.9051
 -85.9043
 -85.9046
 -85.9045
 -85.8982
 -85.8988
 -85.8993
 -85.8989
 -85.8775
 -85.8781
 -85.8784
 -85.8779
 -85.8876
 -85.8872
 -85.8878
 -85.8884
 -85.8846
 -85.8837
 -85.8844
 -85.8846
 -85.9063
 -85.9057
 -85.9057
 -85.9058
 -85.8907
 -85.8893
 -85.8903
 -85.8899
 -85.9072
 -85.9074
 -85.9066
 -85.9065
 -85.9016
 -85.9021
 -85.9013
 -85.9023
 -85.878
 -85.8785
 -85.8782
 -85.8791
 -85.8829
 -85.882
 -85.8836
 -85.883
 -85.901
 -85.9015
 -85.9015
 -85.901
 -85.892
 -85.891
 -85.8919
 -85.8798
 -85.8793
 -85.8796
 -85.8802
 -85.9
 -85.8987
 -85.8995
 -85.8988
 -85.8847
 -85.8838
 -85.8839
 -85.8845
 -85.8923
 -85.891
 -85.8916
 -85.8923
 -85.9085
 -85.9084
 -85.9077
 -85.9084
 -85.8866
 -85.8862
 -85.8858
 -85.8865
 -85.9053
 -85.9045
 -85.9052
 -85.9054
 -85.8939
 -85.8935
 -85.894
 -85.893
 -85.9033
 -85.9029
 -85.9024
 -85.9027
 -85.9079
 -85.9079
 -85.9085
 -85.9082
 -85.887
 -85.8869
 -85.8875
 -85.8875
 -85.8607
 -85.8621
 -85.8618
 -85.8626
 -85.9109
 -85.9105
 -85.9105
 -85.9104
 -85.8994
 -85.8991
 -85.8986
 -85.899
 -85.8812
 -85.8812
 -85.8825
 -85.8814
 -85.8894
 -85.8899
 -85.8901
 -85.8892
 -85.872
 -85.8723
 -85.8723
 -85.8715
 -85.9074
 -85.9077
 -85.9085
 -85.9077
 -85.8804
 -85.88
 -85.8803
 -85.8804
 -85.8959
 -85.8966
 -85.8956
 -85.8961
 -85.8823
 -85.8808
 -85.8819
 -85.882
 -85.9117
 -85.9116
 -85.9117
 -85.911
 -85.9115
 -85.9114
 -85.9111
 -85.9108
 -85.9016
 -85.9008
 -85.9007
 -85.9017
 -85.8967
 -85.897
 -85.8967
 -85.8961
 -85.897
 -85.88
 -85.8802
 -85.8791
 -85.8798
 -85.882
 -85.8816
 -85.8813
 -85.8823
 -85.9001
 -85.9008
 -85.9009
 -85.9008
 -85.8813
 -85.8819
 -85.8819
 -85.8813
 -85.8838
 -85.8837
 -85.8835
 -85.8844
 -85.9012
 -85.9016
 -85.9013
 -85.9006
 -85.8876
 -85.8886
 -85.8876
 -85.8886
 -85.9006
 -85.9007
 -85.9009
 -85.9014
 -85.8846
 -85.8844
 -85.8837
 -85.8845
 -85.8869
 -85.8876
 -85.8876
 -85.8878
 -85.8911
 -85.8917
 -85.8907
 -85.8916
 -85.8965
 -85.8974
 -85.8968
 -85.8976
 -85.9041
 -85.9037
 -85.9047
 -85.9047
 -85.8953
 -85.895
 -85.8946
 -85.8946
 -85.8954
 -85.8956
 -85.896
 -85.8957
 -85.8779
 -85.8779
 -85.8783
 -85.8786
 -85.8996
 -85.8997
 -85.9
 -85.8998
 -85.8932
 -85.8934
 -85.8938
 -85.8932
 -85.8947
 -85.8947
 -85.8942
 -85.8947
 -85.8883
 -85.8884
 -85.8875
 -85.8881
 -85.8799
 -85.8798
 -85.8803
 -85.8792
 -85.9031
 -85.9031
 -85.9035
 -85.9036
 -85.8802
 -85.8796
 -85.8798
 -85.8807
 -85.9109
 -85.9108
 -85.9114
 -85.9111
 -85.9055
 -85.905
 -85.906
 -85.9057
 -85.906
 -85.906
 -85.9061
 -85.9058
 -85.9055
 -85.9054
 -85.9053
 -85.9059
 -85.9016
 -85.9019
 -85.9012
 -85.902
 -85.8735
 -85.873
 -85.8719
 -85.8952
 -85.8941
 -85.895
 -85.8947
 -85.9047
 -85.9044
 -85.9042
 -85.9047
 -85.8879
 -85.887
 -85.8875
 -85.8878
 -85.8847
 -85.8849
 -85.8844
 -85.885
 -85.9022
 -85.9023
 -85.903
 -85.9016
 -85.8908
 -85.8905
 -85.8909
 -85.8915
 -85.8855
 -85.8855
 -85.8853
 -85.8851
 -85.9101
 -85.9107
 -85.8986
 -85.8984
 -85.8977
 -85.8977
 -85.8913
 -85.8913
 -85.8907
 -85.8965
 -85.8966
 -85.8964
 -85.8958
 -85.875
 -85.8748
 -85.8758
 -85.8757
 -85.9053
 -85.9059
 -85.9058
 -85.9052
 -85.8963
 -85.896
 -85.8956
 -85.8957
 -85.8878
 -85.887
 -85.8874
 -85.8881
 -85.8944
 -85.8935
 -85.8938
 -85.8941
 -85.8809
 -85.8806
 -85.881
 -85.8809
 -85.8785
 -85.8798
 -85.8789
 -85.8791
 -85.8904
 -85.8911
 -85.8913
 -85.8908
 -85.8805
 -85.8804
 -85.8804
 -85.8812
 -85.8914
 -85.891
 -85.8912
 -85.8908
 -85.9061
 -85.9061
 -85.9053
 -85.9052
 -85.8818
 -85.8821
 -85.8825
 -85.8821
 -85.8675
 -85.8684
 -85.8675
 -85.8681
 -85.8976
 -85.8962
 -85.8972
 -85.8972
 -85.8895
 -85.8901
 -85.8893
 -85.8901
 -85.8809
 -85.8807
 -85.8814
 -85.8813
 -85.8917
 -85.8911
 -85.892
 -85.892
 -85.909
 -85.9088
 -85.9091
 -85.909
 -85.884
 -85.8839
 -85.8835
 -85.8839
 -85.8981
 -85.8974
 -85.8974
 -85.8972
 -85.8892
 -85.89
 -85.8894
 -85.8906
 -85.9014
 -85.9018
 -85.9017
 -85.9024
 -85.9062
 -85.9061
 -85.9065
 -85.9059
 -85.8814
 -85.882
 -85.8815
 -85.8828
 -85.8863
 -85.8869
 -85.8867
 -85.8866
 -85.8963
 -85.8962
 -85.8953
 -85.8958
 -85.8806
 -85.8808
 -85.8807
 -85.881
 -85.8615
 -85.8607
 -85.8608
 -85.8613
 -85.8942
 -85.8935
 -85.8935
 -85.8933
 -85.8595
 -85.8593
 -85.8596
 -85.8603
 -85.8611
 -85.8622
 -85.862
 -85.8615
 -85.8752
 -85.8758
 -85.8756
 -85.8749
 -85.8994
 -85.8988
 -85.8984
 -85.898
 -85.8991
 -85.8996
 -85.8998
 -85.9002
 -85.9003
 -85.8998
 -85.9002
 -85.8994
 -85.8979
 -85.897
 -85.8973
 -85.898
 -85.8718
 -85.8711
 -85.8717
 -85.8715
 -85.8821
 -85.8818
 -85.8826
 -85.8822
 -85.881
 -85.8801
 -85.8804
 -85.8803
 -85.8878
 -85.8887
 -85.8879
 -85.8888
 -85.8951
 -85.8946
 -85.8951
 -85.8947
 -85.9015
 -85.9013
 -85.901
 -85.9016
 -85.8829
 -85.8839
 -85.8842
 -85.8833
 -85.8995
 -85.8922
 -85.8928
 -85.8929
 -85.8925
 -85.9113
 -85.9115
 -85.912
 -85.9117
 -85.8905
 -85.8906
 -85.8911
 -85.8905
 -85.9075
 -85.9083
 -85.9077
 -85.8816
 -85.882
 -85.8823
 -85.8815
 -85.864
 -85.8648
 -85.8644
 -85.8649
 -85.8921
 -85.8921
 -85.8932
 -85.8916
 -85.8882
 -85.887
 -85.8872
 -85.8871
 -85.8807
 -85.8812
 -85.8817
 -85.882
 -85.8818
 -85.8821
 -85.8814
 -85.8822
 -85.8742
 -85.8733
 -85.8739
 -85.8739
 -85.8965
 -85.8963
 -85.8968
 -85.8979
 -85.8923
 -85.8932
 -85.892
 -85.8928
 -85.886
 -85.8853
 -85.8862
 -85.8857
 -85.8905
 -85.89
 -85.8915
 -85.9022
 -85.9018
 -85.9017
 -85.8832
 -85.8833
 -85.8822
 -85.882
 -85.876
 -85.8757
 -85.8757
 -85.8759
 -85.8847
 -85.8853
 -85.8852
 -85.8845
 -85.8759
 -85.875
 -85.8761
 -85.8747
 -85.9038
 -85.9046
 -85.904
 -85.9043
 -85.9014
 -85.9018
 -85.902
 -85.9025
 -85.8807
 -85.8805
 -85.8806
 -85.8805
 -85.8728
 -85.8716
 -85.8724
 -85.8727
 -85.8943
 -85.8932
 -85.8942
 -85.8938
 -85.9098
 -85.9091
 -85.9099
 -85.9092
 -85.8754
 -85.8753
 -85.8749
 -85.8754
 -85.899
 -85.8984
 -85.8982
 -85.8992
 -85.8671
 -85.8665
 -85.8671
 -85.8667
 -85.9014
 -85.9017
 -85.9013
 -85.9023
 -85.8884
 -85.8877
 -85.8888
 -85.8874
 -85.9039
 -85.904
 -85.9045
 -85.9046
 -85.8815
 -85.8817
 -85.8818
 -85.8825
 -85.8869
 -85.8862
 -85.8863
 -85.8862
 -85.883
 -85.8827
 -85.8837
 -85.8836
 -85.8847
 -85.8843
 -85.8854
 -85.8839
 -85.8942
 -85.8948
 -85.8947
 -85.8939
 -85.8902
 -85.8895
 -85.8904
 -85.8903
 -85.9045
 -85.9039
 -85.9034
 -85.9036
 -85.9107
 -85.9111
 -85.9103
 -85.9103
 -85.889
 -85.8889
 -85.8883
 -85.8888
 -85.9059
 -85.9056
 -85.9055
 -85.9063
 -85.9006
 -85.9015
 -85.902
 -85.9013
 -85.8707
 -85.8703
 -85.8694
 -85.8706
 -85.8794
 -85.8808
 -85.8805
 -85.88
 -85.8882
 -85.8876
 -85.8875
 -85.8877
 -85.8744
 -85.8738
 -85.8737
 -85.8731
 -85.8949
 -85.8957
 -85.8956
 -85.8954
 -85.9033
 -85.9046
 -85.9039
 -85.904
 -85.8749
 -85.8763
 -85.875
 -85.875
 -85.8908
 -85.8915
 -85.891
 -85.8911
 -85.8851
 -85.8851
 -85.8851
 -85.8847
 -85.8616
 -85.8622
 -85.8623
 -85.8616
 -85.8875
 -85.8873
 -85.8872
 -85.888
 -85.8927
 -85.8932
 -85.8931
 -85.8933
 -85.9011
 -85.9019
 -85.9014
 -85.9021
 -85.8845
 -85.8847
 -85.8849
 -85.8926
 -85.8924
 -85.8921
 -85.8925
 -85.8863
 -85.8862
 -85.8873
 -85.8866
 -85.8993
 -85.8986
 -85.8991
 -85.899
 -85.899
 -85.8999
 -85.8998
 -85.8995
 -85.9068
 -85.9062
 -85.9066
 -85.9059
 -85.8824
 -85.8824
 -85.883
 -85.8823
 -85.9092
 -85.9094
 -85.9097
 -85.9093
 -85.8838
 -85.8845
 -85.8839
 -85.8836
 -85.8922
 -85.8931
 -85.893
 -85.8935
 -85.8937
 -85.8929
 -85.893
 -85.8927
 -85.8604
 -85.8596
 -85.8603
 -85.8602
 -85.8856
 -85.8851
 -85.8857
 -85.8858
 -85.8915
 -85.8914
 -85.8921
 -85.8931
 -85.8909
 -85.8912
 -85.8913
 -85.8904
 -85.911
 -85.911
 -85.9104
 -85.9109
 -85.8837
 -85.8845
 -85.8849
 -85.884
 -85.885
 -85.8845
 -85.8853
 -85.8843
 -85.9011
 -85.9018
 -85.9012
 -85.9017
 -85.8814
 -85.8812
 -85.8807
 -85.8806
 -85.881
 -85.8808
 -85.8813
 -85.8807
 -85.8984
 -85.8974
 -85.8984
 -85.8979
 -85.8994
 -85.8993
 -85.8987
 -85.8994
 -85.8942
 -85.8942
 -85.8952
 -85.895
 -85.8844
 -85.8841
 -85.897
 -85.8964
 -85.8974
 -85.8965
 -85.8848
 -85.8853
 -85.8849
 -85.885
 -85.8894
 -85.8902
 -85.8905
 -85.8901
 -85.9077
 -85.9074
 -85.9071
 -85.9079
 -85.8895
 -85.8897
 -85.8902
 -85.8903
 -85.9024
 -85.9029
 -85.9032
 -85.9021
 -85.8826
 -85.8841
 -85.8836
 -85.884
 -85.888
 -85.8874
 -85.8872
 -85.8876
 -85.8914
 -85.8928
 -85.892
 -85.8923
 -85.8824
 -85.8817
 -85.8814
 -85.882
 -85.8678
 -85.868
 -85.8676
 -85.8671
 -85.9099
 -85.9099
 -85.9097
 -85.91
 -85.8755
 -85.8754
 -85.8757
 -85.8752
 -85.8954
 -85.8958
 -85.8949
 -85.895
 -85.8677
 -85.8677
 -85.8683
 -85.8674
 -85.8966
 -85.8973
 -85.8968
 -85.8967
 -85.8839
 -85.8838
 -85.8836
 -85.8836
 -85.884
 -85.8841
 -85.8834
 -85.8838
 -85.8937
 -85.894
 -85.893
 -85.8937
 -85.9047
 -85.9038
 -85.9045
 -85.9037
 -85.8875
 -85.8886
 -85.8883
 -85.8885
 -85.8806
 -85.8803
 -85.8806
 -85.8809
 -85.9043
 -85.9053
 -85.9047
 -85.9055
 -85.8832
 -85.8825
 -85.8836
 -85.8837
 -85.8875
 -85.8884
 -85.8881
 -85.8886
 -85.9008
 -85.902
 -85.9018
 -85.9013
 -85.8932
 -85.894
 -85.8941
 -85.8941
 -85.8904
 -85.8899
 -85.8904
 -85.8908
 -85.9076
 -85.9081
 -85.9084
 -85.9086
 -85.9054
 -85.9056
 -85.9056
 -85.9053
 -85.8955
 -85.8955
 -85.8945
 -85.895
 -85.8903
 -85.8909
 -85.8901
 -85.8917
 -85.8857
 -85.8861
 -85.8861
 -85.8873
 -85.8798
 -85.8797
 -85.8792
 -85.9022
 -85.9027
 -85.9024
 -85.9032
 -85.8669
 -85.8663
 -85.8656
 -85.8657
 -85.8991
 -85.8981
 -85.8986
 -85.8985
 -85.8828
 -85.8819
 -85.8824
 -85.8825
 -85.8814
 -85.8807
 -85.881
 -85.8809
 -85.9056
 -85.9049
 -85.9052
 -85.9062
 -85.8938
 -85.8932
 -85.8941
 -85.8935
 -85.8906
 -85.8903
 -85.8847
 -85.8891
 -85.89
 -85.889
 -85.8895
 -85.8679
 -85.8685
 -85.8982
 -85.8986
 -85.8989
 -85.8777
 -85.8781
 -85.877
 -85.8777
 -85.8984
 -85.8975
 -85.8977
 -85.8978
 -85.8875
 -85.8883
 -85.8881
 -85.888
 -85.8845
 -85.8856
 -85.8849
 -85.8849
 -85.9076
 -85.9076
 -85.9084
 -85.9079
 -85.878
 -85.8787
 -85.8779
 -85.8787
 -85.8977
 -85.8978
 -85.8979
 -85.8984
 -85.9087
 -85.9089
 -85.9081
 -85.9082
 -85.8931
 -85.8923
 -85.8931
 -85.8925
 -85.8976
 -85.8965
 -85.897
 -85.8969
 -85.8915
 -85.8923
 -85.8917
 -85.8905
 -85.9116
 -85.9108
 -85.9114
 -85.9106
 -85.911
 -85.911
 -85.9107
 -85.9104
 -85.9104
 -85.9102
 -85.9101
 -85.9105
 -85.8894
 -85.8887
 -85.8894
 -85.8893
 -85.8955
 -85.8947
 -85.8949
 -85.8954
 -85.8899
 -85.8898
 -85.8893
 -85.8897
 -85.8886
 -85.8884
 -85.8895
 -85.8883
 -85.8994
 -85.8998
 -85.8999
 -85.8991
 -85.9045
 -85.9055
 -85.9052
 -85.9055
 -85.9042
 -85.9044
 -85.9037
 -85.9046
 -85.8927
 -85.8932
 -85.8925
 -85.893
 -85.891
 -85.8909
 -85.8907
 -85.8904
 -85.8837
 -85.8833
 -85.8835
 -85.8844
 -85.9013
 -85.902
 -85.9019
 -85.9011
 -85.8745
 -85.8745
 -85.8737
 -85.875
 -85.903
 -85.9035
 -85.9029
 -85.9028
 -85.8947
 -85.8959
 -85.8946
 -85.8956
 -85.894
 -85.8944
 -85.8941
 -85.8936
 -85.8783
 -85.8782
 -85.8777
 -85.877
 -85.8579
 -85.8585
 -85.8577
 -85.8578
 -85.8863
 -85.8871
 -85.8863
 -85.8866
 -85.903
 -85.9021
 -85.9025
 -85.903
 -85.8814
 -85.8808
 -85.8813
 -85.8817
 -85.8953
 -85.8956
 -85.8948
 -85.8958
 -85.8965
 -85.8971
 -85.8979
 -85.8976
 -85.901
 -85.9014
 -85.9004
 -85.9008
 -85.8729
 -85.8723
 -85.8723
 -85.8729
 -85.8736
 -85.8737
 -85.8733
 -85.8733
 -85.9029
 -85.904
 -85.9035
 -85.9035
 -85.8997
 -85.8986
 -85.8986
 -85.8993
 -85.8861
 -85.8862
 -85.8858
 -85.8858
 -85.8918
 -85.8915
 -85.8922
 -85.8926
 -85.8945
 -85.8949
 -85.8946
 -85.8944
 -85.8855
 -85.885
 -85.8861
 -85.8852
 -85.8978
 -85.8973
 -85.8974
 -85.8968
 -85.9136
 -85.913
 -85.9134
 -85.9135
 -85.896
 -85.8968
 -85.8968
 -85.8974
 -85.892
 -85.8923
 -85.8917
 -85.8928
 -85.892
 -85.8919
 -85.8912
 -85.892
 -85.8946
 -85.8951
 -85.8947
 -85.894
 -85.9096
 -85.9098
 -85.9092
 -85.9096
 -85.9047
 -85.9041
 -85.9045
 -85.8973
 -85.8973
 -85.8979
 -85.8972
 -85.8806
 -85.8804
 -85.8811
 -85.8804
 -85.8884
 -85.8885
 -85.8879
 -85.8887
 -85.9043
 -85.9033
 -85.9033
 -85.9033
 -85.8838
 -85.884
 -85.8842
 -85.8845
 -85.8872
 -85.8865
 -85.8865
 -85.8874
 -85.8883
 -85.8879
 -85.8869
 -85.8877
 -85.8991
 -85.8986
 -85.8984
 -85.8984
 -85.8947
 -85.894
 -85.8948
 -85.8933
 -85.8974
 -85.896
 -85.8965
 -85.8967
 -85.882
 -85.8822
 -85.8824
 -85.8821
 -85.8882
 -85.8888
 -85.889
 -85.8883
 -85.8985
 -85.8979
 -85.8986
 -85.899
 -85.8866
 -85.887
 -85.8874
 -85.8863
 -85.8959
 -85.8966
 -85.8966
 -85.8961
 -85.8816
 -85.8814
 -85.8818
 -85.8813
 -85.9087
 -85.9089
 -85.9082
 -85.9087
 -85.8833
 -85.8827
 -85.8835
 -85.8839
 -85.8821
 -85.8808
 -85.8816
 -85.8816
 -85.9003
 -85.9003
 -85.9009
 -85.9011
 -85.8834
 -85.8836
 -85.8838
 -85.8837
 -85.8968
 -85.8966
 -85.8969
 -85.8961
 -85.8775
 -85.8777
 -85.8766
 -85.8769
 -85.894
 -85.8937
 -85.8939
 -85.8945
 -85.9069
 -85.9078
 -85.907
 -85.9075
 -85.8944
 -85.8933
 -85.8932
 -85.8939
 -85.901
 -85.9014
 -85.901
 -85.901
 -85.8964
 -85.8961
 -85.8963
 -85.8968
 -85.8959
 -85.8963
 -85.8964
 -85.897
 -85.9095
 -85.9096
 -85.9099
 -85.9088
 -85.8819
 -85.8816
 -85.8812
 -85.8811
 -85.8825
 -85.8822
 -85.8815
 -85.8821
 -85.9055
 -85.9054
 -85.905
 -85.9059
 -85.9074
 -85.9078
 -85.9073
 -85.8853
 -85.885
 -85.885
 -85.8855
 -85.8977
 -85.8985
 -85.8977
 -85.8976
 -85.895
 -85.8953
 -85.8944
 -85.8954
 -85.8814
 -85.8822
 -85.8809
 -85.8815
 -85.9012
 -85.9018
 -85.9016
 -85.9016
 -85.8913
 -85.8903
 -85.8905
 -85.8912
 -85.8939
 -85.8931
 -85.8932
 -85.893
 -85.902
 -85.9026
 -85.9025
 -85.9024
 -85.8797
 -85.8794
 -85.8798
 -85.8801
 -85.8852
 -85.8842
 -85.8845
 -85.8844
 -85.9104
 -85.9097
 -85.9103
 -85.9101
 -85.8822
 -85.8821
 -85.8823
 -85.8832
 -85.8801
 -85.8798
 -85.8799
 -85.88
 -85.8918
 -85.892
 -85.8916
 -85.8927
 -85.8684
 -85.8687
 -85.868
 -85.8693
 -85.8932
 -85.8934
 -85.893
 -85.8934
 -85.9027
 -85.9024
 -85.9022
 -85.902
 -85.905
 -85.9045
 -85.9047
 -85.8781
 -85.8781
 -85.8785
 -85.8781
 -85.8836
 -85.8844
 -85.8833
 -85.8841
 -85.8817
 -85.8814
 -85.8809
 -85.8808
 -85.8848
 -85.8842
 -85.8846
 -85.8844
 -85.9107
 -85.911
 -85.9113
 -85.9111
 -85.8791
 -85.8792
 -85.8789
 -85.8783
 -85.8834
 -85.8828
 -85.8833
 -85.8842
 -85.9046
 -85.9052
 -85.9047
 -85.9044
 -85.8874
 -85.8873
 -85.8878
 -85.8841
 -85.8834
 -85.8841
 -85.8944
 -85.8941
 -85.8933
 -85.8697
 -85.8709
 -85.871
 -85.8701
 -85.8936
 -85.8942
 -85.8939
 -85.8945
 -85.8931
 -85.8936
 -85.8924
 -85.8926
 -85.9055
 -85.906
 -85.9053
 -85.9052
 -85.9077
 -85.9075
 -85.9085
 -85.9075
 -85.8809
 -85.8801
 -85.88
 -85.8815
 -85.895
 -85.8959
 -85.896
 -85.8956
 -85.8947
 -85.8954
 -85.8957
 -85.8955
 -85.8906
 -85.8917
 -85.8912
 -85.8919
 -85.8864
 -85.8867
 -85.8869
 -85.8857
 -85.8952
 -85.8943
 -85.895
 -85.8952
 -85.8821
 -85.8823
 -85.882
 -85.8825
 -85.9069
 -85.9067
 -85.907
 -85.9071
 -85.885
 -85.8848
 -85.8852
 -85.8857
 -85.9048
 -85.9041
 -85.9046
 -85.9045
 -85.9085
 -85.9082
 -85.9076
 -85.9083
 -85.9086
 -85.9084
 -85.9083
 -85.9081
 -85.8835
 -85.883
 -85.9004
 -85.9002
 -85.8997
 -85.9001
 -85.8817
 -85.8828
 -85.8823
 -85.8819
 -85.9022
 -85.9033
 -85.903
 -85.9032
 -85.9045
 -85.9042
 -85.905
 -85.9042
 -85.8853
 -85.886
 -85.886
 -85.8857
 -85.895
 -85.895
 -85.8956
 -85.8955
 -85.8848
 -85.8848
 -85.8854
 -85.8848
 -85.889
 -85.8889
 -85.8891
 -85.8898
 -85.8627
 -85.864
 -85.8623
 -85.8634
 -85.9065
 -85.9061
 -85.9071
 -85.9064
 -85.8852
 -85.8845
 -85.8854
 -85.886
 -85.8781
 -85.8775
 -85.8775
 -85.8783
 -85.8902
 -85.8897
 -85.8906
 -85.8907
 -85.8778
 -85.8766
 -85.8763
 -85.8778
 -85.8898
 -85.889
 -85.8886
 -85.8895
 -85.9001
 -85.8998
 -85.9006
 -85.8995
 -85.8912
 -85.8906
 -85.8906
 -85.8909
 -85.9057
 -85.9067
 -85.9058
 -85.8902
 -85.891
 -85.8901
 -85.8909
 -85.8625
 -85.8621
 -85.8621
 -85.8619
 -85.9112
 -85.9113
 -85.9115
 -85.9112
 -85.8947
 -85.8944
 -85.8949
 -85.8943
 -85.9025
 -85.9021
 -85.9014
 -85.9022
 -85.8808
 -85.8815
 -85.8797
 -85.8805
 -85.8862
 -85.8869
 -85.8857
 -85.8865
 -85.8863
 -85.8876
 -85.8868
 -85.8875
 -85.908
 -85.9076
 -85.9082
 -85.9086
 -85.8875
 -85.8869
 -85.8864
 -85.8867
 -85.9105
 -85.9103
 -85.9106
 -85.91
 -85.8994
 -85.8985
 -85.8986
 -85.8995
 -85.8822
 -85.8824
 -85.8826
 -85.8821
 -85.8679
 -85.8681
 -85.8689
 -85.8676
 -85.8891
 -85.888
 -85.8887
 -85.8877
 -85.8917
 -85.8917
 -85.8924
 -85.8916
 -85.9005
 -85.9005
 -85.9001
 -85.8995
 -85.8637
 -85.8626
 -85.864
 -85.8635
 -85.8894
 -85.8888
 -85.8898
 -85.8895
 -85.9098
 -85.9093
 -85.9091
 -85.9092
 -85.9039
 -85.9045
 -85.9042
 -85.904
 -85.9036
 -85.9037
 -85.9042
 -85.9034
 -85.9027
 -85.9021
 -85.9019
 -85.9022
 -85.9038
 -85.9048
 -85.9043
 -85.9042
 -85.8969
 -85.897
 -85.8969
 -85.897
 -85.8829
 -85.8844
 -85.8852
 -85.8853
 -85.8849
 -85.899
 -85.8982
 -85.8985
 -85.8983
 -85.8988
 -85.899
 -85.8979
 -85.8981
 -85.8759
 -85.8762
 -85.8762
 -85.8759
 -85.9062
 -85.9062
 -85.9058
 -85.9062
 -85.9022
 -85.9028
 -85.9037
 -85.9032
 -85.8821
 -85.8831
 -85.883
 -85.8831
 -85.8831
 -85.8829
 -85.8844
 -85.8849
 -85.8846
 -85.8852
 -85.8824
 -85.8816
 -85.8804
 -85.881
 -85.8986
 -85.8994
 -85.8992
 -85.8986
 -85.9104
 -85.9104
 -85.9102
 -85.9105
 -85.8922
 -85.8917
 -85.8922
 -85.8914
 -85.9079
 -85.9069
 -85.9064
 -85.9064
 -85.8897
 -85.8896
 -85.8892
 -85.89
 -85.8984
 -85.8978
 -85.8974
 -85.8974
 -85.8813
 -85.8811
 -85.881
 -85.8801
 -85.8953
 -85.8961
 -85.8949
 -85.8956
 -85.8966
 -85.8976
 -85.898
 -85.8968
 -85.8833
 -85.883
 -85.8824
 -85.8827
 -85.8873
 -85.8868
 -85.8882
 -85.8876
 -85.8899
 -85.8899
 -85.8892
 -85.8887
 -85.8953
 -85.8958
 -85.8954
 -85.8957
 -85.8754
 -85.8756
 -85.8759
 -85.8767
 -85.897
 -85.8962
 -85.8967
 -85.8972
 -85.8874
 -85.8864
 -85.8875
 -85.8881
 -85.9002
 -85.8999
 -85.9002
 -85.8996
 -85.9052
 -85.9046
 -85.9051
 -85.9048
 -85.9088
 -85.9085
 -85.9084
 -85.9086
 -85.9076
 -85.908
 -85.907
 -85.9111
 -85.9111
 -85.9115
 -85.9115
 -85.9035
 -85.9029
 -85.9021
 -85.9029
 -85.8914
 -85.8912
 -85.8918
 -85.8917
 -85.908
 -85.9076
 -85.9072
 -85.9079
 -85.8936
 -85.8938
 -85.8933
 -85.8931
 -85.8955
 -85.8959
 -85.8956
 -85.9081
 -85.9085
 -85.9083
 -85.9081
 -85.9067
 -85.9061
 -85.9063
 -85.8943
 -85.894
 -85.8948
 -85.895
 -85.887
 -85.8875
 -85.8869
 -85.8881
 -85.8995
 -85.8989
 -85.8987
 -85.8986
 -85.9083
 -85.9087
 -85.9085
 -85.9082
 -85.8837
 -85.8835
 -85.884
 -85.8832
 -85.8912
 -85.8911
 -85.8904
 -85.8904
 -85.8923
 -85.8934
 -85.8921
 -85.8924
 -85.9002
 -85.8994
 -85.9
 -85.9001
 -85.884
 -85.8834
 -85.8846
 -85.8836
 -85.8809
 -85.8803
 -85.8811
 -85.8807
 -85.8923
 -85.8924
 -85.8922
 -85.893
 -85.91
 -85.9096
 -85.9096
 -85.9097
 -85.8855
 -85.8846
 -85.8856
 -85.8852
 -85.8816
 -85.8823
 -85.8814
 -85.8823
 -85.8969
 -85.8959
 -85.897
 -85.8968
 -85.8846
 -85.8849
 -85.8844
 -85.8819
 -85.8824
 -85.8822
 -85.8958
 -85.8953
 -85.8964
 -85.8956
 -85.8821
 -85.8818
 -85.8813
 -85.8821
 -85.8825
 -85.8816
 -85.8823
 -85.8823
 -85.8971
 -85.8974
 -85.8969
 -85.8822
 -85.882
 -85.9048
 -85.905
 -85.906
 -85.9061
 -85.8994
 -85.9005
 -85.9006
 -85.9001
 -85.8753
 -85.8761
 -85.8747
 -85.8763
 -85.8699
 -85.87
 -85.8692
 -85.87
 -85.8844
 -85.883
 -85.8839
 -85.884
 -85.9072
 -85.9071
 -85.9075
 -85.9072
 -85.8983
 -85.8978
 -85.8974
 -85.8978
 -85.8796
 -85.8795
 -85.8794
 -85.8794
 -85.8849
 -85.885
 -85.8854
 -85.8861
 -85.8853
 -85.8854
 -85.8852
 -85.8833
 -85.8839
 -85.8839
 -85.8839
 -85.884
 -85.8834
 -85.8841
 -85.8843
 -85.8815
 -85.8808
 -85.8814
 -85.8807
 -85.9097
 -85.91
 -85.9098
 -85.9098
 -85.9078
 -85.9084
 -85.9076
 -85.8922
 -85.8917
 -85.8923
 -85.8913
 -85.8841
 -85.883
 -85.8842
 -85.8839
 -85.9113
 -85.9117
 -85.8818
 -85.8813
 -85.8814
 -85.8811
 -85.894
 -85.8955
 -85.8946
 -85.8951
 -85.8975
 -85.8972
 -85.8821
 -85.882
 -85.8828
 -85.8821
 -85.9085
 -85.9089
 -85.9083
 -85.9092
 -85.9106
 -85.9102
 -85.9103
 -85.911
 -85.8902
 -85.8905
 -85.8901
 -85.8751
 -85.8758
 -85.8754
 -85.8829
 -85.8839
 -85.8828
 -85.8831
 -85.9017
 -85.901
 -85.9022
 -85.901
 -85.8863
 -85.8855
 -85.8856
 -85.8849
 -85.8857
 -85.8852
 -85.886
 -85.885
 -85.8987
 -85.8985
 -85.899
 -85.8998
 -85.8642
 -85.8646
 -85.864
 -85.8633
 -85.9008
 -85.901
 -85.9016
 -85.9015
 -85.9015
 -85.9014
 -85.902
 -85.9023
 -85.8808
 -85.8809
 -85.8799
 -85.8806
 -85.9066
 -85.9069
 -85.907
 -85.9064
 -85.8626
 -85.8615
 -85.8617
 -85.861
 -85.9087
 -85.9076
 -85.9076
 -85.9075
 -85.9041
 -85.9036
 -85.8849
 -85.8855
 -85.8853
 -85.8859
 -85.8801
 -85.8794
 -85.8798
 -85.8804
 -85.9062
 -85.9068
 -85.9067
 -85.9065
 -85.8869
 -85.8872
 -85.8871
 -85.8866
 -85.9098
 -85.9094
 -85.9097
 -85.8844
 -85.8836
 -85.8833
 -85.8791
 -85.8799
 -85.8802
 -85.9089
 -85.9092
 -85.909
 -85.9088
 -85.8847
 -85.8843
 -85.8842
 -85.8843
 -85.9065
 -85.9066
 -85.8792
 -85.8797
 -85.8791
 -85.8794
 -85.8931
 -85.8939
 -85.894
 -85.8932
 -85.8857
 -85.8852
 -85.8886
 -85.8902
 -85.89
 -85.889
 -85.885
 -85.8849
 -85.885
 -85.8841
 -85.9103
 -85.9109
 -85.9101
 -85.9103
 -85.8805
 -85.8802
 -85.8803
 -85.9042
 -85.8631
 -85.863
 -85.8631
 -85.8626
 -85.906
 -85.9062
 -85.9065
 -85.9053
 -85.8857
 -85.8858
 -85.887
 -85.8867
 -85.9004
 -85.9001
 -85.9002
 -85.9003
 -85.8849
 -85.8843
 -85.884
 -85.8847
 -85.8985
 -85.8759
 -85.8757
 -85.8757
 -85.876
 -85.8983
 -85.8984
 -85.8981
 -85.8975
 -85.9036
 -85.904
 -85.9042
 -85.903
 -85.9036
 -85.9028
 -85.9038
 -85.9064
 -85.907
 -85.9067
 -85.9066
 -85.8808
 -85.8811
 -85.8819
 -85.8815
 -85.9054
 -85.9054
 -85.9053
 -85.906
 -85.8781
 -85.8779
 -85.8781
 -85.8772
 -85.9046
 -85.9051
 -85.9053
 -85.9053
 -85.8918
 -85.8913
 -85.8912
 -85.891
 -85.9002
 -85.9007
 -85.9009
 -85.9011
 -85.8943
 -85.8939
 -85.8936
 -85.8934
 -85.9087
 -85.9078
 -85.8942
 -85.8934
 -85.8935
 -85.8941
 -85.8758
 -85.8755
 -85.8765
 -85.8755
 -85.8776
 -85.8772
 -85.8786
 -85.8774
 -85.8943
 -85.895
 -85.8951
 -85.8951
 -85.9014
 -85.9014
 -85.9012
 -85.9022
 -85.9025
 -85.9019
 -85.9022
 -85.9027
 -85.908
 -85.9072
 -85.9075
 -85.907
 -85.9027
 -85.9036
 -85.9031
 -85.9027
 -85.8776
 -85.8777
 -85.8782
 -85.8771
 -85.8817
 -85.8817
 -85.8815
 -85.8828
 -85.9115
 -85.9112
 -85.911
 -85.9111
 -85.8957
 -85.8961
 -85.8959
 -85.897
 -85.8828
 -85.8838
 -85.8828
 -85.8836
 -85.8663
 -85.8661
 -85.8672
 -85.8658
 -85.9061
 -85.9065
 -85.9058
 -85.9071
 -85.8837
 -85.8838
 -85.884
 -85.8845
 -85.8889
 -85.8897
 -85.8885
 -85.8891
 -85.8778
 -85.8775
 -85.8777
 -85.8782
 -85.898
 -85.8976
 -85.898
 -85.898
 -85.9079
 -85.908
 -85.9078
 -85.908
 -85.8965
 -85.8954
 -85.8957
 -85.8955
 -85.8901
 -85.8902
 -85.8912
 -85.8907
 -85.8763
 -85.8767
 -85.8771
 -85.8758
 -85.9078
 -85.8993
 -85.8998
 -85.899
 -85.8997
 -85.8887
 -85.8884
 -85.8876
 -85.8879
 -85.9011
 -85.9016
 -85.9015
 -85.9021
 -85.8828
 -85.8823
 -85.8824
 -85.8833
 -85.8979
 -85.8983
 -85.8974
 -85.8755
 -85.8766
 -85.8757
 -85.8755
 -85.9043
 -85.9031
 -85.9039
 -85.9035
 -85.8808
 -85.8806
 -85.8811
 -85.8808
 -85.9128
 -85.9126
 -85.9127
 -85.913
 -85.8839
 -85.8839
 -85.8841
 -85.8839
 -85.869
 -85.871
 -85.8708
 -85.8701
 -85.8747
 -85.8746
 -85.8754
 -85.8752
 -85.9115
 -85.9112
 -85.9109
 -85.9108
 -85.9091
 -85.9089
 -85.9093
 -85.9094
 -85.8922
 -85.893
 -85.8927
 -85.893
 -85.8846
 -85.8844
 -85.885
 -85.8944
 -85.8945
 -85.8933
 -85.8938
 -85.8992
 -85.8988
 -85.8997
 -85.8997
 -85.8941
 -85.8956
 -85.8951
 -85.895
 -85.893
 -85.8933
 -85.8944
 -85.8938
 -85.9109
 -85.9104
 -85.9104
 -85.9102
 -85.8821
 -85.8819
 -85.8828
 -85.8821
 -85.8748
 -85.8734
 -85.8735
 -85.9012
 -85.9006
 -85.9009
 -85.9006
 -85.906
 -85.9066
 -85.9061
 -85.9059
 -85.8832
 -85.883
 -85.8834
 -85.8823
 -85.8825
 -85.8828
 -85.8818
 -85.907
 -85.9066
 -85.9072
 -85.9062
 -85.8911
 -85.891
 -85.8916
 -85.891
 -85.8825
 -85.8817
 -85.8823
 -85.8823
 -85.8888
 -85.8883
 -85.8884
 -85.8889
 -85.9044
 -85.9044
 -85.9038
 -85.9044
 -85.8829
 -85.884
 -85.8823
 -85.8837
 -85.8896
 -85.8883
 -85.8887
 -85.8891
 -85.8858
 -85.8865
 -85.8859
 -85.9092
 -85.9091
 -85.9087
 -85.9088
 -85.8913
 -85.8915
 -85.8908
 -85.8917
 -85.9115
 -85.9114
 -85.9121
 -85.8939
 -85.8943
 -85.8941
 -85.8938
 -85.8763
 -85.8771
 -85.8759
 -85.8763
 -85.8965
 -85.8967
 -85.8973
 -85.8979
 -85.8927
 -85.8937
 -85.8924
 -85.8836
 -85.8839
 -85.8846
 -85.884
 -85.8804
 -85.8806
 -85.8802
 -85.8808
 -85.8835
 -85.8839
 -85.8844
 -85.8834
 -85.8684
 -85.8685
 -85.8695
 -85.8696
 -85.8874
 -85.8871
 -85.8868
 -85.8867
 -85.8858
 -85.8855
 -85.8866
 -85.8853
 -85.9072
 -85.9064
 -85.9066
 -85.9076
 -85.8794
 -85.8804
 -85.8801
 -85.8798
 -85.8986
 -85.8983
 -85.8989
 -85.8991
 -85.9096
 -85.9097
 -85.9093
 -85.909
 -85.9098
 -85.9091
 -85.9095
 -85.9097
 -85.9038
 -85.9043
 -85.9038
 -85.9041
 -85.9103
 -85.9109
 -85.9109
 -85.9098
 -85.9076
 -85.9078
 -85.9077
 -85.9116
 -85.9107
 -85.911
 -85.9109
 -85.8778
 -85.8774
 -85.8778
 -85.8771
 -85.8886
 -85.8878
 -85.8875
 -85.8879
 -85.8859
 -85.8869
 -85.8863
 -85.887
 -85.8873
 -85.8869
 -85.8868
 -85.8866
 -85.9085
 -85.908
 -85.9084
 -85.9086
 -85.8886
 -85.8887
 -85.8879
 -85.8876
 -85.8836
 -85.8827
 -85.8828
 -85.8834
 -85.8997
 -85.8994
 -85.9003
 -85.8992
 -85.8843
 -85.8852
 -85.8842
 -85.8848
 -85.9016
 -85.901
 -85.9009
 -85.8942
 -85.8951
 -85.895
 -85.9066
 -85.9059
 -85.9062
 -85.9063
 -85.8888
 -85.8891
 -85.8885
 -85.8885
 -85.898
 -85.8974
 -85.8976
 -85.8982
 -85.887
 -85.8859
 -85.8865
 -85.8872
 -85.9117
 -85.9114
 -85.9098
 -85.9095
 -85.9093
 -85.9099
 -85.8768
 -85.8765
 -85.8766
 -85.8761
 -85.8984
 -85.8991
 -85.8992
 -85.8997
 -85.8835
 -85.8844
 -85.8837
 -85.8831
 -85.8596
 -85.8581
 -85.8594
 -85.8589
 -85.8843
 -85.884
 -85.8835
 -85.8839
 -85.9012
 -85.9004
 -85.9011
 -85.8796
 -85.8794
 -85.8804
 -85.8804
 -85.9093
 -85.9087
 -85.9094
 -85.9089
 -85.8844
 -85.8848
 -85.8845
 -85.8848
 -85.8979
 -85.8987
 -85.8983
 -85.898
 -85.8767
 -85.8771
 -85.8762
 -85.8768
 -85.8657
 -85.8656
 -85.8662
 -85.8664
 -85.8829
 -85.8835
 -85.8828
 -85.8827
 -85.8878
 -85.8875
 -85.8881
 -85.8951
 -85.8939
 -85.8952
 -85.8947
 -85.881
 -85.881
 -85.8801
 -85.9016
 -85.9014
 -85.9018
 -85.9023
 -85.9038
 -85.9049
 -85.9039
 -85.9048
 -85.9005
 -85.8998
 -85.9004
 -85.9005
 -85.9088
 -85.9075
 -85.908
 -85.9082
 -85.9032
 -85.9026
 -85.903
 -85.8855
 -85.886
 -85.8859
 -85.8863
 -85.9023
 -85.9016
 -85.8994
 -85.8986
 -85.8983
 -85.8991
 -85.9011
 -85.9008
 -85.9009
 -85.9014
 -85.8831
 -85.8835
 -85.8832
 -85.8825
 -85.8837
 -85.8843
 -85.8837
 -85.8843
 -85.86
 -85.8605
 -85.8607
 -85.8603
 -85.8837
 -85.8842
 -85.8837
 -85.8857
 -85.8853
 -85.8852
 -85.8855
 -85.8923
 -85.8923
 -85.8919
 -85.8917
 -85.8858
 -85.8866
 -85.8867
 -85.8861
 -85.8769
 -85.8774
 -85.8768
 -85.8767
 -85.904
 -85.9031
 -85.9039
 -85.9032
 -85.8919
 -85.8925
 -85.8918
 -85.8914
 -85.9086
 -85.9086
 -85.9084
 -85.9087
 -85.8959
 -85.8951
 -85.8958
 -85.8954
 -85.908
 -85.9083
 -85.9081
 -85.8673
 -85.8682
 -85.8679
 -85.868
 -85.9007
 -85.9017
 -85.9008
 -85.9009
 -85.8899
 -85.8892
 -85.89
 -85.8896
 -85.8818
 -85.8813
 -85.8867
 -85.8868
 -85.8872
 -85.887
 -85.8895
 -85.8886
 -85.8888
 -85.907
 -85.9072
 -85.9067
 -85.9071
 -85.9072
 -85.9068
 -85.9063
 -85.9066
 -85.882
 -85.8817
 -85.8821
 -85.8818
 -85.8913
 -85.8909
 -85.8845
 -85.8853
 -85.8848
 -85.884
 -85.9025
 -85.902
 -85.903
 -85.9031
 -85.8761
 -85.876
 -85.876
 -85.8763
 -85.8828
 -85.8831
 -85.8825
 -85.8824
 -85.8843
 -85.8851
 -85.8855
 -85.8851
 -85.8937
 -85.8936
 -85.8937
 -85.8948
 -85.9018
 -85.9016
 -85.9012
 -85.9012
 -85.9031
 -85.9025
 -85.9019
 -85.9026
 -85.8633
 -85.8632
 -85.863
 -85.8626
 -85.8798
 -85.8805
 -85.8808
 -85.8952
 -85.8939
 -85.8947
 -85.8961
 -85.8969
 -85.8961
 -85.8969
 -85.9081
 -85.9085
 -85.9082
 -85.9087
 -85.8911
 -85.8839
 -85.8839
 -85.883
 -85.8833
 -85.8986
 -85.8981
 -85.8974
 -85.8978
 -85.9036
 -85.9029
 -85.903
 -85.9038
 -85.9061
 -85.9062
 -85.882
 -85.8817
 -85.8814
 -85.8813
 -85.8927
 -85.8933
 -85.893
 -85.8935
 -85.88
 -85.8797
 -85.8799
 -85.8802
 -85.8964
 -85.8876
 -85.8871
 -85.8884
 -85.8888
 -85.8861
 -85.8867
 -85.887
 -85.8865
 -85.9084
 -85.9076
 -85.9095
 -85.9098
 -85.9099
 -85.9096
 -85.8715
 -85.871
 -85.8712
 -85.8716
 -85.9028
 -85.903
 -85.9021
 -85.9033
 -85.8964
 -85.8955
 -85.8958
 -85.8966
 -85.865
 -85.8653
 -85.8653
 -85.8647
 -85.8923
 -85.8924
 -85.8928
 -85.8919
 -85.8918
 -85.8909
 -85.8904
 -85.8906
 -85.8813
 -85.8804
 -85.8814
 -85.881
 -85.9113
 -85.9116
 -85.9117
 -85.9117
 -85.8908
 -85.8899
 -85.8901
 -85.885
 -85.8859
 -85.8859
 -85.8851
 -85.91
 -85.9108
 -85.9103
 -85.9104
 -85.8851
 -85.8846
 -85.8839
 -85.8854
 -85.8896
 -85.8902
 -85.9047
 -85.9048
 -85.9053
 -85.9041
 -85.8951
 -85.8951
 -85.8961
 -85.8959
 -85.9091
 -85.9087
 -85.9092
 -85.909
 -85.8905
 -85.8917
 -85.8832
 -85.8834
 -85.8837
 -85.8836
 -85.8852
 -85.8852
 -85.8856
 -85.8859
 -85.9056
 -85.9056
 -85.9048
 -85.905
 -85.9036
 -85.9033
 -85.9039
 -85.9039
 -85.9025
 -85.9015
 -85.9024
 -85.902
 -85.8858
 -85.8868
 -85.8864
 -85.8858
 -85.8716
 -85.871
 -85.8714
 -85.8715
 -85.91
 -85.9106
 -85.91
 -85.9103
 -85.8809
 -85.8811
 -85.8811
 -85.8817
 -85.8944
 -85.8949
 -85.8952
 -85.8944
 -85.8869
 -85.8883
 -85.8873
 -85.8878
 -85.8942
 -85.8933
 -85.8941
 -85.8979
 -85.8988
 -85.8979
 -85.8988
 -85.8924
 -85.893
 -85.8926
 -85.892
 -85.9008
 -85.901
 -85.9016
 -85.9006
 -85.9006
 -85.9005
 -85.9008
 -85.8997
 -85.8648
 -85.8662
 -85.8649
 -85.8768
 -85.8778
 -85.8781
 -85.8777
 -85.8941
 -85.8935
 -85.8937
 -85.8937
 -85.905
 -85.9056
 -85.9052
 -85.9058
 -85.8835
 -85.8825
 -85.8834
 -85.8847
 -85.8851
 -85.8851
 -85.8969
 -85.8966
 -85.8971
 -85.8972
 -85.8939
 -85.8945
 -85.8948
 -85.8949
 -85.9133
 -85.9132
 -85.913
 -85.9133
 -85.8747
 -85.875
 -85.8744
 -85.8733
 -85.902
 -85.9023
 -85.8881
 -85.8891
 -85.889
 -85.8883
 -85.9001
 -85.9006
 -85.9005
 -85.9007
 -85.8958
 -85.896
 -85.8966
 -85.8961
 -85.8893
 -85.8892
 -85.89
 -85.8886
 -85.8993
 -85.9
 -85.8997
 -85.8999
 -85.882
 -85.8823
 -85.8823
 -85.8828
 -85.8792
 -85.8786
 -85.8793
 -85.879
 -85.9042
 -85.9044
 -85.9052
 -85.9059
 -85.8939
 -85.8943
 -85.8949
 -85.8696
 -85.8694
 -85.87
 -85.9059
 -85.9064
 -85.9065
 -85.9067
 -85.9071
 -85.9068
 -85.9065
 -85.9064
 -85.8924
 -85.8926
 -85.8929
 -85.8932
 -85.9082
 -85.9087
 -85.9086
 -85.9086
 -85.9089
 -85.9096
 -85.909
 -85.9097
 -85.8892
 -85.8896
 -85.8903
 -85.8895
 -85.903
 -85.9034
 -85.9037
 -85.9036
 -85.913
 -85.9131
 -85.9128
 -85.9132
 -85.903
 -85.9029
 -85.9025
 -85.9035
 -85.8946
 -85.8937
 -85.8941
 -85.8932
 -85.9054
 -85.9056
 -85.9051
 -85.9049
 -85.9006
 -85.9004
 -85.901
 -85.8971
 -85.8978
 -85.8723
 -85.8726
 -85.8721
 -85.8719
 -85.8966
 -85.8974
 -85.8971
 -85.8971
 -85.8729
 -85.8732
 -85.8733
 -85.8734
 -85.8729
 -85.8726
 -85.8738
 -85.8738
 -85.8952
 -85.8957
 -85.8957
 -85.895
 -85.888
 -85.8881
 -85.8874
 -85.8883
 -85.898
 -85.8989
 -85.8986
 -85.8986
 -85.8933
 -85.8927
 -85.8782
 -85.8778
 -85.878
 -85.8785
 -85.91
 -85.9103
 -85.9105
 -85.9102
 -85.8883
 -85.8878
 -85.8891
 -85.8885
 -85.9052
 -85.9049
 -85.9045
 -85.905
 -85.8782
 -85.8775
 -85.8782
 -85.8778
 -85.9074
 -85.9081
 -85.9079
 -85.908
 -85.8968
 -85.8959
 -85.8967
 -85.8967
 -85.8839
 -85.883
 -85.8823
 -85.8828
 -85.9128
 -85.9127
 -85.9127
 -85.9124
 -85.8862
 -85.887
 -85.8864
 -85.8863
 -85.8892
 -85.8881
 -85.8889
 -85.8882
 -85.9105
 -85.9106
 -85.9101
 -85.9108
 -85.8924
 -85.8912
 -85.8916
 -85.8916
 -85.9058
 -85.9062
 -85.9059
 -85.9057
 -85.905
 -85.9045
 -85.9047
 -85.8899
 -85.8886
 -85.889
 -85.8891
 -85.9051
 -85.9057
 -85.9053
 -85.9055
 -85.8815
 -85.8822
 -85.8821
 -85.8814
 -85.9069
 -85.9073
 -85.9073
 -85.9071
 -85.9066
 -85.9063
 -85.9067
 -85.9065
 -85.8825
 -85.8823
 -85.8836
 -85.8829
 -85.8834
 -85.8832
 -85.8839
 -85.8829
 -85.8562
 -85.8564
 -85.8557
 -85.856
 -85.9023
 -85.9015
 -85.9016
 -85.8731
 -85.8742
 -85.8744
 -85.8737
 -85.9093
 -85.9088
 -85.909
 -85.909
 -85.8819
 -85.9056
 -85.9049
 -85.905
 -85.9055
 -85.9057
 -85.905
 -85.9051
 -85.8629
 -85.8621
 -85.8625
 -85.8628
 -85.8612
 -85.8614
 -85.8612
 -85.8609
 -85.9088
 -85.9082
 -85.9087
 -85.9091
 -85.8834
 -85.883
 -85.8837
 -85.8829
 -85.9004
 -85.9001
 -85.9008
 -85.8868
 -85.8862
 -85.8868
 -85.8858
 -85.89
 -85.89
 -85.8899
 -85.9053
 -85.9051
 -85.906
 -85.8965
 -85.8972
 -85.8972
 -85.8966
 -85.8872
 -85.8863
 -85.8863
 -85.887
 -85.8828
 -85.8831
 -85.8827
 -85.883
 -85.9004
 -85.9009
 -85.901
 -85.8772
 -85.8778
 -85.8765
 -85.8764
 -85.8828
 -85.8842
 -85.8831
 -85.889
 -85.8904
 -85.89
 -85.8896
 -85.8809
 -85.8816
 -85.8817
 -85.8814
 -85.8829
 -85.8838
 -85.884
 -85.8837
 -85.9057
 -85.9052
 -85.9053
 -85.9052
 -85.891
 -85.8903
 -85.8907
 -85.8912
 -85.8851
 -85.8852
 -85.8944
 -85.894
 -85.8942
 -85.8934
 -85.9077
 -85.9095
 -85.9098
 -85.9097
 -85.9096
 -85.855
 -85.8548
 -85.8547
 -85.855
 -85.904
 -85.9048
 -85.9043
 -85.9115
 -85.9114
 -85.9112
 -85.9114
 -85.9026
 -85.9016
 -85.902
 -85.9018
 -85.8824
 -85.8827
 -85.8831
 -85.8825
 -85.8903
 -85.8897
 -85.8895
 -85.8893
 -85.9119
 -85.9119
 -85.9118
 -85.9116
 -85.9023
 -85.9017
 -85.9013
 -85.9018
 -85.8767
 -85.8761
 -85.876
 -85.8772
 -85.8891
 -85.8892
 -85.8894
 -85.8881
 -85.8883
 -85.8887
 -85.8891
 -85.8884
 -85.8549
 -85.8548
 -85.8548
 -85.855
 -85.8814
 -85.8813
 -85.8811
 -85.8817
 -85.9026
 -85.9035
 -85.9027
 -85.903
 -85.897
 -85.897
 -85.8978
 -85.8968
 -85.8912
 -85.8917
 -85.8924
 -85.8916
 -85.9012
 -85.902
 -85.9016
 -85.9017
 -85.8972
 -85.8973
 -85.898
 -85.8971
 -85.9015
 -85.9013
 -85.9009
 -85.9022
 -85.9128
 -85.9122
 -85.9124
 -85.9129
 -85.9038
 -85.9033
 -85.9032
 -85.9022
 -85.9007
 -85.9001
 -85.8998
 -85.9006
 -85.8998
 -85.8944
 -85.8944
 -85.8938
 -85.8952
 -85.9098
 -85.9096
 -85.9095
 -85.9094
 -85.891
 -85.8904
 -85.8912
 -85.8909
 -85.8966
 -85.897
 -85.8973
 -85.8961
 -85.8931
 -85.8922
 -85.8928
 -85.8935
 -85.887
 -85.8858
 -85.8868
 -85.886
 -85.8676
 -85.868
 -85.8692
 -85.8676
 -85.9132
 -85.9127
 -85.8992
 -85.8988
 -85.8987
 -85.8581
 -85.8581
 -85.8581
 -85.8842
 -85.8836
 -85.8839
 -85.8833
 -85.8726
 -85.8728
 -85.8714
 -85.8713
 -85.8798
 -85.8794
 -85.88
 -85.8788
 -85.9097
 -85.9088
 -85.9092
 -85.9092
 -85.8948
 -85.8939
 -85.8942
 -85.8938
 -85.9001
 -85.901
 -85.9009
 -85.9016
 -85.8972
 -85.8972
 -85.8964
 -85.8961
 -85.9017
 -85.902
 -85.9014
 -85.9016
 -85.8919
 -85.8918
 -85.9054
 -85.9039
 -85.9054
 -85.9042
 -85.9018
 -85.9013
 -85.9009
 -85.9022
 -85.8839
 -85.8831
 -85.8841
 -85.8832
 -85.8841
 -85.8844
 -85.8844
 -85.8845
 -85.8962
 -85.8963
 -85.896
 -85.8966
 -85.8949
 -85.8952
 -85.8958
 -85.8963
 -85.8801
 -85.879
 -85.8788
 -85.8801
 -85.9009
 -85.9005
 -85.9002
 -85.9
 -85.9123
 -85.912
 -85.9122
 -85.9121
 -85.9064
 -85.906
 -85.9061
 -85.9058
 -85.9129
 -85.9131
 -85.9128
 -85.9132
 -85.9073
 -85.9079
 -85.9077
 -85.9078
 -85.8941
 -85.8951
 -85.8941
 -85.8943
 -85.9007
 -85.9001
 -85.8924
 -85.8933
 -85.8921
 -85.8928
 -85.8841
 -85.8847
 -85.8847
 -85.8849
 -85.9036
 -85.9044
 -85.9044
 -85.9037
 -85.892
 -85.8917
 -85.8921
 -85.8912
 -85.8893
 -85.8887
 -85.8885
 -85.8889
 -85.8825
 -85.8827
 -85.8831
 -85.8835
 -85.8852
 -85.885
 -85.8847
 -85.8859
 -85.8825
 -85.8829
 -85.8832
 -85.8827
 -85.869
 -85.8693
 -85.8687
 -85.8688
 -85.9028
 -85.9031
 -85.9022
 -85.9029
 -85.8996
 -85.8999
 -85.8704
 -85.871
 -85.8709
 -85.8698
 -85.8866
 -85.8868
 -85.8988
 -85.8983
 -85.8989
 -85.9064
 -85.9064
 -85.8813
 -85.8812
 -85.8809
 -85.8817
 -85.8702
 -85.8708
 -85.8708
 -85.871
 -85.8794
 -85.8798
 -85.8803
 -85.8805
 -85.8864
 -85.8869
 -85.8871
 -85.8873
 -85.8974
 -85.8965
 -85.8964
 -85.8965
 -85.8997
 -85.8993
 -85.8993
 -85.8991
 -85.8861
 -85.887
 -85.8869
 -85.8868
 -85.8967
 -85.8966
 -85.897
 -85.8958
 -85.8935
 -85.8929
 -85.8928
 -85.8932
 -85.8949
 -85.8955
 -85.8959
 -85.8955
 -85.8954
 -85.8945
 -85.8956
 -85.8922
 -85.8917
 -85.8929
 -85.8924
 -85.8877
 -85.8881
 -85.8871
 -85.8875
 -85.8833
 -85.884
 -85.8829
 -85.8838
 -85.9095
 -85.9094
 -85.9097
 -85.91
 -85.8908
 -85.8907
 -85.8915
 -85.8915
 -85.879
 -85.8789
 -85.878
 -85.8788
 -85.8768
 -85.8768
 -85.8766
 -85.8763
 -85.8803
 -85.8799
 -85.8799
 -85.8802
 -85.8824
 -85.8824
 -85.8832
 -85.8834
 -85.8831
 -85.8827
 -85.8825
 -85.8828
 -85.9088
 -85.9091
 -85.9091
 -85.9092
 -85.8896
 -85.8896
 -85.8894
 -85.8902
 -85.9023
 -85.9027
 -85.9022
 -85.9019
 -85.8832
 -85.8841
 -85.8829
 -85.8837
 -85.9101
 -85.9104
 -85.9103
 -85.9108
 -85.9109
 -85.9109
 -85.9112
 -85.9013
 -85.8998
 -85.9002
 -85.9004
 -85.8849
 -85.8853
 -85.8844
 -85.885
 -85.9121
 -85.9116
 -85.9117
 -85.8888
 -85.8881
 -85.8886
 -85.8874
 -85.9072
 -85.9074
 -85.9062
 -85.9065
 -85.9071
 -85.9063
 -85.8874
 -85.8868
 -85.8871
 -85.8771
 -85.8774
 -85.8764
 -85.8768
 -85.8828
 -85.8822
 -85.8831
 -85.8831
 -85.8935
 -85.8944
 -85.8934
 -85.9101
 -85.9092
 -85.9093
 -85.9016
 -85.9009
 -85.9005
 -85.901
 -85.9104
 -85.9104
 -85.9096
 -85.911
 -85.8899
 -85.8907
 -85.8911
 -85.8905
 -85.9071
 -85.9072
 -85.9076
 -85.9066
 -85.8939
 -85.8941
 -85.8935
 -85.8932
 -85.8855
 -85.8848
 -85.8852
 -85.9116
 -85.9111
 -85.9114
 -85.912
 -85.8998
 -85.8969
 -85.8978
 -85.8976
 -85.8971
 -85.8978
 -85.8978
 -85.8972
 -85.8848
 -85.8844
 -85.8844
 -85.8844
 -85.8843
 -85.8853
 -85.8905
 -85.8896
 -85.8895
 -85.8892
 -85.8894
 -85.8903
 -85.8896
 -85.8901
 -85.9011
 -85.9123
 -85.9116
 -85.9114
 -85.912
 -85.8649
 -85.8638
 -85.8646
 -85.8646
 -85.887
 -85.8864
 -85.885
 -85.8847
 -85.885
 -85.8852
 -85.8843
 -85.8844
 -85.8834
 -85.8838
 -85.9022
 -85.9013
 -85.9016
 -85.9019
 -85.9029
 -85.9034
 -85.9024
 -85.903
 -85.8854
 -85.8847
 -85.9002
 -85.9002
 -85.9012
 -85.9006
 -85.9011
 -85.9018
 -85.9011
 -85.8958
 -85.8953
 -85.8949
 -85.8946
 -85.8909
 -85.8902
 -85.8908
 -85.8902
 -85.9024
 -85.9034
 -85.9032
 -85.9026
 -85.9049
 -85.9051
 -85.9055
 -85.9049
 -85.9034
 -85.9042
 -85.9035
 -85.9029
 -85.9031
 -85.903
 -85.9023
 -85.8904
 -85.8906
 -85.8906
 -85.89
 -85.8745
 -85.8744
 -85.8749
 -85.875
 -85.8881
 -85.8879
 -85.8875
 -85.8877
 -85.9047
 -85.904
 -85.9036
 -85.9043
 -85.9
 -85.8998
 -85.8997
 -85.9005
 -85.8879
 -85.8884
 -85.8887
 -85.8888
 -85.9001
 -85.8993
 -85.8998
 -85.9
 -85.8954
 -85.8957
 -85.8944
 -85.8956
 -85.8958
 -85.8966
 -85.8963
 -85.8965
 -85.8999
 -85.9003
 -85.9003
 -85.9095
 -85.9096
 -85.9093
 -85.9094
 -85.8877
 -85.8885
 -85.8881
 -85.8883
 -85.8928
 -85.8936
 -85.8935
 -85.8932
 -85.8745
 -85.8739
 -85.874
 -85.8748
 -85.8824
 -85.8829
 -85.8829
 -85.8824
 -85.8835
 -85.8822
 -85.8828
 -85.8821
 -85.8823
 -85.8827
 -85.8826
 -85.8829
 -85.8951
 -85.8946
 -85.8948
 -85.8796
 -85.8794
 -85.8798
 -85.8799
 -85.8808
 -85.8811
 -85.8817
 -85.8807
 -85.9116
 -85.9112
 -85.9111
 -85.9113
 -85.8957
 -85.8952
 -85.895
 -85.8946
 -85.9054
 -85.9055
 -85.9051
 -85.9047
 -85.8972
 -85.8976
 -85.897
 -85.8965
 -85.8997
 -85.9003
 -85.8997
 -85.8999
 -85.8845
 -85.8838
 -85.8842
 -85.8831
 -85.8927
 -85.8943
 -85.8932
 -85.8933
 -85.9051
 -85.9055
 -85.9048
 -85.905
 -85.8979
 -85.8976
 -85.8986
 -85.8983
 -85.8812
 -85.8809
 -85.8819
 -85.8821
 -85.9094
 -85.9097
 -85.9095
 -85.9097
 -85.8882
 -85.8875
 -85.8806
 -85.893
 -85.8934
 -85.8938
 -85.8927
 -85.8908
 -85.8914
 -85.8905
 -85.8905
 -85.8716
 -85.8714
 -85.8725
 -85.887
 -85.8863
 -85.8861
 -85.8856
 -85.8973
 -85.8986
 -85.8981
 -85.8987
 -85.8937
 -85.8944
 -85.8939
 -85.8937
 -85.9081
 -85.9084
 -85.9085
 -85.9083
 -85.883
 -85.8841
 -85.8833
 -85.884
 -85.8839
 -85.8838
 -85.8848
 -85.8724
 -85.8712
 -85.8718
 -85.8724
 -85.8826
 -85.8834
 -85.8829
 -85.8967
 -85.8983
 -85.8969
 -85.8823
 -85.8823
 -85.8817
 -85.882
 -85.8908
 -85.8916
 -85.8918
 -85.8917
 -85.8551
 -85.8551
 -85.855
 -85.8555
 -85.8901
 -85.8897
 -85.8899
 -85.8788
 -85.8787
 -85.8789
 -85.8789
 -85.8899
 -85.8895
 -85.8887
 -85.8894
 -85.8818
 -85.8824
 -85.8823
 -85.8827
 -85.9004
 -85.9007
 -85.9002
 -85.9009
 -85.9025
 -85.902
 -85.9025
 -85.9028
 -85.9109
 -85.9109
 -85.9111
 -85.9106
 -85.8961
 -85.8951
 -85.896
 -85.8962
 -85.8814
 -85.8807
 -85.8813
 -85.881
 -85.8849
 -85.8845
 -85.8759
 -85.8759
 -85.8764
 -85.8763
 -85.8917
 -85.8921
 -85.887
 -85.8882
 -85.8879
 -85.884
 -85.8844
 -85.8848
 -85.8843
 -85.9092
 -85.9093
 -85.9085
 -85.9086
 -85.9086
 -85.9084
 -85.9081
 -85.9084
 -85.8845
 -85.8848
 -85.8843
 -85.8836
 -85.8795
 -85.8797
 -85.8974
 -85.8975
 -85.8973
 -85.8981
 -85.8836
 -85.8833
 -85.884
 -85.884
 -85.8881
 -85.8871
 -85.8889
 -85.913
 -85.9132
 -85.9128
 -85.8937
 -85.8947
 -85.8942
 -85.8943
 -85.9067
 -85.9074
 -85.9065
 -85.9063
 -85.8949
 -85.8956
 -85.8958
 -85.8949
 -85.9022
 -85.9028
 -85.9029
 -85.9018
 -85.8812
 -85.8818
 -85.8814
 -85.8811
 -85.883
 -85.8841
 -85.8827
 -85.8838
 -85.8953
 -85.8945
 -85.8959
 -85.8949
 -85.8873
 -85.8883
 -85.8886
 -85.8873
 -85.8807
 -85.881
 -85.8813
 -85.882
 -85.8909
 -85.8914
 -85.8918
 -85.8923
 -85.8991
 -85.8992
 -85.8987
 -85.8947
 -85.8955
 -85.895
 -85.8955
 -85.8594
 -85.8604
 -85.8607
 -85.8602
 -85.8797
 -85.8796
 -85.8798
 -85.8797
 -85.8869
 -85.8867
 -85.8869
 -85.8877
 -85.8697
 -85.8704
 -85.8692
 -85.87
 -85.9065
 -85.9064
 -85.906
 -85.9113
 -85.911
 -85.9107
 -85.9109
 -85.9034
 -85.9046
 -85.904
 -85.9041
 -85.8945
 -85.8991
 -85.8999
 -85.9003
 -85.8997
 -85.8928
 -85.8934
 -85.8924
 -85.8924
 -85.879
 -85.878
 -85.8786
 -85.8837
 -85.8841
 -85.8843
 -85.8831
 -85.8599
 -85.859
 -85.8599
 -85.8586
 -85.8717
 -85.8717
 -85.8721
 -85.8716
 -85.8863
 -85.8863
 -85.8868
 -85.8874
 -85.9119
 -85.9113
 -85.9115
 -85.9113
 -85.8623
 -85.8622
 -85.8632
 -85.8628
 -85.9014
 -85.9019
 -85.9009
 -85.9015
 -85.8948
 -85.8949
 -85.8956
 -85.8949
 -85.8846
 -85.8831
 -85.8831
 -85.8916
 -85.8907
 -85.8905
 -85.8905
 -85.9114
 -85.9115
 -85.9117
 -85.8796
 -85.8811
 -85.8813
 -85.8904
 -85.8909
 -85.8918
 -85.8916
 -85.8866
 -85.8864
 -85.8862
 -85.8859
 -85.8875
 -85.8874
 -85.8883
 -85.8885
 -85.8787
 -85.8782
 -85.8782
 -85.8791
 -85.8917
 -85.8923
 -85.8914
 -85.8924
 -85.9094
 -85.9084
 -85.9085
 -85.908
 -85.9079
 -85.9078
 -85.9075
 -85.9082
 -85.8773
 -85.8774
 -85.8775
 -85.8772
 -85.906
 -85.9061
 -85.9061
 -85.9054
 -85.9087
 -85.9094
 -85.9092
 -85.9085
 -85.9056
 -85.9056
 -85.9048
 -85.905
 -85.8992
 -85.899
 -85.8996
 -85.8993
 -85.8934
 -85.8928
 -85.8938
 -85.8864
 -85.8852
 -85.8856
 -85.8858
 -85.9029
 -85.9024
 -85.9018
 -85.9026
 -85.9038
 -85.9039
 -85.9044
 -85.9042
 -85.9134
 -85.9133
 -85.9128
 -85.913
 -85.8718
 -85.8724
 -85.8722
 -85.8723
 -85.8763
 -85.8759
 -85.876
 -85.8764
 -85.8789
 -85.8787
 -85.8798
 -85.8787
 -85.8869
 -85.8858
 -85.8866
 -85.8865
 -85.8884
 -85.8885
 -85.8885
 -85.9091
 -85.9096
 -85.9102
 -85.9098
 -85.9046
 -85.9043
 -85.9039
 -85.9038
 -85.8924
 -85.8918
 -85.8916
 -85.8921
 -85.9083
 -85.9087
 -85.8972
 -85.8973
 -85.8972
 -85.8965
 -85.9081
 -85.9084
 -85.9089
 -85.9084
 -85.8957
 -85.8967
 -85.8955
 -85.8969
 -85.8861
 -85.8868
 -85.8854
 -85.886
 -85.8755
 -85.8748
 -85.8755
 -85.8762
 -85.8589
 -85.8598
 -85.8585
 -85.8594
 -85.907
 -85.9066
 -85.9065
 -85.9071
 -85.9081
 -85.9082
 -85.9083
 -85.9087
 -85.8898
 -85.8887
 -85.8895
 -85.889
 -85.8943
 -85.8939
 -85.8938
 -85.8944
 -85.8832
 -85.8824
 -85.8837
 -85.8977
 -85.8972
 -85.8972
 -85.8968
 -85.8833
 -85.8832
 -85.8837
 -85.8838
 -85.8931
 -85.8922
 -85.8916
 -85.8921
 -85.8996
 -85.8992
 -85.8995
 -85.8997
 -85.8949
 -85.8947
 -85.8943
 -85.9059
 -85.9052
 -85.9055
 -85.9055
 -85.8984
 -85.8993
 -85.8686
 -85.8698
 -85.8683
 -85.869
 -85.9029
 -85.9025
 -85.9028
 -85.8845
 -85.8847
 -85.8848
 -85.8844
 -85.8984
 -85.8984
 -85.8981
 -85.8928
 -85.892
 -85.893
 -85.8924
 -85.8979
 -85.8969
 -85.8983
 -85.8976
 -85.8983
 -85.8992
 -85.864
 -85.8639
 -85.8634
 -85.8639
 -85.8601
 -85.8593
 -85.8587
 -85.8596
 -85.8937
 -85.8927
 -85.8931
 -85.8927
 -85.8976
 -85.8971
 -85.8975
 -85.8969
 -85.8643
 -85.8642
 -85.8643
 -85.865
 -85.8843
 -85.8834
 -85.8779
 -85.8782
 -85.8784
 -85.8791
 -85.8987
 -85.8985
 -85.8996
 -85.899
 -85.897
 -85.8972
 -85.8979
 -85.8967
 -85.8979
 -85.8971
 -85.897
 -85.897
 -85.8867
 -85.8869
 -85.8874
 -85.8867
 -85.8812
 -85.8808
 -85.8801
 -85.8813
 -85.8728
 -85.8738
 -85.8737
 -85.8728
 -85.8818
 -85.8818
 -85.8818
 -85.8831
 -85.903
 -85.9024
 -85.9032
 -85.9028
 -85.8937
 -85.8918
 -85.8928
 -85.8707
 -85.8714
 -85.872
 -85.9003
 -85.9014
 -85.9009
 -85.9008
 -85.9009
 -85.8997
 -85.9003
 -85.9007
 -85.8899
 -85.8894
 -85.8891
 -85.8913
 -85.8916
 -85.8924
 -85.8916
 -85.8816
 -85.8812
 -85.8811
 -85.881
 -85.9056
 -85.9054
 -85.9059
 -85.9057
 -85.8802
 -85.88
 -85.8801
 -85.8804
 -85.879
 -85.8786
 -85.879
 -85.9109
 -85.9116
 -85.912
 -85.9115
 -85.9052
 -85.9056
 -85.8855
 -85.885
 -85.8858
 -85.8857
 -85.893
 -85.894
 -85.8931
 -85.8914
 -85.8911
 -85.8912
 -85.8903
 -85.8806
 -85.8813
 -85.8809
 -85.905
 -85.9055
 -85.9046
 -85.9048
 -85.8803
 -85.8815
 -85.8807
 -85.8805
 -85.9017
 -85.901
 -85.9006
 -85.9009
 -85.8805
 -85.8808
 -85.8815
 -85.8806
 -85.8812
 -85.8809
 -85.8846
 -85.8841
 -85.8843
 -85.8846
 -85.8721
 -85.8717
 -85.8708
 -85.8716
 -85.9031
 -85.9038
 -85.8876
 -85.8881
 -85.8882
 -85.8881
 -85.911
 -85.9108
 -85.9109
 -85.9111
 -85.8864
 -85.8858
 -85.8868
 -85.8875
 -85.9043
 -85.905
 -85.9052
 -85.9051
 -85.9082
 -85.9089
 -85.9079
 -85.9087
 -85.9015
 -85.9006
 -85.9095
 -85.91
 -85.9098
 -85.9096
 -85.8808
 -85.8808
 -85.8805
 -85.8814
 -85.9095
 -85.9098
 -85.9098
 -85.9095
 -85.9115
 -85.9122
 -85.9119
 -85.9116
 -85.8966
 -85.8966
 -85.8974
 -85.8971
 -85.8915
 -85.8911
 -85.8921
 -85.8925
 -85.9073
 -85.9065
 -85.907
 -85.9073
 -85.8697
 -85.8707
 -85.87
 -85.8696
 -85.9069
 -85.9077
 -85.8873
 -85.888
 -85.888
 -85.8889
 -85.9069
 -85.9066
 -85.906
 -85.906
 -85.8818
 -85.8825
 -85.8824
 -85.8823
 -85.8885
 -85.8872
 -85.8877
 -85.8884
 -85.8822
 -85.8819
 -85.8831
 -85.8815
 -85.8811
 -85.8815
 -85.8809
 -85.8798
 -85.8804
 -85.8802
 -85.8805
 -85.8974
 -85.8967
 -85.8965
 -85.9062
 -85.9062
 -85.9068
 -85.9068
 -85.8954
 -85.8949
 -85.8946
 -85.8816
 -85.8811
 -85.8815
 -85.893
 -85.8941
 -85.8931
 -85.8939
 -85.8985
 -85.8984
 -85.8984
 -85.8994
 -85.8905
 -85.8914
 -85.8915
 -85.8913
 -85.8901
 -85.8897
 -85.8894
 -85.8883
 -85.8877
 -85.8876
 -85.8887
 -85.8893
 -85.8897
 -85.8884
 -85.9065
 -85.9062
 -85.9065
 -85.9059
 -85.9002
 -85.8997
 -85.9002
 -85.9005
 -85.8917
 -85.8919
 -85.8914
 -85.8927
 -85.8799
 -85.8792
 -85.8798
 -85.8956
 -85.8951
 -85.8955
 -85.8958
 -85.885
 -85.8839
 -85.8845
 -85.8839
 -85.8661
 -85.8665
 -85.866
 -85.8657
 -85.8888
 -85.8883
 -85.8886
 -85.8886
 -85.9072
 -85.907
 -85.9077
 -85.9075
 -85.888
 -85.8888
 -85.8883
 -85.8878
 -85.8805
 -85.8805
 -85.8808
 -85.881
 -85.8811
 -85.8807
 -85.8809
 -85.8911
 -85.8913
 -85.8909
 -85.899
 -85.8877
 -85.8863
 -85.8872
 -85.8871
 -85.9084
 -85.9083
 -85.9086
 -85.9074
 -85.9075
 -85.9078
 -85.8875
 -85.8883
 -85.8877
 -85.8882
 -85.9113
 -85.9116
 -85.9118
 -85.9118
 -85.882
 -85.8969
 -85.896
 -85.8966
 -85.8964
 -85.8817
 -85.882
 -85.8819
 -85.8821
 -85.908
 -85.9084
 -85.9076
 -85.9081
 -85.8995
 -85.9006
 -85.9002
 -85.8997
 -85.9037
 -85.9042
 -85.9032
 -85.9034
 -85.8798
 -85.8801
 -85.8804
 -85.8799
 -85.8858
 -85.8864
 -85.8857
 -85.8858
 -85.8956
 -85.8951
 -85.8957
 -85.8949
 -85.8862
 -85.8853
 -85.8866
 -85.8856
 -85.899
 -85.8993
 -85.9001
 -85.8999
 -85.8824
 -85.882
 -85.8828
 -85.8828
 -85.8851
 -85.8853
 -85.8861
 -85.8858
 -85.8969
 -85.897
 -85.897
 -85.8978
 -85.9081
 -85.9088
 -85.9083
 -85.9088
 -85.8781
 -85.8785
 -85.8791
 -85.8789
 -85.8723
 -85.8711
 -85.8723
 -85.8722
 -85.9087
 -85.9093
 -85.909
 -85.909
 -85.8736
 -85.8728
 -85.8735
 -85.873
 -85.8728
 -85.8736
 -85.8933
 -85.8936
 -85.8929
 -85.8926
 -85.8856
 -85.8861
 -85.886
 -85.8853
 -85.9133
 -85.9133
 -85.9133
 -85.9131
 -85.908
 -85.9079
 -85.9087
 -85.8992
 -85.8992
 -85.8999
 -85.899
 -85.8813
 -85.8815
 -85.8807
 -85.8817
 -85.885
 -85.8849
 -85.8847
 -85.8844
 -85.885
 -85.8854
 -85.8995
 -85.9008
 -85.9004
 -85.8999
 -85.8981
 -85.898
 -85.8973
 -85.8983
 -85.9005
 -85.9003
 -85.8996
 -85.9004
 -85.9113
 -85.9113
 -85.9105
 -85.9116
 -85.9022
 -85.9021
 -85.9014
 -85.8888
 -85.8946
 -85.8943
 -85.8945
 -85.8939
 -85.8951
 -85.8941
 -85.8945
 -85.8949
 -85.9058
 -85.9056
 -85.9054
 -85.9051
 -85.9022
 -85.9017
 -85.9018
 -85.9024
 -85.8977
 -85.897
 -85.8969
 -85.8869
 -85.8862
 -85.887
 -85.8858
 -85.8943
 -85.8956
 -85.8949
 -85.8949
 -85.8884
 -85.889
 -85.888
 -85.8623
 -85.8622
 -85.8616
 -85.8627
 -85.906
 -85.9071
 -85.9066
 -85.9059
 -85.9049
 -85.9061
 -85.9054
 -85.8634
 -85.8955
 -85.8956
 -85.8954
 -85.8963
 -85.8975
 -85.8976
 -85.8757
 -85.8758
 -85.8756
 -85.876
 -85.879
 -85.8793
 -85.8803
 -85.8791
 -85.8834
 -85.884
 -85.8837
 -85.8839
 -85.8831
 -85.8835
 -85.8838
 -85.883
 -85.8829
 -85.8835
 -85.8886
 -85.8879
 -85.8876
 -85.8877
 -85.8895
 -85.8904
 -85.9134
 -85.9133
 -85.8807
 -85.882
 -85.8807
 -85.8815
 -85.8915
 -85.8912
 -85.8918
 -85.8908
 -85.8775
 -85.8779
 -85.8765
 -85.8768
 -85.9068
 -85.9072
 -85.9062
 -85.9067
 -85.9045
 -85.9039
 -85.9045
 -85.9039
 -85.899
 -85.8996
 -85.8997
 -85.8993
 -85.8958
 -85.8959
 -85.8971
 -85.8967
 -85.8935
 -85.8932
 -85.8808
 -85.9015
 -85.9022
 -85.9022
 -85.9022
 -85.9105
 -85.9103
 -85.911
 -85.9102
 -85.9053
 -85.906
 -85.9051
 -85.9054
 -85.8551
 -85.8551
 -85.8553
 -85.8555
 -85.9107
 -85.9108
 -85.9106
 -85.9107
 -85.8838
 -85.8838
 -85.8831
 -85.8841
 -85.8872
 -85.8862
 -85.8866
 -85.8858
 -85.9007
 -85.9008
 -85.9013
 -85.9014
 -85.9011
 -85.9008
 -85.9005
 -85.9007
 -85.8814
 -85.8824
 -85.8819
 -85.8822
 -85.9104
 -85.9106
 -85.9103
 -85.9104
 -85.9071
 -85.9074
 -85.9073
 -85.9076
 -85.9014
 -85.9015
 -85.9021
 -85.9021
 -85.9074
 -85.9068
 -85.9072
 -85.9073
 -85.8851
 -85.8859
 -85.886
 -85.8862
 -85.8814
 -85.8816
 -85.8818
 -85.882
 -85.9063
 -85.9058
 -85.9056
 -85.9057
 -85.8905
 -85.8903
 -85.8901
 -85.8894
 -85.8915
 -85.8911
 -85.8909
 -85.8914
 -85.8604
 -85.861
 -85.8612
 -85.8611
 -85.9103
 -85.9105
 -85.908
 -85.908
 -85.9076
 -85.9084
 -85.8775
 -85.8768
 -85.8766
 -85.8776
 -85.886
 -85.8849
 -85.8848
 -85.8845
 -85.9073
 -85.9068
 -85.9076
 -85.9077
 -85.8896
 -85.8899
 -85.8895
 -85.8904
 -85.8879
 -85.8881
 -85.8872
 -85.8873
 -85.911
 -85.9112
 -85.9109
 -85.9108
 -85.8952
 -85.8949
 -85.8952
 -85.8955
 -85.8932
 -85.8935
 -85.8933
 -85.8927
 -85.9039
 -85.9041
 -85.9044
 -85.9039
 -85.8995
 -85.8992
 -85.8989
 -85.8985
 -85.8898
 -85.8898
 -85.8888
 -85.8861
 -85.8868
 -85.8864
 -85.8876
 -85.8743
 -85.8738
 -85.8738
 -85.8751
 -85.8871
 -85.8876
 -85.8877
 -85.8879
 -85.8944
 -85.894
 -85.8943
 -85.8937
 -85.9106
 -85.9108
 -85.9108
 -85.9101
 -85.8876
 -85.889
 -85.8883
 -85.8881
 -85.8776
 -85.8775
 -85.8768
 -85.8763
 -85.9009
 -85.9017
 -85.9013
 -85.9008
 -85.8979
 -85.8977
 -85.8973
 -85.8943
 -85.8954
 -85.8956
 -85.8959
 -85.8732
 -85.873
 -85.8731
 -85.8738
 -85.8957
 -85.8951
 -85.8953
 -85.8949
 -85.91
 -85.9099
 -85.9101
 -85.91
 -85.8949
 -85.8948
 -85.8951
 -85.8953
 -85.8794
 -85.8789
 -85.8793
 -85.8795
 -85.8825
 -85.883
 -85.8824
 -85.8818
 -85.9134
 -85.9133
 -85.9134
 -85.9134
 -85.8849
 -85.8852
 -85.885
 -85.8838
 -85.8977
 -85.8967
 -85.8969
 -85.8973
 -85.9132
 -85.9134
 -85.9131
 -85.913
 -85.9083
 -85.9091
 -85.9086
 -85.9011
 -85.9011
 -85.902
 -85.9022
 -85.9064
 -85.9066
 -85.9073
 -85.9062
 -85.8663
 -85.8669
 -85.8675
 -85.8673
 -85.8823
 -85.8832
 -85.8818
 -85.9095
 -85.9101
 -85.9099
 -85.9101
 -85.8973
 -85.897
 -85.8979
 -85.8968
 -85.9035
 -85.9033
 -85.9042
 -85.9028
 -85.8786
 -85.8785
 -85.8778
 -85.8775
 -85.8893
 -85.8904
 -85.8893
 -85.89
 -85.8991
 -85.8979
 -85.8983
 -85.8766
 -85.8768
 -85.8772
 -85.8772
 -85.8821
 -85.8804
 -85.8807
 -85.8805
 -85.8882
 -85.9098
 -85.9101
 -85.9098
 -85.9103
 -85.8676
 -85.8675
 -85.8667
 -85.8668
 -85.9036
 -85.9048
 -85.9043
 -85.9049
 -85.8983
 -85.8977
 -85.8979
 -85.897
 -85.8624
 -85.9053
 -85.9049
 -85.9057
 -85.9096
 -85.9103
 -85.9097
 -85.9098
 -85.8919
 -85.8918
 -85.8932
 -85.8923
 -85.9001
 -85.9001
 -85.9006
 -85.8997
 -85.8836
 -85.8829
 -85.8934
 -85.893
 -85.8929
 -85.8938
 -85.8834
 -85.8829
 -85.8825
 -85.8831
 -85.8863
 -85.886
 -85.8871
 -85.8872
 -85.9015
 -85.901
 -85.9015
 -85.9016
 -85.8704
 -85.8703
 -85.8702
 -85.8713
 -85.8815
 -85.8811
 -85.8814
 -85.8809
 -85.8722
 -85.8729
 -85.8789
 -85.879
 -85.8791
 -85.879
 -85.8777
 -85.8771
 -85.8779
 -85.8773
 -85.9109
 -85.9105
 -85.9101
 -85.9101
 -85.8967
 -85.8967
 -85.8963
 -85.8975
 -85.889
 -85.8902
 -85.8896
 -85.8895
 -85.8944
 -85.894
 -85.8938
 -85.8946
 -85.9103
 -85.9102
 -85.8763
 -85.8759
 -85.876
 -85.8763
 -85.9101
 -85.9103
 -85.9098
 -85.8688
 -85.8686
 -85.8687
 -85.8683
 -85.9088
 -85.908
 -85.9086
 -85.9082
 -85.8868
 -85.8862
 -85.887
 -85.8861
 -85.8914
 -85.8913
 -85.891
 -85.9097
 -85.9093
 -85.9095
 -85.9098
 -85.8965
 -85.8957
 -85.8965
 -85.896
 -85.8915
 -85.892
 -85.8925
 -85.8919
 -85.887
 -85.8866
 -85.8893
 -85.8877
 -85.8888
 -85.8883
 -85.898
 -85.8972
 -85.8977
 -85.9109
 -85.9102
 -85.9101
 -85.9108
 -85.891
 -85.8916
 -85.891
 -85.8913
 -85.8894
 -85.8889
 -85.8857
 -85.8848
 -85.8846
 -85.8854
 -85.8707
 -85.8709
 -85.8718
 -85.8966
 -85.8968
 -85.8958
 -85.8957
 -85.9105
 -85.9106
 -85.9106
 -85.8721
 -85.8718
 -85.8722
 -85.8906
 -85.89
 -85.8904
 -85.8897
 -85.8999
 -85.9
 -85.8992
 -85.8994
 -85.8666
 -85.8661
 -85.8664
 -85.8666
 -85.9068
 -85.907
 -85.9066
 -85.9065
 -85.9006
 -85.9001
 -85.9001
 -85.8998
 -85.9051
 -85.9053
 -85.9049
 -85.9094
 -85.9095
 -85.9102
 -85.9097
 -85.8941
 -85.8931
 -85.894
 -85.8941
 -85.9094
 -85.9092
 -85.909
 -85.9089
 -85.8871
 -85.8869
 -85.8874
 -85.8865
 -85.9107
 -85.899
 -85.893
 -85.8928
 -85.8935
 -85.8925
 -85.898
 -85.8977
 -85.8972
 -85.897
 -85.9025
 -85.9026
 -85.9021
 -85.9016
 -85.8985
 -85.8982
 -85.899
 -85.8986
 -85.9032
 -85.9028
 -85.9033
 -85.9033
 -85.893
 -85.8925
 -85.8927
 -85.8935
 -85.8916
 -85.8918
 -85.892
 -85.8923
 -85.8893
 -85.889
 -85.8888
 -85.8897
 -85.892
 -85.892
 -85.8913
 -85.8805
 -85.8807
 -85.8805
 -85.881
 -85.894
 -85.8997
 -85.9006
 -85.9007
 -85.9004
 -85.91
 -85.91
 -85.9093
 -85.8857
 -85.8844
 -85.8849
 -85.8845
 -85.8949
 -85.8959
 -85.8956
 -85.8983
 -85.898
 -85.8977
 -85.8974
 -85.9001
 -85.9005
 -85.9011
 -85.9014
 -85.9078
 -85.9081
 -85.9086
 -85.908
 -85.8831
 -85.8831
 -85.8835
 -85.8824
 -85.8949
 -85.8944
 -85.8944
 -85.8939
 -85.8923
 -85.8919
 -85.8913
 -85.8922
 -85.8915
 -85.8911
 -85.8909
 -85.8904
 -85.8934
 -85.8931
 -85.8936
 -85.8927
 -85.9022
 -85.9011
 -85.9025
 -85.9016
 -85.8914
 -85.8903
 -85.8907
 -85.891
 -85.8761
 -85.8761
 -85.8761
 -85.8764
 -85.8737
 -85.8742
 -85.8739
 -85.8933
 -85.8934
 -85.894
 -85.8943
 -85.8936
 -85.8938
 -85.8942
 -85.8945
 -85.8919
 -85.8911
 -85.8924
 -85.8923
 -85.9091
 -85.9092
 -85.9084
 -85.9084
 -85.9027
 -85.9021
 -85.9018
 -85.9025
 -85.8851
 -85.8856
 -85.8855
 -85.8857
 -85.8794
 -85.8805
 -85.8803
 -85.879
 -85.9074
 -85.9071
 -85.9067
 -85.9073
 -85.8682
 -85.8675
 -85.8677
 -85.8687
 -85.8877
 -85.8885
 -85.8881
 -85.888
 -85.8783
 -85.8787
 -85.8786
 -85.8825
 -85.883
 -85.8831
 -85.8837
 -85.9014
 -85.9013
 -85.9018
 -85.9006
 -85.8823
 -85.8814
 -85.8816
 -85.8821
 -85.8739
 -85.8758
 -85.8746
 -85.8664
 -85.8673
 -85.8678
 -85.8673
 -85.9117
 -85.9119
 -85.912
 -85.9124
 -85.8843
 -85.8837
 -85.8841
 -85.8845
 -85.8969
 -85.8959
 -85.8961
 -85.8966
 -85.9085
 -85.9082
 -85.9077
 -85.9081
 -85.905
 -85.9056
 -85.9047
 -85.905
 -85.8849
 -85.8851
 -85.8845
 -85.8849
 -85.8766
 -85.8757
 -85.8749
 -85.8759
 -85.8959
 -85.8964
 -85.8955
 -85.896
 -85.8775
 -85.8784
 -85.8897
 -85.8883
 -85.8885
 -85.8893
 -85.8904
 -85.8904
 -85.8899
 -85.8907
 -85.8893
 -85.8894
 -85.8889
 -85.88
 -85.8803
 -85.88
 -85.8973
 -85.8973
 -85.8976
 -85.8978
 -85.8963
 -85.8962
 -85.8958
 -85.897
 -85.8848
 -85.8857
 -85.8852
 -85.8849
 -85.9029
 -85.9036
 -85.9027
 -85.9029
 -85.8929
 -85.8919
 -85.8924
 -85.8931
 -85.8799
 -85.8799
 -85.8798
 -85.8799
 -85.8883
 -85.889
 -85.8884
 -85.8971
 -85.897
 -85.8964
 -85.8969
 -85.894
 -85.8946
 -85.895
 -85.9115
 -85.9114
 -85.9112
 -85.911
 -85.8725
 -85.872
 -85.8726
 -85.8713
 -85.8873
 -85.888
 -85.888
 -85.8874
 -85.8863
 -85.886
 -85.8854
 -85.8863
 -85.9117
 -85.9116
 -85.9123
 -85.9127
 -85.9042
 -85.9046
 -85.9045
 -85.8828
 -85.8828
 -85.8823
 -85.8828
 -85.904
 -85.9032
 -85.9035
 -85.8843
 -85.8844
 -85.8838
 -85.884
 -85.8588
 -85.8593
 -85.8589
 -85.8594
 -85.9089
 -85.909
 -85.9094
 -85.9086
 -85.8801
 -85.8799
 -85.8796
 -85.879
 -85.911
 -85.9108
 -85.9107
 -85.9108
 -85.8821
 -85.8829
 -85.8822
 -85.8827
 -85.8595
 -85.8584
 -85.8592
 -85.8593
 -85.8752
 -85.8744
 -85.8751
 -85.8754
 -85.8805
 -85.881
 -85.8815
 -85.8803
 -85.8925
 -85.8915
 -85.8793
 -85.8795
 -85.878
 -85.8782
 -85.8978
 -85.8973
 -85.8971
 -85.8966
 -85.8917
 -85.8917
 -85.8914
 -85.8925
 -85.9083
 -85.9076
 -85.9087
 -85.9088
 -85.9068
 -85.9065
 -85.9071
 -85.9072
 -85.9053
 -85.9046
 -85.9051
 -85.9046
 -85.9078
 -85.9079
 -85.9081
 -85.9076
 -85.9
 -85.8999
 -85.9005
 -85.9
 -85.9056
 -85.9063
 -85.9061
 -85.9059
 -85.8734
 -85.8722
 -85.8721
 -85.8735
 -85.9072
 -85.9076
 -85.9076
 -85.9075
 -85.8893
 -85.8885
 -85.8881
 -85.8885
 -85.9037
 -85.9026
 -85.9028
 -85.907
 -85.9075
 -85.9076
 -85.9073
 -85.8803
 -85.8794
 -85.8794
 -85.8798
 -85.8755
 -85.8753
 -85.8748
 -85.875
 -85.9014
 -85.9013
 -85.9009
 -85.9021
 -85.8899
 -85.8898
 -85.8896
 -85.8891
 -85.9003
 -85.8999
 -85.9003
 -85.9001
 -85.9
 -85.9
 -85.9013
 -85.8882
 -85.8879
 -85.8872
 -85.8995
 -85.8999
 -85.8952
 -85.8942
 -85.9108
 -85.9111
 -85.9111
 -85.9107
 -85.8941
 -85.8944
 -85.8939
 -85.8948
 -85.8994
 -85.8992
 -85.9001
 -85.8992
 -85.897
 -85.8974
 -85.897
 -85.8976
 -85.9056
 -85.9042
 -85.9044
 -85.9039
 -85.9038
 -85.8906
 -85.8909
 -85.89
 -85.89
 -85.8786
 -85.8786
 -85.8786
 -85.8787
 -85.8995
 -85.8989
 -85.8997
 -85.8992
 -85.9005
 -85.9
 -85.8998
 -85.9007
 -85.8617
 -85.8623
 -85.8626
 -85.8631
 -85.8932
 -85.8939
 -85.8934
 -85.893
 -85.8923
 -85.8916
 -85.8913
 -85.8919
 -85.8992
 -85.8987
 -85.881
 -85.8812
 -85.8815
 -85.8811
 -85.8868
 -85.8872
 -85.887
 -85.8866
 -85.8821
 -85.8818
 -85.8816
 -85.8817
 -85.8855
 -85.886
 -85.8859
 -85.8853
 -85.8817
 -85.8816
 -85.8813
 -85.8818
 -85.9045
 -85.9041
 -85.9043
 -85.9048
 -85.9071
 -85.907
 -85.9064
 -85.9068
 -85.8845
 -85.8841
 -85.8837
 -85.8845
 -85.8932
 -85.8925
 -85.8931
 -85.8927
 -85.9053
 -85.9046
 -85.9052
 -85.9049
 -85.8903
 -85.8897
 -85.8898
 -85.8909
 -85.8843
 -85.885
 -85.8769
 -85.8773
 -85.8775
 -85.8768
 -85.8919
 -85.8916
 -85.891
 -85.8907
 -85.9055
 -85.9052
 -85.9052
 -85.9061
 -85.9102
 -85.9098
 -85.9098
 -85.9103
 -85.8638
 -85.8637
 -85.889
 -85.8899
 -85.89
 -85.8904
 -85.8879
 -85.8867
 -85.8875
 -85.8875
 -85.8872
 -85.887
 -85.8825
 -85.8829
 -85.8829
 -85.883
 -85.8918
 -85.8926
 -85.8929
 -85.8734
 -85.874
 -85.874
 -85.8745
 -85.9073
 -85.9078
 -85.9068
 -85.9074
 -85.9101
 -85.9101
 -85.91
 -85.9117
 -85.9115
 -85.9109
 -85.9113
 -85.8964
 -85.8976
 -85.8972
 -85.8973
 -85.8931
 -85.8942
 -85.8928
 -85.8937
 -85.9032
 -85.9042
 -85.9045
 -85.904
 -85.8988
 -85.8987
 -85.8994
 -85.8987
 -85.8978
 -85.8985
 -85.898
 -85.8946
 -85.8947
 -85.8943
 -85.8954
 -85.9017
 -85.9031
 -85.9026
 -85.9018
 -85.8904
 -85.8899
 -85.8903
 -85.8904
 -85.8937
 -85.8935
 -85.8944
 -85.8933
 -85.9
 -85.8998
 -85.8994
 -85.9
 -85.8933
 -85.8928
 -85.8926
 -85.8934
 -85.8598
 -85.8595
 -85.8605
 -85.8605
 -85.8833
 -85.883
 -85.883
 -85.8825
 -85.9017
 -85.9016
 -85.9025
 -85.9026
 -85.8821
 -85.8822
 -85.8811
 -85.8808
 -85.8799
 -85.8789
 -85.88
 -85.8807
 -85.9059
 -85.9057
 -85.9061
 -85.9053
 -85.9049
 -85.9041
 -85.9048
 -85.9046
 -85.9077
 -85.907
 -85.9075
 -85.9078
 -85.9025
 -85.9025
 -85.9032
 -85.9029
 -85.889
 -85.8888
 -85.8883
 -85.8888
 -85.8834
 -85.8831
 -85.8838
 -85.883
 -85.9004
 -85.8992
 -85.9004
 -85.8995
 -85.8837
 -85.8839
 -85.8841
 -85.884
 -85.8774
 -85.8777
 -85.8779
 -85.8782
 -85.8926
 -85.8932
 -85.8927
 -85.8932
 -85.8874
 -85.8869
 -85.8863
 -85.888
 -85.8884
 -85.8895
 -85.8886
 -85.8776
 -85.8771
 -85.8764
 -85.8771
 -85.8843
 -85.8842
 -85.8839
 -85.884
 -85.9012
 -85.9017
 -85.9013
 -85.9015
 -85.8941
 -85.8949
 -85.895
 -85.9121
 -85.9116
 -85.9116
 -85.9119
 -85.9088
 -85.9094
 -85.9097
 -85.9091
 -85.887
 -85.8876
 -85.8866
 -85.8876
 -85.8955
 -85.8961
 -85.8785
 -85.8785
 -85.8775
 -85.8788
 -85.8941
 -85.8934
 -85.8931
 -85.8937
 -85.9074
 -85.9076
 -85.907
 -85.9075
 -85.8835
 -85.8837
 -85.8839
 -85.8896
 -85.8898
 -85.89
 -85.8889
 -85.8873
 -85.8884
 -85.8884
 -85.8882
 -85.8927
 -85.8934
 -85.8936
 -85.8926
 -85.8912
 -85.8917
 -85.8922
 -85.8916
 -85.8938
 -85.8943
 -85.8937
 -85.8945
 -85.8905
 -85.8911
 -85.904
 -85.9035
 -85.9046
 -85.9039
 -85.891
 -85.8902
 -85.8905
 -85.891
 -85.8977
 -85.8967
 -85.8971
 -85.8908
 -85.8915
 -85.891
 -85.8914
 -85.898
 -85.8976
 -85.8971
 -85.8977
 -85.8823
 -85.8816
 -85.8821
 -85.8811
 -85.8907
 -85.8906
 -85.8916
 -85.8959
 -85.8961
 -85.897
 -85.8955
 -85.8922
 -85.892
 -85.8925
 -85.882
 -85.8822
 -85.8816
 -85.8985
 -85.8984
 -85.8982
 -85.8975
 -85.8926
 -85.8932
 -85.8933
 -85.8647
 -85.8649
 -85.8652
 -85.8638
 -85.8988
 -85.8982
 -85.8979
 -85.8989
 -85.888
 -85.8872
 -85.8873
 -85.887
 -85.9052
 -85.9051
 -85.9054
 -85.9057
 -85.9067
 -85.9061
 -85.907
 -85.9068
 -85.8797
 -85.8809
 -85.8794
 -85.8797
 -85.8956
 -85.895
 -85.8945
 -85.8854
 -85.8846
 -85.8852
 -85.8851
 -85.9064
 -85.9055
 -85.906
 -85.8938
 -85.8945
 -85.894
 -85.8947
 -85.9009
 -85.9012
 -85.9011
 -85.9009
 -85.9084
 -85.9086
 -85.9088
 -85.9083
 -85.8564
 -85.8558
 -85.8559
 -85.8564
 -85.8853
 -85.8855
 -85.8859
 -85.8852
 -85.895
 -85.8964
 -85.8959
 -85.8962
 -85.8762
 -85.8755
 -85.8752
 -85.8926
 -85.8933
 -85.8932
 -85.8925
 -85.9092
 -85.8995
 -85.8989
 -85.8981
 -85.8989
 -85.906
 -85.906
 -85.9061
 -85.9063
 -85.9032
 -85.903
 -85.9028
 -85.9034
 -85.8955
 -85.8952
 -85.8939
 -85.893
 -85.8931
 -85.8931
 -85.8658
 -85.8667
 -85.8659
 -85.8664
 -85.8867
 -85.8864
 -85.8861
 -85.8855
 -85.8855
 -85.8861
 -85.8856
 -85.9096
 -85.9104
 -85.9098
 -85.9096
 -85.8927
 -85.8927
 -85.8935
 -85.8935
 -85.8953
 -85.8949
 -85.8943
 -85.8948
 -85.9067
 -85.9062
 -85.907
 -85.9063
 -85.8934
 -85.8932
 -85.8942
 -85.8935
 -85.8725
 -85.8728
 -85.8719
 -85.8722
 -85.8919
 -85.8916
 -85.8922
 -85.8918
 -85.885
 -85.885
 -85.8852
 -85.8857
 -85.8832
 -85.8826
 -85.8827
 -85.883
 -85.8786
 -85.8789
 -85.8785
 -85.8785
 -85.8709
 -85.8706
 -85.8703
 -85.8715
 -85.9114
 -85.911
 -85.9112
 -85.9111
 -85.8679
 -85.8682
 -85.8673
 -85.8686
 -85.8928
 -85.8923
 -85.8928
 -85.8921
 -85.9109
 -85.911
 -85.9105
 -85.9107
 -85.889
 -85.8888
 -85.8893
 -85.8894
 -85.8785
 -85.908
 -85.9077
 -85.9078
 -85.9085
 -85.8818
 -85.8721
 -85.8732
 -85.8733
 -85.8722
 -85.8966
 -85.8976
 -85.9036
 -85.9027
 -85.9038
 -85.9029
 -85.9057
 -85.9056
 -85.9061
 -85.906
 -85.912
 -85.9115
 -85.9122
 -85.9039
 -85.9048
 -85.9046
 -85.9045
 -85.8891
 -85.9102
 -85.9004
 -85.9002
 -85.8999
 -85.9101
 -85.9103
 -85.9105
 -85.9102
 -85.8896
 -85.8895
 -85.8895
 -85.8889
 -85.8847
 -85.885
 -85.8843
 -85.884
 -85.8996
 -85.8991
 -85.8993
 -85.9004
 -85.9095
 -85.9098
 -85.9092
 -85.9091
 -85.9074
 -85.9073
 -85.9076
 -85.9072
 -85.8975
 -85.8987
 -85.8986
 -85.8701
 -85.8694
 -85.8713
 -85.87
 -85.8573
 -85.8583
 -85.8577
 -85.8582
 -85.8764
 -85.8753
 -85.875
 -85.8757
 -85.8945
 -85.8952
 -85.8944
 -85.8732
 -85.8739
 -85.8737
 -85.8731
 -85.9043
 -85.9041
 -85.9049
 -85.9049
 -85.9051
 -85.9046
 -85.9049
 -85.8819
 -85.8816
 -85.901
 -85.9014
 -85.9134
 -85.9131
 -85.9133
 -85.9114
 -85.9117
 -85.9116
 -85.9118
 -85.8905
 -85.8899
 -85.891
 -85.8905
 -85.8864
 -85.8863
 -85.8858
 -85.8868
 -85.8921
 -85.892
 -85.8929
 -85.8926
 -85.9106
 -85.9106
 -85.9107
 -85.9106
 -85.9011
 -85.9015
 -85.9013
 -85.9008
 -85.8783
 -85.8783
 -85.8783
 -85.8788
 -85.9011
 -85.9014
 -85.9009
 -85.9016
 -85.8959
 -85.8961
 -85.8953
 -85.8962
 -85.8999
 -85.9004
 -85.9003
 -85.8547
 -85.8549
 -85.855
 -85.886
 -85.8854
 -85.8896
 -85.8896
 -85.889
 -85.8901
 -85.9033
 -85.9041
 -85.9034
 -85.9033
 -85.9012
 -85.9015
 -85.9023
 -85.9018
 -85.9018
 -85.9014
 -85.9026
 -85.8658
 -85.8658
 -85.878
 -85.8779
 -85.8784
 -85.8781
 -85.8959
 -85.8654
 -85.8645
 -85.8648
 -85.8649
 -85.8847
 -85.8856
 -85.885
 -85.8848
 -85.8908
 -85.8904
 -85.8713
 -85.8729
 -85.8728
 -85.8719
 -85.9114
 -85.912
 -85.9117
 -85.9115
 -85.9092
 -85.9094
 -85.9091
 -85.9099
 -85.881
 -85.8824
 -85.8813
 -85.882
 -85.8858
 -85.8853
 -85.8869
 -85.8866
 -85.8862
 -85.8858
 -85.8862
 -85.9024
 -85.9029
 -85.9019
 -85.9024
 -85.8782
 -85.879
 -85.8793
 -85.8794
 -85.8923
 -85.8925
 -85.8922
 -85.8987
 -85.899
 -85.8993
 -85.8999
 -85.8858
 -85.886
 -85.8864
 -85.8861
 -85.8828
 -85.8835
 -85.8841
 -85.8832
 -85.8834
 -85.8829
 -85.8831
 -85.8837
 -85.8887
 -85.889
 -85.8897
 -85.889
 -85.8986
 -85.8981
 -85.8848
 -85.885
 -85.8852
 -85.8845
 -85.9117
 -85.9109
 -85.9111
 -85.9111
 -85.8823
 -85.8827
 -85.8824
 -85.8828
 -85.8749
 -85.8746
 -85.8755
 -85.8752
 -85.8961
 -85.8961
 -85.8691
 -85.8692
 -85.8685
 -85.8694
 -85.8873
 -85.8878
 -85.8869
 -85.9096
 -85.9095
 -85.9099
 -85.9099
 -85.8702
 -85.8698
 -85.87
 -85.883
 -85.8829
 -85.8835
 -85.8833
 -85.8714
 -85.8822
 -85.8819
 -85.882
 -85.8813
 -85.8934
 -85.8929
 -85.8935
 -85.8934
 -85.8897
 -85.8899
 -85.8903
 -85.8896
 -85.9102
 -85.9107
 -85.8947
 -85.8951
 -85.8949
 -85.8946
 -85.8814
 -85.8803
 -85.8816
 -85.8802
 -85.8865
 -85.8881
 -85.8872
 -85.8867
 -85.9078
 -85.9075
 -85.9075
 -85.9075
 -85.8901
 -85.8904
 -85.8912
 -85.8909
 -85.8962
 -85.9055
 -85.9058
 -85.9052
 -85.8866
 -85.8869
 -85.886
 -85.8871
 -85.9009
 -85.9007
 -85.901
 -85.9003
 -85.8878
 -85.887
 -85.8873
 -85.888
 -85.91
 -85.9095
 -85.9093
 -85.9098
 -85.913
 -85.9132
 -85.9128
 -85.8832
 -85.8836
 -85.8843
 -85.8839
 -85.898
 -85.8982
 -85.8973
 -85.8977
 -85.9002
 -85.9005
 -85.9009
 -85.9012
 -85.8853
 -85.8855
 -85.8824
 -85.882
 -85.8818
 -85.8827
 -85.8885
 -85.8899
 -85.8966
 -85.8969
 -85.8965
 -85.8962
 -85.8983
 -85.8986
 -85.8992
 -85.8982
 -85.8889
 -85.8895
 -85.8901
 -85.8896
 -85.8958
 -85.8958
 -85.8959
 -85.9066
 -85.906
 -85.9057
 -85.9061
 -85.9034
 -85.9031
 -85.9035
 -85.8891
 -85.8901
 -85.8888
 -85.8897
 -85.8833
 -85.8823
 -85.8818
 -85.883
 -85.9006
 -85.8997
 -85.8997
 -85.9003
 -85.8901
 -85.8899
 -85.889
 -85.8795
 -85.8793
 -85.8795
 -85.8793
 -85.8857
 -85.8857
 -85.886
 -85.8863
 -85.9044
 -85.9041
 -85.9037
 -85.9119
 -85.9113
 -85.9114
 -85.8998
 -85.9002
 -85.9003
 -85.8857
 -85.8849
 -85.886
 -85.8854
 -85.9117
 -85.9117
 -85.9116
 -85.9119
 -85.8989
 -85.8984
 -85.8988
 -85.8994
 -85.9053
 -85.9056
 -85.9064
 -85.9063
 -85.9045
 -85.9049
 -85.9046
 -85.9046
 -85.8743
 -85.8734
 -85.8736
 -85.8885
 -85.8888
 -85.8882
 -85.8888
 -85.9054
 -85.9057
 -85.9051
 -85.9051
 -85.8913
 -85.8916
 -85.8916
 -85.8925
 -85.9012
 -85.9013
 -85.9012
 -85.9005
 -85.9081
 -85.9085
 -85.8782
 -85.8787
 -85.8786
 -85.879
 -85.9028
 -85.9023
 -85.9034
 -85.9026
 -85.889
 -85.8887
 -85.8884
 -85.8893
 -85.9002
 -85.8992
 -85.9109
 -85.9108
 -85.9103
 -85.911
 -85.9052
 -85.906
 -85.9048
 -85.9063
 -85.9119
 -85.912
 -85.9124
 -85.9126
 -85.9025
 -85.9025
 -85.9028
 -85.9001
 -85.9011
 -85.901
 -85.9006
 -85.9008
 -85.9002
 -85.9005
 -85.8997
 -85.8845
 -85.8846
 -85.884
 -85.8838
 -85.8726
 -85.8722
 -85.8733
 -85.8929
 -85.8929
 -85.893
 -85.9065
 -85.9059
 -85.9063
 -85.9057
 -85.8892
 -85.8898
 -85.8905
 -85.8898
 -85.8817
 -85.8806
 -85.881
 -85.8818
 -85.8935
 -85.8927
 -85.8923
 -85.8923
 -85.8874
 -85.8886
 -85.8875
 -85.911
 -85.9112
 -85.9106
 -85.9105
 -85.8789
 -85.8791
 -85.8815
 -85.8819
 -85.8819
 -85.9016
 -85.9018
 -85.9011
 -85.9024
 -85.8924
 -85.8934
 -85.8933
 -85.8931
 -85.8805
 -85.8807
 -85.8813
 -85.8807
 -85.8953
 -85.8939
 -85.8941
 -85.8949
 -85.887
 -85.8864
 -85.8874
 -85.8875
 -85.9076
 -85.9078
 -85.9087
 -85.8859
 -85.8858
 -85.8864
 -85.8864
 -85.8951
 -85.8957
 -85.88
 -85.8809
 -85.8806
 -85.8801
 -85.8812
 -85.8805
 -85.8809
 -85.8805
 -85.9081
 -85.9078
 -85.8826
 -85.8832
 -85.8829
 -85.8822
 -85.8938
 -85.893
 -85.8933
 -85.8938
 -85.8881
 -85.8745
 -85.8738
 -85.874
 -85.8962
 -85.896
 -85.8962
 -85.8956
 -85.9087
 -85.9088
 -85.9085
 -85.9091
 -85.8744
 -85.8748
 -85.8749
 -85.874
 -85.8818
 -85.8823
 -85.8816
 -85.8818
 -85.8997
 -85.9
 -85.9
 -85.8755
 -85.8754
 -85.8761
 -85.8762
 -85.9118
 -85.9113
 -85.9116
 -85.9119
 -85.8781
 -85.8786
 -85.8788
 -85.8778
 -85.899
 -85.8983
 -85.8988
 -85.8994
 -85.8886
 -85.8891
 -85.8889
 -85.8884
 -85.8806
 -85.8809
 -85.8806
 -85.8872
 -85.8881
 -85.8872
 -85.8879
 -85.8807
 -85.88
 -85.8804
 -85.8804
 -85.882
 -85.8815
 -85.8818
 -85.9033
 -85.9026
 -85.9035
 -85.9023
 -85.9017
 -85.8919
 -85.8935
 -85.8924
 -85.8925
 -85.9096
 -85.9093
 -85.909
 -85.9093
 -85.8964
 -85.8973
 -85.896
 -85.897
 -85.8986
 -85.8992
 -85.8986
 -85.8984
 -85.8817
 -85.8814
 -85.8821
 -85.8826
 -85.8823
 -85.8986
 -85.8978
 -85.8982
 -85.8988
 -85.9092
 -85.9099
 -85.8944
 -85.8947
 -85.8938
 -85.8948
 -85.8805
 -85.8803
 -85.8808
 -85.9074
 -85.9078
 -85.9072
 -85.9074
 -85.8947
 -85.8935
 -85.894
 -85.8941
 -85.8814
 -85.8811
 -85.8814
 -85.8817
 -85.8923
 -85.8922
 -85.8933
 -85.8925
 -85.8982
 -85.8995
 -85.8771
 -85.8767
 -85.8769
 -85.8765
 -85.8819
 -85.8833
 -85.8838
 -85.8835
 -85.8841
 -85.8838
 -85.8835
 -85.8825
 -85.8827
 -85.8833
 -85.8941
 -85.8939
 -85.8938
 -85.8972
 -85.8969
 -85.8966
 -85.8962
 -85.8843
 -85.8842
 -85.8844
 -85.8842
 -85.8891
 -85.8888
 -85.8955
 -85.895
 -85.8953
 -85.8948
 -85.8956
 -85.8956
 -85.8923
 -85.8931
 -85.8933
 -85.8924
 -85.8686
 -85.8698
 -85.8696
 -85.87
 -85.8952
 -85.8807
 -85.8813
 -85.8809
 -85.8808
 -85.911
 -85.9114
 -85.9109
 -85.9019
 -85.9017
 -85.9012
 -85.902
 -85.8919
 -85.8922
 -85.8919
 -85.8908
 -85.8945
 -85.8951
 -85.8942
 -85.8829
 -85.8835
 -85.8832
 -85.8828
 -85.9077
 -85.9082
 -85.9072
 -85.9079
 -85.8992
 -85.8989
 -85.8995
 -85.8993
 -85.9078
 -85.908
 -85.907
 -85.9076
 -85.8781
 -85.8781
 -85.8775
 -85.8776
 -85.8841
 -85.8847
 -85.9032
 -85.9029
 -85.9025
 -85.903
 -85.9091
 -85.909
 -85.9092
 -85.9089
 -85.9129
 -85.9131
 -85.9128
 -85.9133
 -85.9084
 -85.9079
 -85.9083
 -85.8985
 -85.8993
 -85.8984
 -85.8989
 -85.9087
 -85.909
 -85.9091
 -85.909
 -85.8785
 -85.8792
 -85.8797
 -85.8791
 -85.9056
 -85.9062
 -85.9062
 -85.8989
 -85.8986
 -85.8984
 -85.8984
 -85.8805
 -85.8802
 -85.8806
 -85.8801
 -85.8997
 -85.9005
 -85.9001
 -85.9001
 -85.8966
 -85.8972
 -85.8975
 -85.8967
 -85.8847
 -85.8849
 -85.8856
 -85.886
 -85.8777
 -85.8779
 -85.8771
 -85.8771
 -85.8899
 -85.8902
 -85.8909
 -85.8901
 -85.8667
 -85.8667
 -85.8681
 -85.8673
 -85.8814
 -85.8819
 -85.8813
 -85.8832
 -85.8824
 -85.8823
 -85.8821
 -85.8629
 -85.8632
 -85.8622
 -85.8634
 -85.9074
 -85.9069
 -85.907
 -85.9046
 -85.9047
 -85.9053
 -85.9052
 -85.8836
 -85.8849
 -85.8845
 -85.873
 -85.8733
 -85.8729
 -85.8774
 -85.8768
 -85.8775
 -85.8775
 -85.8845
 -85.8844
 -85.885
 -85.8839
 -85.899
 -85.9002
 -85.8996
 -85.8995
 -85.8689
 -85.8688
 -85.8693
 -85.8684
 -85.8974
 -85.8962
 -85.8961
 -85.8971
 -85.9044
 -85.9047
 -85.9039
 -85.9044
 -85.8957
 -85.8957
 -85.8969
 -85.8963
 -85.8907
 -85.8901
 -85.8912
 -85.8811
 -85.8811
 -85.8811
 -85.8815
 -85.9081
 -85.9086
 -85.9088
 -85.9085
 -85.9056
 -85.9061
 -85.9056
 -85.9052
 -85.8844
 -85.8851
 -85.8846
 -85.884
 -85.9093
 -85.9096
 -85.9099
 -85.9092
 -85.91
 -85.9094
 -85.9094
 -85.9097
 -85.9098
 -85.9093
 -85.9095
 -85.8712
 -85.871
 -85.8632
 -85.8634
 -85.8629
 -85.864
 -85.8978
 -85.8974
 -85.8969
 -85.892
 -85.8915
 -85.8927
 -85.8916
 -85.8937
 -85.8946
 -85.8943
 -85.8938
 -85.8554
 -85.8895
 -85.897
 -85.8978
 -85.9055
 -85.9059
 -85.9057
 -85.9057
 -85.873
 -85.8874
 -85.8881
 -85.8874
 -85.9135
 -85.9132
 -85.9133
 -85.9132
 -85.894
 -85.8934
 -85.894
 -85.8947
 -85.9099
 -85.9095
 -85.91
 -85.9093
 -85.8905
 -85.8914
 -85.8898
 -85.8882
 -85.8892
 -85.8886
 -85.9077
 -85.9078
 -85.9072
 -85.9078
 -85.8975
 -85.897
 -85.8964
 -85.8961
 -85.8788
 -85.8783
 -85.8793
 -85.8791
 -85.9048
 -85.906
 -85.9056
 -85.91
 -85.9107
 -85.9107
 -85.91
 -85.9052
 -85.9049
 -85.9045
 -85.905
 -85.8838
 -85.8837
 -85.8852
 -85.8837
 -85.8857
 -85.8852
 -85.8853
 -85.8853
 -85.9077
 -85.9082
 -85.9081
 -85.9081
 -85.8893
 -85.8895
 -85.8886
 -85.9036
 -85.9036
 -85.9034
 -85.903
 -85.8801
 -85.8808
 -85.8797
 -85.8799
 -85.8982
 -85.8986
 -85.8976
 -85.898
 -85.8797
 -85.8803
 -85.8798
 -85.8797
 -85.8952
 -85.8957
 -85.895
 -85.8955
 -85.9043
 -85.9043
 -85.9049
 -85.9038
 -85.8781
 -85.8779
 -85.8785
 -85.8941
 -85.8948
 -85.9066
 -85.9063
 -85.9061
 -85.9058
 -85.8892
 -85.8887
 -85.8886
 -85.8789
 -85.8783
 -85.8781
 -85.8784
 -85.9004
 -85.9007
 -85.9003
 -85.9009
 -85.8983
 -85.8982
 -85.8994
 -85.8985
 -85.8586
 -85.8586
 -85.8595
 -85.8589
 -85.8934
 -85.8925
 -85.893
 -85.8661
 -85.8668
 -85.8671
 -85.8938
 -85.8935
 -85.893
 -85.8936
 -85.8927
 -85.8778
 -85.8782
 -85.8768
 -85.8773
 -85.8908
 -85.8916
 -85.8917
 -85.9057
 -85.9056
 -85.9057
 -85.9053
 -85.8914
 -85.8919
 -85.8923
 -85.8923
 -85.8927
 -85.8925
 -85.8924
 -85.9128
 -85.9127
 -85.9125
 -85.9122
 -85.8823
 -85.8839
 -85.8835
 -85.883
 -85.8767
 -85.8767
 -85.8771
 -85.877
 -85.8879
 -85.8877
 -85.8888
 -85.888
 -85.907
 -85.9071
 -85.9073
 -85.9065
 -85.8581
 -85.8588
 -85.8581
 -85.8593
 -85.9036
 -85.9028
 -85.9032
 -85.9033
 -85.8765
 -85.8759
 -85.8764
 -85.8763
 -85.9056
 -85.9042
 -85.9046
 -85.9053
 -85.9029
 -85.9026
 -85.9022
 -85.9026
 -85.9038
 -85.904
 -85.8841
 -85.8835
 -85.8834
 -85.884
 -85.9083
 -85.9083
 -85.9083
 -85.9024
 -85.9015
 -85.9018
 -85.9026
 -85.883
 -85.8837
 -85.8833
 -85.8826
 -85.8871
 -85.8869
 -85.8878
 -85.8548
 -85.8548
 -85.8545
 -85.8547
 -85.8923
 -85.8914
 -85.8926
 -85.9084
 -85.9089
 -85.9083
 -85.9081
 -85.9041
 -85.9036
 -85.9073
 -85.908
 -85.9083
 -85.9077
 -85.9011
 -85.9012
 -85.8751
 -85.8753
 -85.8744
 -85.8758
 -85.9035
 -85.9035
 -85.9035
 -85.9028
 -85.8937
 -85.894
 -85.887
 -85.8875
 -85.8873
 -85.887
 -85.9051
 -85.9055
 -85.9057
 -85.9055
 -85.8846
 -85.8832
 -85.8834
 -85.8843
 -85.9079
 -85.9079
 -85.9084
 -85.9092
 -85.8964
 -85.8965
 -85.8957
 -85.875
 -85.8746
 -85.8745
 -85.8749
 -85.8989
 -85.8988
 -85.8986
 -85.8981
 -85.8824
 -85.8816
 -85.8815
 -85.881
 -85.8833
 -85.8822
 -85.883
 -85.8573
 -85.8572
 -85.8573
 -85.8578
 -85.8777
 -85.8787
 -85.879
 -85.878
 -85.904
 -85.9037
 -85.9044
 -85.9036
 -85.8927
 -85.893
 -85.8921
 -85.8881
 -85.881
 -85.8814
 -85.8811
 -85.8815
 -85.8894
 -85.8887
 -85.8892
 -85.8896
 -85.9015
 -85.9026
 -85.9027
 -85.9017
 -85.8798
 -85.8799
 -85.8813
 -85.8733
 -85.8961
 -85.8964
 -85.8956
 -85.8968
 -85.8813
 -85.8822
 -85.8646
 -85.8638
 -85.8808
 -85.8814
 -85.8808
 -85.88
 -85.9015
 -85.902
 -85.9065
 -85.9064
 -85.9067
 -85.9063
 -85.887
 -85.8877
 -85.8878
 -85.8878
 -85.9104
 -85.9106
 -85.911
 -85.9106
 -85.8863
 -85.8865
 -85.885
 -85.885
 -85.9033
 -85.9035
 -85.9029
 -85.9023
 -85.8833
 -85.8833
 -85.8837
 -85.8837
 -85.9032
 -85.9035
 -85.9027
 -85.9032
 -85.8895
 -85.8904
 -85.9089
 -85.9087
 -85.9007
 -85.9013
 -85.9005
 -85.9014
 -85.9002
 -85.8999
 -85.9
 -85.9009
 -85.895
 -85.8947
 -85.8954
 -85.8952
 -85.9031
 -85.9024
 -85.9034
 -85.9038
 -85.8829
 -85.8822
 -85.8826
 -85.8825
 -85.9086
 -85.9085
 -85.9083
 -85.9092
 -85.9095
 -85.909
 -85.9094
 -85.8798
 -85.8806
 -85.8806
 -85.8803
 -85.9008
 -85.9
 -85.9001
 -85.9005
 -85.8787
 -85.8796
 -85.8796
 -85.8804
 -85.8944
 -85.8915
 -85.8926
 -85.8927
 -85.8917
 -85.9053
 -85.9053
 -85.9053
 -85.9046
 -85.8673
 -85.8666
 -85.8671
 -85.8679
 -85.9004
 -85.9008
 -85.9013
 -85.9007
 -85.8933
 -85.894
 -85.8925
 -85.8931
 -85.9024
 -85.9018
 -85.9017
 -85.9016
 -85.8991
 -85.9128
 -85.9126
 -85.9121
 -85.9123
 -85.9039
 -85.9041
 -85.9031
 -85.9033
 -85.8642
 -85.8645
 -85.8652
 -85.8641
 -85.8896
 -85.8888
 -85.8884
 -85.8891
 -85.8853
 -85.8939
 -85.894
 -85.8942
 -85.8949
 -85.9078
 -85.9079
 -85.9072
 -85.9069
 -85.9057
 -85.9056
 -85.9063
 -85.9076
 -85.9065
 -85.9071
 -85.9068
 -85.8584
 -85.8587
 -85.9032
 -85.9029
 -85.9028
 -85.8846
 -85.8845
 -85.8843
 -85.8852
 -85.9017
 -85.9014
 -85.9017
 -85.9011
 -85.895
 -85.9004
 -85.8997
 -85.9005
 -85.9002
 -85.9089
 -85.9078
 -85.9082
 -85.9088
 -85.9002
 -85.9007
 -85.9015
 -85.9003
 -85.8891
 -85.8894
 -85.8882
 -85.89
 -85.8804
 -85.8806
 -85.8802
 -85.8807
 -85.9121
 -85.9116
 -85.9122
 -85.912
 -85.9018
 -85.9015
 -85.902
 -85.9012
 -85.9116
 -85.9114
 -85.9115
 -85.9119
 -85.8848
 -85.8836
 -85.8848
 -85.885
 -85.8945
 -85.8941
 -85.9088
 -85.9096
 -85.9088
 -85.9092
 -85.8948
 -85.8949
 -85.8949
 -85.8957
 -85.8921
 -85.8929
 -85.8946
 -85.8949
 -85.8955
 -85.8946
 -85.9061
 -85.9061
 -85.9058
 -85.9066
 -85.8869
 -85.8859
 -85.8855
 -85.8864
 -85.8739
 -85.8746
 -85.874
 -85.874
 -85.8787
 -85.8783
 -85.8784
 -85.8783
 -85.8859
 -85.8864
 -85.8865
 -85.8857
 -85.8898
 -85.8888
 -85.8895
 -85.8913
 -85.8901
 -85.8908
 -85.891
 -85.8941
 -85.8936
 -85.8933
 -85.894
 -85.8737
 -85.8736
 -85.874
 -85.8885
 -85.8879
 -85.8889
 -85.8887
 -85.8954
 -85.8961
 -85.896
 -85.895
 -85.8837
 -85.8827
 -85.884
 -85.8828
 -85.8864
 -85.887
 -85.8869
 -85.8868
 -85.8961
 -85.896
 -85.8966
 -85.8971
 -85.8936
 -85.8929
 -85.8935
 -85.8933
 -85.9009
 -85.9006
 -85.9008
 -85.9005
 -85.8781
 -85.8783
 -85.8785
 -85.9049
 -85.9046
 -85.9054
 -85.9048
 -85.8838
 -85.8846
 -85.8839
 -85.8834
 -85.8901
 -85.8897
 -85.8893
 -85.8904
 -85.8914
 -85.8922
 -85.8923
 -85.8973
 -85.8973
 -85.8976
 -85.8981
 -85.8999
 -85.9
 -85.9005
 -85.8996
 -85.9007
 -85.901
 -85.9015
 -85.9064
 -85.9067
 -85.9068
 -85.8998
 -85.8995
 -85.899
 -85.8994
 -85.9064
 -85.9067
 -85.9059
 -85.9084
 -85.9084
 -85.9083
 -85.9078
 -85.8919
 -85.8903
 -85.8913
 -85.8908
 -85.885
 -85.8844
 -85.8853
 -85.8847
 -85.8822
 -85.9064
 -85.9062
 -85.9072
 -85.9061
 -85.9066
 -85.9054
 -85.8566
 -85.8563
 -85.8567
 -85.8571
 -85.9033
 -85.9027
 -85.8899
 -85.8896
 -85.8905
 -85.9115
 -85.9119
 -85.8977
 -85.8967
 -85.897
 -85.8973
 -85.8893
 -85.8897
 -85.8897
 -85.9036
 -85.9048
 -85.9042
 -85.9046
 -85.8854
 -85.8856
 -85.8851
 -85.886
 -85.8621
 -85.8628
 -85.8626
 -85.8618
 -85.8968
 -85.8969
 -85.8967
 -85.8976
 -85.9057
 -85.9069
 -85.9058
 -85.9044
 -85.9042
 -85.9045
 -85.904
 -85.8832
 -85.8821
 -85.8822
 -85.8817
 -85.8841
 -85.8848
 -85.88
 -85.8806
 -85.8796
 -85.9112
 -85.9108
 -85.9052
 -85.9045
 -85.9052
 -85.9044
 -85.8944
 -85.8954
 -85.8951
 -85.9031
 -85.9024
 -85.9037
 -85.9036
 -85.8837
 -85.8824
 -85.8826
 -85.8833
 -85.8928
 -85.8927
 -85.8935
 -85.8937
 -85.8926
 -85.8932
 -85.8934
 -85.8927
 -85.882
 -85.8824
 -85.8819
 -85.8845
 -85.884
 -85.8844
 -85.8842
 -85.913
 -85.9133
 -85.9131
 -85.9135
 -85.8763
 -85.8751
 -85.908
 -85.9084
 -85.9083
 -85.9079
 -85.8906
 -85.8914
 -85.891
 -85.8906
 -85.8955
 -85.896
 -85.8961
 -85.8962
 -85.8786
 -85.8791
 -85.8935
 -85.893
 -85.893
 -85.8924
 -85.89
 -85.8897
 -85.8894
 -85.8903
 -85.9057
 -85.9056
 -85.9054
 -85.9058
 -85.8915
 -85.8923
 -85.8923
 -85.8913
 -85.885
 -85.8851
 -85.8984
 -85.8984
 -85.898
 -85.8986
 -85.9017
 -85.9015
 -85.9021
 -85.8944
 -85.8952
 -85.8949
 -85.8954
 -85.8814
 -85.8818
 -85.8811
 -85.8823
 -85.8615
 -85.8624
 -85.8622
 -85.8613
 -85.8922
 -85.8918
 -85.8926
 -85.8934
 -85.8961
 -85.897
 -85.8962
 -85.8962
 -85.889
 -85.8895
 -85.8886
 -85.8888
 -85.8855
 -85.885
 -85.8857
 -85.8861
 -85.906
 -85.9065
 -85.8983
 -85.898
 -85.8976
 -85.8692
 -85.8688
 -85.8682
 -85.8693
 -85.8826
 -85.882
 -85.8829
 -85.8816
 -85.8947
 -85.8949
 -85.8945
 -85.8941
 -85.906
 -85.9062
 -85.9062
 -85.8907
 -85.8903
 -85.8894
 -85.8894
 -85.8844
 -85.8855
 -85.8851
 -85.8844
 -85.9024
 -85.9015
 -85.9015
 -85.902
 -85.8972
 -85.897
 -85.8967
 -85.8967
 -85.9041
 -85.9042
 -85.9041
 -85.9037
 -85.9038
 -85.9039
 -85.9038
 -85.8882
 -85.8884
 -85.8877
 -85.8873
 -85.8915
 -85.8912
 -85.8919
 -85.8633
 -85.8635
 -85.8634
 -85.8629
 -85.885
 -85.885
 -85.8757
 -85.8751
 -85.876
 -85.8765
 -85.8819
 -85.8792
 -85.9071
 -85.8854
 -85.8846
 -85.8851
 -85.8843
 -85.9121
 -85.8983
 -85.8978
 -85.8982
 -85.8973
 -85.885
 -85.8857
 -85.8853
 -85.8885
 -85.8892
 -85.8892
 -85.9047
 -85.9049
 -85.9041
 -85.9049
 -85.9051
 -85.9047
 -85.9051
 -85.9046
 -85.8804
 -85.8793
 -85.8793
 -85.88
 -85.9096
 -85.9097
 -85.91
 -85.9093
 -85.8929
 -85.8923
 -85.8915
 -85.9049
 -85.9053
 -85.9051
 -85.8957
 -85.895
 -85.8952
 -85.8958
 -85.8854
 -85.8859
 -85.885
 -85.8852
 -85.8963
 -85.8974
 -85.8962
 -85.8865
 -85.8869
 -85.8868
 -85.886
 -85.8906
 -85.8917
 -85.9053
 -85.9058
 -85.906
 -85.9065
 -85.9071
 -85.9079
 -85.9074
 -85.9073
 -85.8815
 -85.8824
 -85.8813
 -85.8822
 -85.9017
 -85.9008
 -85.9013
 -85.9019
 -85.8977
 -85.8965
 -85.8975
 -85.8981
 -85.8892
 -85.8885
 -85.8897
 -85.8891
 -85.9062
 -85.9059
 -85.9057
 -85.9053
 -85.8909
 -85.89
 -85.8914
 -85.8909
 -85.8931
 -85.8927
 -85.8926
 -85.8938
 -85.8906
 -85.89
 -85.8907
 -85.8908
 -85.8828
 -85.8837
 -85.8806
 -85.8812
 -85.8818
 -85.8807
 -85.874
 -85.8727
 -85.8738
 -85.8741
 -85.898
 -85.898
 -85.8977
 -85.8986
 -85.8965
 -85.8959
 -85.8957
 -85.9102
 -85.9104
 -85.9104
 -85.9104
 -85.9112
 -85.9115
 -85.911
 -85.908
 -85.9083
 -85.9075
 -85.8959
 -85.8968
 -85.8972
 -85.8961
 -85.9004
 -85.9008
 -85.9012
 -85.9
 -85.9053
 -85.9059
 -85.9056
 -85.906
 -85.8859
 -85.8851
 -85.8853
 -85.8857
 -85.8764
 -85.8771
 -85.8775
 -85.8775
 -85.9117
 -85.9118
 -85.9113
 -85.9122
 -85.884
 -85.8837
 -85.8833
 -85.8841
 -85.8945
 -85.8945
 -85.8949
 -85.8943
 -85.912
 -85.9119
 -85.9114
 -85.9124
 -85.8982
 -85.8974
 -85.8985
 -85.8982
 -85.8901
 -85.8897
 -85.8901
 -85.8898
 -85.8845
 -85.8839
 -85.884
 -85.8792
 -85.8801
 -85.8795
 -85.879
 -85.882
 -85.8818
 -85.8822
 -85.8817
 -85.881
 -85.8808
 -85.8833
 -85.8838
 -85.8823
 -85.9037
 -85.9033
 -85.9032
 -85.9031
 -85.9098
 -85.9095
 -85.9096
 -85.9096
 -85.8998
 -85.8995
 -85.8998
 -85.8988
 -85.8912
 -85.9065
 -85.9068
 -85.9068
 -85.9063
 -85.8797
 -85.8797
 -85.8796
 -85.8795
 -85.9103
 -85.9106
 -85.9102
 -85.9109
 -85.8875
 -85.887
 -85.8881
 -85.9016
 -85.8792
 -85.8792
 -85.8785
 -85.8828
 -85.8822
 -85.8817
 -85.883
 -85.8941
 -85.8941
 -85.8929
 -85.8938
 -85.9029
 -85.9028
 -85.9023
 -85.9034
 -85.8911
 -85.9015
 -85.9011
 -85.901
 -85.8916
 -85.8915
 -85.8916
 -85.8925
 -85.8866
 -85.8868
 -85.8862
 -85.8861
 -85.8885
 -85.8876
 -85.8883
 -85.8885
 -85.9018
 -85.8838
 -85.8839
 -85.8843
 -85.9035
 -85.903
 -85.9037
 -85.9032
 -85.9063
 -85.9061
 -85.9068
 -85.9058
 -85.9092
 -85.9095
 -85.9091
 -85.8862
 -85.8863
 -85.8857
 -85.8862
 -85.8774
 -85.877
 -85.8775
 -85.9046
 -85.9045
 -85.9059
 -85.9056
 -85.9053
 -85.9053
 -85.8914
 -85.8918
 -85.8922
 -85.9107
 -85.9107
 -85.9111
 -85.9106
 -85.9061
 -85.9059
 -85.9062
 -85.9063
 -85.899
 -85.899
 -85.8995
 -85.8997
 -85.8951
 -85.8953
 -85.8948
 -85.8941
 -85.8844
 -85.8843
 -85.8841
 -85.8847
 -85.9058
 -85.9058
 -85.9054
 -85.9062
 -85.8868
 -85.887
 -85.8859
 -85.8889
 -85.8896
 -85.8898
 -85.8899
 -85.9094
 -85.9093
 -85.91
 -85.9097
 -85.9012
 -85.9012
 -85.901
 -85.9007
 -85.9111
 -85.9108
 -85.9103
 -85.9109
 -85.8881
 -85.8886
 -85.8889
 -85.8888
 -85.8947
 -85.8949
 -85.8941
 -85.8955
 -85.9075
 -85.9074
 -85.9078
 -85.9076
 -85.8939
 -85.8945
 -85.8935
 -85.8938
 -85.9112
 -85.9116
 -85.9112
 -85.8856
 -85.8853
 -85.8852
 -85.8854
 -85.8965
 -85.8965
 -85.896
 -85.8956
 -85.8981
 -85.8987
 -85.8981
 -85.8983
 -85.8927
 -85.8923
 -85.8936
 -85.8926
 -85.9063
 -85.9064
 -85.907
 -85.9065
 -85.8923
 -85.8914
 -85.8919
 -85.8917
 -85.8981
 -85.8978
 -85.8978
 -85.8975
 -85.8794
 -85.8793
 -85.8792
 -85.8794
 -85.9044
 -85.9045
 -85.904
 -85.9036
 -85.8784
 -85.8784
 -85.8784
 -85.8843
 -85.8839
 -85.884
 -85.8845
 -85.8808
 -85.8813
 -85.8828
 -85.8815
 -85.9024
 -85.9022
 -85.9027
 -85.903
 -85.8998
 -85.9007
 -85.8999
 -85.9002
 -85.8873
 -85.8865
 -85.8866
 -85.8861
 -85.9126
 -85.9124
 -85.9121
 -85.8637
 -85.8635
 -85.8978
 -85.8983
 -85.8974
 -85.8979
 -85.8713
 -85.8703
 -85.8693
 -85.8702
 -85.8997
 -85.8999
 -85.9007
 -85.9002
 -85.8893
 -85.887
 -85.8867
 -85.8865
 -85.886
 -85.9032
 -85.9033
 -85.9035
 -85.9038
 -85.9079
 -85.9075
 -85.9083
 -85.9077
 -85.8793
 -85.8793
 -85.9014
 -85.9017
 -85.9028
 -85.9016
 -85.8961
 -85.8947
 -85.8963
 -85.8955
 -85.884
 -85.884
 -85.8836
 -85.8851
 -85.8923
 -85.8915
 -85.8914
 -85.8923
 -85.9053
 -85.9046
 -85.9061
 -85.9101
 -85.9099
 -85.9099
 -85.9098
 -85.9118
 -85.9118
 -85.912
 -85.8874
 -85.887
 -85.8871
 -85.8876
 -85.908
 -85.9078
 -85.9074
 -85.9074
 -85.8813
 -85.8807
 -85.881
 -85.8811
 -85.8996
 -85.8992
 -85.8997
 -85.8987
 -85.896
 -85.897
 -85.8962
 -85.8962
 -85.91
 -85.91
 -85.9099
 -85.9103
 -85.9007
 -85.901
 -85.9006
 -85.9001
 -85.8686
 -85.8681
 -85.8679
 -85.8686
 -85.891
 -85.8897
 -85.8909
 -85.8901
 -85.8873
 -85.8882
 -85.8883
 -85.8871
 -85.9028
 -85.9029
 -85.9023
 -85.902
 -85.8821
 -85.8816
 -85.8814
 -85.8814
 -85.8974
 -85.8969
 -85.8968
 -85.8977
 -85.886
 -85.8856
 -85.8853
 -85.876
 -85.8755
 -85.8754
 -85.8753
 -85.8974
 -85.8981
 -85.8971
 -85.899
 -85.899
 -85.8986
 -85.8838
 -85.8832
 -85.8826
 -85.8814
 -85.8813
 -85.8817
 -85.8819
 -85.9076
 -85.8558
 -85.8561
 -85.8561
 -85.8554
 -85.9062
 -85.9058
 -85.9066
 -85.9061
 -85.8793
 -85.8886
 -85.8885
 -85.8884
 -85.8893
 -85.8872
 -85.8866
 -85.8883
 -85.8827
 -85.8839
 -85.8833
 -85.883
 -85.8699
 -85.8697
 -85.8703
 -85.869
 -85.8811
 -85.8817
 -85.8816
 -85.8953
 -85.8949
 -85.8948
 -85.8874
 -85.8871
 -85.9131
 -85.9127
 -85.9126
 -85.8809
 -85.8817
 -85.8806
 -85.8879
 -85.8885
 -85.8889
 -85.9079
 -85.9085
 -85.9085
 -85.9033
 -85.9034
 -85.9039
 -85.9034
 -85.884
 -85.8843
 -85.8846
 -85.8783
 -85.8776
 -85.9098
 -85.9095
 -85.9101
 -85.9099
 -85.8725
 -85.8728
 -85.8717
 -85.8734
 -85.8807
 -85.8805
 -85.8614
 -85.8607
 -85.866
 -85.8658
 -85.8662
 -85.8884
 -85.8891
 -85.8881
 -85.9093
 -85.9087
 -85.9083
 -85.9011
 -85.901
 -85.9016
 -85.8848
 -85.8848
 -85.8856
 -85.8861
 -85.8853
 -85.9073
 -85.8781
 -85.8781
 -85.8785
 -85.8785
 -85.8876
 -85.889
 -85.8879
 -85.8881
 -85.9027
 -85.9027
 -85.9032
 -85.9007
 -85.9008
 -85.9004
 -85.9006
 -85.8885
 -85.8881
 -85.8889
 -85.8896
 -85.9018
 -85.9019
 -85.9027
 -85.9026
 -85.9036
 -85.9032
 -85.9035
 -85.9041
 -85.893
 -85.9015
 -85.9018
 -85.9019
 -85.9022
 -85.911
 -85.9112
 -85.9109
 -85.9107
 -85.8825
 -85.8811
 -85.8808
 -85.8817
 -85.91
 -85.9105
 -85.9102
 -85.9101
 -85.8605
 -85.861
 -85.8602
 -85.9091
 -85.9088
 -85.9096
 -85.9094
 -85.8829
 -85.8828
 -85.882
 -85.882
 -85.9049
 -85.9043
 -85.9048
 -85.9052
 -85.8809
 -85.8809
 -85.8793
 -85.8797
 -85.9109
 -85.9048
 -85.904
 -85.9045
 -85.9038
 -85.9077
 -85.9082
 -85.9081
 -85.8783
 -85.8787
 -85.8781
 -85.8779
 -85.9021
 -85.9017
 -85.9016
 -85.9012
 -85.8972
 -85.898
 -85.8981
 -85.8977
 -85.8959
 -85.8963
 -85.8955
 -85.8953
 -85.9126
 -85.9121
 -85.8897
 -85.8897
 -85.8896
 -85.8885
 -85.8892
 -85.8896
 -85.8899
 -85.9018
 -85.9012
 -85.9024
 -85.9025
 -85.9011
 -85.9014
 -85.9014
 -85.902
 -85.8978
 -85.898
 -85.8984
 -85.8975
 -85.8834
 -85.8834
 -85.8859
 -85.8854
 -85.8853
 -85.8881
 -85.8886
 -85.8886
 -85.8887
 -85.8764
 -85.8757
 -85.876
 -85.8759
 -85.8877
 -85.8869
 -85.8863
 -85.8696
 -85.8696
 -85.8705
 -85.8877
 -85.8877
 -85.887
 -85.8882
 -85.8831
 -85.884
 -85.8827
 -85.8924
 -85.9023
 -85.9019
 -85.9028
 -85.8897
 -85.8896
 -85.8902
 -85.8906
 -85.8804
 -85.8804
 -85.8823
 -85.8814
 -85.8936
 -85.8943
 -85.8944
 -85.8944
 -85.9043
 -85.9039
 -85.9126
 -85.9123
 -85.9121
 -85.9126
 -85.9021
 -85.9021
 -85.9025
 -85.9016
 -85.8907
 -85.8906
 -85.8905
 -85.891
 -85.9108
 -85.9109
 -85.9117
 -85.9105
 -85.9107
 -85.9108
 -85.911
 -85.8943
 -85.8935
 -85.893
 -85.8939
 -85.8802
 -85.88
 -85.8806
 -85.8898
 -85.8898
 -85.8907
 -85.8898
 -85.8773
 -85.8764
 -85.8775
 -85.8763
 -85.8997
 -85.8998
 -85.9
 -85.8982
 -85.8795
 -85.8795
 -85.8795
 -85.8797
 -85.8841
 -85.8846
 -85.8848
 -85.8844
 -85.9094
 -85.9088
 -85.9096
 -85.9089
 -85.894
 -85.8941
 -85.8933
 -85.8941
 -85.8875
 -85.887
 -85.8877
 -85.8871
 -85.9031
 -85.9031
 -85.9037
 -85.9048
 -85.9044
 -85.9043
 -85.8889
 -85.8899
 -85.8895
 -85.8906
 -85.891
 -85.8915
 -85.8912
 -85.8912
 -85.8804
 -85.8808
 -85.8803
 -85.8883
 -85.8878
 -85.8873
 -85.8579
 -85.8571
 -85.8578
 -85.8574
 -85.8847
 -85.8849
 -85.8781
 -85.8785
 -85.8782
 -85.8774
 -85.8963
 -85.8954
 -85.8962
 -85.8953
 -85.87
 -85.8712
 -85.8716
 -85.8707
 -85.8825
 -85.8823
 -85.8816
 -85.9005
 -85.9007
 -85.9006
 -85.9002
 -85.8819
 -85.8827
 -85.8817
 -85.8799
 -85.88
 -85.8791
 -85.8794
 -85.8876
 -85.8872
 -85.8873
 -85.8881
 -85.9034
 -85.905
 -85.8658
 -85.8662
 -85.8841
 -85.8835
 -85.8912
 -85.8904
 -85.8907
 -85.8905
 -85.8995
 -85.9002
 -85.8996
 -85.9004
 -85.8924
 -85.8925
 -85.8929
 -85.8931
 -85.8777
 -85.8763
 -85.8773
 -85.8771
 -85.8967
 -85.8959
 -85.8962
 -85.8804
 -85.88
 -85.8803
 -85.8803
 -85.9081
 -85.9079
 -85.9085
 -85.9076
 -85.9
 -85.9001
 -85.9002
 -85.8993
 -85.8812
 -85.8817
 -85.881
 -85.8907
 -85.8898
 -85.8907
 -85.8911
 -85.8779
 -85.8777
 -85.878
 -85.882
 -85.8829
 -85.8826
 -85.8821
 -85.8818
 -85.8817
 -85.8824
 -85.8819
 -85.8904
 -85.8897
 -85.8896
 -85.8892
 -85.9109
 -85.9107
 -85.9104
 -85.9105
 -85.8978
 -85.8988
 -85.8984
 -85.8986
 -85.8898
 -85.8888
 -85.8895
 -85.8947
 -85.8944
 -85.8943
 -85.9075
 -85.9066
 -85.9074
 -85.9069
 -85.898
 -85.898
 -85.8974
 -85.8984
 -85.8891
 -85.8898
 -85.89
 -85.89
 -85.8763
 -85.8765
 -85.8811
 -85.8807
 -85.8814
 -85.8814
 -85.8634
 -85.8631
 -85.8621
 -85.8632
 -85.9027
 -85.9028
 -85.9028
 -85.9024
 -85.8826
 -85.8818
 -85.8821
 -85.882
 -85.8926
 -85.8919
 -85.8923
 -85.8914
 -85.8747
 -85.8744
 -85.8744
 -85.8742
 -85.8951
 -85.8949
 -85.8945
 -85.8945
 -85.8905
 -85.9016
 -85.9015
 -85.9007
 -85.9009
 -85.8893
 -85.8883
 -85.8881
 -85.889
 -85.8885
 -85.889
 -85.8896
 -85.8893
 -85.8866
 -85.8858
 -85.8859
 -85.8856
 -85.8808
 -85.88
 -85.8812
 -85.9052
 -85.9054
 -85.9055
 -85.9043
 -85.8887
 -85.8884
 -85.8884
 -85.8881
 -85.9045
 -85.9048
 -85.9053
 -85.9003
 -85.8997
 -85.9002
 -85.9
 -85.9035
 -85.9045
 -85.904
 -85.9046
 -85.8789
 -85.8797
 -85.8787
 -85.8553
 -85.8557
 -85.8558
 -85.9008
 -85.9016
 -85.9015
 -85.8953
 -85.8966
 -85.896
 -85.8968
 -85.8875
 -85.8878
 -85.8881
 -85.8874
 -85.8899
 -85.8901
 -85.8891
 -85.8893
 -85.8678
 -85.8683
 -85.8669
 -85.8685
 -85.8927
 -85.8923
 -85.8922
 -85.8921
 -85.8973
 -85.8975
 -85.898
 -85.8969
 -85.8826
 -85.8827
 -85.8845
 -85.8832
 -85.8839
 -85.884
 -85.9009
 -85.9003
 -85.9007
 -85.9006
 -85.8822
 -85.8829
 -85.8982
 -85.8978
 -85.878
 -85.8569
 -85.8568
 -85.8568
 -85.8575
 -85.8745
 -85.8754
 -85.9117
 -85.9122
 -85.9118
 -85.8765
 -85.8773
 -85.878
 -85.8772
 -85.9018
 -85.9017
 -85.884
 -85.8838
 -85.884
 -85.884
 -85.8864
 -85.8878
 -85.8874
 -85.9017
 -85.9022
 -85.9018
 -85.9026
 -85.8986
 -85.8993
 -85.8986
 -85.8989
 -85.906
 -85.9061
 -85.9068
 -85.89
 -85.8892
 -85.89
 -85.889
 -85.8925
 -85.9061
 -85.9053
 -85.906
 -85.9058
 -85.8784
 -85.8782
 -85.8786
 -85.8789
 -85.8943
 -85.8935
 -85.8942
 -85.8934
 -85.9028
 -85.9019
 -85.9026
 -85.902
 -85.8609
 -85.8612
 -85.8615
 -85.8617
 -85.8813
 -85.9108
 -85.8881
 -85.8892
 -85.8884
 -85.8877
 -85.8939
 -85.8945
 -85.8936
 -85.8934
 -85.8828
 -85.8818
 -85.8824
 -85.8826
 -85.8953
 -85.895
 -85.8953
 -85.8955
 -85.8807
 -85.8808
 -85.8815
 -85.8797
 -85.8803
 -85.8808
 -85.8803
 -85.8896
 -85.8903
 -85.889
 -85.8897
 -85.9028
 -85.9033
 -85.902
 -85.9126
 -85.9131
 -85.9127
 -85.9125
 -85.8674
 -85.8666
 -85.8664
 -85.8918
 -85.8919
 -85.8902
 -85.8905
 -85.8897
 -85.8909
 -85.9088
 -85.9087
 -85.9087
 -85.9091
 -85.9008
 -85.9002
 -85.9006
 -85.9
 -85.8807
 -85.8818
 -85.881
 -85.8727
 -85.8892
 -85.8884
 -85.8887
 -85.8893
 -85.891
 -85.8914
 -85.8912
 -85.9001
 -85.8998
 -85.8998
 -85.9004
 -85.9033
 -85.9024
 -85.903
 -85.9026
 -85.8884
 -85.8879
 -85.9012
 -85.9011
 -85.9015
 -85.902
 -85.8958
 -85.8956
 -85.8957
 -85.8964
 -85.9104
 -85.9106
 -85.8975
 -85.8967
 -85.8975
 -85.8971
 -85.9012
 -85.9016
 -85.9018
 -85.902
 -85.9001
 -85.9006
 -85.9001
 -85.9001
 -85.892
 -85.8924
 -85.8897
 -85.8902
 -85.8895
 -85.889
 -85.8861
 -85.8854
 -85.8857
 -85.8858
 -85.8957
 -85.8963
 -85.8962
 -85.8957
 -85.8801
 -85.8807
 -85.8811
 -85.8814
 -85.8827
 -85.8825
 -85.8822
 -85.8825
 -85.8652
 -85.8656
 -85.8655
 -85.8646
 -85.886
 -85.8848
 -85.8947
 -85.8936
 -85.8945
 -85.894
 -85.8882
 -85.8879
 -85.8885
 -85.889
 -85.8933
 -85.8938
 -85.8941
 -85.8936
 -85.8902
 -85.8902
 -85.9014
 -85.9011
 -85.9116
 -85.9117
 -85.9117
 -85.9119
 -85.8772
 -85.8898
 -85.8897
 -85.89
 -85.8905
 -85.8933
 -85.8924
 -85.8927
 -85.8927
 -85.8846
 -85.8841
 -85.8839
 -85.8832
 -85.8998
 -85.8989
 -85.8998
 -85.899
 -85.8938
 -85.8932
 -85.893
 -85.8937
 -85.8806
 -85.8804
 -85.8809
 -85.88
 -85.8797
 -85.8874
 -85.8884
 -85.8874
 -85.8881
 -85.8872
 -85.8884
 -85.8874
 -85.887
 -85.8809
 -85.8809
 -85.8803
 -85.8809
 -85.8829
 -85.8832
 -85.8842
 -85.8838
 -85.8903
 -85.891
 -85.8898
 -85.8898
 -85.881
 -85.8806
 -85.8803
 -85.8805
 -85.895
 -85.8953
 -85.8943
 -85.8848
 -85.8848
 -85.8846
 -85.8845
 -85.8711
 -85.8718
 -85.8946
 -85.8951
 -85.8953
 -85.894
 -85.895
 -85.8945
 -85.895
 -85.8785
 -85.879
 -85.8793
 -85.8763
 -85.8767
 -85.8767
 -85.8764
 -85.898
 -85.8979
 -85.8983
 -85.8975
 -85.894
 -85.8929
 -85.8941
 -85.9042
 -85.9032
 -85.9036
 -85.8914
 -85.8907
 -85.8909
 -85.906
 -85.906
 -85.9061
 -85.863
 -85.8624
 -85.8626
 -85.863
 -85.9104
 -85.9106
 -85.9104
 -85.9106
 -85.886
 -85.8853
 -85.8958
 -85.895
 -85.8805
 -85.8806
 -85.8805
 -85.8812
 -85.897
 -85.8968
 -85.8977
 -85.902
 -85.9025
 -85.9024
 -85.9026
 -85.9058
 -85.9049
 -85.8785
 -85.8786
 -85.8784
 -85.8949
 -85.8948
 -85.8941
 -85.8837
 -85.883
 -85.8838
 -85.8786
 -85.8786
 -85.8782
 -85.878
 -85.8892
 -85.8894
 -85.8887
 -85.8897
 -85.8882
 -85.8874
 -85.8877
 -85.8881
 -85.8992
 -85.8989
 -85.8988
 -85.8996
 -85.9018
 -85.9013
 -85.9016
 -85.9009
 -85.8872
 -85.887
 -85.8878
 -85.8979
 -85.8978
 -85.8973
 -85.9005
 -85.9011
 -85.9007
 -85.9008
 -85.9133
 -85.9131
 -85.9134
 -85.8924
 -85.8922
 -85.8921
 -85.8999
 -85.9003
 -85.8993
 -85.8913
 -85.8918
 -85.8909
 -85.8854
 -85.8845
 -85.8846
 -85.8787
 -85.8791
 -85.8789
 -85.8791
 -85.8914
 -85.8912
 -85.892
 -85.8914
 -85.8837
 -85.8834
 -85.8827
 -85.8804
 -85.8811
 -85.8997
 -85.8992
 -85.9003
 -85.8997
 -85.8997
 -85.9002
 -85.8996
 -85.899
 -85.8811
 -85.8819
 -85.8822
 -85.8825
 -85.8806
 -85.8799
 -85.8803
 -85.8798
 -85.8739
 -85.8735
 -85.8739
 -85.8732
 -85.9083
 -85.9086
 -85.905
 -85.9043
 -85.9046
 -85.9051
 -85.9102
 -85.885
 -85.8858
 -85.8848
 -85.8929
 -85.8932
 -85.8926
 -85.8924
 -85.8811
 -85.881
 -85.8907
 -85.8906
 -85.8912
 -85.8777
 -85.878
 -85.904
 -85.9041
 -85.9047
 -85.9036
 -85.9064
 -85.9062
 -85.9072
 -85.9068
 -85.9025
 -85.9028
 -85.902
 -85.8858
 -85.8864
 -85.8863
 -85.9058
 -85.9057
 -85.906
 -85.9062
 -85.8836
 -85.8826
 -85.8833
 -85.8837
 -85.9032
 -85.9027
 -85.9027
 -85.9032
 -85.8838
 -85.8829
 -85.8827
 -85.8842
 -85.8792
 -85.8795
 -85.8788
 -85.9104
 -85.9112
 -85.9107
 -85.9106
 -85.8798
 -85.8801
 -85.88
 -85.8892
 -85.8895
 -85.8902
 -85.8895
 -85.9091
 -85.9097
 -85.9094
 -85.8835
 -85.8829
 -85.8836
 -85.883
 -85.8978
 -85.9079
 -85.9082
 -85.9071
 -85.9078
 -85.8776
 -85.8779
 -85.8782
 -85.8779
 -85.9001
 -85.899
 -85.8998
 -85.9002
 -85.8925
 -85.8928
 -85.8916
 -85.8792
 -85.8787
 -85.8794
 -85.8776
 -85.8987
 -85.8985
 -85.899
 -85.8828
 -85.8825
 -85.864
 -85.8632
 -85.8642
 -85.8645
 -85.8743
 -85.8726
 -85.8724
 -85.9061
 -85.9058
 -85.9074
 -85.9065
 -85.9065
 -85.9068
 -85.8757
 -85.876
 -85.875
 -85.8761
 -85.8882
 -85.8886
 -85.8886
 -85.8887
 -85.8906
 -85.8895
 -85.8896
 -85.89
 -85.8943
 -85.894
 -85.8949
 -85.894
 -85.8948
 -85.8936
 -85.8944
 -85.8939
 -85.9091
 -85.8805
 -85.8802
 -85.8806
 -85.8803
 -85.9095
 -85.9092
 -85.9098
 -85.8956
 -85.8947
 -85.8944
 -85.8947
 -85.8787
 -85.8795
 -85.8797
 -85.8935
 -85.8928
 -85.8934
 -85.8928
 -85.8915
 -85.899
 -85.8992
 -85.9
 -85.8997
 -85.884
 -85.884
 -85.884
 -85.8917
 -85.8931
 -85.8927
 -85.9096
 -85.9093
 -85.9088
 -85.9092
 -85.891
 -85.8906
 -85.8904
 -85.8609
 -85.8613
 -85.8604
 -85.8909
 -85.8904
 -85.8908
 -85.8897
 -85.8995
 -85.9001
 -85.9
 -85.8923
 -85.8924
 -85.906
 -85.9063
 -85.9056
 -85.9057
 -85.9026
 -85.9032
 -85.9028
 -85.9028
 -85.9111
 -85.911
 -85.9106
 -85.9104
 -85.8946
 -85.8931
 -85.8941
 -85.8945
 -85.9011
 -85.9009
 -85.9006
 -85.9003
 -85.906
 -85.9064
 -85.9068
 -85.8831
 -85.8835
 -85.8824
 -85.8828
 -85.89
 -85.8908
 -85.8867
 -85.8862
 -85.8869
 -85.8865
 -85.8995
 -85.8993
 -85.8995
 -85.8999
 -85.8909
 -85.8917
 -85.8914
 -85.8907
 -85.8991
 -85.8988
 -85.8998
 -85.8989
 -85.8921
 -85.8924
 -85.8928
 -85.893
 -85.8914
 -85.8906
 -85.8908
 -85.9052
 -85.9048
 -85.9052
 -85.9083
 -85.9082
 -85.908
 -85.909
 -85.907
 -85.907
 -85.9074
 -85.9013
 -85.9022
 -85.9015
 -85.8667
 -85.8665
 -85.8658
 -85.8899
 -85.8909
 -85.8901
 -85.9048
 -85.9051
 -85.9048
 -85.9047
 -85.8898
 -85.8902
 -85.8897
 -85.8948
 -85.8953
 -85.8951
 -85.8945
 -85.8978
 -85.8962
 -85.8968
 -85.8966
 -85.8915
 -85.8921
 -85.892
 -85.8926
 -85.8818
 -85.8823
 -85.8819
 -85.8816
 -85.8901
 -85.8948
 -85.8948
 -85.8952
 -85.8938
 -85.8797
 -85.8799
 -85.8801
 -85.88
 -85.8788
 -85.8794
 -85.879
 -85.8794
 -85.8807
 -85.881
 -85.8809
 -85.8804
 -85.8981
 -85.8981
 -85.8989
 -85.8993
 -85.8831
 -85.8826
 -85.8829
 -85.8831
 -85.9109
 -85.9103
 -85.9108
 -85.9104
 -85.8725
 -85.8729
 -85.8736
 -85.8734
 -85.8823
 -85.8824
 -85.8822
 -85.8774
 -85.8769
 -85.8767
 -85.8767
 -85.8799
 -85.8795
 -85.8804
 -85.8803
 -85.8804
 -85.8928
 -85.8927
 -85.8932
 -85.8944
 -85.9085
 -85.908
 -85.9077
 -85.9084
 -85.9083
 -85.9086
 -85.9081
 -85.8814
 -85.8809
 -85.9101
 -85.9105
 -85.9099
 -85.9054
 -85.9053
 -85.9054
 -85.9059
 -85.8799
 -85.8796
 -85.8799
 -85.9107
 -85.9109
 -85.9104
 -85.9111
 -85.8862
 -85.8865
 -85.887
 -85.8858
 -85.8809
 -85.8799
 -85.8804
 -85.881
 -85.8771
 -85.8782
 -85.8777
 -85.8776
 -85.8695
 -85.8697
 -85.8691
 -85.869
 -85.8966
 -85.8979
 -85.8973
 -85.8976
 -85.8871
 -85.8871
 -85.8868
 -85.8859
 -85.9104
 -85.91
 -85.9104
 -85.8599
 -85.8608
 -85.8603
 -85.8613
 -85.8741
 -85.875
 -85.8744
 -85.8753
 -85.9103
 -85.911
 -85.9107
 -85.9106
 -85.8919
 -85.892
 -85.8928
 -85.9068
 -85.9076
 -85.9078
 -85.8812
 -85.881
 -85.88
 -85.9105
 -85.9102
 -85.9101
 -85.9103
 -85.9052
 -85.9049
 -85.9047
 -85.9042
 -85.8842
 -85.8846
 -85.8852
 -85.8845
 -85.8871
 -85.8862
 -85.887
 -85.886
 -85.903
 -85.903
 -85.9031
 -85.9038
 -85.8939
 -85.8935
 -85.8929
 -85.8933
 -85.8712
 -85.8721
 -85.8722
 -85.872
 -85.906
 -85.9049
 -85.9056
 -85.9052
 -85.9112
 -85.8926
 -85.8928
 -85.8933
 -85.8933
 -85.908
 -85.9084
 -85.9082
 -85.9088
 -85.8798
 -85.8798
 -85.88
 -85.88
 -85.9099
 -85.9103
 -85.9097
 -85.9095
 -85.891
 -85.8908
 -85.8874
 -85.887
 -85.8876
 -85.8878
 -85.9024
 -85.9016
 -85.9015
 -85.9016
 -85.8948
 -85.8956
 -85.8954
 -85.8869
 -85.8868
 -85.8871
 -85.9027
 -85.9026
 -85.9019
 -85.902
 -85.9007
 -85.9004
 -85.9011
 -85.9005
 -85.8815
 -85.881
 -85.8809
 -85.8915
 -85.8932
 -85.8932
 -85.8922
 -85.8726
 -85.8723
 -85.8732
 -85.872
 -85.8712
 -85.9106
 -85.9094
 -85.9106
 -85.9098
 -85.8929
 -85.8924
 -85.892
 -85.8929
 -85.9067
 -85.9071
 -85.8895
 -85.8883
 -85.8884
 -85.8836
 -85.8829
 -85.884
 -85.8838
 -85.9101
 -85.9099
 -85.9104
 -85.9104
 -85.8807
 -85.8809
 -85.8808
 -85.8841
 -85.8839
 -85.8845
 -85.8839
 -85.8866
 -85.8876
 -85.8869
 -85.8859
 -85.8993
 -85.9006
 -85.8997
 -85.9001
 -85.8827
 -85.8837
 -85.8832
 -85.8831
 -85.9017
 -85.8968
 -85.8977
 -85.8979
 -85.8966
 -85.9082
 -85.9084
 -85.9077
 -85.9095
 -85.9093
 -85.9092
 -85.9088
 -85.8974
 -85.8979
 -85.897
 -85.8974
 -85.9118
 -85.9118
 -85.9117
 -85.9111
 -85.8867
 -85.8954
 -85.8943
 -85.8943
 -85.8951
 -85.893
 -85.8917
 -85.8923
 -85.8926
 -85.8697
 -85.8706
 -85.871
 -85.87
 -85.8905
 -85.8907
 -85.891
 -85.89
 -85.8892
 -85.8892
 -85.8895
 -85.8899
 -85.8897
 -85.8899
 -85.8905
 -85.9068
 -85.9063
 -85.906
 -85.8892
 -85.8882
 -85.8884
 -85.8888
 -85.9059
 -85.9068
 -85.9064
 -85.8918
 -85.8912
 -85.8937
 -85.8942
 -85.894
 -85.8935
 -85.8932
 -85.8934
 -85.8925
 -85.8927
 -85.8937
 -85.8934
 -85.9075
 -85.9078
 -85.9078
 -85.8869
 -85.9091
 -85.8947
 -85.8953
 -85.8946
 -85.8939
 -85.8798
 -85.8798
 -85.8789
 -85.8817
 -85.8825
 -85.8829
 -85.8935
 -85.8938
 -85.8929
 -85.8911
 -85.8911
 -85.8915
 -85.8919
 -85.8929
 -85.8922
 -85.8934
 -85.8923
 -85.8603
 -85.8605
 -85.8597
 -85.9027
 -85.902
 -85.9026
 -85.891
 -85.8913
 -85.9044
 -85.9035
 -85.9038
 -85.9035
 -85.8958
 -85.8964
 -85.8958
 -85.87
 -85.8703
 -85.8692
 -85.8695
 -85.889
 -85.8881
 -85.8889
 -85.8881
 -85.8821
 -85.8818
 -85.8815
 -85.8813
 -85.899
 -85.898
 -85.8986
 -85.899
 -85.8856
 -85.8849
 -85.8855
 -85.8844
 -85.8726
 -85.8723
 -85.8724
 -85.8867
 -85.8865
 -85.886
 -85.8863
 -85.8991
 -85.8999
 -85.8995
 -85.8997
 -85.892
 -85.8929
 -85.893
 -85.8925
 -85.8833
 -85.8829
 -85.8833
 -85.8883
 -85.8876
 -85.8879
 -85.8878
 -85.8818
 -85.881
 -85.8819
 -85.8812
 -85.8777
 -85.8788
 -85.8785
 -85.8774
 -85.91
 -85.9102
 -85.91
 -85.9102
 -85.8811
 -85.8816
 -85.8814
 -85.8816
 -85.8829
 -85.8823
 -85.883
 -85.883
 -85.8978
 -85.8987
 -85.8985
 -85.899
 -85.8861
 -85.886
 -85.8868
 -85.8864
 -85.9129
 -85.9131
 -85.913
 -85.9131
 -85.8899
 -85.8895
 -85.8902
 -85.8793
 -85.8788
 -85.8789
 -85.8796
 -85.8808
 -85.8805
 -85.8807
 -85.8804
 -85.8808
 -85.8796
 -85.9005
 -85.8998
 -85.9005
 -85.8995
 -85.9128
 -85.9124
 -85.9126
 -85.9125
 -85.888
 -85.8873
 -85.8876
 -85.8872
 -85.8817
 -85.8813
 -85.8812
 -85.8988
 -85.898
 -85.898
 -85.8986
 -85.8898
 -85.8898
 -85.89
 -85.8908
 -85.8836
 -85.8837
 -85.8835
 -85.8842
 -85.8787
 -85.8797
 -85.8791
 -85.9031
 -85.9039
 -85.9042
 -85.9033
 -85.9056
 -85.9054
 -85.9049
 -85.8881
 -85.8879
 -85.8885
 -85.889
 -85.8887
 -85.8884
 -85.8893
 -85.8832
 -85.8841
 -85.8845
 -85.8842
 -85.8985
 -85.8981
 -85.8976
 -85.8807
 -85.8807
 -85.88
 -85.8925
 -85.8934
 -85.8931
 -85.9055
 -85.9047
 -85.9053
 -85.8998
 -85.8997
 -85.8864
 -85.8869
 -85.8863
 -85.8869
 -85.8872
 -85.8868
 -85.8908
 -85.8898
 -85.8837
 -85.8779
 -85.8781
 -85.8775
 -85.9063
 -85.9062
 -85.9052
 -85.8881
 -85.8888
 -85.8886
 -85.888
 -85.8841
 -85.8921
 -85.8925
 -85.8987
 -85.899
 -85.8985
 -85.8993
 -85.892
 -85.8913
 -85.8921
 -85.8883
 -85.8887
 -85.8875
 -85.8884
 -85.8866
 -85.8879
 -85.8892
 -85.8885
 -85.8881
 -85.8895
 -85.9071
 -85.9065
 -85.9064
 -85.9069
 -85.9077
 -85.9081
 -85.9086
 -85.9085
 -85.8806
 -85.8812
 -85.8916
 -85.8916
 -85.8913
 -85.8906
 -85.8952
 -85.8955
 -85.8958
 -85.8961
 -85.8975
 -85.8981
 -85.8975
 -85.8973
 -85.8909
 -85.8904
 -85.8902
 -85.891
 -85.8895
 -85.8901
 -85.8896
 -85.8893
 -85.9054
 -85.9045
 -85.9054
 -85.9053
 -85.8814
 -85.8822
 -85.8826
 -85.8831
 -85.8817
 -85.8825
 -85.8821
 -85.9029
 -85.9035
 -85.9043
 -85.9047
 -85.8833
 -85.8839
 -85.8836
 -85.8841
 -85.9091
 -85.9087
 -85.9091
 -85.909
 -85.9059
 -85.9056
 -85.9058
 -85.9054
 -85.8874
 -85.8878
 -85.8871
 -85.8874
 -85.9
 -85.9003
 -85.9
 -85.8992
 -85.8839
 -85.8843
 -85.8849
 -85.885
 -85.9026
 -85.9022
 -85.9024
 -85.8811
 -85.8815
 -85.881
 -85.8813
 -85.8965
 -85.8961
 -85.8966
 -85.8969
 -85.8867
 -85.8869
 -85.9017
 -85.9029
 -85.9023
 -85.9022
 -85.9032
 -85.903
 -85.9025
 -85.89
 -85.8911
 -85.8902
 -85.9039
 -85.904
 -85.9043
 -85.9047
 -85.8732
 -85.8735
 -85.8741
 -85.8739
 -85.8836
 -85.8839
 -85.8845
 -85.8847
 -85.8965
 -85.8955
 -85.8957
 -85.8965
 -85.9075
 -85.9077
 -85.9072
 -85.9078
 -85.9059
 -85.9065
 -85.9065
 -85.906
 -85.9075
 -85.9074
 -85.9076
 -85.9073
 -85.9075
 -85.8851
 -85.8856
 -85.8851
 -85.8858
 -85.8816
 -85.8818
 -85.8807
 -85.8814
 -85.8849
 -85.8849
 -85.8866
 -85.8874
 -85.8867
 -85.8866
 -85.8889
 -85.8888
 -85.8897
 -85.8888
 -85.8821
 -85.8821
 -85.8815
 -85.893
 -85.8925
 -85.8927
 -85.8924
 -85.9132
 -85.9131
 -85.9127
 -85.8853
 -85.8852
 -85.8855
 -85.8863
 -85.9041
 -85.9032
 -85.9037
 -85.904
 -85.8992
 -85.9
 -85.8997
 -85.8919
 -85.8915
 -85.8923
 -85.9
 -85.9008
 -85.9
 -85.9053
 -85.9049
 -85.8993
 -85.8993
 -85.8993
 -85.884
 -85.8843
 -85.8845
 -85.8837
 -85.9084
 -85.9088
 -85.9084
 -85.9082
 -85.8967
 -85.8975
 -85.897
 -85.8678
 -85.8668
 -85.8664
 -85.8676
 -85.879
 -85.8786
 -85.8946
 -85.8867
 -85.8878
 -85.8871
 -85.8867
 -85.893
 -85.8939
 -85.8938
 -85.9022
 -85.9022
 -85.9017
 -85.9023
 -85.9095
 -85.9097
 -85.8917
 -85.8915
 -85.8915
 -85.8909
 -85.8779
 -85.8771
 -85.8771
 -85.8779
 -85.9062
 -85.9066
 -85.9065
 -85.9063
 -85.8963
 -85.8967
 -85.8962
 -85.8615
 -85.8611
 -85.8604
 -85.8605
 -85.8813
 -85.8811
 -85.8806
 -85.8851
 -85.8857
 -85.8846
 -85.8853
 -85.8963
 -85.8964
 -85.8961
 -85.897
 -85.8918
 -85.8924
 -85.8794
 -85.8796
 -85.8795
 -85.8795
 -85.8969
 -85.8977
 -85.8852
 -85.8841
 -85.8846
 -85.8849
 -85.8881
 -85.8884
 -85.8875
 -85.8881
 -85.8921
 -85.893
 -85.8932
 -85.8926
 -85.8844
 -85.884
 -85.8831
 -85.899
 -85.8981
 -85.899
 -85.8982
 -85.9032
 -85.9039
 -85.9044
 -85.9034
 -85.9023
 -85.9023
 -85.9025
 -85.903
 -85.8772
 -85.8764
 -85.8769
 -85.8762
 -85.8926
 -85.892
 -85.8654
 -85.8646
 -85.8648
 -85.864
 -85.8879
 -85.8871
 -85.8867
 -85.9099
 -85.8577
 -85.858
 -85.858
 -85.8568
 -85.8907
 -85.8911
 -85.8907
 -85.8907
 -85.8863
 -85.8871
 -85.8865
 -85.9026
 -85.9032
 -85.9033
 -85.9026
 -85.9029
 -85.9026
 -85.9035
 -85.9034
 -85.9021
 -85.9025
 -85.9018
 -85.9015
 -85.8843
 -85.8849
 -85.884
 -85.8848
 -85.8808
 -85.8805
 -85.8801
 -85.8801
 -85.8973
 -85.8975
 -85.8982
 -85.8974
 -85.8884
 -85.8873
 -85.8889
 -85.8882
 -85.9126
 -85.9077
 -85.9078
 -85.8957
 -85.8957
 -85.8888
 -85.8882
 -85.8883
 -85.9083
 -85.9091
 -85.9086
 -85.9084
 -85.8902
 -85.8898
 -85.8957
 -85.8951
 -85.8699
 -85.8709
 -85.8698
 -85.8708
 -85.8843
 -85.884
 -85.8834
 -85.8837
 -85.8967
 -85.8977
 -85.8969
 -85.8974
 -85.8716
 -85.8708
 -85.8715
 -85.8719
 -85.9113
 -85.911
 -85.9116
 -85.9112
 -85.9078
 -85.9071
 -85.9093
 -85.9089
 -85.9084
 -85.9094
 -85.9036
 -85.9041
 -85.8869
 -85.8873
 -85.8866
 -85.8591
 -85.8599
 -85.8588
 -85.8589
 -85.8728
 -85.8734
 -85.8736
 -85.8729
 -85.9081
 -85.9086
 -85.9081
 -85.9079
 -85.9002
 -85.9012
 -85.9006
 -85.8937
 -85.8929
 -85.8923
 -85.8932
 -85.8852
 -85.8863
 -85.8854
 -85.8852
 -85.9055
 -85.906
 -85.9058
 -85.9084
 -85.8926
 -85.8937
 -85.8841
 -85.8844
 -85.8991
 -85.9
 -85.8989
 -85.8992
 -85.8808
 -85.88
 -85.8812
 -85.8799
 -85.8803
 -85.8796
 -85.8799
 -85.8604
 -85.8617
 -85.8615
 -85.8612
 -85.885
 -85.8856
 -85.8855
 -85.8862
 -85.9058
 -85.9059
 -85.9045
 -85.9051
 -85.9048
 -85.905
 -85.8837
 -85.8836
 -85.8844
 -85.8833
 -85.9022
 -85.9018
 -85.9025
 -85.8994
 -85.8994
 -85.8996
 -85.8989
 -85.9048
 -85.9051
 -85.9044
 -85.9053
 -85.8852
 -85.886
 -85.8857
 -85.8853
 -85.9095
 -85.9088
 -85.8894
 -85.868
 -85.8683
 -85.8689
 -85.8693
 -85.9019
 -85.9018
 -85.9024
 -85.8729
 -85.8722
 -85.8725
 -85.8719
 -85.8989
 -85.8988
 -85.8988
 -85.8995
 -85.8795
 -85.8795
 -85.8787
 -85.8797
 -85.8825
 -85.8823
 -85.8829
 -85.883
 -85.898
 -85.8985
 -85.8985
 -85.8869
 -85.8871
 -85.8867
 -85.8862
 -85.8972
 -85.8969
 -85.8975
 -85.8963
 -85.895
 -85.8945
 -85.9036
 -85.9039
 -85.9038
 -85.8994
 -85.8996
 -85.8989
 -85.8676
 -85.8677
 -85.8685
 -85.8678
 -85.8807
 -85.8813
 -85.8804
 -85.8816
 -85.9055
 -85.9046
 -85.9047
 -85.9046
 -85.904
 -85.9038
 -85.8828
 -85.8844
 -85.883
 -85.8996
 -85.8988
 -85.899
 -85.8986
 -85.8993
 -85.8991
 -85.8988
 -85.8846
 -85.8842
 -85.8847
 -85.8848
 -85.9083
 -85.9085
 -85.8871
 -85.8868
 -85.8872
 -85.8877
 -85.8837
 -85.8838
 -85.884
 -85.9002
 -85.9005
 -85.8915
 -85.8911
 -85.8916
 -85.8922
 -85.8802
 -85.8799
 -85.8977
 -85.8975
 -85.8875
 -85.8863
 -85.8865
 -85.8871
 -85.8932
 -85.8932
 -85.8926
 -85.8938
 -85.8931
 -85.8927
 -85.8932
 -85.8754
 -85.8755
 -85.8751
 -85.8767
 -85.8725
 -85.8726
 -85.8732
 -85.8731
 -85.8993
 -85.8987
 -85.8981
 -85.8986
 -85.9062
 -85.9062
 -85.9057
 -85.9057
 -85.8948
 -85.8953
 -85.8946
 -85.8926
 -85.8923
 -85.8918
 -85.8914
 -85.8916
 -85.9027
 -85.9029
