 -85.9239
 -85.9248
 -85.9245
 -85.925
 -85.9388
 -85.9389
 -85.9393
 -85.9395
 -85.9354
 -85.9349
 -85.9355
 -85.9351
 -85.936
 -85.9355
 -85.9354
 -85.9351
 -85.9444
 -85.9447
 -85.9441
 -85.944
 -85.9436
 -85.9432
 -85.9439
 -85.9434
 -85.9207
 -85.9202
 -85.9203
 -85.9206
 -85.9215
 -85.9216
 -85.9216
 -85.9213
 -85.9435
 -85.9433
 -85.9428
 -85.9432
 -85.9434
 -85.9435
 -85.9433
 -85.944
 -85.9187
 -85.9184
 -85.9189
 -85.919
 -85.935
 -85.9351
 -85.9346
 -85.9349
 -85.9267
 -85.9266
 -85.9262
 -85.9271
 -85.9398
 -85.9391
 -85.9388
 -85.9393
 -85.9328
 -85.9325
 -85.9329
 -85.9333
 -85.9224
 -85.922
 -85.9227
 -85.922
 -85.9423
 -85.9426
 -85.9422
 -85.9426
 -85.9365
 -85.9361
 -85.9366
 -85.9363
 -85.9332
 -85.9333
 -85.9334
 -85.9338
 -85.9414
 -85.9414
 -85.9416
 -85.9419
 -85.9212
 -85.9205
 -85.9212
 -85.9208
 -85.9452
 -85.9453
 -85.9457
 -85.9456
 -85.9105
 -85.9101
 -85.9099
 -85.9105
 -85.9384
 -85.9387
 -85.9381
 -85.938
 -85.9321
 -85.9316
 -85.9321
 -85.9324
 -85.9342
 -85.9343
 -85.934
 -85.9338
 -85.9296
 -85.9303
 -85.9306
 -85.9297
 -85.9221
 -85.9216
 -85.9222
 -85.922
 -85.9265
 -85.9263
 -85.9258
 -85.9262
 -85.9392
 -85.9392
 -85.9389
 -85.9385
 -85.9324
 -85.9332
 -85.9322
 -85.9325
 -85.9268
 -85.9272
 -85.9272
 -85.9268
 -85.9375
 -85.937
 -85.9376
 -85.9371
 -85.9388
 -85.9386
 -85.9385
 -85.9386
 -85.9269
 -85.9265
 -85.9271
 -85.9261
 -85.9232
 -85.923
 -85.9229
 -85.923
 -85.937
 -85.9362
 -85.9369
 -85.9367
 -85.9183
 -85.9186
 -85.9186
 -85.9189
 -85.9377
 -85.9377
 -85.9386
 -85.9383
 -85.9459
 -85.9456
 -85.9459
 -85.9455
 -85.9347
 -85.9346
 -85.9349
 -85.9341
 -85.9388
 -85.9393
 -85.939
 -85.939
 -85.9197
 -85.9195
 -85.92
 -85.9193
 -85.9366
 -85.9363
 -85.9365
 -85.937
 -85.9434
 -85.9432
 -85.9437
 -85.9435
 -85.9253
 -85.9258
 -85.9256
 -85.9253
 -85.937
 -85.9378
 -85.9376
 -85.9376
 -85.9226
 -85.9232
 -85.9227
 -85.9221
 -85.9275
 -85.9271
 -85.9269
 -85.9267
 -85.9333
 -85.9328
 -85.9327
 -85.9324
 -85.9218
 -85.9215
 -85.9213
 -85.9217
 -85.9337
 -85.9332
 -85.9332
 -85.9336
 -85.9282
 -85.9274
 -85.9281
 -85.9272
 -85.9348
 -85.9351
 -85.9348
 -85.9352
 -85.9261
 -85.9266
 -85.9263
 -85.927
 -85.9348
 -85.9348
 -85.9353
 -85.9344
 -85.9379
 -85.9379
 -85.9382
 -85.9385
 -85.9387
 -85.9384
 -85.9387
 -85.9379
 -85.9253
 -85.9254
 -85.9245
 -85.9257
 -85.9292
 -85.9289
 -85.9291
 -85.9298
 -85.9117
 -85.9113
 -85.9109
 -85.9114
 -85.9264
 -85.9264
 -85.9258
 -85.9263
 -85.9324
 -85.9332
 -85.933
 -85.9331
 -85.9285
 -85.9284
 -85.9292
 -85.928
 -85.9281
 -85.9289
 -85.9281
 -85.9288
 -85.922
 -85.9217
 -85.9222
 -85.9221
 -85.9418
 -85.9423
 -85.9425
 -85.9418
 -85.9445
 -85.9446
 -85.9447
 -85.9449
 -85.9337
 -85.9344
 -85.9333
 -85.9336
 -85.9266
 -85.9265
 -85.9269
 -85.9263
 -85.9376
 -85.9378
 -85.9381
 -85.9375
 -85.9212
 -85.9202
 -85.9205
 -85.9205
 -85.921
 -85.9205
 -85.9204
 -85.9211
 -85.9108
 -85.9104
 -85.911
 -85.9109
 -85.9351
 -85.9357
 -85.9354
 -85.9359
 -85.925
 -85.9256
 -85.9258
 -85.925
 -85.9238
 -85.9233
 -85.9239
 -85.9243
 -85.9449
 -85.9453
 -85.9451
 -85.9453
 -85.9231
 -85.9229
 -85.9225
 -85.923
 -85.924
 -85.9237
 -85.9233
 -85.924
 -85.925
 -85.9254
 -85.925
 -85.9245
 -85.9304
 -85.9302
 -85.9308
 -85.9307
 -85.9243
 -85.9249
 -85.9245
 -85.9247
 -85.9274
 -85.9278
 -85.9279
 -85.9276
 -85.9292
 -85.929
 -85.9288
 -85.9285
 -85.9228
 -85.9222
 -85.9231
 -85.9223
 -85.9091
 -85.9089
 -85.9099
 -85.9099
 -85.9217
 -85.9218
 -85.9222
 -85.9219
 -85.9353
 -85.9351
 -85.9356
 -85.9346
 -85.9355
 -85.9353
 -85.9359
 -85.9354
 -85.9385
 -85.9383
 -85.9382
 -85.9388
 -85.921
 -85.9209
 -85.921
 -85.9212
 -85.9454
 -85.9454
 -85.9451
 -85.9456
 -85.9383
 -85.9388
 -85.9382
 -85.9384
 -85.9188
 -85.9187
 -85.9182
 -85.9182
 -85.9277
 -85.9277
 -85.9274
 -85.9285
 -85.9238
 -85.9241
 -85.9233
 -85.9237
 -85.924
 -85.9237
 -85.9237
 -85.9213
 -85.9212
 -85.9212
 -85.921
 -85.9366
 -85.9363
 -85.936
 -85.9368
 -85.9297
 -85.9305
 -85.9302
 -85.9297
 -85.9359
 -85.9365
 -85.9361
 -85.9264
 -85.9257
 -85.9261
 -85.9258
 -85.9315
 -85.9318
 -85.9317
 -85.9311
 -85.941
 -85.9405
 -85.9405
 -85.9414
 -85.9212
 -85.9213
 -85.9222
 -85.9218
 -85.9229
 -85.9225
 -85.9222
 -85.9226
 -85.9353
 -85.9347
 -85.9346
 -85.9348
 -85.9378
 -85.9374
 -85.9383
 -85.9382
 -85.9196
 -85.9196
 -85.9193
 -85.9189
 -85.9225
 -85.9227
 -85.9236
 -85.9233
 -85.9288
 -85.9295
 -85.9299
 -85.9289
 -85.9435
 -85.9439
 -85.9436
 -85.9438
 -85.9351
 -85.9357
 -85.9358
 -85.9356
 -85.9315
 -85.9306
 -85.9315
 -85.9315
 -85.9128
 -85.9119
 -85.9128
 -85.9127
 -85.9304
 -85.9298
 -85.9306
 -85.931
 -85.9408
 -85.9403
 -85.9408
 -85.94
 -85.9245
 -85.9236
 -85.925
 -85.9247
 -85.9232
 -85.9233
 -85.9227
 -85.9231
 -85.9231
 -85.9225
 -85.9226
 -85.9228
 -85.9178
 -85.9177
 -85.9177
 -85.918
 -85.9238
 -85.923
 -85.923
 -85.923
 -85.9356
 -85.9355
 -85.9356
 -85.9352
 -85.9204
 -85.9207
 -85.9209
 -85.9211
 -85.9432
 -85.9429
 -85.9431
 -85.9433
 -85.9208
 -85.9201
 -85.9202
 -85.9208
 -85.9408
 -85.9401
 -85.9408
 -85.9403
 -85.9302
 -85.9296
 -85.9296
 -85.93
 -85.9276
 -85.9281
 -85.9284
 -85.9278
 -85.9257
 -85.9258
 -85.9265
 -85.9259
 -85.9246
 -85.9246
 -85.9241
 -85.924
 -85.9451
 -85.9454
 -85.9455
 -85.9455
 -85.9252
 -85.9248
 -85.9251
 -85.9249
 -85.946
 -85.9457
 -85.9459
 -85.9455
 -85.938
 -85.9378
 -85.9385
 -85.938
 -85.915
 -85.9158
 -85.9156
 -85.9149
 -85.9439
 -85.9438
 -85.9441
 -85.9443
 -85.9224
 -85.9232
 -85.9225
 -85.922
 -85.9144
 -85.914
 -85.9138
 -85.9143
 -85.9399
 -85.9398
 -85.9396
 -85.9399
 -85.9445
 -85.9448
 -85.9447
 -85.9446
 -85.9331
 -85.9333
 -85.933
 -85.9328
 -85.9391
 -85.9385
 -85.9392
 -85.9387
 -85.9238
 -85.9232
 -85.9235
 -85.9234
 -85.9345
 -85.9342
 -85.9345
 -85.935
 -85.9273
 -85.927
 -85.9276
 -85.9276
 -85.9217
 -85.9219
 -85.9216
 -85.9215
 -85.9191
 -85.919
 -85.9189
 -85.9194
 -85.9298
 -85.9296
 -85.9302
 -85.9294
 -85.9316
 -85.9316
 -85.9314
 -85.931
 -85.9234
 -85.9233
 -85.9238
 -85.924
 -85.9235
 -85.9227
 -85.9234
 -85.9233
 -85.9362
 -85.9364
 -85.9359
 -85.9359
 -85.9437
 -85.9436
 -85.944
 -85.9441
 -85.9429
 -85.9426
 -85.943
 -85.9432
 -85.9427
 -85.9421
 -85.9423
 -85.9425
 -85.9367
 -85.9365
 -85.9369
 -85.9363
 -85.9234
 -85.9227
 -85.9232
 -85.923
 -85.9237
 -85.924
 -85.9242
 -85.9243
 -85.9314
 -85.9312
 -85.9303
 -85.9303
 -85.938
 -85.9377
 -85.9386
 -85.9383
 -85.9379
 -85.9376
 -85.9377
 -85.9381
 -85.9335
 -85.933
 -85.9333
 -85.9334
 -85.935
 -85.9355
 -85.9348
 -85.935
 -85.9194
 -85.9193
 -85.9195
 -85.9201
 -85.9061
 -85.9057
 -85.9062
 -85.9054
 -85.9248
 -85.9247
 -85.924
 -85.9244
 -85.9086
 -85.9094
 -85.9092
 -85.9248
 -85.9247
 -85.9251
 -85.9244
 -85.9413
 -85.941
 -85.9412
 -85.9409
 -85.9329
 -85.9332
 -85.9333
 -85.9338
 -85.9437
 -85.9434
 -85.9439
 -85.9434
 -85.9233
 -85.9234
 -85.9228
 -85.9233
 -85.9372
 -85.937
 -85.9379
 -85.9376
 -85.9335
 -85.9336
 -85.9329
 -85.9331
 -85.9447
 -85.9449
 -85.945
 -85.9445
 -85.9403
 -85.9402
 -85.9404
 -85.941
 -85.9249
 -85.9255
 -85.9251
 -85.9248
 -85.937
 -85.9369
 -85.9364
 -85.937
 -85.9411
 -85.9402
 -85.9408
 -85.9404
 -85.9143
 -85.9134
 -85.9138
 -85.9135
 -85.9325
 -85.9329
 -85.9331
 -85.9332
 -85.941
 -85.9411
 -85.9415
 -85.9411
 -85.9357
 -85.9363
 -85.9353
 -85.9365
 -85.9403
 -85.9397
 -85.9403
 -85.9402
 -85.9237
 -85.9243
 -85.9246
 -85.9245
 -85.9402
 -85.9412
 -85.9402
 -85.9411
 -85.9292
 -85.9296
 -85.9284
 -85.9291
 -85.9307
 -85.931
 -85.9314
 -85.9306
 -85.9401
 -85.9401
 -85.9397
 -85.9404
 -85.9459
 -85.9457
 -85.9457
 -85.9459
 -85.9195
 -85.9198
 -85.9201
 -85.9202
 -85.927
 -85.9275
 -85.9279
 -85.9272
 -85.9343
 -85.934
 -85.9337
 -85.9339
 -85.9402
 -85.9406
 -85.9405
 -85.9407
 -85.9254
 -85.9249
 -85.9251
 -85.9251
 -85.9204
 -85.921
 -85.9213
 -85.9205
 -85.9375
 -85.9375
 -85.9369
 -85.9368
 -85.9356
 -85.9361
 -85.9356
 -85.9358
 -85.9441
 -85.9443
 -85.9447
 -85.9441
 -85.9219
 -85.9227
 -85.9218
 -85.9224
 -85.9445
 -85.9448
 -85.9448
 -85.9445
 -85.9266
 -85.9273
 -85.9269
 -85.9266
 -85.9067
 -85.9065
 -85.9068
 -85.907
 -85.9424
 -85.9427
 -85.9429
 -85.9427
 -85.9367
 -85.937
 -85.9364
 -85.9357
 -85.9428
 -85.9428
 -85.9426
 -85.9425
 -85.9313
 -85.9306
 -85.9311
 -85.9314
 -85.9299
 -85.9303
 -85.9304
 -85.93
 -85.9395
 -85.9388
 -85.939
 -85.939
 -85.9233
 -85.9236
 -85.9231
 -85.9235
 -85.9224
 -85.9227
 -85.9228
 -85.9225
 -85.9114
 -85.9111
 -85.911
 -85.9109
 -85.9335
 -85.9339
 -85.9342
 -85.9344
 -85.9318
 -85.9314
 -85.9324
 -85.9317
 -85.9359
 -85.935
 -85.9355
 -85.936
 -85.9271
 -85.9279
 -85.928
 -85.9269
 -85.9436
 -85.9436
 -85.9439
 -85.9432
 -85.9446
 -85.9451
 -85.9445
 -85.9444
 -85.9362
 -85.9365
 -85.9371
 -85.9371
 -85.9021
 -85.9021
 -85.9023
 -85.9026
 -85.929
 -85.9287
 -85.9292
 -85.9283
 -85.9295
 -85.9293
 -85.9286
 -85.9293
 -85.9291
 -85.9292
 -85.9285
 -85.9285
 -85.9397
 -85.9394
 -85.94
 -85.9393
 -85.9134
 -85.9141
 -85.9129
 -85.9133
 -85.9101
 -85.9101
 -85.9094
 -85.9093
 -85.9397
 -85.9392
 -85.9397
 -85.9391
 -85.926
 -85.9267
 -85.9257
 -85.9267
 -85.9284
 -85.9284
 -85.9286
 -85.9287
 -85.9362
 -85.9358
 -85.9358
 -85.9352
 -85.9228
 -85.9231
 -85.9234
 -85.9231
 -85.9405
 -85.9399
 -85.9401
 -85.9404
 -85.9273
 -85.9261
 -85.9268
 -85.9259
 -85.9262
 -85.9261
 -85.9255
 -85.926
 -85.9204
 -85.9199
 -85.9207
 -85.9198
 -85.929
 -85.9298
 -85.9292
 -85.9299
 -85.9414
 -85.9417
 -85.9417
 -85.9413
 -85.9369
 -85.9376
 -85.9379
 -85.9372
 -85.9226
 -85.9225
 -85.9231
 -85.923
 -85.9251
 -85.9259
 -85.9259
 -85.9251
 -85.9431
 -85.9433
 -85.9435
 -85.9435
 -85.9403
 -85.9399
 -85.9402
 -85.94
 -85.9296
 -85.9293
 -85.9289
 -85.9293
 -85.9208
 -85.9209
 -85.9209
 -85.9211
 -85.9161
 -85.9172
 -85.917
 -85.9162
 -85.9363
 -85.9357
 -85.9354
 -85.936
 -85.9208
 -85.9201
 -85.9207
 -85.9194
 -85.9419
 -85.9413
 -85.9413
 -85.9418
 -85.9345
 -85.9353
 -85.9349
 -85.9343
 -85.9415
 -85.9413
 -85.9411
 -85.9413
 -85.9376
 -85.937
 -85.937
 -85.9373
 -85.9294
 -85.9291
 -85.9294
 -85.9299
 -85.9238
 -85.9228
 -85.923
 -85.9235
 -85.9171
 -85.9182
 -85.9172
 -85.9173
 -85.9195
 -85.9186
 -85.9195
 -85.9193
 -85.9234
 -85.9226
 -85.9225
 -85.9228
 -85.9307
 -85.9309
 -85.9308
 -85.9298
 -85.9309
 -85.9311
 -85.9313
 -85.9306
 -85.9316
 -85.931
 -85.9321
 -85.9315
 -85.9366
 -85.9362
 -85.9368
 -85.9367
 -85.9134
 -85.9126
 -85.9128
 -85.9128
 -85.9334
 -85.9335
 -85.9332
 -85.9338
 -85.9225
 -85.9218
 -85.9221
 -85.9222
 -85.9283
 -85.9291
 -85.9286
 -85.9291
 -85.9442
 -85.9435
 -85.9441
 -85.944
 -85.9303
 -85.93
 -85.93
 -85.9297
 -85.9211
 -85.9208
 -85.921
 -85.9202
 -85.928
 -85.9279
 -85.9284
 -85.9287
 -85.924
 -85.9244
 -85.9243
 -85.9238
 -85.9296
 -85.9289
 -85.9298
 -85.9292
 -85.9139
 -85.9133
 -85.9136
 -85.914
 -85.9287
 -85.9287
 -85.9293
 -85.9293
 -85.9369
 -85.9366
 -85.9371
 -85.9367
 -85.9349
 -85.935
 -85.9353
 -85.935
 -85.943
 -85.9422
 -85.9429
 -85.9425
 -85.9253
 -85.9252
 -85.9257
 -85.9253
 -85.9235
 -85.924
 -85.9235
 -85.9247
 -85.9426
 -85.9419
 -85.9426
 -85.9424
 -85.9241
 -85.9241
 -85.9248
 -85.9241
 -85.9414
 -85.9412
 -85.9417
 -85.9412
 -85.9326
 -85.9335
 -85.9329
 -85.9332
 -85.9308
 -85.9299
 -85.9308
 -85.931
 -85.9237
 -85.9243
 -85.9242
 -85.9237
 -85.93
 -85.9299
 -85.9306
 -85.9298
 -85.9416
 -85.9414
 -85.9417
 -85.9417
 -85.9064
 -85.9065
 -85.9067
 -85.9059
 -85.9206
 -85.9205
 -85.9205
 -85.9206
 -85.9206
 -85.9207
 -85.9206
 -85.9202
 -85.926
 -85.9263
 -85.9257
 -85.9266
 -85.9284
 -85.9279
 -85.9283
 -85.928
 -85.9254
 -85.9251
 -85.9248
 -85.9255
 -85.9443
 -85.944
 -85.9446
 -85.9439
 -85.9234
 -85.923
 -85.9231
 -85.9238
 -85.9359
 -85.936
 -85.9363
 -85.9357
 -85.9308
 -85.9401
 -85.9395
 -85.9397
 -85.9396
 -85.9348
 -85.9352
 -85.9356
 -85.9353
 -85.919
 -85.9194
 -85.9196
 -85.9193
 -85.9267
 -85.9264
 -85.9268
 -85.9273
 -85.9244
 -85.9237
 -85.9242
 -85.9244
 -85.941
 -85.9405
 -85.9406
 -85.9406
 -85.929
 -85.928
 -85.9287
 -85.9284
 -85.9417
 -85.9418
 -85.9412
 -85.9411
 -85.9374
 -85.9377
 -85.9371
 -85.9379
 -85.9194
 -85.9198
 -85.9196
 -85.9202
 -85.9231
 -85.9224
 -85.9236
 -85.9232
 -85.9369
 -85.9373
 -85.9373
 -85.9369
 -85.93
 -85.9292
 -85.9299
 -85.9208
 -85.9204
 -85.9206
 -85.9211
 -85.9361
 -85.9352
 -85.9358
 -85.9352
 -85.9245
 -85.9238
 -85.9238
 -85.9243
 -85.9303
 -85.9293
 -85.9298
 -85.9303
 -85.9427
 -85.9426
 -85.942
 -85.9426
 -85.9259
 -85.9256
 -85.9253
 -85.9258
 -85.9402
 -85.9396
 -85.9401
 -85.9403
 -85.9315
 -85.9311
 -85.9315
 -85.9308
 -85.9387
 -85.9384
 -85.938
 -85.9383
 -85.9422
 -85.9422
 -85.9427
 -85.9424
 -85.9262
 -85.9262
 -85.9266
 -85.9266
 -85.9063
 -85.9073
 -85.9071
 -85.9077
 -85.9445
 -85.9442
 -85.9442
 -85.9441
 -85.9357
 -85.9354
 -85.9351
 -85.9354
 -85.9218
 -85.9218
 -85.9228
 -85.922
 -85.928
 -85.9284
 -85.9286
 -85.9279
 -85.9148
 -85.915
 -85.9151
 -85.9144
 -85.9418
 -85.9421
 -85.9426
 -85.9421
 -85.9212
 -85.9209
 -85.9211
 -85.9212
 -85.933
 -85.9335
 -85.9327
 -85.9332
 -85.9227
 -85.9215
 -85.9224
 -85.9224
 -85.9451
 -85.9451
 -85.9451
 -85.9446
 -85.945
 -85.9449
 -85.9446
 -85.9445
 -85.9374
 -85.9368
 -85.9366
 -85.9374
 -85.9336
 -85.9339
 -85.9336
 -85.9332
 -85.9338
 -85.9209
 -85.921
 -85.9202
 -85.9208
 -85.9224
 -85.9221
 -85.9219
 -85.9226
 -85.9362
 -85.9367
 -85.9368
 -85.9368
 -85.9219
 -85.9223
 -85.9223
 -85.9219
 -85.9238
 -85.9237
 -85.9236
 -85.9242
 -85.9371
 -85.9373
 -85.9371
 -85.9366
 -85.9267
 -85.9274
 -85.9267
 -85.9274
 -85.9366
 -85.9367
 -85.9368
 -85.9372
 -85.9244
 -85.9243
 -85.9237
 -85.9243
 -85.9262
 -85.9267
 -85.9267
 -85.9268
 -85.9293
 -85.9298
 -85.929
 -85.9297
 -85.9335
 -85.9342
 -85.9337
 -85.9343
 -85.9393
 -85.939
 -85.9398
 -85.9398
 -85.9325
 -85.9323
 -85.932
 -85.932
 -85.9326
 -85.9328
 -85.9331
 -85.9328
 -85.9193
 -85.9193
 -85.9197
 -85.9199
 -85.9358
 -85.9359
 -85.9361
 -85.936
 -85.931
 -85.9311
 -85.9314
 -85.9309
 -85.9321
 -85.9321
 -85.9317
 -85.9321
 -85.9272
 -85.9273
 -85.9266
 -85.927
 -85.9208
 -85.9208
 -85.9211
 -85.9203
 -85.9386
 -85.9385
 -85.9389
 -85.9389
 -85.9211
 -85.9206
 -85.9208
 -85.9215
 -85.9445
 -85.9445
 -85.9449
 -85.9447
 -85.9404
 -85.94
 -85.9408
 -85.9405
 -85.9408
 -85.9408
 -85.9408
 -85.9406
 -85.9404
 -85.9403
 -85.9402
 -85.9407
 -85.9374
 -85.9376
 -85.937
 -85.9376
 -85.916
 -85.9156
 -85.9147
 -85.9324
 -85.9316
 -85.9323
 -85.9321
 -85.9398
 -85.9395
 -85.9394
 -85.9398
 -85.9269
 -85.9262
 -85.9266
 -85.9268
 -85.9245
 -85.9246
 -85.9242
 -85.9247
 -85.9378
 -85.9379
 -85.9384
 -85.9373
 -85.9291
 -85.9289
 -85.9292
 -85.9297
 -85.9251
 -85.9251
 -85.9249
 -85.9248
 -85.9439
 -85.9444
 -85.9351
 -85.9349
 -85.9344
 -85.9344
 -85.9295
 -85.9295
 -85.929
 -85.9334
 -85.9336
 -85.9334
 -85.9329
 -85.9171
 -85.9169
 -85.9177
 -85.9176
 -85.9402
 -85.9407
 -85.9406
 -85.9401
 -85.9333
 -85.9331
 -85.9328
 -85.9328
 -85.9268
 -85.9262
 -85.9265
 -85.9271
 -85.9318
 -85.9311
 -85.9314
 -85.9316
 -85.9216
 -85.9214
 -85.9217
 -85.9216
 -85.9198
 -85.9207
 -85.92
 -85.9202
 -85.9288
 -85.9293
 -85.9294
 -85.9291
 -85.9213
 -85.9212
 -85.9212
 -85.9218
 -85.9296
 -85.9292
 -85.9294
 -85.9291
 -85.9409
 -85.9408
 -85.9402
 -85.9401
 -85.9223
 -85.9226
 -85.9228
 -85.9225
 -85.9114
 -85.9121
 -85.9114
 -85.9119
 -85.9343
 -85.9332
 -85.934
 -85.934
 -85.9281
 -85.9285
 -85.928
 -85.9286
 -85.9216
 -85.9215
 -85.922
 -85.9219
 -85.9298
 -85.9294
 -85.93
 -85.93
 -85.9431
 -85.9429
 -85.9432
 -85.9431
 -85.9239
 -85.9239
 -85.9236
 -85.9239
 -85.9347
 -85.9342
 -85.9341
 -85.934
 -85.9279
 -85.9285
 -85.928
 -85.9289
 -85.9372
 -85.9375
 -85.9374
 -85.938
 -85.9409
 -85.9408
 -85.9411
 -85.9407
 -85.9219
 -85.9224
 -85.9221
 -85.923
 -85.9257
 -85.9261
 -85.926
 -85.9259
 -85.9333
 -85.9333
 -85.9325
 -85.9329
 -85.9214
 -85.9215
 -85.9215
 -85.9217
 -85.9069
 -85.9063
 -85.9064
 -85.9067
 -85.9317
 -85.9312
 -85.9312
 -85.931
 -85.9054
 -85.9053
 -85.9055
 -85.906
 -85.9065
 -85.9074
 -85.9073
 -85.9069
 -85.9172
 -85.9177
 -85.9175
 -85.917
 -85.9357
 -85.9353
 -85.9349
 -85.9347
 -85.9355
 -85.9359
 -85.936
 -85.9363
 -85.9364
 -85.936
 -85.9363
 -85.9357
 -85.9345
 -85.9339
 -85.9341
 -85.9346
 -85.9147
 -85.9142
 -85.9146
 -85.9145
 -85.9225
 -85.9223
 -85.9229
 -85.9226
 -85.9217
 -85.921
 -85.9212
 -85.9211
 -85.9268
 -85.9275
 -85.9269
 -85.9276
 -85.9324
 -85.932
 -85.9324
 -85.9321
 -85.9373
 -85.9372
 -85.9369
 -85.9374
 -85.9231
 -85.9239
 -85.9241
 -85.9234
 -85.9358
 -85.9302
 -85.9306
 -85.9308
 -85.9304
 -85.9448
 -85.9449
 -85.9454
 -85.9451
 -85.9289
 -85.929
 -85.9294
 -85.9289
 -85.9419
 -85.9425
 -85.942
 -85.9222
 -85.9225
 -85.9227
 -85.922
 -85.9088
 -85.9093
 -85.9091
 -85.9094
 -85.9301
 -85.9301
 -85.9309
 -85.9297
 -85.9271
 -85.9262
 -85.9264
 -85.9263
 -85.9214
 -85.9218
 -85.9222
 -85.9224
 -85.9222
 -85.9225
 -85.922
 -85.9225
 -85.9165
 -85.9158
 -85.9163
 -85.9163
 -85.9335
 -85.9333
 -85.9337
 -85.9345
 -85.9302
 -85.9309
 -85.93
 -85.9306
 -85.9255
 -85.925
 -85.9256
 -85.9253
 -85.9289
 -85.9285
 -85.9296
 -85.9378
 -85.9375
 -85.9374
 -85.9233
 -85.9234
 -85.9226
 -85.9224
 -85.9179
 -85.9176
 -85.9177
 -85.9178
 -85.9244
 -85.9249
 -85.9248
 -85.9243
 -85.9177
 -85.9171
 -85.9179
 -85.9169
 -85.9391
 -85.9397
 -85.9392
 -85.9394
 -85.9372
 -85.9375
 -85.9376
 -85.938
 -85.9215
 -85.9213
 -85.9214
 -85.9213
 -85.9154
 -85.9145
 -85.9152
 -85.9154
 -85.9318
 -85.9309
 -85.9317
 -85.9314
 -85.9437
 -85.9431
 -85.9437
 -85.9432
 -85.9174
 -85.9174
 -85.9171
 -85.9174
 -85.9354
 -85.9349
 -85.9348
 -85.9355
 -85.911
 -85.9107
 -85.9111
 -85.9108
 -85.9372
 -85.9375
 -85.9371
 -85.9379
 -85.9273
 -85.9267
 -85.9276
 -85.9265
 -85.9392
 -85.9392
 -85.9396
 -85.9397
 -85.922
 -85.9222
 -85.9223
 -85.9228
 -85.9261
 -85.9256
 -85.9257
 -85.9256
 -85.9232
 -85.923
 -85.9237
 -85.9236
 -85.9245
 -85.9242
 -85.925
 -85.9239
 -85.9317
 -85.9322
 -85.9321
 -85.9315
 -85.9286
 -85.9282
 -85.9288
 -85.9288
 -85.9396
 -85.9392
 -85.9388
 -85.9389
 -85.9444
 -85.9447
 -85.944
 -85.944
 -85.9277
 -85.9277
 -85.9272
 -85.9276
 -85.9407
 -85.9405
 -85.9404
 -85.941
 -85.9366
 -85.9373
 -85.9377
 -85.9372
 -85.9138
 -85.9135
 -85.9128
 -85.9138
 -85.9205
 -85.9215
 -85.9212
 -85.9209
 -85.9271
 -85.9267
 -85.9266
 -85.9268
 -85.9166
 -85.9162
 -85.9161
 -85.9157
 -85.9322
 -85.9329
 -85.9328
 -85.9326
 -85.9387
 -85.9397
 -85.9391
 -85.9392
 -85.9171
 -85.918
 -85.9171
 -85.9171
 -85.9291
 -85.9296
 -85.9292
 -85.9293
 -85.9248
 -85.9248
 -85.9248
 -85.9245
 -85.9069
 -85.9074
 -85.9075
 -85.9069
 -85.9266
 -85.9265
 -85.9264
 -85.927
 -85.9305
 -85.931
 -85.9309
 -85.931
 -85.937
 -85.9376
 -85.9372
 -85.9378
 -85.9243
 -85.9245
 -85.9246
 -85.9305
 -85.9303
 -85.9301
 -85.9304
 -85.9257
 -85.9256
 -85.9265
 -85.9259
 -85.9356
 -85.9351
 -85.9355
 -85.9354
 -85.9354
 -85.9361
 -85.936
 -85.9358
 -85.9413
 -85.9409
 -85.9412
 -85.9407
 -85.9227
 -85.9227
 -85.9232
 -85.9227
 -85.9432
 -85.9433
 -85.9435
 -85.9433
 -85.9238
 -85.9243
 -85.9239
 -85.9236
 -85.9302
 -85.9309
 -85.9308
 -85.9312
 -85.9313
 -85.9308
 -85.9308
 -85.9306
 -85.9061
 -85.9055
 -85.906
 -85.9059
 -85.9252
 -85.9248
 -85.9252
 -85.9253
 -85.9296
 -85.9296
 -85.9301
 -85.9308
 -85.9292
 -85.9294
 -85.9295
 -85.9288
 -85.9445
 -85.9446
 -85.9441
 -85.9445
 -85.9237
 -85.9243
 -85.9246
 -85.9239
 -85.9247
 -85.9243
 -85.9249
 -85.9242
 -85.937
 -85.9375
 -85.9371
 -85.9374
 -85.922
 -85.9218
 -85.9215
 -85.9214
 -85.9216
 -85.9215
 -85.9218
 -85.9214
 -85.9349
 -85.9342
 -85.9349
 -85.9345
 -85.9357
 -85.9356
 -85.9351
 -85.9357
 -85.9317
 -85.9317
 -85.9325
 -85.9323
 -85.9243
 -85.924
 -85.9338
 -85.9334
 -85.9342
 -85.9335
 -85.9246
 -85.9249
 -85.9246
 -85.9247
 -85.928
 -85.9287
 -85.9289
 -85.9286
 -85.9421
 -85.9418
 -85.9416
 -85.9422
 -85.9281
 -85.9283
 -85.9286
 -85.9287
 -85.938
 -85.9384
 -85.9386
 -85.9378
 -85.9229
 -85.924
 -85.9236
 -85.9239
 -85.927
 -85.9265
 -85.9263
 -85.9267
 -85.9296
 -85.9306
 -85.9301
 -85.9303
 -85.9227
 -85.9222
 -85.922
 -85.9224
 -85.9116
 -85.9118
 -85.9115
 -85.9111
 -85.9438
 -85.9438
 -85.9437
 -85.9439
 -85.9175
 -85.9174
 -85.9176
 -85.9173
 -85.9326
 -85.9329
 -85.9322
 -85.9323
 -85.9115
 -85.9116
 -85.912
 -85.9113
 -85.9336
 -85.9341
 -85.9337
 -85.9336
 -85.9239
 -85.9238
 -85.9236
 -85.9237
 -85.9239
 -85.924
 -85.9235
 -85.9238
 -85.9313
 -85.9316
 -85.9308
 -85.9313
 -85.9397
 -85.9391
 -85.9396
 -85.939
 -85.9266
 -85.9274
 -85.9272
 -85.9274
 -85.9214
 -85.9212
 -85.9214
 -85.9216
 -85.9394
 -85.9402
 -85.9398
 -85.9403
 -85.9233
 -85.9227
 -85.9236
 -85.9237
 -85.9266
 -85.9273
 -85.9271
 -85.9274
 -85.9367
 -85.9377
 -85.9375
 -85.9371
 -85.9309
 -85.9315
 -85.9316
 -85.9316
 -85.9288
 -85.9284
 -85.9288
 -85.9291
 -85.942
 -85.9424
 -85.9426
 -85.9427
 -85.9403
 -85.9405
 -85.9405
 -85.9402
 -85.9327
 -85.9327
 -85.932
 -85.9323
 -85.9288
 -85.9292
 -85.9286
 -85.9298
 -85.9253
 -85.9255
 -85.9255
 -85.9264
 -85.9208
 -85.9207
 -85.9203
 -85.9379
 -85.9382
 -85.938
 -85.9386
 -85.9109
 -85.9105
 -85.91
 -85.91
 -85.9354
 -85.9347
 -85.9351
 -85.935
 -85.9231
 -85.9224
 -85.9227
 -85.9228
 -85.922
 -85.9215
 -85.9217
 -85.9216
 -85.9404
 -85.9399
 -85.9402
 -85.9409
 -85.9314
 -85.931
 -85.9316
 -85.9312
 -85.9289
 -85.9287
 -85.9245
 -85.9278
 -85.9285
 -85.9277
 -85.9281
 -85.9117
 -85.9122
 -85.9348
 -85.935
 -85.9353
 -85.9191
 -85.9195
 -85.9186
 -85.9191
 -85.9349
 -85.9342
 -85.9344
 -85.9344
 -85.9266
 -85.9272
 -85.9271
 -85.927
 -85.9243
 -85.9251
 -85.9246
 -85.9247
 -85.942
 -85.942
 -85.9426
 -85.9423
 -85.9194
 -85.9199
 -85.9193
 -85.92
 -85.9344
 -85.9345
 -85.9345
 -85.9349
 -85.9428
 -85.943
 -85.9424
 -85.9425
 -85.9309
 -85.9303
 -85.9309
 -85.9304
 -85.9343
 -85.9335
 -85.9338
 -85.9338
 -85.9297
 -85.9303
 -85.9298
 -85.9289
 -85.9451
 -85.9445
 -85.9449
 -85.9443
 -85.9446
 -85.9446
 -85.9444
 -85.9441
 -85.9442
 -85.944
 -85.9439
 -85.9442
 -85.9281
 -85.9275
 -85.928
 -85.928
 -85.9327
 -85.9321
 -85.9323
 -85.9327
 -85.9285
 -85.9284
 -85.9279
 -85.9282
 -85.9275
 -85.9273
 -85.9281
 -85.9272
 -85.9357
 -85.936
 -85.9361
 -85.9355
 -85.9396
 -85.9404
 -85.9401
 -85.9404
 -85.9393
 -85.9395
 -85.9389
 -85.9397
 -85.9305
 -85.9309
 -85.9304
 -85.9308
 -85.9293
 -85.9292
 -85.9291
 -85.9288
 -85.9238
 -85.9234
 -85.9236
 -85.9242
 -85.9371
 -85.9376
 -85.9376
 -85.937
 -85.9167
 -85.9167
 -85.9161
 -85.9171
 -85.9385
 -85.9389
 -85.9384
 -85.9383
 -85.9321
 -85.933
 -85.932
 -85.9328
 -85.9315
 -85.9319
 -85.9316
 -85.9313
 -85.9196
 -85.9195
 -85.9191
 -85.9186
 -85.9042
 -85.9046
 -85.904
 -85.9041
 -85.9257
 -85.9263
 -85.9257
 -85.9259
 -85.9385
 -85.9377
 -85.9381
 -85.9384
 -85.922
 -85.9216
 -85.9219
 -85.9222
 -85.9325
 -85.9328
 -85.9322
 -85.9329
 -85.9335
 -85.934
 -85.9345
 -85.9343
 -85.937
 -85.9373
 -85.9365
 -85.9367
 -85.9155
 -85.915
 -85.9151
 -85.9155
 -85.9161
 -85.9161
 -85.9158
 -85.9158
 -85.9384
 -85.9392
 -85.9389
 -85.9389
 -85.936
 -85.9351
 -85.9351
 -85.9356
 -85.9255
 -85.9256
 -85.9253
 -85.9253
 -85.9299
 -85.9296
 -85.9302
 -85.9305
 -85.932
 -85.9323
 -85.932
 -85.9319
 -85.925
 -85.9247
 -85.9256
 -85.9248
 -85.9345
 -85.9341
 -85.9342
 -85.9337
 -85.9466
 -85.9462
 -85.9464
 -85.9465
 -85.933
 -85.9337
 -85.9337
 -85.9341
 -85.9301
 -85.9303
 -85.9298
 -85.9307
 -85.9301
 -85.9299
 -85.9294
 -85.9301
 -85.932
 -85.9324
 -85.9321
 -85.9315
 -85.9435
 -85.9437
 -85.9432
 -85.9435
 -85.9398
 -85.9393
 -85.9396
 -85.9341
 -85.9341
 -85.9345
 -85.934
 -85.9213
 -85.9212
 -85.9218
 -85.9213
 -85.9273
 -85.9273
 -85.9269
 -85.9275
 -85.9395
 -85.9387
 -85.9387
 -85.9387
 -85.9238
 -85.924
 -85.9241
 -85.9244
 -85.9264
 -85.9259
 -85.9258
 -85.9265
 -85.9272
 -85.9269
 -85.9261
 -85.9268
 -85.9355
 -85.9351
 -85.935
 -85.9349
 -85.9321
 -85.9315
 -85.9322
 -85.931
 -85.9342
 -85.9331
 -85.9334
 -85.9336
 -85.9224
 -85.9226
 -85.9227
 -85.9225
 -85.9271
 -85.9276
 -85.9277
 -85.9272
 -85.935
 -85.9345
 -85.9351
 -85.9354
 -85.9259
 -85.9262
 -85.9265
 -85.9257
 -85.933
 -85.9335
 -85.9335
 -85.9332
 -85.9221
 -85.922
 -85.9223
 -85.9219
 -85.9429
 -85.943
 -85.9425
 -85.9429
 -85.9234
 -85.923
 -85.9236
 -85.9238
 -85.9225
 -85.9215
 -85.9221
 -85.9221
 -85.9364
 -85.9364
 -85.9368
 -85.9369
 -85.9235
 -85.9236
 -85.9238
 -85.9237
 -85.9337
 -85.9335
 -85.9338
 -85.9332
 -85.919
 -85.9191
 -85.9183
 -85.9185
 -85.9315
 -85.9313
 -85.9314
 -85.932
 -85.9415
 -85.9422
 -85.9415
 -85.9419
 -85.9318
 -85.931
 -85.931
 -85.9315
 -85.9369
 -85.9372
 -85.9369
 -85.9369
 -85.9334
 -85.9331
 -85.9333
 -85.9337
 -85.933
 -85.9333
 -85.9333
 -85.9339
 -85.9435
 -85.9435
 -85.9437
 -85.9429
 -85.9224
 -85.9221
 -85.9218
 -85.9218
 -85.9228
 -85.9226
 -85.922
 -85.9225
 -85.9403
 -85.9403
 -85.94
 -85.9407
 -85.9419
 -85.9422
 -85.9418
 -85.9249
 -85.9247
 -85.9247
 -85.925
 -85.9344
 -85.9351
 -85.9344
 -85.9343
 -85.9323
 -85.9325
 -85.9319
 -85.9326
 -85.922
 -85.9225
 -85.9215
 -85.922
 -85.9371
 -85.9375
 -85.9374
 -85.9373
 -85.9295
 -85.9288
 -85.9289
 -85.9294
 -85.9315
 -85.9308
 -85.9309
 -85.9308
 -85.9377
 -85.9381
 -85.9381
 -85.938
 -85.9206
 -85.9205
 -85.9207
 -85.921
 -85.9248
 -85.9241
 -85.9243
 -85.9242
 -85.9441
 -85.9437
 -85.9441
 -85.9439
 -85.9226
 -85.9225
 -85.9227
 -85.9234
 -85.921
 -85.9207
 -85.9209
 -85.9209
 -85.9298
 -85.93
 -85.9297
 -85.9306
 -85.9121
 -85.9123
 -85.9118
 -85.9128
 -85.931
 -85.9311
 -85.9308
 -85.9311
 -85.9382
 -85.938
 -85.9378
 -85.9377
 -85.94
 -85.9396
 -85.9398
 -85.9195
 -85.9195
 -85.9198
 -85.9195
 -85.9237
 -85.9242
 -85.9234
 -85.924
 -85.9222
 -85.922
 -85.9215
 -85.9215
 -85.9246
 -85.9241
 -85.9244
 -85.9243
 -85.9444
 -85.9446
 -85.9448
 -85.9446
 -85.9202
 -85.9203
 -85.92
 -85.9196
 -85.9234
 -85.923
 -85.9234
 -85.9241
 -85.9397
 -85.9401
 -85.9397
 -85.9396
 -85.9266
 -85.9264
 -85.9268
 -85.924
 -85.9235
 -85.924
 -85.9319
 -85.9316
 -85.9311
 -85.9131
 -85.914
 -85.9141
 -85.9134
 -85.9313
 -85.9318
 -85.9315
 -85.9319
 -85.9308
 -85.9312
 -85.9304
 -85.9305
 -85.9404
 -85.9407
 -85.9402
 -85.9402
 -85.942
 -85.9419
 -85.9427
 -85.9419
 -85.9216
 -85.9209
 -85.9209
 -85.922
 -85.9323
 -85.933
 -85.933
 -85.9327
 -85.9321
 -85.9326
 -85.9328
 -85.9327
 -85.929
 -85.9298
 -85.9294
 -85.9299
 -85.9258
 -85.926
 -85.9261
 -85.9253
 -85.9325
 -85.9318
 -85.9323
 -85.9325
 -85.9225
 -85.9226
 -85.9224
 -85.9228
 -85.9415
 -85.9413
 -85.9415
 -85.9416
 -85.9247
 -85.9245
 -85.9248
 -85.9252
 -85.9399
 -85.9393
 -85.9397
 -85.9396
 -85.9427
 -85.9424
 -85.942
 -85.9425
 -85.9428
 -85.9426
 -85.9426
 -85.9424
 -85.9236
 -85.9232
 -85.9365
 -85.9363
 -85.936
 -85.9363
 -85.9222
 -85.923
 -85.9226
 -85.9223
 -85.9378
 -85.9387
 -85.9385
 -85.9386
 -85.9396
 -85.9394
 -85.94
 -85.9394
 -85.9249
 -85.9255
 -85.9255
 -85.9252
 -85.9323
 -85.9324
 -85.9328
 -85.9327
 -85.9245
 -85.9245
 -85.925
 -85.9246
 -85.9277
 -85.9276
 -85.9278
 -85.9284
 -85.9078
 -85.9087
 -85.9075
 -85.9083
 -85.9411
 -85.9408
 -85.9416
 -85.941
 -85.9248
 -85.9243
 -85.925
 -85.9254
 -85.9195
 -85.919
 -85.919
 -85.9196
 -85.9286
 -85.9283
 -85.929
 -85.929
 -85.9193
 -85.9183
 -85.9181
 -85.9192
 -85.9284
 -85.9278
 -85.9274
 -85.9281
 -85.9362
 -85.936
 -85.9366
 -85.9358
 -85.9294
 -85.929
 -85.929
 -85.9292
 -85.9405
 -85.9412
 -85.9406
 -85.9286
 -85.9293
 -85.9286
 -85.9292
 -85.9076
 -85.9073
 -85.9073
 -85.9071
 -85.9448
 -85.9449
 -85.945
 -85.9448
 -85.9321
 -85.9319
 -85.9323
 -85.9318
 -85.9381
 -85.9378
 -85.9372
 -85.9379
 -85.9215
 -85.922
 -85.9207
 -85.9213
 -85.9256
 -85.9261
 -85.9252
 -85.9258
 -85.9257
 -85.9266
 -85.9261
 -85.9266
 -85.9423
 -85.942
 -85.9425
 -85.9427
 -85.9266
 -85.9262
 -85.9258
 -85.926
 -85.9442
 -85.944
 -85.9443
 -85.9438
 -85.9357
 -85.935
 -85.9351
 -85.9358
 -85.9226
 -85.9227
 -85.9229
 -85.9225
 -85.9117
 -85.9119
 -85.9125
 -85.9115
 -85.9278
 -85.927
 -85.9275
 -85.9267
 -85.9298
 -85.9298
 -85.9303
 -85.9297
 -85.9365
 -85.9365
 -85.9362
 -85.9357
 -85.9085
 -85.9077
 -85.9087
 -85.9084
 -85.928
 -85.9276
 -85.9284
 -85.9281
 -85.9437
 -85.9433
 -85.9432
 -85.9432
 -85.9391
 -85.9396
 -85.9394
 -85.9392
 -85.9389
 -85.939
 -85.9394
 -85.9388
 -85.9382
 -85.9378
 -85.9376
 -85.9378
 -85.9391
 -85.9398
 -85.9395
 -85.9393
 -85.9338
 -85.9339
 -85.9338
 -85.9338
 -85.9231
 -85.9243
 -85.9249
 -85.9249
 -85.9246
 -85.9354
 -85.9348
 -85.935
 -85.9349
 -85.9352
 -85.9354
 -85.9346
 -85.9347
 -85.9178
 -85.9181
 -85.9181
 -85.9178
 -85.9409
 -85.9409
 -85.9406
 -85.9409
 -85.9379
 -85.9383
 -85.939
 -85.9386
 -85.9226
 -85.9233
 -85.9232
 -85.9233
 -85.9233
 -85.9231
 -85.9242
 -85.9246
 -85.9244
 -85.9249
 -85.9227
 -85.9221
 -85.9212
 -85.9217
 -85.9351
 -85.9357
 -85.9355
 -85.9351
 -85.9442
 -85.9442
 -85.944
 -85.9443
 -85.9302
 -85.9298
 -85.9302
 -85.9296
 -85.9422
 -85.9414
 -85.9411
 -85.9411
 -85.9282
 -85.9282
 -85.9279
 -85.9285
 -85.9349
 -85.9345
 -85.9341
 -85.9341
 -85.9219
 -85.9217
 -85.9216
 -85.921
 -85.9325
 -85.9332
 -85.9323
 -85.9328
 -85.9336
 -85.9343
 -85.9346
 -85.9337
 -85.9234
 -85.9232
 -85.9227
 -85.923
 -85.9264
 -85.9261
 -85.9271
 -85.9266
 -85.9284
 -85.9284
 -85.9278
 -85.9275
 -85.9325
 -85.9329
 -85.9326
 -85.9328
 -85.9174
 -85.9175
 -85.9177
 -85.9183
 -85.9338
 -85.9332
 -85.9336
 -85.934
 -85.9265
 -85.9258
 -85.9266
 -85.9271
 -85.9363
 -85.9361
 -85.9363
 -85.9358
 -85.9401
 -85.9397
 -85.9401
 -85.9398
 -85.943
 -85.9427
 -85.9426
 -85.9428
 -85.942
 -85.9422
 -85.9415
 -85.9447
 -85.9447
 -85.9449
 -85.945
 -85.9388
 -85.9383
 -85.9378
 -85.9384
 -85.9296
 -85.9294
 -85.9299
 -85.9298
 -85.9422
 -85.9419
 -85.9416
 -85.9422
 -85.9313
 -85.9314
 -85.931
 -85.9309
 -85.9327
 -85.933
 -85.9328
 -85.9424
 -85.9428
 -85.9426
 -85.9425
 -85.9413
 -85.9409
 -85.941
 -85.9318
 -85.9316
 -85.9321
 -85.9323
 -85.9262
 -85.9266
 -85.9261
 -85.927
 -85.9358
 -85.9353
 -85.9352
 -85.9351
 -85.9426
 -85.9429
 -85.9427
 -85.9425
 -85.9237
 -85.9236
 -85.9239
 -85.9233
 -85.9294
 -85.9293
 -85.9288
 -85.9288
 -85.9303
 -85.9311
 -85.9301
 -85.9303
 -85.9363
 -85.9357
 -85.9361
 -85.9362
 -85.9239
 -85.9235
 -85.9244
 -85.9236
 -85.9216
 -85.9211
 -85.9217
 -85.9215
 -85.9302
 -85.9303
 -85.9302
 -85.9308
 -85.9438
 -85.9435
 -85.9435
 -85.9436
 -85.9251
 -85.9244
 -85.9252
 -85.9248
 -85.9222
 -85.9226
 -85.922
 -85.9226
 -85.9338
 -85.933
 -85.9338
 -85.9337
 -85.9244
 -85.9246
 -85.9243
 -85.9223
 -85.9227
 -85.9226
 -85.9329
 -85.9326
 -85.9334
 -85.9328
 -85.9225
 -85.9222
 -85.9219
 -85.9225
 -85.9228
 -85.9221
 -85.9226
 -85.9226
 -85.9339
 -85.9341
 -85.9337
 -85.9225
 -85.9224
 -85.9398
 -85.9399
 -85.9408
 -85.9408
 -85.9357
 -85.9365
 -85.9366
 -85.9362
 -85.9173
 -85.9179
 -85.9169
 -85.9181
 -85.9132
 -85.9133
 -85.9127
 -85.9133
 -85.9243
 -85.9232
 -85.9239
 -85.9239
 -85.9417
 -85.9417
 -85.9419
 -85.9417
 -85.9348
 -85.9344
 -85.9341
 -85.9344
 -85.9206
 -85.9206
 -85.9205
 -85.9204
 -85.9246
 -85.9247
 -85.925
 -85.9255
 -85.9249
 -85.925
 -85.9249
 -85.9234
 -85.9238
 -85.9239
 -85.9239
 -85.9239
 -85.9235
 -85.924
 -85.9242
 -85.9221
 -85.9215
 -85.922
 -85.9214
 -85.9436
 -85.9439
 -85.9437
 -85.9437
 -85.9422
 -85.9426
 -85.942
 -85.9302
 -85.9298
 -85.9302
 -85.9295
 -85.924
 -85.9232
 -85.9241
 -85.9238
 -85.9449
 -85.9451
 -85.9223
 -85.9219
 -85.922
 -85.9217
 -85.9316
 -85.9327
 -85.932
 -85.9324
 -85.9342
 -85.934
 -85.9225
 -85.9224
 -85.923
 -85.9225
 -85.9427
 -85.943
 -85.9425
 -85.9432
 -85.9443
 -85.944
 -85.944
 -85.9446
 -85.9286
 -85.9289
 -85.9286
 -85.9172
 -85.9177
 -85.9174
 -85.9231
 -85.9238
 -85.923
 -85.9232
 -85.9375
 -85.9369
 -85.9378
 -85.9369
 -85.9257
 -85.925
 -85.9251
 -85.9246
 -85.9252
 -85.9248
 -85.9254
 -85.9247
 -85.9351
 -85.935
 -85.9354
 -85.936
 -85.9089
 -85.9093
 -85.9087
 -85.9082
 -85.9367
 -85.9369
 -85.9374
 -85.9373
 -85.9373
 -85.9372
 -85.9377
 -85.9379
 -85.9215
 -85.9216
 -85.9209
 -85.9214
 -85.9412
 -85.9415
 -85.9416
 -85.9411
 -85.9077
 -85.9069
 -85.907
 -85.9065
 -85.9429
 -85.942
 -85.942
 -85.9419
 -85.9393
 -85.9389
 -85.9247
 -85.9251
 -85.9249
 -85.9254
 -85.921
 -85.9205
 -85.9207
 -85.9212
 -85.941
 -85.9414
 -85.9413
 -85.9412
 -85.9261
 -85.9263
 -85.9263
 -85.9259
 -85.9437
 -85.9434
 -85.9436
 -85.9242
 -85.9236
 -85.9234
 -85.9203
 -85.9209
 -85.921
 -85.9431
 -85.9433
 -85.9431
 -85.9429
 -85.9245
 -85.9241
 -85.9241
 -85.9241
 -85.9411
 -85.9412
 -85.9203
 -85.9207
 -85.9202
 -85.9204
 -85.9309
 -85.9315
 -85.9315
 -85.931
 -85.9253
 -85.9249
 -85.9274
 -85.9286
 -85.9285
 -85.9278
 -85.9247
 -85.9246
 -85.9247
 -85.924
 -85.944
 -85.9445
 -85.9439
 -85.9441
 -85.9213
 -85.921
 -85.9211
 -85.9394
 -85.9081
 -85.908
 -85.9081
 -85.9077
 -85.9407
 -85.9409
 -85.9412
 -85.9403
 -85.9252
 -85.9253
 -85.9262
 -85.926
 -85.9365
 -85.9362
 -85.9363
 -85.9364
 -85.9246
 -85.9242
 -85.9239
 -85.9245
 -85.935
 -85.9178
 -85.9177
 -85.9177
 -85.9179
 -85.9349
 -85.9349
 -85.9347
 -85.9342
 -85.9389
 -85.9392
 -85.9394
 -85.9385
 -85.9389
 -85.9383
 -85.9391
 -85.941
 -85.9415
 -85.9413
 -85.9413
 -85.9215
 -85.9217
 -85.9223
 -85.922
 -85.9403
 -85.9403
 -85.9402
 -85.9407
 -85.9194
 -85.9193
 -85.9195
 -85.9188
 -85.9397
 -85.94
 -85.9402
 -85.9402
 -85.9299
 -85.9295
 -85.9294
 -85.9292
 -85.9363
 -85.9367
 -85.9369
 -85.937
 -85.9318
 -85.9315
 -85.9313
 -85.9311
 -85.9428
 -85.9421
 -85.9317
 -85.9311
 -85.9312
 -85.9316
 -85.9177
 -85.9175
 -85.9182
 -85.9175
 -85.9191
 -85.9188
 -85.9198
 -85.9189
 -85.9317
 -85.9323
 -85.9323
 -85.9324
 -85.9372
 -85.9372
 -85.9371
 -85.9379
 -85.938
 -85.9376
 -85.9378
 -85.9382
 -85.9423
 -85.9417
 -85.9419
 -85.9415
 -85.9382
 -85.9389
 -85.9385
 -85.9382
 -85.9191
 -85.9191
 -85.9195
 -85.9187
 -85.9222
 -85.9222
 -85.9221
 -85.923
 -85.945
 -85.9447
 -85.9446
 -85.9447
 -85.9329
 -85.9331
 -85.933
 -85.9339
 -85.923
 -85.9238
 -85.923
 -85.9236
 -85.9105
 -85.9103
 -85.9112
 -85.9101
 -85.9408
 -85.9411
 -85.9406
 -85.9416
 -85.9237
 -85.9238
 -85.924
 -85.9243
 -85.9277
 -85.9283
 -85.9273
 -85.9278
 -85.9193
 -85.919
 -85.9192
 -85.9196
 -85.9346
 -85.9343
 -85.9346
 -85.9347
 -85.9422
 -85.9423
 -85.9421
 -85.9423
 -85.9334
 -85.9327
 -85.9329
 -85.9327
 -85.9286
 -85.9287
 -85.9294
 -85.9291
 -85.9181
 -85.9184
 -85.9187
 -85.9177
 -85.9421
 -85.9356
 -85.936
 -85.9354
 -85.9359
 -85.9275
 -85.9273
 -85.9267
 -85.9269
 -85.937
 -85.9374
 -85.9373
 -85.9377
 -85.923
 -85.9227
 -85.9228
 -85.9234
 -85.9345
 -85.9349
 -85.9342
 -85.9175
 -85.9183
 -85.9176
 -85.9175
 -85.9395
 -85.9385
 -85.9392
 -85.9388
 -85.9215
 -85.9214
 -85.9218
 -85.9215
 -85.946
 -85.9458
 -85.9459
 -85.9461
 -85.9238
 -85.9239
 -85.924
 -85.9239
 -85.9126
 -85.9141
 -85.9139
 -85.9134
 -85.9169
 -85.9168
 -85.9174
 -85.9173
 -85.945
 -85.9448
 -85.9445
 -85.9444
 -85.9431
 -85.943
 -85.9433
 -85.9434
 -85.9302
 -85.9308
 -85.9306
 -85.9308
 -85.9244
 -85.9242
 -85.9247
 -85.9319
 -85.9319
 -85.931
 -85.9314
 -85.9355
 -85.9352
 -85.9359
 -85.9359
 -85.9316
 -85.9328
 -85.9324
 -85.9323
 -85.9308
 -85.931
 -85.9319
 -85.9314
 -85.9445
 -85.9441
 -85.9442
 -85.944
 -85.9225
 -85.9224
 -85.9231
 -85.9225
 -85.917
 -85.9159
 -85.916
 -85.9371
 -85.9366
 -85.9369
 -85.9366
 -85.9408
 -85.9412
 -85.9408
 -85.9407
 -85.9233
 -85.9232
 -85.9235
 -85.9227
 -85.9228
 -85.923
 -85.9223
 -85.9415
 -85.9412
 -85.9417
 -85.9409
 -85.9293
 -85.9292
 -85.9297
 -85.9293
 -85.9228
 -85.9222
 -85.9227
 -85.9227
 -85.9275
 -85.9272
 -85.9273
 -85.9277
 -85.9395
 -85.9395
 -85.939
 -85.9395
 -85.9231
 -85.9239
 -85.9227
 -85.9237
 -85.9281
 -85.9272
 -85.9275
 -85.9278
 -85.9253
 -85.9258
 -85.9254
 -85.9432
 -85.9431
 -85.9428
 -85.9429
 -85.9295
 -85.9296
 -85.9291
 -85.9298
 -85.945
 -85.9449
 -85.9454
 -85.9315
 -85.9318
 -85.9317
 -85.9314
 -85.9181
 -85.9187
 -85.9178
 -85.9181
 -85.9335
 -85.9337
 -85.9341
 -85.9346
 -85.9305
 -85.9313
 -85.9303
 -85.9237
 -85.9238
 -85.9244
 -85.9239
 -85.9212
 -85.9214
 -85.9211
 -85.9215
 -85.9236
 -85.9239
 -85.9243
 -85.9235
 -85.912
 -85.9121
 -85.9129
 -85.913
 -85.9265
 -85.9263
 -85.926
 -85.926
 -85.9253
 -85.9251
 -85.9259
 -85.925
 -85.9417
 -85.9411
 -85.9412
 -85.942
 -85.9204
 -85.9212
 -85.921
 -85.9208
 -85.9351
 -85.9349
 -85.9353
 -85.9355
 -85.9435
 -85.9435
 -85.9433
 -85.943
 -85.9437
 -85.9431
 -85.9434
 -85.9436
 -85.9391
 -85.9394
 -85.9391
 -85.9393
 -85.9441
 -85.9445
 -85.9445
 -85.9437
 -85.942
 -85.9421
 -85.9421
 -85.9451
 -85.9443
 -85.9446
 -85.9445
 -85.9193
 -85.919
 -85.9193
 -85.9187
 -85.9274
 -85.9268
 -85.9265
 -85.9269
 -85.9254
 -85.9261
 -85.9257
 -85.9262
 -85.9265
 -85.9262
 -85.9261
 -85.9259
 -85.9427
 -85.9423
 -85.9426
 -85.9428
 -85.9275
 -85.9275
 -85.9269
 -85.9267
 -85.9237
 -85.923
 -85.923
 -85.9235
 -85.9359
 -85.9357
 -85.9363
 -85.9355
 -85.9241
 -85.9248
 -85.9241
 -85.9245
 -85.9374
 -85.9369
 -85.9368
 -85.9317
 -85.9324
 -85.9323
 -85.9412
 -85.9407
 -85.9409
 -85.941
 -85.9276
 -85.9278
 -85.9274
 -85.9274
 -85.9346
 -85.9342
 -85.9343
 -85.9347
 -85.9262
 -85.9254
 -85.9258
 -85.9263
 -85.9451
 -85.9449
 -85.9436
 -85.9435
 -85.9433
 -85.9438
 -85.9184
 -85.9183
 -85.9183
 -85.918
 -85.9349
 -85.9354
 -85.9355
 -85.9359
 -85.9235
 -85.9242
 -85.9237
 -85.9232
 -85.9054
 -85.9043
 -85.9053
 -85.9049
 -85.9242
 -85.924
 -85.9236
 -85.9239
 -85.937
 -85.9365
 -85.937
 -85.9206
 -85.9205
 -85.9212
 -85.9212
 -85.9432
 -85.9428
 -85.9434
 -85.943
 -85.9243
 -85.9245
 -85.9243
 -85.9246
 -85.9346
 -85.9351
 -85.9348
 -85.9347
 -85.9184
 -85.9187
 -85.918
 -85.9184
 -85.9101
 -85.91
 -85.9104
 -85.9106
 -85.9231
 -85.9236
 -85.9231
 -85.923
 -85.9268
 -85.9266
 -85.927
 -85.9324
 -85.9315
 -85.9325
 -85.9321
 -85.9216
 -85.9216
 -85.921
 -85.9374
 -85.9372
 -85.9375
 -85.9379
 -85.9391
 -85.9399
 -85.9392
 -85.9398
 -85.9365
 -85.936
 -85.9365
 -85.9365
 -85.9429
 -85.9419
 -85.9423
 -85.9424
 -85.9386
 -85.9381
 -85.9384
 -85.9251
 -85.9255
 -85.9254
 -85.9257
 -85.9379
 -85.9374
 -85.9357
 -85.9351
 -85.9349
 -85.9354
 -85.937
 -85.9367
 -85.9368
 -85.9372
 -85.9232
 -85.9235
 -85.9233
 -85.9228
 -85.9237
 -85.9242
 -85.9238
 -85.9242
 -85.9058
 -85.9062
 -85.9063
 -85.906
 -85.9237
 -85.9241
 -85.9237
 -85.9252
 -85.9249
 -85.9248
 -85.925
 -85.9303
 -85.9302
 -85.9299
 -85.9298
 -85.9253
 -85.9259
 -85.926
 -85.9255
 -85.9185
 -85.9189
 -85.9184
 -85.9184
 -85.9392
 -85.9386
 -85.9392
 -85.9386
 -85.9299
 -85.9304
 -85.9299
 -85.9296
 -85.9428
 -85.9428
 -85.9426
 -85.9429
 -85.933
 -85.9324
 -85.933
 -85.9326
 -85.9423
 -85.9425
 -85.9423
 -85.9113
 -85.9119
 -85.9117
 -85.9118
 -85.9367
 -85.9375
 -85.9368
 -85.9369
 -85.9284
 -85.9278
 -85.9285
 -85.9282
 -85.9223
 -85.9219
 -85.926
 -85.9261
 -85.9264
 -85.9262
 -85.9281
 -85.9274
 -85.9276
 -85.9415
 -85.9416
 -85.9413
 -85.9416
 -85.9417
 -85.9414
 -85.941
 -85.9412
 -85.9224
 -85.9222
 -85.9225
 -85.9223
 -85.9295
 -85.9292
 -85.9243
 -85.9249
 -85.9245
 -85.924
 -85.938
 -85.9377
 -85.9385
 -85.9385
 -85.9179
 -85.9179
 -85.9178
 -85.9181
 -85.9231
 -85.9233
 -85.9228
 -85.9227
 -85.9242
 -85.9248
 -85.9251
 -85.9248
 -85.9314
 -85.9312
 -85.9313
 -85.9322
 -85.9375
 -85.9374
 -85.9371
 -85.9371
 -85.9385
 -85.938
 -85.9376
 -85.9382
 -85.9083
 -85.9082
 -85.908
 -85.9077
 -85.9207
 -85.9212
 -85.9215
 -85.9325
 -85.9315
 -85.9321
 -85.9332
 -85.9338
 -85.9332
 -85.9338
 -85.9424
 -85.9427
 -85.9425
 -85.9429
 -85.9293
 -85.9239
 -85.9239
 -85.9232
 -85.9234
 -85.935
 -85.9347
 -85.9342
 -85.9345
 -85.9389
 -85.9383
 -85.9385
 -85.9391
 -85.9409
 -85.941
 -85.9224
 -85.9222
 -85.9219
 -85.9219
 -85.9305
 -85.931
 -85.9308
 -85.9311
 -85.9209
 -85.9207
 -85.9208
 -85.9211
 -85.9333
 -85.9267
 -85.9263
 -85.9273
 -85.9276
 -85.9256
 -85.926
 -85.9262
 -85.9258
 -85.9426
 -85.942
 -85.9435
 -85.9437
 -85.9438
 -85.9436
 -85.9145
 -85.9141
 -85.9142
 -85.9145
 -85.9383
 -85.9385
 -85.9378
 -85.9387
 -85.9334
 -85.9327
 -85.9329
 -85.9335
 -85.9096
 -85.9098
 -85.9098
 -85.9094
 -85.9303
 -85.9303
 -85.9306
 -85.93
 -85.9299
 -85.9292
 -85.9288
 -85.9289
 -85.9219
 -85.9212
 -85.9219
 -85.9217
 -85.9448
 -85.9451
 -85.9451
 -85.9452
 -85.9291
 -85.9284
 -85.9286
 -85.9247
 -85.9254
 -85.9253
 -85.9248
 -85.9438
 -85.9444
 -85.944
 -85.9441
 -85.9247
 -85.9244
 -85.9238
 -85.925
 -85.9282
 -85.9286
 -85.9397
 -85.9398
 -85.9402
 -85.9393
 -85.9324
 -85.9324
 -85.9331
 -85.933
 -85.9431
 -85.9428
 -85.9432
 -85.9431
 -85.9289
 -85.9298
 -85.9233
 -85.9235
 -85.9237
 -85.9237
 -85.9248
 -85.9248
 -85.9252
 -85.9254
 -85.9404
 -85.9404
 -85.9398
 -85.94
 -85.939
 -85.9387
 -85.9391
 -85.9391
 -85.938
 -85.9373
 -85.938
 -85.9377
 -85.9253
 -85.9261
 -85.9258
 -85.9253
 -85.9145
 -85.9141
 -85.9144
 -85.9145
 -85.9438
 -85.9442
 -85.9438
 -85.944
 -85.9216
 -85.9217
 -85.9218
 -85.9222
 -85.9318
 -85.9322
 -85.9325
 -85.9319
 -85.9261
 -85.9272
 -85.9265
 -85.9268
 -85.9317
 -85.931
 -85.9316
 -85.9345
 -85.9352
 -85.9345
 -85.9352
 -85.9303
 -85.9308
 -85.9305
 -85.93
 -85.9368
 -85.9369
 -85.9374
 -85.9366
 -85.9366
 -85.9365
 -85.9367
 -85.9359
 -85.9093
 -85.9104
 -85.9094
 -85.9185
 -85.9192
 -85.9194
 -85.9192
 -85.9316
 -85.9311
 -85.9313
 -85.9313
 -85.94
 -85.9405
 -85.9401
 -85.9407
 -85.9235
 -85.9228
 -85.9235
 -85.9244
 -85.9248
 -85.9248
 -85.9338
 -85.9335
 -85.9339
 -85.934
 -85.9314
 -85.9319
 -85.9322
 -85.9322
 -85.9463
 -85.9463
 -85.9461
 -85.9463
 -85.9169
 -85.9171
 -85.9166
 -85.9158
 -85.9377
 -85.9379
 -85.927
 -85.9278
 -85.9277
 -85.9272
 -85.9362
 -85.9366
 -85.9365
 -85.9367
 -85.9329
 -85.9331
 -85.9335
 -85.9331
 -85.9279
 -85.9278
 -85.9285
 -85.9275
 -85.9356
 -85.9362
 -85.9359
 -85.9361
 -85.9225
 -85.9227
 -85.9227
 -85.9231
 -85.9203
 -85.9199
 -85.9204
 -85.9202
 -85.9393
 -85.9396
 -85.9401
 -85.9407
 -85.9314
 -85.9318
 -85.9323
 -85.913
 -85.9129
 -85.9133
 -85.9407
 -85.941
 -85.9412
 -85.9413
 -85.9416
 -85.9414
 -85.9412
 -85.9411
 -85.9303
 -85.9305
 -85.9307
 -85.931
 -85.9425
 -85.9428
 -85.9428
 -85.9427
 -85.943
 -85.9435
 -85.9431
 -85.9436
 -85.9279
 -85.9282
 -85.9287
 -85.9281
 -85.9385
 -85.9387
 -85.939
 -85.9389
 -85.9461
 -85.9462
 -85.9459
 -85.9463
 -85.9384
 -85.9384
 -85.9381
 -85.9388
 -85.932
 -85.9313
 -85.9316
 -85.931
 -85.9403
 -85.9404
 -85.9401
 -85.9399
 -85.9367
 -85.9365
 -85.9369
 -85.9339
 -85.9344
 -85.9151
 -85.9153
 -85.9149
 -85.9147
 -85.9335
 -85.9342
 -85.9339
 -85.9339
 -85.9156
 -85.9157
 -85.9159
 -85.9159
 -85.9155
 -85.9153
 -85.9162
 -85.9162
 -85.9325
 -85.9328
 -85.9328
 -85.9323
 -85.927
 -85.927
 -85.9265
 -85.9272
 -85.9346
 -85.9353
 -85.9351
 -85.935
 -85.931
 -85.9306
 -85.9195
 -85.9192
 -85.9194
 -85.9198
 -85.9438
 -85.9441
 -85.9442
 -85.944
 -85.9272
 -85.9268
 -85.9278
 -85.9274
 -85.9402
 -85.9399
 -85.9396
 -85.9399
 -85.9196
 -85.919
 -85.9195
 -85.9193
 -85.9418
 -85.9424
 -85.9423
 -85.9423
 -85.9337
 -85.933
 -85.9336
 -85.9336
 -85.9238
 -85.9231
 -85.9226
 -85.9231
 -85.946
 -85.9459
 -85.9459
 -85.9457
 -85.9256
 -85.9262
 -85.9258
 -85.9257
 -85.9279
 -85.927
 -85.9276
 -85.9271
 -85.9442
 -85.9443
 -85.944
 -85.9444
 -85.9303
 -85.9294
 -85.9297
 -85.9297
 -85.9406
 -85.941
 -85.9407
 -85.9405
 -85.94
 -85.9396
 -85.9398
 -85.9285
 -85.9274
 -85.9278
 -85.9278
 -85.9401
 -85.9405
 -85.9402
 -85.9404
 -85.922
 -85.9226
 -85.9225
 -85.922
 -85.9415
 -85.9418
 -85.9418
 -85.9416
 -85.9412
 -85.941
 -85.9413
 -85.9411
 -85.9228
 -85.9226
 -85.9236
 -85.9231
 -85.9235
 -85.9233
 -85.9239
 -85.9231
 -85.9029
 -85.903
 -85.9026
 -85.9027
 -85.9379
 -85.9373
 -85.9373
 -85.9157
 -85.9165
 -85.9166
 -85.9161
 -85.9433
 -85.9429
 -85.943
 -85.9431
 -85.9224
 -85.9405
 -85.9399
 -85.94
 -85.9404
 -85.9405
 -85.94
 -85.9401
 -85.908
 -85.9073
 -85.9076
 -85.9079
 -85.9067
 -85.9068
 -85.9066
 -85.9064
 -85.9429
 -85.9425
 -85.9428
 -85.9431
 -85.9235
 -85.9232
 -85.9237
 -85.9231
 -85.9364
 -85.9362
 -85.9368
 -85.9261
 -85.9256
 -85.9261
 -85.9253
 -85.9285
 -85.9285
 -85.9284
 -85.9402
 -85.94
 -85.9407
 -85.9335
 -85.934
 -85.934
 -85.9336
 -85.9264
 -85.9257
 -85.9257
 -85.9262
 -85.9231
 -85.9233
 -85.923
 -85.9232
 -85.9365
 -85.9369
 -85.9369
 -85.9188
 -85.9192
 -85.9182
 -85.9181
 -85.923
 -85.9241
 -85.9232
 -85.9277
 -85.9288
 -85.9285
 -85.9282
 -85.9215
 -85.9221
 -85.9222
 -85.9219
 -85.9231
 -85.9238
 -85.924
 -85.9238
 -85.9405
 -85.9401
 -85.9402
 -85.9401
 -85.9292
 -85.9287
 -85.929
 -85.9294
 -85.9248
 -85.9249
 -85.9319
 -85.9315
 -85.9317
 -85.9311
 -85.9421
 -85.9435
 -85.9437
 -85.9436
 -85.9435
 -85.902
 -85.9019
 -85.9018
 -85.902
 -85.9392
 -85.9398
 -85.9395
 -85.945
 -85.9449
 -85.9448
 -85.945
 -85.9381
 -85.9374
 -85.9377
 -85.9375
 -85.9228
 -85.923
 -85.9233
 -85.9228
 -85.9287
 -85.9282
 -85.9281
 -85.928
 -85.9453
 -85.9453
 -85.9452
 -85.9451
 -85.9379
 -85.9374
 -85.9371
 -85.9375
 -85.9184
 -85.9179
 -85.9178
 -85.9188
 -85.9278
 -85.9279
 -85.928
 -85.927
 -85.9272
 -85.9275
 -85.9278
 -85.9273
 -85.9019
 -85.9018
 -85.9018
 -85.902
 -85.922
 -85.9219
 -85.9218
 -85.9222
 -85.9381
 -85.9388
 -85.9382
 -85.9385
 -85.9339
 -85.9338
 -85.9345
 -85.9337
 -85.9294
 -85.9298
 -85.9303
 -85.9297
 -85.937
 -85.9377
 -85.9374
 -85.9375
 -85.934
 -85.9341
 -85.9346
 -85.9339
 -85.9373
 -85.9372
 -85.9369
 -85.9378
 -85.946
 -85.9456
 -85.9457
 -85.9461
 -85.939
 -85.9387
 -85.9386
 -85.9378
 -85.9367
 -85.9362
 -85.936
 -85.9366
 -85.936
 -85.9319
 -85.9318
 -85.9314
 -85.9324
 -85.9437
 -85.9435
 -85.9435
 -85.9434
 -85.9293
 -85.9288
 -85.9294
 -85.9292
 -85.9335
 -85.9338
 -85.9341
 -85.9332
 -85.9309
 -85.9302
 -85.9306
 -85.9312
 -85.9262
 -85.9253
 -85.926
 -85.9254
 -85.9115
 -85.9118
 -85.9127
 -85.9115
 -85.9463
 -85.9459
 -85.9356
 -85.9352
 -85.9352
 -85.9043
 -85.9043
 -85.9043
 -85.9241
 -85.9236
 -85.9239
 -85.9234
 -85.9152
 -85.9154
 -85.9144
 -85.9143
 -85.9208
 -85.9204
 -85.9209
 -85.92
 -85.9436
 -85.9429
 -85.9432
 -85.9432
 -85.9322
 -85.9315
 -85.9317
 -85.9314
 -85.9362
 -85.9369
 -85.9368
 -85.9374
 -85.934
 -85.934
 -85.9334
 -85.9332
 -85.9375
 -85.9377
 -85.9372
 -85.9374
 -85.9299
 -85.9299
 -85.9403
 -85.9392
 -85.9403
 -85.9394
 -85.9375
 -85.9371
 -85.9368
 -85.9378
 -85.9239
 -85.9232
 -85.924
 -85.9233
 -85.924
 -85.9242
 -85.9242
 -85.9243
 -85.9332
 -85.9333
 -85.9331
 -85.9335
 -85.9322
 -85.9325
 -85.9329
 -85.9333
 -85.921
 -85.9201
 -85.92
 -85.921
 -85.9368
 -85.9365
 -85.9363
 -85.9362
 -85.9456
 -85.9454
 -85.9456
 -85.9454
 -85.9411
 -85.9408
 -85.9408
 -85.9406
 -85.9461
 -85.9462
 -85.946
 -85.9463
 -85.9418
 -85.9422
 -85.9421
 -85.9421
 -85.9316
 -85.9324
 -85.9316
 -85.9318
 -85.9367
 -85.9362
 -85.9303
 -85.931
 -85.9301
 -85.9306
 -85.924
 -85.9244
 -85.9245
 -85.9247
 -85.9389
 -85.9395
 -85.9395
 -85.939
 -85.93
 -85.9298
 -85.9301
 -85.9294
 -85.928
 -85.9275
 -85.9273
 -85.9276
 -85.9229
 -85.9229
 -85.9232
 -85.9236
 -85.9249
 -85.9247
 -85.9245
 -85.9254
 -85.9228
 -85.9231
 -85.9233
 -85.923
 -85.9126
 -85.9128
 -85.9123
 -85.9124
 -85.9383
 -85.9385
 -85.9378
 -85.9383
 -85.9359
 -85.9361
 -85.9136
 -85.9141
 -85.914
 -85.9132
 -85.9259
 -85.9261
 -85.9352
 -85.9348
 -85.9353
 -85.9411
 -85.9411
 -85.9219
 -85.9219
 -85.9216
 -85.9222
 -85.9135
 -85.914
 -85.914
 -85.9141
 -85.9205
 -85.9207
 -85.9211
 -85.9213
 -85.9257
 -85.9261
 -85.9263
 -85.9265
 -85.9342
 -85.9334
 -85.9334
 -85.9335
 -85.9359
 -85.9356
 -85.9356
 -85.9354
 -85.9255
 -85.9262
 -85.9262
 -85.9261
 -85.9337
 -85.9336
 -85.9338
 -85.933
 -85.9311
 -85.9307
 -85.9306
 -85.9309
 -85.9322
 -85.9327
 -85.933
 -85.9327
 -85.9327
 -85.9319
 -85.9328
 -85.9302
 -85.9298
 -85.9307
 -85.9303
 -85.9267
 -85.927
 -85.9263
 -85.9266
 -85.9235
 -85.9239
 -85.9232
 -85.9238
 -85.9435
 -85.9434
 -85.9436
 -85.9438
 -85.9291
 -85.929
 -85.9296
 -85.9297
 -85.9202
 -85.9201
 -85.9194
 -85.92
 -85.9184
 -85.9185
 -85.9183
 -85.9181
 -85.9212
 -85.9208
 -85.9209
 -85.921
 -85.9227
 -85.9227
 -85.9233
 -85.9234
 -85.9233
 -85.9229
 -85.9228
 -85.923
 -85.9429
 -85.9432
 -85.9432
 -85.9433
 -85.9282
 -85.9282
 -85.928
 -85.9286
 -85.938
 -85.9382
 -85.9379
 -85.9376
 -85.9233
 -85.924
 -85.9231
 -85.9237
 -85.9439
 -85.9442
 -85.9441
 -85.9445
 -85.9445
 -85.9445
 -85.9448
 -85.9371
 -85.936
 -85.9363
 -85.9364
 -85.9247
 -85.9249
 -85.9243
 -85.9247
 -85.9455
 -85.945
 -85.9451
 -85.9276
 -85.927
 -85.9274
 -85.9265
 -85.9417
 -85.9418
 -85.941
 -85.9412
 -85.9416
 -85.941
 -85.9265
 -85.926
 -85.9263
 -85.9187
 -85.9189
 -85.9182
 -85.9185
 -85.923
 -85.9226
 -85.9232
 -85.9233
 -85.9312
 -85.9319
 -85.9311
 -85.9439
 -85.9432
 -85.9433
 -85.9374
 -85.9368
 -85.9365
 -85.9369
 -85.9441
 -85.9442
 -85.9436
 -85.9446
 -85.9284
 -85.929
 -85.9294
 -85.9288
 -85.9416
 -85.9417
 -85.942
 -85.9412
 -85.9314
 -85.9316
 -85.9311
 -85.9309
 -85.9251
 -85.9245
 -85.9248
 -85.9451
 -85.9447
 -85.9449
 -85.9453
 -85.936
 -85.9338
 -85.9345
 -85.9343
 -85.934
 -85.9344
 -85.9344
 -85.934
 -85.9246
 -85.9243
 -85.9242
 -85.9242
 -85.9242
 -85.9249
 -85.9289
 -85.9282
 -85.9281
 -85.9279
 -85.928
 -85.9287
 -85.9281
 -85.9286
 -85.937
 -85.9456
 -85.9451
 -85.9449
 -85.9454
 -85.9094
 -85.9087
 -85.9092
 -85.9092
 -85.9262
 -85.9258
 -85.9247
 -85.9244
 -85.9247
 -85.9249
 -85.9242
 -85.9242
 -85.9235
 -85.9238
 -85.9378
 -85.9372
 -85.9373
 -85.9376
 -85.9384
 -85.9388
 -85.938
 -85.9385
 -85.925
 -85.9244
 -85.9363
 -85.9363
 -85.937
 -85.9366
 -85.937
 -85.9375
 -85.937
 -85.9329
 -85.9326
 -85.9322
 -85.932
 -85.9292
 -85.9286
 -85.9291
 -85.9286
 -85.938
 -85.9387
 -85.9386
 -85.9382
 -85.9399
 -85.9401
 -85.9404
 -85.94
 -85.9387
 -85.9393
 -85.9388
 -85.9383
 -85.9385
 -85.9385
 -85.9379
 -85.9288
 -85.929
 -85.929
 -85.9285
 -85.9167
 -85.9166
 -85.917
 -85.9171
 -85.927
 -85.9269
 -85.9266
 -85.9268
 -85.9397
 -85.9392
 -85.9389
 -85.9395
 -85.9362
 -85.936
 -85.9359
 -85.9366
 -85.9269
 -85.9273
 -85.9275
 -85.9276
 -85.9362
 -85.9356
 -85.936
 -85.9361
 -85.9326
 -85.9328
 -85.9318
 -85.9328
 -85.9329
 -85.9336
 -85.9333
 -85.9334
 -85.9361
 -85.9364
 -85.9364
 -85.9435
 -85.9435
 -85.9433
 -85.9434
 -85.9268
 -85.9274
 -85.9271
 -85.9272
 -85.9306
 -85.9313
 -85.9312
 -85.931
 -85.9167
 -85.9162
 -85.9163
 -85.917
 -85.9227
 -85.9231
 -85.9231
 -85.9227
 -85.9236
 -85.9225
 -85.923
 -85.9225
 -85.9227
 -85.9229
 -85.9229
 -85.9231
 -85.9324
 -85.932
 -85.9322
 -85.9206
 -85.9205
 -85.9208
 -85.9209
 -85.9215
 -85.9217
 -85.9222
 -85.9214
 -85.945
 -85.9447
 -85.9447
 -85.9448
 -85.9328
 -85.9325
 -85.9323
 -85.932
 -85.9403
 -85.9404
 -85.9401
 -85.9398
 -85.934
 -85.9343
 -85.9338
 -85.9334
 -85.9359
 -85.9364
 -85.9359
 -85.9361
 -85.9243
 -85.9237
 -85.9241
 -85.9233
 -85.9306
 -85.9318
 -85.9309
 -85.931
 -85.9401
 -85.9403
 -85.9398
 -85.94
 -85.9345
 -85.9343
 -85.9351
 -85.9348
 -85.9218
 -85.9216
 -85.9224
 -85.9225
 -85.9435
 -85.9436
 -85.9435
 -85.9436
 -85.9271
 -85.9266
 -85.9213
 -85.9308
 -85.9311
 -85.9314
 -85.9306
 -85.9291
 -85.9295
 -85.9289
 -85.9288
 -85.9145
 -85.9144
 -85.9152
 -85.9262
 -85.9257
 -85.9255
 -85.9252
 -85.9341
 -85.935
 -85.9347
 -85.9352
 -85.9313
 -85.9318
 -85.9315
 -85.9313
 -85.9424
 -85.9426
 -85.9427
 -85.9425
 -85.9232
 -85.924
 -85.9234
 -85.9239
 -85.9239
 -85.9238
 -85.9245
 -85.9151
 -85.9142
 -85.9146
 -85.9151
 -85.9229
 -85.9235
 -85.9231
 -85.9336
 -85.9348
 -85.9337
 -85.9227
 -85.9226
 -85.9222
 -85.9224
 -85.9291
 -85.9297
 -85.9299
 -85.9298
 -85.9021
 -85.902
 -85.902
 -85.9024
 -85.9286
 -85.9283
 -85.9284
 -85.92
 -85.9199
 -85.92
 -85.9201
 -85.9284
 -85.9281
 -85.9275
 -85.9281
 -85.9222
 -85.9227
 -85.9227
 -85.923
 -85.9364
 -85.9366
 -85.9363
 -85.9368
 -85.938
 -85.9376
 -85.9381
 -85.9383
 -85.9445
 -85.9446
 -85.9447
 -85.9444
 -85.9332
 -85.9324
 -85.9331
 -85.9333
 -85.922
 -85.9215
 -85.922
 -85.9217
 -85.9246
 -85.9243
 -85.9178
 -85.9178
 -85.9182
 -85.9181
 -85.9298
 -85.9301
 -85.9262
 -85.9271
 -85.9269
 -85.9239
 -85.9243
 -85.9245
 -85.9241
 -85.9432
 -85.9433
 -85.9427
 -85.9428
 -85.9428
 -85.9426
 -85.9424
 -85.9426
 -85.9243
 -85.9246
 -85.9242
 -85.9236
 -85.9205
 -85.9207
 -85.9342
 -85.9342
 -85.9341
 -85.9347
 -85.9236
 -85.9234
 -85.9239
 -85.9239
 -85.9271
 -85.9263
 -85.9277
 -85.9461
 -85.9462
 -85.946
 -85.9313
 -85.9321
 -85.9317
 -85.9318
 -85.9413
 -85.9418
 -85.9412
 -85.941
 -85.9323
 -85.9328
 -85.9329
 -85.9322
 -85.9378
 -85.9383
 -85.9384
 -85.9375
 -85.9219
 -85.9223
 -85.922
 -85.9217
 -85.9232
 -85.924
 -85.9229
 -85.9238
 -85.9325
 -85.9319
 -85.933
 -85.9322
 -85.9265
 -85.9272
 -85.9274
 -85.9264
 -85.9215
 -85.9216
 -85.9219
 -85.9224
 -85.9292
 -85.9295
 -85.9299
 -85.9302
 -85.9354
 -85.9355
 -85.9351
 -85.9321
 -85.9327
 -85.9324
 -85.9327
 -85.9053
 -85.9061
 -85.9063
 -85.9059
 -85.9207
 -85.9206
 -85.9208
 -85.9207
 -85.9262
 -85.926
 -85.9261
 -85.9267
 -85.9131
 -85.9136
 -85.9127
 -85.9133
 -85.9412
 -85.941
 -85.9407
 -85.9448
 -85.9446
 -85.9444
 -85.9446
 -85.9387
 -85.9397
 -85.9392
 -85.9392
 -85.9319
 -85.9354
 -85.9361
 -85.9363
 -85.9359
 -85.9306
 -85.9311
 -85.9303
 -85.9303
 -85.9201
 -85.9194
 -85.9198
 -85.9237
 -85.924
 -85.9241
 -85.9232
 -85.9057
 -85.905
 -85.9057
 -85.9047
 -85.9146
 -85.9146
 -85.9149
 -85.9145
 -85.9257
 -85.9257
 -85.9261
 -85.9265
 -85.9453
 -85.9448
 -85.945
 -85.9448
 -85.9075
 -85.9074
 -85.9082
 -85.9078
 -85.9372
 -85.9376
 -85.9368
 -85.9373
 -85.9321
 -85.9322
 -85.9328
 -85.9322
 -85.9244
 -85.9233
 -85.9233
 -85.9297
 -85.929
 -85.9289
 -85.9289
 -85.9449
 -85.945
 -85.9451
 -85.9206
 -85.9217
 -85.9219
 -85.9288
 -85.9292
 -85.9299
 -85.9297
 -85.9259
 -85.9258
 -85.9256
 -85.9254
 -85.9266
 -85.9265
 -85.9272
 -85.9273
 -85.9199
 -85.9195
 -85.9195
 -85.9202
 -85.9298
 -85.9303
 -85.9296
 -85.9304
 -85.9433
 -85.9426
 -85.9426
 -85.9423
 -85.9422
 -85.9421
 -85.9419
 -85.9424
 -85.9188
 -85.9189
 -85.919
 -85.9188
 -85.9407
 -85.9408
 -85.9408
 -85.9403
 -85.9428
 -85.9434
 -85.9432
 -85.9427
 -85.9404
 -85.9404
 -85.9398
 -85.9399
 -85.9355
 -85.9354
 -85.9359
 -85.9356
 -85.9311
 -85.9307
 -85.9314
 -85.9258
 -85.9249
 -85.9252
 -85.9253
 -85.9384
 -85.938
 -85.9375
 -85.9382
 -85.939
 -85.9392
 -85.9395
 -85.9394
 -85.9464
 -85.9463
 -85.946
 -85.9461
 -85.9147
 -85.9151
 -85.915
 -85.9151
 -85.9181
 -85.9178
 -85.9179
 -85.9182
 -85.92
 -85.9199
 -85.9208
 -85.9199
 -85.9261
 -85.9253
 -85.9259
 -85.9258
 -85.9273
 -85.9274
 -85.9273
 -85.9432
 -85.9435
 -85.9439
 -85.9437
 -85.9397
 -85.9395
 -85.9392
 -85.9391
 -85.9304
 -85.9299
 -85.9297
 -85.9301
 -85.9425
 -85.9429
 -85.934
 -85.9341
 -85.934
 -85.9334
 -85.9424
 -85.9426
 -85.943
 -85.9426
 -85.9329
 -85.9336
 -85.9327
 -85.9337
 -85.9255
 -85.926
 -85.925
 -85.9255
 -85.9175
 -85.917
 -85.9175
 -85.918
 -85.905
 -85.9056
 -85.9046
 -85.9053
 -85.9415
 -85.9412
 -85.9412
 -85.9416
 -85.9423
 -85.9424
 -85.9425
 -85.9428
 -85.9284
 -85.9275
 -85.9281
 -85.9277
 -85.9318
 -85.9315
 -85.9314
 -85.9319
 -85.9233
 -85.9228
 -85.9237
 -85.9344
 -85.934
 -85.934
 -85.9336
 -85.9234
 -85.9233
 -85.9237
 -85.9238
 -85.9309
 -85.9302
 -85.9298
 -85.9301
 -85.9359
 -85.9356
 -85.9358
 -85.936
 -85.9323
 -85.9321
 -85.9318
 -85.9407
 -85.9401
 -85.9404
 -85.9403
 -85.9349
 -85.9356
 -85.9123
 -85.9132
 -85.912
 -85.9125
 -85.9384
 -85.9381
 -85.9383
 -85.9243
 -85.9244
 -85.9245
 -85.9242
 -85.9349
 -85.9349
 -85.9347
 -85.9306
 -85.93
 -85.9308
 -85.9303
 -85.9346
 -85.9338
 -85.9349
 -85.9343
 -85.9348
 -85.9355
 -85.9087
 -85.9087
 -85.9083
 -85.9087
 -85.9059
 -85.9052
 -85.9048
 -85.9055
 -85.9313
 -85.9306
 -85.9308
 -85.9305
 -85.9343
 -85.9339
 -85.9343
 -85.9338
 -85.909
 -85.9089
 -85.909
 -85.9096
 -85.9242
 -85.9235
 -85.9193
 -85.9195
 -85.9197
 -85.9202
 -85.9352
 -85.935
 -85.9358
 -85.9354
 -85.9339
 -85.934
 -85.9346
 -85.9336
 -85.9346
 -85.9339
 -85.9338
 -85.9339
 -85.926
 -85.9261
 -85.9266
 -85.926
 -85.9218
 -85.9215
 -85.921
 -85.9219
 -85.9154
 -85.9162
 -85.9161
 -85.9154
 -85.9223
 -85.9223
 -85.9223
 -85.9232
 -85.9384
 -85.938
 -85.9386
 -85.9383
 -85.9314
 -85.9299
 -85.9307
 -85.9139
 -85.9144
 -85.9148
 -85.9364
 -85.9372
 -85.9368
 -85.9368
 -85.9369
 -85.9359
 -85.9364
 -85.9366
 -85.9284
 -85.928
 -85.9278
 -85.9295
 -85.9298
 -85.9303
 -85.9297
 -85.9222
 -85.9218
 -85.9217
 -85.9217
 -85.9405
 -85.9403
 -85.9407
 -85.9406
 -85.9211
 -85.9209
 -85.921
 -85.9212
 -85.9202
 -85.9198
 -85.9202
 -85.9445
 -85.9451
 -85.9453
 -85.9449
 -85.9401
 -85.9405
 -85.9251
 -85.9247
 -85.9253
 -85.9252
 -85.9308
 -85.9315
 -85.9309
 -85.9295
 -85.9293
 -85.9294
 -85.9287
 -85.9213
 -85.9219
 -85.9216
 -85.94
 -85.9404
 -85.9397
 -85.9398
 -85.9211
 -85.9221
 -85.9215
 -85.9213
 -85.9375
 -85.9369
 -85.9366
 -85.9368
 -85.9213
 -85.9216
 -85.922
 -85.9213
 -85.9218
 -85.9216
 -85.9244
 -85.924
 -85.9242
 -85.9244
 -85.9149
 -85.9146
 -85.9139
 -85.9145
 -85.9385
 -85.9391
 -85.9267
 -85.927
 -85.9272
 -85.9271
 -85.9446
 -85.9444
 -85.9445
 -85.9447
 -85.9258
 -85.9253
 -85.926
 -85.9266
 -85.9394
 -85.94
 -85.9401
 -85.94
 -85.9425
 -85.943
 -85.9422
 -85.9428
 -85.9373
 -85.9366
 -85.9435
 -85.9438
 -85.9437
 -85.9436
 -85.9215
 -85.9215
 -85.9213
 -85.922
 -85.9435
 -85.9437
 -85.9437
 -85.9435
 -85.945
 -85.9455
 -85.9453
 -85.945
 -85.9335
 -85.9335
 -85.9341
 -85.9339
 -85.9297
 -85.9293
 -85.9301
 -85.9304
 -85.9417
 -85.9411
 -85.9415
 -85.9417
 -85.9131
 -85.9138
 -85.9133
 -85.913
 -85.9414
 -85.9421
 -85.9265
 -85.927
 -85.927
 -85.9277
 -85.9415
 -85.9412
 -85.9408
 -85.9408
 -85.9223
 -85.9228
 -85.9227
 -85.9227
 -85.9274
 -85.9264
 -85.9267
 -85.9272
 -85.9226
 -85.9223
 -85.9232
 -85.9221
 -85.9218
 -85.9221
 -85.9216
 -85.9208
 -85.9212
 -85.9211
 -85.9213
 -85.9341
 -85.9336
 -85.9335
 -85.9409
 -85.9409
 -85.9414
 -85.9413
 -85.9326
 -85.9323
 -85.932
 -85.9222
 -85.9218
 -85.9221
 -85.9308
 -85.9316
 -85.9309
 -85.9314
 -85.935
 -85.9349
 -85.935
 -85.9357
 -85.9289
 -85.9295
 -85.9296
 -85.9294
 -85.9286
 -85.9283
 -85.928
 -85.9272
 -85.9268
 -85.9266
 -85.9275
 -85.928
 -85.9283
 -85.9273
 -85.9412
 -85.9409
 -85.9412
 -85.9407
 -85.9363
 -85.9359
 -85.9363
 -85.9365
 -85.9298
 -85.9299
 -85.9296
 -85.9306
 -85.9208
 -85.9203
 -85.9207
 -85.9328
 -85.9324
 -85.9327
 -85.9329
 -85.9247
 -85.9239
 -85.9243
 -85.9238
 -85.9104
 -85.9107
 -85.9103
 -85.9101
 -85.9276
 -85.9272
 -85.9275
 -85.9274
 -85.9417
 -85.9416
 -85.9421
 -85.9419
 -85.927
 -85.9276
 -85.9272
 -85.9268
 -85.9213
 -85.9213
 -85.9215
 -85.9217
 -85.9218
 -85.9215
 -85.9216
 -85.9293
 -85.9295
 -85.9292
 -85.9353
 -85.9267
 -85.9257
 -85.9264
 -85.9263
 -85.9426
 -85.9426
 -85.9428
 -85.9418
 -85.9419
 -85.9421
 -85.9266
 -85.9272
 -85.9267
 -85.9271
 -85.9448
 -85.945
 -85.9452
 -85.9452
 -85.9224
 -85.9337
 -85.9331
 -85.9335
 -85.9334
 -85.9222
 -85.9224
 -85.9223
 -85.9225
 -85.9423
 -85.9426
 -85.942
 -85.9424
 -85.9357
 -85.9366
 -85.9363
 -85.9359
 -85.939
 -85.9394
 -85.9386
 -85.9388
 -85.9208
 -85.921
 -85.9212
 -85.9208
 -85.9253
 -85.9258
 -85.9252
 -85.9253
 -85.9328
 -85.9324
 -85.9329
 -85.9322
 -85.9256
 -85.9249
 -85.9259
 -85.9252
 -85.9354
 -85.9356
 -85.9362
 -85.9361
 -85.9227
 -85.9224
 -85.923
 -85.923
 -85.9248
 -85.9249
 -85.9255
 -85.9253
 -85.9338
 -85.9338
 -85.9339
 -85.9344
 -85.9423
 -85.9428
 -85.9425
 -85.9429
 -85.9195
 -85.9197
 -85.9202
 -85.9201
 -85.915
 -85.9141
 -85.9151
 -85.915
 -85.9429
 -85.9433
 -85.9431
 -85.9431
 -85.9161
 -85.9155
 -85.916
 -85.9156
 -85.9154
 -85.916
 -85.931
 -85.9312
 -85.9307
 -85.9305
 -85.9251
 -85.9255
 -85.9255
 -85.9249
 -85.9464
 -85.9463
 -85.9464
 -85.9462
 -85.9423
 -85.9422
 -85.9428
 -85.9355
 -85.9355
 -85.936
 -85.9354
 -85.9219
 -85.922
 -85.9215
 -85.9222
 -85.9247
 -85.9246
 -85.9245
 -85.9243
 -85.9247
 -85.925
 -85.9357
 -85.9368
 -85.9364
 -85.936
 -85.9347
 -85.9346
 -85.9341
 -85.9348
 -85.9365
 -85.9364
 -85.9359
 -85.9365
 -85.9448
 -85.9448
 -85.9442
 -85.945
 -85.9378
 -85.9378
 -85.9372
 -85.9276
 -85.932
 -85.9318
 -85.9319
 -85.9315
 -85.9324
 -85.9316
 -85.9319
 -85.9323
 -85.9406
 -85.9404
 -85.9404
 -85.9401
 -85.9378
 -85.9375
 -85.9375
 -85.938
 -85.9344
 -85.9338
 -85.9338
 -85.9261
 -85.9256
 -85.9262
 -85.9253
 -85.9318
 -85.9327
 -85.9322
 -85.9322
 -85.9273
 -85.9278
 -85.927
 -85.9075
 -85.9074
 -85.907
 -85.9078
 -85.9408
 -85.9416
 -85.9412
 -85.9407
 -85.9399
 -85.9408
 -85.9403
 -85.9083
 -85.9327
 -85.9328
 -85.9326
 -85.9333
 -85.9342
 -85.9343
 -85.9176
 -85.9177
 -85.9176
 -85.9179
 -85.9201
 -85.9203
 -85.9211
 -85.9202
 -85.9235
 -85.9239
 -85.9237
 -85.9238
 -85.9233
 -85.9236
 -85.9238
 -85.9232
 -85.9231
 -85.9236
 -85.9274
 -85.9269
 -85.9267
 -85.9267
 -85.9281
 -85.9288
 -85.9464
 -85.9463
 -85.9214
 -85.9224
 -85.9214
 -85.922
 -85.9296
 -85.9294
 -85.9299
 -85.9291
 -85.919
 -85.9193
 -85.9182
 -85.9184
 -85.9414
 -85.9417
 -85.941
 -85.9413
 -85.9396
 -85.9391
 -85.9396
 -85.9391
 -85.9354
 -85.9359
 -85.9359
 -85.9356
 -85.9329
 -85.933
 -85.9339
 -85.9336
 -85.9312
 -85.9309
 -85.9215
 -85.9373
 -85.9378
 -85.9378
 -85.9378
 -85.9442
 -85.944
 -85.9446
 -85.9439
 -85.9402
 -85.9408
 -85.94
 -85.9403
 -85.9021
 -85.9021
 -85.9022
 -85.9024
 -85.9443
 -85.9445
 -85.9443
 -85.9443
 -85.9238
 -85.9238
 -85.9232
 -85.924
 -85.9263
 -85.9256
 -85.9259
 -85.9253
 -85.9367
 -85.9368
 -85.9371
 -85.9372
 -85.937
 -85.9368
 -85.9365
 -85.9367
 -85.922
 -85.9228
 -85.9223
 -85.9226
 -85.9441
 -85.9443
 -85.9441
 -85.9442
 -85.9416
 -85.9419
 -85.9417
 -85.942
 -85.9372
 -85.9373
 -85.9377
 -85.9378
 -85.9418
 -85.9414
 -85.9417
 -85.9417
 -85.9248
 -85.9254
 -85.9254
 -85.9256
 -85.922
 -85.9221
 -85.9222
 -85.9224
 -85.941
 -85.9406
 -85.9405
 -85.9405
 -85.9289
 -85.9287
 -85.9286
 -85.928
 -85.9296
 -85.9293
 -85.9292
 -85.9296
 -85.9061
 -85.9065
 -85.9067
 -85.9066
 -85.9441
 -85.9442
 -85.9423
 -85.9423
 -85.942
 -85.9426
 -85.919
 -85.9185
 -85.9183
 -85.9191
 -85.9254
 -85.9246
 -85.9245
 -85.9243
 -85.9417
 -85.9414
 -85.942
 -85.9421
 -85.9282
 -85.9284
 -85.9281
 -85.9288
 -85.9269
 -85.9271
 -85.9264
 -85.9264
 -85.9446
 -85.9448
 -85.9445
 -85.9445
 -85.9325
 -85.9323
 -85.9325
 -85.9327
 -85.931
 -85.9312
 -85.931
 -85.9306
 -85.9392
 -85.9393
 -85.9395
 -85.9392
 -85.9357
 -85.9355
 -85.9353
 -85.935
 -85.9284
 -85.9283
 -85.9276
 -85.9256
 -85.926
 -85.9257
 -85.9267
 -85.9166
 -85.9162
 -85.9162
 -85.9172
 -85.9263
 -85.9267
 -85.9268
 -85.9269
 -85.9319
 -85.9315
 -85.9318
 -85.9314
 -85.9443
 -85.9444
 -85.9444
 -85.9439
 -85.9267
 -85.9277
 -85.9272
 -85.9271
 -85.9191
 -85.919
 -85.9185
 -85.9181
 -85.9368
 -85.9374
 -85.9371
 -85.9367
 -85.9345
 -85.9344
 -85.9341
 -85.9318
 -85.9326
 -85.9328
 -85.933
 -85.9157
 -85.9156
 -85.9156
 -85.9162
 -85.9329
 -85.9324
 -85.9325
 -85.9322
 -85.9438
 -85.9438
 -85.9439
 -85.9439
 -85.9322
 -85.9322
 -85.9324
 -85.9325
 -85.9205
 -85.9201
 -85.9204
 -85.9206
 -85.9228
 -85.9231
 -85.9227
 -85.9223
 -85.9464
 -85.9463
 -85.9464
 -85.9464
 -85.9246
 -85.9248
 -85.9247
 -85.9238
 -85.9344
 -85.9336
 -85.9338
 -85.9341
 -85.9463
 -85.9464
 -85.9462
 -85.9461
 -85.9426
 -85.9432
 -85.9428
 -85.937
 -85.937
 -85.9377
 -85.9378
 -85.9411
 -85.9412
 -85.9418
 -85.9409
 -85.9105
 -85.911
 -85.9114
 -85.9113
 -85.9226
 -85.9233
 -85.9223
 -85.9434
 -85.9439
 -85.9438
 -85.9439
 -85.9341
 -85.9339
 -85.9345
 -85.9337
 -85.9388
 -85.9387
 -85.9393
 -85.9383
 -85.9198
 -85.9197
 -85.9192
 -85.919
 -85.928
 -85.9289
 -85.9279
 -85.9285
 -85.9354
 -85.9345
 -85.9348
 -85.9183
 -85.9185
 -85.9188
 -85.9188
 -85.9225
 -85.9212
 -85.9215
 -85.9213
 -85.9271
 -85.9436
 -85.9439
 -85.9437
 -85.944
 -85.9115
 -85.9114
 -85.9108
 -85.9109
 -85.9389
 -85.9398
 -85.9395
 -85.94
 -85.9348
 -85.9344
 -85.9345
 -85.9339
 -85.9076
 -85.9402
 -85.9399
 -85.9405
 -85.9435
 -85.944
 -85.9436
 -85.9437
 -85.93
 -85.9299
 -85.9309
 -85.9303
 -85.9363
 -85.9362
 -85.9367
 -85.936
 -85.9237
 -85.9231
 -85.9311
 -85.9308
 -85.9307
 -85.9314
 -85.9235
 -85.9231
 -85.9228
 -85.9233
 -85.9257
 -85.9254
 -85.9263
 -85.9264
 -85.9373
 -85.9369
 -85.9373
 -85.9374
 -85.9136
 -85.9135
 -85.9135
 -85.9143
 -85.9221
 -85.9218
 -85.922
 -85.9216
 -85.915
 -85.9155
 -85.9201
 -85.9201
 -85.9202
 -85.9201
 -85.9192
 -85.9187
 -85.9193
 -85.9188
 -85.9445
 -85.9442
 -85.9439
 -85.9439
 -85.9336
 -85.9336
 -85.9333
 -85.9342
 -85.9277
 -85.9286
 -85.9282
 -85.9281
 -85.9318
 -85.9315
 -85.9314
 -85.932
 -85.944
 -85.9439
 -85.9181
 -85.9178
 -85.9179
 -85.9181
 -85.9439
 -85.9441
 -85.9437
 -85.9124
 -85.9122
 -85.9124
 -85.912
 -85.9429
 -85.9423
 -85.9427
 -85.9425
 -85.9261
 -85.9256
 -85.9262
 -85.9255
 -85.9296
 -85.9295
 -85.9293
 -85.9436
 -85.9433
 -85.9434
 -85.9436
 -85.9335
 -85.9329
 -85.9335
 -85.9331
 -85.9296
 -85.93
 -85.9304
 -85.9299
 -85.9262
 -85.9259
 -85.928
 -85.9268
 -85.9276
 -85.9272
 -85.9346
 -85.934
 -85.9344
 -85.9445
 -85.944
 -85.9439
 -85.9444
 -85.9293
 -85.9297
 -85.9292
 -85.9295
 -85.9281
 -85.9277
 -85.9252
 -85.9246
 -85.9244
 -85.925
 -85.9139
 -85.914
 -85.9147
 -85.9336
 -85.9338
 -85.9329
 -85.9329
 -85.9442
 -85.9443
 -85.9443
 -85.9149
 -85.9147
 -85.915
 -85.929
 -85.9285
 -85.9288
 -85.9282
 -85.9361
 -85.9361
 -85.9355
 -85.9357
 -85.9107
 -85.9104
 -85.9106
 -85.9108
 -85.9414
 -85.9415
 -85.9412
 -85.9411
 -85.9366
 -85.9362
 -85.9362
 -85.936
 -85.94
 -85.9402
 -85.9398
 -85.9433
 -85.9434
 -85.944
 -85.9436
 -85.9316
 -85.9308
 -85.9315
 -85.9316
 -85.9434
 -85.9432
 -85.9431
 -85.943
 -85.9262
 -85.9261
 -85.9265
 -85.9258
 -85.9443
 -85.9354
 -85.9308
 -85.9306
 -85.9312
 -85.9304
 -85.9346
 -85.9344
 -85.934
 -85.9339
 -85.9381
 -85.9381
 -85.9378
 -85.9374
 -85.935
 -85.9348
 -85.9354
 -85.9351
 -85.9386
 -85.9383
 -85.9387
 -85.9386
 -85.9308
 -85.9304
 -85.9306
 -85.9311
 -85.9297
 -85.9298
 -85.93
 -85.9303
 -85.9279
 -85.9277
 -85.9276
 -85.9283
 -85.9301
 -85.93
 -85.9295
 -85.9213
 -85.9214
 -85.9213
 -85.9217
 -85.9315
 -85.9359
 -85.9366
 -85.9367
 -85.9364
 -85.9438
 -85.9438
 -85.9433
 -85.9252
 -85.9243
 -85.9246
 -85.9243
 -85.9322
 -85.933
 -85.9327
 -85.9348
 -85.9346
 -85.9344
 -85.9342
 -85.9362
 -85.9365
 -85.937
 -85.9372
 -85.9421
 -85.9423
 -85.9428
 -85.9423
 -85.9233
 -85.9232
 -85.9236
 -85.9228
 -85.9323
 -85.9319
 -85.9319
 -85.9315
 -85.9302
 -85.9299
 -85.9295
 -85.9302
 -85.9297
 -85.9293
 -85.9292
 -85.9288
 -85.9311
 -85.9309
 -85.9313
 -85.9306
 -85.9378
 -85.937
 -85.938
 -85.9374
 -85.9296
 -85.9287
 -85.929
 -85.9292
 -85.918
 -85.918
 -85.918
 -85.9182
 -85.9161
 -85.9165
 -85.9163
 -85.931
 -85.9311
 -85.9316
 -85.9318
 -85.9313
 -85.9314
 -85.9317
 -85.9319
 -85.9299
 -85.9294
 -85.9303
 -85.9303
 -85.9431
 -85.9432
 -85.9426
 -85.9426
 -85.9382
 -85.9377
 -85.9376
 -85.9381
 -85.9248
 -85.9251
 -85.925
 -85.9252
 -85.9205
 -85.9212
 -85.9211
 -85.9201
 -85.9418
 -85.9416
 -85.9413
 -85.9418
 -85.912
 -85.9114
 -85.9116
 -85.9123
 -85.9268
 -85.9273
 -85.927
 -85.9269
 -85.9196
 -85.9199
 -85.9199
 -85.9228
 -85.9232
 -85.9232
 -85.9237
 -85.9372
 -85.9371
 -85.9375
 -85.9366
 -85.9227
 -85.922
 -85.9221
 -85.9225
 -85.9163
 -85.9177
 -85.9168
 -85.9106
 -85.9113
 -85.9116
 -85.9112
 -85.9452
 -85.9453
 -85.9454
 -85.9457
 -85.9241
 -85.9237
 -85.924
 -85.9243
 -85.9338
 -85.933
 -85.9331
 -85.9336
 -85.9426
 -85.9425
 -85.9421
 -85.9424
 -85.94
 -85.9405
 -85.9398
 -85.94
 -85.9247
 -85.9248
 -85.9244
 -85.9246
 -85.9184
 -85.9176
 -85.917
 -85.9178
 -85.933
 -85.9334
 -85.9327
 -85.9331
 -85.919
 -85.9197
 -85.9282
 -85.9272
 -85.9274
 -85.928
 -85.9288
 -85.9288
 -85.9284
 -85.929
 -85.9279
 -85.928
 -85.9277
 -85.9209
 -85.9211
 -85.9209
 -85.934
 -85.9341
 -85.9343
 -85.9344
 -85.9333
 -85.9332
 -85.9329
 -85.9338
 -85.9246
 -85.9252
 -85.9249
 -85.9246
 -85.9384
 -85.9389
 -85.9382
 -85.9384
 -85.9307
 -85.9299
 -85.9303
 -85.9309
 -85.9209
 -85.9208
 -85.9207
 -85.9208
 -85.9272
 -85.9278
 -85.9273
 -85.9339
 -85.9338
 -85.9334
 -85.9337
 -85.9316
 -85.932
 -85.9323
 -85.945
 -85.9449
 -85.9447
 -85.9446
 -85.9152
 -85.9149
 -85.9153
 -85.9143
 -85.9264
 -85.927
 -85.927
 -85.9265
 -85.9257
 -85.9255
 -85.925
 -85.9256
 -85.9451
 -85.9451
 -85.9456
 -85.9459
 -85.9394
 -85.9397
 -85.9396
 -85.923
 -85.923
 -85.9226
 -85.923
 -85.9392
 -85.9386
 -85.9388
 -85.9242
 -85.9242
 -85.9238
 -85.9239
 -85.9048
 -85.9053
 -85.9049
 -85.9053
 -85.943
 -85.9431
 -85.9434
 -85.9428
 -85.921
 -85.9208
 -85.9206
 -85.9201
 -85.9446
 -85.9445
 -85.9444
 -85.9445
 -85.9225
 -85.9231
 -85.9226
 -85.9229
 -85.9053
 -85.9045
 -85.9051
 -85.9052
 -85.9172
 -85.9167
 -85.9172
 -85.9174
 -85.9213
 -85.9217
 -85.922
 -85.9212
 -85.9304
 -85.9296
 -85.9204
 -85.9205
 -85.9194
 -85.9195
 -85.9345
 -85.9341
 -85.9339
 -85.9336
 -85.9298
 -85.9298
 -85.9296
 -85.9304
 -85.9425
 -85.942
 -85.9428
 -85.9429
 -85.9414
 -85.9412
 -85.9416
 -85.9417
 -85.9402
 -85.9397
 -85.9401
 -85.9397
 -85.9422
 -85.9422
 -85.9424
 -85.942
 -85.9361
 -85.9361
 -85.9365
 -85.9361
 -85.9405
 -85.941
 -85.9409
 -85.9407
 -85.9159
 -85.915
 -85.9149
 -85.9159
 -85.9417
 -85.942
 -85.942
 -85.9419
 -85.9279
 -85.9274
 -85.9271
 -85.9273
 -85.939
 -85.9382
 -85.9383
 -85.9415
 -85.9419
 -85.942
 -85.9418
 -85.9211
 -85.9205
 -85.9204
 -85.9207
 -85.9175
 -85.9173
 -85.917
 -85.9171
 -85.9372
 -85.9372
 -85.9368
 -85.9377
 -85.9284
 -85.9284
 -85.9282
 -85.9278
 -85.9364
 -85.9361
 -85.9364
 -85.9362
 -85.9362
 -85.9362
 -85.9371
 -85.9271
 -85.9269
 -85.9264
 -85.9358
 -85.9361
 -85.9325
 -85.9317
 -85.9444
 -85.9446
 -85.9446
 -85.9444
 -85.9316
 -85.9318
 -85.9314
 -85.9322
 -85.9357
 -85.9355
 -85.9363
 -85.9355
 -85.9339
 -85.9342
 -85.9339
 -85.9344
 -85.9405
 -85.9393
 -85.9395
 -85.9391
 -85.9391
 -85.929
 -85.9292
 -85.9285
 -85.9285
 -85.9198
 -85.9198
 -85.9198
 -85.9199
 -85.9358
 -85.9353
 -85.9359
 -85.9355
 -85.9365
 -85.9362
 -85.936
 -85.9367
 -85.907
 -85.9075
 -85.9077
 -85.9081
 -85.931
 -85.9315
 -85.9311
 -85.9308
 -85.9302
 -85.9297
 -85.9295
 -85.9299
 -85.9355
 -85.9351
 -85.9217
 -85.9218
 -85.922
 -85.9218
 -85.926
 -85.9264
 -85.9263
 -85.9259
 -85.9225
 -85.9223
 -85.9221
 -85.9222
 -85.9251
 -85.9255
 -85.9254
 -85.9249
 -85.9221
 -85.9221
 -85.9219
 -85.9223
 -85.9396
 -85.9393
 -85.9395
 -85.9398
 -85.9416
 -85.9415
 -85.941
 -85.9413
 -85.9243
 -85.924
 -85.9237
 -85.9243
 -85.9309
 -85.9304
 -85.9309
 -85.9306
 -85.9403
 -85.9397
 -85.9402
 -85.9399
 -85.9287
 -85.9283
 -85.9284
 -85.9292
 -85.9242
 -85.9247
 -85.9185
 -85.9189
 -85.919
 -85.9185
 -85.9299
 -85.9297
 -85.9293
 -85.929
 -85.9404
 -85.9402
 -85.9402
 -85.9408
 -85.944
 -85.9436
 -85.9437
 -85.9441
 -85.9086
 -85.9086
 -85.9278
 -85.9284
 -85.9285
 -85.9288
 -85.9269
 -85.926
 -85.9266
 -85.9266
 -85.9264
 -85.9262
 -85.9228
 -85.9231
 -85.9231
 -85.9232
 -85.9299
 -85.9305
 -85.9307
 -85.9159
 -85.9163
 -85.9163
 -85.9167
 -85.9418
 -85.9421
 -85.9414
 -85.9418
 -85.9439
 -85.9439
 -85.9438
 -85.9452
 -85.945
 -85.9446
 -85.9448
 -85.9334
 -85.9343
 -85.934
 -85.9341
 -85.9309
 -85.9317
 -85.9306
 -85.9313
 -85.9386
 -85.9394
 -85.9396
 -85.9392
 -85.9352
 -85.9351
 -85.9357
 -85.9351
 -85.9344
 -85.935
 -85.9346
 -85.9321
 -85.9321
 -85.9318
 -85.9326
 -85.9375
 -85.9385
 -85.9381
 -85.9375
 -85.9288
 -85.9284
 -85.9288
 -85.9288
 -85.9313
 -85.9312
 -85.9319
 -85.931
 -85.9362
 -85.936
 -85.9357
 -85.9362
 -85.931
 -85.9306
 -85.9305
 -85.9311
 -85.9056
 -85.9054
 -85.9061
 -85.9061
 -85.9234
 -85.9232
 -85.9232
 -85.9228
 -85.9375
 -85.9374
 -85.9381
 -85.9382
 -85.9225
 -85.9225
 -85.9217
 -85.9215
 -85.9209
 -85.9201
 -85.9209
 -85.9214
 -85.9406
 -85.9405
 -85.9408
 -85.9402
 -85.9399
 -85.9393
 -85.9398
 -85.9397
 -85.9421
 -85.9415
 -85.9419
 -85.9421
 -85.9381
 -85.9381
 -85.9386
 -85.9384
 -85.9277
 -85.9276
 -85.9272
 -85.9276
 -85.9235
 -85.9232
 -85.9238
 -85.9232
 -85.9365
 -85.9355
 -85.9365
 -85.9358
 -85.9237
 -85.9239
 -85.924
 -85.9239
 -85.919
 -85.9192
 -85.9193
 -85.9196
 -85.9305
 -85.931
 -85.9305
 -85.931
 -85.9265
 -85.9261
 -85.9257
 -85.927
 -85.9272
 -85.9281
 -85.9275
 -85.9191
 -85.9187
 -85.9182
 -85.9187
 -85.9242
 -85.9241
 -85.9239
 -85.924
 -85.9371
 -85.9374
 -85.9371
 -85.9373
 -85.9316
 -85.9322
 -85.9323
 -85.9455
 -85.9451
 -85.9451
 -85.9453
 -85.9429
 -85.9433
 -85.9436
 -85.9431
 -85.9262
 -85.9267
 -85.9259
 -85.9267
 -85.9327
 -85.9331
 -85.9198
 -85.9197
 -85.919
 -85.92
 -85.9317
 -85.9311
 -85.9308
 -85.9313
 -85.9418
 -85.9419
 -85.9415
 -85.9419
 -85.9236
 -85.9237
 -85.9239
 -85.9282
 -85.9283
 -85.9285
 -85.9277
 -85.9265
 -85.9273
 -85.9273
 -85.9271
 -85.9305
 -85.9311
 -85.9312
 -85.9305
 -85.9294
 -85.9297
 -85.9302
 -85.9297
 -85.9314
 -85.9317
 -85.9313
 -85.9319
 -85.9288
 -85.9293
 -85.9392
 -85.9389
 -85.9397
 -85.9391
 -85.9292
 -85.9287
 -85.9289
 -85.9292
 -85.9344
 -85.9336
 -85.934
 -85.9291
 -85.9296
 -85.9292
 -85.9296
 -85.9346
 -85.9343
 -85.9339
 -85.9344
 -85.9227
 -85.9221
 -85.9225
 -85.9218
 -85.9291
 -85.9289
 -85.9297
 -85.933
 -85.9332
 -85.9338
 -85.9327
 -85.9301
 -85.93
 -85.9304
 -85.9225
 -85.9226
 -85.9221
 -85.935
 -85.9349
 -85.9348
 -85.9342
 -85.9305
 -85.9309
 -85.931
 -85.9093
 -85.9095
 -85.9097
 -85.9086
 -85.9352
 -85.9348
 -85.9345
 -85.9353
 -85.927
 -85.9264
 -85.9265
 -85.9262
 -85.9402
 -85.9401
 -85.9403
 -85.9406
 -85.9413
 -85.9409
 -85.9415
 -85.9414
 -85.9206
 -85.9216
 -85.9205
 -85.9206
 -85.9328
 -85.9323
 -85.9319
 -85.925
 -85.9243
 -85.9248
 -85.9248
 -85.941
 -85.9403
 -85.9408
 -85.9314
 -85.932
 -85.9316
 -85.9321
 -85.9368
 -85.9371
 -85.937
 -85.9369
 -85.9426
 -85.9428
 -85.9429
 -85.9425
 -85.903
 -85.9026
 -85.9027
 -85.903
 -85.9249
 -85.925
 -85.9254
 -85.9248
 -85.9323
 -85.9334
 -85.933
 -85.9332
 -85.918
 -85.9175
 -85.9172
 -85.9305
 -85.931
 -85.9309
 -85.9304
 -85.9432
 -85.9358
 -85.9353
 -85.9347
 -85.9353
 -85.9407
 -85.9407
 -85.9408
 -85.941
 -85.9387
 -85.9385
 -85.9383
 -85.9388
 -85.9327
 -85.9325
 -85.9315
 -85.9308
 -85.9309
 -85.9308
 -85.9101
 -85.9108
 -85.9102
 -85.9106
 -85.926
 -85.9258
 -85.9255
 -85.9251
 -85.925
 -85.9255
 -85.9252
 -85.9436
 -85.9442
 -85.9437
 -85.9435
 -85.9306
 -85.9305
 -85.9311
 -85.9312
 -85.9325
 -85.9322
 -85.9317
 -85.9322
 -85.9413
 -85.9409
 -85.9416
 -85.941
 -85.9311
 -85.9309
 -85.9317
 -85.9311
 -85.9152
 -85.9154
 -85.9147
 -85.915
 -85.9299
 -85.9297
 -85.9302
 -85.9299
 -85.9247
 -85.9247
 -85.9248
 -85.9252
 -85.9234
 -85.9229
 -85.923
 -85.9232
 -85.9198
 -85.92
 -85.9197
 -85.9198
 -85.914
 -85.9137
 -85.9136
 -85.9145
 -85.9449
 -85.9446
 -85.9447
 -85.9446
 -85.9117
 -85.9119
 -85.9113
 -85.9122
 -85.9307
 -85.9302
 -85.9307
 -85.9301
 -85.9445
 -85.9446
 -85.9442
 -85.9444
 -85.9277
 -85.9276
 -85.928
 -85.9281
 -85.9197
 -85.9423
 -85.9421
 -85.9422
 -85.9427
 -85.9222
 -85.9149
 -85.9158
 -85.9158
 -85.915
 -85.9335
 -85.9343
 -85.9389
 -85.9382
 -85.9391
 -85.9384
 -85.9405
 -85.9405
 -85.9408
 -85.9407
 -85.9453
 -85.945
 -85.9455
 -85.9391
 -85.9398
 -85.9397
 -85.9396
 -85.9278
 -85.944
 -85.9364
 -85.9363
 -85.9361
 -85.9439
 -85.9441
 -85.9442
 -85.944
 -85.9282
 -85.9281
 -85.9281
 -85.9277
 -85.9245
 -85.9247
 -85.9242
 -85.9239
 -85.9358
 -85.9355
 -85.9356
 -85.9365
 -85.9434
 -85.9437
 -85.9432
 -85.9431
 -85.9419
 -85.9417
 -85.942
 -85.9417
 -85.9342
 -85.9351
 -85.935
 -85.9134
 -85.9129
 -85.9143
 -85.9133
 -85.9037
 -85.9045
 -85.904
 -85.9044
 -85.9181
 -85.9173
 -85.9171
 -85.9176
 -85.9319
 -85.9325
 -85.9318
 -85.9157
 -85.9163
 -85.9161
 -85.9157
 -85.9394
 -85.9393
 -85.9398
 -85.9399
 -85.94
 -85.9397
 -85.9399
 -85.9223
 -85.9221
 -85.9369
 -85.9372
 -85.9465
 -85.9462
 -85.9463
 -85.9449
 -85.9451
 -85.945
 -85.9452
 -85.9289
 -85.9284
 -85.9293
 -85.9289
 -85.9258
 -85.9257
 -85.9253
 -85.9261
 -85.9301
 -85.93
 -85.9307
 -85.9305
 -85.9443
 -85.9443
 -85.9444
 -85.9443
 -85.937
 -85.9373
 -85.9371
 -85.9368
 -85.9197
 -85.9196
 -85.9196
 -85.92
 -85.937
 -85.9373
 -85.9368
 -85.9374
 -85.933
 -85.9332
 -85.9325
 -85.9332
 -85.9361
 -85.9365
 -85.9364
 -85.9017
 -85.9019
 -85.902
 -85.9254
 -85.925
 -85.9282
 -85.9282
 -85.9277
 -85.9286
 -85.9387
 -85.9393
 -85.9388
 -85.9387
 -85.9371
 -85.9373
 -85.9379
 -85.9376
 -85.9376
 -85.9372
 -85.9382
 -85.9102
 -85.9101
 -85.9194
 -85.9193
 -85.9197
 -85.9195
 -85.933
 -85.9098
 -85.9091
 -85.9094
 -85.9095
 -85.9245
 -85.9252
 -85.9247
 -85.9246
 -85.9291
 -85.9288
 -85.9143
 -85.9155
 -85.9154
 -85.9148
 -85.9449
 -85.9453
 -85.9451
 -85.9449
 -85.9432
 -85.9433
 -85.9431
 -85.9437
 -85.9216
 -85.9227
 -85.9219
 -85.9224
 -85.9253
 -85.925
 -85.9262
 -85.9259
 -85.9256
 -85.9253
 -85.9256
 -85.938
 -85.9384
 -85.9376
 -85.938
 -85.9196
 -85.9201
 -85.9204
 -85.9204
 -85.9302
 -85.9304
 -85.9302
 -85.9352
 -85.9354
 -85.9356
 -85.9361
 -85.9253
 -85.9254
 -85.9258
 -85.9256
 -85.923
 -85.9236
 -85.924
 -85.9234
 -85.9235
 -85.9231
 -85.9233
 -85.9237
 -85.9275
 -85.9277
 -85.9283
 -85.9277
 -85.9351
 -85.9347
 -85.9246
 -85.9247
 -85.9249
 -85.9244
 -85.9451
 -85.9445
 -85.9447
 -85.9447
 -85.9227
 -85.923
 -85.9227
 -85.9231
 -85.9171
 -85.9168
 -85.9175
 -85.9172
 -85.9332
 -85.9332
 -85.9127
 -85.9127
 -85.9122
 -85.9128
 -85.9264
 -85.9268
 -85.9261
 -85.9435
 -85.9435
 -85.9438
 -85.9437
 -85.9135
 -85.9132
 -85.9133
 -85.9232
 -85.9231
 -85.9236
 -85.9234
 -85.9143
 -85.9225
 -85.9223
 -85.9224
 -85.9218
 -85.9311
 -85.9307
 -85.9312
 -85.9311
 -85.9282
 -85.9284
 -85.9287
 -85.9282
 -85.944
 -85.9444
 -85.9321
 -85.9324
 -85.9322
 -85.932
 -85.9219
 -85.9211
 -85.9221
 -85.9211
 -85.9259
 -85.927
 -85.9264
 -85.926
 -85.9422
 -85.9419
 -85.9419
 -85.9419
 -85.9286
 -85.9288
 -85.9294
 -85.9292
 -85.9333
 -85.9403
 -85.9406
 -85.9401
 -85.9259
 -85.9261
 -85.9255
 -85.9263
 -85.9369
 -85.9367
 -85.9369
 -85.9364
 -85.9268
 -85.9262
 -85.9264
 -85.927
 -85.9438
 -85.9435
 -85.9433
 -85.9437
 -85.9461
 -85.9463
 -85.946
 -85.9233
 -85.9236
 -85.9242
 -85.9238
 -85.9346
 -85.9348
 -85.9341
 -85.9344
 -85.9363
 -85.9365
 -85.9369
 -85.937
 -85.9249
 -85.925
 -85.9227
 -85.9224
 -85.9222
 -85.9229
 -85.9274
 -85.9284
 -85.9335
 -85.9338
 -85.9334
 -85.9332
 -85.9348
 -85.935
 -85.9355
 -85.9348
 -85.9277
 -85.9281
 -85.9285
 -85.9282
 -85.9329
 -85.9329
 -85.933
 -85.9412
 -85.9407
 -85.9405
 -85.9408
 -85.9387
 -85.9385
 -85.9388
 -85.9278
 -85.9286
 -85.9276
 -85.9283
 -85.9234
 -85.9226
 -85.9223
 -85.9232
 -85.9366
 -85.9359
 -85.9359
 -85.9363
 -85.9286
 -85.9284
 -85.9277
 -85.9205
 -85.9204
 -85.9205
 -85.9204
 -85.9253
 -85.9252
 -85.9255
 -85.9257
 -85.9396
 -85.9393
 -85.939
 -85.9453
 -85.9448
 -85.9449
 -85.936
 -85.9363
 -85.9364
 -85.9252
 -85.9247
 -85.9254
 -85.925
 -85.9451
 -85.9451
 -85.9451
 -85.9453
 -85.9353
 -85.935
 -85.9352
 -85.9357
 -85.9402
 -85.9405
 -85.941
 -85.941
 -85.9396
 -85.9399
 -85.9397
 -85.9397
 -85.9166
 -85.9159
 -85.916
 -85.9274
 -85.9276
 -85.9271
 -85.9276
 -85.9403
 -85.9405
 -85.94
 -85.9401
 -85.9295
 -85.9298
 -85.9297
 -85.9304
 -85.9371
 -85.9372
 -85.937
 -85.9365
 -85.9424
 -85.9427
 -85.9196
 -85.9199
 -85.9199
 -85.9202
 -85.9383
 -85.9379
 -85.9388
 -85.9381
 -85.9277
 -85.9275
 -85.9273
 -85.9279
 -85.9363
 -85.9355
 -85.9445
 -85.9445
 -85.9441
 -85.9446
 -85.9401
 -85.9407
 -85.9399
 -85.941
 -85.9453
 -85.9453
 -85.9457
 -85.9458
 -85.938
 -85.938
 -85.9383
 -85.9362
 -85.937
 -85.9369
 -85.9366
 -85.9367
 -85.9363
 -85.9365
 -85.9359
 -85.9243
 -85.9244
 -85.924
 -85.9238
 -85.9153
 -85.915
 -85.9158
 -85.9307
 -85.9307
 -85.9308
 -85.9411
 -85.9407
 -85.941
 -85.9405
 -85.9279
 -85.9283
 -85.9288
 -85.9284
 -85.9221
 -85.9213
 -85.9216
 -85.9222
 -85.9311
 -85.9306
 -85.9302
 -85.9303
 -85.9265
 -85.9274
 -85.9266
 -85.9446
 -85.9448
 -85.9443
 -85.9442
 -85.9201
 -85.9203
 -85.922
 -85.9223
 -85.9224
 -85.9374
 -85.9376
 -85.937
 -85.938
 -85.9304
 -85.9311
 -85.931
 -85.9309
 -85.9213
 -85.9214
 -85.9218
 -85.9214
 -85.9326
 -85.9315
 -85.9316
 -85.9322
 -85.9262
 -85.9258
 -85.9266
 -85.9266
 -85.942
 -85.9422
 -85.9428
 -85.9254
 -85.9253
 -85.9258
 -85.9257
 -85.9324
 -85.9328
 -85.9209
 -85.9216
 -85.9214
 -85.921
 -85.9218
 -85.9213
 -85.9216
 -85.9213
 -85.9424
 -85.9422
 -85.9229
 -85.9234
 -85.9231
 -85.9226
 -85.9314
 -85.9308
 -85.9311
 -85.9314
 -85.9271
 -85.9168
 -85.9162
 -85.9164
 -85.9332
 -85.9331
 -85.9332
 -85.9327
 -85.9429
 -85.9429
 -85.9427
 -85.9431
 -85.9166
 -85.9169
 -85.917
 -85.9163
 -85.9223
 -85.9227
 -85.9222
 -85.9223
 -85.9359
 -85.9361
 -85.9361
 -85.9175
 -85.9174
 -85.9179
 -85.918
 -85.9452
 -85.9448
 -85.945
 -85.9453
 -85.9195
 -85.9198
 -85.92
 -85.9193
 -85.9354
 -85.9348
 -85.9352
 -85.9357
 -85.9274
 -85.9278
 -85.9276
 -85.9273
 -85.9214
 -85.9215
 -85.9214
 -85.9264
 -85.927
 -85.9263
 -85.9269
 -85.9214
 -85.9209
 -85.9212
 -85.9212
 -85.9224
 -85.922
 -85.9222
 -85.9387
 -85.9382
 -85.9388
 -85.9379
 -85.9375
 -85.93
 -85.9312
 -85.9304
 -85.9304
 -85.9436
 -85.9433
 -85.9431
 -85.9433
 -85.9334
 -85.9341
 -85.9331
 -85.9339
 -85.9351
 -85.9355
 -85.9351
 -85.9349
 -85.9222
 -85.922
 -85.9225
 -85.9229
 -85.9226
 -85.9351
 -85.9345
 -85.9348
 -85.9353
 -85.9433
 -85.9438
 -85.9318
 -85.932
 -85.9314
 -85.9321
 -85.9213
 -85.9212
 -85.9215
 -85.9418
 -85.9421
 -85.9416
 -85.9418
 -85.9321
 -85.9312
 -85.9315
 -85.9317
 -85.922
 -85.9217
 -85.922
 -85.9222
 -85.9302
 -85.9302
 -85.931
 -85.9304
 -85.9348
 -85.9358
 -85.9187
 -85.9184
 -85.9186
 -85.9183
 -85.9223
 -85.9234
 -85.9238
 -85.9235
 -85.924
 -85.9238
 -85.9236
 -85.9228
 -85.9229
 -85.9234
 -85.9316
 -85.9315
 -85.9314
 -85.934
 -85.9338
 -85.9335
 -85.9332
 -85.9241
 -85.924
 -85.9242
 -85.924
 -85.9278
 -85.9276
 -85.9327
 -85.9323
 -85.9325
 -85.9322
 -85.9328
 -85.9327
 -85.9303
 -85.9308
 -85.931
 -85.9304
 -85.9122
 -85.9131
 -85.913
 -85.9133
 -85.9325
 -85.9215
 -85.9219
 -85.9216
 -85.9215
 -85.9446
 -85.9449
 -85.9445
 -85.9376
 -85.9374
 -85.9371
 -85.9377
 -85.93
 -85.9302
 -85.93
 -85.9291
 -85.932
 -85.9324
 -85.9317
 -85.9231
 -85.9236
 -85.9234
 -85.923
 -85.9421
 -85.9424
 -85.9417
 -85.9422
 -85.9355
 -85.9353
 -85.9358
 -85.9356
 -85.9421
 -85.9423
 -85.9415
 -85.942
 -85.9195
 -85.9195
 -85.919
 -85.9191
 -85.924
 -85.9245
 -85.9386
 -85.9384
 -85.9381
 -85.9384
 -85.9432
 -85.9431
 -85.9432
 -85.943
 -85.946
 -85.9462
 -85.9459
 -85.9463
 -85.9426
 -85.9422
 -85.9426
 -85.935
 -85.9356
 -85.9349
 -85.9353
 -85.9429
 -85.9431
 -85.9432
 -85.9431
 -85.9198
 -85.9203
 -85.9207
 -85.9202
 -85.9405
 -85.9409
 -85.9409
 -85.9353
 -85.9351
 -85.9349
 -85.935
 -85.9213
 -85.9211
 -85.9214
 -85.921
 -85.9359
 -85.9365
 -85.9362
 -85.9362
 -85.9335
 -85.934
 -85.9342
 -85.9336
 -85.9244
 -85.9246
 -85.9251
 -85.9254
 -85.9192
 -85.9193
 -85.9187
 -85.9187
 -85.9284
 -85.9286
 -85.9291
 -85.9286
 -85.9108
 -85.9108
 -85.9119
 -85.9112
 -85.922
 -85.9224
 -85.9219
 -85.9233
 -85.9227
 -85.9226
 -85.9225
 -85.9079
 -85.9081
 -85.9074
 -85.9083
 -85.9418
 -85.9415
 -85.9415
 -85.9396
 -85.9397
 -85.9402
 -85.9401
 -85.9236
 -85.9246
 -85.9243
 -85.9156
 -85.9158
 -85.9155
 -85.9189
 -85.9185
 -85.919
 -85.919
 -85.9244
 -85.9243
 -85.9247
 -85.9239
 -85.9354
 -85.9363
 -85.9359
 -85.9357
 -85.9124
 -85.9124
 -85.9128
 -85.9121
 -85.9341
 -85.9332
 -85.9332
 -85.934
 -85.9395
 -85.9397
 -85.9391
 -85.9395
 -85.9328
 -85.9328
 -85.9338
 -85.9333
 -85.929
 -85.9285
 -85.9294
 -85.9218
 -85.9218
 -85.9217
 -85.9221
 -85.9424
 -85.9428
 -85.9429
 -85.9427
 -85.9405
 -85.9408
 -85.9404
 -85.9401
 -85.9243
 -85.9248
 -85.9244
 -85.924
 -85.9433
 -85.9435
 -85.9437
 -85.9432
 -85.9438
 -85.9434
 -85.9434
 -85.9436
 -85.9437
 -85.9433
 -85.9435
 -85.9142
 -85.914
 -85.9082
 -85.9083
 -85.9079
 -85.9088
 -85.9344
 -85.9342
 -85.9338
 -85.93
 -85.9296
 -85.9305
 -85.9297
 -85.9314
 -85.932
 -85.9318
 -85.9314
 -85.9023
 -85.9281
 -85.9339
 -85.9344
 -85.9404
 -85.9407
 -85.9406
 -85.9406
 -85.9155
 -85.9265
 -85.927
 -85.9265
 -85.9465
 -85.9463
 -85.9463
 -85.9463
 -85.9315
 -85.9311
 -85.9316
 -85.9321
 -85.9437
 -85.9434
 -85.9438
 -85.9433
 -85.9289
 -85.9296
 -85.9283
 -85.9272
 -85.9279
 -85.9274
 -85.9421
 -85.9422
 -85.9417
 -85.9422
 -85.9342
 -85.9339
 -85.9334
 -85.9332
 -85.92
 -85.9196
 -85.9204
 -85.9202
 -85.9398
 -85.9408
 -85.9404
 -85.9438
 -85.9444
 -85.9444
 -85.9438
 -85.9401
 -85.9399
 -85.9397
 -85.94
 -85.9238
 -85.9237
 -85.9248
 -85.9237
 -85.9252
 -85.9249
 -85.9249
 -85.9249
 -85.9421
 -85.9424
 -85.9424
 -85.9424
 -85.928
 -85.9281
 -85.9275
 -85.9389
 -85.939
 -85.9388
 -85.9385
 -85.921
 -85.9216
 -85.9207
 -85.9208
 -85.9348
 -85.9351
 -85.9343
 -85.9346
 -85.9207
 -85.9211
 -85.9207
 -85.9207
 -85.9325
 -85.9328
 -85.9323
 -85.9327
 -85.9395
 -85.9395
 -85.9399
 -85.9391
 -85.9195
 -85.9193
 -85.9198
 -85.9316
 -85.9322
 -85.9412
 -85.941
 -85.9409
 -85.9406
 -85.9279
 -85.9275
 -85.9274
 -85.9201
 -85.9197
 -85.9195
 -85.9197
 -85.9364
 -85.9367
 -85.9364
 -85.9369
 -85.9348
 -85.9347
 -85.9357
 -85.935
 -85.9047
 -85.9047
 -85.9054
 -85.905
 -85.9311
 -85.9304
 -85.9308
 -85.9104
 -85.9109
 -85.9111
 -85.9314
 -85.9312
 -85.9308
 -85.9313
 -85.9306
 -85.9192
 -85.9195
 -85.9185
 -85.9189
 -85.9291
 -85.9297
 -85.9298
 -85.9405
 -85.9405
 -85.9405
 -85.9402
 -85.9296
 -85.9299
 -85.9302
 -85.9302
 -85.9306
 -85.9304
 -85.9304
 -85.946
 -85.9459
 -85.9458
 -85.9455
 -85.9227
 -85.9238
 -85.9235
 -85.9232
 -85.9184
 -85.9184
 -85.9187
 -85.9186
 -85.9269
 -85.9267
 -85.9276
 -85.927
 -85.9416
 -85.9416
 -85.9418
 -85.9412
 -85.9043
 -85.9049
 -85.9043
 -85.9052
 -85.9389
 -85.9383
 -85.9386
 -85.9387
 -85.9182
 -85.9178
 -85.9182
 -85.9181
 -85.9405
 -85.9394
 -85.9397
 -85.9402
 -85.9384
 -85.9381
 -85.9378
 -85.9381
 -85.9391
 -85.9393
 -85.924
 -85.9236
 -85.9235
 -85.9239
 -85.9425
 -85.9425
 -85.9426
 -85.938
 -85.9373
 -85.9375
 -85.9381
 -85.9232
 -85.9238
 -85.9234
 -85.9229
 -85.9263
 -85.9261
 -85.9268
 -85.9018
 -85.9018
 -85.9016
 -85.9017
 -85.9303
 -85.9296
 -85.9305
 -85.9426
 -85.943
 -85.9425
 -85.9424
 -85.9393
 -85.9389
 -85.9418
 -85.9423
 -85.9425
 -85.9421
 -85.937
 -85.937
 -85.9172
 -85.9173
 -85.9166
 -85.9177
 -85.9388
 -85.9388
 -85.9388
 -85.9383
 -85.9313
 -85.9316
 -85.9262
 -85.9266
 -85.9264
 -85.9262
 -85.9401
 -85.9404
 -85.9405
 -85.9404
 -85.9244
 -85.9234
 -85.9235
 -85.9242
 -85.9422
 -85.9422
 -85.9426
 -85.9432
 -85.9333
 -85.9334
 -85.9328
 -85.9171
 -85.9168
 -85.9167
 -85.9171
 -85.9353
 -85.9353
 -85.9351
 -85.9347
 -85.9227
 -85.9221
 -85.922
 -85.9216
 -85.9234
 -85.9226
 -85.9232
 -85.9037
 -85.9037
 -85.9037
 -85.9041
 -85.9192
 -85.9199
 -85.9201
 -85.9194
 -85.9392
 -85.9389
 -85.9395
 -85.9389
 -85.9306
 -85.9308
 -85.9301
 -85.927
 -85.9216
 -85.922
 -85.9218
 -85.9221
 -85.928
 -85.9275
 -85.9279
 -85.9282
 -85.9373
 -85.9382
 -85.9382
 -85.9375
 -85.9208
 -85.9208
 -85.9219
 -85.9158
 -85.9332
 -85.9334
 -85.9328
 -85.9337
 -85.9219
 -85.9226
 -85.9092
 -85.9086
 -85.9215
 -85.9219
 -85.9215
 -85.9209
 -85.9373
 -85.9377
 -85.9412
 -85.9411
 -85.9413
 -85.941
 -85.9263
 -85.9268
 -85.9268
 -85.9268
 -85.9442
 -85.9443
 -85.9446
 -85.9443
 -85.9257
 -85.9258
 -85.9247
 -85.9247
 -85.9387
 -85.9388
 -85.9384
 -85.9379
 -85.9234
 -85.9234
 -85.9237
 -85.9237
 -85.9386
 -85.9388
 -85.9382
 -85.9386
 -85.9281
 -85.9288
 -85.943
 -85.9429
 -85.9367
 -85.9372
 -85.9366
 -85.9372
 -85.9363
 -85.9361
 -85.9362
 -85.9368
 -85.9323
 -85.9321
 -85.9326
 -85.9325
 -85.9386
 -85.938
 -85.9388
 -85.9391
 -85.9231
 -85.9226
 -85.9229
 -85.9228
 -85.9427
 -85.9427
 -85.9426
 -85.9432
 -85.9435
 -85.9431
 -85.9433
 -85.9208
 -85.9214
 -85.9214
 -85.9211
 -85.9367
 -85.9361
 -85.9362
 -85.9365
 -85.9199
 -85.9206
 -85.9206
 -85.9212
 -85.9319
 -85.9297
 -85.9305
 -85.9305
 -85.9297
 -85.9402
 -85.9402
 -85.9402
 -85.9397
 -85.9113
 -85.9107
 -85.9111
 -85.9117
 -85.9365
 -85.9368
 -85.9371
 -85.9366
 -85.931
 -85.9316
 -85.9304
 -85.9309
 -85.938
 -85.9376
 -85.9375
 -85.9374
 -85.9354
 -85.9459
 -85.9458
 -85.9454
 -85.9456
 -85.9391
 -85.9393
 -85.9386
 -85.9387
 -85.9089
 -85.9092
 -85.9097
 -85.9088
 -85.9282
 -85.9276
 -85.9273
 -85.9278
 -85.925
 -85.9315
 -85.9316
 -85.9317
 -85.9322
 -85.9422
 -85.9422
 -85.9417
 -85.9415
 -85.9405
 -85.9404
 -85.941
 -85.942
 -85.9412
 -85.9416
 -85.9414
 -85.9046
 -85.9048
 -85.9386
 -85.9384
 -85.9383
 -85.9244
 -85.9243
 -85.9242
 -85.9248
 -85.9374
 -85.9372
 -85.9374
 -85.937
 -85.9323
 -85.9365
 -85.9359
 -85.9365
 -85.9363
 -85.9429
 -85.9421
 -85.9424
 -85.9429
 -85.9363
 -85.9367
 -85.9373
 -85.9363
 -85.9278
 -85.9281
 -85.9271
 -85.9285
 -85.9212
 -85.9213
 -85.9211
 -85.9214
 -85.9455
 -85.945
 -85.9455
 -85.9454
 -85.9375
 -85.9373
 -85.9377
 -85.9371
 -85.9451
 -85.9449
 -85.945
 -85.9453
 -85.9245
 -85.9236
 -85.9246
 -85.9247
 -85.9319
 -85.9316
 -85.9429
 -85.9435
 -85.9429
 -85.9432
 -85.9322
 -85.9322
 -85.9322
 -85.9328
 -85.9301
 -85.9307
 -85.932
 -85.9322
 -85.9327
 -85.932
 -85.9408
 -85.9408
 -85.9406
 -85.9412
 -85.9261
 -85.9254
 -85.9251
 -85.9258
 -85.9163
 -85.9167
 -85.9163
 -85.9163
 -85.9199
 -85.9196
 -85.9197
 -85.9196
 -85.9253
 -85.9258
 -85.9258
 -85.9252
 -85.9284
 -85.9275
 -85.9281
 -85.9295
 -85.9286
 -85.9291
 -85.9292
 -85.9316
 -85.9313
 -85.931
 -85.9315
 -85.9161
 -85.916
 -85.9163
 -85.9274
 -85.9269
 -85.9277
 -85.9275
 -85.9326
 -85.9331
 -85.9331
 -85.9323
 -85.9237
 -85.923
 -85.9239
 -85.923
 -85.9257
 -85.9262
 -85.9262
 -85.926
 -85.9332
 -85.9331
 -85.9335
 -85.9339
 -85.9313
 -85.9307
 -85.9312
 -85.931
 -85.9368
 -85.9366
 -85.9368
 -85.9366
 -85.9194
 -85.9196
 -85.9198
 -85.9399
 -85.9397
 -85.9403
 -85.9398
 -85.9238
 -85.9244
 -85.9239
 -85.9235
 -85.9285
 -85.9283
 -85.9279
 -85.9288
 -85.9296
 -85.9302
 -85.9303
 -85.9341
 -85.9341
 -85.9343
 -85.9347
 -85.9361
 -85.9361
 -85.9365
 -85.9358
 -85.9367
 -85.9369
 -85.9373
 -85.9411
 -85.9413
 -85.9414
 -85.936
 -85.9358
 -85.9354
 -85.9357
 -85.9411
 -85.9412
 -85.9407
 -85.9426
 -85.9426
 -85.9425
 -85.9422
 -85.9299
 -85.9287
 -85.9295
 -85.9291
 -85.9247
 -85.9243
 -85.925
 -85.9245
 -85.9226
 -85.9411
 -85.9409
 -85.9417
 -85.9408
 -85.9412
 -85.9403
 -85.9032
 -85.903
 -85.9033
 -85.9036
 -85.9387
 -85.9382
 -85.9285
 -85.9282
 -85.9289
 -85.945
 -85.9453
 -85.9344
 -85.9336
 -85.9338
 -85.9341
 -85.928
 -85.9283
 -85.9283
 -85.9389
 -85.9399
 -85.9394
 -85.9397
 -85.925
 -85.9252
 -85.9247
 -85.9255
 -85.9073
 -85.9079
 -85.9077
 -85.9071
 -85.9337
 -85.9338
 -85.9337
 -85.9343
 -85.9405
 -85.9414
 -85.9406
 -85.9396
 -85.9394
 -85.9397
 -85.9392
 -85.9233
 -85.9225
 -85.9226
 -85.9222
 -85.924
 -85.9245
 -85.9209
 -85.9214
 -85.9206
 -85.9448
 -85.9444
 -85.9401
 -85.9396
 -85.9401
 -85.9396
 -85.9319
 -85.9327
 -85.9324
 -85.9386
 -85.938
 -85.939
 -85.9389
 -85.9237
 -85.9227
 -85.9229
 -85.9234
 -85.9306
 -85.9305
 -85.9312
 -85.9313
 -85.9305
 -85.9309
 -85.9311
 -85.9306
 -85.9224
 -85.9227
 -85.9223
 -85.9243
 -85.9239
 -85.9242
 -85.9241
 -85.9461
 -85.9463
 -85.9462
 -85.9465
 -85.9181
 -85.9172
 -85.9423
 -85.9426
 -85.9426
 -85.9422
 -85.929
 -85.9296
 -85.9293
 -85.929
 -85.9327
 -85.9331
 -85.9331
 -85.9332
 -85.9199
 -85.9202
 -85.9312
 -85.9307
 -85.9307
 -85.9303
 -85.9285
 -85.9282
 -85.928
 -85.9287
 -85.9406
 -85.9405
 -85.9403
 -85.9406
 -85.9297
 -85.9302
 -85.9303
 -85.9295
 -85.9247
 -85.9248
 -85.9349
 -85.935
 -85.9346
 -85.9351
 -85.9374
 -85.9373
 -85.9378
 -85.9318
 -85.9325
 -85.9322
 -85.9326
 -85.922
 -85.9223
 -85.9218
 -85.9226
 -85.9068
 -85.9075
 -85.9074
 -85.9067
 -85.9302
 -85.9299
 -85.9305
 -85.9311
 -85.9332
 -85.9338
 -85.9332
 -85.9333
 -85.9278
 -85.9281
 -85.9274
 -85.9276
 -85.925
 -85.9247
 -85.9252
 -85.9255
 -85.9408
 -85.9412
 -85.9349
 -85.9346
 -85.9343
 -85.9127
 -85.9124
 -85.912
 -85.9128
 -85.9229
 -85.9224
 -85.9231
 -85.9221
 -85.9321
 -85.9322
 -85.9319
 -85.9316
 -85.9408
 -85.9409
 -85.9409
 -85.929
 -85.9287
 -85.928
 -85.928
 -85.9243
 -85.9251
 -85.9247
 -85.9242
 -85.938
 -85.9373
 -85.9373
 -85.9377
 -85.934
 -85.9338
 -85.9336
 -85.9336
 -85.9393
 -85.9393
 -85.9393
 -85.939
 -85.9391
 -85.9392
 -85.939
 -85.9271
 -85.9273
 -85.9267
 -85.9265
 -85.9297
 -85.9294
 -85.93
 -85.9082
 -85.9084
 -85.9083
 -85.9079
 -85.9247
 -85.9247
 -85.9176
 -85.9172
 -85.9179
 -85.9183
 -85.9223
 -85.9203
 -85.9416
 -85.925
 -85.9244
 -85.9248
 -85.9242
 -85.9454
 -85.9348
 -85.9345
 -85.9348
 -85.9341
 -85.9247
 -85.9252
 -85.9249
 -85.9273
 -85.9279
 -85.9279
 -85.9398
 -85.9399
 -85.9393
 -85.9399
 -85.9401
 -85.9398
 -85.9401
 -85.9397
 -85.9212
 -85.9204
 -85.9204
 -85.9209
 -85.9436
 -85.9436
 -85.9439
 -85.9433
 -85.9307
 -85.9302
 -85.9297
 -85.9399
 -85.9402
 -85.9401
 -85.9329
 -85.9323
 -85.9325
 -85.933
 -85.925
 -85.9254
 -85.9247
 -85.9249
 -85.9333
 -85.9342
 -85.9333
 -85.9258
 -85.9261
 -85.9261
 -85.9255
 -85.9289
 -85.9298
 -85.9402
 -85.9406
 -85.9408
 -85.9411
 -85.9416
 -85.9422
 -85.9418
 -85.9417
 -85.922
 -85.9227
 -85.9219
 -85.9226
 -85.9375
 -85.9368
 -85.9372
 -85.9376
 -85.9344
 -85.9335
 -85.9342
 -85.9347
 -85.9279
 -85.9274
 -85.9283
 -85.9278
 -85.9409
 -85.9406
 -85.9405
 -85.9402
 -85.9291
 -85.9285
 -85.9295
 -85.9292
 -85.9308
 -85.9305
 -85.9305
 -85.9314
 -85.9289
 -85.9285
 -85.929
 -85.9291
 -85.923
 -85.9237
 -85.9214
 -85.9218
 -85.9222
 -85.9214
 -85.9164
 -85.9154
 -85.9162
 -85.9164
 -85.9346
 -85.9346
 -85.9344
 -85.9351
 -85.9334
 -85.933
 -85.9329
 -85.944
 -85.9442
 -85.9441
 -85.9442
 -85.9447
 -85.945
 -85.9445
 -85.9422
 -85.9425
 -85.9419
 -85.933
 -85.9337
 -85.934
 -85.9332
 -85.9365
 -85.9367
 -85.937
 -85.9361
 -85.9403
 -85.9407
 -85.9404
 -85.9408
 -85.9254
 -85.9248
 -85.9249
 -85.9253
 -85.9182
 -85.9187
 -85.9191
 -85.9191
 -85.9451
 -85.9452
 -85.9448
 -85.9455
 -85.9239
 -85.9237
 -85.9234
 -85.924
 -85.9319
 -85.9319
 -85.9322
 -85.9317
 -85.9453
 -85.9453
 -85.9449
 -85.9456
 -85.9348
 -85.9342
 -85.935
 -85.9347
 -85.9286
 -85.9283
 -85.9286
 -85.9283
 -85.9243
 -85.9239
 -85.9239
 -85.9203
 -85.921
 -85.9206
 -85.9202
 -85.9225
 -85.9223
 -85.9226
 -85.9222
 -85.9217
 -85.9215
 -85.9234
 -85.9238
 -85.9227
 -85.939
 -85.9386
 -85.9386
 -85.9385
 -85.9437
 -85.9435
 -85.9436
 -85.9435
 -85.936
 -85.9358
 -85.936
 -85.9353
 -85.9295
 -85.9411
 -85.9414
 -85.9413
 -85.9409
 -85.9207
 -85.9207
 -85.9206
 -85.9206
 -85.944
 -85.9443
 -85.944
 -85.9445
 -85.9266
 -85.9262
 -85.9271
 -85.9374
 -85.9203
 -85.9203
 -85.9198
 -85.923
 -85.9226
 -85.9222
 -85.9232
 -85.9316
 -85.9316
 -85.9307
 -85.9314
 -85.9383
 -85.9383
 -85.9379
 -85.9387
 -85.9293
 -85.9373
 -85.937
 -85.9369
 -85.9297
 -85.9296
 -85.9297
 -85.9304
 -85.9259
 -85.926
 -85.9256
 -85.9256
 -85.9274
 -85.9267
 -85.9272
 -85.9274
 -85.9375
 -85.9238
 -85.9239
 -85.9242
 -85.9388
 -85.9384
 -85.9389
 -85.9386
 -85.9409
 -85.9408
 -85.9414
 -85.9406
 -85.9433
 -85.9435
 -85.9432
 -85.9256
 -85.9257
 -85.9253
 -85.9256
 -85.919
 -85.9186
 -85.919
 -85.9396
 -85.9396
 -85.9406
 -85.9404
 -85.9402
 -85.9402
 -85.9296
 -85.9299
 -85.9302
 -85.9444
 -85.9444
 -85.9446
 -85.9443
 -85.9408
 -85.9407
 -85.9409
 -85.941
 -85.9354
 -85.9354
 -85.9357
 -85.9359
 -85.9324
 -85.9326
 -85.9322
 -85.9317
 -85.9243
 -85.9242
 -85.924
 -85.9245
 -85.9406
 -85.9406
 -85.9403
 -85.9409
 -85.926
 -85.9262
 -85.9254
 -85.9277
 -85.9282
 -85.9283
 -85.9284
 -85.9434
 -85.9433
 -85.9439
 -85.9436
 -85.937
 -85.9371
 -85.937
 -85.9367
 -85.9447
 -85.9444
 -85.9441
 -85.9445
 -85.927
 -85.9274
 -85.9277
 -85.9276
 -85.9321
 -85.9322
 -85.9316
 -85.9327
 -85.9419
 -85.9419
 -85.9422
 -85.942
 -85.9315
 -85.932
 -85.9312
 -85.9314
 -85.9448
 -85.9451
 -85.9448
 -85.9251
 -85.9249
 -85.9249
 -85.925
 -85.9334
 -85.9334
 -85.9331
 -85.9328
 -85.9347
 -85.9352
 -85.9347
 -85.9348
 -85.9306
 -85.9303
 -85.9312
 -85.9305
 -85.941
 -85.9411
 -85.9416
 -85.9412
 -85.9302
 -85.9295
 -85.9299
 -85.9298
 -85.9347
 -85.9345
 -85.9345
 -85.9342
 -85.9204
 -85.9204
 -85.9203
 -85.9204
 -85.9396
 -85.9396
 -85.9392
 -85.9389
 -85.9197
 -85.9197
 -85.9197
 -85.9242
 -85.9239
 -85.9239
 -85.9243
 -85.9215
 -85.9219
 -85.923
 -85.9221
 -85.9379
 -85.9378
 -85.9382
 -85.9385
 -85.936
 -85.9367
 -85.936
 -85.9362
 -85.9264
 -85.9258
 -85.9259
 -85.9255
 -85.9458
 -85.9457
 -85.9454
 -85.9085
 -85.9084
 -85.9345
 -85.9348
 -85.9341
 -85.9345
 -85.9143
 -85.9135
 -85.9128
 -85.9135
 -85.9359
 -85.9361
 -85.9367
 -85.9363
 -85.9279
 -85.9263
 -85.926
 -85.9258
 -85.9255
 -85.9386
 -85.9387
 -85.9389
 -85.9391
 -85.9423
 -85.9419
 -85.9425
 -85.9421
 -85.9204
 -85.9203
 -85.9372
 -85.9375
 -85.9383
 -85.9374
 -85.9331
 -85.9321
 -85.9333
 -85.9327
 -85.924
 -85.9239
 -85.9236
 -85.9248
 -85.9303
 -85.9296
 -85.9296
 -85.9303
 -85.9402
 -85.9397
 -85.9409
 -85.9439
 -85.9438
 -85.9438
 -85.9437
 -85.9452
 -85.9452
 -85.9454
 -85.9265
 -85.9262
 -85.9263
 -85.9267
 -85.9423
 -85.9421
 -85.9418
 -85.9418
 -85.9219
 -85.9215
 -85.9217
 -85.9218
 -85.9358
 -85.9356
 -85.9359
 -85.9351
 -85.9331
 -85.9338
 -85.9333
 -85.9333
 -85.9439
 -85.9439
 -85.9438
 -85.9441
 -85.9367
 -85.9369
 -85.9366
 -85.9362
 -85.9122
 -85.9118
 -85.9117
 -85.9122
 -85.9293
 -85.9282
 -85.9291
 -85.9286
 -85.9264
 -85.9271
 -85.9272
 -85.9263
 -85.9383
 -85.9384
 -85.9379
 -85.9377
 -85.9225
 -85.9221
 -85.922
 -85.922
 -85.9342
 -85.9337
 -85.9337
 -85.9344
 -85.9254
 -85.9252
 -85.9249
 -85.9178
 -85.9175
 -85.9174
 -85.9173
 -85.9341
 -85.9347
 -85.9339
 -85.9354
 -85.9353
 -85.9351
 -85.9238
 -85.9233
 -85.9229
 -85.922
 -85.9219
 -85.9221
 -85.9223
 -85.942
 -85.9026
 -85.9029
 -85.9028
 -85.9023
 -85.9409
 -85.9406
 -85.9412
 -85.9408
 -85.9204
 -85.9275
 -85.9273
 -85.9273
 -85.9279
 -85.9264
 -85.9259
 -85.9272
 -85.9229
 -85.9238
 -85.9234
 -85.9231
 -85.9132
 -85.9131
 -85.9135
 -85.9126
 -85.9218
 -85.9222
 -85.9221
 -85.9325
 -85.9322
 -85.9322
 -85.9266
 -85.9263
 -85.9462
 -85.9459
 -85.9458
 -85.9216
 -85.9221
 -85.9214
 -85.9269
 -85.9274
 -85.9276
 -85.9422
 -85.9427
 -85.9427
 -85.9387
 -85.9387
 -85.9392
 -85.9388
 -85.9239
 -85.9241
 -85.9244
 -85.9196
 -85.9191
 -85.9436
 -85.9434
 -85.9439
 -85.9438
 -85.9152
 -85.9155
 -85.9146
 -85.9159
 -85.9214
 -85.9212
 -85.9068
 -85.9063
 -85.9103
 -85.9101
 -85.9104
 -85.9273
 -85.9278
 -85.9271
 -85.9432
 -85.9428
 -85.9425
 -85.937
 -85.9369
 -85.9374
 -85.9246
 -85.9245
 -85.9251
 -85.9255
 -85.9249
 -85.9418
 -85.9195
 -85.9195
 -85.9198
 -85.9198
 -85.9267
 -85.9277
 -85.9269
 -85.9271
 -85.9383
 -85.9382
 -85.9386
 -85.9367
 -85.9368
 -85.9364
 -85.9366
 -85.9273
 -85.9271
 -85.9277
 -85.9282
 -85.9375
 -85.9377
 -85.9382
 -85.9381
 -85.9389
 -85.9386
 -85.9389
 -85.9393
 -85.9307
 -85.9373
 -85.9376
 -85.9376
 -85.9378
 -85.9446
 -85.9448
 -85.9445
 -85.9444
 -85.9228
 -85.9217
 -85.9215
 -85.9222
 -85.9438
 -85.9442
 -85.944
 -85.9439
 -85.9061
 -85.9065
 -85.9059
 -85.9431
 -85.9428
 -85.9435
 -85.9434
 -85.9231
 -85.923
 -85.9224
 -85.9224
 -85.9399
 -85.9394
 -85.9398
 -85.9402
 -85.9215
 -85.9216
 -85.9203
 -85.9206
 -85.9445
 -85.9398
 -85.9393
 -85.9396
 -85.9391
 -85.9421
 -85.9424
 -85.9424
 -85.9196
 -85.92
 -85.9195
 -85.9193
 -85.9378
 -85.9374
 -85.9374
 -85.9371
 -85.934
 -85.9346
 -85.9347
 -85.9344
 -85.933
 -85.9333
 -85.9327
 -85.9325
 -85.9458
 -85.9454
 -85.9283
 -85.9283
 -85.9282
 -85.9274
 -85.9279
 -85.9282
 -85.9284
 -85.9375
 -85.9371
 -85.938
 -85.9381
 -85.937
 -85.9372
 -85.9372
 -85.9377
 -85.9344
 -85.9346
 -85.9349
 -85.9342
 -85.9235
 -85.9235
 -85.9254
 -85.925
 -85.925
 -85.927
 -85.9274
 -85.9274
 -85.9275
 -85.9182
 -85.9176
 -85.9179
 -85.9178
 -85.9267
 -85.9262
 -85.9257
 -85.913
 -85.913
 -85.9137
 -85.9267
 -85.9267
 -85.9262
 -85.9272
 -85.9232
 -85.924
 -85.9229
 -85.9304
 -85.9379
 -85.9376
 -85.9383
 -85.9283
 -85.9282
 -85.9286
 -85.929
 -85.9212
 -85.9212
 -85.9226
 -85.922
 -85.9312
 -85.9318
 -85.9318
 -85.9319
 -85.9395
 -85.9392
 -85.9458
 -85.9456
 -85.9454
 -85.9458
 -85.9377
 -85.9378
 -85.9381
 -85.9373
 -85.929
 -85.9289
 -85.9289
 -85.9293
 -85.9444
 -85.9445
 -85.9451
 -85.9442
 -85.9444
 -85.9445
 -85.9446
 -85.9318
 -85.9312
 -85.9308
 -85.9315
 -85.9211
 -85.9209
 -85.9213
 -85.9283
 -85.9283
 -85.929
 -85.9283
 -85.9189
 -85.9182
 -85.919
 -85.9181
 -85.936
 -85.936
 -85.9361
 -85.9348
 -85.9205
 -85.9205
 -85.9205
 -85.9207
 -85.924
 -85.9244
 -85.9245
 -85.9243
 -85.9433
 -85.9429
 -85.9435
 -85.943
 -85.9315
 -85.9316
 -85.931
 -85.9316
 -85.9266
 -85.9262
 -85.9267
 -85.9263
 -85.9385
 -85.9386
 -85.939
 -85.9398
 -85.9395
 -85.9394
 -85.9277
 -85.9284
 -85.9281
 -85.929
 -85.9292
 -85.9296
 -85.9294
 -85.9294
 -85.9212
 -85.9215
 -85.9211
 -85.9272
 -85.9268
 -85.9264
 -85.9042
 -85.9036
 -85.9041
 -85.9038
 -85.9244
 -85.9247
 -85.9194
 -85.9198
 -85.9195
 -85.9189
 -85.9333
 -85.9326
 -85.9332
 -85.9325
 -85.9133
 -85.9142
 -85.9145
 -85.9138
 -85.9228
 -85.9227
 -85.9221
 -85.9366
 -85.9367
 -85.9366
 -85.9363
 -85.9224
 -85.9229
 -85.9222
 -85.9208
 -85.9209
 -85.9202
 -85.9204
 -85.9267
 -85.9264
 -85.9264
 -85.9271
 -85.9388
 -85.94
 -85.9102
 -85.9105
 -85.924
 -85.9236
 -85.9294
 -85.9288
 -85.9291
 -85.9289
 -85.9358
 -85.9363
 -85.9359
 -85.9365
 -85.9303
 -85.9304
 -85.9307
 -85.9308
 -85.9191
 -85.9181
 -85.9188
 -85.9187
 -85.9336
 -85.933
 -85.9332
 -85.9212
 -85.9209
 -85.9212
 -85.9211
 -85.9423
 -85.9422
 -85.9426
 -85.942
 -85.9362
 -85.9362
 -85.9363
 -85.9357
 -85.9218
 -85.9222
 -85.9216
 -85.9291
 -85.9283
 -85.929
 -85.9293
 -85.9193
 -85.9191
 -85.9194
 -85.9224
 -85.9231
 -85.9229
 -85.9225
 -85.9223
 -85.9222
 -85.9227
 -85.9224
 -85.9288
 -85.9283
 -85.9282
 -85.9279
 -85.9446
 -85.9444
 -85.9441
 -85.9443
 -85.9345
 -85.9352
 -85.9349
 -85.9351
 -85.9284
 -85.9276
 -85.9281
 -85.9321
 -85.9318
 -85.9317
 -85.9419
 -85.9412
 -85.9418
 -85.9415
 -85.9346
 -85.9346
 -85.9341
 -85.9349
 -85.9278
 -85.9284
 -85.9285
 -85.9285
 -85.9181
 -85.9183
 -85.9217
 -85.9214
 -85.922
 -85.922
 -85.9083
 -85.9081
 -85.9073
 -85.9082
 -85.9382
 -85.9383
 -85.9383
 -85.938
 -85.9229
 -85.9223
 -85.9225
 -85.9224
 -85.9305
 -85.93
 -85.9303
 -85.9296
 -85.9169
 -85.9166
 -85.9166
 -85.9165
 -85.9324
 -85.9322
 -85.9319
 -85.9319
 -85.9289
 -85.9374
 -85.9373
 -85.9367
 -85.9369
 -85.928
 -85.9273
 -85.927
 -85.9277
 -85.9274
 -85.9277
 -85.9282
 -85.9279
 -85.9259
 -85.9253
 -85.9254
 -85.9252
 -85.9215
 -85.9209
 -85.9218
 -85.9402
 -85.9403
 -85.9404
 -85.9394
 -85.9275
 -85.9273
 -85.9273
 -85.9271
 -85.9396
 -85.9398
 -85.9402
 -85.9364
 -85.9359
 -85.9363
 -85.9361
 -85.9388
 -85.9396
 -85.9392
 -85.9397
 -85.92
 -85.9207
 -85.9199
 -85.9022
 -85.9025
 -85.9026
 -85.9367
 -85.9374
 -85.9373
 -85.9325
 -85.9335
 -85.9331
 -85.9337
 -85.9266
 -85.9268
 -85.9271
 -85.9265
 -85.9284
 -85.9286
 -85.9278
 -85.928
 -85.9116
 -85.912
 -85.9109
 -85.9122
 -85.9305
 -85.9302
 -85.9302
 -85.9301
 -85.9341
 -85.9342
 -85.9346
 -85.9338
 -85.9229
 -85.9229
 -85.9244
 -85.9233
 -85.9238
 -85.9239
 -85.9368
 -85.9364
 -85.9367
 -85.9366
 -85.9226
 -85.9231
 -85.9348
 -85.9345
 -85.9194
 -85.9034
 -85.9034
 -85.9034
 -85.9039
 -85.9167
 -85.9174
 -85.9452
 -85.9455
 -85.9452
 -85.9182
 -85.9188
 -85.9193
 -85.9188
 -85.9375
 -85.9375
 -85.9239
 -85.9238
 -85.9239
 -85.9239
 -85.9258
 -85.9269
 -85.9265
 -85.9374
 -85.9378
 -85.9375
 -85.9382
 -85.9351
 -85.9356
 -85.9351
 -85.9353
 -85.9407
 -85.9408
 -85.9413
 -85.9285
 -85.9279
 -85.9285
 -85.9277
 -85.9304
 -85.9408
 -85.9402
 -85.9407
 -85.9406
 -85.9197
 -85.9196
 -85.9199
 -85.9201
 -85.9318
 -85.9312
 -85.9317
 -85.9311
 -85.9383
 -85.9376
 -85.9382
 -85.9377
 -85.9065
 -85.9067
 -85.9069
 -85.9071
 -85.9219
 -85.9444
 -85.9271
 -85.9278
 -85.9273
 -85.9267
 -85.9314
 -85.9319
 -85.9312
 -85.9311
 -85.923
 -85.9222
 -85.9227
 -85.9228
 -85.9326
 -85.9323
 -85.9326
 -85.9327
 -85.9215
 -85.9216
 -85.922
 -85.9207
 -85.9212
 -85.9215
 -85.9211
 -85.9281
 -85.9287
 -85.9277
 -85.9283
 -85.9383
 -85.9387
 -85.9377
 -85.9458
 -85.9462
 -85.9459
 -85.9457
 -85.9113
 -85.9107
 -85.9106
 -85.9299
 -85.9299
 -85.9286
 -85.9289
 -85.9283
 -85.9292
 -85.943
 -85.9428
 -85.9429
 -85.9431
 -85.9367
 -85.9363
 -85.9366
 -85.9362
 -85.9214
 -85.9223
 -85.9217
 -85.9154
 -85.9279
 -85.9273
 -85.9275
 -85.928
 -85.9293
 -85.9295
 -85.9294
 -85.9363
 -85.936
 -85.936
 -85.9365
 -85.9387
 -85.938
 -85.9385
 -85.9382
 -85.9272
 -85.9269
 -85.9371
 -85.937
 -85.9373
 -85.9377
 -85.933
 -85.9328
 -85.9329
 -85.9334
 -85.9442
 -85.9443
 -85.9342
 -85.9336
 -85.9342
 -85.9339
 -85.9371
 -85.9374
 -85.9376
 -85.9377
 -85.9363
 -85.9366
 -85.9362
 -85.9363
 -85.93
 -85.9303
 -85.9283
 -85.9286
 -85.9281
 -85.9278
 -85.9255
 -85.925
 -85.9253
 -85.9253
 -85.9328
 -85.9333
 -85.9333
 -85.9329
 -85.921
 -85.9214
 -85.9217
 -85.922
 -85.9229
 -85.9227
 -85.9225
 -85.9227
 -85.9097
 -85.91
 -85.9099
 -85.9092
 -85.9254
 -85.9246
 -85.9321
 -85.9312
 -85.932
 -85.9316
 -85.9271
 -85.9269
 -85.9274
 -85.9277
 -85.931
 -85.9314
 -85.9316
 -85.9313
 -85.9287
 -85.9286
 -85.9372
 -85.937
 -85.9451
 -85.9451
 -85.9452
 -85.9453
 -85.9188
 -85.9283
 -85.9283
 -85.9285
 -85.9289
 -85.931
 -85.9303
 -85.9305
 -85.9306
 -85.9244
 -85.924
 -85.9239
 -85.9234
 -85.936
 -85.9353
 -85.936
 -85.9354
 -85.9314
 -85.9309
 -85.9307
 -85.9313
 -85.9214
 -85.9213
 -85.9216
 -85.9209
 -85.9207
 -85.9265
 -85.9273
 -85.9265
 -85.927
 -85.9263
 -85.9273
 -85.9265
 -85.9262
 -85.9216
 -85.9216
 -85.9211
 -85.9216
 -85.9231
 -85.9233
 -85.9241
 -85.9238
 -85.9287
 -85.9292
 -85.9284
 -85.9283
 -85.9216
 -85.9214
 -85.9212
 -85.9213
 -85.9323
 -85.9325
 -85.9318
 -85.9245
 -85.9245
 -85.9244
 -85.9243
 -85.9142
 -85.9147
 -85.932
 -85.9324
 -85.9326
 -85.9315
 -85.9323
 -85.932
 -85.9323
 -85.9197
 -85.9201
 -85.9204
 -85.9181
 -85.9184
 -85.9184
 -85.9182
 -85.9346
 -85.9345
 -85.9349
 -85.9343
 -85.9316
 -85.9307
 -85.9316
 -85.9394
 -85.9386
 -85.939
 -85.9295
 -85.929
 -85.9292
 -85.9407
 -85.9408
 -85.9408
 -85.908
 -85.9076
 -85.9077
 -85.908
 -85.9442
 -85.9443
 -85.9441
 -85.9443
 -85.9254
 -85.9249
 -85.933
 -85.9323
 -85.9213
 -85.9214
 -85.9213
 -85.9218
 -85.9339
 -85.9337
 -85.9344
 -85.9376
 -85.9381
 -85.938
 -85.9381
 -85.9406
 -85.9399
 -85.9198
 -85.9198
 -85.9197
 -85.9323
 -85.9321
 -85.9317
 -85.9238
 -85.9232
 -85.9238
 -85.9198
 -85.9198
 -85.9195
 -85.9194
 -85.9279
 -85.9281
 -85.9275
 -85.9283
 -85.9272
 -85.9265
 -85.9267
 -85.927
 -85.9355
 -85.9353
 -85.9352
 -85.9358
 -85.9375
 -85.9372
 -85.9374
 -85.9368
 -85.9264
 -85.9262
 -85.9269
 -85.9345
 -85.9344
 -85.9341
 -85.9366
 -85.937
 -85.9367
 -85.9368
 -85.9463
 -85.9462
 -85.9464
 -85.9303
 -85.9302
 -85.9301
 -85.9361
 -85.9364
 -85.9356
 -85.9295
 -85.9299
 -85.9292
 -85.925
 -85.9243
 -85.9244
 -85.9199
 -85.9202
 -85.9201
 -85.9202
 -85.9296
 -85.9294
 -85.9301
 -85.9296
 -85.9237
 -85.9235
 -85.923
 -85.9212
 -85.9218
 -85.9359
 -85.9355
 -85.9364
 -85.9359
 -85.9359
 -85.9363
 -85.9358
 -85.9354
 -85.9217
 -85.9223
 -85.9226
 -85.9228
 -85.9214
 -85.9209
 -85.9211
 -85.9208
 -85.9163
 -85.916
 -85.9163
 -85.9158
 -85.9425
 -85.9428
 -85.94
 -85.9394
 -85.9397
 -85.94
 -85.944
 -85.9247
 -85.9253
 -85.9246
 -85.9307
 -85.931
 -85.9305
 -85.9304
 -85.9217
 -85.9217
 -85.929
 -85.929
 -85.9294
 -85.9192
 -85.9194
 -85.9392
 -85.9393
 -85.9397
 -85.9389
 -85.941
 -85.9409
 -85.9417
 -85.9413
 -85.9381
 -85.9383
 -85.9377
 -85.9253
 -85.9257
 -85.9257
 -85.9406
 -85.9405
 -85.9407
 -85.9409
 -85.9236
 -85.9228
 -85.9234
 -85.9237
 -85.9386
 -85.9383
 -85.9382
 -85.9386
 -85.9238
 -85.9231
 -85.9229
 -85.9241
 -85.9202
 -85.9205
 -85.92
 -85.9442
 -85.9448
 -85.9444
 -85.9443
 -85.9207
 -85.921
 -85.9209
 -85.9279
 -85.9281
 -85.9286
 -85.9282
 -85.9431
 -85.9436
 -85.9433
 -85.9236
 -85.9231
 -85.9236
 -85.9232
 -85.9344
 -85.9422
 -85.9424
 -85.9416
 -85.9421
 -85.9191
 -85.9193
 -85.9196
 -85.9193
 -85.9363
 -85.9354
 -85.936
 -85.9363
 -85.9304
 -85.9307
 -85.9297
 -85.9203
 -85.9199
 -85.9205
 -85.9191
 -85.9351
 -85.935
 -85.9354
 -85.923
 -85.9228
 -85.9087
 -85.9082
 -85.9089
 -85.9092
 -85.9166
 -85.9153
 -85.9151
 -85.9408
 -85.9406
 -85.9418
 -85.9412
 -85.9411
 -85.9414
 -85.9176
 -85.9179
 -85.9171
 -85.918
 -85.9271
 -85.9274
 -85.9274
 -85.9275
 -85.9289
 -85.9282
 -85.9282
 -85.9285
 -85.9317
 -85.9315
 -85.9322
 -85.9316
 -85.9322
 -85.9312
 -85.9319
 -85.9314
 -85.9431
 -85.9213
 -85.9211
 -85.9214
 -85.9212
 -85.9434
 -85.9432
 -85.9437
 -85.9328
 -85.9321
 -85.9319
 -85.9321
 -85.9199
 -85.9205
 -85.9207
 -85.9312
 -85.9306
 -85.9311
 -85.9306
 -85.9297
 -85.9353
 -85.9355
 -85.9361
 -85.9359
 -85.924
 -85.9239
 -85.9239
 -85.9298
 -85.9309
 -85.9305
 -85.9435
 -85.9432
 -85.9429
 -85.9432
 -85.9292
 -85.9289
 -85.9288
 -85.9064
 -85.9068
 -85.906
 -85.9292
 -85.9288
 -85.9291
 -85.9283
 -85.9357
 -85.9362
 -85.9361
 -85.9303
 -85.9303
 -85.9408
 -85.941
 -85.9405
 -85.9406
 -85.9382
 -85.9386
 -85.9383
 -85.9383
 -85.9447
 -85.9446
 -85.9444
 -85.9442
 -85.932
 -85.9309
 -85.9317
 -85.932
 -85.937
 -85.9368
 -85.9366
 -85.9363
 -85.9407
 -85.9411
 -85.9414
 -85.9233
 -85.9236
 -85.9227
 -85.9231
 -85.9285
 -85.9291
 -85.926
 -85.9256
 -85.9261
 -85.9258
 -85.9358
 -85.9357
 -85.9358
 -85.9361
 -85.9292
 -85.9298
 -85.9296
 -85.9291
 -85.9355
 -85.9352
 -85.936
 -85.9354
 -85.9301
 -85.9303
 -85.9307
 -85.9308
 -85.9295
 -85.929
 -85.9291
 -85.9402
 -85.9398
 -85.9402
 -85.9425
 -85.9424
 -85.9423
 -85.943
 -85.9416
 -85.9415
 -85.9419
 -85.9372
 -85.9378
 -85.9373
 -85.9108
 -85.9106
 -85.9101
 -85.9284
 -85.9291
 -85.9285
 -85.9398
 -85.9401
 -85.9398
 -85.9398
 -85.9283
 -85.9286
 -85.9283
 -85.9322
 -85.9325
 -85.9324
 -85.9319
 -85.9344
 -85.9332
 -85.9337
 -85.9335
 -85.9296
 -85.9301
 -85.93
 -85.9305
 -85.9223
 -85.9227
 -85.9223
 -85.9221
 -85.9286
 -85.9322
 -85.9321
 -85.9325
 -85.9314
 -85.9207
 -85.9209
 -85.921
 -85.9209
 -85.92
 -85.9205
 -85.9202
 -85.9204
 -85.9214
 -85.9216
 -85.9216
 -85.9212
 -85.9347
 -85.9347
 -85.9353
 -85.9356
 -85.9232
 -85.9229
 -85.9231
 -85.9232
 -85.9445
 -85.944
 -85.9444
 -85.9441
 -85.9152
 -85.9155
 -85.916
 -85.9159
 -85.9227
 -85.9227
 -85.9225
 -85.919
 -85.9186
 -85.9184
 -85.9184
 -85.9208
 -85.9205
 -85.9212
 -85.9211
 -85.9213
 -85.9306
 -85.9306
 -85.9309
 -85.9318
 -85.9427
 -85.9423
 -85.9421
 -85.9426
 -85.9425
 -85.9427
 -85.9424
 -85.922
 -85.9216
 -85.9438
 -85.9442
 -85.9438
 -85.9403
 -85.9402
 -85.9403
 -85.9407
 -85.9208
 -85.9206
 -85.9208
 -85.9444
 -85.9445
 -85.9442
 -85.9447
 -85.9256
 -85.9258
 -85.9262
 -85.9253
 -85.9216
 -85.9209
 -85.9212
 -85.9217
 -85.9188
 -85.9195
 -85.9192
 -85.9191
 -85.9129
 -85.9131
 -85.9126
 -85.9126
 -85.9335
 -85.9345
 -85.9341
 -85.9343
 -85.9263
 -85.9263
 -85.926
 -85.9254
 -85.9441
 -85.9438
 -85.9442
 -85.9057
 -85.9064
 -85.906
 -85.9067
 -85.9164
 -85.9171
 -85.9167
 -85.9173
 -85.9441
 -85.9446
 -85.9443
 -85.9443
 -85.93
 -85.93
 -85.9306
 -85.9414
 -85.942
 -85.9421
 -85.9218
 -85.9217
 -85.9209
 -85.9442
 -85.944
 -85.9439
 -85.9441
 -85.9401
 -85.9399
 -85.9397
 -85.9393
 -85.9241
 -85.9244
 -85.9249
 -85.9243
 -85.9263
 -85.9256
 -85.9262
 -85.9254
 -85.9385
 -85.9385
 -85.9385
 -85.9391
 -85.9315
 -85.9312
 -85.9307
 -85.931
 -85.9142
 -85.9149
 -85.915
 -85.9148
 -85.9408
 -85.9399
 -85.9405
 -85.9402
 -85.9447
 -85.9304
 -85.9306
 -85.931
 -85.931
 -85.9423
 -85.9426
 -85.9424
 -85.9429
 -85.9207
 -85.9208
 -85.9209
 -85.9209
 -85.9438
 -85.944
 -85.9436
 -85.9434
 -85.9293
 -85.9291
 -85.9265
 -85.9262
 -85.9267
 -85.9268
 -85.938
 -85.9374
 -85.9373
 -85.9374
 -85.9321
 -85.9328
 -85.9326
 -85.9261
 -85.926
 -85.9263
 -85.9383
 -85.9381
 -85.9376
 -85.9377
 -85.9367
 -85.9364
 -85.9369
 -85.9365
 -85.922
 -85.9217
 -85.9216
 -85.9297
 -85.9309
 -85.931
 -85.9302
 -85.9153
 -85.915
 -85.9157
 -85.9149
 -85.9142
 -85.9443
 -85.9434
 -85.9442
 -85.9436
 -85.9307
 -85.9304
 -85.9301
 -85.9307
 -85.9412
 -85.9415
 -85.9282
 -85.9272
 -85.9273
 -85.9236
 -85.9231
 -85.924
 -85.9238
 -85.9439
 -85.9438
 -85.9441
 -85.9441
 -85.9215
 -85.9216
 -85.9216
 -85.924
 -85.9239
 -85.9243
 -85.9239
 -85.9259
 -85.9267
 -85.9261
 -85.9254
 -85.9356
 -85.9366
 -85.9359
 -85.9363
 -85.923
 -85.9237
 -85.9233
 -85.9232
 -85.9375
 -85.9337
 -85.9344
 -85.9346
 -85.9335
 -85.9425
 -85.9426
 -85.9421
 -85.9435
 -85.9433
 -85.9433
 -85.943
 -85.9342
 -85.9345
 -85.9338
 -85.9342
 -85.9452
 -85.9452
 -85.9451
 -85.9447
 -85.926
 -85.9326
 -85.9317
 -85.9318
 -85.9324
 -85.9308
 -85.9298
 -85.9303
 -85.9305
 -85.9131
 -85.9138
 -85.914
 -85.9133
 -85.9288
 -85.929
 -85.9292
 -85.9285
 -85.9279
 -85.9279
 -85.9281
 -85.9285
 -85.9283
 -85.9284
 -85.9289
 -85.9414
 -85.941
 -85.9408
 -85.9278
 -85.9271
 -85.9273
 -85.9276
 -85.9407
 -85.9414
 -85.9411
 -85.9299
 -85.9294
 -85.9313
 -85.9317
 -85.9315
 -85.9311
 -85.9309
 -85.9311
 -85.9304
 -85.9306
 -85.9314
 -85.9311
 -85.942
 -85.9422
 -85.9422
 -85.9261
 -85.9432
 -85.9321
 -85.9325
 -85.932
 -85.9315
 -85.9207
 -85.9207
 -85.9201
 -85.9221
 -85.9228
 -85.9231
 -85.9312
 -85.9314
 -85.9307
 -85.9293
 -85.9293
 -85.9296
 -85.93
 -85.9308
 -85.9302
 -85.9311
 -85.9303
 -85.906
 -85.9061
 -85.9055
 -85.9383
 -85.9377
 -85.9381
 -85.9293
 -85.9295
 -85.9395
 -85.9388
 -85.9391
 -85.9388
 -85.9329
 -85.9334
 -85.9329
 -85.9133
 -85.9135
 -85.9127
 -85.9129
 -85.9277
 -85.927
 -85.9276
 -85.9271
 -85.9225
 -85.9223
 -85.922
 -85.9219
 -85.9353
 -85.9346
 -85.9351
 -85.9353
 -85.9252
 -85.9246
 -85.9251
 -85.9243
 -85.9153
 -85.9151
 -85.9151
 -85.926
 -85.9258
 -85.9255
 -85.9257
 -85.9354
 -85.9361
 -85.9358
 -85.9359
 -85.93
 -85.9307
 -85.9308
 -85.9305
 -85.9234
 -85.9231
 -85.9234
 -85.9272
 -85.9267
 -85.9269
 -85.9269
 -85.9223
 -85.9217
 -85.9223
 -85.9218
 -85.9192
 -85.92
 -85.9197
 -85.9189
 -85.9438
 -85.944
 -85.9438
 -85.944
 -85.9217
 -85.9221
 -85.922
 -85.9221
 -85.9231
 -85.9227
 -85.9232
 -85.9232
 -85.9345
 -85.9351
 -85.935
 -85.9354
 -85.9255
 -85.9254
 -85.926
 -85.9257
 -85.946
 -85.9461
 -85.9461
 -85.9462
 -85.9284
 -85.9281
 -85.9287
 -85.9204
 -85.92
 -85.9201
 -85.9206
 -85.9215
 -85.9213
 -85.9214
 -85.9213
 -85.9215
 -85.9206
 -85.9365
 -85.936
 -85.9365
 -85.9358
 -85.946
 -85.9456
 -85.9458
 -85.9457
 -85.927
 -85.9264
 -85.9267
 -85.9263
 -85.9222
 -85.9219
 -85.9219
 -85.9352
 -85.9346
 -85.9346
 -85.9351
 -85.9284
 -85.9283
 -85.9285
 -85.9291
 -85.9237
 -85.9237
 -85.9236
 -85.9241
 -85.9199
 -85.9207
 -85.9202
 -85.9385
 -85.9391
 -85.9394
 -85.9387
 -85.9405
 -85.9403
 -85.9399
 -85.9271
 -85.9269
 -85.9273
 -85.9277
 -85.9275
 -85.9272
 -85.928
 -85.9233
 -85.924
 -85.9244
 -85.9241
 -85.935
 -85.9347
 -85.9343
 -85.9214
 -85.9214
 -85.9209
 -85.9304
 -85.9311
 -85.9309
 -85.9404
 -85.9398
 -85.9402
 -85.936
 -85.9359
 -85.9258
 -85.9261
 -85.9257
 -85.9261
 -85.9264
 -85.9261
 -85.9291
 -85.9284
 -85.9237
 -85.9194
 -85.9195
 -85.919
 -85.9409
 -85.9409
 -85.9401
 -85.9271
 -85.9276
 -85.9274
 -85.927
 -85.924
 -85.9301
 -85.9304
 -85.9352
 -85.9354
 -85.935
 -85.9356
 -85.93
 -85.9295
 -85.9301
 -85.9272
 -85.9275
 -85.9266
 -85.9273
 -85.9259
 -85.9269
 -85.9279
 -85.9274
 -85.927
 -85.9281
 -85.9416
 -85.9411
 -85.9411
 -85.9415
 -85.9421
 -85.9424
 -85.9428
 -85.9427
 -85.9214
 -85.9218
 -85.9297
 -85.9297
 -85.9295
 -85.9289
 -85.9325
 -85.9327
 -85.933
 -85.9332
 -85.9342
 -85.9347
 -85.9342
 -85.934
 -85.9292
 -85.9288
 -85.9286
 -85.9293
 -85.9281
 -85.9286
 -85.9282
 -85.928
 -85.9403
 -85.9396
 -85.9403
 -85.9402
 -85.9219
 -85.9226
 -85.9229
 -85.9233
 -85.9222
 -85.9228
 -85.9225
 -85.9384
 -85.9388
 -85.9395
 -85.9397
 -85.9234
 -85.9239
 -85.9236
 -85.924
 -85.9432
 -85.9429
 -85.9431
 -85.9431
 -85.9407
 -85.9405
 -85.9407
 -85.9403
 -85.9265
 -85.9268
 -85.9263
 -85.9266
 -85.9362
 -85.9364
 -85.9361
 -85.9356
 -85.9239
 -85.9242
 -85.9246
 -85.9247
 -85.9382
 -85.9378
 -85.938
 -85.9218
 -85.9221
 -85.9217
 -85.9219
 -85.9335
 -85.9332
 -85.9336
 -85.9338
 -85.9259
 -85.9261
 -85.9375
 -85.9384
 -85.938
 -85.9378
 -85.9386
 -85.9385
 -85.9381
 -85.9285
 -85.9293
 -85.9286
 -85.9392
 -85.9392
 -85.9394
 -85.9398
 -85.9158
 -85.916
 -85.9164
 -85.9163
 -85.9236
 -85.9239
 -85.9243
 -85.9245
 -85.9335
 -85.9327
 -85.9328
 -85.9335
 -85.9419
 -85.9421
 -85.9417
 -85.9422
 -85.9407
 -85.9411
 -85.9412
 -85.9408
 -85.9419
 -85.9418
 -85.942
 -85.9418
 -85.9419
 -85.9248
 -85.9252
 -85.9248
 -85.9253
 -85.9221
 -85.9223
 -85.9215
 -85.922
 -85.9246
 -85.9246
 -85.9259
 -85.9265
 -85.926
 -85.9259
 -85.9276
 -85.9276
 -85.9282
 -85.9276
 -85.9225
 -85.9225
 -85.9221
 -85.9308
 -85.9304
 -85.9305
 -85.9303
 -85.9462
 -85.9461
 -85.9459
 -85.9249
 -85.9248
 -85.9251
 -85.9257
 -85.9393
 -85.9385
 -85.939
 -85.9392
 -85.9355
 -85.9361
 -85.9359
 -85.9299
 -85.9296
 -85.9302
 -85.9361
 -85.9368
 -85.9361
 -85.9403
 -85.9399
 -85.9356
 -85.9357
 -85.9356
 -85.924
 -85.9242
 -85.9243
 -85.9237
 -85.9426
 -85.9429
 -85.9426
 -85.9425
 -85.9336
 -85.9342
 -85.9339
 -85.9116
 -85.9109
 -85.9105
 -85.9114
 -85.9201
 -85.9198
 -85.932
 -85.926
 -85.9268
 -85.9263
 -85.9259
 -85.9308
 -85.9315
 -85.9314
 -85.9378
 -85.9379
 -85.9375
 -85.9379
 -85.9435
 -85.9436
 -85.9298
 -85.9296
 -85.9296
 -85.9292
 -85.9193
 -85.9187
 -85.9187
 -85.9193
 -85.9409
 -85.9412
 -85.9412
 -85.941
 -85.9333
 -85.9336
 -85.9332
 -85.9069
 -85.9066
 -85.9061
 -85.9061
 -85.9219
 -85.9218
 -85.9214
 -85.9248
 -85.9252
 -85.9244
 -85.9249
 -85.9333
 -85.9334
 -85.9331
 -85.9339
 -85.9299
 -85.9303
 -85.9204
 -85.9206
 -85.9206
 -85.9205
 -85.9338
 -85.9344
 -85.9248
 -85.924
 -85.9244
 -85.9246
 -85.927
 -85.9273
 -85.9266
 -85.9271
 -85.9301
 -85.9308
 -85.931
 -85.9305
 -85.9242
 -85.9239
 -85.9233
 -85.9353
 -85.9347
 -85.9354
 -85.9348
 -85.9386
 -85.9391
 -85.9395
 -85.9387
 -85.9379
 -85.9379
 -85.938
 -85.9384
 -85.9187
 -85.9182
 -85.9185
 -85.918
 -85.9305
 -85.9301
 -85.9098
 -85.9092
 -85.9094
 -85.9088
 -85.9269
 -85.9263
 -85.926
 -85.9437
 -85.904
 -85.9043
 -85.9043
 -85.9034
 -85.929
 -85.9293
 -85.929
 -85.929
 -85.9257
 -85.9263
 -85.9259
 -85.9381
 -85.9386
 -85.9386
 -85.9381
 -85.9384
 -85.9381
 -85.9388
 -85.9387
 -85.9377
 -85.938
 -85.9375
 -85.9373
 -85.9242
 -85.9246
 -85.9239
 -85.9246
 -85.9215
 -85.9213
 -85.921
 -85.921
 -85.9341
 -85.9342
 -85.9348
 -85.9341
 -85.9273
 -85.9265
 -85.9276
 -85.9271
 -85.9458
 -85.942
 -85.9422
 -85.9328
 -85.9329
 -85.9276
 -85.9271
 -85.9272
 -85.9425
 -85.9431
 -85.9427
 -85.9426
 -85.9286
 -85.9284
 -85.9329
 -85.9324
 -85.9132
 -85.914
 -85.9132
 -85.9139
 -85.9242
 -85.9239
 -85.9235
 -85.9237
 -85.9336
 -85.9343
 -85.9337
 -85.9341
 -85.9145
 -85.9139
 -85.9144
 -85.9147
 -85.9448
 -85.9446
 -85.9451
 -85.9447
 -85.9421
 -85.9416
 -85.9433
 -85.943
 -85.9426
 -85.9434
 -85.9389
 -85.9393
 -85.9261
 -85.9264
 -85.9259
 -85.9051
 -85.9057
 -85.9049
 -85.905
 -85.9154
 -85.9159
 -85.916
 -85.9155
 -85.9424
 -85.9427
 -85.9424
 -85.9422
 -85.9363
 -85.937
 -85.9366
 -85.9313
 -85.9307
 -85.9303
 -85.9309
 -85.9249
 -85.9257
 -85.925
 -85.9248
 -85.9403
 -85.9408
 -85.9406
 -85.9426
 -85.9305
 -85.9313
 -85.924
 -85.9242
 -85.9354
 -85.9362
 -85.9353
 -85.9355
 -85.9215
 -85.9209
 -85.9218
 -85.9208
 -85.9212
 -85.9206
 -85.9208
 -85.9061
 -85.9071
 -85.9068
 -85.9066
 -85.9247
 -85.9251
 -85.9251
 -85.9256
 -85.9406
 -85.9407
 -85.9396
 -85.94
 -85.9399
 -85.94
 -85.9237
 -85.9237
 -85.9242
 -85.9234
 -85.9379
 -85.9376
 -85.9381
 -85.9357
 -85.9357
 -85.9358
 -85.9353
 -85.9398
 -85.9401
 -85.9396
 -85.9403
 -85.9249
 -85.9255
 -85.9253
 -85.9249
 -85.9435
 -85.9429
 -85.9281
 -85.9118
 -85.9121
 -85.9125
 -85.9128
 -85.9376
 -85.9376
 -85.938
 -85.9155
 -85.915
 -85.9152
 -85.9147
 -85.9353
 -85.9352
 -85.9352
 -85.9357
 -85.9205
 -85.9205
 -85.92
 -85.9207
 -85.9228
 -85.9227
 -85.9231
 -85.9232
 -85.9346
 -85.935
 -85.935
 -85.9261
 -85.9263
 -85.926
 -85.9256
 -85.934
 -85.9338
 -85.9342
 -85.9334
 -85.9323
 -85.9319
 -85.9389
 -85.9391
 -85.9391
 -85.9357
 -85.9359
 -85.9353
 -85.9115
 -85.9116
 -85.9122
 -85.9117
 -85.9214
 -85.9219
 -85.9212
 -85.9221
 -85.9404
 -85.9397
 -85.9398
 -85.9397
 -85.9393
 -85.9391
 -85.9231
 -85.9242
 -85.9231
 -85.9359
 -85.9352
 -85.9354
 -85.9351
 -85.9356
 -85.9355
 -85.9352
 -85.9244
 -85.9241
 -85.9245
 -85.9246
 -85.9425
 -85.9427
 -85.9263
 -85.9261
 -85.9263
 -85.9267
 -85.9237
 -85.9237
 -85.9239
 -85.9363
 -85.9365
 -85.9297
 -85.9293
 -85.9297
 -85.9302
 -85.921
 -85.9209
 -85.9344
 -85.9343
 -85.9266
 -85.9257
 -85.9258
 -85.9263
 -85.9309
 -85.9309
 -85.9305
 -85.9314
 -85.9309
 -85.9305
 -85.9309
 -85.9174
 -85.9175
 -85.9172
 -85.9184
 -85.9152
 -85.9153
 -85.9157
 -85.9156
