 20.3897
 20.2897
 20.3202
 20.2509
 18.5133
 18.5005
 18.4376
 18.4064
 19.0313
 19.0974
 19.0137
 19.1036
 18.9588
 19.0113
 19.0584
 19.0765
 17.8637
 17.766
 17.906
 17.9284
 17.9002
 17.9762
 17.8404
 17.9479
 20.76
 20.8363
 20.8119
 20.7594
 20.7339
 20.7023
 20.7021
 20.7553
 17.8449
 17.8833
 17.9657
 17.8742
 17.9281
 17.9158
 17.9482
 17.814
 21.005
 21.0532
 20.9793
 20.9655
 18.9876
 18.9826
 19.0509
 19.0045
 20.0132
 20.0271
 20.0824
 19.9621
 18.5169
 18.6219
 18.6543
 18.5909
 19.3423
 19.3551
 19.312
 19.2562
 20.5245
 20.5787
 20.4862
 20.577
 18.1864
 18.1249
 18.1825
 18.0861
 18.805
 18.8512
 18.7848
 18.8364
 19.3457
 19.3328
 19.3207
 19.2769
 18.1479
 18.1564
 18.1151
 18.0459
 20.6813
 20.7643
 20.676
 20.7348
 17.6429
 17.6466
 17.5485
 17.5299
 21.5775
 21.6235
 21.6207
 21.5566
 18.7121
 18.6636
 18.7333
 18.7496
 19.45
 19.4924
 19.4156
 19.4027
 19.2418
 19.2333
 19.274
 19.2978
 19.7626
 19.6882
 19.6521
 19.7509
 20.5377
 20.5922
 20.5258
 20.5291
 20.0594
 20.0792
 20.1474
 20.1048
 18.6023
 18.6176
 18.6419
 18.6993
 19.4034
 19.2813
 19.422
 19.3838
 20.0056
 19.9433
 19.9502
 20.0019
 18.8815
 18.9636
 18.8809
 18.9493
 18.485
 18.5235
 18.5231
 18.5135
 20.0192
 20.099
 20.0125
 20.129
 20.4564
 20.4623
 20.4764
 20.4735
 18.9276
 19.0221
 18.9539
 18.9585
 20.8377
 20.8095
 20.792
 20.7843
 18.7273
 18.7153
 18.5837
 18.6158
 17.3679
 17.4701
 17.3954
 17.4892
 19.1594
 19.185
 19.1477
 19.2404
 18.6452
 18.5791
 18.6068
 18.6514
 20.7711
 20.7738
 20.7078
 20.8211
 18.8546
 18.9226
 18.8935
 18.8217
 17.8448
 17.8759
 17.7975
 17.846
 20.2062
 20.1451
 20.1727
 20.2017
 18.8667
 18.7517
 18.7829
 18.7614
 20.4296
 20.36
 20.4087
 20.4806
 20.0151
 20.0613
 20.0876
 20.1068
 19.3341
 19.3894
 19.4
 19.4655
 20.5553
 20.5864
 20.6087
 20.5447
 19.1864
 19.2533
 19.2434
 19.1996
 19.8818
 19.9572
 19.8678
 19.986
 19.1596
 19.1142
 19.1504
 19.1181
 20.0951
 20.0327
 20.082
 19.9901
 19.04
 19.0488
 18.9857
 19.1022
 18.6574
 18.6568
 18.6086
 18.5597
 18.6173
 18.6793
 18.6438
 18.7454
 20.1578
 20.1784
 20.2579
 20.1297
 19.7111
 19.7496
 19.7481
 19.6582
 21.4626
 21.495
 21.5384
 21.4876
 20.0948
 20.1179
 20.1819
 20.1048
 19.4398
 19.3352
 19.389
 19.3767
 19.8687
 19.8698
 19.7693
 19.9202
 19.9583
 19.8845
 19.962
 19.8949
 20.6218
 20.6641
 20.6035
 20.606
 18.1119
 18.0168
 17.972
 18.1164
 17.9011
 17.871
 17.8283
 17.7973
 19.289
 19.1947
 19.3482
 19.2944
 20.0675
 20.088
 20.0411
 20.1283
 18.7005
 18.6716
 18.6266
 18.7063
 20.6492
 20.7954
 20.737
 20.734
 20.6825
 20.7413
 20.7699
 20.6766
 21.6094
 21.6596
 21.5993
 21.6106
 19.0993
 19.0039
 19.0664
 18.9928
 20.2003
 20.1229
 20.1091
 20.1903
 20.3607
 20.413
 20.3244
 20.3234
 17.7319
 17.6322
 17.6687
 17.6185
 20.5175
 20.5549
 20.6125
 20.5366
 20.3781
 20.4148
 20.4559
 20.382
 20.2458
 20.1931
 20.2567
 20.3132
 19.5924
 19.6076
 19.5457
 19.5542
 20.3244
 20.2424
 20.3033
 20.2758
 20.0274
 19.9914
 19.9687
 20.0043
 19.7059
 19.7273
 19.7585
 19.7824
 20.4685
 20.5578
 20.4511
 20.5534
 21.7739
 21.7822
 21.708
 21.7084
 20.6306
 20.6055
 20.5581
 20.5962
 19.0294
 19.0917
 19.0111
 19.1261
 19.0209
 19.0588
 18.9971
 19.0753
 18.6283
 18.6947
 18.6967
 18.6381
 20.8057
 20.8169
 20.7944
 20.7623
 17.5319
 17.5467
 17.618
 17.4824
 18.7466
 18.6749
 18.7632
 18.7343
 20.8142
 20.8096
 20.8757
 20.8931
 19.9866
 19.9948
 20.0169
 19.9019
 20.398
 20.3453
 20.4593
 20.4145
 20.3817
 20.415
 20.421
 20.7731
 20.7824
 20.7908
 20.8221
 18.8645
 18.9147
 18.9689
 18.8392
 19.7355
 19.6339
 19.6662
 19.716
 18.9999
 18.9198
 18.9943
 20.0786
 20.1774
 20.1096
 20.1373
 19.5623
 19.4947
 19.5182
 19.6037
 18.2287
 18.3633
 18.3527
 18.1895
 20.652
 20.644
 20.5555
 20.5877
 20.4283
 20.4783
 20.522
 20.4703
 19.1025
 19.1914
 19.2043
 19.1713
 18.757
 18.8088
 18.6863
 18.6924
 20.7587
 20.7391
 20.769
 20.8189
 20.4638
 20.4409
 20.3266
 20.3609
 19.7881
 19.7044
 19.6579
 19.7761
 17.9745
 17.9209
 17.9501
 17.9304
 19.0634
 18.979
 18.9428
 18.9852
 19.476
 19.5901
 19.5032
 19.4758
 21.4982
 21.5751
 21.4984
 21.5005
 19.6573
 19.7095
 19.6193
 19.5763
 18.2344
 18.3298
 18.2354
 18.3519
 20.2668
 20.3742
 20.2244
 20.2499
 20.5008
 20.4871
 20.557
 20.515
 20.4978
 20.5683
 20.5541
 20.5344
 21.114
 21.1219
 21.1197
 21.0841
 20.2983
 20.4074
 20.3973
 20.3998
 19.0866
 19.0899
 19.0769
 19.1404
 20.8027
 20.7736
 20.7514
 20.7282
 18.1173
 18.1956
 18.1232
 18.1014
 20.6739
 20.7607
 20.7552
 20.6795
 18.279
 18.4042
 18.2625
 18.3437
 19.7408
 19.8007
 19.7977
 19.7529
 19.8806
 19.8065
 19.7872
 19.854
 20.1708
 20.1706
 20.0716
 20.1437
 20.3183
 20.3183
 20.385
 20.3965
 17.6339
 17.5404
 17.5138
 17.5294
 20.2594
 20.3117
 20.2575
 20.2999
 17.3769
 17.4645
 17.407
 17.531
 18.7268
 18.7601
 18.6605
 18.7346
 21.3132
 21.241
 21.2547
 21.3142
 17.7638
 17.7763
 17.7157
 17.6854
 20.5218
 20.4527
 20.5203
 20.5797
 21.2675
 21.3188
 21.3437
 21.2718
 18.4635
 18.4939
 18.5385
 18.5012
 17.81
 17.6951
 17.7834
 17.8331
 19.2645
 19.2556
 19.283
 19.3109
 18.5588
 18.6544
 18.5414
 18.6481
 20.4274
 20.5119
 20.4615
 20.4873
 19.1296
 19.1638
 19.1364
 19.069
 19.9483
 19.9621
 19.9042
 19.8983
 20.7139
 20.6757
 20.7313
 20.7324
 20.9668
 20.9802
 20.9901
 20.9199
 19.695
 19.7209
 19.6505
 19.7471
 19.4817
 19.4984
 19.5144
 19.5682
 20.4593
 20.4684
 20.4076
 20.4029
 20.4507
 20.556
 20.4639
 20.4708
 18.9805
 18.9584
 19.0151
 19.0256
 17.8696
 17.9394
 17.811
 17.7844
 18.0452
 18.0915
 18.0246
 17.9969
 18.0926
 18.184
 18.1615
 18.1097
 18.7644
 18.8132
 18.7379
 18.8129
 20.4499
 20.5536
 20.4773
 20.5052
 20.4129
 20.3575
 20.3391
 20.3273
 19.4742
 19.5261
 19.597
 19.6194
 18.7746
 18.8151
 18.7094
 18.7688
 18.8007
 18.8438
 18.8077
 18.7479
 19.3026
 19.3751
 19.3177
 19.302
 19.0457
 18.9761
 19.0599
 19.0481
 20.8622
 20.8703
 20.8301
 20.7656
 21.9997
 22.0476
 21.9908
 22.0669
 20.2522
 20.2595
 20.3365
 20.2901
 21.8213
 21.7494
 21.7651
 20.3067
 20.3247
 20.276
 20.3539
 18.1149
 18.1712
 18.1317
 18.1869
 19.3767
 19.3439
 19.3187
 19.2579
 17.9773
 18.0192
 17.9315
 18.0371
 20.4793
 20.4689
 20.5524
 20.4889
 18.8041
 18.8021
 18.6661
 18.7017
 19.2845
 19.3077
 19.3912
 19.3297
 17.6644
 17.6069
 17.5881
 17.7531
 18.4597
 18.4793
 18.4422
 18.3714
 20.2272
 20.1556
 20.2043
 20.2295
 18.7683
 18.7766
 18.8531
 18.7551
 18.3145
 18.4397
 18.3771
 18.4177
 21.2481
 21.3294
 21.3104
 21.324
 19.3938
 19.367
 19.3152
 19.3051
 18.2955
 18.2632
 18.2593
 18.3378
 19.0038
 18.9332
 19.0543
 18.8855
 18.2916
 18.3835
 18.2833
 18.287
 20.3827
 20.3124
 20.274
 20.2917
 18.418
 18.2747
 18.4359
 18.3031
 19.7345
 19.695
 19.8114
 19.7348
 19.5914
 19.563
 19.5149
 19.609
 18.4584
 18.4966
 18.5518
 18.4171
 17.4197
 17.4936
 17.4962
 17.4437
 20.8895
 20.8494
 20.8082
 20.783
 20.0549
 19.9828
 19.9495
 20.0372
 19.0845
 19.1388
 19.1689
 19.147
 18.509
 18.4472
 18.4717
 18.4362
 20.2297
 20.2982
 20.2652
 20.2564
 20.7353
 20.6596
 20.6213
 20.7196
 18.7321
 18.7267
 18.8346
 18.8216
 18.9107
 18.8436
 18.9162
 18.8837
 17.7456
 17.6628
 17.5915
 17.7367
 20.5651
 20.4692
 20.5834
 20.5247
 17.8545
 17.7658
 17.7792
 17.8386
 20.0623
 19.9894
 20.0533
 20.0765
 21.9511
 21.9587
 21.9221
 21.9088
 18.1126
 18.0805
 18.0111
 18.0625
 18.8942
 18.8499
 18.9404
 19.006
 18.1977
 18.1841
 18.2423
 18.2444
 19.5365
 19.6267
 19.5743
 19.5326
 19.7127
 19.678
 19.662
 19.7032
 18.5571
 18.6591
 18.6534
 18.6149
 20.4622
 20.4257
 20.4997
 20.4459
 20.6158
 20.577
 20.5661
 20.6066
 21.5747
 21.6068
 21.6218
 21.6349
 19.2227
 19.1771
 19.1381
 19.11
 19.4585
 19.487
 19.3589
 19.4475
 19.05
 19.1769
 19.0764
 19.0242
 20.0079
 19.9012
 19.8891
 20.0219
 17.8046
 17.8047
 17.7533
 17.9029
 17.7859
 17.6489
 17.7864
 17.8048
 18.9736
 18.9382
 18.8759
 18.8681
 22.4186
 22.4307
 22.405
 22.3572
 19.7218
 19.7668
 19.7098
 19.8091
 19.6909
 19.709
 19.7963
 19.7091
 19.7294
 19.7089
 19.8079
 19.8009
 18.4614
 18.4986
 18.3888
 18.5052
 21.4093
 21.331
 21.4493
 21.4106
 21.5998
 21.6146
 21.6556
 21.6923
 18.3749
 18.4371
 18.3785
 18.471
 20.1229
 20.0289
 20.1584
 20.0473
 19.9031
 19.9212
 19.8892
 19.8855
 18.8495
 18.8809
 18.917
 18.9891
 20.5602
 20.5173
 20.4911
 20.5315
 18.423
 18.4869
 18.4772
 18.4095
 19.9915
 20.1214
 20.064
 20.1673
 20.0942
 20.0989
 20.1643
 20.1175
 20.7471
 20.7886
 20.7131
 20.794
 19.8073
 19.7152
 19.761
 19.6978
 18.2729
 18.2305
 18.2417
 18.2977
 18.8053
 18.72
 18.6877
 18.765
 20.5325
 20.5409
 20.4768
 20.4798
 20.2508
 20.1592
 20.1596
 20.2472
 18.0467
 18.0082
 17.9456
 17.9907
 18.4935
 18.5672
 18.5267
 18.5436
 19.6552
 19.6859
 19.7328
 19.6825
 20.8418
 20.8239
 20.8273
 20.7984
 21.1293
 21.025
 21.0513
 21.1217
 18.9404
 19.0332
 19.0683
 18.9961
 20.6579
 20.7262
 20.6601
 20.7958
 18.1272
 18.2343
 18.2269
 18.1357
 19.1064
 18.9955
 19.0581
 19.1233
 18.4508
 18.4804
 18.5144
 18.4599
 18.7577
 18.8628
 18.8504
 18.7869
 19.7166
 19.7638
 19.7097
 19.6597
 20.3879
 20.5176
 20.4889
 20.4308
 21.0138
 20.9069
 20.9976
 20.9909
 20.7671
 20.8598
 20.7599
 20.7865
 20.4082
 20.486
 20.4992
 20.4483
 19.6097
 19.5807
 19.5763
 19.7144
 19.6267
 19.5659
 19.5925
 19.6522
 19.5471
 19.612
 19.4908
 19.5574
 19.02
 19.0644
 18.9827
 18.9975
 21.3418
 21.4189
 21.3743
 21.3808
 19.3465
 19.3215
 19.3584
 19.2744
 20.5465
 20.6211
 20.5868
 20.5705
 19.9148
 19.8143
 19.8878
 19.8339
 17.8736
 18.0244
 17.8994
 17.9464
 19.5852
 19.6238
 19.6274
 19.6627
 20.6782
 20.7197
 20.6957
 20.7761
 19.8728
 19.8956
 19.8313
 19.7921
 20.3683
 20.3263
 20.3294
 20.3967
 19.6574
 19.7564
 19.6616
 19.7432
 21.2926
 21.351
 21.3234
 21.2637
 19.9212
 19.9127
 19.8581
 19.8463
 18.931
 18.954
 18.8881
 18.9596
 19.0161
 19.0075
 18.9764
 19.0017
 17.9635
 18.134
 18.0023
 18.0641
 20.2177
 20.2266
 20.1521
 20.2044
 20.3919
 20.3412
 20.4063
 20.2659
 17.9232
 18.05
 17.9328
 17.9581
 20.3778
 20.3767
 20.3001
 20.3736
 18.3179
 18.3462
 18.2496
 18.3581
 19.3386
 19.2255
 19.2916
 19.2368
 19.6285
 19.7413
 19.6367
 19.6126
 20.4411
 20.3593
 20.3679
 20.4417
 19.6689
 19.6625
 19.5618
 19.6546
 18.2989
 18.3193
 18.2854
 18.2759
 22.0125
 21.9848
 21.963
 22.057
 20.8747
 20.8924
 20.8929
 20.8675
 20.7871
 20.7684
 20.7891
 20.8423
 20.1165
 20.0798
 20.1573
 20.0507
 19.9259
 19.99
 19.9435
 19.9806
 20.2111
 20.2591
 20.2764
 20.2086
 17.7234
 17.764
 17.6196
 17.7716
 20.47
 20.5219
 20.5183
 20.4137
 19.072
 19.0738
 19.0427
 19.1334
 19.5515
 18.4132
 18.5033
 18.4991
 18.523
 19.1557
 19.0816
 19.0218
 19.0827
 20.9424
 20.9053
 20.8901
 20.9193
 20.0479
 20.0802
 20.0175
 19.9696
 20.2568
 20.3372
 20.2868
 20.2871
 18.2361
 18.3309
 18.3122
 18.3016
 19.8463
 19.9612
 19.8801
 19.9099
 18.1329
 18.1219
 18.2158
 18.2022
 18.7992
 18.7488
 18.8373
 18.7278
 20.9103
 20.859
 20.8876
 20.7953
 20.4301
 20.5085
 20.3784
 20.4356
 19.032
 18.9759
 18.9629
 19.0217
 19.6464
 19.7425
 19.6298
 20.7404
 20.7744
 20.7405
 20.7109
 18.9392
 19.0897
 18.985
 19.0521
 20.2951
 20.3903
 20.3692
 20.3367
 19.6794
 19.7923
 19.731
 19.6691
 18.0678
 18.0686
 18.2056
 18.0936
 20.1279
 20.1594
 20.2062
 20.1426
 18.4503
 18.5684
 18.48
 18.4423
 19.5348
 19.5968
 19.5407
 19.6326
 18.5868
 18.644
 18.7193
 18.6676
 18.1779
 18.177
 18.0706
 18.1194
 20.0744
 20.0868
 20.0239
 20.03
 21.9555
 21.8618
 21.8658
 21.8203
 17.5722
 17.6307
 17.6393
 17.6467
 19.0052
 19.0505
 19.0746
 19.0219
 20.5573
 20.5669
 20.4262
 20.5345
 19.8981
 19.8296
 19.8239
 19.9005
 21.2129
 21.1931
 21.2072
 21.263
 18.1443
 18.0832
 17.975
 18.0581
 20.7875
 20.8393
 20.8116
 20.8011
 19.2548
 19.1783
 19.2892
 19.2321
 20.4839
 20.624
 20.511
 20.5233
 17.5023
 17.5167
 17.5114
 17.6094
 17.6359
 17.6593
 17.7222
 17.7819
 18.7117
 18.7898
 18.8172
 18.6879
 19.2085
 19.181
 19.2021
 19.2675
 19.1927
 20.6182
 20.6058
 20.6866
 20.6351
 20.5241
 20.5528
 20.5793
 20.5039
 18.9114
 18.8372
 18.8321
 18.8211
 20.67
 20.6048
 20.6059
 20.674
 20.3667
 20.397
 20.4034
 20.3348
 18.7386
 18.7049
 18.7155
 18.8019
 20.0309
 19.9363
 20.0293
 19.9406
 18.9185
 18.9116
 18.908
 18.8427
 20.3281
 20.344
 20.4037
 20.3469
 20.1433
 20.097
 20.0744
 20.0677
 19.7631
 19.681
 19.7897
 19.7116
 19.2424
 19.1497
 19.1967
 19.1102
 18.5171
 18.5612
 18.4276
 18.4549
 19.3148
 19.3386
 19.3826
 19.3718
 19.3444
 19.2961
 19.2807
 19.2956
 20.9626
 20.9639
 20.9196
 20.8944
 19.0515
 19.0487
 19.0008
 19.0373
 19.5755
 19.5601
 19.5161
 19.5725
 19.4769
 19.4905
 19.5429
 19.4987
 20.0464
 20.03
 20.1077
 20.0541
 20.7312
 20.7411
 20.6982
 20.8044
 18.6697
 18.7026
 18.6611
 18.6213
 20.7042
 20.7582
 20.7388
 20.6517
 17.7462
 17.7529
 17.6248
 17.7025
 18.5221
 18.5848
 18.4781
 18.5186
 18.4946
 18.479
 18.4679
 18.5049
 18.3188
 18.3608
 18.3684
 18.2693
 18.8065
 18.7679
 18.8453
 18.77
 21.2256
 21.267
 21.3367
 19.3776
 19.4912
 19.3958
 19.4058
 18.5599
 18.6045
 18.6278
 18.5752
 20.0791
 20.1654
 20.1205
 20.1006
 20.3509
 20.3208
 20.3818
 20.3142
 18.7729
 18.7557
 18.6992
 18.8461
 19.769
 19.792
 19.7685
 19.6878
 20.28
 20.2731
 20.3116
 20.3152
 17.7627
 17.6395
 19.0668
 19.0771
 19.1649
 19.1515
 19.7305
 19.7613
 19.8035
 19.3274
 19.2978
 19.3069
 19.3951
 21.0244
 21.0579
 20.9775
 20.9879
 18.4511
 18.3918
 18.3894
 18.4925
 19.3595
 19.3803
 19.4289
 19.4162
 20.0865
 20.1504
 20.108
 20.0402
 19.4101
 19.4896
 19.4653
 19.4281
 20.715
 20.7541
 20.6833
 20.7166
 20.8692
 20.7444
 20.836
 20.8109
 19.7665
 19.7055
 19.6774
 19.7242
 20.6461
 20.6608
 20.6597
 20.6008
 19.6567
 19.6983
 19.6814
 19.7113
 18.3286
 18.3531
 18.4489
 18.4591
 20.6172
 20.5736
 20.5394
 20.5905
 21.5503
 21.4857
 21.512
 21.479
 19.0973
 19.249
 19.1639
 19.1196
 19.8608
 19.8049
 19.8761
 19.8072
 20.7034
 20.7161
 20.64
 20.6558
 19.7323
 19.7708
 19.687
 19.702
 18.1696
 18.1995
 18.1472
 18.1628
 20.4193
 20.4263
 20.4646
 20.4317
 19.1948
 19.2353
 19.2333
 19.2667
 19.9177
 19.8223
 19.8823
 19.7759
 18.8373
 18.7739
 18.7777
 18.7197
 18.3961
 18.397
 18.3526
 18.4344
 20.5664
 20.5056
 20.5459
 20.4387
 20.1594
 20.1017
 20.1166
 20.1353
 19.2237
 19.232
 19.335
 19.2669
 20.7413
 20.7111
 20.7232
 20.6991
 21.9676
 22.0321
 22.0266
 21.9907
 19.4225
 19.489
 19.4982
 19.4978
 22.113
 22.131
 22.0925
 22.0484
 21.9957
 21.9244
 21.92
 21.9521
 21.0074
 20.9625
 20.9665
 21.0282
 19.0326
 19.0902
 19.1413
 19.1674
 19.0872
 19.0104
 19.0111
 18.9529
 18.955
 19.0301
 18.9745
 19.0645
 19.1436
 19.2311
 19.2135
 19.111
 21.2956
 21.3501
 21.312
 21.3302
 20.5827
 20.6231
 20.5395
 20.5686
 20.5703
 20.671
 20.6602
 20.6297
 20.0002
 19.9151
 19.9954
 19.9059
 19.3227
 19.3719
 19.3213
 19.3558
 18.8475
 18.8515
 18.8904
 18.8169
 20.4752
 20.3929
 20.3814
 20.4624
 19.0087
 19.7576
 19.7038
 19.6991
 19.7486
 17.6127
 17.5936
 17.4825
 17.551
 19.8513
 19.8532
 19.7907
 19.8473
 18.2033
 18.099
 18.1753
 20.6474
 20.6001
 20.5771
 20.6621
 21.8232
 21.7614
 21.7799
 21.7419
 19.6295
 19.6426
 19.5535
 19.6871
 20.0555
 20.1511
 20.1315
 20.1429
 20.6571
 20.6014
 20.5602
 20.5447
 20.5214
 20.4929
 20.5615
 20.4866
 21.0786
 21.1898
 21.1232
 21.1281
 19.2506
 19.2611
 19.2021
 19.0935
 19.6755
 19.5973
 19.6927
 19.632
 20.255
 20.3139
 20.2549
 20.2771
 19.7597
 19.8233
 19.6692
 18.6475
 18.6987
 18.7159
 20.3989
 20.3945
 20.4857
 20.5009
 21.1273
 21.1601
 21.1583
 21.1309
 20.2587
 20.2113
 20.212
 20.2762
 21.0298
 21.0954
 21.0156
 21.1238
 18.667
 18.5323
 18.6312
 18.6074
 18.7121
 18.6812
 18.6543
 18.6054
 20.7468
 20.7773
 20.7636
 20.7741
 21.1491
 21.2401
 21.1835
 21.1574
 19.4031
 19.5083
 19.4229
 19.4668
 17.8639
 17.9394
 17.8145
 17.9181
 21.0921
 21.0927
 21.1326
 21.0863
 18.9946
 19.0806
 19.0824
 18.9779
 21.6018
 21.6407
 21.5908
 21.6215
 18.8406
 18.7837
 18.8644
 18.7184
 19.9535
 20.0136
 19.921
 20.038
 18.6751
 18.673
 18.5811
 18.5945
 20.6595
 20.6346
 20.6169
 20.5474
 20.0878
 20.1509
 20.1395
 20.1477
 20.3386
 20.3654
 20.291
 20.2905
 20.3096
 20.3438
 20.2566
 20.3699
 19.4347
 19.384
 19.3946
 19.4649
 19.8183
 19.8863
 19.8104
 19.8145
 18.543
 18.624
 18.6576
 18.6144
 17.7208
 17.641
 17.8178
 17.832
 19.8808
 19.8892
 19.9469
 19.8963
 18.3363
 18.3649
 18.4086
 18.2783
 18.883
 18.7649
 18.7273
 18.7776
 21.3049
 21.3458
 21.4107
 21.3222
 20.7153
 20.5906
 20.6127
 20.6531
 19.9721
 20.0272
 20.0486
 20.0139
 21.0614
 21.1142
 21.1285
 21.1613
 19.3545
 19.2673
 19.2799
 19.3192
 18.6629
 18.5155
 18.597
 18.5746
 21.0173
 20.9219
 21.0098
 21.0184
 19.728
 19.6641
 19.7113
 19.6978
 20.2794
 20.2916
 20.2891
 20.3271
 21.9321
 21.885
 21.8619
 21.9196
 20.1204
 20.1338
 20.1354
 20.0707
 19.6803
 19.6309
 19.6469
 19.6172
 18.9727
 18.9002
 18.9495
 18.876
 20.3736
 20.3564
 20.3445
 19.6632
 19.677
 19.6968
 19.6823
 20.1503
 20.1955
 20.0577
 20.1353
 19.0853
 19.1625
 19.0892
 19.1328
 19.0396
 18.9425
 18.9817
 18.978
 18.1721
 18.2344
 18.1918
 18.2962
 20.5236
 20.5345
 20.4768
 20.5456
 17.8709
 17.8489
 17.8149
 17.8512
 20.4009
 20.3348
 20.395
 20.4343
 19.6827
 19.5971
 19.6084
 19.5648
 19.592
 19.6792
 19.6446
 19.6952
 22.0492
 22.1074
 22.0499
 22.0703
 20.1742
 20.2198
 20.167
 20.1538
 19.6947
 19.7183
 19.641
 19.5546
 19.762
 19.7417
 19.7238
 19.8312
 17.5759
 17.5828
 17.6757
 17.6182
 20.4059
 20.3259
 20.2802
 20.3832
 20.3104
 20.3556
 20.2688
 20.375
 18.8922
 18.7949
 18.8666
 18.8319
 20.5961
 20.6115
 20.6537
 20.6623
 20.6297
 20.6444
 20.5993
 20.6535
 19.0807
 19.1822
 19.0907
 19.1548
 19.0784
 19.0691
 19.1433
 19.0687
 19.5194
 19.5083
 19.3898
 19.4402
 20.3311
 20.368
 19.2734
 19.336
 19.2391
 19.3188
 20.3271
 20.2843
 20.3321
 20.3069
 19.936
 19.8553
 19.8255
 19.8481
 18.1604
 18.2172
 18.253
 18.1564
 19.8471
 19.8236
 19.7851
 19.7692
 18.7567
 18.7007
 18.6691
 18.7799
 20.44
 20.3213
 20.3628
 20.3292
 20.0617
 20.1344
 20.1422
 20.113
 19.7266
 19.5831
 19.6551
 19.6527
 20.5755
 20.6397
 20.6644
 20.6139
 21.5016
 21.4618
 21.5036
 21.5351
 18.0091
 18.0289
 18.0764
 18.0398
 21.0348
 21.0347
 21.0048
 21.0603
 19.3024
 19.2719
 19.3529
 19.3491
 21.4976
 21.4847
 21.4646
 21.5355
 19.3215
 19.2395
 19.2898
 19.3005
 20.4043
 20.4134
 20.441
 20.4233
 20.4279
 20.4046
 20.4775
 20.4335
 19.46
 19.4315
 19.5199
 19.4697
 18.4819
 18.566
 18.4874
 18.5836
 20.0807
 19.9635
 19.9821
 19.9846
 20.7668
 20.7924
 20.7625
 20.7257
 18.4949
 18.3727
 18.4293
 18.3433
 20.3717
 20.4058
 20.3214
 20.3103
 20.0163
 19.9418
 19.9648
 19.9174
 18.845
 18.6819
 18.7226
 18.772
 19.5527
 19.479
 19.454
 19.4528
 19.7879
 19.812
 19.7758
 19.731
 18.149
 18.0984
 18.0433
 18.0095
 18.5065
 18.4663
 18.4795
 18.5189
 19.4068
 19.3874
 19.492
 19.454
 19.809
 19.766
 19.8431
 19.683
 20.1863
 20.1611
 20.1601
 20.0617
 20.7567
 20.7601
 20.8199
 18.7259
 18.6867
 18.6855
 18.6316
 21.5242
 21.5649
 21.6349
 21.6095
 18.9495
 19.049
 18.9957
 19.0207
 20.5126
 20.608
 20.5547
 20.5474
 20.6801
 20.759
 20.7337
 20.7445
 18.3044
 18.3898
 18.3493
 18.2353
 19.5942
 19.6384
 19.5684
 19.6207
 19.7311
 19.7579
 20.337
 19.8969
 19.8188
 19.9157
 19.8613
 21.515
 21.4559
 19.09
 19.0619
 19.0369
 20.8607
 20.83
 20.9162
 20.8635
 19.0122
 19.1006
 19.0735
 19.0673
 19.9992
 19.9268
 19.948
 19.9588
 20.3589
 20.2466
 20.3123
 20.297
 18.2553
 18.2546
 18.1463
 18.2233
 20.8576
 20.789
 20.8642
 20.7825
 19.206
 19.2108
 19.1778
 19.1318
 17.9898
 17.9766
 18.0839
 18.0856
 19.5952
 19.6819
 19.6183
 19.671
 19.1426
 19.2692
 19.231
 19.2305
 19.7475
 19.6868
 19.7461
 19.8619
 17.6045
 17.7837
 17.6293
 17.7795
 17.7767
 17.7633
 17.8139
 17.8992
 17.9533
 18.005
 18.0136
 17.9457
 19.9318
 19.9959
 19.9192
 19.9304
 19.3565
 19.4642
 19.4205
 19.3776
 19.8135
 19.8232
 19.8781
 19.8356
 19.9819
 19.9952
 19.9096
 20.0096
 19.0127
 18.992
 18.9813
 19.0778
 18.517
 18.4276
 18.4741
 18.4095
 18.466
 18.4318
 18.5157
 18.3849
 19.5481
 19.5084
 19.5669
 19.5138
 19.7935
 19.7872
 19.8183
 19.8546
 20.4224
 20.4609
 20.4388
 20.3561
 18.7816
 18.7111
 18.7033
 18.8084
 21.0095
 21.0005
 21.0725
 20.9966
 18.7399
 18.6961
 18.7379
 18.7451
 19.4755
 19.3447
 19.4602
 19.3728
 19.4997
 19.4892
 19.4819
 19.5654
 20.7876
 20.7909
 20.8205
 20.8807
 22.1997
 22.1507
 22.2253
 22.2155
 20.1486
 20.0743
 20.1477
 20.1323
 18.7004
 18.7913
 18.747
 18.6981
 20.6571
 20.7287
 20.6753
 20.6277
 19.3362
 19.2901
 19.3891
 19.2955
 19.2628
 19.2045
 19.1275
 19.1533
 18.8686
 18.8248
 18.9473
 18.914
 21.1648
 21.1958
 21.204
 21.1447
 21.1499
 21.1352
 21.1706
 21.187
 18.6503
 18.5301
 18.5638
 18.5958
 19.0083
 19.1242
 19.1486
 19.072
 20.2132
 20.2014
 20.2444
 20.2446
 19.7194
 19.7392
 19.6663
 19.6281
 19.5211
 19.5014
 19.5044
 19.5551
 20.2043
 20.2661
 20.1383
 20.2415
 19.1648
 19.2256
 19.193
 19.2564
 17.252
 17.3831
 17.2884
 17.2687
 19.2904
 19.1812
 19.1976
 19.1465
 19.708
 19.6738
 19.7266
 19.6349
 19.6719
 19.6746
 19.7405
 19.678
 19.496
 19.4371
 19.4847
 19.5531
 17.8881
 17.8894
 17.9685
 17.9008
 18.5643
 18.6451
 18.5997
 19.1856
 19.177
 19.1399
 19.195
 20.7616
 20.7728
 20.6997
 20.7749
 19.9428
 19.9447
 20.003
 19.9179
 18.4893
 18.6023
 18.6461
 18.5957
 20.4208
 20.3889
 20.3774
 20.345
 20.0858
 20.135
 20.1413
 20.0619
 19.9721
 20.012
 20.0945
 20.0162
 19.0122
 19.0748
 19.0956
 19.0786
 19.4526
 19.5137
 19.4467
 19.5783
 19.1801
 19.3162
 19.2652
 19.2402
 20.6217
 20.5799
 20.5755
 20.6065
 20.062
 20.0139
 19.9972
 20.071
 19.0887
 19.1461
 19.0721
 18.9984
 20.0871
 20.0564
 20.0132
 20.1196
 19.289
 19.2043
 19.2093
 19.2475
 20.6547
 20.6829
 20.6359
 20.6957
 18.1021
 18.0779
 18.172
 18.1037
 20.4478
 20.4921
 20.4201
 20.394
 20.5064
 20.6443
 20.5589
 20.5582
 18.8384
 18.8332
 18.7734
 18.7562
 20.4653
 20.4509
 20.4354
 20.44
 19.2785
 19.3225
 19.2825
 19.364
 20.8164
 20.8149
 20.8983
 20.8838
 19.49
 19.5313
 19.517
 19.4371
 18.2063
 18.0628
 18.178
 18.1023
 19.436
 19.5467
 19.5448
 19.4953
 18.9238
 18.8902
 18.9155
 18.9297
 19.2779
 19.3059
 19.2778
 19.2434
 19.2852
 19.2638
 19.2342
 19.1776
 17.9587
 17.9325
 17.9007
 18.0419
 20.575
 20.62
 20.6617
 20.6656
 20.479
 20.5123
 20.5799
 20.5175
 18.3729
 18.3585
 18.4184
 18.293
 18.2592
 18.2101
 18.2636
 20.26
 20.2945
 20.297
 20.2403
 19.2998
 19.2087
 19.2821
 19.2959
 19.3294
 19.3047
 19.3859
 19.2937
 20.5056
 20.4425
 20.5447
 20.4912
 18.8745
 18.818
 18.8366
 18.8145
 19.7712
 19.8507
 19.8448
 19.7552
 19.4641
 19.5518
 19.5367
 19.5684
 18.804
 18.7426
 18.7235
 18.7421
 20.8224
 20.8532
 20.8164
 20.7787
 20.2386
 20.3254
 20.3122
 20.3006
 17.897
 18.039
 17.9304
 17.9661
 20.5737
 20.5862
 20.5612
 20.457
 20.8242
 20.8604
 20.8434
 20.8364
 19.7558
 19.7205
 19.7602
 19.6563
 21.5166
 21.4953
 21.5369
 21.4521
 19.5883
 19.5724
 19.6117
 19.5811
 18.7422
 18.7891
 18.8118
 18.8252
 18.4785
 18.5321
 18.5098
 20.8729
 20.8632
 20.8473
 20.8716
 20.4146
 20.3315
 20.4289
 20.3489
 20.4974
 20.5231
 20.5462
 20.5794
 20.3079
 20.3659
 20.328
 20.352
 17.8287
 17.762
 17.7276
 17.7525
 20.7591
 20.752
 20.7774
 20.8216
 20.3443
 20.4043
 20.3553
 20.2784
 18.5609
 18.5204
 18.5689
 18.6064
 20.0805
 20.1126
 20.0612
 20.2696
 20.3556
 20.2979
 19.3849
 19.4712
 19.5274
 21.3766
 21.3043
 21.292
 21.3507
 19.577
 19.5382
 19.577
 19.5076
 19.5861
 19.5504
 19.6602
 19.6306
 18.3374
 18.2879
 18.38
 18.398
 18.1368
 18.1755
 18.014
 18.1608
 20.5613
 20.6158
 20.6239
 20.5109
 19.4015
 19.3089
 19.3153
 19.3215
 19.3653
 19.3052
 19.2695
 19.2971
 19.7403
 19.6465
 19.6881
 19.6203
 20.1204
 20.0812
 20.0783
 20.1698
 19.4179
 19.4883
 19.4537
 19.4026
 20.5999
 20.5828
 20.6172
 20.5622
 18.3106
 18.3431
 18.3039
 18.2784
 20.3338
 20.3443
 20.3047
 20.2744
 18.4679
 18.552
 18.5084
 18.4671
 18.0624
 18.1208
 18.1647
 18.0762
 18.2218
 18.2544
 18.2491
 18.2724
 20.4332
 20.4853
 18.9924
 19.0033
 19.0651
 19.0273
 20.5276
 20.4343
 20.483
 20.5115
 18.7563
 18.614
 18.6659
 18.635
 18.44
 18.5287
 18.413
 18.5167
 20.1645
 20.1215
 20.1067
 20.1469
 19.4714
 19.4752
 19.4048
 19.4446
 20.3137
 20.3062
 20.2552
 20.3053
 19.8952
 19.8911
 19.8817
 19.8141
 21.8504
 21.7511
 21.8661
 21.7774
 18.2214
 18.269
 18.1523
 18.2448
 20.2681
 20.3457
 20.2553
 20.2349
 20.8608
 20.9174
 20.9139
 20.8386
 19.8132
 19.8428
 19.7725
 19.7384
 20.7901
 20.8879
 20.9022
 20.7958
 19.8904
 19.9773
 19.9897
 19.9309
 18.952
 18.9818
 18.8838
 19.0078
 19.6816
 19.7334
 19.7346
 19.7017
 18.335
 18.195
 18.3357
 19.8047
 19.7277
 19.8464
 19.7521
 21.8912
 21.9196
 21.9189
 21.9489
 17.7292
 17.6926
 17.6615
 17.7367
 19.548
 19.5535
 19.5077
 19.5645
 18.7827
 18.8414
 18.905
 18.8218
 20.6036
 20.5381
 20.6961
 20.6265
 20.1158
 20.0603
 20.1828
 20.1182
 20.131
 20.0238
 20.0752
 20.0261
 18.1943
 18.2552
 18.1805
 18.1276
 20.0422
 20.1029
 20.1434
 20.1229
 17.7575
 17.7882
 17.7323
 17.8379
 19.0005
 19.0882
 19.091
 18.9921
 20.5719
 20.5547
 20.5263
 20.5654
 21.5476
 21.5336
 21.4783
 21.5706
 19.8763
 19.9819
 19.9199
 19.9994
 19.6489
 19.6527
 19.5842
 19.6683
 18.8604
 18.871
 18.9115
 18.9871
 21.7943
 21.8475
 21.7627
 21.8114
 19.8657
 19.9248
 19.8249
 19.8509
 17.945
 17.9977
 18.0195
 17.996
 18.648
 18.5687
 18.5989
 18.6266
 18.5773
 18.5999
 18.5165
 18.6217
 18.5838
 18.6554
 18.6738
 18.6399
 18.5752
 18.4677
 18.5364
 18.5419
 19.3139
 19.2813
 19.3188
 19.3198
 20.4937
 20.3649
 20.2886
 20.2715
 20.3258
 19.1071
 19.2123
 19.1759
 19.1699
 19.1283
 19.1032
 19.2055
 19.1974
 21.1354
 21.097
 21.1006
 21.1345
 18.4091
 18.4127
 18.4554
 18.4164
 18.777
 18.7095
 18.632
 18.6875
 20.5918
 20.4819
 20.5039
 20.3781
 20.3803
 20.396
 20.3563
 20.308
 20.3232
 20.2779
 20.4378
 20.52
 20.622
 20.5642
 19.1169
 19.0301
 19.0517
 19.1414
 17.9438
 17.9191
 17.9671
 17.9196
 19.6735
 19.707
 19.652
 19.7471
 18.104
 18.2464
 18.2791
 18.2941
 19.8521
 19.8731
 19.9016
 19.8206
 19.0772
 19.1531
 19.1992
 19.1867
 20.4876
 20.4995
 20.5171
 20.5697
 19.445
 19.3479
 19.4748
 19.3956
 19.2947
 19.2072
 19.1597
 19.291
 20.4507
 20.4846
 20.5503
 20.5177
 20.0746
 20.1222
 19.98
 20.0245
 19.8107
 19.8212
 19.8792
 19.9235
 19.3675
 19.3363
 19.3687
 19.3265
 20.9444
 20.9436
 20.9176
 20.8632
 19.1579
 19.2433
 19.2009
 19.1404
 20.0701
 20.1627
 20.055
 20.0193
 19
 19.0137
 19.0004
 19.0544
 18.2948
 18.3746
 18.3114
 18.3456
 18.1292
 18.1911
 18.18
 18.1561
 18.1117
 18.0564
 18.2044
 17.7425
 17.6808
 17.6419
 17.5963
 18.5565
 18.6502
 18.7337
 18.6184
 19.6681
 19.6847
 19.6296
 19.6419
 18.0284
 18.0796
 18.1309
 18.0409
 19.5916
 19.5899
 19.6347
 19.6442
 19.3128
 19.2704
 19.2921
 18.3244
 18.2363
 18.2866
 18.2927
 18.3138
 18.4101
 18.3699
 19.4082
 19.4228
 19.3635
 19.3457
 20.1137
 20.0781
 20.1249
 20.0272
 19.051
 19.1165
 19.1388
 19.1503
 18.1663
 18.1053
 18.1527
 18.1885
 20.3234
 20.3504
 20.3226
 20.3891
 19.7271
 19.7544
 19.8052
 19.8283
 19.5979
 19.4829
 19.5922
 19.5957
 18.9246
 19.0055
 18.9538
 18.9516
 20.3817
 20.4341
 20.3339
 20.4189
 20.6358
 20.6966
 20.6294
 20.6305
 19.6819
 19.6831
 19.694
 19.6234
 17.7725
 17.8252
 17.8344
 17.8227
 20.2739
 20.357
 20.2632
 20.3154
 20.5544
 20.4995
 20.5831
 20.4987
 19.1945
 19.2955
 19.1901
 19.2106
 20.2943
 20.2525
 20.2974
 20.6282
 20.5642
 20.5929
 19.3524
 19.4184
 19.2933
 19.3881
 20.5199
 20.5548
 20.6022
 20.524
 20.5769
 20.6579
 20.5876
 20.5953
 19.1462
 19.1259
 19.1647
 20.4179
 20.4276
 18.3973
 18.3735
 18.2642
 18.2479
 19.0477
 18.9345
 18.9393
 18.9707
 20.9803
 20.9307
 21.0231
 20.9089
 21.3895
 21.3521
 21.439
 21.3644
 20.2414
 20.3737
 20.2971
 20.2851
 18.2973
 18.2993
 18.2475
 18.2842
 19.0221
 19.0799
 19.1155
 19.0844
 20.8568
 20.8733
 20.8795
 20.8901
 20.3016
 20.2994
 20.2563
 20.2219
 20.2865
 20.2616
 20.2781
 20.4789
 20.4281
 20.4209
 20.4241
 20.4293
 20.4848
 20.4221
 20.3955
 20.6041
 20.6908
 20.6262
 20.6753
 18.0971
 18.0026
 18.0776
 18.0634
 18.054
 17.9753
 18.1088
 19.7176
 19.7705
 19.7061
 19.7894
 20.3177
 20.4115
 20.3041
 20.3275
 17.7413
 17.6651
 20.623
 20.6774
 20.6615
 20.7064
 19.4617
 19.3355
 19.4158
 19.3522
 19.2384
 19.2703
 20.5302
 20.5428
 20.4743
 20.5247
 18.0419
 17.9725
 18.0757
 17.916
 17.8237
 17.8939
 17.8354
 17.6989
 19.8421
 19.8097
 19.8337
 21.1086
 21.0485
 21.0736
 20.3837
 20.2911
 20.3912
 20.3708
 18.7598
 18.8401
 18.7052
 18.8234
 20.1192
 20.1659
 20.1937
 20.2325
 20.2393
 20.2794
 20.2132
 20.2897
 19.0877
 19.0806
 19.0563
 18.9588
 21.741
 21.6813
 21.7447
 21.7971
 18.8887
 18.8775
 18.7987
 18.8084
 18.8498
 18.8587
 18.7898
 18.7663
 20.6425
 20.6346
 20.7379
 20.6635
 18.3455
 18.2834
 18.2734
 18.3633
 21.8644
 21.9339
 21.9423
 21.9902
 18.1013
 18.2567
 18.2569
 18.2504
 18.4926
 18.5794
 20.2331
 20.1802
 20.1899
 20.14
 20.7191
 20.7938
 20.7489
 20.6937
 18.4046
 18.3224
 18.3299
 18.3699
 20.1589
 20.1448
 20.1498
 20.1945
 17.7363
 17.7909
 17.7573
 20.3531
 20.4192
 20.4372
 20.8144
 20.7289
 20.7078
 18.1683
 18.1126
 18.1436
 18.1798
 20.3431
 20.3906
 20.3947
 20.382
 18.3642
 18.3551
 20.8504
 20.7932
 20.8491
 20.8297
 19.6347
 19.5503
 19.5589
 19.6112
 20.268
 20.2951
 19.9759
 19.8364
 19.8459
 19.924
 20.1908
 20.1995
 20.1929
 20.2715
 17.8166
 17.7413
 17.8729
 17.8401
 20.7742
 20.8111
 20.7949
 18.6131
 21.8228
 21.8526
 21.8439
 21.8685
 18.3678
 18.3365
 18.297
 18.4376
 20.2338
 20.2255
 20.1011
 20.1367
 18.8395
 18.8867
 18.8721
 18.8499
 20.206
 20.2615
 20.2935
 20.2266
 19.1235
 21.1262
 21.1488
 21.1495
 21.117
 19.0885
 19.0959
 19.1122
 19.175
 18.5362
 18.5024
 18.4498
 18.6054
 18.5854
 18.6815
 18.5805
 18.3407
 18.2329
 18.3166
 18.293
 20.6031
 20.5807
 20.4959
 20.5415
 18.2875
 18.2858
 18.3012
 18.22
 20.8416
 20.8559
 20.8421
 20.9157
 18.3683
 18.317
 18.2908
 18.2881
 19.7584
 19.8004
 19.81
 19.827
 18.8866
 18.84
 18.8115
 18.7926
 19.4024
 19.4418
 19.4652
 19.4863
 18.0363
 18.1556
 19.5822
 19.6526
 19.6344
 19.5835
 21.0435
 21.0743
 20.9869
 21.0711
 20.8216
 20.8508
 20.7548
 20.8374
 19.4145
 19.352
 19.3359
 19.3326
 18.8412
 18.8471
 18.8529
 18.7535
 18.6652
 18.745
 18.6935
 18.6464
 18.2479
 18.3405
 18.3173
 18.3793
 18.678
 18.572
 18.6318
 18.6759
 20.7937
 20.809
 20.7598
 20.8535
 20.5326
 20.541
 20.5549
 20.455
 17.6667
 17.7443
 17.7769
 17.7656
 19.323
 19.275
 19.304
 19.186
 20.4264
 20.3332
 20.4136
 20.373
 21.5633
 21.5708
 21.4976
 21.6126
 18.3344
 18.2951
 18.3691
 18.2165
 20.4097
 20.3846
 20.367
 20.3218
 19.9172
 19.856
 19.9588
 19.9025
 20.9222
 20.9385
 20.9274
 20.8703
 19.1906
 19.2384
 19.2031
 19.2003
 18.1655
 18.1577
 18.1956
 18.1672
 19.3018
 19.4223
 19.3769
 19.3958
 19.853
 19.8196
 19.7601
 19.8009
 20.9966
 20.9574
 20.9226
 21.0222
 18.1309
 18.9786
 18.9217
 19.0169
 18.9178
 19.8851
 19.9231
 19.9877
 19.9462
 18.7651
 18.72
 18.7365
 18.6586
 20.396
 20.475
 20.4274
 20.3857
 19.2481
 19.1885
 19.2778
 21.0302
 20.922
 21.0018
 20.9969
 18.5239
 18.6728
 18.5845
 18.628
 20.7402
 20.7551
 20.6987
 20.7415
 17.3794
 17.4227
 17.3909
 17.3272
 20.4371
 20.428
 20.4126
 20.4298
 21.4264
 21.2782
 21.2971
 21.3537
 21.0541
 21.0627
 21.0083
 20.9978
 17.7009
 17.7654
 17.7917
 17.8304
 18.0378
 18.0457
 18.0018
 17.9893
 19.7188
 19.653
 19.6804
 19.6384
 20.3347
 20.3665
 20.32
 19.4998
 19.5104
 19.6088
 19.5745
 19.0212
 19.0677
 18.9636
 18.9765
 19.4265
 19.2809
 19.3302
 19.3496
 19.5884
 19.5734
 19.441
 19.5031
 17.6496
 17.717
 17.7181
 17.754
 20.5818
 20.6137
 20.5027
 20.5807
 21.0194
 21.1266
 21.1184
 18.8203
 18.8669
 18.8647
 18.9158
 18.4651
 18.3869
 18.4311
 18.4468
 20.4045
 20.4098
 20.3898
 20.5502
 20.5358
 20.4916
 20.602
 18.2375
 18.2896
 18.1974
 18.3283
 19.7421
 19.7629
 19.6835
 19.7373
 20.4972
 20.5762
 20.513
 20.5208
 19.9158
 19.9576
 19.9517
 19.8974
 18.5483
 18.5387
 18.6166
 18.542
 20.392
 20.296
 20.4354
 20.3295
 19.8321
 19.9533
 19.932
 19.8711
 20.2069
 20.1141
 20.1788
 18.075
 18.0927
 18.1423
 18.1612
 19.6507
 19.6536
 19.6996
 19.61
 17.632
 17.6787
 17.5055
 19.5624
 19.5108
 19.5413
 19.5619
 20.9418
 20.8887
 20.9765
 20.9449
 19.3411
 19.3241
 19.2838
 19.2143
 19.6076
 19.5025
 19.6344
 20.3781
 20.3649
 20.2919
 20.3142
 20.7803
 20.7573
 20.8067
 20.7354
 20.4158
 20.3694
 20.3249
 20.4185
 21.4682
 21.4446
 21.3854
 21.3752
 20.0042
 20.0192
 20.0516
 20.0635
 20.2325
 20.2644
 20.1655
 20.2814
 18.1171
 18.2484
 18.2217
 18.077
 20.7315
 20.6401
 20.6674
 20.6911
 19.1395
 19.1665
 19.1194
 19.0791
 17.7681
 17.7456
 17.7976
 17.8457
 17.7516
 17.8817
 17.8222
 17.7974
 18.6249
 18.5761
 18.6146
 18.6101
 17.756
 17.638
 17.6501
 17.812
 18.1706
 18.1684
 18.1798
 17.6022
 17.7475
 17.7106
 17.7115
 20.9627
 20.9988
 20.9636
 21.0255
 19.898
 19.9971
 20.0086
 19.982
 20.1561
 20.0725
 20.1374
 20.0708
 20.1127
 20.1597
 20.156
 20.1772
 18.0742
 18.1306
 18.0538
 18.0364
 19.9904
 19.9869
 20.0596
 20.0707
 20.3885
 20.4707
 20.4823
 20.4117
 18.8991
 18.9212
 18.8411
 18.9525
 20.2885
 20.2262
 20.2923
 20.2235
 18.8001
 18.8645
 18.903
 19.5026
 19.4218
 19.3995
 18.2295
 18.3263
 18.3335
 18.2942
 19.9093
 19.8784
 19.9367
 19.9359
 19.1182
 19.1901
 19.1639
 19.0969
 20.1351
 20.2272
 20.188
 20.1096
 17.6194
 17.679
 17.9352
 17.9678
 18.0005
 17.8839
 21.0055
 21.0348
 21.0321
 21.0804
 19.1203
 19.0602
 19.0406
 18.9823
 20.3705
 20.3008
 20.3778
 20.4093
 22.0854
 22.1817
 22.0894
 22.1197
 20.3969
 20.4323
 20.4779
 20.4239
 18.8793
 18.96
 18.882
 20.7699
 20.7808
 20.6843
 20.6905
 17.8158
 17.9121
 17.8026
 17.8899
 20.3937
 20.3589
 20.383
 20.345
 19.21
 19.1291
 19.1528
 19.202
 20.8742
 20.8608
 20.9291
 20.8763
 21.6828
 21.6617
 21.6546
 21.6198
 20.5001
 20.4394
 20.4995
 20.5218
 19.9956
 20.0269
 19.9685
 19.3977
 19.5299
 19.4059
 19.4602
 20.6201
 20.609
 20.6734
 18.7368
 18.7744
 18.7149
 18.6632
 18.6273
 18.5143
 18.6364
 18.5401
 18.902
 18.999
 18.9264
 18.9082
 17.9324
 18.1271
 18.0663
 18.0316
 18.6422
 18.6784
 18.6083
 20.1909
 20.1364
 20.1528
 20.1122
 18.7439
 18.8205
 19.0473
 19.118
 19.1448
 19.0921
 18.9152
 18.9446
 18.9228
 18.8789
 20.4532
 20.4226
 20.4387
 20.4998
 20.4505
 20.3913
 20.443
 20.3816
 22.1062
 22.0616
 22.0433
 22.0751
 20.444
 20.3793
 20.4439
 20.1347
 20.163
 20.1831
 20.1554
 19.5706
 19.5705
 19.6132
 19.6292
 20.151
 20.0804
 20.0729
 20.1249
 20.9561
 20.9158
 20.9694
 20.9665
 18.5015
 18.626
 18.538
 18.5857
 19.7514
 19.6943
 19.7447
 19.8006
 18.224
 18.2281
 18.253
 18.1882
 19.4232
 19.4864
 19.4254
 19.4738
 17.9959
 17.9417
 17.9846
 21.6134
 21.5527
 21.5692
 21.5686
 18.9284
 18.8016
 18.8985
 18.8851
 19.7996
 19.864
 19.7849
 19.8205
 20.5583
 20.6068
 20.1303
 20.111
 20.0721
 20.0888
 19.8839
 19.9719
 19.9577
 18.1936
 18.1635
 18.2477
 18.189
 18.0905
 18.1406
 18.2076
 18.1818
 20.6015
 20.6196
 20.5756
 20.6115
 19.789
 19.8073
 20.3017
 20.2301
 20.2777
 20.3399
 18.681
 18.7561
 18.6196
 18.6111
 20.9204
 20.8964
 20.929
 20.8741
 20.5041
 20.4867
 20.5465
 20.5545
 20.3349
 20.2546
 20.2187
 20.2593
 19.497
 19.5048
 19.5171
 19.3969
 18.8447
 18.8505
 18.9014
 18.9138
 18.6715
 18.7081
 18.7752
 18.706
 21.8829
 21.8937
 21.9227
 21.9449
 20.7576
 20.6882
 20.656
 19.3544
 19.494
 19.4112
 19.2931
 19.2342
 19.309
 19.2049
 18.1501
 18.0808
 18.1328
 18.0529
 19.6908
 20.3714
 20.3699
 20.4411
 20.4327
 19.0496
 19.0926
 19.1601
 19.13
 18.5598
 18.6562
 18.6529
 18.548
 18.5398
 18.5341
 20.6115
 20.6471
 20.6772
 20.6859
 19.5429
 19.4763
 19.4978
 19.4705
 20.8325
 20.8593
 20.8379
 20.8044
 19.2465
 20.0308
 20.0731
 19.9559
 19.929
 20.1723
 20.1228
 20.0912
 20.1408
 18.1529
 18.2431
 17.9863
 17.9205
 17.8696
 17.9448
 21.2381
 21.3004
 21.2617
 21.2391
 18.6587
 18.6505
 18.7542
 18.6229
 19.3087
 19.3964
 19.3473
 19.2612
 21.7776
 21.7561
 21.7589
 21.8061
 19.5988
 19.598
 19.5588
 19.6357
 19.668
 19.7528
 19.8021
 19.802
 20.5836
 20.6512
 20.5475
 20.5819
 17.731
 17.6351
 17.6273
 17.6057
 19.7358
 19.8173
 19.8114
 20.2079
 20.1355
 20.1301
 20.2005
 17.9367
 17.8216
 17.9093
 17.8941
 20.2444
 20.2913
 20.3481
 20.2372
 19.8228
 19.7694
 18.4886
 18.4979
 18.4278
 18.5661
 19.3872
 19.3717
 19.2797
 19.2779
 17.9455
 17.994
 17.8822
 17.9456
 19.7871
 19.6672
 20.4903
 20.4662
 20.4481
 20.4497
 20.2677
 20.2532
 20.2021
 20.1792
 18.405
 18.3853
 18.4892
 18.4514
 18.6679
 18.7147
 18.6316
 18.6417
 18.7018
 18.7923
 18.7117
 18.7139
 20.268
 20.1765
 20.2131
 20.2586
 21.3027
 21.3513
 21.3323
 21.309
 17.7491
 17.6499
 17.7374
 17.6915
 20.6151
 20.6124
 20.6031
 20.5661
 19.4471
 19.3768
 19.3731
 19.4243
 20.0977
 19.9861
 20.0639
 20.023
 19.4487
 19.5427
 19.4527
 19.1319
 19.0384
 19.1263
 19.0095
 19.6674
 19.6138
 19.6494
 19.7152
 18.8658
 18.8303
 18.7738
 18.8848
 18.8545
 18.8877
 18.8517
 18.982
 21.7538
 21.6626
 21.7494
 20.8417
 20.7739
 20.7298
 20.7585
 19.4132
 19.4665
 19.4442
 19.4509
 18.5194
 18.4228
 18.4743
 18.4223
 20.3427
 20.4377
 20.3447
 20.3218
 20.2735
 20.2666
 19.2716
 19.3199
 19.2677
 19.2624
 19.4849
 19.4065
 19.3887
 19.3761
 17.2236
 17.2518
 17.3064
 17.1913
 21.0299
 20.9982
 21.0484
 21.1285
 18.781
 18.7721
 19.9958
 19.925
 19.9138
 19.9915
 18.9395
 18.8972
 18.9043
 18.8828
 19.3025
 19.2899
 19.238
 19.2606
 19.9298
 19.923
 19.8542
 19.9758
 19.0776
 19.0024
 19.0191
 19.0108
 20.597
 20.5647
 20.5757
 20.5194
 20.8007
 20.8712
 20.7907
 20.8291
 18.4802
 18.4434
 18.3905
 18.268
 19.4649
 19.4291
 19.367
 21.37
 21.4058
 21.3464
 18.358
 18.3152
 18.2998
 18.2661
 18.2824
 18.3137
 18.3484
 18.3523
 19.6376
 19.6222
 19.6107
 19.5591
 18.1437
 18.0871
 18.1105
 18.1004
 17.8814
 17.7647
 17.8684
 17.7576
 19.8849
 19.8502
 19.7903
 19.8694
 18.5372
 18.4955
 18.4654
 18.4733
 17.2871
 17.2503
 17.3515
 17.2331
 18.7275
 18.7133
 18.7655
 18.6415
 19.3917
 19.5061
 19.4558
 19.5318
 18.426
 18.3716
 18.4385
 18.4603
 18.9438
 18.9611
 18.9083
 19.1787
 19.1096
 21.1247
 21.1199
 21.1401
 21.1661
 19.1971
 19.121
 19.1369
 19.156
 21.2732
 21.2578
 21.2451
 21.2433
 21.1817
 21.192
 21.1242
 21.0939
 19.3151
 19.2804
 19.2717
 19.3422
 20.0189
 20.0193
 20.0826
 19.9852
 19.0504
 18.9672
 18.9878
 18.9989
 19.5849
 19.639
 20.8914
 20.9302
 20.9123
 20.8521
 17.8331
 17.8013
 17.7568
 17.8335
 19.9772
 20.0391
 19.9208
 19.9684
 18.3155
 18.3448
 18.4119
 18.3596
 20.8741
 20.9325
 20.8745
 20.8991
 18.2245
 18.0868
 18.1307
 18.1075
 19.172
 19.2768
 19.1954
 19.2084
 20.3178
 20.3887
 20.4412
 20.4008
 17.466
 17.5154
 17.5031
 17.5755
 20.2022
 20.1146
 20.1813
 20.2035
 19.8462
 19.9611
 19.8864
 19.9226
 17.8302
 17.8139
 17.8966
 17.8112
 19.6346
 19.7469
 19.719
 19.7228
 18.4561
 18.3884
 18.4255
 18.4644
 18.4484
 18.5071
 18.481
 19.8349
 19.9718
 19.9065
 19.9391
 18.515
 18.4324
 18.4846
 18.4599
 20.6662
 20.5863
 20.5932
 20.6725
 18.3151
 18.2585
 18.2654
 18.3075
 18.3511
 18.3812
 18.3285
 18.3679
 20.5017
 20.5174
 20.3813
 20.4525
 20.4586
 20.4891
 20.4165
 20.5208
 22.3457
 22.3267
 22.3862
 22.372
 18.6297
 18.726
 18.7119
 21.1316
 21.035
 21.0397
 21.0761
 18.0071
 18.0753
 18.0594
 18.0394
 20.5225
 18.3689
 18.4524
 18.4182
 18.3537
 18.3691
 18.4281
 18.4419
 21.8551
 21.9347
 21.9153
 21.8796
 21.942
 21.9534
 21.9602
 21.9817
 17.9821
 18.0537
 17.9852
 17.9325
 20.4452
 20.4788
 20.4079
 20.4914
 18.9657
 19.0097
 18.9139
 20.1167
 20.1798
 20.1216
 20.2237
 19.8335
 19.8281
 19.8636
 18.3396
 18.3786
 18.2508
 19.3223
 19.2688
 19.2519
 19.3051
 20.1005
 20.1765
 20.1842
 20.1273
 20.5347
 20.5114
 20.5487
 20.5181
 18.9936
 18.9444
 18.9351
 20.8983
 20.864
 20.961
 20.9645
 20.4709
 20.3275
 20.414
 19.8948
 19.7755
 19.7927
 19.8552
 20.5103
 20.4389
 20.4469
 20.4729
 20.5023
 20.4069
 20.3903
 20.4132
 18.2832
 18.3362
 18.3341
 18.3464
 19.7739
 19.8418
 19.7833
 19.7502
 20.1936
 20.2188
 19.3849
 19.442
 19.4019
 19.4798
 18.0121
 18.1206
 18.0816
 18.1095
 18.1241
 22.4218
 22.4444
 22.4564
 22.4236
 18.5801
 18.4928
 18.5378
 17.7476
 17.7833
 17.8142
 17.7689
 18.7626
 18.8764
 18.8608
 18.8711
 20.5502
 20.5211
 20.4821
 20.5557
 19.8271
 19.8792
 19.9105
 19.8811
 17.6761
 17.6886
 17.7201
 17.7315
 18.6194
 18.6795
 18.7333
 18.672
 20.9346
 20.9873
 20.9925
 20.904
 19.9327
 19.9075
 19.8925
 20.008
 20.0536
 20.0176
 19.9724
 20.0322
 22.4422
 22.4549
 22.4534
 22.4372
 20.6741
 20.6876
 20.7122
 20.6404
 18.645
 18.5473
 18.6561
 18.6001
 19.2423
 19.249
 19.1771
 19.2734
 19.7099
 19.6537
 19.5932
 19.6983
 18.8868
 18.8071
 18.8335
 18.8361
 19.1694
 19.1779
 19.1039
 19.1834
 18.8007
 18.7967
 18.8601
 18.7086
 17.4346
 17.5854
 17.5359
 17.391
 18.5366
 18.5728
 18.594
 18.7057
 18.8362
 18.8814
 18.9466
 18.8656
 18.9868
 19.4323
 19.4317
 19.484
 19.3608
 18.0412
 18.0786
 18.0937
 18.089
 19.7878
 19.8291
 19.7551
 19.7831
 19.3111
 19.2775
 19.2364
 19.3562
 19.5493
 19.6304
 19.578
 19.5142
 20.0599
 20.1664
 20.0873
 20.1575
 21.528
 21.496
 21.4219
 21.5436
 17.3123
 17.4515
 19.0902
 19.1337
 19.1431
 22.164
 22.1657
 22.1738
 20.3419
 20.3933
 20.3599
 20.4214
 21.1495
 21.1466
 21.2417
 21.2417
 20.6634
 20.6991
 20.6461
 20.7362
 17.9019
 18.0166
 17.9711
 17.9526
 19.4674
 19.5644
 19.521
 19.5787
 18.9174
 18.8308
 18.8304
 18.7556
 19.1824
 19.2197
 19.262
 19.3295
 18.8481
 18.8061
 18.8793
 18.8521
 19.6986
 19.6938
 18.4042
 18.5774
 18.424
 18.5694
 18.7352
 18.787
 18.8265
 18.6693
 20.3618
 20.4504
 20.3499
 20.4385
 20.419
 20.3999
 20.4018
 20.3904
 19.3814
 19.3665
 19.4003
 19.3491
 19.3775
 19.325
 19.2759
 19.2188
 20.6905
 20.7853
 20.812
 20.6665
 18.7905
 18.8557
 18.8848
 18.892
 17.501
 17.5502
 17.5021
 17.5458
 18.3502
 18.3964
 18.3959
 18.4347
 17.4245
 17.3763
 17.4702
 17.3503
 18.2688
 18.1761
 18.1991
 18.1951
 19.4906
 19.3875
 19.4726
 19.4477
 18.9385
 18.9882
 19.6591
 19.5645
 19.6845
 19.634
 20.4156
 20.3449
 20.3567
 20.3295
 18.6328
 18.5105
 18.5086
 18.5867
 19.6865
 19.7039
 19.6835
 19.7705
 19.8662
 19.9258
 19.9467
 19.9118
 20.52
 20.5192
 20.484
 20.42
 20.2486
 20.2424
 20.29
 20.1766
 20.4646
 20.4114
 20.4084
 20.4398
 21.4936
 21.4854
 21.5356
 21.5144
 18.6958
 18.6658
 18.7501
 18.6808
 19.0022
 18.9827
 21.3084
 21.3026
 21.3075
 21.3736
 20.14
 20.1106
 19.0667
 19.1322
 19.0554
 18.4495
 18.4222
 20.6716
 20.6828
 20.7207
 20.6287
 21.3944
 21.3587
 21.3592
 21.3404
 20.7656
 20.7246
 20.6835
 20.6699
 20.1562
 20.0889
 20.0733
 20.0651
 19.204
 19.2983
 19.3029
 19.2959
 18.8835
 18.9178
 18.9302
 18.9428
 20.1834
 20.1186
 20.1072
 20.1251
 19.3568
 19.359
 19.3238
 19.44
 19.4783
 19.532
 19.5505
 19.5095
 19.4382
 19.3819
 19.346
 19.3786
 19.338
 19.4602
 19.3397
 19.6617
 19.7219
 19.6027
 19.653
 19.9953
 19.9611
 20.0603
 19.9989
 20.46
 20.3994
 20.5005
 20.4009
 17.999
 18.026
 17.9734
 17.9204
 19.7872
 19.7865
 19.7011
 19.7124
 20.7976
 20.795
 20.9122
 20.8226
 20.9439
 20.9251
 20.9555
 20.9735
 20.7793
 20.8353
 20.8308
 20.7966
 20.4644
 20.4704
 20.3888
 20.3727
 20.5054
 20.5501
 20.5701
 20.5365
 18.241
 18.1907
 18.1822
 18.1568
 19.8275
 19.8291
 19.8444
 19.7687
 18.7775
 18.6927
 18.7613
 18.804
 20.4519
 20.3643
 20.4683
 20.4051
 17.9177
 17.8866
 17.8931
 17.8373
 17.802
 17.8228
 17.7189
 18.7642
 18.92
 18.8706
 18.8627
 20.3428
 20.3037
 20.3831
 20.3197
 17.5687
 17.6966
 17.6707
 19.9422
 20.0038
 19.9517
 20.0517
 18.2856
 18.2704
 18.4534
 18.4264
 18.3567
 18.4551
 20.0605
 20.1061
 20.0755
 20.7916
 20.7643
 20.8447
 20.8197
 20.4403
 20.4708
 20.396
 20.3977
 19.5399
 19.4525
 19.5672
 17.8073
 17.9611
 17.9468
 18.7931
 18.8951
 18.919
 18.8642
 17.8055
 17.8409
 17.9418
 17.7359
 19.9011
 19.8187
 19.7802
 19.8277
 18.1428
 18.1286
 18.088
 18.2063
 19.4586
 19.4397
 19.4939
 19.5361
 20.2638
 20.3421
 20.3035
 17.6515
 17.7313
 17.6873
 17.5661
 19.0425
 19.3014
 19.2059
 19.2454
 19.2865
 19.1169
 19.1053
 19.1679
 20.2985
 20.3473
 20.3336
 20.3363
 20.3392
 20.2435
 19.8768
 19.9538
 19.9519
 19.9612
 19.8308
 19.7386
 19.8072
 19.752
 18.8461
 17.5523
 17.6904
 17.7063
 17.6161
 21.6837
 21.7579
 21.7269
 21.7348
 20.1827
 20.2227
 20.3408
 20.3656
 20.3252
 20.3065
 20.3505
 20.3442
 20.4438
 20.4075
 18.7335
 18.8376
 18.8303
 18.7757
 18.6727
 18.6419
 18.7407
 18.6561
 20.1554
 20.2226
 18.9218
 18.9021
 18.8002
 18.8662
 18.9037
 18.813
 18.8952
 19.2964
 19.3583
 19.4016
 19.4264
 19.7477
 19.8175
 19.7498
 19.8247
 18.7361
 18.6172
 18.6337
 18.7276
 18.4657
 18.4555
 18.3897
 18.4832
 18.5552
 18.4696
 18.5311
 18.7056
 18.6849
 18.6885
 18.757
 19.8859
 19.8657
 19.8521
 19.9158
 21.1328
 21.1594
 21.1102
 21.1013
 20.0643
 20.0721
 20.1111
 20.0916
 18.4476
 18.533
 18.5905
 18.5153
 18.9501
 18.9969
 18.9986
 18.9327
 20.0457
 20.0056
 19.9728
 19.9697
 18.9856
 19.0675
 19.0098
 18.989
 19.3837
 19.3558
 19.4631
 19.346
 19.4032
 19.3254
 19.3563
 19.323
 19.0185
 18.9547
 18.967
 18.1595
 18.1298
 18.1844
 18.1668
 20.0914
 20.0147
 20.0491
 20.0448
 19.678
 19.6026
 19.6096
 19.6251
 21.0305
 21.0696
 21.0575
 20.9971
 20.5197
 20.4694
 20.4725
 20.5141
 20.4398
 20.5501
 20.4934
 20.5624
 20.5559
 20.5152
 20.5262
 20.494
 19.4022
 19.4433
 19.4293
 20.8545
 20.8711
 20.8311
 20.816
 20.6399
 20.6123
 20.5646
 20.6339
 17.6124
 17.7134
 17.7164
 17.6435
 19.3549
 19.3968
 19.4451
 19.4771
 18.4913
 18.4884
 18.5403
 18.5617
 19.2251
 19.1871
 19.2402
 19.29
 19.0363
 18.9759
 19.0426
 19.0258
 20.293
 20.3549
 20.3256
 20.4123
 19.5731
 19.4244
 19.5426
 19.5211
 18.4046
 18.3418
 18.399
 18.3702
 19.1842
 19.2161
 19.1032
 19.1195
 20.5772
 20.621
 20.5454
 20.5102
 18.1212
 18.09
 18.115
 18.0739
 19.9634
 20.03
 20.6658
 19.5747
 19.5397
 19.4812
 19.5912
 19.7762
 19.7005
 19.7849
 19.8033
 21.3629
 21.3739
 21.3061
 20.0842
 20.1575
 20.1738
 20.2185
 19.1902
 19.0647
 19.1198
 19.0448
 19.4587
 19.4033
 19.435
 19.4642
 18.1438
 18.1011
 18.0918
 18.1197
 20.4833
 20.3632
 20.4476
 20.3307
 20.3354
 20.3535
 20.2616
 21.2001
 21.2992
 21.241
 21.2121
 20.5216
 20.4331
 20.4971
 19.2108
 19.0597
 19.1868
 20.5742
 20.5855
 20.6471
 20.6152
 19.7463
 19.6737
 19.6592
 19.6598
 22.4306
 22.435
 22.4278
 22.3759
 19.8667
 19.8908
 19.8928
 20.826
 20.8428
 20.8272
 20.8269
 19.8826
 19.9181
 19.9818
 19.9243
 20.641
 20.5794
 20.585
 20.5477
 18.8218
 18.786
 18.8357
 18.7666
 18.6269
 18.6986
 18.6434
 18.6018
 17.8117
 17.8097
 17.7612
 17.8794
 19.3205
 19.4227
 19.3453
 19.3187
 20.6528
 20.7364
 20.6601
 20.7073
 20.2373
 20.2662
 21.106
 21.1027
 21.0789
 21.0806
 19.723
 19.6912
 20.074
 19.9568
 19.9831
 20.4099
 20.3639
 20.3311
 20.3683
 17.9139
 17.8679
 17.9989
 17.9828
 18.0774
 18.0969
 18.1317
 18.092
 20.3144
 20.2908
 20.341
 20.3967
 20.8703
 20.8464
 19.2265
 19.1935
 19.2148
 19.1409
 20.4128
 20.4387
 20.3805
 20.382
 19.9648
 20.0629
 19.9051
 17.3157
 17.2801
 17.379
 19.5101
 19.4067
 19.442
 19.4423
 18.2379
 18.1401
 18.259
 18.3045
 19.3655
 19.2975
 19.2791
 19.3766
 18.7578
 18.6962
 18.6854
 18.8012
 20.6828
 20.6137
 20.6719
 20.7059
 20.3703
 20.2726
 20.4
 20.3026
 19.3556
 19.4348
 19.28
 19.3824
 20.0424
 19.9612
 19.9397
 20.0482
 20.6627
 20.6379
 20.6096
 20.5489
 19.7346
 19.7002
 19.6538
 19.6129
 18.9381
 18.9273
 18.9822
 19.4284
 19.3457
 19.4015
 19.3577
 22.0672
 22.0058
 21.9603
 22.0034
 20.8659
 20.8695
 20.8508
 20.8612
 20.0987
 20.098
 20.1086
 20.0311
 21.4021
 21.3371
 21.4246
 21.3782
 18.1823
 18.1829
 18.2557
 17.7012
 17.7757
 17.8591
 17.7871
 18.5979
 18.454
 18.5091
 18.5064
 19.4621
 18.9763
 18.8686
 18.8427
 18.9157
 19.5756
 19.5148
 19.6136
 19.6202
 20.6861
 20.7486
 20.7159
 20.3232
 20.3045
 20.2804
 20.3852
 22.0641
 22.1305
 22.0716
 22.1532
 21.2774
 21.2781
 21.2555
 21.2538
 20.1322
 20.1325
 20.0869
 20.0434
 17.6134
 17.7497
 17.7016
 17.7195
 21.8867
 21.8683
 21.8103
 21.8206
 18.838
 18.7555
 18.8884
 18.7966
 19.4793
 19.4699
 19.3987
 19.466
 20.2901
 20.4222
 20.4109
 19.6405
 19.7274
 19.7367
 19.7307
 17.7848
 17.7427
 17.7217
 20.6383
 20.5261
 20.5115
 19.8948
 19.8743
 19.7866
 19.8043
 20.1412
 20.1622
 20.185
 20.2
 20.0806
 20.0957
 20.0097
 19.9943
 20.7863
 20.8326
 20.8224
 20.7486
 19.6795
 19.6248
 19.7036
 19.6259
 17.8443
 17.9746
 17.9729
 18.0377
 18.1993
 18.2168
 18.2172
 18.1502
 20.9373
 20.9183
 20.9194
 20.93
 18.2838
 18.2435
 18.2488
 18.3518
 17.9854
 17.8642
 17.8958
 18.0067
 18.2602
 18.2716
 18.3689
 18.3596
 19.0864
 19.0947
 19.0298
 19.0629
 19.5449
 19.6021
 19.5219
 20.1244
 20.2368
 20.2074
 20.1788
 18.6201
 18.6749
 18.7184
 18.6035
 18.6483
 18.6005
 18.5624
 18.5867
 17.2936
 17.2965
 17.4498
 17.3589
 21.3491
 21.3009
 21.3138
 21.3013
 21.0788
 21.116
 21.0983
 21.0462
 20.7599
 20.7835
 20.6941
 20.7869
 20.0416
 20.1498
 20.0768
 20.0852
 20.0085
 19.9999
 20.0019
 17.9446
 17.8876
 17.8007
 17.853
 18.566
 18.6077
 18.6541
 18.6443
 19.7002
 19.758
 19.7834
 19.7395
 18.1458
 18.0943
 19.272
 19.2737
 19.2784
 19.349
 18.2359
 18.1969
 18.0811
 18.1674
 19.3884
 19.2861
 19.4085
 19.2779
 20.1455
 20.1028
 20.213
 20.1826
 21.0177
 21.0624
 21.0247
 20.9647
 22.1289
 22.058
 22.1513
 22.0996
 18.3123
 18.3415
 18.3537
 18.2968
 17.956
 17.9424
 17.9369
 17.8766
 19.8681
 19.9589
 19.9065
 19.9559
 19.5274
 19.5695
 19.5826
 19.5275
 20.4375
 20.5114
 20.3867
 19.0806
 19.1451
 19.1341
 19.1674
 20.4739
 20.4882
 20.4347
 20.4402
 19.6469
 19.7175
 19.7803
 19.7311
 19.0375
 19.079
 19.0617
 19.0233
 19.4309
 19.4559
 19.4926
 18.2135
 18.2954
 18.2708
 18.2731
 19.0898
 18.9934
 21.4266
 21.3136
 21.4271
 21.3825
 18.7242
 18.7872
 18.7532
 20.3045
 20.2766
 20.2831
 20.2957
 19.1934
 19.2118
 19.2348
 19.5438
 19.6237
 19.5407
 19.5871
 19.1343
 19.2211
 19.0825
 19.1659
 19.0583
 18.9693
 21.8205
 21.8209
 21.8733
 21.8147
 21.9789
 22.0591
 22.085
 22.015
 19.4975
 19.5867
 19.5503
 19.5914
 19.2269
 19.2761
 19.2261
 19.281
 21.7624
 21.7761
 21.7498
 21.7045
 20.3318
 20.4156
 20.7965
 20.7843
 20.7485
 20.6852
 19.0303
 19.067
 18.9556
 19.016
 19.265
 19.2318
 19.1618
 19.2953
 19.093
 19.1869
 19.2095
 19.1836
 20.1639
 20.1623
 20.0877
 20.1642
 20.6092
 20.609
 20.6875
 20.5974
 21.1134
 21.0385
 21.0429
 21.105
 20.602
 20.6112
 20.6086
 20.492
 18.6622
 18.736
 18.6568
 18.7132
 19.4945
 19.6773
 19.5883
 21.3899
 21.3464
 21.3001
 18.9274
 18.798
 18.8703
 18.8764
 18.824
 18.9823
 18.8969
 18.8738
 19.8156
 19.8674
 19.895
 19.7584
 19.7343
 19.661
 19.7232
 20.6433
 20.6914
 20.7103
 20.7108
 18.4811
 18.5105
 18.4426
 18.4841
 20.8278
 20.8475
 20.8409
 20.8074
 20.8389
 20.885
 20.8454
 17.6451
 17.5292
 17.469
 17.5631
 18.3062
 18.2492
 20.2806
 20.3112
 20.2406
 20.2689
 19.5731
 19.4878
 19.5773
 19.7137
 19.758
 19.7358
 19.8056
 20.6561
 20.5986
 20.6242
 18.5552
 18.502
 18.6133
 18.5775
 20.6517
 20.5528
 20.6207
 20.6346
 18.8146
 18.8942
 18.9183
 18.8704
 20.7947
 20.7528
 20.5701
 20.6543
 20.5906
 20.6282
 20.3399
 20.3779
 20.3599
 20.3314
 21.2762
 21.2948
 21.3623
 21.323
 18.6784
 18.5815
 20.1168
 20.0696
 20.0626
 20.0688
 17.7694
 17.8101
 17.7804
 17.751
 20.1314
 20.1664
 20.065
 20.0131
 18.5164
 18.4296
 18.4022
 18.3944
 18.0551
 17.9591
 18.1184
 17.9774
 18.8238
 18.9109
 18.094
 18.0169
 18.0453
 18.0659
 20.6374
 20.6514
 20.6482
 20.5808
 18.1354
 18.0966
 18.0834
 18.1418
 17.6692
 17.5477
 17.5552
 17.6438
 19.181
 19.1747
 19.1026
 19.124
 19.648
 19.678
 19.5884
 19.5521
 18.1198
 18.2329
 18.1658
 18.1138
 21.3522
 21.2677
 21.3093
 21.3735
 18.1647
 18.0413
 20.0998
 20.0486
 20.0409
 19.9712
 18.2753
 18.3015
 18.396
 18.3847
 20.632
 20.5603
 20.573
 20.5756
 19.9151
 20.0281
 19.9904
 19.9292
 20.4561
 20.4811
 20.3896
 20.6373
 20.6817
 20.6394
 20.7134
 20.8041
 20.7353
 20.755
 20.7211
 19.2014
 19.2512
 19.276
 18.3657
 18.3538
 18.2763
 18.2971
 19.4267
 19.4691
 19.4889
 20.6367
 20.6928
 20.6569
 19.5319
 19.4112
 19.5135
 19.4467
 19.1321
 19.1528
 19.1199
 19.0276
 19.755
 19.6647
 19.6527
 19.688
 19.8939
 19.936
 19.9536
 19.9943
 20.0347
 20.0392
 19.8926
 19.8593
 19.8068
 19.9346
 18.2955
 18.3589
 18.3097
 18.3732
 18.8274
 18.8848
 18.8392
 18.8016
 19.7547
 19.7112
 19.7482
 19.6349
 20.6117
 20.6636
 20.6297
 19.4164
 19.4658
 19.4128
 19.4059
 20.2068
 20.3048
 20.2727
 20.3151
 21.6185
 21.6042
 21.6381
 21.6603
 20.0106
 20.0509
 20.0325
 20.0384
 18.2274
 18.2388
 18.16
 18.1889
 20.0191
 19.9217
 19.9733
 20.0201
 20.7553
 20.7602
 20.7263
 20.6968
 20.6449
 20.6849
 20.6768
 19.682
 19.6669
 19.6806
 19.09
 20.0715
 20.1853
 20.1138
 20.1177
 18.0923
 18.1117
 18.0555
 18.2591
 18.2401
 18.196
 20.0408
 19.9615
 20.0179
 19.9711
 17.5815
 17.5484
 17.5213
 17.5103
 20.6121
 19.3116
 19.3815
 19.3263
 19.3491
 20.5572
 20.5269
 20.5375
 20.5175
 18.0963
 18.0589
 18.1894
 18.1016
 18.936
 18.811
 18.8651
 18.9074
 18.6149
 18.5673
 18.6626
 18.6466
 20.8052
 20.7776
 20.7412
 20.8026
 20.2198
 20.1542
 20.2255
 20.2259
 19.4423
 19.488
 19.4097
 19.4884
 20.0938
 20.1764
 20.0577
 20.1426
 18.9962
 18.9691
 18.8918
 18.9105
 20.5582
 20.5975
 20.5219
 20.5191
 20.2499
 20.2021
 20.1416
 20.1862
 19.2294
 19.2212
 19.2375
 19.1333
 17.9878
 17.8763
 17.9417
 17.8833
 20.7427
 20.7393
 20.6619
 20.704
 21.2132
 21.2947
 21.2074
 21.2136
 18.0595
 17.9951
 18.0232
 17.9811
 21.2062
 21.2697
 21.0844
 21.1143
 21.1186
 21.0501
 19.5605
 19.5112
 19.5831
 19.6402
 20.2158
 20.1709
 20.1718
 20.2492
 17.3543
 17.3071
 17.3185
 17.3912
 18.1337
 18.1414
 18.0288
 18.9347
 18.9415
 18.8752
 18.9722
 20.687
 20.6639
 20.7396
 20.6415
 20.2715
 20.2846
 20.3123
 20.347
 20.3009
 20.245
 18.9475
 18.8209
 18.86
 18.9079
 19.0576
 19.0529
 19.1265
 19.0387
 18.8197
 18.8237
 18.9111
 18.8212
 17.7058
 17.6857
 17.8519
 17.6553
 18.6442
 18.6361
 18.7213
 19.9547
 19.403
 19.4163
 19.3889
 19.454
 19.3684
 19.4545
 19.4323
 19.4234
 18.4347
 18.489
 18.491
 18.5376
 18.6757
 18.7228
 18.7236
 18.6406
 19.2405
 19.3137
 19.3072
 20.0997
 20.1342
 20.0674
 20.1936
 19.4322
 19.2996
 19.3838
 19.3572
 20.0348
 19.9898
 20.0738
 21.8348
 21.834
 21.8751
 21.8005
 18.3731
 18.2464
 18.2925
 18.2928
 18.406
 18.265
 18.3427
 21.807
 19.3552
 19.3332
 19.3647
 19.2634
 19.2683
 19.2459
 21.1133
 21.0944
 21.1017
 21.0757
 20.7413
 20.7187
 20.6561
 20.7535
 20.3675
 20.3245
 20.3202
 20.4096
 20.4895
 20.4546
 20.4037
 20.4866
 20.4964
 20.4306
 19.911
 19.9607
 19.9821
 19.9997
 19.8657
 19.7917
 17.2116
 17.21
 20.6181
 20.4967
 20.6148
 20.5422
 19.7232
 19.7454
 19.7034
 19.7866
 20.7714
 20.7558
 20.8761
 20.8305
 18.2887
 18.2366
 18.3862
 18.3274
 18.3939
 18.4639
 18.3959
 18.4705
 19.0063
 18.9533
 18.939
 18.9758
 19.4749
 19.4517
 19.3382
 19.3939
 19.5027
 19.553
 20.6267
 18.7686
 18.6794
 18.7039
 18.6816
 17.7376
 17.7492
 17.6178
 17.7775
 18.3441
 18.2543
 18.3613
 18.3247
 22.4246
 22.4227
 22.4117
 22.3883
 17.8494
 17.8342
 17.8803
 17.8741
 20.398
 20.3946
 20.4675
 20.3563
 20.1058
 20.1901
 20.1563
 20.2174
 18.9238
 18.9128
 18.8641
 18.8549
 18.924
 18.9382
 18.9838
 18.9647
 20.6494
 20.5262
 20.5888
 20.5603
 17.9769
 17.9305
 17.9854
 17.9729
 18.2789
 18.2199
 18.2487
 18.1932
 18.7386
 18.7215
 18.6634
 18.6631
 18.1018
 18.1633
 18.141
 18.1004
 20.2238
 20.1484
 20.1499
 20.117
 20.6641
 20.6409
 20.6267
 20.594
 18.3352
 18.4103
 18.4312
 18.411
 19.8067
 19.8023
 19.8403
 19.9065
 19.6557
 19.693
 19.7076
 19.6604
 22.02
 21.9928
 21.9456
 21.9888
 17.8707
 17.8508
 18.0863
 18.0665
 18.1474
 18.0237
 20.9238
 21.0001
 21.0253
 20.9098
 20.2168
 20.314
 20.3117
 20.3509
 18.2414
 18.3021
 18.2135
 18.1825
 19.9639
 19.937
 19.9817
 19.9008
 19.9961
 19.972
 20.0609
 20.0536
 17.7489
 17.7302
 17.7818
 17.8197
 19.4535
 19.4706
 19.4461
 19.4142
 19.6301
 19.6027
 19.6258
 19.6777
 18.6339
 18.5856
 18.559
 18.5928
 18.9934
 19.0124
 19.0418
 19.0876
 19.8897
 19.8754
 19.9765
 20.2104
 20.1497
 20.1913
 20.0875
 21.0542
 21.0692
 21.0937
 20.9798
 20.0751
 20.0254
 20.0115
 19.9965
 19.5354
 19.5845
 19.5391
 19.6048
 17.6425
 17.6171
 17.6337
 17.7444
 20.0882
 19.9535
 20.0252
 20.0246
 20.8675
 20.8645
 20.9203
 20.9536
 18.7744
 18.706
 18.7421
 18.805
 19.1267
 19.1331
 19.1748
 19.474
 19.3568
 19.3551
 19.3227
 21.0863
 21.0825
 21.0779
 21.0266
 19.3473
 19.4222
 19.3882
 19.4574
 18.0547
 18.0458
 18.0415
 18.0291
 19.4367
 19.4152
 19.4143
 19.3601
 20.8221
 20.8714
 20.8414
 20.8121
 20.5517
 20.5043
 20.5647
 20.6224
 17.1419
 17.1719
 17.1256
 17.1206
 20.2481
 20.233
 20.2439
 20.3383
 19.1655
 19.2941
 19.253
 19.2278
 17.2848
 17.2725
 17.3464
 17.3435
 18.1093
 17.9986
 18.0513
 18.7779
 18.7864
 18.6932
 18.667
 18.2298
 18.2377
 18.1202
 18.2613
 21.6961
 21.6516
 21.6022
 21.6207
 20.4521
 20.3745
 20.4763
 17.8245
 17.7189
 17.7374
 17.7342
 19.2128
 19.2311
 19.1459
 19.2533
 18.5449
 18.5614
 18.464
 18.6127
 20.7084
 20.7165
 20.7751
 20.8129
 19.9861
 19.9052
 20.0037
 19.9375
 18.9709
 19.0942
 19.0599
 21.0601
 21.0321
 20.9901
 20.9958
 20.5844
 20.6673
 20.6226
 20.6505
 20.0304
 17.7998
 17.7556
 17.778
 17.7132
 21.5511
 21.5485
 21.604
 21.6109
 18.6348
 18.5071
 18.5726
 18.4902
 19.1011
 19.1579
 19.1196
 19.2078
 21.9005
 18.3855
 18.4554
 18.3482
 17.8561
 17.7477
 17.8158
 17.8009
 19.7371
 19.7055
 19.5923
 19.6834
 19.0428
 19.0482
 18.9831
 19.0914
 20.4171
 20.4927
 19.5806
 19.6186
 19.6128
 19.5284
 20.4316
 20.4762
 20.5111
 20.4456
 20.1404
 20.1757
 20.0657
 20.0692
 18.8443
 18.8951
 18.8394
 18.8127
 21.2979
 21.2978
 21.2967
 21.2165
 20.6765
 20.7236
 20.6901
 20.7478
 21.1978
 21.1326
 20.896
 20.8993
 20.8876
 20.8898
 20.9641
 21.0143
 20.9299
 21.0013
 17.783
 17.826
 17.8977
 17.9013
 19.2269
 19.2218
 19.256
 19.1359
 19.9751
 19.8735
 19.9381
 19.9302
 19.3952
 19.4241
 19.4422
 19.3687
 17.7304
 17.7363
 21.0958
 21.1369
 21.1278
 21.0922
 17.7388
 17.7131
 17.7798
 21.4554
 21.4866
 21.4567
 21.4955
 17.9191
 18.004
 17.9408
 18.0079
 20.0659
 20.1242
 20.0416
 20.1223
 19.778
 19.7569
 19.797
 17.7433
 17.7916
 17.7795
 17.728
 19.3002
 19.3733
 19.2836
 19.3548
 19.7114
 19.676
 19.6006
 19.676
 20.0304
 20.0755
 19.8642
 19.9989
 19.8948
 19.9519
 19.1309
 19.2143
 19.1758
 17.6664
 17.8037
 17.8179
 17.7196
 19.8199
 19.7666
 19.826
 19.8107
 19.94
 19.9809
 20.2112
 20.2975
 20.3146
 20.2537
 21.4192
 21.4076
 21.347
 19.3565
 19.3384
 19.439
 19.4437
 17.8521
 17.8465
 17.8351
 21.1782
 21.2375
 21.1762
 19.7468
 19.8092
 19.7677
 19.8399
 18.9312
 18.9358
 19.0309
 18.9978
 21.6183
 21.6422
 21.6223
 21.6142
 18.3089
 18.2869
 18.3426
 18.3527
 18.8797
 18.9492
 18.9371
 18.9578
 18.3209
 18.2947
 18.3514
 17.8319
 17.8169
 17.6802
 17.7557
 19.4935
 19.5827
 19.5017
 19.4978
 18.0747
 18.0947
 18.1333
 18.141
 20.1003
 20.1277
 20.0769
 20.1607
 17.7105
 19.0989
 19.6215
 19.6602
 19.5881
 19.6845
 19.1156
 19.1309
 19.2062
 19.2161
 18.6972
 18.6737
 18.7223
 18.799
 19.1253
 19.165
 19.0703
 19.1083
 18.5394
 18.5936
 18.5181
 18.5322
 19.6151
 19.6627
 19.6254
 19.5619
 19.7094
 19.6789
 19.6656
 19.6329
 19.9637
 19.9775
 20.0075
 19.9126
 19.6336
 19.637
 19.7067
 20.7654
 20.7486
 20.7674
 20.7105
 19.5688
 18.9528
 18.8349
 18.8292
 18.9036
 17.883
 17.8774
 17.9786
 20.1473
 20.258
 20.2081
 20.2439
 19.4491
 19.3517
 19.3738
 19.0716
 19.0712
 19.1427
 19.1402
 18.9171
 18.8939
 18.8108
 18.7956
 18.1826
 18.1379
 18.0844
 18.151
 20.4636
 20.4793
 20.4298
 20.5454
 19.3535
 19.414
 19.4355
 19.455
 19.6601
 19.7142
 19.7593
 19.6814
 19.7546
 19.8117
 19.8159
 19.8696
 19.5996
 19.6331
 19.5877
 19.6689
 18.6665
 18.799
 18.6468
 18.7387
 19.7289
 19.8542
 19.8064
 19.7946
 21.1162
 21.1146
 21.1165
 21.0846
 21.1357
 21.0851
 21.0904
 19.5915
 19.5809
 19.5117
 19.5056
 19.56
 19.5104
 19.4904
 19.472
 19.6572
 19.7255
 19.6143
 19.6116
 17.9386
 17.9338
 18.0396
 18.0297
 18.6652
 18.751
 18.7492
 18.657
 20.2786
 20.2332
 20.241
 20.2222
 20.678
 20.5994
 20.6069
 20.7079
 18.2769
 18.2943
 18.3439
 18.2719
 21.5285
 21.5605
 21.5452
 21.4822
 20.003
 19.9271
 19.9703
 19.9803
 20.8538
 20.8035
 20.8105
 20.5094
 20.4547
 20.4513
 20.4029
 18.8182
 18.8513
 18.7861
 18.9051
 20.4414
 20.5531
 20.5075
 20.4831
 21.0876
 20.9502
 21.043
 21.6147
 21.5479
 21.5084
 21.5274
 17.642
 17.6129
 17.5564
 17.489
 20.3995
 20.4486
 20.4066
 20.381
 19.193
 19.3031
 19.2854
 19.2105
 18.0286
 18.0913
 18.1561
 18.1013
 18.4926
 18.3765
 18.5324
 18.4588
 20.3224
 20.3152
 20.3635
 20.331
 20.8924
 20.965
 21.0233
 20.9477
 19.3972
 19.3456
 19.4229
 19.3777
 20.8644
 20.7688
 19.884
 19.998
 19.9794
 19.914
 19.7661
 19.7726
 19.8177
 19.7414
 19.8542
 19.8467
 19.8856
 20.7223
 20.6946
 20.7214
 19.1461
 19.1438
 19.1203
 19.0945
 19.2931
 19.3021
 19.3646
 19.2289
 20.3197
 20.2311
 20.2692
 20.3138
 18.6438
 18.5485
 18.6752
 18.6292
 19.6127
 19.709
 19.6573
 19.5813
 20.8428
 20.8437
 20.8613
 20.8459
 20.0585
 20.0136
 20.0603
 19.2708
 19.2698
 19.3444
 19.2717
 19.5323
 19.4908
 19.4344
 17.6365
 17.6868
 17.6991
 17.726
 21.2275
 21.2572
 21.222
 21.3159
 20.1385
 20.056
 20.0702
 20.1177
 20.1635
 20.183
 20.2477
 20.1637
 17.5484
 17.5847
 17.4765
 17.401
 18.6322
 18.5828
 18.5925
 20.4302
 20.456
 20.4786
 20.4494
 18.4577
 18.5573
 18.5139
 20.3937
 20.3917
 20.4461
 20.4298
 22.1068
 22.0591
 22.107
 22.0661
 18.0548
 18.0225
 17.9694
 18.0743
 20.7098
 20.7309
 20.7644
 20.8321
 17.8032
 17.8435
 17.8573
 17.8321
 20.53
 20.4355
 20.5035
 20.471
 22.0957
 22.1719
 22.1023
 22.1079
 21.0125
 21.0962
 21.033
 20.9858
 20.6914
 20.6297
 20.5864
 20.7035
 19.5877
 19.7037
 20.6784
 20.6699
 20.7823
 20.7643
 19.2
 19.2392
 19.2669
 19.3102
 19.6963
 19.6948
 19.7486
 19.6415
 18.0964
 18.204
 18.0207
 18.0033
 18.2668
 18.3244
 18.2689
 18.2208
 18.4611
 18.5017
 18.4666
 18.5435
 18.2273
 18.2125
 18.1897
 18.2496
 18.8926
 18.9226
 18.8428
 18.9059
 18.4218
 18.3308
 18.36
 18.4053
 21.1552
 21.2457
 21.2592
 21.1442
 18.1044
 18.0581
 18.0782
 18.0925
 19.9238
 19.9862
 20.0141
 19.9794
 18.6129
 18.7464
 18.7045
 18.258
 18.177
 18.1852
 18.2253
 20.6695
 20.7499
 20.7585
 20.7281
 21.0586
 21.0867
 21.1278
 21.1049
 18.7281
 18.7448
 18.7977
 18.6672
 19.7792
 19.7925
 19.8161
 19.8556
 18.9234
 18.9855
 18.9275
 18.9309
 18.9286
 18.9267
 18.7801
 19.9979
 20.0204
 20.0882
 18.9649
 18.9402
 19.3897
 19.4988
 17.6619
 17.6149
 17.6122
 17.655
 19.4579
 19.4194
 19.4622
 19.374
 18.9529
 18.9985
 18.8901
 18.9933
 19.2927
 19.2457
 19.2748
 19.206
 18.4476
 18.4527
 18.4084
 18.4608
 18.4666
 19.8287
 19.8243
 19.9018
 19.9055
 20.8514
 20.8516
 20.8496
 20.8413
 18.9281
 19.0146
 18.9299
 18.9799
 18.9317
 18.9963
 19.0086
 18.9255
 21.9466
 21.9073
 21.8796
 21.8267
 19.594
 19.5304
 19.5623
 19.6073
 19.6077
 19.6762
 19.703
 19.6344
 19.0225
 19.0826
 20.7105
 20.6889
 20.655
 20.6999
 20.1571
 20.1116
 20.142
 20.1879
 20.5888
 20.6229
 20.6546
 20.6461
 20.2323
 20.1781
 20.1895
 20.2456
 20.5602
 20.5658
 20.6001
 20.5473
 18.6287
 18.6596
 18.6254
 18.5736
 18.1014
 18.1021
 18.1892
 18.1348
 20.3629
 20.3942
 20.4374
 20.3518
 19.605
 19.6863
 19.6182
 19.6374
 18.4569
 18.5637
 18.4936
 18.5439
 19.9248
 19.9554
 19.962
 19.8743
 20.3653
 20.3139
 20.9809
 20.9478
 20.9275
 20.9871
 19.7811
 19.807
 19.8348
 19.8755
 18.3706
 18.4125
 18.4155
 18.3116
 17.921
 17.9798
 17.9647
 17.9032
 21.7479
 21.739
 19.8774
 19.8162
 19.7834
 19.7742
 19.984
 20.095
 20.0231
 20.0223
 20.0931
 20.1237
 20.5124
 20.4681
 20.4834
 20.4402
 19.7169
 19.6401
 19.6147
 21.1346
 21.0904
 21.0866
 21.0499
 18.1947
 18.1291
 18.248
 18.1871
 17.9999
 17.9992
 17.9932
 17.5892
 17.6649
 17.7345
 17.6763
 19.3445
 19.2202
 19.275
 19.2521
 19.5981
 19.504
 19.6404
 19.5561
 18.595
 18.4755
 18.4297
 18.5044
 18.9973
 19.0013
 18.9266
 18.9972
 19.1578
 19.0799
 19.1161
 19.4883
 19.4731
 19.5173
 19.4246
 18.8198
 18.6752
 18.7249
 18.805
 19.8707
 19.8979
 19.8539
 19.8445
 19.5354
 19.5565
 19.4765
 19.5895
 19.0283
 19.0462
 19.0829
 19.0002
 19.5978
 19.6595
 19.6835
 19.5928
 22.0661
 22.0872
 22.0243
 22.0238
 20.474
 20.5051
 20.5009
 20.5561
 18.8234
 18.8165
 18.735
 18.7257
 20.4628
 20.4435
 20.5318
 20.5604
 20.67
 20.7677
 20.6663
 20.6073
 18.277
 18.2846
 18.2264
 18.3409
 18.3463
 18.4317
 18.3538
 18.3698
 18.0778
 18.1568
 18.0682
 18.0599
 18.5934
 18.5992
 18.5246
 18.5506
 19.9468
 19.9454
 20.006
 19.9446
 20.4866
 20.5125
 20.4512
 20.521
 18.939
 19.0596
 18.9373
 19.0292
 20.4494
 20.4273
 20.4155
 20.4215
 20.9833
 20.9624
 20.9439
 20.9033
 19.6909
 19.6304
 19.6766
 19.6159
 20.0831
 20.1313
 20.1877
 20.0197
 20.0007
 19.9091
 19.9898
 20.884
 20.9248
 20.9926
 20.9297
 20.3763
 20.3871
 20.4224
 20.3979
 18.9037
 18.8516
 18.8942
 18.8492
 19.5198
 19.4498
 19.4417
 17.6063
 17.6954
 17.6961
 17.6338
 17.924
 17.8508
 17.7949
 17.8756
 20.1135
 20.0597
 20.1436
 20.058
 19.3016
 19.2439
 20.7377
 20.7407
 20.817
 20.7139
 19.4937
 19.5554
 19.6064
 19.5478
 18.0364
 18.0148
 18.0981
 18.0296
 20.4455
 20.4316
 20.3968
 19.9041
 19.8998
 19.8721
 19.9687
 20.0567
 19.9453
 19.9676
 19.9961
 19.6432
 19.562
 19.5547
 19.6645
 19.6809
 19.6376
 19.5854
 19.6485
 19.4351
 19.3831
 19.4381
 19.3704
 19.7648
 19.7096
 18.5278
 18.5563
 18.4202
 18.534
 19.6961
 19.7737
 19.7458
 19.6989
 19.1361
 19.256
 19.2175
 19.7331
 19.6604
 19.7045
 19.6641
 19.2098
 19.2477
 19.2878
 19.2267
 20.483
 20.5572
 20.5008
 20.5927
 19.857
 19.8698
 19.7868
 19.3348
 19.3315
 19.2227
 19.3813
 19.7342
 19.7428
 19.6882
 20.5912
 20.5652
 20.6369
 19.1042
 19.1108
 19.1088
 19.1948
 19.5777
 19.5209
 19.5151
 21.783
 21.7679
 21.7348
 21.8492
 19.0087
 19.0639
 19.101
 19.0072
 20.0194
 20.1138
 20.1033
 20.12
 18.5117
 18.5189
 18.49
 18.4224
 18.3696
 18.4257
 18.3299
 18.3428
 20.6422
 20.5442
 20.6585
 20.6425
 19.406
 19.4708
 19.5036
 20.1856
 20.269
 20.2156
 20.2144
 18.1975
 18.3247
 18.2588
 19.5686
 19.5077
 19.5528
 19.4738
 18.9417
 18.9126
 18.9126
 18.9196
 18.1428
 18.0932
 18.0889
 18.1547
 22.3021
 22.363
 22.346
 22.3017
 20.3052
 20.2937
 20.2474
 20.3095
 19.3715
 19.2405
 19.2885
 19.2603
 20.9708
 21.0345
 21.04
 19.5613
 19.4918
 19.5172
 19.5744
 17.9415
 19.0251
 19.0721
 19.1803
 19.0996
 18.4316
 18.4339
 18.4079
 18.3778
 18.6368
 18.6907
 18.7041
 18.6555
 19.3776
 19.409
 19.4843
 19.5765
 19.5814
 19.5693
 21.6083
 21.5483
 21.6013
 21.562
 20.1833
 20.2169
 20.2464
 20.2907
 20.2771
 20.2237
 20.2751
 17.9896
 17.814
 17.9976
 17.9973
 19.6482
 19.6569
 19.5614
 19.572
 19.3133
 19.346
 19.4069
 19.3542
 18.2977
 18.3423
 18.2596
 18.3504
 19.5394
 19.5579
 19.479
 19.5652
 21.1904
 21.1543
 21.2223
 21.1995
 19.7308
 19.7604
 19.7194
 19.7485
 20.3231
 20.3214
 20.3102
 20.2605
 20.4794
 20.5351
 20.5157
 20.4898
 20.9055
 20.879
 20.9096
 20.9061
 21.3104
 21.3433
 21.3526
 21.2656
 17.5368
 17.6326
 17.5909
 17.6118
 21.5015
 21.4742
 21.5334
 21.424
 19.6593
 19.7049
 19.6503
 19.7246
 17.6386
 17.6632
 17.7092
 17.7032
 19.9643
 19.9708
 19.9289
 19.8986
 20.8557
 18.1326
 18.1843
 18.1655
 18.0891
 20.531
 21.2204
 21.142
 21.1235
 21.1925
 19.2709
 19.1807
 18.5959
 18.7
 18.5975
 18.6922
 18.2963
 18.3117
 18.2547
 18.2639
 17.4942
 17.589
 17.4962
 18.5773
 18.4839
 18.4836
 18.4836
 19.8943
 17.8163
 18.9481
 18.9847
 19.0075
 18.0129
 17.9514
 17.9333
 17.9762
 19.9403
 19.937
 19.9474
 19.9933
 20.296
 20.2824
 20.3212
 20.3678
 18.9456
 19.0003
 18.9811
 18.8665
 17.8827
 17.8028
 17.8996
 17.8911
 18.2497
 18.2746
 18.2204
 18.2799
 19.1437
 19.0271
 19.0407
 21.304
 21.3449
 21.2182
 21.2959
 22.2455
 22.176
 22.215
 22.1722
 20.8412
 20.9326
 20.9369
 20.8913
 19.4043
 19.3399
 19.4237
 21.1035
 21.0354
 21.0629
 21.1227
 18.426
 18.4503
 18.3552
 18.5474
 18.517
 18.5776
 18.5446
 20.4776
 20.509
 18.8579
 18.7585
 17.2899
 17.3737
 17.2764
 17.5957
 17.5716
 17.5821
 17.5355
 19.7813
 19.8507
 19.7406
 19.7943
 20.2038
 20.2187
 20.2556
 20.1733
 19.7248
 19.7327
 19.6592
 19.662
 17.8406
 17.8437
 17.8259
 17.8495
 18.8889
 18.8586
 18.8836
 18.934
 20.8816
 20.8838
 20.8835
 20.8202
 18.8441
 18.8251
 18.8814
 18.7878
 19.3738
 19.3512
 19.4213
 19.3393
 18.97
 18.9049
 18.92
 22.46
 22.4381
 22.4281
 20.1799
 20.2194
 19.9262
 19.9249
 19.9927
 19.8917
 18.7225
 18.6402
 18.6943
 18.7186
 18.836
 18.7969
 18.699
 18.7979
 18.7882
 18.8312
 18.703
 21.6977
 21.7041
 20.9494
 20.9558
 20.9102
 20.9432
 19.3415
 21.7566
 21.8211
 21.7923
 21.7867
 20.3453
 20.2568
 20.3308
 20.3406
 19.8576
 19.8859
 21.2906
 21.176
 21.1844
 21.2426
 17.519
 17.4096
 17.468
 17.4985
 17.8383
 17.8212
 17.8651
 17.7373
 20.5893
 20.4633
 20.5529
 20.485
 20.2063
 20.2533
 20.1077
 20.1448
 20.1842
 20.2346
 20.1866
 18.732
 18.6955
 18.7963
 18.7283
 20.849
 20.8068
 20.7735
 20.759
 19.6515
 19.608
 19.6634
 19.1508
 19.1436
 19.0995
 19.0431
 20.2273
 20.2148
 20.1601
 20.1967
 20.4429
 20.3659
 20.3246
 20.4002
 20.4768
 20.5309
 20.5181
 20.4579
 19.9611
 19.9194
 19.8726
 19.9399
 19.0202
 19.0791
 20.3302
 20.3115
 20.2855
 20.3502
 17.5395
 17.6827
 17.667
 17.657
 20.5738
 20.5352
 20.5742
 20.5257
 21.1389
 21.1584
 21.0725
 21.119
 19.326
 19.2888
 21.494
 21.4675
 21.5415
 21.453
 20.0655
 20.0336
 20.0994
 18.0294
 18.0692
 18.0009
 17.991
 21.4036
 21.4249
 21.4062
 20.4862
 20.4877
 20.4183
 20.4422
 21.2347
 20.5168
 20.5456
 20.538
 20.6139
 19.5517
 19.5994
 19.5442
 19.5605
 19.8275
 19.8103
 19.7694
 19.8331
 17.9095
 17.8023
 19.4791
 19.4459
 19.4649
 19.4837
 20.5382
 20.6238
 20.5259
 20.6289
 20.1478
 19.996
 20.0737
 20.1462
 18.1304
 18.1988
 18.1889
 18.1945
 19.8568
 19.8342
 19.7555
 19.776
 19.3447
 18.3569
 18.298
 18.3744
 20.1186
 20.1012
 20.1722
 20.0682
 18.8861
 18.9079
 18.8621
 18.9698
 19.9898
 20.0365
 20.0431
 19.9525
 17.8863
 17.9845
 17.9933
 17.9501
 17.3051
 17.2525
 17.3426
 20.4878
 20.4315
 20.3616
 20.4136
 19.1861
 19.1339
 19.2341
 19.2041
 18.8829
 18.8629
 18.8055
 18.7686
 20.1946
 20.196
 20.445
 20.4865
 20.5091
 20.4267
 19.9883
 19.874
 19.1822
 19.1588
 19.1964
 19.2244
 19.0308
 18.9982
 18.9419
 19.0373
 19.8841
 19.8637
 19.7958
 19.8272
 19.2582
 19.2499
 19.2453
 18.1934
 18.3002
 18.3221
 18.2776
 18.5928
 18.6173
 18.5663
 19.9057
 19.7819
 19.893
 19.8408
 20.37
 20.4587
 20.5049
 20.4099
 18.8901
 18.9758
 18.977
 18.9113
 19.8395
 19.847
 19.9249
 20.8833
 20.895
 20.8794
 20.8942
 20.2177
 20.23
 20.1922
 20.1655
 18.5543
 18.5485
 18.6293
 17.5773
 17.6851
 17.6825
 18.9656
 18.9253
 18.924
 20.2228
 20.2937
 20.1975
 20.2707
 17.7268
 17.7297
 17.7391
 17.6776
 19.1047
 19.144
 19.0966
 19.0396
 18.4254
 18.3859
 18.2626
 18.2922
 18.5614
 18.5238
 18.5686
 18.5601
 21.0654
 21.1063
 21.1182
 19.9386
 19.9206
 19.9732
 19.912
 18.4977
 18.4465
 18.5301
 18.5286
 19.7529
 19.7154
 19.7026
 19.6219
 18.816
 18.814
 18.8369
 18.9265
 17.9692
 17.9178
 20.8962
 20.8446
 20.8526
 20.8171
 18.6791
 18.7221
 18.6204
 18.7028
 19.9748
 20.0153
 20.0359
 19.9567
 18.9794
 19.0616
 17.765
 17.7683
 17.8333
 17.7202
 18.4275
 18.3292
 18.4571
 18.2751
 17.6276
 17.6321
 17.5556
 17.4906
 18.7606
 18.7833
 18.7367
 18.9543
 18.8461
 18.875
 18.8962
 18.8246
 18.8891
 18.8675
 18.9488
 20.3381
 20.3177
 20.3897
 20.4093
 21.2089
 21.2477
 21.1619
 19.5901
 19.5714
 19.5757
 18.2298
 18.3038
 18.2533
 18.3301
 19.8708
 19.8204
 19.7575
 19.816
 20.5748
 20.6565
 20.6386
 20.5709
 19.5753
 19.6539
 19.6861
 19.6932
 19.9974
 19.8955
 19.9886
 17.7916
 17.7519
 17.8593
 17.8512
 20.8207
 20.7925
 20.6669
 20.6248
 20.6176
 18.8508
 18.8219
 18.899
 18.7756
 19.6742
 19.603
 19.5835
 19.64
 20.6861
 20.6743
 20.6111
 20.6732
 19.3145
 19.4428
 19.4435
 19.3501
 20.1159
 20.167
 20.0751
 20.0794
 18.1499
 18.1344
 18.0187
 20.2201
 20.2392
 20.1698
 20.1761
 19.3459
 19.2934
 20.7098
 20.6176
 20.639
 20.6963
 20.6025
 20.6649
 20.6339
 20.6628
 18.0168
 18.0774
 20.4808
 20.4176
 20.4517
 20.5066
 19.5605
 19.6395
 19.5933
 19.5635
 20.0183
 21.1514
 21.2107
 21.1922
 19.3059
 19.3113
 19.2825
 19.3578
 18.0371
 18.0272
 18.0898
 17.9917
 21.0166
 21.0176
 20.9769
 21.0375
 20.6189
 20.5591
 20.6353
 20.6219
 18.8969
 18.853
 18.8493
 20.9414
 20.9277
 20.8927
 20.871
 17.5768
 17.6781
 17.6052
 17.5619
 20.8747
 20.8223
 20.8041
 20.9058
 19.0496
 19.133
 19.0687
 18.9824
 19.9974
 19.9567
 19.9694
 20.0212
 20.6546
 20.6285
 20.641
 20.0665
 19.9809
 20.0762
 20.0048
 20.7515
 20.8284
 20.7808
 20.7793
 20.541
 20.5887
 20.549
 18.6815
 18.746
 18.659
 18.6941
 18.7771
 19.6683
 19.5092
 19.608
 19.6061
 17.9947
 18.0356
 18.0763
 18.0367
 19.3121
 19.2325
 19.3601
 19.2649
 19.0005
 18.941
 19.0001
 19.0277
 20.6389
 20.6722
 20.5894
 20.47
 20.4882
 19.1591
 19.2521
 19.183
 19.1489
 18.0541
 17.9387
 19.4135
 19.3918
 19.4607
 19.3718
 20.738
 20.7571
 20.6879
 18.202
 18.1728
 18.2414
 18.2108
 19.4531
 19.548
 19.5237
 19.5029
 20.6751
 20.7188
 20.6764
 20.6456
 19.638
 19.6517
 19.5448
 19.6162
 19.0898
 18.9612
 21.0094
 21.0456
 21.0241
 21.0705
 20.4856
 20.3742
 20.3151
 20.3575
 20.2981
 20.3142
 20.3191
 20.4049
 20.3689
 20.3255
 19.5266
 19.5165
 19.5393
 19.135
 19.1689
 19.1955
 19.2326
 20.4082
 20.4151
 20.3994
 20.4158
 20.0013
 20.0071
 19.3165
 19.3813
 19.3638
 19.4241
 19.3491
 19.336
 19.6913
 19.5985
 19.5899
 19.6644
 21.4513
 21.3772
 21.391
 21.351
 19.3519
 20.7552
 20.6809
 20.7334
 20.7483
 17.8066
 17.7404
 17.8227
 18.7401
 18.7787
 18.814
 18.729
 19.6521
 19.6015
 19.6298
 19.7412
 19.5395
 19.4739
 19.5613
 20.5192
 20.4631
 20.4964
 20.5368
 18.072
 18.0084
 18.1682
 18.0514
 19.1109
 19.1356
 19.0634
 19.0829
 18.0994
 18.0788
 18.1959
 18.1353
 20.7799
 20.7659
 20.8386
 20.8345
 20.3532
 20.2978
 18.7265
 18.7606
 18.8037
 18.757
 17.9916
 17.9868
 17.9748
 18.0241
 17.342
 17.3044
 17.3677
 17.2614
 18.0818
 18.1394
 18.0642
 19.1041
 19.0584
 19.1305
 19.0872
 18.2554
 18.2241
 18.1721
 18.2121
 20.8658
 20.7987
 20.7516
 20.8142
 18.3991
 18.3555
 18.3327
 19.1228
 19.1453
 19.1644
 19.1598
 20.7619
 20.7991
 20.7614
 20.8185
 18.9006
 18.8125
 18.8716
 18.8629
 19.2501
 19.192
 19.1707
 19.2339
 20.2271
 20.182
 20.1664
 20.1083
 20.9103
 20.8976
 20.9851
 20.9786
 19.7918
 19.766
 19.7039
 19.7764
 21.5935
 21.5639
 21.4889
 21.5165
 20.5812
 20.5377
 20.591
 20.4272
 20.503
 20.5002
 20.5156
 21.8607
 21.8214
 21.904
 21.8332
 18.2522
 18.3171
 18.3134
 18.509
 18.5017
 18.4342
 18.4522
 20.3747
 20.264
 20.2984
 21.1896
 21.1809
 21.2111
 20.8584
 20.9339
 20.8577
 20.8572
 20.3261
 20.3372
 20.2745
 20.3886
 19.0673
 18.9749
 19.0335
 19.0436
 21.4318
 21.4217
 21.364
 21.4391
 19.2127
 19.3298
 19.3476
 19.2555
 18.5028
 18.4337
 18.5601
 18.4989
 19.3822
 19.3802
 19.2714
 19.3039
 19.8519
 19.8959
 19.7877
 20.7106
 20.7162
 20.714
 20.6646
 18.0765
 18.0024
 17.9853
 17.9999
 18.4277
 18.3776
 18.4299
 18.4734
 20.2603
 20.2019
 20.2382
 20.2958
 17.8625
 17.8172
 17.7825
 18.0667
 17.948
 18.0512
 18.0229
 17.9751
 17.9471
 18.0281
 17.9974
 21.3663
 21.3841
 21.8537
 21.8445
 21.8881
 21.7972
 19.0876
 19.1212
 19.1719
 19.6283
 19.6839
 19.5677
 19.6627
 19.5473
 19.4678
 19.4951
 19.5371
 22.3978
 19.8766
 19.1796
 19.1068
 18.4833
 18.4276
 18.4621
 18.4493
 21.2002
 20.0351
 19.9672
 20.0368
 17.2394
 17.2996
 17.2974
 17.2947
 19.5059
 19.5636
 19.5101
 19.4484
 17.7498
 17.8115
 17.7675
 17.8315
 19.8407
 19.7586
 19.8903
 20.048
 19.9674
 20.0155
 18.2997
 18.2586
 18.3622
 18.2913
 19.2347
 19.264
 19.3179
 19.3672
 20.8494
 20.9044
 20.7983
 20.8224
 18.4106
 18.2737
 18.3256
 17.8369
 17.7123
 17.7114
 17.833
 18.4615
 18.4748
 18.5504
 18.4588
 20.3838
 20.3979
 20.279
 20.404
 20.2155
 20.2678
 20.2571
 20.2668
 18.2048
 18.1383
 18.1452
 18.1323
 19.8874
 19.9045
 19.9636
 18.6541
 18.6371
 18.6792
 18.7183
 20.6837
 20.6195
 20.7225
 20.7187
 19.1571
 19.125
 19.221
 19.1817
 20.7731
 20.7231
 20.7667
 20.7617
 19.3735
 19.2982
 19.3572
 19.3378
 18.5607
 18.5374
 18.4649
 18.6306
 20.922
 20.9434
 20.8863
 19.4308
 19.366
 18.3921
 18.4399
 18.4391
 18.4923
 19.8843
 19.9274
 19.936
 20.8099
 20.8756
 20.8963
 20.8621
 18.9721
 18.9399
 18.9883
 18.9135
 19.0796
 19.0946
 18.9719
 19.062
 22.1391
 22.147
 22.0783
 22.1133
 19.603
 19.6788
 19.6274
 21.7146
 21.6599
 21.6443
 19.4996
 19.5021
 19.5469
 19.5275
 19.6102
 20.7551
 20.7505
 20.8518
 20.8269
 19.8019
 19.7434
 19.7057
 18.4686
 18.4748
 18.4783
 18.5095
 19.6994
 19.6609
 19.6238
 19.6254
 19.6341
 19.6628
 19.6799
 17.3589
 17.4114
 17.4306
 17.5022
 20.429
 20.2883
 20.3252
 20.3755
 21.0059
 21.0015
 20.9701
 20.9803
 20.0642
 20.0923
 19.9743
 20.0503
 18.2626
 18.211
 18.2075
 18.3194
 22.1848
 22.1233
 22.1642
 22.0816
 18.7294
 18.8134
 18.7515
 18.7436
 20.9792
 21.0344
 21.0087
 21.0157
 18.4039
 18.5724
 18.5392
 18.4661
 18.5544
 18.6082
 18.6475
 18.5868
 18.7146
 18.6687
 20.3816
 20.4236
 20.4286
 20.3897
 18.0919
 18.1013
 18.099
 18.6629
 18.7845
 18.7267
 18.6414
 20.4874
 20.4089
 20.4601
 20.5336
 20.0488
 20.0802
 19.9853
 22.4669
 22.466
 22.4924
 22.4662
 19.6007
 19.7177
 19.6107
 18.1302
 18.0689
 18.1276
 18.1541
 18.4907
 18.5451
 18.157
 18.0803
 18.0128
 18.1378
 18.7549
 18.7459
 21.0154
 20.9739
 21.0716
 20.9312
 18.5974
 18.6202
 18.607
 18.7036
 19.4835
 19.4358
 20.1294
 20.0698
 20.0843
 20.1183
 18.6327
 18.5984
 18.5541
 18.597
 20.3276
 20.4496
 20.445
 20.3529
 18.1587
 18.1734
 18.0972
 17.9678
 19.2185
 19.1953
 19.2874
 21.157
 21.1937
 21.201
 21.1512
 19.0879
 19.111
 19.1483
 19.1866
 20.4152
 20.4824
 20.5115
 20.5387
 20.3698
 20.4511
 20.3936
 22.2444
 22.2461
 22.2536
 22.2103
 20.8994
 20.786
 20.7598
 20.8635
 18.4505
 18.5004
 18.4196
 18.502
 19.6799
 19.6621
 19.7307
 19.9727
 20.6815
 20.643
 20.6691
 20.6158
 19.9646
 20.0212
 19.9743
 19.9498
 18.8679
 18.7621
 18.7467
 18.8414
 20.6923
 20.6923
 20.566
 21.2237
 19.241
 19.2061
 19.2944
 19.172
 20.6549
 20.5498
 21.764
 21.8168
 20.6596
 20.6053
 20.6627
 20.7495
 18.8013
 18.7354
 18.3794
 18.3822
 18.3432
 18.3962
 20.1611
 20.0991
 20.0805
 20.1049
 17.885
 17.8674
 17.7918
 17.8721
 20.0924
 20.0866
 20.2336
 20.2192
 18.6784
 18.6681
 18.7016
 18.8109
 20.489
 20.485
 20.4497
 20.4437
 18.5695
 18.5188
 18.6171
 18.5532
 19.838
 19.7819
 18.0011
 18.0456
 19.002
 18.949
 19.0265
 18.9313
 18.9751
 19.0082
 19.0048
 18.9229
 19.3956
 19.4445
 19.3739
 19.3688
 18.5645
 18.6714
 18.5705
 18.4914
 20.5112
 20.5845
 20.5402
 20.5441
 18.0543
 18.0859
 18.1046
 17.9166
 17.8981
 17.9845
 17.9257
 20.7394
 20.655
 20.6549
 20.6897
 18.78
 18.8794
 18.8647
 18.8282
 20.7282
 20.6695
 20.6622
 20.6009
 19.53
 19.6909
 19.587
 19.5853
 19.6912
 18.3858
 18.3731
 18.3685
 18.4651
 21.5893
 21.6396
 21.5992
 21.543
 18.8315
 18.7823
 18.7231
 18.7943
 19.5416
 19.4679
 19.6116
 19.5534
 18.8489
 18.9073
 18.9171
 18.9177
 18.9659
 17.3988
 17.4611
 17.5787
 17.5119
 18.5341
 18.5338
 18.6583
 18.6216
 21.7263
 21.6854
 21.636
 21.7366
 19.8685
 19.9518
 19.9858
 19.9116
 20.2293
 19.459
 19.4807
 19.4529
 19.3911
 18.1518
 18.1545
 18.2308
 18.277
 18.4046
 18.4022
 18.3276
 18.1552
 18.3388
 18.2482
 18.2884
 22.1473
 22.1104
 18.6495
 18.647
 18.629
 20.2674
 20.2732
 20.2908
 20.2061
 18.7355
 18.7739
 18.7134
 18.7842
 19.3859
 18.9386
 19.0123
 18.9315
 18.9623
 17.9136
 18.0484
 18.0137
 17.9214
 18.9402
 18.8846
 18.776
 18.9212
 19.8993
 19.8745
 19.9762
 19.8196
 20.7773
 20.7621
 20.8026
 20.7449
 17.5265
 17.6378
 17.492
 17.5375
 18.7826
 18.8196
 18.746
 18.844
 17.6573
 17.7018
 17.6792
 17.6004
 20.2617
 20.3662
 20.2611
 20.2479
 19.3837
 19.4239
 17.9716
 17.8575
 17.9846
 17.9196
 19.392
 19.3661
 19.3666
 19.2943
 19.6736
 19.5853
 19.4725
 19.4133
 19.3803
 19.4677
 18.3553
 18.3773
 18.4022
 18.3186
 20.0986
 20.1903
 20.2328
 20.1506
 21.0268
 20.9661
 21.012
 21.0102
 20.8551
 20.8803
 20.8857
 20.8818
 20.1845
 20.1486
 20.1456
 20.2176
 19.8104
 19.9154
 19.8404
 19.7846
 19.9007
 19.8482
 19.8113
 19.5406
 19.5991
 19.6196
 19.5642
 21.0704
 21.0993
 21.0635
 19.981
 20.0097
 19.9218
 19.9352
 19.4307
 19.3694
 19.371
 19.4627
 20.35
 20.4158
 20.309
 20.4263
 20.2187
 20.1543
 20.1722
 20.1775
 19.2898
 19.285
 19.226
 19.173
 19.6647
 19.7285
 19.6725
 19.6957
 18.9028
 18.9355
 18.8884
 18.9143
 20.8787
 20.8599
 20.8332
 18.4708
 18.5072
 18.4106
 18.5031
 20.3476
 20.2773
 20.32
 20.376
 19.8543
 19.9037
 19.9344
 19.832
 19.6948
 19.6316
 19.6074
 19.1245
 19.1344
 19.1037
 19.0426
 18.9838
 18.9694
 18.9219
 19.0111
 18.8432
 18.8342
 18.7607
 18.3304
 18.2893
 18.3078
 19.0471
 19.0832
 19.136
 19.0673
 18.2046
 18.1603
 18.264
 18.0786
 18.0744
 18.0997
 18.1741
 19.6399
 19.7826
 19.7072
 19.735
 20.2131
 20.2696
 20.2057
 20.2652
 20.5613
 18.2976
 18.3411
 18.2114
 18.2839
 18.2196
 18.3686
 22.2894
 22.3268
 22.2847
 22.2634
 18.6435
 18.7112
 19.8044
 19.8991
 19.8074
 17.6427
 17.545
 19.1186
 19.2351
 19.203
 19.1857
 19.8636
 19.8251
 19.8228
 18.6363
 18.4895
 18.5859
 18.5292
 20.2514
 20.2322
 20.2861
 20.209
 21.8493
 21.7898
 21.804
 21.8652
 19.2516
 19.237
 19.2769
 19.1722
 18.3484
 18.2084
 18.352
 18.5515
 18.551
 18.5334
 18.6056
 20.3905
 20.5033
 20.4716
 20.5474
 20.4186
 20.3538
 20.6477
 20.5907
 20.6701
 17.587
 17.6434
 18.3487
 18.4314
 18.3375
 18.453
 19.4412
 19.3246
 19.343
 18.7167
 18.8092
 18.6582
 18.6482
 20.3537
 20.4602
 20.4404
 20.3875
 19.5617
 19.5682
 19.5002
 19.4833
 19.6173
 19.5583
 19.5557
 19.6203
 20.4865
 20.4467
 20.4665
 20.3556
 20.3924
 20.3662
 20.3726
 17.2852
 17.1858
 17.2562
 17.1426
 20.9376
 21.0288
 18.1183
 18.0973
 18.1057
 18.1641
 19.8376
 19.7651
 19.7971
 19.8309
 19.441
 19.3884
 19.3857
 19.3856
 20.8834
 20.8186
 19.4703
 19.5243
 19.5277
 19.5724
 19.8229
 19.8472
 19.8716
 19.7962
 18.4437
 18.4656
 18.4943
 18.4485
 19.6777
 19.6283
 19.6104
 19.7221
 20.297
 20.2962
 19.1684
 19.1671
 19.2087
 19.143
 18.7982
 18.836
 18.7669
 19.4362
 19.3573
 19.3805
 19.3446
 20.6009
 20.5662
 20.618
 20.521
 21.9728
 21.9106
 21.9191
 21.9781
 19.6625
 19.7112
 19.6596
 19.5672
 19.341
 19.2339
 19.312
 19.339
 19.8964
 19.8556
 19.941
 19.923
 20.1258
 20.1726
 20.1191
 20.0816
 18.4097
 18.3178
 19.1359
 19.1727
 19.2012
 21.453
 21.4825
 21.5217
 21.4474
 20.4733
 20.5338
 20.4272
 20.557
 19.4662
 19.4361
 19.4889
 19.5136
 18.4313
 18.398
 18.3929
 19.7901
 19.8162
 19.908
 19.9129
 20.3342
 20.2316
 20.2692
 20.3399
 18.6888
 18.7809
 18.7897
 18.7277
 19.1285
 19.1538
 19.1826
 19.1753
 18.4275
 18.4127
 18.4166
 18.6275
 18.6131
 18.6201
 18.6058
 20.0154
 20.004
 20.0557
 20.0998
 19.7288
 19.7374
 19.6672
 21.8773
 21.8667
 21.8826
 21.9231
 20.3416
 20.3405
 21.0208
 21.0678
 20.9961
 20.959
 20.5324
 20.8214
 18.1567
 20.2605
 20.3393
 20.2779
 20.3755
 17.564
 19.1062
 19.1823
 19.1055
 19.2077
 20.297
 20.2151
 20.2578
 19.9866
 19.926
 19.9251
 18.4112
 18.4021
 18.5153
 18.4201
 18.5217
 18.5764
 18.5045
 18.5662
 20.6838
 20.7793
 20.782
 20.7146
 17.9045
 17.8839
 17.8608
 17.963
 19.5692
 19.6417
 19.6977
 18.5265
 18.4594
 18.5077
 19.2869
 19.3625
 19.3348
 19.2744
 20.2571
 20.2153
 20.3105
 20.2777
 19.3441
 19.2286
 19.3292
 20.1829
 20.1625
 20.1563
 20.2413
 19.8141
 19.71
 18.4163
 18.3692
 18.347
 18.2767
 18.1442
 18.0382
 18.0943
 18.1265
 20.4738
 20.3978
 20.5066
 20.4453
 18.7405
 18.8532
 18.8105
 18.7195
 19.1789
 19.3006
 19.1954
 19.1499
 19.9592
 20.0186
 19.9202
 19.9613
 18.2438
 18.2761
 18.3079
 18.3453
 19.7987
 19.8646
 19.7532
 19.7748
 19.5676
 19.6292
 19.6308
 19.5093
 19.7478
 19.7969
 19.732
 19.7227
 20.4346
 20.3616
 20.5433
 20.4929
 20.4403
 20.5273
 21.1283
 21.2319
 21.1656
 21.1382
 19.1369
 19.1399
 19.1361
 19.0553
 19.194
 19.2811
 19.2676
 17.9544
 17.9319
 17.9125
 17.9185
 17.5453
 17.5034
 17.5798
 18.0255
 17.9875
 18.1089
 19.317
 19.2282
 19.1648
 19.2797
 18.8764
 18.8218
 18.7721
 18.9136
 18.4717
 18.3945
 18.4632
 18.3827
 20.1854
 20.2646
 20.2446
 20.1946
 20.9941
 20.9325
 20.9005
 20.9003
 17.5988
 17.5974
 17.6592
 17.4993
 20.3471
 20.377
 20.4062
 20.3295
 19.38
 19.3796
 19.3387
 19.3996
 17.5186
 17.5666
 17.67
 17.4655
 19.023
 19.1034
 19.0005
 19.0268
 19.886
 19.9246
 19.8948
 19.9201
 20.3236
 20.3862
 20.3784
 20.7974
 20.7188
 20.7674
 20.8115
 20.6156
 20.6496
 20.6092
 20.6556
 20.5533
 20.6177
 20.3937
 20.3524
 20.478
 18.4685
 18.5156
 18.5319
 18.5444
 18.0772
 18.1458
 18.1176
 18.1358
 19.0016
 19.0208
 19.0191
 19.1193
 19.6897
 18.1434
 18.1084
 18.1234
 18.1724
 20.8532
 20.8569
 20.8634
 20.8785
 17.7483
 17.6821
 17.7707
 17.6417
 19.9838
 20.059
 19.9437
 18.8362
 20.7436
 20.7445
 20.795
 20.5172
 20.554
 20.5989
 20.4807
 19.459
 19.4744
 19.5792
 19.5131
 18.6793
 18.672
 18.7378
 18.6225
 19.6984
 18.8755
 18.9111
 18.9354
 19.6737
 19.696
 19.6736
 19.5966
 20.1975
 20.1761
 20.236
 20.2353
 19.9718
 20.0667
 19.9969
 19.9873
 18.83
 20.4321
 20.426
 20.3837
 18.5277
 18.5819
 18.5146
 18.5612
 18.3172
 18.3439
 18.2476
 18.3678
 18.033
 17.9905
 18.0467
 20.1912
 20.1868
 20.2434
 20.1804
 20.8942
 20.9403
 20.8971
 18.381
 18.4026
 18.231
 18.2641
 18.3077
 18.3082
 19.7037
 19.7015
 19.6467
 17.7335
 17.7685
 17.6961
 17.7839
 18.4011
 18.4384
 18.4051
 18.3627
 19.0589
 19.0694
 19.0176
 19.0041
 19.4202
 19.3964
 19.4393
 19.5043
 20.3619
 20.3798
 20.3979
 20.334
 18.273
 18.2665
 18.308
 18.1978
 20.1479
 20.1269
 20.2203
 19.9993
 19.9341
 19.9263
 19.9044
 18.0749
 18.0827
 17.9718
 18.038
 18.872
 18.8666
 18.9002
 18.9239
 17.7143
 17.7767
 17.8443
 17.7644
 19.9857
 19.9308
 19.9016
 19.9115
 19.4213
 19.3906
 19.4816
 19.3333
 18.3274
 18.3364
 18.2852
 18.3221
 19.4509
 19.3877
 19.4676
 19.4527
 17.722
 17.6022
 17.7008
 20.2127
 20.2378
 20.255
 20.2428
 19.277
 19.2802
 19.2947
 19.3571
 19.0904
 19.0051
 19.0711
 19.0618
 19.5471
 19.5976
 19.4784
 19.5619
 18.3399
 18.3447
 18.2409
 18.2986
 19.693
 19.7717
 19.7259
 19.7526
 19.1715
 19.1929
 19.1772
 19.2445
 20.8985
 20.8947
 20.9107
 20.8973
 18.5848
 18.5666
 18.6349
 18.6712
 20.9007
 20.9022
 20.9017
 20.4005
 20.4349
 20.4326
 20.3904
 20.6273
 20.5971
 20.4676
 20.5683
 18.6322
 18.6718
 18.6149
 18.5617
 18.909
 18.799
 18.8839
 18.8723
 19.9798
 20.0499
 20.047
 20.0892
 17.4575
 17.5183
 17.5936
 21.8444
 21.8596
 19.161
 19.0879
 19.2
 19.1717
 21.2445
 21.3028
 21.3709
 21.3038
 18.9235
 18.9167
 18.8235
 18.8583
 19.9514
 20.1619
 20.1883
 20.2082
 20.2506
 18.7029
 18.6744
 18.6598
 18.6313
 18.286
 18.3125
 18.2319
 18.3088
 20.8965
 20.8966
 18.819
 18.7838
 18.6621
 18.7956
 19.238
 19.3781
 19.2294
 19.3017
 20.2886
 20.2854
 20.3381
 20.1868
 19.7023
 19.7661
 19.7822
 19.6931
 18.416
 18.5096
 18.3384
 18.0503
 18.0805
 18.0677
 18.0826
 17.5319
 17.5272
 17.5039
 20.1155
 20.1629
 20.1478
 20.1054
 18.015
 18.0859
 18.1072
 18.1236
 20.6785
 20.7421
 20.7162
 20.6972
 18.9886
 18.9781
 18.9657
 19.0559
 19.3551
 19.262
 19.3306
 19.3257
 18.0141
 18.0217
 18.0297
 17.9566
 18.8957
 18.8448
 18.9235
 18.9685
 21.3888
 21.4246
 21.4468
 21.3986
 19.6882
 19.7985
 19.6952
 19.7807
 20.0727
 19.9575
 19.9727
 20.0604
 18.7003
 18.6523
 18.7328
 18.8049
 20.5861
 20.641
 20.6704
 20.6587
 19.1727
 19.2325
 19.2048
 19.1141
 20.1229
 20.1857
 20.1921
 20.9068
 20.9559
 20.931
 20.9802
 19.0905
 19.0191
 19.1447
 18.9718
 18.9858
 19.0328
 20.4079
 20.4831
 20.5328
 20.5546
 20.5641
 20.5293
 20.5033
 18.0699
 22.3609
 22.323
 22.3276
 22.3883
 18.3643
 18.4327
 18.2992
 18.3735
 20.7305
 19.9605
 19.9743
 19.9954
 19.891
 20.0944
 20.1381
 19.9957
 20.3595
 20.2646
 20.3096
 20.3439
 21.3934
 21.4156
 21.3722
 21.4618
 20.6807
 20.6219
 20.6257
 19.4491
 19.4912
 19.4827
 20.1302
 20.1563
 17.3393
 17.4445
 17.4531
 20.6197
 20.561
 20.6515
 19.974
 19.9151
 19.8864
 18.0031
 17.9218
 17.9349
 18.647
 18.6421
 18.5607
 18.6448
 20.3422
 20.2962
 20.2744
 20.8742
 20.9507
 17.87
 17.9486
 17.8405
 17.8736
 21.1847
 21.1586
 21.2346
 21.1104
 20.6001
 20.6256
 21.961
 22.0184
 21.6769
 21.6894
 21.6505
 19.9843
 19.9446
 20.0246
 17.9015
 18
 18.0296
 18.8462
 18.8316
 18.7577
 20.2998
 20.2396
 20.1646
 20.1227
 20.1926
 18.2273
 20.9413
 20.9432
 20.9095
 20.9051
 20.07
 19.9361
 20.0232
 20.0289
 18.7385
 18.7705
 18.714
 18.7746
 18.7675
 18.8145
 18.79
 20.0024
 20.0289
 19.9618
 19.9091
 18.8605
 18.826
 18.7749
 18.7782
 18.5834
 18.6542
 18.6137
 18.5238
 19.5913
 18.8044
 18.8024
 18.7769
 18.7495
 17.7787
 17.7326
 17.7751
 17.8398
 20.449
 20.5743
 20.5904
 20.497
 17.9383
 17.8918
 17.9386
 17.9476
 22.0099
 21.9936
 22.043
 17.8572
 17.9087
 17.7659
 17.8172
 20.42
 20.4378
 20.5062
 20.4952
 18.5785
 18.6532
 18.5992
 18.5451
 20.6077
 20.6053
 20.7491
 20.7174
 17.6322
 18.4096
 18.5234
 18.4811
 18.5601
 18.2252
 18.1407
 18.1793
 20.8376
 20.7971
 20.8609
 20.8888
 18.6432
 18.7067
 18.6988
 18.7439
 19.2372
 19.1707
 19.1615
 19.1891
 19.3356
 19.2903
 19.401
 19.4042
 17.5292
 17.6276
 19.8411
 19.8321
 19.8391
 20.0028
 19.9424
 19.9169
 19.8723
 18.7739
 18.8228
 18.6868
 18.6834
 18.7558
 18.7139
 18.7135
 18.6517
 19.095
 19.0899
 19.0228
 19.1137
 20.4367
 20.4267
 20.2479
 20.2981
 20.3008
 19.9749
 19.9235
 19.9201
 19.909
 20.9671
 21.025
 21.0196
 21.0212
 20.0666
 20.1047
 20.1708
 21.3607
 21.3653
 21.2917
 20.0458
 20.0549
 20.119
 20.0031
 20.4086
 20.3105
 20.4248
 19.6958
 18.7677
 18.7867
 18.6953
 19.8932
 19.9212
 19.8719
 19.8231
 20.6424
 20.6346
 20.4665
 20.5559
 19.6054
 19.5587
 19.5324
 19.5287
 18.4415
 18.4927
 17.423
 17.4987
 17.5515
 17.414
 18.7076
 18.7532
 18.676
 18.8028
 19.8495
 19.8659
 19.8727
 19.8314
 17.6899
 17.6816
 17.5303
 17.7431
 17.9073
 17.8635
 17.8459
 19.4982
 19.5979
 19.625
 19.5318
 20.8013
 20.8254
 20.7604
 19.7871
 19.796
 19.706
 19.7841
 20.8057
 20.9054
 20.8154
 20.9041
 18.9191
 18.927
 18.9055
 19.0739
 20.885
 20.8826
 20.8896
 20.8653
 20.4073
 20.3557
 20.3373
 20.3779
 17.8456
 17.9378
 17.8316
 17.9107
 19.4202
 19.4189
 19.4854
 19.4149
 20.0551
 20.1039
 20.0319
 20.0912
 18.8033
 18.7828
 18.5007
 18.3731
 18.4087
 18.4203
 19.9206
 19.8382
 19.8601
 19.7673
 19.7355
 19.687
 19.7212
 19.731
 20.745
 20.7029
 20.7621
 19.9299
 19.9829
 20.0237
 22.205
 22.2774
 22.2226
 22.2592
 20.3546
 20.3177
 20.8439
 20.8051
 20.8327
 20.8932
 19.218
 19.2906
 19.225
 19.3133
 21.3761
 21.3057
 21.2676
 21.3371
 20.5431
 20.5637
 20.6428
 18.9743
 18.9472
 18.955
 18.9944
 20.4963
 20.4376
 20.5232
 20.5905
 20.586
 20.6496
 20.6432
 19.9812
 20.0266
 20.015
 19.9361
 18.5575
 18.3596
 21.7276
 21.6994
 20.3743
 20.4363
 19.8137
 19.8764
 19.8509
 19.8607
 19.0127
 18.9581
 19.0137
 18.91
 19.585
 19.5808
 19.5387
 19.5235
 20.7936
 20.9097
 20.8113
 20.8654
 19.2692
 19.3614
 19.31
 20.785
 20.8053
 20.7697
 20.7723
 18.1129
 18.0953
 18.0374
 18.1416
 19.0352
 19.039
 19.0463
 19.1175
 20.6957
 20.6417
 20.7187
 19.7751
 19.8603
 19.7845
 19.7421
 20.8796
 20.8828
 20.8537
 20.5234
 20.456
 20.4774
 20.5213
 20.631
 20.6449
 20.5741
 20.6193
 19.8949
 19.9541
 19.9774
 19.9982
 17.8515
 17.9005
 17.9703
 17.9394
 19.1786
 19.0804
 19.1156
 19.114
 19.8568
 19.9503
 19.8787
 19.4586
 19.4958
 19.4897
 18.2009
 18.2969
 18.2085
 18.2668
 19.1075
 19.0849
 19.1716
 19.0561
 19.9548
 19.8986
 19.8614
 19.8808
 20.9669
 20.9418
 20.7144
 20.7618
 20.6762
 20.675
 21.8391
 21.8598
 21.9164
 21.83
 18.7462
 18.729
 18.7278
 18.7625
 20.4779
 20.5604
 20.5313
 20.5382
 19.583
 19.6617
 19.6095
 19.6974
 21.0783
 21.1082
 21.0978
 21.1271
 19.389
 19.4315
 19.4741
 19.4653
 19.7615
 18.7403
 18.8139
 18.8358
 18.8127
 19.9112
 19.9956
 20.0154
 19.9243
 19.91
 19.8725
 19.8231
 19.844
 20.1056
 20.1739
 20.1465
 20.1986
 20.643
 20.7203
 20.6032
 18.3776
 18.3563
 18.3279
 18.4775
 19.9351
 19.9599
 19.9609
 19.9872
 18.4645
 18.4236
 18.3713
 18.9903
 19.0432
 18.9902
 19.0376
 18.606
 18.4891
 18.5552
 18.483
 20.6508
 20.589
 20.6624
 22.4003
 22.3679
 22.3586
 18.8178
 18.7243
 18.747
 19.3716
 19.2406
 19.3117
 19.2404
 20.0597
 20.0226
 19.9868
 20.0409
 19.8489
 19.8146
 19.9171
 19.8937
 21.5181
 21.4683
 21.5804
 21.4661
 19.5465
 19.5849
 19.5915
 19.6014
 19.2515
 19.2549
 19.1718
 19.2579
 20.4856
 20.4867
 20.3063
 20.4463
 20.3764
 20.3669
 18.9298
 18.9954
 18.9544
 18.9473
 20.5703
 20.4915
 19.1887
 19.2225
 20.7751
 22.2621
 22.2776
 22.268
 22.2198
 21.0541
 20.9845
 17.6341
 17.5353
 17.6197
 20.9037
 20.8405
 20.7851
 20.8486
 18.8304
 18.8104
 20.4268
 20.443
 20.4319
 20.4291
 20.1615
 20.035
 20.091
 18.7303
 18.7079
 18.7227
 18.6328
 19.0969
 19.0228
 19.0886
 19.0657
 18.3665
 18.3646
 18.2829
 19.8807
 19.9469
 19.8757
 19.9833
 19.6656
 18.2908
 18.4342
 18.3262
 18.3626
 20.8852
 20.9082
 20.858
 20.8268
 19.507
 19.5658
 19.4659
 19.5385
 18.7002
 18.8277
 18.735
 18.7981
 21.9419
 21.9302
 21.9081
 21.9062
 20.6622
 17.6698
 19.9979
 19.8869
 19.9585
 20.0294
 19.4789
 19.4074
 19.4963
 19.5253
 20.4101
 20.5106
 20.4544
 20.4345
 19.44
 19.4802
 19.4504
 19.434
 20.7463
 20.7306
 20.6572
 20.7525
 20.6907
 20.6437
 20.6971
 19.8374
 19.7614
 19.8709
 19.8299
 18.6628
 18.5817
 18.7421
 17.3592
 17.2565
 17.3505
 17.4076
 21.5677
 21.6427
 21.6472
 19.7427
 19.7488
 19.7962
 19.763
 19.8431
 19.7394
 18.0836
 18.0847
 18.1208
 18.0093
 18.8402
 18.8977
 18.8777
 18.9385
 20.6432
 20.5351
 20.616
 21.2125
 19.9254
 20.018
 19.9836
 19.9336
 19.7376
 19.6871
 19.699
 18.9915
 19.0372
 19.0165
 18.9659
 18.7533
 18.8392
 18.7769
 18.8194
 19.9607
 20.0137
 18.8606
 18.8663
 18.8573
 18.7964
 19.3982
 19.4208
 19.3986
 19.3318
 17.9327
 17.8767
 19.1504
 19.2232
 19.1636
 19.1942
 18.8937
 18.8547
 18.8442
 18.7944
 19.0305
 18.9831
 19.0272
 19.0346
 19.7015
 19.6566
 19.9019
 19.8476
 19.9048
 19.9511
 20.1435
 20.2116
 20.1816
 20.1613
 19.3669
 19.3106
 19.3145
 19.3499
 20.7145
 20.663
 20.6156
 20.5846
 20.4293
 20.4464
 20.4743
 20.4497
 21.7221
 21.6712
 21.6775
 21.7467
 20.1404
 20.2571
 19.3918
 19.5124
 19.4221
 19.4582
 19.9826
 19.9979
 19.9698
 19.9154
 19.519
 19.4683
 19.4334
 19.4948
 19.8674
 19.8534
 18.7283
 18.7578
 17.7108
 17.6947
 17.6787
 17.6689
 20.8595
 19.9172
 19.9262
 19.9027
 19.8502
 19.6488
 19.7166
 19.6897
 19.6704
 20.2798
 20.3268
 20.3421
 20.4077
 18.8942
 18.9922
 18.9085
 18.9948
 19.4534
 19.5031
 19.5269
 19.457
 20.7525
 20.7795
 20.7183
 20.7848
 20.8193
 20.0299
 19.9546
 20.0519
 20.0258
 20.1105
 20.011
 20.0853
 20.103
 20.6408
 20.6368
 20.7032
 20.6398
 20.4544
 20.4348
 20.3403
 20.3848
 19.7675
 19.6976
 19.7972
 19.8024
 20.7271
 20.7705
 20.8004
 20.7744
 19.4316
 19.4114
 19.5081
 20.366
 20.3662
 20.3827
 20.3911
 21.3907
 21.3472
 19.4295
 19.3778
 19.3613
 19.5575
 19.4727
 19.5059
 19.4658
 20.8362
 20.7837
 20.759
 21.0678
 21.0312
 21.0325
 21.0558
 19.1606
 19.1832
 19.1125
 19.1745
 19.4711
 19.5721
 19.469
 18.6054
 18.7551
 18.6841
 19.7014
 19.7592
 19.7456
 18.36
 18.3813
 18.3421
 21.7752
 21.8239
 21.8266
 21.78
 17.935
 17.8994
 17.9514
 17.8908
 20.2017
 20.2686
 19.3544
 19.403
 20.6043
 20.6034
 20.6215
 20.555
 19.2223
 19.2608
 19.171
 18.6898
 18.6295
 18.6451
 18.6329
 18.2973
 18.4137
 20.8759
 20.8674
 20.9028
 19.4273
 19.4322
 19.5029
 20.4502
 20.511
 20.4319
 20.806
 20.8052
 20.8244
 20.8507
 19.9241
 19.8924
 19.9645
 19.8635
 20.0133
 20.0913
 20.0779
 20.0203
 18.9468
 18.9669
 18.978
 18.8949
 18.7585
 18.8274
 18.7883
 18.8824
 20.0716
 20.0541
 20.0089
 19.199
 19.2298
 19.2711
 18.9715
 18.8969
 18.934
 18.9014
 17.1479
 17.21
 17.1245
 19.6843
 19.7112
 19.7115
 18.9177
 18.8713
 18.9673
 19.7532
 19.7139
 19.8032
 20.2154
 20.2973
 20.2784
 20.8697
 20.8439
 20.8538
 20.8337
 19.6829
 19.8629
 19.7848
 19.8361
 20.3654
 20.386
 20.4366
 20.6783
 20.6012
 19.0452
 19.0948
 18.9839
 19.0549
 19.0278
 18.96
 19.0662
 19.11
 20.6178
 20.5399
 20.5027
 20.4858
 20.705
 20.7875
 20.7361
 20.7933
 21.1877
 21.2265
 21.1857
 21.2543
 17.965
 17.9278
 18.4397
 18.5498
 18.4859
 18.4266
 17.8376
 20.2607
 20.1761
 20.2548
 19.6268
 19.6074
 19.6619
 19.6935
 20.6839
 20.6843
 19.795
 19.8172
 19.7314
 20.9191
 20.8925
 18.5369
 18.5327
 18.4483
 18.6026
 18.2315
 18.2616
 18.1131
 18.2079
 18.7453
 18.7324
 18.8076
 20.2015
 20.1471
 20.1512
 18.2508
 18.2664
 18.2344
 18.2174
 20.4025
 20.4872
 20.4235
 20.3897
 18.6792
 18.7288
 18.7546
 18.6849
 20.3453
 20.4207
 20.4353
 20.3147
 20.7114
 20.6827
 20.7338
 17.8446
 17.7061
 17.7711
 17.815
 20.863
 20.8275
 20.8446
 19.9557
 19.9351
 19.8381
 19.9063
 17.8677
 17.7823
 17.8255
 20.3374
 20.3919
 20.3048
 20.3515
 19.0879
 18.0627
 18.0107
 18.1842
 18.0893
 20.9763
 20.9566
 20.9193
 20.9623
 19.0318
 19.147
 19.0567
 19.0302
 19.7326
 19.709
 19.8
 20.6908
 20.7351
 20.6819
 20.8177
 19.1116
 19.1466
 19.073
 20.4492
 20.4814
 21.7232
 21.7897
 21.732
 21.687
 21.0932
 21.2442
 21.25
 18.1946
 18.2323
 18.0891
 18.2009
 18.2282
 18.1745
 21.0608
 21.0447
 21.1115
 21.0202
 20.0459
 20.0155
 20.0245
 19.9787
 19.8232
 19.921
 19.9179
 19.8943
 19.4119
 19.4427
 19.3557
 19.4296
 19.4155
 19.5348
 19.4597
 19.5274
 17.9835
 20.7701
 20.8041
 20.7648
 20.7897
 17.9641
 18.0308
 17.9322
 19.3921
 19.4663
 19.5085
 19.477
 20.8295
 20.7613
 20.7376
 19.4996
 19.5635
 19.5169
 19.5649
 19.726
 18.9737
 18.9521
 18.862
 18.8955
 20.4113
 20.4208
 20.4129
 19.7264
 19.6093
 19.6651
 17.8815
 17.9157
 18.0071
 17.9279
 19.7246
 19.7336
 19.7697
 21.999
 21.9805
 22.0417
 19.7319
 19.7827
 19.7343
 19.8522
 18.9397
 18.8627
 18.8911
 19.6587
 19.6351
 18.4109
 18.3575
 18.4557
 18.4337
 18.7673
 18.6919
 18.7269
 18.7472
 17.7906
 17.8223
 17.8795
 17.9436
 19.4824
 19.6212
 19.5212
 19.499
 18.8278
 18.8534
 18.8767
 18.9007
 18.4173
 18.3538
 18.2902
 20.513
 20.4708
 20.5821
 20.536
 19.7992
 19.7282
 20.174
 20.2291
 20.169
 20.1947
 19.0435
 19.047
 19.0599
 19.0023
 19.7452
 19.6801
 19.6944
 19.7732
 19.1337
 19.1785
 19.0874
 19.1759
 19.6776
 19.6612
 19.5872
 19.5882
 19.7902
 19.8473
 19.849
 18.4384
 18.4974
 18.4621
 18.1302
 18.1248
 18.1499
 18.0282
 18.456
 18.4561
 18.3971
 18.8718
 18.7505
 18.8467
 21.5828
 21.5708
 21.6338
 19.8156
 19.7235
 19.7945
 18.5295
 18.4942
 18.5453
 18.5408
 19.8179
 19.7834
 19.8241
 19.4213
 19.406
 19.3839
 19.4724
 19.0702
 19.2273
 19.1771
 19.1773
 19.7376
 19.6747
 19.7003
 19.647
 20.584
 20.5387
 20.575
 20.6152
 19.7898
 19.4368
 19.4501
 19.4048
 19.5458
 20.8654
 20.838
 20.8273
 20.832
 20.8036
 20.744
 20.7825
 20.7454
 20.6968
 20.6427
 20.6794
 20.708
 19.0906
 19.1159
 19.01
 18.9682
 20.4737
 20.5144
 20.4879
 20.4797
 17.5754
 17.6669
 17.6035
 17.6656
 21.19
 21.1518
 21.1055
 21.1081
 20.4576
 20.4495
 20.4696
 20.949
 21.0062
 21.0435
 21.0304
 20.6679
 20.7196
 20.6235
 20.8156
 20.8013
 19.6217
 19.632
 19.577
 19.4758
 18.181
 18.2491
 18.27
 18.1169
 18.1354
 18.0777
 18.1636
 20.6673
 20.7213
 17.7545
 17.7037
 17.7785
 18.4155
 18.4307
 18.402
 18.361
 20.6804
 20.7172
 20.6695
 17.8803
 17.8384
 17.9193
 17.8145
 20.1253
 20.1098
 20.0576
 20.1723
 20.657
 20.7438
 20.698
 20.6376
 20.9998
 20.889
 20.935
 20.9551
 21.4339
 21.4034
 21.4671
 21.4692
 19.2432
 19.1112
 19.1884
 19.121
 20.0771
 20.0772
 20.1047
 20.202
 17.8249
 17.9428
 17.8326
 22.027
 21.9583
 22.0054
 21.9227
 21.1211
 21.0563
 21.09
 21.0343
 17.9368
 17.8003
 17.8761
 17.8795
 19.7411
 19.7301
 19.6706
 18.3632
 18.2586
 18.2393
 20.5494
 20.5537
 20.6446
 17.7877
 17.8954
 17.8925
 17.8272
 18.3234
 18.3529
 18.3719
 18.4425
 20.3664
 20.3287
 20.2647
 20.3245
 20.0991
 20.1779
 20.1001
 20.1883
 18.6921
 18.6876
 18.659
 18.5787
 19.5588
 19.6023
 19.6502
 19.6189
 21.2375
 21.1691
 21.1749
 21.1664
 18.3072
 18.4755
 18.3672
 18.4059
 17.6958
 19.5618
 19.5419
 19.4933
 19.4945
 18.1164
 18.0712
 18.081
 17.9976
 20.859
 20.8589
 20.8452
 20.8448
 17.8319
 17.7608
 17.8564
 17.8908
 19.7801
 19.795
 20.0629
 20.1026
 20.0536
 20.0253
 18.6974
 18.7771
 18.7873
 18.786
 19.4093
 19.3208
 19.3301
 20.0921
 20.1064
 20.0751
 18.7194
 18.7192
 18.8142
 18.8227
 18.7824
 18.8249
 18.7432
 18.8036
 20.6007
 20.6713
 20.6763
 19.7337
 19.5783
 19.5816
 19.6661
 21.2801
 21.2115
 21.1456
 21.2384
 21.2935
 17.7577
 17.9012
 17.7482
 17.8873
 19.6173
 19.6607
 19.6941
 19.6229
 18.158
 18.1014
 19.889
 20.0013
 20.0003
 20.4224
 20.4912
 20.3754
 20.3958
 17.8885
 17.9123
 17.8588
 17.8511
 20.7644
 20.7379
 20.7495
 20.4147
 20.4458
 20.3911
 20.4399
 20.1391
 20.0637
 20.118
 20.2097
 18.9886
 18.8345
 18.9137
 18.8784
 20.5159
 20.4172
 20.4749
 20.4811
 18.7264
 19.2985
 19.21
 19.1844
 19.3097
 18.147
 18.1159
 18.2001
 17.9251
 17.9594
 17.9689
 18.0316
 19.2484
 19.2154
 19.3139
 19.2686
 17.5245
 17.5259
 17.5213
 17.6214
 20.17
 19.3269
 19.4315
 19.4402
 19.3588
 19.5981
 19.7118
 19.6682
 19.6285
 21.4256
 21.3572
 21.3393
 21.4091
 19.7571
 19.7379
 19.7115
 19.7998
 19.9781
 19.9591
 19.9342
 19.9069
 19.9167
 19.9012
 19.8504
 18.2807
 18.3686
 18.4044
 19.9636
 20.0391
 20.0296
 19.9734
 18.2585
 18.1346
 18.2017
 19.6617
 19.7069
 19.5885
 19.542
 19.5651
 19.4895
 19.5102
 19.4866
 19.6582
 19.6394
 19.5406
 19.5747
 18.2367
 18.1847
 18.1902
 20.1401
 18.0682
 19.3961
 19.3403
 19.3973
 19.4773
 20.6154
 20.5948
 20.6799
 20.4868
 20.4153
 20.389
 19.5705
 19.5479
 19.6176
 19.7052
 19.7091
 19.6684
 19.6316
 19.6592
 19.7165
 19.611
 19.7061
 22.0751
 22.0638
 22.126
 18.6897
 18.788
 18.6901
 19.7996
 19.7687
 18.4138
 18.5353
 18.5051
 18.532
 19.2871
 19.2237
 19.283
 21.354
 21.3657
 21.4339
 21.4057
 19.928
 20.0263
 19.9622
 19.9657
 20.5793
 20.6148
 20.6546
 20.6774
 19.0328
 19.1414
 19.0893
 19.0448
 20.2589
 20.3087
 20.2713
 20.3531
 21.2379
 21.2517
 21.2608
 20.1066
 20.1354
 20.1757
 20.1586
 18.9947
 18.9072
 18.935
 18.9375
 19.7032
 19.6267
 19.6115
 19.6577
 20.4912
 20.5296
 20.4889
 20.0492
 20.106
 20.0776
 20.0932
 20.5077
 20.5834
 20.4933
 20.5647
 20.803
 20.7102
 20.7083
 20.8146
 17.9911
 17.934
 17.9611
 17.9315
 20.7129
 20.6536
 20.6754
 20.6528
 20.5215
 20.5718
 20.494
 20.5048
 19.218
 19.1088
 19.1559
 19.0968
 20.1026
 20.1312
 20.0582
 20.0812
 17.2905
 17.2401
 17.2496
 17.2408
 19.9471
 19.9837
 19.9145
 20.8206
 20.8745
 20.8505
 20.7906
 20.7452
 20.7812
 20.7564
 20.7829
 20.6237
 20.7295
 18.984
 19.0488
 18.987
 19.0932
 17.5168
 17.5922
 17.5514
 17.5619
 20.0065
 20.0782
 20.0375
 20.0807
 20.6398
 20.6873
 20.6962
 19.083
 19.1625
 19.1792
 19.0986
 19.8405
 19.8653
 19.8041
 19.7666
 20.4356
 20.4362
 20.4443
 20.3799
 20.8579
 20.7479
 20.8149
 18.5892
 18.5116
 18.4782
 18.5655
 18.5219
 18.5108
 18.5954
 19.9843
 19.9723
 19.9241
 19.9025
 19.9434
 19.9906
 19.8986
 20.4433
 20.3781
 20.3508
 20.3538
 19.1018
 19.115
 19.1779
 20.6432
 20.6388
 20.719
 19.5907
 19.5026
 19.541
 18.4765
 18.5778
 18.5316
 18.9634
 18.986
 20.1511
 20.0995
 20.1519
 20.0919
 20.0627
 20.0957
 19.8121
 19.9032
 20.3646
 20.934
 20.9188
 20.981
 18.2259
 18.2366
 18.3554
 19.9799
 19.9248
 19.947
 19.9983
 20.4156
 19.6667
 19.608
 19.0708
 19.0583
 19.0852
 19.0167
 19.6901
 19.7622
 19.6809
 19.9386
 19.9003
 20.0146
 19.9214
 20.1119
 19.9798
 19.9398
 19.9956
 20.0225
 19.8972
 18.2923
 18.368
 18.3888
 18.3348
 18.2491
 18.1848
 18.0676
 18.1111
 20.6742
 20.61
 19.644
 19.6784
 19.6963
 19.7508
 19.4527
 19.4313
 19.4087
 19.3746
 19.1229
 19.0549
 19.1325
 19.1444
 19.8305
 19.8683
 19.8987
 19.8152
 19.9333
 19.8859
 19.9197
 19.9614
 18.4636
 18.5846
 18.4868
 18.5189
 20.5166
 20.4311
 20.4244
 20.3701
 20.5506
 20.4653
 20.5118
 18.6308
 18.5561
 18.4682
 18.4445
 20.4691
 20.4151
 20.4334
 20.3799
 18.184
 18.2208
 18.1577
 18.1997
 18.4936
 18.5423
 18.5189
 18.5524
 20.0542
 20.0169
 20.0849
 20.0476
 18.9294
 18.904
 18.9571
 19.031
 20.4064
 20.3645
 20.3086
 20.2879
 18.767
 18.8087
 18.7857
 20.6995
 20.6554
 20.7108
 20.6717
 19.3413
 19.3617
 19.3209
 19.2885
 20.1064
 20.0843
 18.8094
 18.6992
 18.7487
 18.7895
 18.7365
 18.7504
 18.7992
 19.8947
 19.7955
 19.8878
 18.617
 18.6287
 18.5973
 18.5203
 21.2294
 21.1953
 21.1492
 21.1778
 20.3991
 20.3757
 20.3071
 20.2993
 19.2546
 19.3567
 19.3434
 19.2448
 18.1805
 18.171
 18.2274
 18.1755
 18.4223
 18.3469
 18.3278
 18.4116
 18.048
 18.0425
 18.0284
 18.2479
 18.2243
 20.2099
 20.1591
 20.2134
 20.1433
 20.5758
 20.5458
 20.6558
 20.5935
 20.3176
 20.3145
 20.1659
 20.0883
 20.1473
 20.1409
 19.9523
 19.9426
 19.8592
 19.9408
 20.6137
 20.6114
 20.667
 19.5196
 19.568
 19.5539
 19.5861
 17.2919
 17.3218
 17.4044
 20.2004
 20.2124
 20.1882
 20.1239
 18.4238
 18.5266
 18.4612
 18.4338
 18.9868
 18.8892
 18.9177
 19.6277
 19.6717
 19.5907
 18.9853
 18.8957
 18.9963
 18.4612
 18.5445
 19.0496
 19.0362
 19.0352
 20.3807
 20.353
 20.3332
 20.4172
 18.1232
 18.0657
 18.1283
 18.1555
 19.3183
 19.2207
 19.2844
 21.4937
 21.5623
 21.5841
 21.4987
 20.7097
 20.7484
 19.4262
 20.1473
 20.0549
 20.1147
 20.1461
 19.6205
 19.5438
 19.5486
 18.8565
 18.8292
 18.895
 18.8556
 18.1527
 18.0985
 19.7425
 19.7775
 19.773
 19.8203
 20.7822
 20.8304
 20.8383
 20.749
 18.4142
 18.3576
 18.3771
 18.4119
 19.2153
 19.1826
 19.2286
 21.9195
 21.9443
 22.0057
 22.0082
 20.6667
 20.6809
 20.7487
 20.269
 20.2152
 20.3096
 20.2507
 19.3267
 19.3205
 19.3718
 19.2693
 19.6749
 19.6122
 20.894
 20.8702
 20.8772
 20.8751
 19.1649
 19.0805
 20.3152
 20.3971
 20.3394
 20.3208
 19.9907
 19.9591
 20.0485
 19.9874
 19.6787
 19.6053
 19.5654
 19.6289
 20.2703
 20.3067
 20.3874
 18.9813
 19.0954
 18.983
 19.0654
 18.5744
 18.5081
 18.441
 18.5683
 18.6648
 18.6754
 18.6719
 18.5844
 20.802
 20.878
 20.8178
 20.8714
 19.7006
 19.7488
 21.6407
 21.7201
 21.678
 21.7501
 20.0437
 20.1189
 20.1487
 17.7815
 22.2152
 22.1984
 22.2025
 22.2995
 19.7201
 19.6748
 19.7189
 19.7088
 20.2005
 20.1295
 20.1634
 18.6071
 18.5424
 18.5239
 18.6167
 18.6098
 18.6397
 18.5551
 18.5638
 18.6411
 18.6069
 18.6749
 18.7058
 20.3617
 20.2992
 20.402
 20.2997
 20.6176
 20.6471
 20.6753
 20.6738
 19.1796
 19.1856
 19.091
 19.1908
 19.9651
 20.0714
 19.9428
 20.0115
 17.435
 18.1105
 18.0677
 19.3357
 19.343
 19.8945
 19.9546
 19.9395
 18.0622
 17.9338
 18.0188
 18.0381
 19.765
 19.7995
 19.4206
 19.4831
 21.3485
 21.2871
 21.3638
 21.2993
 20.3721
 20.3986
 20.4529
 20.4137
 19.1844
 19.0894
 19.1735
 19.11
 21.2001
 21.2759
 21.2197
 21.1895
 17.5569
 17.6033
 17.5088
 17.5965
 18.1802
 18.2893
 18.0242
 18.0803
 18.1465
 18.0222
 18.6002
 18.5346
 20.0873
 20.0439
 20.0919
 22.0638
 22.0018
 22.083
 22.0806
 21.1227
 21.0773
 21.0675
 21.1266
 18.1484
 18.0766
 18.1476
 18.1947
 18.8735
 18.7565
 18.8162
 19.5369
 19.6069
 19.6604
 19.5698
 20.2881
 20.2025
 20.2668
 20.2963
 18.3215
 18.2458
 18.3128
 18.1277
 19.5873
 19.4959
 20.2928
 20.2662
 19.0637
 18.9848
 19.0957
 19.0658
 20.5753
 20.6629
 20.5497
 20.6746
 20.7215
 20.8004
 20.7682
 21.992
 21.8822
 21.8926
 21.9353
 20.2412
 20.2005
 20.2085
 20.1446
 18.4139
 18.3974
 18.556
 18.4762
 18.5284
 18.4764
 20.4053
 20.4077
 20.3386
 20.4583
 18.765
 18.8126
 18.7374
 19.0441
 19.0511
 19.0174
 19.0838
 18.4982
 18.4113
 18.5005
 18.4083
 20.3126
 20.2449
 20.2678
 20.2977
 17.93
 18.0696
 19.931
 21.5261
 21.5054
 21.455
 21.4354
 18.7489
 18.7755
 18.7072
 21.1707
 21.2138
 21.1682
 21.2398
 18.9729
 18.9804
 18.9752
 18.9029
 20.7944
 20.7976
 20.877
 20.7699
 20.5594
 20.5677
 20.501
 20.4857
 19.1229
 19.0617
 19.0506
 20.1439
 20.107
 20.1642
 20.2042
 19.3059
 19.3156
 19.2661
 19.3813
 19.3729
 19.4502
 18.4746
 18.447
 18.4597
 19.0061
 18.9915
 19.0391
 21.6121
 21.6046
 21.5427
 21.5924
 20.6712
 20.5981
 20.7021
 20.5753
 18.2901
 18.4016
 18.4071
 18.4144
 18.6572
 18.6898
 20.4692
 20.3374
 20.4631
 19.0216
 19.1219
 19.1112
 19.1608
 19.0819
 19.109
 19.1397
 20.3672
 20.4044
 20.3598
 20.3421
 17.9697
 17.9733
 20.0976
 20.1269
 20.0944
 20.0593
 20.4439
 20.4393
 20.4152
 18.9959
 18.9721
 19.7063
 19.734
 19.7373
 19.654
 20.8075
 20.8379
 19.1997
 19.2445
 20.0877
 20.1825
 20.1634
 20.1124
 19.5138
 19.5152
 19.5705
 19.4676
 19.5231
 19.5711
 19.53
 20.9478
 20.9318
 20.9679
 20.8447
 21.1499
 21.1517
 21.1007
 21.1293
 18.9428
 18.9905
 19.054
 19.008
 18.2327
 18.2268
 18.2821
 18.2802
 19.3824
 19.3413
 19.4105
 19.6679
 19.7158
 19.7476
 19.6941
 19.6449
 18.6868
 18.6664
 20.2426
 20.1709
 20.237
 20.2581
 20.526
 18.2397
 18.2618
 18.322
 18.2874
 19.6479
 19.7662
 19.7347
 19.6702
 21.8859
 21.8453
 19.8793
 19.9704
 19.8774
 21.6064
 21.5887
 21.626
 21.5605
 19.2687
 19.3252
 19.2774
 19.3113
 20.8171
 20.7338
 20.7183
 20.3725
 20.3089
 17.8844
 17.894
 17.894
 18.0666
 18.059
 18.1048
 20.6493
 20.5496
 20.4044
 20.4103
 21.7416
 21.7832
 21.7934
 21.8101
 18.2344
 18.3513
 18.2158
 20.5718
 20.5613
 20.5171
 20.6162
 20.4365
 20.4663
 20.3839
 20.4657
 18.9924
 18.9563
 18.9275
 18.9704
 19.2846
 19.1206
 19.2045
 18.9946
 18.985
 19.069
 18.988
 18.7019
 18.7924
 18.6307
 18.8261
 20.8532
 20.8464
 20.6529
 20.6502
 20.6101
 19.3477
 19.3873
 19.4577
 19.4277
 20.5054
 20.5126
 20.431
 20.4582
 18.8988
 18.95
 18.9345
 18.8916
 20.82
 20.729
 18.3052
 18.3596
 18.3253
 18.4005
 18.8808
 19.0076
 18.9512
 18.8601
 20.2669
 20.2588
 20.2839
 20.219
 18.4776
 18.3848
 19.9215
 19.9039
 19.8764
 19.862
 21.2315
 21.214
 21.226
 21.2141
 20.8238
 20.7825
 20.8257
 20.7647
 17.8525
 17.816
 17.7775
 17.7931
 18.1787
 18.2153
 18.2481
 20.3047
 20.3187
 20.3279
 17.8958
 17.8385
 19.8694
 19.8305
 19.8792
 19.7759
 18.4083
 18.4629
 18.3952
 18.4657
 20.4829
 20.52
 20.4704
 20.5258
 20.9592
 20.8906
 20.9334
 18.5633
 18.4711
 18.4772
 18.51
 20.0327
 19.9348
 19.951
 19.979
 20.5993
 20.5742
 20.5259
 20.647
 20.8206
 20.9368
 20.8011
 19.3351
 19.42
 19.2973
 19.5988
 19.5835
 19.643
 19.5536
 19.3914
 19.3992
 19.3188
 19.4136
 20.1084
 20.0334
 20.1043
 20.042
 20.4028
 20.3854
 20.3452
 20.4362
 20.6766
 20.745
 19.0919
 18.9839
 19.0949
 19.0926
 19.5238
 19.6264
 19.5457
 19.5925
 19.4949
 19.6014
 19.618
 19.6615
 19.5282
 19.5703
 21.5592
 21.5274
 21.4807
 21.5156
 18.1689
 18.074
 18.1565
 20.0157
 20.0246
 20.031
 20.0933
 19.7629
 19.8229
 19.7648
 20.7527
 20.7013
 20.7843
 20.7596
 20.5591
 20.6273
 20.5786
 20.5977
 20.0427
 20.0208
 19.9635
 20.4665
 20.5052
 18.8603
 18.9077
 18.7986
 17.7529
 17.7285
 17.8091
 17.7655
 20.5607
 20.6295
 20.6297
 20.534
 19.7695
 19.7056
 19.6852
 19.7635
 18.6841
 18.6641
 18.7357
 18.7376
 20.4948
 20.4685
 20.5231
 20.4197
 20.3157
 20.2745
 20.2506
 20.1895
 18.543
 18.6147
 18.704
 18.6891
 20.3376
 20.2561
 18.2915
 18.3206
 18.2459
 19.3997
 19.464
 21.0261
 21.0641
 21.0728
 21.0958
 20.0257
 19.993
 19.9719
 19.9884
 21.0851
 21.1205
 21.0837
 19.8094
 19.8239
 19.2381
 19.1912
 19.1074
 19.2316
 20.015
 20.0098
 19.0859
 19.0122
 20.0851
 20.1303
 20.092
 20.0674
 19.0904
 19.1538
 19.0672
 19.0456
 18.7628
 18.6764
 18.6016
 18.6593
 17.9398
 17.9257
 17.9684
 17.9621
 19.7283
 19.6872
 20.5294
 20.5305
 20.6468
 20.6786
 18.7093
 18.7951
 20.7126
 20.6426
 20.6873
 21.4186
 21.4059
 21.3036
 21.3473
 21.5329
 21.4815
 21.5128
 19.5941
 19.5052
 19.5121
 19.5258
 20.074
 20.0093
 20.0622
 20.5918
 20.2861
 20.2289
 20.3179
 20.2408
 20.6073
 20.5568
 20.6579
 20.5881
 20.1275
 20.185
 20.1149
 20.1818
 19.0036
 19.1449
 19.1419
 19.0259
 17.9362
 17.9712
 17.974
 17.8916
 19.9012
 19.9236
 19.8202
 19.8502
 18.5486
 18.5896
 18.4525
 18.4788
 20.2928
 18.9667
 19.0764
 19.0249
 19.043
 21.0045
 21.0477
 21.008
 21.0075
 18.9426
 18.8647
 18.858
 20.1854
 18.2212
 18.2125
 18.2594
 18.1296
 18.0407
 18.0331
 18.0281
 18.038
 18.1416
 18.0662
 18.0394
 19.6427
 19.6553
 19.6378
 19.7309
 18.1172
 18.108
 18.0711
 18.0734
 20.6
 20.6481
 20.6618
 20.6769
 19.147
 19.1798
 19.1722
 19.2527
 19.9175
 19.83
 19.845
 19.91
 21.2768
 21.224
 21.271
 19.2513
 19.79
 19.8098
 19.8432
 19.7534
 18.0919
 18.0245
 18.0242
 18.0017
 18.079
 18.0218
 17.9516
 17.9804
 19.1801
 19.2041
 19.1544
 19.2156
 20.2734
 20.3222
 20.3477
 20.3205
 19.9938
 19.914
 19.9665
 18.1818
 18.1379
 18.1917
 18.2724
 18.0411
 17.9926
 18.0076
 18.0641
 20.6215
 20.6584
 20.6582
 18.6106
 18.5398
 18.0869
 18.1115
 18.097
 20.5777
 20.6257
 20.5411
 20.5356
 18.8534
 18.737
 18.8761
 18.8927
 20.0229
 19.3851
 19.3665
 19.3203
 19.3822
 19.1878
 19.2527
 19.1732
 19.298
 18.0685
 18.0242
 18.4298
 18.3303
 18.3982
 18.3199
 18.4539
 18.3378
 18.3878
 18.301
 18.5289
 18.6145
 18.4997
 18.6013
 18.8554
 18.7934
 18.844
 18.8051
 21.1634
 21.0804
 18.139
 18.1044
 18.0489
 20.8741
 20.8897
 20.8712
 20.4087
 20.5051
 20.5248
 20.4371
 18.7932
 18.8428
 18.7823
 18.7079
 19.8749
 19.9488
 19.9158
 19.9068
 17.6911
 17.766
 17.6869
 17.6232
 19.4245
 19.4439
 19.3904
 19.4118
 18.5096
 18.4487
 18.5209
 19.0685
 19.0703
 19.4474
 19.5651
 19.4749
 19.4755
 19.5631
 19.6753
 19.5789
 19.6433
 20.6844
 20.6482
 20.6385
 19.1517
 19.0831
 19.1174
 19.0518
 20.1024
 20.0702
 20.0147
 18.2865
 18.3054
 18.1992
 18.3273
 18.0262
 19.3191
 19.4289
 19.4407
 19.3678
 19.0926
 19.0372
 19.0289
 19.0563
 19.1967
 19.2422
 19.2716
 22.0732
 22.1215
 22.0569
 22.0578
 20.4322
 20.3728
 20.786
 20.8484
 19.8008
 19.9183
 19.889
 19.8358
 22.4149
 22.3895
 17.7494
 17.7218
 17.6949
 17.6271
 18.8344
 18.6821
 20.6982
 20.7098
 20.6651
 20.6675
 19.7947
 19.785
 19.728
 19.7544
 18.4508
 18.3696
 18.4044
 18.494
 20.3513
 20.3783
 20.3182
 20.3437
 19.8695
 19.9241
 19.8403
 19.8768
 18.3816
 18.3376
 18.3348
 18.2563
 19.8799
 19.8539
 19.8488
 19.9507
 17.967
 18.0447
 18.0216
 18.0522
 19.1601
 19.0969
 19.1171
 20.4375
 20.437
 20.5378
 20.4506
 19.2826
 19.3561
 19.3072
 19.3599
 19.5136
 19.5721
 20.1556
 20.044
 20.027
 19.1184
 19.1367
 19.0455
 19.0297
 17.8924
 17.8993
 17.8199
 17.8202
 18.232
 18.1691
 18.1157
 18.2471
 20.5129
 20.5248
 20.5881
 20.5645
 20.8582
 20.8649
 20.8824
 20.873
 20.6723
 20.7635
 20.6945
 20.7332
 20.9293
 20.9195
 20.9485
 19.6245
 19.6401
 19.6219
 19.7324
 18.6157
 18.5755
 18.8739
 18.7712
 18.8355
 18.8388
 18.6801
 18.6259
 18.7207
 20.4525
 20.5113
 20.4889
 20.5332
 19.6516
 19.638
 19.5872
 19.6012
 17.6887
 17.6795
 17.6555
 17.606
 19.4623
 19.5048
 19.5395
 19.457
 19.3481
 19.4379
 19.3387
 19.4161
 18.2019
 18.1535
 18.2266
 18.2239
 20.7345
 20.8369
 20.8
 20.7622
 18.8679
 18.88
 20.7773
 20.8294
 18.5164
 18.5978
 18.524
 18.4562
 19.5078
 19.5204
 19.4863
 19.5851
 21.0489
 20.9796
 21.0263
 20.8011
 20.827
 20.8567
 20.8579
 20.2373
 20.3232
 19.5033
 19.5389
 19.4822
 19.5322
 19.0668
 19.078
 19.0168
 20.0146
 20.0783
 20.0759
 20.0041
 20.0766
 19.9659
 20.0796
 20.0067
 18.7213
 18.8013
 18.7728
 18.7666
 20.9514
 20.9548
 20.9247
 17.8159
 17.795
 17.91
 17.8903
 19.2338
 19.2572
 19.2436
 20.557
 20.5304
 20.5047
 18.0425
 18.0418
 18.1203
 18.0018
 18.5414
 20.2556
 20.3391
 20.3266
 20.298
 18.116
 18.2596
 18.2043
 18.1385
 19.221
 19.1251
 19.1572
 17.8651
 17.8503
 17.8496
 17.8568
 18.1382
 18.2018
 18.1964
 18.113
 18.0823
 21.0362
 20.9896
 19.7929
 19.8186
 19.7206
 19.7794
 21.1461
 21.1914
 21.188
 21.1644
 20.1837
 19.2133
 19.1811
 19.3024
 18.873
 18.8078
 18.7416
 18.8701
 20.1751
 20.1644
 20.2208
 20.2419
 20.4092
 20.4268
 19.3016
 19.261
 19.261
 20.3286
 20.3718
 20.3201
 20.2772
 20.4181
 20.4144
 20.378
 20.3595
 18.0804
 18.0414
 20.1467
 20.0898
 20.1426
 20.1527
 20.9376
 20.8264
 20.9373
 20.8509
 20.4344
 20.4223
 20.2756
 20.3983
 20.9178
 20.9666
 20.9174
 18.6092
 18.6858
 18.5869
 18.9085
 18.9018
 18.1372
 18.1165
 18.1833
 20.6712
 20.7515
 20.7265
 20.7407
 20.5828
 20.5438
 20.5131
 22.1691
 22.0877
 22.164
 22.2059
 18.6572
 18.7733
 18.6558
 18.6033
 20.3192
 20.2859
 20.3273
 20.2162
 19.2414
 19.3041
 19.2797
 19.2326
 18.7227
 18.7458
 18.8323
 18.7838
 20.5653
 20.5596
 20.5319
 20.4989
 19.8123
 19.7454
 19.8178
 18.9564
 18.9433
 18.8895
 19.2111
 19.2167
 19.2422
 19.1512
 19.8572
 19.9396
 19.9433
 19.9342
 19.1922
 19.1524
 19.1219
 20.9474
 20.8184
 20.9261
 20.9111
 19.709
 19.702
 19.6875
 19.766
 20.6154
 20.6824
 20.6799
 20.6548
 20.7241
 20.8266
 20.7087
 20.7317
 17.5768
 17.4654
 17.6181
 20.621
 20.6786
 20.6244
 17.5957
 18.5789
 18.5656
 18.6776
 18.6366
 20.802
 18.897
 20.2759
 20.2852
 20.335
 20.3206
 20.9474
 20.9929
 21.0278
 20.9883
 19.0586
 19.8437
 17.825
 17.8518
 17.8429
 17.8587
 22.0914
 22.0404
 22.0632
 20.304
 20.364
 20.3815
 20.8683
 20.9334
 17.4364
 17.3838
 17.5038
 17.4588
 19.9969
 20.1127
 20.0378
 20.0187
 18.4916
 18.4025
 18.3952
 19.1812
 19.2499
 19.016
 19.0507
 18.9239
 19.0064
 18.062
 18.1226
 18.1433
 18.084
 19.842
 19.8452
 19.7354
 19.7734
 18.2307
 18.1814
 18.2661
 18.2212
 19.681
 19.6319
 19.5529
 19.6571
 18.716
 18.7016
 18.6644
 18.7592
 18.5883
 18.676
 18.5957
 18.4335
 20.4775
 20.5838
 20.4519
 20.4112
 19.5985
 17.9515
 17.8229
 17.8784
 17.8599
 19.3865
 19.3696
 19.4699
 19.3417
 19.2595
 19.2494
 20.6689
 20.7155
 20.7358
 20.6511
 20.1827
 20.2524
 20.1808
 19.6433
 19.6623
 19.6926
 19.7416
 17.6587
 17.7507
 17.764
 17.7348
 20.3728
 20.3742
 20.429
 20.4456
 18.9103
 19.0278
 19.0227
 18.9753
 19.6978
 19.6814
 19.7442
 20.7336
 20.6662
 20.696
 20.6804
 21.3736
 21.3619
 21.4416
 21.3341
 20.197
 20.2592
 20.2813
 18.4214
 18.4187
 18.3649
 19.3974
 18.7326
 18.833
 18.788
 18.7886
 20.3552
 20.3769
 20.3668
 20.3688
 18.2828
 18.1442
 18.2163
 18.2418
 19.4821
 19.595
 19.0802
 19.1327
 19.1081
 19.0652
 19.0076
 19.036
 19.1657
 21.4792
 21.4449
 21.5414
 21.4743
 17.3588
 17.2077
 17.2566
 17.3456
 20.1569
 20.0882
 20.1203
 20.5237
 20.4749
 20.5786
 20.4531
 18.9917
 19.092
 19.0494
 21.887
 21.9486
 21.9854
 21.9245
 18.7518
 18.7492
 18.6307
 18.608
 18.6837
 18.6663
 20.8331
 20.8809
 20.8548
 20.9001
 20.6613
 20.6604
 20.6321
 20.69
 21.2188
 21.1571
 21.1215
 21.2141
 19.8587
 21.276
 21.2219
 21.2326
 21.206
 18.7028
 18.7912
 18.8053
 18.8418
 20.6392
 20.5633
 18.8787
 18.8282
 18.8303
 18.9268
 18.4091
 18.3602
 18.4121
 18.3678
 17.706
 17.6516
 17.6617
 17.552
 22.0756
 22.1006
 22.019
 19.2309
 19.147
 19.1754
 19.189
 18.5609
 18.5402
 18.619
 18.5756
 21.4943
 21.4424
 21.4217
 21.5
 19.2504
 18.7175
 18.684
 18.6572
 18.7423
 18.1113
 18.0681
 18.112
 19.8524
 19.8231
 19.8323
 19.7794
 17.7965
 17.6801
 17.6295
 17.6843
 19.3828
 19.3439
 19.3868
 19.3982
 19.2867
 20.41
 20.5038
 20.3911
 19.4564
 19.546
 19.5103
 19.423
 19.5381
 19.5143
 19.4812
 19.5842
 20.1555
 20.25
 20.223
 20.9036
 21.3396
 21.2753
 21.4046
 19.0999
 19.0375
 19.0671
 18.7545
 18.7327
 18.7792
 20.4823
 20.4055
 20.4488
 20.3402
 18.9013
 18.9528
 18.2123
 18.2535
 18.2848
 18.2489
 17.9798
 18.0024
 18.0067
 18.3141
 18.2536
 19.1734
 19.1091
 19.1641
 18.427
 18.5367
 18.4677
 20.6367
 21.9322
 21.9655
 21.9075
 21.9193
 19.276
 19.2543
 19.3231
 19.3031
 21.7448
 21.7258
 21.6597
 21.754
 18.8361
 18.832
 18.7834
 19.623
 19.6569
 19.7173
 19.7329
 20.3592
 20.3094
 20.4315
 20.389
 19.3417
 19.3186
 19.2486
 18.7994
 18.7432
 19.7796
 19.6931
 19.7567
 19.7394
 20.1392
 20.0864
 20.1211
 20.6476
 20.6428
 20.6391
 19.2207
 19.1999
 19.1416
 19.2446
 18.6685
 18.584
 18.6477
 18.6002
 17.355
 17.4182
 17.3263
 17.4086
 19.5213
 19.5321
 17.3105
 17.3811
 17.416
 19.0435
 20.8316
 20.7717
 20.7165
 20.7464
 20.3557
 20.3042
 20.3543
 20.3202
 19.078
 19.134
 19.0991
 18.2345
 18.1678
 20.9021
 20.8767
 20.9444
 20.859
 18.7606
 18.7976
 20.8381
 20.8716
 19.384
 19.3908
 19.4288
 21.0134
 21.0685
 20.9832
 20.3366
 20.3498
 20.381
 20.3741
 18.2324
 18.2264
 18.1856
 18.2405
 19.9915
 19.9821
 19.9758
 19.8167
 19.918
 19.8614
 19.8521
 18.0311
 18.1313
 18.1297
 18.1415
 21.3854
 21.3575
 21.411
 19.6346
 19.7172
 19.6783
 18.6356
 18.5866
 18.9477
 18.9668
 19.0512
 19.0358
 21.5214
 21.4685
 21.4868
 21.51
 20.434
 20.4319
 20.423
 20.3687
 18.5251
 18.4957
 18.4624
 18.4513
 18.4509
 18.4858
 18.483
 18.531
 19.9023
 19.988
 19.9117
 19.9309
 17.5988
 17.471
 17.4978
 17.5919
 20.6229
 20.5627
 20.6477
 21.5501
 21.6126
 21.5958
 19.3625
 19.3235
 18.9405
 18.9202
 18.9821
 18.9452
 18.2638
 18.3067
 18.1837
 18.1791
 20.0832
 19.5336
 19.9256
 19.8621
 19.8274
 19.7841
 22.1749
 22.2588
 22.2491
 22.1617
 18.6813
 18.7152
 20.4491
 20.4144
 20.367
 20.1984
 20.231
 20.1498
 20.1267
 20.8338
 20.8886
 20.0923
 20.1036
 20.151
 20.0606
 20.6889
 20.7431
 20.3508
 20.3108
