 12.6443
 12.4814
 12.5241
 12.4134
 9.38758
 9.35788
 9.25185
 9.19618
 10.3076
 10.4262
 10.2778
 10.4311
 10.1758
 10.2799
 10.342
 10.3858
 8.11753
 7.95619
 8.19923
 8.2468
 8.21026
 8.35065
 8.10414
 8.29827
 13.2455
 13.3633
 13.3255
 13.2469
 13.2031
 13.1546
 13.154
 13.2351
 8.12597
 8.19283
 8.34487
 8.18319
 8.26987
 8.24564
 8.30308
 8.06171
 13.6397
 13.7115
 13.6007
 13.5794
 10.2606
 10.2486
 10.3704
 10.2897
 12.0386
 12.0582
 12.1519
 11.9512
 9.33884
 9.53424
 9.5949
 9.47494
 10.8657
 10.8931
 10.8157
 10.7185
 12.8712
 12.9585
 12.8086
 12.9539
 8.7223
 8.61482
 8.71777
 8.54763
 9.92668
 10.01
 9.89027
 9.98254
 10.8453
 10.8163
 10.7956
 10.7169
 8.70615
 8.71733
 8.64248
 8.52456
 13.137
 13.2712
 13.128
 13.2239
 7.71987
 7.7161
 7.55122
 7.52767
 14.5897
 14.6584
 14.6594
 14.5622
 9.69887
 9.62602
 9.75825
 9.78055
 11.0362
 11.1144
 10.9958
 10.9627
 10.6703
 10.6493
 10.7209
 10.7609
 11.5836
 11.4522
 11.3907
 11.566
 12.9011
 12.9905
 12.8851
 12.892
 12.1163
 12.1489
 12.2604
 12.1908
 9.49094
 9.51532
 9.57001
 9.66659
 10.9657
 10.7585
 11.0007
 10.9331
 12.0271
 11.925
 11.9332
 12.0222
 9.99991
 10.1473
 9.99229
 10.1188
 9.34578
 9.41468
 9.41616
 9.39631
 12.04
 12.1694
 12.0274
 12.2234
 12.7479
 12.7587
 12.7768
 12.7712
 10.0724
 10.2479
 10.1115
 10.1353
 13.4144
 13.3659
 13.3424
 13.325
 9.75675
 9.73842
 9.50117
 9.56039
 7.25785
 7.43077
 7.31236
 7.46334
 10.5156
 10.5552
 10.4905
 10.659
 9.58595
 9.46757
 9.51773
 9.58811
 13.2918
 13.2957
 13.1965
 13.3713
 9.98543
 10.1012
 10.0512
 9.92155
 8.14806
 8.20162
 8.05817
 8.14543
 12.3579
 12.2589
 12.3028
 12.3487
 9.99868
 9.79686
 9.85056
 9.81851
 12.7246
 12.617
 12.7006
 12.8156
 12.0163
 12.0948
 12.1378
 12.1722
 10.8325
 10.9313
 10.9499
 11.0607
 12.9218
 12.9669
 13.0026
 12.9117
 10.6079
 10.7244
 10.7093
 10.6305
 11.7966
 11.9281
 11.7807
 11.9796
 10.5012
 10.4242
 10.5001
 10.43
 12.1671
 12.0648
 12.1411
 11.9897
 10.3427
 10.3606
 10.2471
 10.4488
 9.64585
 9.63899
 9.55484
 9.47036
 9.54358
 9.64341
 9.57638
 9.76428
 12.2725
 12.3
 12.4357
 12.2225
 11.5295
 11.5963
 11.5876
 11.4371
 14.4014
 14.4574
 14.519
 14.4421
 12.1646
 12.2004
 12.3081
 12.182
 11.0108
 10.8356
 10.9242
 10.8967
 11.7761
 11.7795
 11.6049
 11.8653
 11.9014
 11.7744
 11.9138
 11.7971
 13.0306
 13.0985
 13.0069
 13.0053
 8.62471
 8.451
 8.37835
 8.63508
 8.18201
 8.12026
 8.0503
 8.00001
 10.7365
 10.5779
 10.8457
 10.7539
 12.1174
 12.1524
 12.0703
 12.2174
 9.72026
 9.65946
 9.58416
 9.72915
 13.0815
 13.3148
 13.222
 13.2171
 13.1412
 13.2313
 13.2778
 13.1244
 14.611
 14.6848
 14.5915
 14.6109
 10.4218
 10.2615
 10.3624
 10.233
 12.3419
 12.2112
 12.1867
 12.3253
 12.615
 12.7009
 12.5643
 12.5471
 7.8755
 7.70515
 7.76863
 7.68338
 12.8536
 12.9064
 12.9986
 12.878
 12.6318
 12.6918
 12.7604
 12.6398
 12.4199
 12.3308
 12.4355
 12.53
 11.3164
 11.3454
 11.2367
 11.2545
 12.5535
 12.4194
 12.5176
 12.4737
 12.0388
 11.9753
 11.9378
 12.0011
 11.5235
 11.5596
 11.6107
 11.6545
 12.791
 12.9319
 12.7591
 12.9167
 14.8674
 14.8853
 14.7673
 14.7653
 13.0456
 13.0023
 12.9289
 12.9912
 10.313
 10.4112
 10.2717
 10.478
 10.292
 10.3488
 10.239
 10.3648
 9.591
 9.68571
 9.70719
 9.57773
 13.3025
 13.3176
 13.2831
 13.2337
 7.54114
 7.5622
 7.68134
 7.44608
 9.75452
 9.62829
 9.7767
 9.73466
 13.3728
 13.3683
 13.4731
 13.492
 11.9669
 11.976
 12.02
 11.8174
 12.6742
 12.588
 12.7731
 12.7013
 12.6434
 12.6998
 12.7089
 13.2617
 13.2751
 13.2883
 13.3338
 10.0134
 10.1013
 10.1961
 9.96488
 11.5397
 11.3648
 11.4254
 11.5125
 10.2376
 10.099
 10.2155
 12.126
 12.289
 12.1801
 12.2271
 11.2354
 11.1269
 11.166
 11.3104
 8.86508
 9.09119
 9.07473
 8.78874
 13.0693
 13.0525
 12.9074
 12.9598
 12.7182
 12.799
 12.8634
 12.7868
 10.4194
 10.5725
 10.6001
 10.5433
 9.79068
 9.88188
 9.65643
 9.67126
 13.2645
 13.2425
 13.2892
 13.3686
 12.7792
 12.7444
 12.5622
 12.617
 11.6459
 11.5034
 11.423
 11.6238
 8.29777
 8.19878
 8.2552
 8.22483
 10.3665
 10.215
 10.1546
 10.229
 11.0972
 11.2946
 11.1346
 11.0983
 14.4328
 14.547
 14.4297
 14.434
 11.4088
 11.5053
 11.3531
 11.274
 8.86681
 9.0316
 8.86596
 9.07833
 12.4494
 12.6248
 12.3764
 12.4246
 12.8076
 12.7851
 12.9004
 12.833
 12.8407
 12.9531
 12.9242
 12.8937
 13.7974
 13.8082
 13.8053
 13.7536
 12.515
 12.6913
 12.6756
 12.6798
 10.3777
 10.3896
 10.3682
 10.475
 13.3156
 13.2762
 13.2419
 13.2014
 8.56833
 8.70493
 8.58763
 8.54554
 13.1216
 13.2619
 13.2487
 13.1325
 8.94215
 9.16881
 8.91716
 9.06268
 11.5461
 11.6506
 11.6459
 11.565
 11.8232
 11.7034
 11.666
 11.7822
 12.294
 12.2926
 12.1293
 12.2498
 12.5319
 12.5325
 12.6351
 12.6604
 7.71415
 7.56259
 7.51512
 7.5414
 12.4349
 12.5131
 12.4337
 12.4959
 7.28966
 7.4343
 7.33532
 7.54162
 9.75536
 9.80416
 9.62981
 9.75922
 14.1331
 14.0175
 14.0409
 14.1353
 7.97538
 8.00506
 7.88684
 7.83228
 12.8625
 12.7446
 12.853
 12.9493
 14.0949
 14.1676
 14.2042
 14.1024
 9.26295
 9.31525
 9.39266
 9.32269
 8.0262
 7.82406
 7.97959
 8.06488
 10.7509
 10.7269
 10.784
 10.8242
 9.44415
 9.6151
 9.40604
 9.59403
 12.7038
 12.8418
 12.7633
 12.7966
 10.5017
 10.5576
 10.5087
 10.3865
 11.9212
 11.9579
 11.8603
 11.8491
 13.1709
 13.113
 13.1974
 13.1984
 13.5715
 13.5948
 13.6043
 13.5
 11.4831
 11.5316
 11.4079
 11.5755
 11.0972
 11.1126
 11.149
 11.2379
 12.7413
 12.758
 12.6656
 12.6466
 12.7522
 12.9162
 12.767
 12.7838
 10.1997
 10.1734
 10.2779
 10.2803
 8.16478
 8.27324
 8.05532
 8.01049
 8.46228
 8.55451
 8.43033
 8.39042
 8.54659
 8.71582
 8.67724
 8.58125
 9.85735
 9.94565
 9.81824
 9.95165
 12.7548
 12.92
 12.7967
 12.8428
 12.6961
 12.6071
 12.5764
 12.5566
 11.1234
 11.1984
 11.3373
 11.3663
 9.7967
 9.87027
 9.67071
 9.77148
 9.85468
 9.93488
 9.87617
 9.77052
 10.7861
 10.9114
 10.8138
 10.787
 10.3492
 10.2274
 10.3785
 10.3544
 13.4233
 13.4357
 13.373
 13.271
 15.2267
 15.2944
 15.2156
 15.3318
 12.421
 12.4321
 12.5618
 12.4844
 14.9399
 14.8279
 14.8544
 12.5014
 12.532
 12.4561
 12.5898
 8.66065
 8.7621
 8.69432
 8.79296
 10.9196
 10.8576
 10.8175
 10.7133
 8.33799
 8.40669
 8.23985
 8.43345
 12.7928
 12.7749
 12.9067
 12.8002
 9.89302
 9.90386
 9.67426
 9.7336
 10.7484
 10.775
 10.9242
 10.832
 7.78774
 7.68956
 7.64907
 7.93292
 9.23184
 9.26359
 9.19761
 9.06686
 12.391
 12.2697
 12.3518
 12.3956
 9.849
 9.86496
 10.0001
 9.83294
 8.97717
 9.20578
 9.08455
 9.16976
 14.0689
 14.1975
 14.1605
 14.1896
 10.9539
 10.9045
 10.8183
 10.8003
 8.97876
 8.91917
 8.89818
 9.02973
 10.2435
 10.1186
 10.3347
 10.0382
 8.98692
 9.1504
 8.96864
 8.97897
 12.6454
 12.5332
 12.4699
 12.4869
 9.17072
 8.90131
 9.19621
 8.95468
 11.5443
 11.4757
 11.6802
 11.5491
 11.2946
 11.2431
 11.1581
 11.3253
 9.24128
 9.29965
 9.40583
 9.16675
 7.33459
 7.46248
 7.46931
 7.3777
 13.4517
 13.3865
 13.3234
 13.2848
 12.0896
 11.9713
 11.9135
 12.0602
 10.431
 10.5221
 10.5808
 10.5417
 9.29615
 9.19112
 9.22634
 9.17842
 12.3813
 12.4842
 12.4357
 12.4247
 13.2196
 13.0915
 13.03
 13.1922
 9.76535
 9.75571
 9.94686
 9.92611
 10.1227
 10.0014
 10.1298
 10.0739
 7.93492
 7.79396
 7.6697
 7.92301
 12.9422
 12.7888
 12.9731
 12.8744
 8.07802
 7.9327
 7.95761
 8.05106
 12.1002
 11.9701
 12.0682
 12.1091
 15.1523
 15.1646
 15.1142
 15.0922
 8.60101
 8.52494
 8.42543
 8.50509
 10.0413
 9.9616
 10.1208
 10.2444
 8.70156
 8.68051
 8.78345
 8.7933
 11.2025
 11.3514
 11.252
 11.1895
 11.4884
 11.422
 11.394
 11.4704
 9.43229
 9.61508
 9.59951
 9.53633
 12.7744
 12.7139
 12.8331
 12.7473
 13.0041
 12.9377
 12.9244
 12.9824
 14.5566
 14.6091
 14.6229
 14.6433
 10.6627
 10.5747
 10.5129
 10.4559
 11.0668
 11.1224
 10.9023
 11.0519
 10.3101
 10.5287
 10.3693
 10.2667
 12.0168
 11.8354
 11.8169
 12.0414
 8.0575
 8.06434
 7.96708
 8.22832
 8.00519
 7.74965
 8.00159
 8.03792
 10.1855
 10.1184
 10.0059
 9.99461
 15.8362
 15.8523
 15.8173
 15.7544
 11.5479
 11.6255
 11.5251
 11.694
 11.4872
 11.5209
 11.665
 11.5205
 11.5572
 11.5258
 11.6888
 11.6793
 9.26231
 9.32946
 9.13342
 9.34459
 14.2934
 14.1745
 14.3573
 14.2956
 14.6262
 14.6413
 14.7137
 14.7591
 9.14084
 9.25443
 9.14278
 9.30902
 12.2106
 12.0536
 12.2687
 12.0795
 11.8261
 11.8549
 11.8009
 11.7951
 10.0179
 10.0777
 10.1344
 10.2708
 12.9276
 12.859
 12.8153
 12.8811
 9.17242
 9.29557
 9.27984
 9.15762
 11.9844
 12.2009
 12.1031
 12.2727
 12.1641
 12.1806
 12.286
 12.1993
 13.232
 13.2977
 13.174
 13.3075
 11.679
 11.5172
 11.6068
 11.4945
 8.88203
 8.80227
 8.81921
 8.9257
 9.89752
 9.74073
 9.68491
 9.82907
 12.8875
 12.9029
 12.797
 12.7972
 12.4027
 12.2496
 12.2496
 12.3964
 8.46751
 8.40049
 8.28977
 8.36564
 9.2865
 9.41122
 9.34229
 9.37791
 11.4353
 11.4881
 11.5692
 11.4831
 13.3551
 13.3274
 13.3346
 13.2871
 13.866
 13.6944
 13.7332
 13.8452
 10.131
 10.2835
 10.3477
 10.2162
 13.0938
 13.2039
 13.0992
 13.3205
 8.64723
 8.84104
 8.83011
 8.66274
 10.4497
 10.2547
 10.367
 10.4843
 9.15836
 9.20602
 9.26499
 9.18538
 9.80931
 9.99339
 9.97509
 9.86252
 11.5208
 11.6004
 11.5116
 11.425
 12.6565
 12.8661
 12.8181
 12.7273
 13.6771
 13.5063
 13.655
 13.6391
 13.2787
 13.4279
 13.2662
 13.3133
 12.6938
 12.8236
 12.8472
 12.772
 11.3144
 11.2659
 11.268
 11.4927
 11.3388
 11.2588
 11.2814
 11.3977
 11.1946
 11.3087
 11.0914
 11.2101
 10.2384
 10.3196
 10.1781
 10.2049
 14.1982
 14.3147
 14.2592
 14.2696
 10.848
 10.8084
 10.8713
 10.7277
 12.9104
 13.034
 12.9794
 12.9509
 11.8525
 11.6789
 11.8058
 11.7125
 8.13148
 8.39964
 8.17454
 8.25062
 11.3071
 11.3746
 11.38
 11.4391
 13.1251
 13.1918
 13.1537
 13.2831
 11.7961
 11.8305
 11.7237
 11.6556
 12.6233
 12.554
 12.5601
 12.6673
 11.4295
 11.5958
 11.4293
 11.5641
 14.1417
 14.2313
 14.188
 14.0993
 11.851
 11.8396
 11.7398
 11.7213
 10.1061
 10.1446
 10.033
 10.1495
 10.306
 10.2909
 10.2335
 10.2818
 8.33169
 8.64072
 8.39893
 8.51415
 12.3758
 12.3929
 12.2718
 12.3571
 12.6538
 12.5712
 12.672
 12.4471
 8.31168
 8.52847
 8.31788
 8.3587
 12.6191
 12.6158
 12.4879
 12.6133
 8.95399
 9.01034
 8.84117
 9.02574
 10.8667
 10.6671
 10.786
 10.6935
 11.3391
 11.5318
 11.3538
 11.308
 12.7352
 12.6035
 12.6192
 12.7379
 11.436
 11.432
 11.2657
 11.4208
 8.89964
 8.94504
 8.88077
 8.86203
 15.2305
 15.1938
 15.1655
 15.2975
 13.4041
 13.4303
 13.4309
 13.3923
 13.2846
 13.2606
 13.2882
 13.3716
 12.2044
 12.1455
 12.272
 12.0931
 11.8627
 11.9697
 11.8903
 11.9532
 12.3411
 12.4139
 12.4435
 12.3309
 7.91756
 7.99126
 7.7272
 8.00717
 12.7858
 12.8688
 12.8614
 12.6939
 10.3507
 10.343
 10.2896
 10.445
 11.2386
 9.18058
 9.3457
 9.32526
 9.36096
 10.5155
 10.3897
 10.2854
 10.3842
 13.5381
 13.4726
 13.4468
 13.4962
 12.0895
 12.1443
 12.0413
 11.9588
 12.4419
 12.5687
 12.4841
 12.4745
 8.85595
 9.026
 8.99585
 8.97723
 11.7157
 11.9125
 11.7737
 11.8297
 8.69569
 8.6721
 8.84906
 8.82135
 9.875
 9.78428
 9.94237
 9.7456
 13.4854
 13.4053
 13.4512
 13.3071
 12.7225
 12.852
 12.6388
 12.7284
 10.2284
 10.132
 10.1103
 10.219
 11.396
 11.5634
 11.3804
 13.2009
 13.2564
 13.209
 13.1532
 10.1389
 10.395
 10.2228
 10.3426
 12.4887
 12.6351
 12.6103
 12.5442
 11.4396
 11.6338
 11.5316
 11.4218
 8.51562
 8.51645
 8.75466
 8.55871
 12.228
 12.28
 12.3572
 12.2504
 9.2273
 9.42321
 9.26982
 9.20782
 11.1978
 11.2999
 11.2049
 11.3608
 9.50397
 9.60635
 9.74134
 9.64819
 8.7015
 8.69939
 8.51272
 8.59695
 12.1445
 12.1642
 12.0615
 12.0711
 15.1655
 15.0214
 15.0347
 14.9611
 7.6702
 7.77781
 7.78059
 7.80514
 10.2712
 10.343
 10.3989
 10.3113
 12.9317
 12.9472
 12.7207
 12.8962
 11.8292
 11.7193
 11.7033
 11.8352
 13.9903
 13.9599
 13.974
 14.0643
 8.68213
 8.58304
 8.38644
 8.53976
 13.2688
 13.3469
 13.3062
 13.2915
 10.7338
 10.6009
 10.7956
 10.6963
 12.8097
 13.0382
 12.856
 12.8712
 7.51491
 7.5433
 7.53217
 7.70887
 7.72538
 7.76875
 7.8768
 7.98934
 9.74883
 9.89184
 9.93585
 9.71218
 10.6489
 10.5963
 10.635
 10.745
 10.6114
 13.0369
 13.014
 13.1494
 13.062
 12.8752
 12.9211
 12.962
 12.8384
 10.0954
 9.95988
 9.95236
 9.93662
 13.1021
 13.0007
 12.9998
 13.1079
 12.6127
 12.6554
 12.6708
 12.557
 9.80664
 9.7501
 9.77144
 9.9185
 12.0644
 11.9078
 12.0632
 11.9132
 10.0895
 10.0768
 10.0623
 9.95304
 12.5574
 12.587
 12.6835
 12.5774
 12.2423
 12.1597
 12.1281
 12.1162
 11.5987
 11.4603
 11.6468
 11.5098
 10.6924
 10.5311
 10.6171
 10.4652
 9.36415
 9.44231
 9.2095
 9.24827
 10.8395
 10.8811
 10.9582
 10.9404
 10.8785
 10.7995
 10.7675
 10.7964
 13.55
 13.5527
 13.4874
 13.4486
 10.3209
 10.3059
 10.2327
 10.2864
 11.2472
 11.2183
 11.151
 11.2494
 11.0906
 11.108
 11.2018
 11.1228
 12.0579
 12.0243
 12.1591
 12.0706
 13.2035
 13.2171
 13.1529
 13.3157
 9.64399
 9.68723
 9.60691
 9.55669
 13.1603
 13.2484
 13.2179
 13.0738
 7.92078
 7.93487
 7.7115
 7.8433
 9.32512
 9.43369
 9.24167
 9.31244
 9.25509
 9.2299
 9.21913
 9.27829
 9.0217
 9.08999
 9.10635
 8.93191
 9.89335
 9.82266
 9.96195
 9.82337
 13.9933
 14.0588
 14.1684
 10.9317
 11.1268
 10.9615
 10.984
 9.40671
 9.47556
 9.52145
 9.42169
 12.1268
 12.271
 12.1947
 12.1615
 12.5755
 12.5351
 12.6242
 12.5207
 9.81529
 9.78803
 9.67832
 9.94703
 11.6168
 11.6531
 11.607
 11.4823
 12.4619
 12.4519
 12.5055
 12.5189
 7.97538
 7.76221
 10.3724
 10.3918
 10.5448
 10.5229
 11.5438
 11.5909
 11.6666
 10.821
 10.7727
 10.794
 10.9376
 13.701
 13.7457
 13.6212
 13.6366
 9.22642
 9.11613
 9.11533
 9.29194
 10.8729
 10.9093
 10.9918
 10.9719
 12.1395
 12.2483
 12.1824
 12.0685
 11.0019
 11.142
 11.098
 11.0352
 13.1556
 13.2167
 13.1098
 13.1632
 13.4177
 13.2188
 13.3644
 13.3266
 11.6213
 11.5152
 11.4724
 11.5507
 13.0799
 13.1068
 13.094
 13.0023
 11.4383
 11.5089
 11.4809
 11.5324
 9.01327
 9.05316
 9.22615
 9.24452
 13.0236
 12.9527
 12.9016
 12.9797
 14.52
 14.421
 14.4763
 14.4228
 10.4509
 10.7135
 10.5613
 10.4983
 11.7813
 11.6868
 11.8048
 11.6889
 13.1569
 13.1757
 13.0584
 13.0822
 11.5386
 11.6074
 11.4648
 11.487
 8.63351
 8.68477
 8.58812
 8.61842
 12.6891
 12.6981
 12.7584
 12.7008
 10.5572
 10.6415
 10.6379
 10.6859
 11.8553
 11.7036
 11.8049
 11.6223
 9.94577
 9.83739
 9.84773
 9.74028
 9.09065
 9.10369
 9.02039
 9.16178
 12.9511
 12.8512
 12.9163
 12.7431
 12.283
 12.1879
 12.2125
 12.2417
 10.6728
 10.6878
 10.8639
 10.7507
 13.2182
 13.1712
 13.1898
 13.1526
 15.1653
 15.2552
 15.2479
 15.1948
 11.0278
 11.1458
 11.1518
 11.1617
 15.3794
 15.4051
 15.3571
 15.29
 15.2016
 15.0943
 15.0945
 15.1456
 13.653
 13.581
 13.5923
 13.6859
 10.291
 10.393
 10.4815
 10.5326
 10.3819
 10.256
 10.2532
 10.1535
 10.158
 10.2796
 10.1877
 10.3441
 10.5121
 10.6658
 10.6347
 10.4568
 14.1262
 14.2081
 14.1505
 14.17
 12.9589
 13.0202
 12.8887
 12.9374
 12.9604
 13.1063
 13.0852
 13.0562
 12.0189
 11.8761
 12.0105
 11.8623
 10.8551
 10.9394
 10.8507
 10.9139
 9.94544
 9.96426
 10.0311
 9.90899
 12.7792
 12.6444
 12.6196
 12.7539
 10.255
 11.5566
 11.4577
 11.4559
 11.5371
 7.68631
 7.64729
 7.45223
 7.57322
 11.744
 11.7396
 11.6402
 11.7337
 8.75494
 8.5616
 8.70288
 13.05
 12.981
 12.9394
 13.0716
 14.934
 14.8387
 14.8744
 14.8149
 11.3631
 11.3818
 11.223
 11.4578
 12.0723
 12.2382
 12.201
 12.2216
 13.0846
 13.0027
 12.9328
 12.9022
 12.8685
 12.8256
 12.9309
 12.8132
 13.7859
 13.9485
 13.8509
 13.8528
 10.7059
 10.7286
 10.6289
 10.434
 11.4236
 11.2857
 11.4571
 11.3476
 12.4061
 12.5132
 12.4107
 12.4517
 11.6002
 11.7032
 11.4474
 9.63565
 9.7215
 9.75094
 12.6678
 12.6577
 12.8103
 12.8368
 13.8171
 13.8633
 13.8604
 13.8206
 12.457
 12.3766
 12.3833
 12.4855
 13.6843
 13.7892
 13.6629
 13.8326
 9.60263
 9.3718
 9.54181
 9.49782
 9.75881
 9.70059
 9.6538
 9.56453
 13.2218
 13.2676
 13.2466
 13.2622
 13.9039
 14.0444
 13.9523
 13.9118
 10.982
 11.1637
 11.0141
 11.0869
 8.15161
 8.29541
 8.07455
 8.25932
 13.771
 13.7731
 13.8318
 13.764
 10.2524
 10.402
 10.4092
 10.2229
 14.5978
 14.6606
 14.5882
 14.635
 9.95052
 9.85685
 9.98789
 9.74096
 11.9276
 12.031
 11.872
 12.0651
 9.62168
 9.61586
 9.45992
 9.47881
 13.0811
 13.0408
 13.0171
 12.9066
 12.1623
 12.2676
 12.251
 12.2612
 12.5935
 12.6368
 12.5123
 12.5137
 12.512
 12.5607
 12.4184
 12.617
 11.0363
 10.9475
 10.9663
 11.0895
 11.7003
 11.8134
 11.6838
 11.6921
 9.38316
 9.519
 9.59431
 9.53565
 7.89495
 7.75569
 8.06257
 8.07958
 11.8214
 11.8358
 11.9327
 11.8485
 9.02696
 9.08124
 9.15683
 8.92228
 10.0371
 9.83581
 9.76156
 9.85987
 14.1407
 14.199
 14.3005
 14.1616
 13.1913
 12.9887
 13.0273
 13.0907
 11.9657
 12.0561
 12.0921
 12.0386
 13.7462
 13.8247
 13.8472
 13.901
 10.9041
 10.7548
 10.775
 10.8391
 9.60211
 9.33807
 9.48425
 9.45071
 13.6793
 13.5255
 13.6676
 13.6813
 11.556
 11.4461
 11.5259
 11.5037
 12.473
 12.4896
 12.4853
 12.547
 15.1161
 15.0421
 15.0187
 15.103
 12.1975
 12.2185
 12.2243
 12.1133
 11.437
 11.3506
 11.3753
 11.3303
 10.1591
 10.0245
 10.1148
 9.98229
 12.6124
 12.5834
 12.5588
 11.416
 11.4407
 11.4756
 11.4458
 12.2636
 12.3206
 12.1125
 12.2338
 10.3865
 10.5194
 10.398
 10.463
 10.3234
 10.1611
 10.209
 10.2213
 8.73909
 8.85877
 8.77904
 8.96215
 12.8703
 12.8729
 12.7867
 12.8968
 8.187
 8.13977
 8.0756
 8.15197
 12.6771
 12.5685
 12.6657
 12.7299
 11.438
 11.2903
 11.3094
 11.23
 11.2724
 11.4237
 11.3634
 11.4482
 15.286
 15.3717
 15.2888
 15.314
 12.318
 12.3943
 12.3068
 12.2861
 11.4825
 11.5156
 11.3891
 11.2412
 11.5963
 11.5602
 11.5336
 11.7119
 7.66711
 7.6785
 7.83869
 7.72177
 12.6826
 12.5539
 12.4799
 12.6468
 12.5213
 12.5948
 12.4551
 12.6271
 10.0337
 9.87006
 9.99629
 9.92689
 12.9961
 13.0191
 13.0868
 13.0989
 13.0298
 13.0539
 12.9796
 13.0649
 10.403
 10.5808
 10.4199
 10.5263
 10.3596
 10.3516
 10.4777
 10.35
 11.1651
 11.1482
 10.9451
 11.0292
 12.5647
 12.6256
 10.718
 10.8293
 10.6551
 10.7985
 12.5446
 12.4763
 12.5483
 12.513
 11.8907
 11.754
 11.7064
 11.7483
 8.67951
 8.77763
 8.84599
 8.66388
 11.7612
 11.7211
 11.6552
 11.6293
 9.77802
 9.67103
 9.61071
 9.81744
 12.7366
 12.5397
 12.6086
 12.5504
 12.0991
 12.2181
 12.2337
 12.1811
 11.5245
 11.2912
 11.4134
 11.3943
 12.9334
 13.0382
 13.0789
 13.0021
 14.4516
 14.4048
 14.4619
 14.514
 8.37754
 8.4152
 8.49088
 8.42747
 13.6938
 13.699
 13.6484
 13.7337
 10.8163
 10.7617
 10.9026
 10.8946
 14.4514
 14.4373
 14.3916
 14.4983
 10.8073
 10.6663
 10.7574
 10.7755
 12.6638
 12.6775
 12.7205
 12.6999
 12.7103
 12.6742
 12.792
 12.721
 11.0929
 11.0422
 11.1981
 11.1043
 9.28108
 9.43655
 9.3019
 9.46673
 12.1393
 11.9446
 11.9763
 11.9779
 13.2513
 13.2893
 13.2451
 13.1891
 9.32743
 9.10651
 9.21292
 9.05692
 12.6279
 12.7018
 12.5555
 12.5415
 12.0408
 11.9175
 11.9518
 11.8754
 9.97915
 9.69127
 9.76016
 9.85238
 11.2353
 11.1068
 11.0671
 11.0651
 11.6568
 11.7072
 11.64
 11.5682
 8.68523
 8.58521
 8.49639
 8.43775
 9.28792
 9.22341
 9.23943
 9.31295
 10.9661
 10.9362
 11.1161
 11.0471
 11.6758
 11.6034
 11.7316
 11.4607
 12.3152
 12.2736
 12.2686
 12.1067
 13.2422
 13.25
 13.3394
 9.77073
 9.6904
 9.70461
 9.59779
 14.5089
 14.5729
 14.6704
 14.642
 10.1866
 10.3641
 10.269
 10.3077
 12.8489
 13.0007
 12.9174
 12.9063
 13.109
 13.2296
 13.1937
 13.2088
 8.99551
 9.15167
 9.07642
 8.86527
 11.2872
 11.3643
 11.2388
 11.3291
 11.5672
 11.6125
 12.5581
 11.8379
 11.7056
 11.8642
 11.7757
 14.46
 14.3744
 10.4273
 10.3734
 10.3239
 13.4368
 13.3797
 13.5217
 13.4368
 10.3009
 10.4571
 10.4096
 10.4013
 12.0296
 11.9062
 11.9426
 11.9566
 12.6028
 12.4185
 12.5274
 12.5046
 8.83042
 8.82883
 8.62415
 8.77362
 13.4159
 13.3073
 13.4254
 13.2956
 10.6079
 10.6114
 10.5614
 10.4781
 8.38827
 8.35928
 8.5544
 8.55617
 11.298
 11.4453
 11.3294
 11.4216
 10.5143
 10.7309
 10.6623
 10.6643
 11.5605
 11.4521
 11.5505
 11.7453
 7.66153
 7.98688
 7.70947
 7.98318
 7.96294
 7.94609
 8.03724
 8.17959
 8.26085
 8.34344
 8.35175
 8.24434
 11.8833
 11.9931
 11.8647
 11.8816
 10.8926
 11.0755
 11.0029
 10.9268
 11.7007
 11.7181
 11.8109
 11.7386
 11.954
 11.9858
 11.834
 12.0003
 10.266
 10.2264
 10.2057
 10.3707
 9.35396
 9.18691
 9.26376
 9.15939
 9.28909
 9.22732
 9.38316
 9.15095
 11.2473
 11.1768
 11.2774
 11.1886
 11.6452
 11.638
 11.6871
 11.7485
 12.7019
 12.7679
 12.7283
 12.5966
 9.85885
 9.7305
 9.72133
 9.90514
 13.6837
 13.6721
 13.7788
 13.6481
 9.73589
 9.65143
 9.73709
 9.75818
 11.0806
 10.8558
 11.0602
 10.9059
 11.1347
 11.0994
 11.1078
 11.2274
 13.3037
 13.3142
 13.3663
 13.4566
 15.524
 15.4546
 15.5542
 15.5422
 12.2665
 12.1434
 12.2645
 12.239
 9.67839
 9.85406
 9.78561
 9.68083
 13.0768
 13.1879
 13.1073
 13.027
 10.8695
 10.7931
 10.9592
 10.7946
 10.7183
 10.6149
 10.478
 10.5278
 10.0017
 9.92434
 10.141
 10.0782
 13.9093
 13.9666
 13.9721
 13.8869
 13.8834
 13.8658
 13.9178
 13.9417
 9.6242
 9.40855
 9.48018
 9.5199
 10.2528
 10.4585
 10.4807
 10.3501
 12.3575
 12.3391
 12.4086
 12.4054
 11.5179
 11.5548
 11.431
 11.3623
 11.1462
 11.117
 11.1251
 11.2023
 12.3603
 12.4572
 12.2509
 12.4192
 10.5388
 10.6347
 10.5958
 10.7008
 7.07132
 7.28292
 7.12387
 7.09254
 10.7761
 10.597
 10.6201
 10.5295
 11.4904
 11.4269
 11.5201
 11.3612
 11.4381
 11.4446
 11.5581
 11.4423
 11.1181
 11.0202
 11.1015
 11.2195
 8.20665
 8.20822
 8.35048
 8.22361
 9.41614
 9.55456
 9.46978
 10.5705
 10.5651
 10.4889
 10.5894
 13.2318
 13.2473
 13.1413
 13.2555
 11.92
 11.9184
 12.0184
 11.8782
 9.33654
 9.53381
 9.59358
 9.52444
 12.6997
 12.6518
 12.6299
 12.5782
 12.1371
 12.2233
 12.2334
 12.103
 11.9627
 12.0243
 12.1658
 12.0379
 10.2688
 10.3726
 10.4087
 10.3892
 11.0393
 11.1488
 11.026
 11.2562
 10.5628
 10.8056
 10.7139
 10.6729
 13.0226
 12.9601
 12.9499
 13
 12.0948
 12.0122
 11.9843
 12.1064
 10.4097
 10.5134
 10.3816
 10.2558
 12.1691
 12.1159
 12.045
 12.2225
 10.7797
 10.6397
 10.6438
 10.7151
 13.079
 13.1223
 13.0493
 13.1419
 8.56603
 8.51385
 8.6859
 8.56729
 12.7432
 12.8208
 12.7036
 12.6587
 12.8529
 13.0722
 12.9358
 12.9348
 9.97729
 9.97324
 9.86741
 9.83339
 12.7506
 12.7253
 12.701
 12.7125
 10.7444
 10.8122
 10.748
 10.8879
 13.3599
 13.3504
 13.4872
 13.4626
 11.1301
 11.201
 11.1746
 11.0377
 8.79615
 8.53572
 8.74735
 8.60818
 11.04
 11.2261
 11.2252
 11.1329
 10.0761
 10.0128
 10.0673
 10.0842
 10.7475
 10.7995
 10.7551
 10.6869
 10.7776
 10.7355
 10.6897
 10.587
 8.30777
 8.27838
 8.2191
 8.46914
 12.95
 13.0234
 13.0837
 13.0951
 12.8049
 12.8565
 12.9604
 12.8624
 9.10223
 9.08322
 9.18686
 8.96061
 8.8511
 8.76305
 8.8584
 12.4457
 12.4978
 12.5031
 12.4144
 10.7405
 10.5813
 10.7194
 10.7429
 10.8675
 10.8223
 10.9653
 10.8039
 12.8509
 12.7524
 12.9185
 12.8347
 10.0008
 9.89845
 9.93408
 9.90085
 11.6039
 11.7422
 11.73
 11.5804
 11.0885
 11.237
 11.2153
 11.263
 9.87558
 9.76256
 9.73639
 9.77213
 13.3311
 13.3788
 13.3217
 13.2638
 12.3997
 12.5395
 12.5115
 12.5035
 8.19636
 8.43961
 8.24891
 8.31421
 12.9501
 12.9687
 12.9299
 12.7642
 13.3265
 13.3804
 13.3566
 13.344
 11.5729
 11.5162
 11.5826
 11.4052
 14.4665
 14.4314
 14.4996
 14.3658
 11.273
 11.2472
 11.3158
 11.2593
 9.75162
 9.82499
 9.86645
 9.89265
 9.28249
 9.38105
 9.33687
 13.4314
 13.4164
 13.3833
 13.4231
 12.6967
 12.5622
 12.7207
 12.5919
 12.853
 12.8943
 12.9406
 12.9816
 12.5081
 12.5993
 12.5417
 12.5731
 8.05013
 7.94018
 7.87597
 7.91638
 13.2535
 13.2453
 13.2842
 13.3565
 12.5881
 12.6822
 12.6051
 12.4757
 9.40695
 9.32375
 9.41831
 9.48276
 12.141
 12.19
 12.1031
 12.4755
 12.6041
 12.5068
 10.9763
 11.1078
 11.2107
 14.2498
 14.1341
 14.1146
 14.2091
 11.2472
 11.1756
 11.2349
 11.1245
 11.2863
 11.2203
 11.4098
 11.367
 9.04827
 8.95527
 9.11897
 9.14972
 8.65354
 8.71806
 8.42607
 8.69474
 12.9443
 13.0385
 13.0512
 12.864
 10.9496
 10.7972
 10.7972
 10.8286
 10.927
 10.8211
 10.7606
 10.8055
 11.5695
 11.4063
 11.478
 11.3657
 12.2098
 12.1475
 12.138
 12.2934
 10.9866
 11.1165
 11.0407
 10.9692
 12.9927
 12.9646
 13.018
 12.9309
 8.93108
 8.99203
 8.92107
 8.87926
 12.5288
 12.55
 12.4905
 12.4314
 9.28018
 9.42378
 9.33861
 9.3027
 8.50442
 8.60569
 8.69735
 8.53652
 8.74607
 8.79955
 8.7985
 8.83954
 12.7314
 12.8155
 10.201
 10.2272
 10.3277
 10.2579
 12.8813
 12.7265
 12.8063
 12.8535
 9.80104
 9.54634
 9.6368
 9.58226
 9.24536
 9.39032
 9.1912
 9.3729
 12.3029
 12.225
 12.2049
 12.2698
 11.0668
 11.0779
 10.9537
 11.017
 12.5329
 12.5217
 12.4355
 12.5193
 11.8325
 11.8317
 11.8118
 11.7009
 14.9954
 14.8462
 15.0225
 14.8902
 8.84334
 8.93024
 8.71534
 8.87832
 12.4532
 12.5649
 12.426
 12.3774
 13.4239
 13.5101
 13.5056
 13.388
 11.6904
 11.7442
 11.6217
 11.5736
 13.3178
 13.4676
 13.499
 13.3197
 11.7954
 11.9382
 11.968
 11.8599
 10.1449
 10.1954
 10.0272
 10.2459
 11.4808
 11.5698
 11.5705
 11.5153
 9.03435
 8.78729
 9.03189
 11.6684
 11.5416
 11.7199
 11.572
 15.0443
 15.0913
 15.0867
 15.1304
 7.88704
 7.82975
 7.7706
 7.89438
 11.1942
 11.2081
 11.1294
 11.2298
 9.80349
 9.9058
 10.021
 9.86791
 13.0106
 12.9054
 13.1606
 13.0489
 12.2194
 12.1235
 12.3216
 12.2091
 12.2231
 12.0451
 12.1372
 12.052
 8.72503
 8.83904
 8.70091
 8.60159
 12.087
 12.1869
 12.2563
 12.2204
 7.95087
 8.00842
 7.90393
 8.09901
 10.2587
 10.4162
 10.4206
 10.2454
 12.9518
 12.925
 12.8789
 12.9423
 14.5208
 14.4929
 14.4081
 14.5525
 11.7975
 11.9757
 11.8691
 12.008
 11.4189
 11.4214
 11.3064
 11.4469
 10.0065
 10.015
 10.0925
 10.2229
 14.9159
 15.0026
 14.8719
 14.9393
 11.7853
 11.8832
 11.7165
 11.7627
 8.27413
 8.37837
 8.40827
 8.36972
 9.56322
 9.43103
 9.48425
 9.53524
 9.48969
 9.51452
 9.37199
 9.55697
 9.5245
 9.64854
 9.68504
 9.62231
 9.45632
 9.25999
 9.37863
 9.39209
 10.7881
 10.7308
 10.7929
 10.7959
 12.8071
 12.6131
 12.4875
 12.4612
 12.5477
 10.4153
 10.5864
 10.5267
 10.5295
 10.4457
 10.4053
 10.5872
 10.566
 13.8284
 13.7717
 13.7815
 13.828
 9.12414
 9.12629
 9.19912
 9.12645
 9.82329
 9.70007
 9.55877
 9.65949
 12.9715
 12.8011
 12.8322
 12.6438
 12.6458
 12.6714
 12.5998
 12.5212
 12.5489
 12.47
 12.7427
 12.8784
 13.0449
 12.9478
 10.4442
 10.2919
 10.3323
 10.4794
 8.23178
 8.18964
 8.26832
 8.18909
 11.441
 11.5005
 11.4071
 11.5686
 8.59417
 8.84963
 8.91809
 8.93935
 11.7579
 11.7901
 11.8425
 11.7072
 10.3951
 10.5262
 10.6085
 10.5871
 12.8468
 12.867
 12.8918
 12.9831
 11.0236
 10.8638
 11.0783
 10.9496
 10.7628
 10.6069
 10.5257
 10.7496
 12.7586
 12.812
 12.917
 12.8629
 12.1327
 12.2116
 11.975
 12.054
 11.6916
 11.7091
 11.808
 11.8794
 10.9121
 10.8536
 10.9094
 10.839
 13.5791
 13.5694
 13.5285
 13.4436
 10.5595
 10.7064
 10.6269
 10.5277
 12.1111
 12.2623
 12.0869
 12.0231
 10.2189
 10.2485
 10.2212
 10.3208
 8.99864
 9.1401
 9.02572
 9.09197
 8.59919
 8.70395
 8.69618
 8.65003
 8.6172
 8.51579
 8.78681
 7.90976
 7.80371
 7.73134
 7.65812
 9.45084
 9.61599
 9.7686
 9.56525
 11.4549
 11.4837
 11.3885
 11.4091
 8.47763
 8.57875
 8.67627
 8.50613
 11.286
 11.2786
 11.3566
 11.3744
 10.8297
 10.7555
 10.7947
 8.91433
 8.76695
 8.85406
 8.86738
 8.96199
 9.12231
 9.05629
 10.9907
 11.0312
 10.9207
 10.8842
 12.1839
 12.1257
 12.2028
 12.0383
 10.3218
 10.4331
 10.4716
 10.4932
 8.68577
 8.575
 8.65915
 8.7243
 12.5594
 12.597
 12.5442
 12.6555
 11.538
 11.583
 11.6717
 11.7097
 11.3226
 11.1315
 11.3222
 11.317
 10.1185
 10.2586
 10.1625
 10.1534
 12.6279
 12.7092
 12.5423
 12.686
 13.0437
 13.1361
 13.0345
 13.0464
 11.4259
 11.4263
 11.4459
 11.3226
 8.01178
 8.10859
 8.12548
 8.09769
 12.4594
 12.5964
 12.4419
 12.5256
 12.931
 12.8349
 12.9684
 12.8395
 10.6042
 10.7846
 10.6003
 10.6282
 12.4984
 12.4404
 12.5124
 13.0366
 12.936
 12.9802
 10.8791
 10.9863
 10.7716
 10.9369
 12.8614
 12.9119
 12.9943
 12.8694
 12.9347
 13.0649
 12.9573
 12.9628
 10.5376
 10.4993
 10.5718
 12.7307
 12.7484
 9.15738
 9.12203
 8.90872
 8.88306
 10.3214
 10.1166
 10.1238
 10.1871
 13.617
 13.5344
 13.6876
 13.5016
 14.2719
 14.227
 14.3511
 14.2365
 12.4247
 12.6391
 12.5131
 12.4965
 8.91001
 8.91173
 8.82402
 8.89058
 10.3203
 10.4205
 10.4851
 10.4275
 13.3789
 13.4057
 13.4129
 13.429
 12.5084
 12.5009
 12.4347
 12.3595
 12.4667
 12.4343
 12.4623
 12.7757
 12.6921
 12.6783
 12.6816
 12.6989
 12.7859
 12.6764
 12.6409
 13.0006
 13.1321
 13.0292
 13.1093
 8.51407
 8.35893
 8.47996
 8.46887
 8.51676
 8.37244
 8.61247
 11.5028
 11.592
 11.4848
 11.6296
 12.5417
 12.6937
 12.5198
 12.5609
 7.89316
 7.76465
 13.0263
 13.1082
 13.086
 13.1568
 11.0702
 10.8466
 10.991
 10.8838
 10.6633
 10.7161
 12.8694
 12.8945
 12.7809
 12.8625
 8.46496
 8.34493
 8.52766
 8.23985
 8.05719
 8.18216
 8.08103
 7.83328
 11.7336
 11.678
 11.7215
 13.7985
 13.7077
 13.7483
 12.6549
 12.5049
 12.6666
 12.6324
 9.82196
 9.96397
 9.72154
 9.93831
 12.2239
 12.3081
 12.3444
 12.4151
 12.4118
 12.4773
 12.3661
 12.4979
 10.3955
 10.3939
 10.3413
 10.1732
 14.8254
 14.7473
 14.8355
 14.9163
 10.0408
 10.016
 9.88163
 9.90314
 9.94805
 9.96569
 9.8439
 9.79436
 13.0593
 13.0511
 13.2121
 13.0939
 9.00255
 8.90214
 8.88296
 9.03799
 15.0125
 15.122
 15.1232
 15.1996
 8.54629
 8.83921
 8.83374
 8.83788
 9.34032
 9.48467
 12.404
 12.3207
 12.3403
 12.2553
 13.1816
 13.2965
 13.2277
 13.1405
 9.10825
 8.96774
 8.99053
 9.05536
 12.2654
 12.2374
 12.2459
 12.3218
 7.95941
 8.06083
 7.99377
 12.5884
 12.6913
 12.7298
 13.3284
 13.1956
 13.1643
 8.66062
 8.57236
 8.62281
 8.68472
 12.5694
 12.6422
 12.6468
 12.6342
 9.03409
 9.0186
 13.3773
 13.2913
 13.3792
 13.3501
 11.3554
 11.216
 11.2242
 11.3265
 12.4255
 12.4773
 11.9575
 11.7206
 11.7425
 11.8765
 12.3435
 12.3606
 12.3495
 12.4743
 8.05517
 7.90734
 8.14512
 8.07971
 13.2509
 13.3054
 13.28
 9.50509
 14.9585
 14.9934
 14.9834
 15.0218
 9.06107
 9.02032
 8.93855
 9.1938
 12.3983
 12.3849
 12.1798
 12.2368
 9.97731
 10.0555
 10.032
 9.99699
 12.3722
 12.4602
 12.5123
 12.4038
 10.4599
 13.8152
 13.8463
 13.8471
 13.8012
 10.4194
 10.4241
 10.4587
 10.5685
 9.41748
 9.35072
 9.26288
 9.53849
 9.47839
 9.64373
 9.46124
 9.01727
 8.8361
 8.96672
 8.93778
 12.9929
 12.9533
 12.8184
 12.8892
 8.97857
 8.97717
 9.00172
 8.85607
 13.3935
 13.4135
 13.3917
 13.5089
 9.12822
 9.03603
 8.98454
 8.98021
 11.5715
 11.6435
 11.6604
 11.6919
 10.0501
 9.9634
 9.91486
 9.88075
 10.9936
 11.0613
 11.1026
 11.1409
 8.44896
 8.66846
 11.245
 11.3644
 11.3379
 11.2478
 13.7065
 13.7549
 13.6186
 13.7513
 13.3581
 13.4043
 13.2481
 13.3822
 11.0091
 10.8978
 10.8748
 10.8662
 9.94843
 9.95755
 9.97413
 9.79535
 9.64457
 9.78674
 9.69473
 9.60919
 8.81617
 8.98588
 8.93764
 9.04963
 9.65919
 9.46452
 9.57259
 9.65308
 13.3302
 13.3434
 13.2685
 13.4149
 12.8893
 12.903
 12.9256
 12.759
 7.77112
 7.905
 7.95754
 7.94052
 10.8264
 10.7512
 10.7937
 10.5902
 12.7319
 12.5841
 12.7169
 12.6395
 14.5684
 14.5823
 14.4659
 14.6353
 9.00433
 8.93349
 9.07255
 8.78323
 12.6839
 12.6505
 12.6211
 12.545
 11.858
 11.7506
 11.9301
 11.8315
 13.5084
 13.5382
 13.5179
 13.431
 10.5708
 10.6509
 10.5883
 10.5801
 8.68258
 8.67046
 8.73459
 8.6857
 10.786
 10.9899
 10.9156
 10.9502
 11.7294
 11.6853
 11.5742
 11.6425
 13.6213
 13.5628
 13.5098
 13.6674
 8.64138
 10.2197
 10.1158
 10.2843
 10.1133
 11.8267
 11.8898
 11.9977
 11.9371
 9.8449
 9.76127
 9.78876
 9.65568
 12.6886
 12.801
 12.7367
 12.6613
 10.6458
 10.5466
 10.7032
 13.6898
 13.5299
 13.6494
 13.6499
 9.37486
 9.64746
 9.48437
 9.5646
 13.2119
 13.2344
 13.1481
 13.2137
 7.27591
 7.34479
 7.29365
 7.18349
 12.7045
 12.6871
 12.6665
 12.6893
 14.3326
 14.1031
 14.1286
 14.215
 13.7247
 13.738
 13.6495
 13.6444
 7.82968
 7.93208
 7.98053
 8.03954
 8.43314
 8.44421
 8.35875
 8.33851
 11.5025
 11.3873
 11.4357
 11.3669
 12.5471
 12.5902
 12.514
 11.1188
 11.1375
 11.3103
 11.2492
 10.2841
 10.3605
 10.1877
 10.1965
 11.0302
 10.7762
 10.862
 10.8935
 11.2929
 11.265
 11.039
 11.1466
 7.78481
 7.90878
 7.90647
 7.97004
 12.9647
 13.0156
 12.8396
 12.9625
 13.6847
 13.8606
 13.8427
 9.93011
 10.0171
 9.99987
 10.0812
 9.21101
 9.06845
 9.15631
 9.18586
 12.6738
 12.6897
 12.65
 12.917
 12.8943
 12.8237
 13
 8.82752
 8.92218
 8.76457
 8.99893
 11.5645
 11.5985
 11.4656
 11.5593
 12.821
 12.9497
 12.8452
 12.8505
 11.8779
 11.9488
 11.9373
 11.8473
 9.39547
 9.3878
 9.52382
 9.38851
 12.6652
 12.507
 12.7379
 12.5583
 11.7355
 11.9354
 11.8939
 11.803
 12.3565
 12.209
 12.3143
 8.49792
 8.52916
 8.62756
 8.64262
 11.4296
 11.4266
 11.5101
 11.36
 7.71417
 7.79354
 7.48309
 11.2406
 11.1568
 11.2015
 11.2393
 13.5498
 13.4642
 13.6055
 13.557
 10.8293
 10.7992
 10.7277
 10.6047
 11.3247
 11.1485
 11.3712
 12.6287
 12.6022
 12.4895
 12.5386
 13.2712
 13.2334
 13.3081
 13.2035
 12.7031
 12.6265
 12.5536
 12.7093
 14.3958
 14.3634
 14.2669
 14.2514
 12.0368
 12.0655
 12.1203
 12.1359
 12.3862
 12.4401
 12.2728
 12.4675
 8.63936
 8.87027
 8.8234
 8.56342
 13.2149
 13.0666
 13.1152
 13.1499
 10.4768
 10.5302
 10.4418
 10.378
 8.01891
 7.98266
 8.07872
 8.16132
 7.9876
 8.21532
 8.11189
 8.05969
 9.5431
 9.44999
 9.53345
 9.5066
 7.97919
 7.76119
 7.78347
 8.08123
 8.69171
 8.68122
 8.70205
 7.66522
 7.92797
 7.85783
 7.85719
 13.5613
 13.6171
 13.5653
 13.6549
 11.8452
 12.0001
 12.0256
 11.9754
 12.2727
 12.1313
 12.2414
 12.1256
 12.1894
 12.2682
 12.262
 12.2987
 8.53169
 8.64297
 8.51182
 8.47812
 11.982
 11.9764
 12.0924
 12.1208
 12.6559
 12.792
 12.8097
 12.6944
 10.0943
 10.1344
 9.98825
 10.1856
 12.4947
 12.3875
 12.4984
 12.3967
 9.88426
 9.99892
 10.0577
 11.1363
 10.9952
 10.9606
 8.84557
 9.01918
 9.01938
 8.9563
 11.8676
 11.8171
 11.9134
 11.9135
 10.4661
 10.5924
 10.5477
 10.4336
 12.2284
 12.3807
 12.3152
 12.1869
 7.69436
 7.79245
 8.23994
 8.30262
 8.36432
 8.1623
 13.6327
 13.6766
 13.6747
 13.7462
 10.467
 10.3579
 10.3275
 10.2217
 12.6171
 12.4933
 12.6132
 12.6766
 15.3445
 15.4931
 15.3525
 15.3979
 12.6612
 12.7176
 12.7918
 12.7067
 10.0083
 10.1483
 10.0148
 13.2662
 13.2819
 13.13
 13.1445
 8.10747
 8.27241
 8.07539
 8.2273
 12.6331
 12.5808
 12.6203
 12.5639
 10.6109
 10.4724
 10.5201
 10.598
 13.4531
 13.4224
 13.5342
 13.4511
 14.7223
 14.7052
 14.6803
 14.6318
 12.8291
 12.733
 12.8299
 12.8635
 12.0147
 12.0662
 11.9696
 10.9629
 11.1812
 10.966
 11.0574
 13.021
 13.0033
 13.1114
 9.78146
 9.8454
 9.74335
 9.64949
 9.5364
 9.32752
 9.5508
 9.37091
 10.0681
 10.2385
 10.11
 10.0799
 8.29621
 8.64718
 8.53027
 8.47555
 9.59981
 9.68074
 9.5745
 12.3413
 12.2533
 12.2766
 12.2119
 9.78214
 9.91745
 10.3176
 10.4466
 10.4945
 10.3909
 10.0629
 10.1179
 10.0862
 10.0041
 12.736
 12.6821
 12.7081
 12.8115
 12.7306
 12.6388
 12.7248
 12.6303
 15.3628
 15.2955
 15.2709
 15.3171
 12.7383
 12.6351
 12.738
 12.2536
 12.302
 12.3331
 12.2899
 11.2901
 11.2902
 11.3636
 11.3916
 12.271
 12.1521
 12.1427
 12.2284
 13.5688
 13.5047
 13.5879
 13.5844
 9.35388
 9.5638
 9.41
 9.50418
 11.5445
 11.4482
 11.5388
 11.6325
 8.73806
 8.73967
 8.78954
 8.68534
 10.9789
 11.0952
 10.9872
 11.0704
 8.42886
 8.34127
 8.40722
 14.619
 14.524
 14.5553
 14.5491
 10.1082
 9.88173
 10.0559
 10.034
 11.6834
 11.793
 11.6588
 11.7199
 12.9268
 13.0107
 12.2313
 12.2016
 12.137
 12.1647
 11.8072
 11.9574
 11.9303
 8.76967
 8.71632
 8.86511
 8.75797
 8.61008
 8.7004
 8.82338
 8.76884
 12.9948
 13.0228
 12.952
 13.0119
 11.632
 11.6663
 12.5173
 12.398
 12.4771
 12.5779
 9.67547
 9.80227
 9.56025
 9.54879
 13.5314
 13.5057
 13.5461
 13.4709
 12.8305
 12.796
 12.8927
 12.9029
 12.5702
 12.4393
 12.3802
 12.4459
 11.1363
 11.1515
 11.1587
 10.9649
 9.9349
 9.95102
 10.0394
 10.0531
 9.62857
 9.715
 9.82992
 9.69831
 15.0207
 15.0385
 15.0788
 15.1126
 13.2387
 13.1268
 13.0816
 10.8994
 11.1386
 10.9969
 10.7788
 10.6701
 10.7994
 10.6307
 8.65498
 8.5358
 8.62569
 8.48516
 11.4957
 12.6163
 12.6158
 12.734
 12.7183
 10.349
 10.4281
 10.548
 10.4904
 9.45325
 9.62215
 9.6124
 9.42905
 9.31794
 9.29995
 12.9977
 13.0479
 13.1002
 13.116
 11.2396
 11.1275
 11.1669
 11.1143
 13.3467
 13.3828
 13.3492
 13.3026
 10.6995
 12.0488
 12.1245
 11.9316
 11.8861
 12.3041
 12.2214
 12.1694
 12.2498
 8.64853
 8.81465
 8.35622
 8.23337
 8.15162
 8.2833
 14.0556
 14.1474
 14.0927
 14.0558
 9.62724
 9.60735
 9.78844
 9.55256
 10.7785
 10.941
 10.8664
 10.7169
 14.8587
 14.8276
 14.8292
 14.9002
 11.3314
 11.3278
 11.2618
 11.3951
 11.4412
 11.5865
 11.6692
 11.6647
 12.9595
 13.0705
 12.9123
 12.9641
 7.88553
 7.7251
 7.71284
 7.6855
 11.5663
 11.7023
 11.689
 12.3713
 12.251
 12.2461
 12.3591
 8.24089
 8.0288
 8.18806
 8.15945
 12.4168
 12.4892
 12.5858
 12.3919
 11.7226
 11.6317
 9.29697
 9.30174
 9.17821
 9.42777
 10.9466
 10.9254
 10.7638
 10.7663
 8.30249
 8.39477
 8.21072
 8.30836
 11.6444
 11.4408
 12.7925
 12.7495
 12.7212
 12.7276
 12.4576
 12.4344
 12.3505
 12.3107
 9.13907
 9.11361
 9.29972
 9.23353
 9.61156
 9.68472
 9.55346
 9.56054
 9.70525
 9.87064
 9.7219
 9.74226
 12.4431
 12.2914
 12.353
 12.4304
 14.1274
 14.1983
 14.1665
 14.131
 7.96196
 7.79187
 7.94758
 7.86865
 13.0395
 13.0321
 13.0171
 12.9541
 11.0474
 10.9383
 10.9181
 11.0187
 12.1576
 11.9687
 12.1004
 12.0317
 11.0549
 11.2145
 11.0692
 10.4934
 10.3269
 10.4849
 10.2847
 11.4269
 11.3327
 11.3986
 11.5068
 10
 9.93769
 9.82792
 10.0318
 9.9885
 10.0455
 9.98121
 10.2141
 14.836
 14.6925
 14.8281
 13.4097
 13.2986
 13.2361
 13.2817
 11.0146
 11.1078
 11.0691
 11.0794
 9.34091
 9.17406
 9.26455
 9.16886
 12.5887
 12.7384
 12.5911
 12.5407
 12.4666
 12.4558
 10.7277
 10.8057
 10.7117
 10.706
 11.119
 10.9899
 10.9513
 10.9316
 7.02499
 7.06479
 7.15272
 6.97189
 13.6989
 13.6555
 13.7308
 13.8605
 9.84258
 9.80872
 12.0046
 11.8805
 11.8644
 11.9935
 10.1346
 10.0503
 10.0653
 10.0282
 10.8092
 10.7829
 10.6914
 10.7376
 11.8803
 11.8713
 11.7552
 11.9612
 10.3624
 10.2312
 10.2671
 10.2466
 12.9886
 12.9377
 12.9532
 12.8638
 13.3112
 13.4121
 13.2961
 13.3524
 9.3256
 9.26186
 9.15599
 8.93938
 11.0887
 11.0207
 10.9152
 14.2623
 14.3133
 14.2251
 9.07872
 8.98964
 8.9667
 8.91179
 8.89479
 8.9446
 9.01678
 9.02902
 11.3634
 11.3339
 11.305
 11.2314
 8.64632
 8.54767
 8.58406
 8.5705
 8.21124
 8.01643
 8.18481
 7.99464
 11.8192
 11.7595
 11.6596
 11.7903
 9.44272
 9.36934
 9.31119
 9.32598
 7.13795
 7.08728
 7.24078
 7.05571
 9.72372
 9.70812
 9.79642
 9.58097
 10.9661
 11.1561
 11.0738
 11.2051
 9.17877
 9.09417
 9.21035
 9.25056
 10.1266
 10.16
 10.0592
 10.5789
 10.4579
 13.8833
 13.8685
 13.908
 13.9455
 10.6245
 10.4884
 10.5229
 10.5479
 14.0666
 14.0409
 14.022
 14.0168
 13.9375
 13.9589
 13.8457
 13.8099
 10.8406
 10.7758
 10.7639
 10.8844
 12.0379
 12.0385
 12.1453
 11.985
 10.3707
 10.2215
 10.2602
 10.2777
 11.2713
 11.3676
 13.4659
 13.5266
 13.4985
 13.4037
 8.09992
 8.04113
 7.96316
 8.08637
 11.961
 12.055
 11.8581
 11.9413
 9.02367
 9.07903
 9.19744
 9.09893
 13.4395
 13.5267
 13.4386
 13.4828
 8.80293
 8.55986
 8.63491
 8.59746
 10.5829
 10.7664
 10.6218
 10.6427
 12.5399
 12.6595
 12.7478
 12.6794
 7.41372
 7.49031
 7.47234
 7.58582
 12.3411
 12.1979
 12.3088
 12.343
 11.7622
 11.945
 11.8202
 11.8937
 8.06246
 8.03331
 8.17822
 8.02154
 11.3623
 11.551
 11.4968
 11.5019
 9.20177
 9.08768
 9.15851
 9.21588
 9.23398
 9.34233
 9.29595
 11.7227
 11.9441
 11.8445
 11.8866
 9.31856
 9.18218
 9.27441
 9.2263
 13.0895
 12.9619
 12.9759
 13.0947
 8.94276
 8.84477
 8.85562
 8.92437
 9.01192
 9.06634
 8.97811
 9.04152
 12.8427
 12.8691
 12.6533
 12.7672
 12.7683
 12.8148
 12.6982
 12.8656
 15.7298
 15.7026
 15.7856
 15.7641
 9.60474
 9.77479
 9.75281
 13.8651
 13.7171
 13.7172
 13.7813
 8.36425
 8.49402
 8.4622
 8.43544
 12.8756
 9.08182
 9.23666
 9.18779
 9.07208
 9.07749
 9.20087
 9.20431
 14.9966
 15.109
 15.078
 15.0261
 15.1406
 15.1444
 15.1617
 15.192
 8.36988
 8.50486
 8.38357
 8.28493
 12.748
 12.8016
 12.6878
 12.8225
 10.1733
 10.2463
 10.0834
 12.2044
 12.3095
 12.2127
 12.3805
 11.7258
 11.7177
 11.7719
 9.05328
 9.11683
 8.89364
 10.796
 10.7019
 10.6796
 10.7743
 12.1678
 12.2948
 12.3031
 12.2094
 12.887
 12.8477
 12.9083
 12.8591
 10.1998
 10.1085
 10.0939
 13.4756
 13.4212
 13.5791
 13.5831
 12.7794
 12.5583
 12.7032
 11.8248
 11.6226
 11.6595
 11.7505
 12.8771
 12.7621
 12.7712
 12.8127
 12.8367
 12.6845
 12.6571
 12.6944
 8.94921
 9.05242
 9.0411
 9.06671
 11.5996
 11.7133
 11.6253
 11.5605
 12.349
 12.3782
 10.9635
 11.0589
 10.9938
 11.1274
 8.47206
 8.52701
 8.4662
 8.50946
 8.53346
 15.8448
 15.8745
 15.8877
 15.8462
 9.46445
 9.30768
 9.3942
 7.89206
 7.93925
 8.01338
 7.92508
 9.79471
 9.99614
 9.95952
 9.98686
 12.9159
 12.8697
 12.8068
 12.9236
 11.7032
 11.7944
 11.8339
 11.813
 7.76281
 7.77331
 7.82262
 7.84991
 9.59059
 9.70031
 9.79329
 9.68362
 13.5409
 13.6307
 13.6381
 13.493
 11.8847
 11.8514
 11.8233
 12.02
 12.0807
 12.02
 11.9487
 12.0513
 15.8657
 15.882
 15.8811
 15.8585
 13.1004
 13.1245
 13.1618
 13.0514
 9.62249
 9.44278
 9.63469
 9.53845
 10.6691
 10.6818
 10.5531
 10.7247
 11.5169
 11.429
 11.3233
 11.483
 10.0201
 9.87442
 9.92079
 9.92624
 10.5759
 10.5792
 10.457
 10.5919
 9.89184
 9.89029
 10.0006
 9.72849
 7.36424
 7.62748
 7.54742
 7.29238
 9.40817
 9.48221
 9.51667
 9.71378
 9.9588
 10.0475
 10.1498
 10.0015
 10.212
 11.0249
 11.0282
 11.1162
 10.8994
 8.42416
 8.48618
 8.51776
 8.51065
 11.6362
 11.7101
 11.5841
 11.6319
 10.7871
 10.7266
 10.6543
 10.8681
 11.23
 11.37
 11.2754
 11.1642
 12.1096
 12.2866
 12.1542
 12.2678
 14.4997
 14.4496
 14.3289
 14.513
 7.15849
 7.4016
 10.3793
 10.4594
 10.4726
 15.478
 15.4772
 15.486
 12.5818
 12.6674
 12.6115
 12.7115
 13.9047
 13.8923
 14.0426
 14.0476
 13.1009
 13.1587
 13.074
 13.223
 8.21491
 8.42677
 8.33571
 8.31088
 11.0705
 11.2349
 11.1664
 11.2572
 10.1041
 9.94655
 9.9535
 9.81969
 10.6052
 10.6517
 10.7419
 10.8375
 9.93617
 9.87379
 9.99544
 9.95521
 11.4828
 11.4772
 9.14034
 9.45949
 9.17017
 9.43907
 9.77841
 9.87195
 9.94196
 9.66897
 12.6152
 12.7572
 12.5961
 12.7367
 12.6704
 12.6364
 12.6398
 12.6241
 10.8984
 10.8783
 10.9342
 10.8414
 10.9326
 10.8496
 10.7617
 10.6641
 13.1448
 13.2954
 13.3386
 13.1074
 9.88971
 9.99822
 10.0492
 10.0654
 7.50219
 7.59107
 7.51538
 7.57831
 9.02993
 9.11301
 9.10438
 9.17367
 7.35094
 7.26989
 7.42397
 7.22948
 8.85885
 8.69896
 8.74086
 8.73276
 11.1149
 10.9406
 11.0904
 11.0485
 10.1243
 10.2171
 11.4152
 11.2511
 11.4571
 11.3681
 12.6912
 12.5775
 12.5944
 12.55
 9.56116
 9.35524
 9.34877
 9.49356
 11.4643
 11.4964
 11.4593
 11.6073
 11.7934
 11.8941
 11.929
 11.8711
 12.8695
 12.8676
 12.8102
 12.7079
 12.4167
 12.4225
 12.4897
 12.3054
 12.7603
 12.6815
 12.6662
 12.7206
 14.4261
 14.4099
 14.4837
 14.4569
 9.67681
 9.62461
 9.77958
 9.65484
 10.2432
 10.2054
 14.1645
 14.1396
 14.1501
 14.2571
 12.2421
 12.1957
 10.3704
 10.4834
 10.3492
 9.17769
 9.13624
 13.1036
 13.123
 13.1802
 13.038
 14.2869
 14.2261
 14.2309
 14.2012
 13.2676
 13.2012
 13.1343
 13.1112
 12.2632
 12.1695
 12.14
 12.1194
 10.6023
 10.7715
 10.7774
 10.765
 10.0728
 10.1341
 10.1547
 10.1792
 12.3187
 12.2044
 12.1906
 12.2231
 10.8437
 10.8545
 10.7907
 10.9925
 11.1248
 11.2189
 11.2495
 11.1792
 11.0132
 10.9158
 10.8511
 10.9156
 10.869
 11.0731
 10.8652
 11.4182
 11.5203
 11.314
 11.4013
 12.0022
 11.946
 12.0962
 12.0174
 12.7688
 12.6711
 12.8323
 12.6751
 8.38262
 8.43268
 8.33783
 8.24114
 11.6141
 11.6147
 11.4781
 11.4901
 13.3152
 13.3149
 13.4881
 13.3535
 13.5447
 13.527
 13.5645
 13.5987
 13.27
 13.3517
 13.3457
 13.2928
 12.7804
 12.7917
 12.6562
 12.6306
 12.8164
 12.8903
 12.9224
 12.8701
 8.75304
 8.66197
 8.65536
 8.61679
 11.7302
 11.7332
 11.7597
 11.631
 9.82531
 9.6959
 9.81421
 9.87807
 12.7457
 12.6004
 12.7748
 12.6682
 8.23917
 8.18266
 8.19365
 8.06359
 8.00508
 8.03799
 7.86656
 9.83564
 10.1142
 10.0224
 10.0111
 12.5693
 12.509
 12.6383
 12.5351
 7.60108
 7.82054
 7.77496
 11.9064
 12.008
 11.9325
 12.0961
 8.88563
 8.86023
 9.19636
 9.14573
 9.01851
 9.19192
 12.1128
 12.1905
 12.14
 13.3455
 13.3018
 13.4317
 13.3893
 12.7223
 12.783
 12.6647
 12.6608
 11.2021
 11.0521
 11.2437
 8.03965
 8.32059
 8.29606
 9.869
 10.0428
 10.0915
 9.9968
 8.03562
 8.08788
 8.27699
 7.90389
 11.8264
 11.6869
 11.6215
 11.7048
 8.69238
 8.65897
 8.58343
 8.80706
 11.0838
 11.0512
 11.1465
 11.214
 12.4435
 12.5655
 12.5029
 7.73672
 7.87846
 7.79892
 7.58026
 10.2995
 10.7648
 10.5987
 10.6587
 10.7347
 10.4769
 10.4598
 10.5685
 12.5083
 12.583
 12.5682
 12.5729
 12.5772
 12.4232
 11.7615
 11.8924
 11.8958
 11.9182
 11.7395
 11.5836
 11.7023
 11.61
 9.96908
 7.57478
 7.81448
 7.85213
 7.69682
 14.7504
 14.8612
 14.8041
 14.8157
 12.2833
 12.3561
 12.5539
 12.5946
 12.534
 12.5039
 12.5933
 12.5807
 12.7424
 12.6824
 9.76422
 9.94529
 9.92854
 9.83418
 9.64901
 9.58188
 9.75755
 9.62261
 12.2873
 12.393
 10.1081
 10.0841
 9.90117
 10.0209
 10.059
 9.89894
 10.0457
 10.7925
 10.8961
 10.971
 11.0154
 11.5765
 11.6974
 11.5842
 11.7067
 9.75533
 9.54968
 9.575
 9.73727
 9.26546
 9.22869
 9.126
 9.27889
 9.45363
 9.29679
 9.41291
 9.68621
 9.64069
 9.66459
 9.7876
 11.79
 11.7544
 11.7351
 11.8406
 13.8615
 13.8929
 13.8217
 13.809
 12.1038
 12.1185
 12.1833
 12.1512
 9.24411
 9.39793
 9.50212
 9.36394
 10.1424
 10.21
 10.2171
 10.0926
 12.0592
 11.9897
 11.9405
 11.9296
 10.1906
 10.337
 10.2403
 10.1978
 10.922
 10.8738
 11.0679
 10.8642
 10.948
 10.8127
 10.865
 10.813
 10.2611
 10.1587
 10.1746
 8.59576
 8.5456
 8.63697
 8.6046
 12.1485
 12.0213
 12.0797
 12.0682
 11.4273
 11.295
 11.3104
 11.3404
 13.7073
 13.7727
 13.7586
 13.661
 12.856
 12.7678
 12.7794
 12.8417
 12.7134
 12.897
 12.8077
 12.9195
 12.9259
 12.8587
 12.8757
 12.8272
 10.9571
 11.0314
 11.0045
 13.3865
 13.4113
 13.3534
 13.3307
 13.0575
 13.0124
 12.9308
 13.0423
 7.69055
 7.86072
 7.86845
 7.74878
 10.8845
 10.9609
 11.036
 11.0908
 9.29579
 9.28513
 9.36857
 9.42493
 10.6395
 10.5738
 10.6665
 10.7539
 10.2969
 10.1864
 10.3006
 10.2668
 12.5026
 12.6055
 12.5555
 12.6989
 11.267
 11.0119
 11.2121
 11.181
 9.17997
 9.07176
 9.1818
 9.13252
 10.5685
 10.6239
 10.4303
 10.4624
 12.957
 13.0204
 12.8956
 12.8467
 8.55582
 8.50132
 8.53724
 8.47478
 11.9512
 12.0646
 13.0852
 11.2733
 11.2116
 11.1155
 11.303
 11.6209
 11.4962
 11.6393
 11.6691
 14.2114
 14.229
 14.1213
 12.1565
 12.2763
 12.3039
 12.3766
 10.5872
 10.3636
 10.4588
 10.3327
 11.0913
 10.9892
 11.049
 11.0968
 8.64752
 8.57456
 8.55854
 8.60589
 12.8083
 12.6135
 12.7491
 12.5633
 12.5701
 12.6037
 12.4484
 13.9694
 14.1224
 14.0387
 13.9817
 12.8651
 12.7244
 12.8234
 10.6426
 10.3708
 10.5993
 12.9508
 12.9665
 13.065
 13.0154
 11.5757
 11.4532
 11.4253
 11.4323
 15.8495
 15.8541
 15.8475
 15.7796
 11.7726
 11.8165
 11.815
 13.3462
 13.3698
 13.3476
 13.347
 11.7782
 11.8395
 11.948
 11.8477
 13.0397
 12.9377
 12.9455
 12.8918
 9.95687
 9.89462
 9.98443
 9.85919
 9.59364
 9.71764
 9.61594
 9.54662
 8.01423
 8.01429
 7.93038
 8.13085
 10.8099
 10.9868
 10.8497
 10.8022
 13.0786
 13.2065
 13.0896
 13.1617
 12.405
 12.4536
 13.7824
 13.7791
 13.7427
 13.7451
 11.504
 11.451
 12.14
 11.946
 11.9874
 12.6855
 12.6116
 12.5559
 12.6202
 8.25448
 8.17998
 8.40804
 8.37843
 8.52278
 8.56215
 8.62426
 8.54915
 12.5274
 12.4827
 12.5597
 12.6599
 13.3992
 13.3643
 10.6473
 10.5941
 10.6334
 10.4999
 12.6663
 12.7131
 12.6157
 12.6241
 11.9489
 12.1087
 11.8424
 7.18481
 7.12327
 7.284
 11.1654
 10.9876
 11.0525
 11.049
 8.854
 8.6702
 8.88777
 8.97088
 10.9231
 10.7989
 10.7686
 10.9386
 9.78577
 9.67264
 9.64967
 9.86348
 13.1239
 13.0157
 13.1079
 13.1583
 12.6333
 12.4776
 12.6808
 12.5237
 10.8957
 11.034
 10.7688
 10.945
 12.0813
 11.944
 11.907
 12.0928
 13.0998
 13.0562
 13.0139
 12.9088
 11.5556
 11.4949
 11.4157
 11.3469
 10.1726
 10.15
 10.2465
 11.0179
 10.875
 10.9729
 10.8941
 15.3289
 15.2338
 15.1739
 15.2391
 13.3961
 13.3987
 13.374
 13.3881
 12.1724
 12.176
 12.1849
 12.0591
 14.2851
 14.1884
 14.3285
 14.2467
 8.77122
 8.77895
 8.90628
 7.82552
 7.95232
 8.0999
 7.97131
 9.51424
 9.25522
 9.35441
 9.35204
 11.0723
 10.223
 10.0423
 9.99031
 10.1186
 11.2698
 11.1668
 11.3342
 11.3383
 13.1541
 13.2628
 13.2033
 12.5563
 12.5246
 12.4877
 12.657
 15.3098
 15.4102
 15.3224
 15.4472
 14.0855
 14.0902
 14.0492
 14.0637
 12.2319
 12.2335
 12.1551
 12.0813
 7.67632
 7.91186
 7.83268
 7.85633
 15.0499
 15.0335
 14.9422
 14.9645
 9.94589
 9.80417
 10.0392
 9.87955
 11.07
 11.0584
 10.9304
 11.0473
 12.4907
 12.7017
 12.6904
 11.4082
 11.553
 11.5741
 11.5652
 7.96045
 7.9022
 7.86029
 13.0728
 12.8917
 12.8663
 11.7855
 11.7431
 11.5962
 11.6261
 12.2497
 12.2839
 12.3193
 12.3469
 12.1382
 12.1638
 12.0193
 11.9921
 13.3131
 13.3847
 13.3764
 13.2565
 11.4589
 11.3667
 11.5
 11.3616
 8.14149
 8.38296
 8.37712
 8.49909
 8.72853
 8.77042
 8.77731
 8.64267
 13.5305
 13.5096
 13.5004
 13.5246
 8.9467
 8.88007
 8.89356
 9.07299
 8.37109
 8.15629
 8.21571
 8.41582
 8.93033
 8.94354
 9.12076
 9.10232
 10.3821
 10.4062
 10.2908
 10.3507
 11.217
 11.3155
 11.173
 12.2227
 12.41
 12.3558
 12.3148
 9.59621
 9.6946
 9.77978
 9.57771
 9.57282
 9.50043
 9.42717
 9.47306
 7.13161
 7.13028
 7.38864
 7.23166
 14.1797
 14.1054
 14.1265
 14.1084
 13.7447
 13.7987
 13.7722
 13.693
 13.2635
 13.2915
 13.1462
 13.2974
 12.102
 12.2769
 12.1578
 12.1681
 11.9915
 11.9772
 11.9821
 8.29443
 8.18656
 8.02926
 8.12568
 9.42422
 9.49331
 9.57572
 9.56955
 11.4756
 11.5723
 11.6139
 11.5378
 8.63539
 8.53943
 10.7193
 10.7182
 10.7239
 10.8504
 8.79007
 8.71903
 8.5222
 8.67749
 10.9255
 10.7464
 10.9617
 10.7297
 12.2574
 12.1813
 12.3618
 12.3016
 13.6701
 13.7455
 13.6814
 13.591
 15.4063
 15.3066
 15.4445
 15.3623
 8.94855
 9.00491
 9.02878
 8.92047
 8.37316
 8.35345
 8.33963
 8.2329
 11.7648
 11.9188
 11.8249
 11.9044
 11.1713
 11.2445
 11.2659
 11.168
 12.7379
 12.8556
 12.6564
 10.4299
 10.5411
 10.5261
 10.5842
 12.7875
 12.812
 12.7266
 12.731
 11.3726
 11.4969
 11.604
 11.5207
 10.2951
 10.37
 10.3331
 10.2737
 11.0128
 11.0576
 11.1096
 8.85042
 9.00015
 8.95115
 8.95436
 10.4174
 10.2469
 14.3462
 14.1802
 14.3569
 14.2856
 9.71839
 9.82196
 9.75949
 12.4963
 12.4549
 12.4589
 12.4896
 10.5516
 10.5778
 10.621
 11.2397
 11.3724
 11.2291
 11.3142
 10.4948
 10.6509
 10.4087
 10.5487
 10.36
 10.201
 14.9348
 14.9335
 15.0096
 14.9301
 15.2088
 15.3233
 15.3679
 15.2628
 11.1379
 11.2974
 11.2332
 11.3028
 10.6261
 10.7115
 10.6306
 10.7335
 14.8515
 14.8719
 14.8403
 14.7647
 12.5669
 12.7024
 13.3256
 13.3034
 13.2565
 13.1551
 10.3242
 10.3827
 10.1884
 10.298
 10.7131
 10.6631
 10.5373
 10.7691
 10.432
 10.5941
 10.6322
 10.5904
 12.2763
 12.2714
 12.1508
 12.2771
 13.0021
 13.017
 13.1318
 12.9869
 13.8584
 13.7381
 13.7485
 13.8491
 12.9879
 12.9964
 12.9924
 12.8066
 9.64611
 9.76243
 9.61942
 9.71241
 11.1374
 11.4492
 11.2957
 14.2564
 14.1943
 14.1159
 10.1165
 9.88841
 10.0136
 10.0214
 9.93907
 10.2128
 10.0696
 10.0229
 11.7058
 11.7932
 11.8396
 11.5698
 11.5251
 11.4032
 11.5133
 13.0647
 13.1384
 13.1675
 13.1675
 9.24754
 9.30182
 9.18266
 9.24964
 13.3317
 13.3593
 13.3509
 13.3023
 13.3664
 13.4357
 13.3732
 7.76503
 7.55434
 7.45408
 7.61652
 9.0146
 8.91045
 12.468
 12.52
 12.4021
 12.4439
 11.2668
 11.1202
 11.2687
 11.5226
 11.5947
 11.5593
 11.6791
 13.091
 12.9956
 13.0448
 9.38881
 9.29186
 9.50247
 9.43402
 13.077
 12.9177
 13.0294
 13.0532
 9.9095
 10.0448
 10.0971
 10.026
 13.2838
 13.2226
 12.9486
 13.0806
 12.9799
 13.0383
 12.5505
 12.6125
 12.5815
 12.5404
 14.0758
 14.1113
 14.2148
 14.1436
 9.63505
 9.4701
 12.1894
 12.111
 12.0974
 12.1091
 7.9618
 8.03271
 7.98607
 7.92224
 12.2206
 12.286
 12.1237
 12.0319
 9.35847
 9.20133
 9.1533
 9.14386
 8.50959
 8.33223
 8.61882
 8.37149
 9.92514
 10.0812
 8.49862
 8.3562
 8.40538
 8.45306
 13.0688
 13.0899
 13.0901
 12.9783
 8.55193
 8.49069
 8.47068
 8.56274
 7.76315
 7.5593
 7.5814
 7.72616
 10.6027
 10.5939
 10.4639
 10.5044
 11.4101
 11.4636
 11.3118
 11.2468
 8.63969
 8.84218
 8.7193
 8.63171
 14.2258
 14.1023
 14.1714
 14.2564
 8.72542
 8.50822
 12.1614
 12.0768
 12.0602
 11.9431
 8.88991
 8.95126
 9.10538
 9.08607
 13.0437
 12.9285
 12.9488
 12.9539
 11.8728
 12.0612
 11.996
 11.8972
 12.7738
 12.8111
 12.663
 13.0524
 13.1195
 13.0501
 13.1652
 13.312
 13.2085
 13.2386
 13.1875
 10.5977
 10.6882
 10.7327
 9.05054
 9.03149
 8.89373
 8.92018
 10.9922
 11.0661
 11.1113
 13.0431
 13.1323
 13.0698
 11.2132
 11.0099
 11.1842
 11.0674
 10.4775
 10.5096
 10.4601
 10.2948
 11.6026
 11.4507
 11.4295
 11.4878
 11.8112
 11.8793
 11.9125
 11.9829
 12.0544
 12.0682
 11.8293
 11.7663
 11.681
 11.8973
 8.95593
 9.04176
 8.97044
 9.08893
 9.96911
 10.0697
 9.98523
 9.92193
 11.5544
 11.4973
 11.5631
 11.3693
 13.0357
 13.1195
 13.0578
 10.9733
 11.0599
 10.9713
 10.9532
 12.3612
 12.5219
 12.4653
 12.5365
 14.63
 14.6002
 14.6546
 14.6875
 12.0072
 12.0753
 12.0406
 12.0513
 8.80815
 8.83649
 8.68833
 8.74413
 12.039
 11.8798
 11.9662
 12.0438
 13.2348
 13.2423
 13.1907
 13.1463
 13.0642
 13.1323
 13.1248
 11.4826
 11.4579
 11.4872
 10.3903
 12.1055
 12.299
 12.1828
 12.1878
 8.55316
 8.59157
 8.48971
 8.84509
 8.81035
 8.73693
 12.0832
 11.9531
 12.0493
 11.9714
 7.65226
 7.58905
 7.54133
 7.5228
 12.9976
 10.7713
 10.8938
 10.7953
 10.8387
 12.9154
 12.8654
 12.8832
 12.8556
 8.58502
 8.50615
 8.73613
 8.59029
 10.1501
 9.93271
 10.0224
 10.1014
 9.53294
 9.44638
 9.62273
 9.58864
 13.3087
 13.2691
 13.2158
 13.3077
 12.3733
 12.2645
 12.3822
 12.3804
 10.9951
 11.0769
 10.95
 11.0885
 12.1807
 12.317
 12.1265
 12.2618
 10.2529
 10.1983
 10.0616
 10.0952
 12.9151
 12.9697
 12.8488
 12.8503
 12.4286
 12.3589
 12.2556
 12.3263
 10.6643
 10.6495
 10.6761
 10.4963
 8.41555
 8.22527
 8.33512
 8.22521
 13.2513
 13.2335
 13.1245
 13.1768
 13.9901
 14.1205
 13.9821
 13.9936
 8.50556
 8.37682
 8.43371
 8.37571
 13.9656
 14.0651
 13.8007
 13.8493
 13.8644
 13.7562
 11.2456
 11.1662
 11.289
 11.3824
 12.3765
 12.3005
 12.3026
 12.4273
 7.23373
 7.1589
 7.17658
 7.29215
 8.63645
 8.65093
 8.45042
 10.1587
 10.1718
 10.0501
 10.2223
 13.1119
 13.0775
 13.1978
 13.0405
 12.4666
 12.4893
 12.5334
 12.5866
 12.509
 12.4191
 10.1624
 9.93245
 10.005
 10.0972
 10.3849
 10.3791
 10.5063
 10.35
 9.95058
 9.96251
 10.1118
 9.95441
 7.84623
 7.81342
 8.10865
 7.75258
 9.63885
 9.62855
 9.7787
 11.9299
 10.9795
 11.0094
 10.9652
 11.0748
 10.9215
 11.0725
 11.0296
 11.0001
 9.19195
 9.27824
 9.28607
 9.36828
 9.67052
 9.75968
 9.75653
 9.61253
 10.6515
 10.7771
 10.7741
 12.1601
 12.2319
 12.1182
 12.3156
 11.0323
 10.805
 10.945
 10.9083
 12.0528
 11.9747
 12.1178
 14.9899
 14.9906
 15.0538
 14.9418
 9.06915
 8.82966
 8.92177
 8.96514
 9.17415
 8.91594
 9.05684
 14.9228
 10.8881
 10.8518
 10.9059
 10.7303
 10.6948
 10.6613
 13.8011
 13.7729
 13.7854
 13.7472
 13.2293
 13.1922
 13.0866
 13.2454
 12.6093
 12.5412
 12.5511
 12.6886
 12.8181
 12.7602
 12.6795
 12.8146
 12.8297
 12.7245
 11.8646
 11.9558
 11.9934
 12.0121
 11.7688
 11.6395
 7.00929
 7.00087
 13.0166
 12.8276
 13.0216
 12.9039
 11.5362
 11.5762
 11.4935
 11.6384
 13.3062
 13.2765
 13.4637
 13.4016
 8.91938
 8.82344
 9.0829
 8.97891
 9.17492
 9.30137
 9.18088
 9.31356
 10.28
 10.1813
 10.1583
 10.2265
 11.0487
 11.0026
 10.8073
 10.8988
 11.1421
 11.2232
 13.0414
 9.83584
 9.67798
 9.71575
 9.67982
 7.91368
 7.94238
 7.7068
 7.98967
 9.06888
 8.90248
 9.10173
 9.03402
 15.8419
 15.8419
 15.8261
 15.7938
 8.07745
 8.04886
 8.12219
 8.1135
 12.6688
 12.6647
 12.7833
 12.6003
 12.164
 12.3049
 12.2487
 12.3498
 10.0779
 10.0588
 9.97786
 9.95367
 10.0757
 10.1078
 10.1844
 10.149
 13.0741
 12.8794
 12.9785
 12.9332
 8.30756
 8.23492
 8.32441
 8.30076
 8.88714
 8.79021
 8.83732
 8.74052
 9.80147
 9.7727
 9.66735
 9.6662
 8.62812
 8.74144
 8.69186
 8.62623
 12.3853
 12.2597
 12.2609
 12.2098
 13.0767
 13.0464
 13.0165
 12.9738
 9.01686
 9.14246
 9.18801
 9.15087
 11.6578
 11.6651
 11.7185
 11.8311
 11.4361
 11.5
 11.5267
 11.4457
 15.2476
 15.1996
 15.1428
 15.1939
 8.15088
 8.11602
 8.56669
 8.53287
 8.67577
 8.45097
 13.5179
 13.6325
 13.6701
 13.4936
 12.3592
 12.5204
 12.5202
 12.5824
 8.82927
 8.93408
 8.76611
 8.72359
 11.9084
 11.865
 11.9409
 11.8047
 12.0131
 11.9727
 12.1206
 12.1093
 7.92827
 7.8914
 7.98091
 8.03276
 11.0372
 11.0715
 11.0283
 10.9723
 11.3501
 11.304
 11.3411
 11.4328
 9.5423
 9.46009
 9.41485
 9.49002
 10.2451
 10.2848
 10.332
 10.414
 11.8132
 11.7905
 11.9597
 12.3539
 12.2517
 12.3201
 12.1434
 13.7414
 13.7759
 13.8043
 13.6315
 12.1424
 12.0627
 12.0382
 12.0138
 11.1798
 11.2633
 11.1911
 11.2979
 7.77359
 7.72317
 7.74887
 7.94663
 12.1501
 11.9236
 12.0445
 12.0446
 13.427
 13.4251
 13.5114
 13.5715
 9.86668
 9.73604
 9.80195
 9.91242
 10.4889
 10.5069
 10.5782
 11.0811
 10.8876
 10.8731
 10.8214
 13.8162
 13.8141
 13.8076
 13.7255
 10.8707
 11.0007
 10.9443
 11.0569
 8.42458
 8.40626
 8.40797
 8.3814
 11.0188
 11.0015
 10.9811
 10.9103
 13.3436
 13.4172
 13.3723
 13.3288
 12.9001
 12.8185
 12.9149
 13.0112
 6.9015
 6.95458
 6.88331
 6.87566
 12.4147
 12.3879
 12.4067
 12.5656
 10.5465
 10.7683
 10.7016
 10.651
 7.12006
 7.10303
 7.22403
 7.22209
 8.57404
 8.36875
 8.47316
 9.86521
 9.87983
 9.71178
 9.6639
 8.84854
 8.84696
 8.64455
 8.90371
 14.7326
 14.6632
 14.5918
 14.6181
 12.7631
 12.6376
 12.8093
 8.09454
 7.91586
 7.94876
 7.9323
 10.6191
 10.6543
 10.5092
 10.6996
 9.43329
 9.46829
 9.28868
 9.56152
 13.1978
 13.2105
 13.3073
 13.3631
 11.9436
 11.8025
 11.9692
 11.8578
 10.2158
 10.4376
 10.3703
 13.7149
 13.6704
 13.6079
 13.6179
 12.962
 13.1162
 13.0428
 13.088
 12.0517
 8.06963
 7.98581
 8.03687
 7.92089
 14.5209
 14.5189
 14.6053
 14.6133
 9.56078
 9.32413
 9.44591
 9.29247
 10.4453
 10.5461
 10.4893
 10.639
 15.0593
 9.13413
 9.25545
 9.06559
 8.15942
 7.95858
 8.07828
 8.05689
 11.5282
 11.4887
 11.2934
 11.4418
 10.2901
 10.2972
 10.1816
 10.3762
 12.7012
 12.8239
 11.2744
 11.3399
 11.3328
 11.1879
 12.7104
 12.7838
 12.847
 12.7434
 12.2497
 12.3065
 12.1246
 12.1295
 9.95467
 10.0498
 9.95046
 9.90474
 14.1495
 14.1546
 14.1539
 14.0274
 13.1091
 13.1805
 13.1298
 13.217
 13.9699
 13.8772
 13.4468
 13.4513
 13.4358
 13.4399
 13.5613
 13.6412
 13.5103
 13.6192
 7.98062
 8.04916
 8.18782
 8.18844
 10.6564
 10.6533
 10.7126
 10.5031
 11.9459
 11.7709
 11.886
 11.8698
 10.98
 11.0309
 11.0635
 10.9352
 7.91819
 7.93659
 13.7673
 13.8272
 13.8139
 13.7639
 7.94521
 7.89666
 8.02165
 14.3883
 14.4298
 14.3916
 14.4483
 8.29647
 8.45668
 8.335
 8.4527
 12.1383
 12.2327
 12.0986
 12.2337
 11.6116
 11.582
 11.6478
 7.97963
 8.06855
 8.04115
 7.95178
 10.7793
 10.908
 10.7546
 10.874
 11.5109
 11.4486
 11.3241
 11.4504
 12.0821
 12.1537
 11.7891
 12.0119
 11.8434
 11.9363
 10.482
 10.6296
 10.5621
 7.80634
 8.04774
 8.07119
 7.89185
 11.6802
 11.5913
 11.692
 11.6619
 11.8929
 11.9647
 12.3582
 12.4891
 12.5198
 12.412
 14.2989
 14.2824
 14.1853
 10.8509
 10.821
 10.9967
 11.0028
 8.09609
 8.08779
 8.06907
 13.9504
 14.0295
 13.9489
 11.5885
 11.6888
 11.6205
 11.7431
 10.1317
 10.1356
 10.3037
 10.2448
 14.6381
 14.6763
 14.646
 14.6303
 8.95068
 8.90717
 9.00104
 9.02217
 10.042
 10.1545
 10.1348
 10.1805
 9.04021
 8.99364
 9.09559
 8.12184
 8.08979
 7.85812
 7.99406
 11.1301
 11.2881
 11.1478
 11.1338
 8.49069
 8.53043
 8.58864
 8.61179
 12.1733
 12.2182
 12.133
 12.2757
 7.88029
 10.4018
 11.3447
 11.4081
 11.2844
 11.4477
 10.4608
 10.4914
 10.618
 10.6374
 9.70134
 9.65941
 9.74737
 9.87949
 10.4723
 10.5372
 10.3748
 10.443
 9.43696
 9.53484
 9.40168
 9.42576
 11.3346
 11.417
 11.3572
 11.2466
 11.5042
 11.4549
 11.4313
 11.3735
 11.9312
 11.9586
 12.0073
 11.849
 11.3867
 11.3927
 11.5113
 13.2395
 13.215
 13.2402
 13.1499
 11.2409
 10.1595
 9.9686
 9.95619
 10.0662
 8.17256
 8.16028
 8.34623
 12.2621
 12.4437
 12.3654
 12.4216
 11.0407
 10.8716
 10.9146
 10.3983
 10.4101
 10.5208
 10.5275
 10.1042
 10.0578
 9.91329
 9.87957
 8.72467
 8.64336
 8.54808
 8.67225
 12.777
 12.8035
 12.7228
 12.9102
 10.9039
 11.0008
 11.0337
 11.0763
 11.4178
 11.5016
 11.5835
 11.4395
 11.5733
 11.6635
 11.6762
 11.7653
 11.303
 11.3567
 11.2781
 11.421
 9.66058
 9.90453
 9.62444
 9.79232
 11.5379
 11.7502
 11.6698
 11.6469
 13.7995
 13.7961
 13.8006
 13.7551
 13.8731
 13.7961
 13.8088
 11.2921
 11.2716
 11.154
 11.1401
 11.2265
 11.1598
 11.1143
 11.0758
 11.4229
 11.5375
 11.3481
 11.3473
 8.29396
 8.27848
 8.47422
 8.45086
 9.6541
 9.80149
 9.80457
 9.64125
 12.4751
 12.3983
 12.4145
 12.3824
 13.1279
 12.9985
 13.0161
 13.18
 8.87441
 8.90826
 8.99878
 8.866
 14.4825
 14.5434
 14.521
 14.4194
 12.0275
 11.9
 11.9728
 11.9889
 13.4065
 13.3269
 13.3395
 12.8364
 12.7588
 12.7474
 12.6603
 9.91949
 9.96813
 9.8528
 10.0714
 12.7569
 12.9325
 12.8642
 12.8201
 13.7916
 13.5705
 13.7199
 14.6231
 14.5264
 14.4672
 14.5034
 7.73751
 7.68324
 7.59505
 7.46766
 12.6644
 12.7454
 12.677
 12.633
 10.6092
 10.8016
 10.7686
 10.6434
 8.45464
 8.5647
 8.68594
 8.58226
 9.30144
 9.10036
 9.37058
 9.24806
 12.5493
 12.5312
 12.6132
 12.5595
 13.4747
 13.5915
 13.6863
 13.563
 10.9326
 10.8454
 10.9833
 10.9063
 13.4334
 13.2822
 11.7938
 11.9859
 11.9498
 11.8454
 11.6209
 11.6322
 11.7091
 11.5792
 11.7766
 11.7646
 11.8308
 13.1916
 13.1495
 13.191
 10.5343
 10.5305
 10.4862
 10.4427
 10.7761
 10.7927
 10.8982
 10.664
 12.5403
 12.3954
 12.459
 12.5283
 9.59864
 9.43458
 9.65714
 9.58028
 11.333
 11.4994
 11.4094
 11.2791
 13.3535
 13.3546
 13.3804
 13.3584
 12.0725
 11.9877
 12.0704
 10.7196
 10.7208
 10.847
 10.7312
 11.1871
 11.1107
 11.0192
 7.74219
 7.8169
 7.84828
 7.88981
 14.0103
 14.0612
 14
 14.1484
 12.2263
 12.0916
 12.1122
 12.1934
 12.2853
 12.3158
 12.4227
 12.2828
 7.5922
 7.65157
 7.46342
 7.33566
 9.53286
 9.45066
 9.46588
 12.7169
 12.7488
 12.7943
 12.737
 9.28851
 9.46478
 9.38931
 12.6584
 12.652
 12.7415
 12.7153
 15.391
 15.324
 15.3843
 15.3266
 8.48807
 8.42958
 8.32239
 8.51636
 13.1709
 13.206
 13.2595
 13.3614
 7.9973
 8.05495
 8.07928
 8.03584
 12.8823
 12.7352
 12.8452
 12.7876
 15.3553
 15.4707
 15.3716
 15.3742
 13.6743
 13.796
 13.6963
 13.6335
 13.1306
 13.0381
 12.9624
 13.1508
 11.3043
 11.4988
 13.1431
 13.123
 13.3053
 13.2779
 10.588
 10.6578
 10.7042
 10.7819
 11.4751
 11.4726
 11.5527
 11.372
 8.56641
 8.75987
 8.4342
 8.40237
 8.89278
 8.98413
 8.87383
 8.81194
 9.23621
 9.33115
 9.25213
 9.37763
 8.79549
 8.76517
 8.72784
 8.83112
 10.0727
 10.1203
 9.982
 10.0906
 9.17028
 9.00797
 9.05737
 9.13318
 13.8982
 14.0403
 14.0596
 13.8823
 8.64369
 8.55385
 8.59451
 8.6178
 11.8587
 11.9615
 12.0195
 11.9639
 9.52178
 9.76085
 9.69008
 8.87055
 8.72583
 8.73968
 8.79825
 13.1095
 13.2402
 13.2531
 13.2049
 13.7287
 13.7688
 13.8286
 13.7959
 9.79386
 9.82197
 9.90842
 9.68262
 11.652
 11.6714
 11.7053
 11.779
 10.107
 10.2114
 10.1166
 10.1331
 10.1276
 10.1275
 9.86176
 12.0027
 12.0401
 12.1496
 10.1896
 10.1392
 10.9452
 11.1271
 7.80284
 7.71102
 7.71382
 7.79061
 11.0721
 11.0098
 11.0851
 10.9327
 10.1801
 10.2541
 10.067
 10.2488
 10.7442
 10.6641
 10.7247
 10.6033
 9.2025
 9.26974
 9.19286
 9.28529
 9.3001
 11.706
 11.6908
 11.822
 11.827
 13.3822
 13.3821
 13.3797
 13.3689
 10.1439
 10.2923
 10.1428
 10.2298
 10.1076
 10.2014
 10.2355
 10.0815
 15.1415
 15.0781
 15.0398
 14.9632
 11.2909
 11.1781
 11.2352
 11.3157
 11.3412
 11.4573
 11.5047
 11.3894
 10.2926
 10.3984
 13.1663
 13.1332
 13.0812
 13.1505
 12.2655
 12.1923
 12.2376
 12.3125
 12.9749
 13.0287
 13.0765
 13.0644
 12.4019
 12.3133
 12.3316
 12.423
 12.922
 12.9317
 12.9866
 12.9056
 9.51088
 9.57292
 9.51623
 9.42155
 8.62846
 8.63835
 8.7926
 8.69506
 12.5988
 12.6525
 12.7234
 12.5882
 11.3028
 11.4298
 11.3183
 11.362
 9.23565
 9.41689
 9.29054
 9.37682
 11.8377
 11.8983
 11.9125
 11.7599
 12.6088
 12.523
 13.6019
 13.5504
 13.5201
 13.6126
 11.5804
 11.6245
 11.6864
 11.7472
 9.10604
 9.17834
 9.17693
 8.99541
 8.20193
 8.30759
 8.27533
 8.17837
 14.8468
 14.8387
 11.8038
 11.697
 11.6491
 11.6239
 11.9932
 12.1768
 12.0588
 12.0547
 12.1635
 12.2075
 12.8581
 12.789
 12.8113
 12.7454
 11.5016
 11.3791
 11.328
 13.8687
 13.7975
 13.7915
 13.7347
 8.77032
 8.65292
 8.87007
 8.75402
 8.34549
 8.35068
 8.34205
 7.64813
 7.7811
 7.90938
 7.79574
 10.8337
 10.624
 10.7091
 10.6761
 11.3121
 11.1493
 11.3814
 11.2368
 9.51737
 9.3001
 9.21789
 9.35277
 10.2613
 10.275
 10.1414
 10.2647
 10.5356
 10.4047
 10.4698
 11.1011
 11.0755
 11.1503
 10.9874
 9.90296
 9.63682
 9.72982
 9.87499
 11.7698
 11.8249
 11.7507
 11.7322
 11.194
 11.2312
 11.0877
 11.2781
 10.268
 10.3001
 10.3677
 10.2287
 11.3041
 11.4033
 11.4434
 11.2921
 15.3159
 15.3465
 15.249
 15.2504
 12.7906
 12.8406
 12.8369
 12.9232
 9.91553
 9.90889
 9.75715
 9.73976
 12.7855
 12.7575
 12.902
 12.9481
 13.1222
 13.2785
 13.117
 13.02
 8.94163
 8.96154
 8.85831
 9.06127
 9.08785
 9.24293
 9.10046
 9.13379
 8.5886
 8.72776
 8.57513
 8.55125
 9.5449
 9.55377
 9.4195
 9.4698
 11.8997
 11.9125
 12.0031
 11.9114
 12.7816
 12.8241
 12.7261
 12.8428
 10.1221
 10.336
 10.1141
 10.2821
 12.7225
 12.6852
 12.6687
 12.676
 13.5908
 13.5606
 13.5286
 13.4696
 11.4544
 11.3504
 11.4322
 11.3298
 12.1439
 12.224
 12.318
 12.0322
 11.9959
 11.8401
 11.9726
 13.4558
 13.5225
 13.6256
 13.5281
 12.6299
 12.6478
 12.7037
 12.6669
 10.0412
 9.95063
 10.0262
 9.95551
 11.1476
 11.0302
 11.0114
 7.65852
 7.81592
 7.80409
 7.70345
 8.29199
 8.1563
 8.04978
 8.20026
 12.1793
 12.087
 12.2297
 12.0875
 10.8122
 10.7094
 13.2309
 13.2377
 13.3592
 13.1909
 11.1092
 11.2257
 11.2995
 11.1949
 8.52304
 8.48047
 8.63023
 8.50533
 12.7359
 12.7116
 12.6615
 11.8224
 11.8055
 11.7705
 11.9313
 12.0965
 11.9172
 11.9482
 11.992
 11.3845
 11.2459
 11.2316
 11.4169
 11.4791
 11.404
 11.3134
 11.4216
 11.0502
 10.9648
 11.0617
 10.9379
 11.6184
 11.5242
 9.41479
 9.47903
 9.23775
 9.43393
 11.5065
 11.6357
 11.5898
 11.5094
 10.5042
 10.7122
 10.6385
 11.5626
 11.4385
 11.5166
 11.4466
 10.5991
 10.6668
 10.7373
 10.6332
 12.8163
 12.9374
 12.8453
 12.9957
 11.738
 11.7601
 11.6177
 10.8375
 10.8258
 10.6484
 10.918
 11.5268
 11.5446
 11.4523
 12.9805
 12.9379
 13.0513
 10.4168
 10.4313
 10.4303
 10.5816
 11.2933
 11.196
 11.1835
 14.8762
 14.8487
 14.8013
 14.9712
 10.28
 10.377
 10.4442
 10.2711
 12.0405
 12.1954
 12.1771
 12.2081
 9.31855
 9.3248
 9.27252
 9.16545
 9.0501
 9.14979
 8.97592
 9.00063
 13.0759
 12.9191
 13.1068
 13.0788
 10.9539
 11.0581
 11.1222
 12.3347
 12.4688
 12.38
 12.3806
 8.79528
 9.02356
 8.90243
 11.2481
 11.1389
 11.2179
 11.0872
 10.1148
 10.06
 10.06
 10.0828
 8.6252
 8.54976
 8.52202
 8.64375
 15.681
 15.7624
 15.7411
 15.6805
 12.5092
 12.4877
 12.4127
 12.5174
 10.9233
 10.6927
 10.7786
 10.7272
 13.5957
 13.6897
 13.707
 11.2763
 11.1581
 11.1999
 11.3013
 8.28775
 10.2814
 10.3706
 10.548
 10.4056
 9.15293
 9.15758
 9.11864
 9.06306
 9.58235
 9.65825
 9.68432
 9.59099
 10.916
 10.9675
 11.1178
 11.2766
 11.282
 11.265
 14.6305
 14.5351
 14.6225
 14.562
 12.3037
 12.3574
 12.407
 12.4835
 12.466
 12.3763
 12.4594
 8.34639
 8.04582
 8.35367
 8.35965
 11.3916
 11.4043
 11.2437
 11.2585
 10.8369
 10.8939
 11.0007
 10.9093
 8.92567
 9.01599
 8.85343
 9.02395
 11.2061
 11.2383
 11.0981
 11.2341
 13.9489
 13.9023
 14.0078
 13.9717
 11.5328
 11.581
 11.5079
 11.5589
 12.5425
 12.5393
 12.5204
 12.4385
 12.784
 12.876
 12.8518
 12.8062
 13.466
 13.4255
 13.4714
 13.4697
 14.1522
 14.2026
 14.2233
 14.0853
 7.58352
 7.73603
 7.66647
 7.70883
 14.4466
 14.4064
 14.5019
 14.3398
 11.4043
 11.4845
 11.3923
 11.5163
 7.77714
 7.80972
 7.9024
 7.88678
 11.9373
 11.9539
 11.8801
 11.8319
 13.3927
 8.62665
 8.71778
 8.68571
 8.53786
 12.8738
 13.9995
 13.8733
 13.8499
 13.9641
 10.7244
 10.564
 9.49802
 9.67963
 9.48602
 9.65907
 8.99145
 9.01463
 8.91286
 8.92941
 7.49724
 7.66121
 7.49622
 9.47119
 9.2991
 9.30359
 9.31112
 11.8312
 8.07141
 10.1426
 10.199
 10.243
 8.35906
 8.24427
 8.2177
 8.28223
 11.891
 11.8906
 11.903
 11.9828
 12.489
 12.4594
 12.5392
 12.601
 10.1604
 10.2565
 10.2186
 10.0171
 8.21696
 8.0802
 8.25067
 8.24627
 8.82496
 8.86769
 8.77546
 8.87862
 10.5094
 10.2981
 10.3237
 14.1544
 14.2208
 14.0196
 14.1476
 15.5907
 15.486
 15.5432
 15.4868
 13.4251
 13.5676
 13.5799
 13.5063
 10.9886
 10.8743
 11.0168
 13.8447
 13.7388
 13.7813
 13.871
 9.22593
 9.27011
 9.09873
 9.36543
 9.32478
 9.42478
 9.3639
 12.8072
 12.8573
 9.97815
 9.83227
 7.13307
 7.26285
 7.10274
 7.67457
 7.62333
 7.64601
 7.56312
 11.6327
 11.7496
 11.5618
 11.6533
 12.3403
 12.3658
 12.4263
 12.2883
 11.5075
 11.5145
 11.3868
 11.4027
 8.05385
 8.06349
 8.02712
 8.06825
 10.0322
 9.96974
 10.0153
 10.1039
 13.4458
 13.4515
 13.447
 13.353
 9.94625
 9.90611
 10.0094
 9.84768
 10.8908
 10.8571
 10.9773
 10.8309
 10.1943
 10.0873
 10.108
 15.8904
 15.8628
 15.8489
 12.3136
 12.3794
 11.871
 11.8676
 11.9834
 11.8091
 9.70118
 9.55316
 9.65094
 9.69788
 9.94058
 9.87367
 9.7007
 9.85941
 9.8454
 9.9222
 9.6899
 14.7427
 14.751
 13.5329
 13.5455
 13.4769
 13.5232
 10.8606
 14.8285
 14.9277
 14.8853
 14.8791
 12.5783
 12.4335
 12.5515
 12.5682
 11.7425
 11.7975
 14.1215
 13.9372
 13.9534
 14.0476
 7.56171
 7.37688
 7.46249
 7.52423
 8.14445
 8.10452
 8.1799
 7.96361
 12.9877
 12.7791
 12.9304
 12.8198
 12.3411
 12.4145
 12.178
 12.2336
 12.3174
 12.3949
 12.3197
 9.75335
 9.67788
 9.8686
 9.74787
 13.3876
 13.3172
 13.2641
 13.245
 11.3957
 11.3311
 11.4156
 10.4758
 10.4543
 10.3838
 10.2811
 12.3882
 12.3657
 12.2795
 12.3377
 12.7391
 12.6173
 12.5474
 12.6741
 12.7922
 12.8788
 12.8571
 12.7598
 11.9312
 11.873
 11.781
 11.888
 10.3023
 10.4063
 12.5506
 12.523
 12.4844
 12.59
 7.55105
 7.81127
 7.78076
 7.76362
 12.9528
 12.8895
 12.9518
 12.8741
 13.8485
 13.879
 13.7491
 13.8168
 10.8205
 10.7734
 14.4241
 14.3906
 14.4965
 14.365
 12.1137
 12.0454
 12.17
 8.40984
 8.47295
 8.35817
 8.33653
 14.2862
 14.3268
 14.2939
 12.8138
 12.8178
 12.7054
 12.7451
 14.0384
 12.8473
 12.8975
 12.8793
 13.0023
 11.2336
 11.3182
 11.2198
 11.2404
 11.7286
 11.6997
 11.63
 11.7374
 8.1966
 8.00658
 11.0769
 11.0109
 11.0409
 11.0786
 12.8987
 13.037
 12.8792
 13.0452
 12.257
 12.0026
 12.1341
 12.2524
 8.64083
 8.76096
 8.74647
 8.74795
 11.7458
 11.701
 11.5705
 11.6107
 10.8404
 9.07716
 8.97775
 9.11497
 12.2085
 12.1787
 12.2989
 12.1275
 10.0316
 10.0727
 9.99437
 10.1774
 11.9925
 12.0765
 12.0814
 11.9357
 8.17899
 8.35189
 8.37475
 8.28888
 7.16712
 7.0799
 7.21916
 12.8119
 12.7231
 12.609
 12.6929
 10.557
 10.4801
 10.6483
 10.5931
 10.0501
 10.0112
 9.91295
 9.84802
 12.3506
 12.3462
 12.7444
 12.8023
 12.8419
 12.7087
 11.9682
 11.7761
 10.6072
 10.5625
 10.6297
 10.6787
 10.3317
 10.2761
 10.1732
 10.3391
 11.8191
 11.7736
 11.6653
 11.7239
 10.741
 10.7272
 10.721
 8.77693
 8.96482
 9.00784
 8.92418
 9.51404
 9.55909
 9.46798
 11.8524
 11.6534
 11.8431
 11.7488
 12.6315
 12.7777
 12.8513
 12.6929
 10.0524
 10.2085
 10.2042
 10.0933
 11.7349
 11.747
 11.8811
 13.4191
 13.4358
 13.4131
 13.4339
 12.3749
 12.392
 12.3333
 12.2896
 9.41554
 9.4275
 9.54788
 7.63622
 7.82268
 7.80751
 10.1836
 10.1143
 10.1085
 12.383
 12.4983
 12.3396
 12.4594
 7.85149
 7.83935
 7.86674
 7.76251
 10.419
 10.4917
 10.4118
 10.311
 9.18369
 9.11306
 8.89454
 8.94225
 9.41518
 9.34315
 9.42148
 9.40638
 13.7485
 13.8266
 13.8342
 11.9144
 11.8841
 11.9723
 11.8704
 9.27507
 9.19566
 9.33626
 9.33325
 11.5774
 11.515
 11.4938
 11.3557
 9.91655
 9.91511
 9.9525
 10.1121
 8.39129
 8.2931
 13.4712
 13.3862
 13.4016
 13.3462
 9.66677
 9.74673
 9.55686
 9.70691
 11.9537
 12.0157
 12.0533
 11.9217
 10.2003
 10.3594
 7.94199
 7.94836
 8.0726
 7.8721
 9.19044
 9.00967
 9.24632
 8.92301
 7.68588
 7.68241
 7.5534
 7.45378
 9.78994
 9.82232
 9.74082
 10.163
 9.97527
 10.0169
 10.0618
 9.94398
 10.053
 10.0108
 10.1595
 12.5706
 12.5362
 12.6531
 12.6848
 13.979
 14.0334
 13.9054
 11.2879
 11.2626
 11.2624
 8.83475
 8.97523
 8.88558
 9.01729
 11.7992
 11.7148
 11.607
 11.7075
 12.9447
 13.0804
 13.054
 12.9387
 11.253
 11.3823
 11.446
 11.4496
 12.0125
 11.8441
 12.0013
 7.97141
 7.90543
 8.09841
 8.08868
 13.3455
 13.3024
 13.0972
 13.0303
 13.0197
 9.95895
 9.9036
 10.0448
 9.82201
 11.4251
 11.293
 11.2771
 11.3537
 13.1216
 13.1007
 13.0033
 13.1014
 10.8237
 11.0498
 11.045
 10.892
 12.2
 12.2877
 12.1309
 12.139
 8.67654
 8.64052
 8.42873
 12.3753
 12.4012
 12.2927
 12.303
 10.8842
 10.7891
 13.1717
 13.0273
 13.0671
 13.1489
 12.9936
 13.0981
 13.0472
 13.0924
 8.45178
 8.55403
 12.8129
 12.7061
 12.7656
 12.8548
 11.2385
 11.3708
 11.2955
 11.2392
 12.0216
 13.8726
 13.9682
 13.938
 10.7844
 10.8037
 10.7564
 10.8784
 8.45752
 8.44084
 8.55397
 8.37746
 13.6995
 13.6908
 13.6378
 13.7354
 13.0244
 12.9311
 13.0501
 13.029
 10.0892
 10.0157
 10.0103
 13.5769
 13.5621
 13.5012
 13.4704
 7.619
 7.78796
 7.67458
 7.59011
 13.4358
 13.3552
 13.3259
 13.4846
 10.3356
 10.4831
 10.3714
 10.2204
 11.9881
 11.9154
 11.9397
 12.0259
 13.0862
 13.0435
 13.0641
 12.1254
 11.9836
 12.1386
 12.0212
 13.2225
 13.3375
 13.2632
 13.2626
 12.9108
 12.9882
 12.9278
 9.64055
 9.76537
 9.60433
 9.69935
 9.84813
 11.433
 11.1652
 11.335
 11.3302
 8.35017
 8.41297
 8.49831
 8.41258
 10.7917
 10.6476
 10.8755
 10.7034
 10.2762
 10.1712
 10.2776
 10.3216
 13.0525
 13.1044
 12.9756
 12.7786
 12.811
 10.4981
 10.6673
 10.5409
 10.4787
 8.46907
 8.25705
 11.007
 10.9706
 11.093
 10.9369
 13.2129
 13.2419
 13.1355
 8.7647
 8.69374
 8.82309
 8.76972
 11.0604
 11.2293
 11.1803
 11.1464
 13.1106
 13.1773
 13.1114
 13.0638
 11.3763
 11.3984
 11.213
 11.3408
 10.4146
 10.1848
 13.6462
 13.7025
 13.6714
 13.7378
 12.8167
 12.633
 12.5419
 12.6077
 12.5123
 12.5402
 12.5583
 12.6987
 12.6468
 12.5737
 11.1638
 11.1595
 11.1923
 10.5189
 10.5771
 10.626
 10.6893
 12.6519
 12.6651
 12.6409
 12.6637
 11.9883
 12.0027
 10.8395
 10.947
 10.9029
 11.0067
 10.8748
 10.8536
 11.4651
 11.3099
 11.2939
 11.423
 14.3709
 14.2525
 14.2744
 14.2144
 10.8965
 13.2251
 13.113
 13.1921
 13.2176
 8.02514
 7.89186
 8.04608
 9.7749
 9.82977
 9.90358
 9.75335
 11.4225
 11.3419
 11.3904
 11.5791
 11.1841
 11.0743
 11.2277
 12.8622
 12.7717
 12.8231
 12.8883
 8.55334
 8.43595
 8.72128
 8.51501
 10.4169
 10.4621
 10.34
 10.3782
 8.58594
 8.54099
 8.76025
 8.6449
 13.3105
 13.2913
 13.4008
 13.3945
 12.6002
 12.5097
 9.71912
 9.77738
 9.85153
 9.7654
 8.37286
 8.35767
 8.33199
 8.42597
 7.2042
 7.13756
 7.25647
 7.0772
 8.52351
 8.63287
 8.50145
 10.4252
 10.3304
 10.4626
 10.3834
 8.77198
 8.71305
 8.63343
 8.69512
 13.4201
 13.3189
 13.2345
 13.3405
 9.14244
 9.05336
 9.01802
 10.4465
 10.4871
 10.5232
 10.5198
 13.241
 13.294
 13.2391
 13.3258
 10.0925
 9.94019
 10.0375
 10.0247
 10.7084
 10.6044
 10.5655
 10.6833
 12.4003
 12.3357
 12.2941
 12.2066
 13.499
 13.4786
 13.6138
 13.6046
 11.6672
 11.6257
 11.52
 11.6425
 14.5903
 14.5547
 14.4269
 14.4818
 12.9591
 12.8867
 12.9726
 12.7127
 12.834
 12.8335
 12.8617
 15.0002
 14.9521
 15.0682
 14.9567
 8.83638
 8.94722
 8.93775
 9.34636
 9.32927
 9.20772
 9.23851
 12.6184
 12.4383
 12.4949
 13.9492
 13.9272
 13.9792
 13.4268
 13.5386
 13.4255
 13.4196
 12.5548
 12.5719
 12.4703
 12.6547
 10.3564
 10.1832
 10.2839
 10.3048
 14.3394
 14.3336
 14.2522
 14.3658
 10.6164
 10.8249
 10.8539
 10.6863
 9.33746
 9.21835
 9.44387
 9.332
 10.9082
 10.9124
 10.7163
 10.7897
 11.7358
 11.8152
 11.6315
 13.1555
 13.1661
 13.1569
 13.0842
 8.54606
 8.41714
 8.37901
 8.41547
 9.17297
 9.08739
 9.18152
 9.26619
 12.4603
 12.3657
 12.4253
 12.5153
 8.17154
 8.09112
 8.02103
 8.49936
 8.28155
 8.46624
 8.41891
 8.30122
 8.26601
 8.40022
 8.35252
 14.2164
 14.2445
 15.0025
 14.9856
 15.0491
 14.9177
 10.4318
 10.4911
 10.5823
 11.3793
 11.4727
 11.2748
 11.4384
 11.2047
 11.066
 11.1117
 11.1873
 15.8091
 11.796
 10.585
 10.4572
 9.2476
 9.15571
 9.20629
 9.19663
 13.958
 12.0804
 11.9682
 12.0833
 7.03736
 7.133
 7.12848
 7.12378
 11.1473
 11.2451
 11.151
 11.042
 7.99837
 8.09751
 8.01623
 8.14062
 11.7219
 11.5845
 11.8139
 12.069
 11.929
 12.0143
 8.89522
 8.83322
 9.01436
 8.87921
 10.647
 10.7072
 10.8019
 10.8776
 13.3895
 13.4723
 13.3103
 13.3458
 9.17731
 8.93325
 9.02614
 8.09473
 7.8654
 7.86391
 8.08527
 9.24886
 9.27664
 9.40463
 9.25229
 12.6279
 12.6477
 12.4491
 12.6583
 12.3705
 12.4558
 12.4386
 12.4506
 8.74766
 8.63279
 8.64421
 8.62071
 11.8224
 11.8303
 11.9394
 9.59653
 9.57109
 9.63718
 9.71185
 13.1334
 13.0293
 13.1945
 13.1854
 10.5136
 10.4505
 10.6271
 10.5546
 13.265
 13.1868
 13.2585
 13.2492
 10.9245
 10.8097
 10.9156
 10.8706
 9.42955
 9.39767
 9.26667
 9.54553
 13.4958
 13.5298
 13.4437
 11.0373
 10.9229
 9.08463
 9.16285
 9.16642
 9.26174
 11.8144
 11.8885
 11.9023
 13.338
 13.4442
 13.4736
 13.4201
 10.1741
 10.1191
 10.1959
 10.07
 10.3949
 10.4171
 10.2009
 10.3608
 15.4291
 15.4363
 15.3366
 15.3953
 11.284
 11.42
 11.332
 14.7601
 14.6777
 14.6509
 11.1492
 11.1604
 11.2326
 11.1869
 11.3296
 13.2759
 13.2593
 13.4228
 13.3758
 11.6641
 11.5575
 11.4987
 9.23419
 9.23764
 9.24565
 9.30316
 11.4849
 11.4214
 11.3545
 11.3569
 11.3656
 11.4165
 11.4462
 7.25602
 7.34167
 7.3687
 7.49004
 12.7279
 12.5
 12.557
 12.6338
 13.6389
 13.6327
 13.5862
 13.5973
 12.1081
 12.1536
 11.9576
 12.0875
 8.8812
 8.79584
 8.78111
 8.98841
 15.4929
 15.4044
 15.4701
 15.3488
 9.69165
 9.84233
 9.73849
 9.72653
 13.6208
 13.7024
 13.6574
 13.6694
 9.13741
 9.44817
 9.37724
 9.24027
 9.4724
 9.56268
 9.63522
 9.53218
 9.68306
 9.6052
 12.6119
 12.6837
 12.6914
 12.628
 8.56931
 8.57135
 8.57425
 9.64898
 9.86381
 9.76495
 9.61045
 12.8118
 12.6858
 12.7687
 12.8857
 12.1016
 12.1526
 11.9956
 15.9001
 15.8982
 15.9347
 15.899
 11.3258
 11.5121
 11.3297
 8.60239
 8.49792
 8.61779
 8.66127
 9.32859
 9.429
 8.71327
 8.56935
 8.4521
 8.67052
 9.83305
 9.81867
 13.6755
 13.6268
 13.769
 13.5564
 9.51198
 9.5487
 9.52869
 9.69769
 11.1254
 11.0467
 12.2187
 12.1222
 12.1489
 12.2031
 9.49058
 9.42402
 9.36189
 9.4255
 12.5354
 12.7402
 12.7316
 12.5784
 8.68253
 8.70318
 8.56036
 8.34675
 10.6658
 10.6274
 10.7837
 13.8681
 13.922
 13.9346
 13.8613
 10.3982
 10.4325
 10.4967
 10.569
 12.7138
 12.825
 12.8625
 12.9083
 12.6195
 12.7549
 12.6614
 15.5843
 15.5895
 15.5923
 15.5319
 13.4774
 13.3017
 13.2598
 13.4184
 9.27836
 9.36064
 9.21595
 9.36681
 11.416
 11.3816
 11.5039
 11.9726
 13.1254
 13.0648
 13.1055
 13.0218
 11.9383
 12.036
 11.9501
 11.907
 9.97567
 9.78209
 9.7567
 9.93252
 13.1531
 13.1519
 12.9469
 13.9939
 10.7044
 10.6448
 10.7982
 10.582
 13.0795
 12.915
 14.8567
 14.9339
 13.0992
 13.0106
 13.1024
 13.237
 9.89056
 9.77161
 9.05323
 9.06017
 8.99667
 9.08436
 12.2438
 12.1383
 12.117
 12.1462
 8.14457
 8.11322
 7.98697
 8.11372
 12.1722
 12.1586
 12.4009
 12.3828
 9.64558
 9.62702
 9.69419
 9.88016
 12.8123
 12.8059
 12.7478
 12.7399
 9.48282
 9.39477
 9.57162
 9.45804
 11.7484
 11.6465
 8.38521
 8.46804
 10.2113
 10.114
 10.2572
 10.0795
 10.1796
 10.2431
 10.2358
 10.0877
 10.9584
 11.0432
 10.9198
 10.9126
 9.48748
 9.66902
 9.48497
 9.35623
 12.8523
 12.97
 12.8991
 12.9059
 8.48967
 8.55588
 8.57819
 8.26689
 8.22055
 8.37316
 8.27072
 13.2158
 13.0839
 13.0857
 13.1431
 9.88061
 10.0507
 10.0267
 9.95755
 13.2103
 13.1137
 13.1026
 13.0039
 11.1723
 11.48
 11.3042
 11.3012
 11.4744
 9.12752
 9.10386
 9.099
 9.27252
 14.5779
 14.6557
 14.599
 14.5081
 9.96803
 9.88258
 9.77939
 9.90545
 11.215
 11.0933
 11.34
 11.2422
 9.93133
 10.0342
 10.0536
 10.0578
 10.2215
 7.30894
 7.41045
 7.61903
 7.50737
 9.40566
 9.40153
 9.62156
 9.56208
 14.8164
 14.7617
 14.6867
 14.8326
 11.7856
 11.9258
 11.9836
 11.8605
 12.3839
 11.0965
 11.1207
 11.0766
 10.9728
 8.6795
 8.68351
 8.82478
 8.90102
 9.14366
 9.15277
 9.00485
 8.68932
 9.01657
 8.85818
 8.9276
 15.451
 15.4001
 9.60501
 9.6141
 9.59548
 12.4714
 12.4787
 12.5111
 12.3717
 9.77238
 9.84082
 9.74272
 9.86778
 10.949
 10.1217
 10.2567
 10.1136
 10.1587
 8.27247
 8.52118
 8.45256
 8.28751
 10.1396
 10.0399
 9.85094
 10.1054
 11.8348
 11.7894
 11.9626
 11.6968
 13.2677
 13.2448
 13.3051
 13.2189
 7.52909
 7.71922
 7.47724
 7.55138
 9.85384
 9.91739
 9.79247
 9.96515
 7.75672
 7.83053
 7.79687
 7.67039
 12.4503
 12.6206
 12.4502
 12.4282
 10.9622
 11.0309
 8.34936
 8.13762
 8.36888
 8.25425
 10.9635
 10.9234
 10.9252
 10.7973
 11.4414
 11.2918
 11.0667
 10.9906
 10.9161
 11.0642
 9.05406
 9.08157
 9.12963
 8.97343
 12.1813
 12.3332
 12.4017
 12.2665
 13.7188
 13.6274
 13.7004
 13.699
 13.3999
 13.4372
 13.4434
 13.4425
 12.3071
 12.2417
 12.235
 12.3492
 11.6977
 11.8711
 11.7502
 11.6245
 11.8182
 11.7274
 11.6696
 11.2027
 11.2962
 11.3379
 11.2357
 13.7761
 13.8091
 13.7591
 11.9551
 12.0201
 11.8705
 11.896
 10.9976
 10.8793
 10.8895
 11.0501
 12.5937
 12.7069
 12.5322
 12.7215
 12.3638
 12.257
 12.2853
 12.2949
 10.7765
 10.7697
 10.6677
 10.5741
 11.3863
 11.4968
 11.3967
 11.431
 10.0464
 10.1082
 10.039
 10.089
 13.4482
 13.4171
 13.3759
 9.2731
 9.34558
 9.1682
 9.33296
 12.5902
 12.4771
 12.5546
 12.6416
 11.7358
 11.8099
 11.8662
 11.6962
 11.4805
 11.3693
 11.3324
 10.4988
 10.5109
 10.4592
 10.3543
 10.2122
 10.1925
 10.1043
 10.266
 9.96975
 9.94307
 9.82269
 8.99154
 8.93844
 8.95055
 10.2926
 10.3549
 10.4481
 10.3436
 8.8105
 8.73559
 8.91906
 8.53716
 8.52893
 8.57242
 8.70358
 11.3884
 11.629
 11.4963
 11.5508
 12.3802
 12.4701
 12.3608
 12.4618
 12.9236
 8.95931
 9.0302
 8.79698
 8.94621
 8.83219
 9.09829
 15.6507
 15.7019
 15.6439
 15.6087
 9.58809
 9.70756
 11.6869
 11.8272
 11.6743
 7.74314
 7.58182
 10.4773
 10.6804
 10.6226
 10.5899
 11.7899
 11.7241
 11.7209
 9.56285
 9.30142
 9.46089
 9.37127
 12.4197
 12.3883
 12.4761
 12.3454
 15.0101
 14.9225
 14.9436
 15.0361
 10.699
 10.6732
 10.7386
 10.5592
 9.05424
 8.79456
 9.05009
 9.41271
 9.41809
 9.38336
 9.50913
 12.6577
 12.8382
 12.7936
 12.9093
 12.673
 12.5765
 13.0816
 12.9886
 13.1164
 7.66351
 7.76849
 9.07276
 9.22431
 9.05554
 9.25537
 11.0355
 10.8461
 10.8757
 9.71151
 9.87634
 9.59758
 9.5894
 12.5925
 12.77
 12.7374
 12.6507
 11.2631
 11.2761
 11.1565
 11.1283
 11.3449
 11.2436
 11.2378
 11.35
 12.8105
 12.7499
 12.7937
 12.5697
 12.6322
 12.5844
 12.5964
 7.13477
 6.9792
 7.0815
 6.907
 13.547
 13.6904
 8.62766
 8.56655
 8.5892
 8.68501
 11.7089
 11.5845
 11.6395
 11.6993
 11.0157
 10.9229
 10.9228
 10.9153
 13.433
 13.3383
 11.1122
 11.2049
 11.2103
 11.2901
 11.7048
 11.75
 11.789
 11.6608
 9.18988
 9.22008
 9.27097
 9.18588
 11.4614
 11.3707
 11.3443
 11.5304
 12.499
 12.4937
 10.5258
 10.523
 10.598
 10.4856
 9.87634
 9.93821
 9.81819
 11.0271
 10.8905
 10.9347
 10.8654
 13.0003
 12.9395
 13.0293
 12.8714
 15.1691
 15.0749
 15.0876
 15.1786
 11.4185
 11.4986
 11.4026
 11.2489
 10.8512
 10.6676
 10.8055
 10.845
 11.8443
 11.7735
 11.9162
 11.8867
 12.2436
 12.3189
 12.2288
 12.1691
 9.13421
 8.9797
 10.473
 10.5411
 10.5918
 14.375
 14.4201
 14.4786
 14.3607
 12.7863
 12.8855
 12.7143
 12.9255
 11.0728
 11.025
 11.1114
 11.1573
 9.15828
 9.09597
 9.09587
 11.6368
 11.6856
 11.8375
 11.8441
 12.5672
 12.4027
 12.4616
 12.5761
 9.68289
 9.85122
 9.86383
 9.75838
 10.5098
 10.5525
 10.6044
 10.5929
 9.24032
 9.21385
 9.22479
 9.54595
 9.52204
 9.52839
 9.51325
 12.0196
 11.9929
 12.0882
 12.1494
 11.5291
 11.5553
 11.4391
 15.0235
 15.0074
 15.0261
 15.0881
 12.5531
 12.5475
 13.6834
 13.7588
 13.6468
 13.5805
 12.8836
 13.3397
 8.70721
 12.4442
 12.5751
 12.4734
 12.6334
 7.58561
 10.4416
 10.5707
 10.4418
 10.6196
 12.4851
 12.3572
 12.4245
 11.9835
 11.8791
 11.8764
 9.18913
 9.1717
 9.37011
 9.20024
 9.33656
 9.42737
 9.30927
 9.41837
 13.1371
 13.2887
 13.2941
 13.185
 8.23683
 8.20348
 8.14719
 8.33148
 11.2587
 11.382
 11.4821
 9.35657
 9.24095
 9.31956
 10.7893
 10.9149
 10.8677
 10.7657
 12.4379
 12.3705
 12.5251
 12.4736
 10.84
 10.6407
 10.8205
 12.3083
 12.2713
 12.2634
 12.4026
 11.6828
 11.5038
 9.16418
 9.07315
 9.03624
 8.90783
 8.68314
 8.49281
 8.59667
 8.64859
 12.815
 12.6944
 12.8621
 12.7588
 9.79618
 9.99529
 9.90892
 9.75477
 10.5517
 10.7614
 10.586
 10.4965
 11.9091
 12.0166
 11.8489
 11.9203
 8.8674
 8.93295
 8.98573
 9.0605
 11.632
 11.7486
 11.5553
 11.6044
 11.2616
 11.3644
 11.3671
 11.1577
 11.5915
 11.6752
 11.564
 11.5484
 12.7317
 12.609
 12.9326
 12.8487
 12.7641
 12.9066
 13.8498
 14.0057
 13.899
 13.8584
 10.4728
 10.4801
 10.4915
 10.342
 10.6239
 10.7639
 10.7534
 8.25079
 8.2166
 8.18376
 8.19882
 7.62529
 7.54568
 7.68782
 8.47215
 8.40184
 8.62158
 10.8214
 10.6656
 10.5591
 10.7587
 10.0363
 9.94254
 9.85484
 10.1039
 9.25436
 9.11998
 9.23228
 9.09835
 12.3276
 12.4555
 12.4241
 12.3432
 13.6286
 13.5346
 13.48
 13.482
 7.66521
 7.65203
 7.77961
 7.49978
 12.5929
 12.6376
 12.691
 12.5668
 10.9528
 10.9545
 10.8835
 10.9887
 7.52236
 7.58769
 7.77994
 7.41518
 10.3249
 10.4661
 10.2824
 10.3294
 11.8042
 11.8667
 11.8138
 11.8597
 12.5511
 12.653
 12.6387
 13.3154
 13.188
 13.2658
 13.3368
 13.0144
 13.0668
 13.0035
 13.0769
 12.9434
 13.0238
 12.6609
 12.5898
 12.7966
 9.31573
 9.40317
 9.42922
 9.44987
 8.46774
 8.57765
 8.53686
 8.56062
 10.2358
 10.2785
 10.2627
 10.448
 11.4951
 8.72281
 8.65936
 8.68214
 8.77712
 13.3733
 13.3803
 13.3879
 13.4115
 7.96116
 7.85617
 7.99618
 7.77795
 11.9954
 12.1061
 11.9211
 9.93784
 13.2464
 13.2547
 13.3357
 12.8349
 12.8983
 12.9711
 12.7816
 11.0769
 11.1005
 11.2808
 11.1603
 9.66669
 9.65837
 9.7705
 9.56243
 11.5067
 9.99585
 10.0621
 10.0961
 11.4549
 11.4864
 11.4515
 11.3194
 12.3256
 12.2898
 12.3888
 12.3891
 11.9588
 12.1171
 12.0008
 11.9825
 9.92309
 12.7131
 12.6977
 12.6365
 9.40591
 9.50279
 9.37416
 9.46376
 8.97188
 9.02352
 8.84695
 9.06662
 8.44054
 8.35495
 8.46163
 12.3261
 12.3184
 12.4083
 12.3109
 13.471
 13.5459
 13.4775
 9.15143
 9.18024
 8.87403
 8.93354
 9.00879
 9.01287
 11.4955
 11.4823
 11.3915
 7.92246
 7.9787
 7.84899
 7.99808
 9.1112
 9.16893
 9.10721
 9.04207
 10.3657
 10.3568
 10.2808
 10.2521
 10.9804
 10.9392
 11.0188
 11.1277
 12.6003
 12.6232
 12.6556
 12.5571
 8.94299
 8.93492
 9.01078
 8.81497
 12.2449
 12.2086
 12.3656
 11.9886
 11.8801
 11.8631
 11.83
 8.47445
 8.49972
 8.29674
 8.40784
 10.0058
 9.99002
 10.0448
 10.0917
 7.85639
 7.96838
 8.09044
 7.9408
 11.9888
 11.901
 11.8503
 11.867
 11.0044
 10.9548
 11.1094
 10.8545
 8.94577
 8.96581
 8.87093
 8.93147
 11.0755
 10.9726
 11.1133
 11.0878
 7.87639
 7.67948
 7.84277
 12.3707
 12.4129
 12.4378
 12.4184
 10.726
 10.7305
 10.7665
 10.863
 10.4243
 10.2784
 10.3935
 10.3728
 11.243
 11.3233
 11.121
 11.2663
 9.01874
 9.02549
 8.84201
 8.95063
 11.4543
 11.5931
 11.5069
 11.5526
 10.5462
 10.5829
 10.5612
 10.668
 13.4432
 13.4366
 13.4601
 13.4422
 9.45324
 9.42291
 9.54183
 9.60859
 13.4559
 13.458
 13.4593
 12.6405
 12.6983
 12.6963
 12.6265
 13.0355
 12.9802
 12.7708
 12.9372
 9.60583
 9.66784
 9.56967
 9.47573
 10.1007
 9.9112
 10.0616
 10.0349
 12.0012
 12.1179
 12.1076
 12.1802
 7.40529
 7.51429
 7.64045
 14.9683
 14.9895
 10.5357
 10.412
 10.607
 10.5508
 14.0563
 14.1522
 14.262
 14.161
 10.1244
 10.1051
 9.94409
 10.0121
 11.9059
 12.2669
 12.3135
 12.3458
 12.4165
 9.67174
 9.63101
 9.60369
 9.54966
 8.86221
 8.92211
 8.7715
 8.90218
 13.4385
 13.4384
 9.90801
 9.84175
 9.62651
 9.86242
 10.6914
 10.9338
 10.6698
 10.798
 12.4962
 12.4935
 12.5757
 12.3336
 11.4617
 11.5773
 11.6041
 11.4499
 9.1691
 9.33685
 9.01828
 8.42275
 8.47115
 8.45047
 8.46949
 7.55221
 7.54983
 7.50226
 12.1882
 12.2638
 12.2406
 12.1673
 8.45578
 8.57394
 8.61887
 8.64292
 13.1181
 13.2147
 13.1754
 13.1466
 10.2283
 10.2348
 10.1961
 10.3599
 10.8553
 10.6933
 10.8166
 10.8093
 8.37991
 8.38389
 8.39626
 8.28255
 10.0572
 9.97146
 10.1001
 10.1826
 14.3037
 14.3596
 14.3901
 14.3139
 11.491
 11.6794
 11.5058
 11.6427
 12.1177
 11.9414
 11.9557
 12.1078
 9.69955
 9.61978
 9.76238
 9.8815
 12.9686
 13.0539
 13.0947
 13.082
 10.5542
 10.6549
 10.6254
 10.4672
 12.2302
 12.3287
 12.3457
 13.516
 13.5862
 13.5626
 13.6223
 10.4523
 10.3266
 10.5454
 10.2218
 10.2413
 10.3213
 12.6882
 12.8068
 12.888
 12.9128
 12.9248
 12.8706
 12.8271
 8.55083
 15.7548
 15.7027
 15.7139
 15.7967
 9.06163
 9.17259
 8.94558
 9.07657
 13.2055
 11.9378
 11.9623
 11.9943
 11.8229
 12.1461
 12.2225
 11.9832
 12.6291
 12.4714
 12.5459
 12.5987
 14.2895
 14.3166
 14.2487
 14.3922
 13.1224
 13.0304
 13.0367
 11.031
 11.1021
 11.0927
 12.21
 12.2545
 7.19734
 7.38028
 7.39066
 13.0304
 12.9317
 13.0808
 11.9785
 11.8804
 11.8303
 8.44332
 8.29939
 8.31649
 9.59684
 9.58941
 9.44799
 9.58726
 12.5813
 12.5127
 12.4734
 13.4402
 13.558
 8.15517
 8.28088
 8.09548
 8.15534
 13.9549
 13.9182
 14.0392
 13.8415
 12.9995
 13.0405
 15.1565
 15.2381
 14.7185
 14.7355
 14.6825
 11.9767
 11.9068
 12.0421
 8.23543
 8.40174
 8.4715
 9.96763
 9.94865
 9.81567
 12.5115
 12.4249
 12.3053
 12.2354
 12.3485
 8.8158
 13.5179
 13.5197
 13.4704
 13.4647
 12.1011
 11.8798
 12.0309
 12.0285
 9.75559
 9.79509
 9.69706
 9.87813
 9.86148
 9.94572
 9.9044
 11.9989
 12.0423
 11.9276
 11.8367
 9.94485
 9.89483
 9.79089
 9.79704
 9.48321
 9.60605
 9.53318
 9.37267
 11.2882
 9.90006
 9.8698
 9.83987
 9.79147
 7.97009
 7.88957
 7.9678
 8.07222
 12.7561
 12.96
 12.9886
 12.8375
 8.26843
 8.17303
 8.25466
 8.26988
 15.239
 15.2032
 15.2766
 8.1663
 8.26114
 8.01308
 8.08835
 12.7169
 12.7438
 12.8555
 12.8398
 9.43904
 9.57401
 9.47564
 9.37681
 12.9981
 12.9916
 13.2304
 13.1779
 7.75135
 9.18396
 9.38669
 9.3082
 9.44888
 8.78747
 8.64339
 8.70709
 13.3795
 13.32
 13.4178
 13.4606
 9.62856
 9.7372
 9.72983
 9.80851
 10.6673
 10.5415
 10.529
 10.5812
 10.8478
 10.7682
 10.9571
 10.965
 7.51898
 7.68925
 11.7431
 11.7289
 11.7434
 11.9817
 11.8789
 11.834
 11.7668
 9.81923
 9.9112
 9.67725
 9.66091
 9.82536
 9.75521
 9.75663
 9.64096
 10.4411
 10.4247
 10.3177
 10.4772
 12.7121
 12.7069
 12.4145
 12.4957
 12.5011
 11.9769
 11.8895
 11.8865
 11.8697
 13.6069
 13.6977
 13.6842
 13.6861
 12.0918
 12.17
 12.2756
 14.2413
 14.2444
 14.1375
 12.0818
 12.0969
 12.2047
 12.0081
 12.6873
 12.5321
 12.7198
 11.4655
 9.80354
 9.8517
 9.68464
 11.8033
 11.8431
 11.758
 11.6834
 13.0701
 13.0605
 12.7857
 12.9287
 11.2881
 11.2047
 11.1587
 11.1543
 9.24504
 9.33894
 7.35349
 7.48374
 7.5735
 7.3374
 9.73539
 9.79424
 9.66964
 9.88246
 11.7367
 11.7608
 11.7746
 11.7018
 7.82828
 7.81274
 7.54197
 7.92353
 8.19011
 8.11605
 8.08125
 11.1225
 11.2929
 11.3424
 11.1861
 13.3037
 13.3374
 13.2421
 11.6518
 11.6662
 11.515
 11.6511
 13.3539
 13.4994
 13.3556
 13.5032
 10.1197
 10.1273
 10.088
 10.3905
 13.4207
 13.4177
 13.4288
 13.3926
 12.6647
 12.5876
 12.557
 12.6163
 8.14787
 8.31294
 8.11496
 8.2652
 11.0268
 11.0225
 11.1381
 11.0155
 12.1055
 12.1826
 12.0655
 12.1637
 9.81516
 9.78658
 9.35513
 9.12666
 9.19713
 9.21791
 11.8625
 11.7238
 11.7613
 11.6007
 11.5571
 11.4739
 11.5298
 11.5454
 13.216
 13.144
 13.2412
 11.9048
 11.9934
 12.0617
 15.5257
 15.6243
 15.5454
 15.5968
 12.5839
 12.5298
 13.3871
 13.3314
 13.3775
 13.4771
 10.6667
 10.7966
 10.6798
 10.8345
 14.2508
 14.1356
 14.08
 14.1876
 12.9038
 12.9365
 13.0596
 10.1672
 10.1258
 10.1436
 10.2115
 12.8436
 12.7459
 12.8852
 13.0124
 13.0038
 13.1117
 13.0931
 11.9961
 12.0671
 12.0488
 11.9188
 9.46724
 9.11126
 14.7831
 14.7388
 12.6335
 12.7317
 11.6684
 11.7771
 11.7323
 11.7516
 10.2654
 10.1643
 10.2642
 10.0836
 11.3097
 11.2991
 11.2281
 11.2037
 13.3358
 13.5176
 13.3692
 13.4416
 10.7263
 10.8856
 10.7993
 13.272
 13.3037
 13.2522
 13.2569
 8.61424
 8.59752
 8.48701
 8.67861
 10.2871
 10.2922
 10.2953
 10.4253
 13.1268
 13.0468
 13.1635
 11.6149
 11.7598
 11.6306
 11.5635
 13.4414
 13.452
 13.4081
 12.8941
 12.7785
 12.8153
 12.8848
 13.0183
 13.0411
 12.928
 13.0019
 11.7848
 11.8879
 11.9205
 11.9609
 8.10404
 8.18331
 8.28822
 8.24874
 10.5503
 10.3886
 10.4568
 10.4286
 11.7592
 11.9184
 11.8001
 11.0633
 11.1273
 11.1201
 8.76008
 8.94299
 8.77489
 8.88798
 10.4471
 10.414
 10.5604
 10.36
 11.8995
 11.803
 11.7559
 11.7712
 13.5842
 13.5534
 13.1564
 13.2289
 13.0942
 13.0918
 14.9641
 14.9956
 15.0841
 14.9582
 9.75696
 9.73173
 9.72579
 9.79368
 12.7889
 12.9171
 12.8769
 12.8868
 11.2958
 11.4259
 11.3414
 11.4899
 13.7645
 13.8149
 13.7952
 13.8393
 10.945
 11.0165
 11.0891
 11.076
 11.6114
 9.8179
 9.92105
 9.98587
 9.94281
 11.8403
 11.9831
 12.0125
 11.8708
 11.8676
 11.8024
 11.7172
 11.756
 12.2019
 12.3166
 12.2728
 12.3512
 13.0619
 13.1822
 12.9948
 9.12095
 9.08552
 9.03992
 9.30575
 11.9076
 11.9493
 11.9502
 11.9945
 9.26695
 9.20331
 9.10068
 10.2004
 10.2985
 10.2074
 10.2804
 9.52934
 9.31553
 9.43377
 9.30313
 13.1163
 13.0174
 13.1365
 15.8104
 15.7648
 15.7524
 9.93824
 9.76759
 9.81174
 10.91
 10.684
 10.8013
 10.6704
 12.1005
 12.0454
 11.9876
 12.0858
 11.7375
 11.6867
 11.8571
 11.818
 14.4718
 14.396
 14.5688
 14.3909
 11.2473
 11.3123
 11.3254
 11.3415
 10.673
 10.6699
 10.5488
 10.7063
 12.8221
 12.8187
 12.5261
 12.7529
 12.64
 12.6247
 10.0942
 10.2069
 10.1313
 10.1314
 12.949
 12.8214
 10.5647
 10.6275
 13.2921
 15.6155
 15.6365
 15.6203
 15.5493
 13.7509
 13.6406
 7.72194
 7.53788
 7.68935
 13.4928
 13.3929
 13.302
 13.4012
 9.92216
 9.90115
 12.6835
 12.7108
 12.6938
 12.6867
 12.2791
 12.069
 12.1548
 9.78601
 9.73069
 9.76577
 9.61109
 10.4139
 10.2795
 10.3962
 10.3535
 9.06154
 9.05589
 8.90331
 11.795
 11.9085
 11.7847
 11.9656
 11.4261
 8.95019
 9.20531
 9.01262
 9.07582
 13.441
 13.4725
 13.4017
 13.3528
 11.1412
 11.2498
 11.0927
 11.217
 9.68962
 9.90934
 9.7512
 9.86479
 15.1515
 15.1295
 15.0984
 15.0905
 13.0946
 7.81328
 12.0046
 11.8209
 11.9397
 12.0593
 11.1078
 10.9898
 11.1434
 11.1893
 12.6853
 12.8418
 12.7575
 12.7202
 11.0171
 11.0842
 11.0298
 11.0018
 13.2214
 13.1954
 13.0851
 13.2347
 13.1381
 13.0643
 13.1478
 11.7307
 11.61
 11.7936
 11.7213
 9.61853
 9.4875
 9.76482
 7.27497
 7.0988
 7.25288
 7.34654
 14.5586
 14.6643
 14.6758
 11.5512
 11.5576
 11.6629
 11.6104
 11.7422
 11.5666
 8.52506
 8.53912
 8.58308
 8.40562
 9.9685
 10.0723
 10.0317
 10.1397
 13.0645
 12.8906
 13.0178
 13.9849
 11.8777
 12.0294
 11.975
 11.8884
 11.5611
 11.4776
 11.4995
 10.2089
 10.2848
 10.26
 10.1639
 9.75705
 9.91148
 9.79831
 9.87854
 11.9454
 12.0323
 9.96781
 9.98147
 9.94465
 9.8412
 10.9375
 10.9777
 10.9441
 10.8264
 8.22778
 8.13314
 10.5435
 10.6691
 10.5564
 10.6133
 10.0295
 9.96051
 9.936
 9.86162
 10.2705
 10.1855
 10.268
 10.2709
 11.487
 11.4124
 11.8229
 11.7353
 11.8329
 11.9088
 12.261
 12.3725
 12.3212
 12.2916
 10.9034
 10.8124
 10.8111
 10.8859
 13.1766
 13.0912
 13.0248
 12.9731
 12.7133
 12.7366
 12.7825
 12.7411
 14.789
 14.7232
 14.7328
 14.8341
 12.2584
 12.4487
 10.9631
 11.1674
 11.014
 11.078
 11.977
 12.0031
 11.9478
 11.8624
 11.1845
 11.0984
 11.0418
 11.1408
 11.7696
 11.7483
 9.7793
 9.83555
 7.81832
 7.78897
 7.76883
 7.74104
 13.4179
 11.8544
 11.8682
 11.8279
 11.7395
 11.3551
 11.4747
 11.4345
 11.4098
 12.4849
 12.5591
 12.5882
 12.6886
 10.079
 10.2524
 10.0993
 10.2519
 11.0809
 11.1668
 11.2093
 11.0882
 13.2305
 13.2717
 13.1787
 13.2743
 13.3294
 12.0683
 11.9384
 12.0989
 12.0406
 12.176
 12.0063
 12.1426
 12.1655
 13.0588
 13.054
 13.1572
 13.0598
 12.7546
 12.7207
 12.5679
 12.639
 11.6219
 11.5065
 11.6782
 11.6877
 13.1781
 13.2469
 13.2893
 13.248
 11.0022
 10.962
 11.1329
 12.5862
 12.5873
 12.6093
 12.6278
 14.2542
 14.1858
 11.0146
 10.9236
 10.8945
 11.2067
 11.0582
 11.1182
 11.0476
 13.3829
 13.2991
 13.2572
 13.7308
 13.6761
 13.6747
 13.715
 10.5379
 10.5675
 10.4592
 10.5782
 11.095
 11.2662
 11.0858
 9.49464
 9.75406
 9.6355
 11.4935
 11.5918
 11.5678
 9.06486
 9.09221
 9.03819
 14.9005
 14.9721
 14.9721
 14.9071
 8.21267
 8.15189
 8.2408
 8.13669
 12.3366
 12.4444
 10.8757
 10.9776
 13.0166
 13.0097
 13.0386
 12.9324
 10.6525
 10.7098
 10.5554
 9.71386
 9.60422
 9.62992
 9.60845
 8.97522
 9.18769
 13.4185
 13.405
 13.4576
 11.0134
 11.027
 11.1489
 12.7348
 12.8422
 12.7144
 13.3305
 13.3289
 13.3597
 13.4061
 11.8736
 11.8204
 11.943
 11.7739
 12.0271
 12.1604
 12.1331
 12.0407
 10.1818
 10.2205
 10.2371
 10.0886
 9.81507
 9.92971
 9.8633
 10.0282
 12.1195
 12.1023
 12.0167
 10.5828
 10.6302
 10.705
 10.1542
 10.0318
 10.1046
 10.0607
 6.9231
 7.02088
 6.88102
 11.4514
 11.487
 11.4892
 10.1107
 10.028
 10.2006
 11.574
 11.5038
 11.6612
 12.3717
 12.5093
 12.4773
 13.4139
 13.3706
 13.3909
 13.3641
 11.4739
 11.7365
 11.6061
 11.6954
 12.5965
 12.6339
 12.7174
 13.1186
 12.9958
 10.3058
 10.3927
 10.1939
 10.3237
 10.2856
 10.1664
 10.349
 10.4309
 13.0226
 12.9017
 12.8419
 12.8085
 13.1616
 13.2858
 13.2107
 13.2925
 13.9282
 13.9867
 13.9249
 14.0277
 8.36544
 8.29734
 9.22156
 9.41541
 9.30532
 9.19957
 8.08973
 12.4434
 12.3082
 12.4418
 11.3525
 11.3168
 11.4136
 11.4609
 13.1094
 13.1173
 11.6445
 11.6788
 11.5489
 13.4963
 13.4533
 9.40348
 9.39369
 9.24256
 9.51555
 8.86242
 8.90995
 8.65182
 8.80764
 9.75642
 9.73353
 9.87478
 12.3477
 12.2584
 12.2648
 8.91237
 8.93639
 8.88058
 8.84657
 12.6612
 12.8043
 12.6962
 12.6421
 9.64195
 9.73136
 9.76744
 9.64987
 12.5788
 12.7052
 12.7314
 12.5291
 13.178
 13.1321
 13.2164
 8.09527
 7.84312
 7.96173
 8.03381
 13.3859
 13.3371
 13.3611
 11.9156
 11.8754
 11.7327
 11.8224
 8.18094
 8.02647
 8.10761
 12.579
 12.6694
 12.5388
 12.614
 10.4351
 8.52684
 8.4348
 8.7499
 8.57346
 13.576
 13.5461
 13.4892
 13.5537
 10.2611
 10.4662
 10.3083
 10.2566
 11.5199
 11.477
 11.6414
 13.1554
 13.2289
 13.1416
 13.3609
 10.4439
 10.4926
 10.3761
 12.7599
 12.8095
 14.8167
 14.9127
 14.8202
 14.7579
 13.8071
 14.0481
 14.0581
 8.81013
 8.87857
 8.59577
 8.80193
 8.84344
 8.74888
 13.7319
 13.7037
 13.8118
 13.668
 12.0751
 12.0216
 12.0344
 11.9653
 11.6959
 11.8623
 11.8543
 11.8109
 11.0048
 11.0558
 10.9067
 11.038
 10.9937
 11.1996
 11.0695
 11.1841
 8.37933
 13.2549
 13.3053
 13.2475
 13.2842
 8.30895
 8.4224
 8.24918
 10.9279
 11.0615
 11.1285
 11.0731
 13.3613
 13.252
 13.2155
 11.1583
 11.2671
 11.1853
 11.272
 11.5286
 10.2267
 10.1861
 10.0318
 10.0882
 12.6701
 12.678
 12.6721
 11.5332
 11.3267
 11.4143
 8.17015
 8.23362
 8.39625
 8.25399
 11.545
 11.5698
 11.6225
 15.2103
 15.1788
 15.2734
 11.5557
 11.6421
 11.5635
 11.7587
 10.1586
 10.0259
 10.0687
 11.4145
 11.3804
 9.13084
 9.04916
 9.21183
 9.182
 9.78987
 9.66162
 9.72647
 9.75526
 8.00787
 8.061
 8.16023
 8.26553
 11.0925
 11.3325
 11.1595
 11.1196
 9.95054
 9.98754
 10.0358
 10.0856
 9.13661
 9.02691
 8.91806
 12.833
 12.7626
 12.9437
 12.8736
 11.6763
 11.5543
 12.2902
 12.3804
 12.2795
 12.3241
 10.3168
 10.3297
 10.3435
 10.2476
 11.5758
 11.4612
 11.4918
 11.6197
 10.4571
 10.533
 10.3684
 10.5216
 11.4481
 11.4186
 11.2957
 11.2937
 11.6278
 11.7281
 11.7259
 9.20815
 9.31431
 9.24394
 8.60948
 8.60689
 8.6523
 8.42377
 9.14864
 9.15516
 9.04997
 9.99454
 9.78989
 9.95596
 14.5735
 14.5716
 14.6572
 11.706
 11.5508
 11.672
 9.3602
 9.29455
 9.37597
 9.37996
 11.7101
 11.6516
 11.7203
 11.0025
 10.9668
 10.9546
 11.086
 10.4006
 10.6775
 10.5855
 10.5914
 11.532
 11.4291
 11.4648
 11.3745
 12.9686
 12.8949
 12.9546
 13.0148
 11.6617
 11.0172
 11.0333
 10.9569
 11.1981
 13.3948
 13.3553
 13.3404
 13.3466
 13.3384
 13.2464
 13.3071
 13.2485
 13.1504
 13.0728
 13.1227
 13.1732
 10.4238
 10.4573
 10.2812
 10.2084
 12.7674
 12.8376
 12.7912
 12.7762
 7.67804
 7.83708
 7.71751
 7.83239
 13.9686
 13.9123
 13.8388
 13.8447
 12.7589
 12.7462
 12.775
 13.5526
 13.6368
 13.6944
 13.6739
 13.1157
 13.1938
 13.0432
 13.312
 13.2932
 11.3394
 11.3593
 11.269
 11.0879
 8.67852
 8.80894
 8.85079
 8.60014
 8.63099
 8.52871
 8.67879
 13.099
 13.1806
 7.97694
 7.87644
 8.02126
 9.1561
 9.18572
 9.14292
 9.05266
 13.1351
 13.193
 13.1186
 8.12952
 8.06053
 8.18838
 8.02037
 12.2325
 12.2062
 12.1189
 12.3092
 13.0755
 13.2187
 13.152
 13.0495
 13.6342
 13.4632
 13.5334
 13.5672
 14.3365
 14.2955
 14.3918
 14.3911
 10.6992
 10.466
 10.5946
 10.4878
 12.143
 12.1397
 12.1879
 12.3481
 8.05965
 8.26091
 8.07424
 15.2726
 15.1676
 15.2389
 15.1162
 13.8382
 13.7321
 13.7925
 13.7022
 8.21893
 7.99024
 8.11376
 8.12457
 11.5278
 11.5076
 11.4055
 9.03531
 8.83662
 8.80576
 12.924
 12.9314
 13.0773
 8.00195
 8.17568
 8.18008
 8.07132
 9.0406
 9.09846
 9.13361
 9.25645
 12.6208
 12.5568
 12.454
 12.5534
 12.1643
 12.2914
 12.1695
 12.3163
 9.67412
 9.66842
 9.62262
 9.47586
 11.2308
 11.3058
 11.3906
 11.3332
 14.0442
 13.9386
 13.9421
 13.94
 8.98136
 9.28189
 9.08781
 9.16133
 7.83694
 11.2694
 11.2348
 11.1502
 11.1531
 8.60972
 8.52092
 8.54759
 8.39093
 13.3768
 13.3762
 13.3582
 13.3565
 8.08555
 7.96163
 8.13397
 8.19687
 11.6097
 11.6397
 12.1131
 12.1796
 12.0944
 12.0501
 9.70089
 9.84439
 9.85911
 9.85553
 10.9835
 10.832
 10.8539
 12.1718
 12.1932
 12.1442
 9.72328
 9.7314
 9.89516
 9.90189
 9.88715
 9.96264
 9.81757
 9.92676
 13.0009
 13.1098
 13.1187
 11.5337
 11.2637
 11.2665
 11.4172
 14.0831
 13.9915
 13.8863
 14.0326
 14.1213
 7.95988
 8.22724
 7.94593
 8.18254
 11.3258
 11.4011
 11.4567
 11.3338
 8.73252
 8.62905
 11.8066
 11.9913
 11.9853
 12.711
 12.8232
 12.6363
 12.6687
 8.18353
 8.23719
 8.12421
 8.12222
 13.24
 13.1996
 13.2172
 12.688
 12.7372
 12.6464
 12.7272
 12.2261
 12.0983
 12.1925
 12.3427
 10.2344
 9.97158
 10.118
 10.0574
 12.8561
 12.6978
 12.7878
 12.8007
 9.76101
 10.7631
 10.6069
 10.5637
 10.7878
 8.65441
 8.60109
 8.75604
 8.26231
 8.32699
 8.33972
 8.45362
 10.6853
 10.6205
 10.793
 10.7131
 7.54731
 7.55376
 7.55187
 7.72366
 12.2839
 10.8529
 11.0345
 11.0446
 10.9056
 11.2944
 11.4894
 11.4072
 11.3534
 14.3219
 14.2145
 14.1868
 14.2965
 11.6072
 11.5742
 11.5289
 11.6799
 11.9519
 11.9247
 11.8834
 11.8317
 11.8301
 11.8078
 11.7154
 8.90939
 9.05932
 9.12001
 11.9167
 12.0469
 12.0292
 11.9404
 8.91881
 8.70023
 8.81958
 11.4388
 11.5223
 11.2787
 11.1963
 11.2363
 11.1377
 11.176
 11.136
 11.3908
 11.3597
 11.1934
 11.2511
 8.80378
 8.71755
 8.72548
 12.2374
 8.48243
 10.9718
 10.8789
 10.9808
 11.1088
 13.0435
 13.0187
 13.1497
 12.8202
 12.7057
 12.6589
 11.2617
 11.2172
 11.3435
 11.5122
 11.5186
 11.4538
 11.388
 11.4012
 11.5003
 11.3158
 11.4774
 15.319
 15.3006
 15.3934
 9.68079
 9.84959
 9.68616
 11.6327
 11.5886
 9.20465
 9.41798
 9.36105
 9.41621
 10.7836
 10.6717
 10.7784
 14.2253
 14.2272
 14.3366
 14.2926
 11.873
 12.0279
 11.9154
 11.96
 12.9624
 13.0201
 13.0801
 13.1166
 10.2985
 10.4889
 10.3928
 10.3152
 12.4246
 12.5131
 12.4436
 12.5804
 14.0256
 14.0437
 14.0536
 12.1973
 12.244
 12.3105
 12.2808
 10.2523
 10.0957
 10.1471
 10.1469
 11.4718
 11.3382
 11.3163
 11.3952
 12.8177
 12.878
 12.8112
 12.0754
 12.1712
 12.1248
 12.1487
 12.849
 12.9723
 12.8271
 12.9398
 13.3374
 13.1949
 13.2025
 13.3621
 8.31531
 8.21978
 8.2705
 8.22162
 13.1703
 13.078
 13.1118
 13.0758
 12.8681
 12.9494
 12.8263
 12.8407
 10.618
 10.4337
 10.5064
 10.4037
 12.195
 12.237
 12.117
 12.1608
 7.13237
 7.05715
 7.07403
 7.04877
 11.8802
 11.9383
 11.8225
 13.3416
 13.424
 13.389
 13.2902
 13.2197
 13.2741
 13.2368
 13.2764
 13.0341
 13.2075
 10.1762
 10.3032
 10.1903
 10.3779
 7.49338
 7.60772
 7.53958
 7.56057
 12.0191
 12.1398
 12.0722
 12.1442
 13.0487
 13.1235
 13.1351
 10.3915
 10.5342
 10.5562
 10.4208
 11.7346
 11.7644
 11.6814
 11.6018
 12.728
 12.7258
 12.7391
 12.6354
 13.3969
 13.2255
 13.3296
 9.50087
 9.3577
 9.29567
 9.46385
 9.31171
 9.30392
 9.44962
 11.9806
 11.9725
 11.8906
 11.8403
 11.8994
 11.9675
 11.8204
 12.734
 12.6232
 12.575
 12.5938
 10.4326
 10.4652
 10.5677
 13.0622
 13.0591
 13.1842
 11.3044
 11.1596
 11.2204
 9.25094
 9.43174
 9.33881
 10.1879
 10.2248
 12.2614
 12.177
 12.2698
 12.1687
 12.1229
 12.1764
 11.6539
 11.8071
 12.6093
 13.5205
 13.4991
 13.5941
 8.84995
 8.87053
 9.08834
 11.9897
 11.8946
 11.9322
 12.0139
 12.6702
 11.4296
 11.332
 10.361
 10.3261
 10.3879
 10.2639
 11.4662
 11.5758
 11.4417
 11.9098
 11.8441
 12.0318
 11.8855
 12.2019
 11.984
 11.8887
 11.9836
 12.0336
 11.8249
 8.91241
 9.05153
 9.08893
 8.98917
 8.83075
 8.7172
 8.51288
 8.5853
 13.1026
 13.0023
 11.4123
 11.4544
 11.4914
 11.5869
 11.0366
 11.0004
 10.9563
 10.8986
 10.4923
 10.3715
 10.5048
 10.5268
 11.6942
 11.7646
 11.8136
 11.6729
 11.8838
 11.8015
 11.8612
 11.9264
 9.24212
 9.45489
 9.27421
 9.32613
 12.882
 12.7446
 12.7286
 12.6403
 12.9221
 12.7858
 12.8599
 9.58171
 9.44872
 9.29047
 9.24104
 12.784
 12.6958
 12.7262
 12.6394
 8.66176
 8.73107
 8.61996
 8.69254
 9.25444
 9.33953
 9.2933
 9.36374
 12.106
 12.0426
 12.1546
 12.0958
 10.1234
 10.0765
 10.1675
 10.3008
 12.6804
 12.6129
 12.5218
 12.4889
 9.78396
 9.86239
 9.82765
 13.1427
 13.0707
 13.1603
 13.1031
 10.8362
 10.8778
 10.8014
 10.7474
 12.1976
 12.1611
 9.89337
 9.68648
 9.78059
 9.84502
 9.73782
 9.76517
 9.85537
 11.8141
 11.6444
 11.7997
 9.51978
 9.53354
 9.4771
 9.3486
 14.01
 13.9649
 13.8925
 13.9316
 12.6747
 12.6348
 12.5268
 12.5074
 10.7105
 10.8877
 10.8646
 10.6947
 8.73496
 8.70931
 8.81334
 8.71156
 9.15613
 9.01999
 8.9907
 9.12955
 8.53364
 8.53518
 8.50301
 8.83607
 8.7854
 12.3784
 12.2985
 12.3871
 12.2715
 12.9541
 12.9111
 13.0857
 12.9808
 12.5307
 12.5266
 12.2652
 12.1356
 12.2335
 12.2287
 11.9241
 11.9084
 11.7684
 11.907
 12.9904
 12.9871
 13.077
 11.196
 11.2797
 11.2563
 11.3098
 7.12308
 7.17471
 7.31166
 12.3421
 12.3634
 12.324
 12.2142
 9.23319
 9.42093
 9.30263
 9.25372
 10.2335
 10.064
 10.1173
 11.3812
 11.4561
 11.3194
 10.2054
 10.0483
 10.2122
 9.24084
 9.37457
 10.3314
 10.3099
 10.3081
 12.6426
 12.5954
 12.5635
 12.7005
 8.60573
 8.50603
 8.61269
 8.66142
 10.7986
 10.633
 10.7341
 14.445
 14.5553
 14.5895
 14.455
 13.1853
 13.2446
 11.0173
 12.2334
 12.0753
 12.1801
 12.2321
 11.3236
 11.1874
 11.1949
 9.93213
 9.89498
 10.0089
 9.92759
 8.58152
 8.49347
 11.5539
 11.6096
 11.6029
 11.6852
 13.31
 13.3925
 13.4028
 13.2701
 9.11907
 9.02515
 9.05163
 9.11573
 10.6625
 10.6046
 10.6865
 15.1025
 15.1444
 15.2291
 15.2304
 13.1003
 13.1216
 13.2255
 12.4484
 12.3555
 12.5148
 12.4155
 10.8247
 10.8113
 10.8967
 10.7206
 11.449
 11.3439
 13.4345
 13.3985
 13.4098
 13.4055
 10.5685
 10.4215
 12.5037
 12.6429
 12.5612
 12.525
 12.0022
 11.9487
 12.0974
 11.9961
 11.4407
 11.3114
 11.2508
 11.3572
 12.4767
 12.5363
 12.6677
 10.2347
 10.4306
 10.234
 10.3826
 9.48749
 9.36548
 9.24474
 9.46941
 9.66258
 9.67747
 9.66607
 9.51982
 13.3568
 13.472
 13.3864
 13.4724
 11.473
 11.5552
 14.6794
 14.7901
 14.7389
 14.8436
 12.0604
 12.1798
 12.2329
 8.02209
 15.5406
 15.5141
 15.5165
 15.6567
 11.5451
 11.4717
 11.5458
 11.5307
 12.3398
 12.2212
 12.2827
 9.55787
 9.43761
 9.4129
 9.57275
 9.54633
 9.59955
 9.44398
 9.45361
 9.63205
 9.56785
 9.69069
 9.7449
 12.608
 12.5062
 12.6744
 12.5074
 13.034
 13.0762
 13.133
 13.1244
 10.5755
 10.5834
 10.4172
 10.5925
 11.9428
 12.1178
 11.8987
 12.014
 7.38555
 8.61322
 8.54723
 10.852
 10.8641
 11.8442
 11.947
 11.92
 8.5125
 8.27673
 8.42981
 8.47043
 11.6237
 11.6812
 10.9814
 11.0908
 14.2222
 14.124
 14.242
 14.137
 12.6274
 12.6716
 12.759
 12.6959
 10.6048
 10.4366
 10.5817
 10.4772
 14.0002
 14.1146
 14.0281
 13.9809
 7.64003
 7.7106
 7.55136
 7.69747
 8.71469
 8.90091
 8.40458
 8.51009
 8.63421
 8.39836
 9.51719
 9.39756
 12.1546
 12.0892
 12.1715
 15.3375
 15.2451
 15.3664
 15.3588
 13.878
 13.8059
 13.7873
 13.8807
 8.65121
 8.52724
 8.65043
 8.73241
 10.0344
 9.82907
 9.9392
 11.1947
 11.3172
 11.4064
 11.2579
 12.4811
 12.3383
 12.4523
 12.4986
 9.04897
 8.908
 9.01749
 8.61846
 11.2988
 11.1405
 12.5087
 12.4662
 10.3542
 10.206
 10.402
 10.3476
 12.9665
 13.1074
 12.9246
 13.1224
 13.1862
 13.3056
 13.2614
 15.215
 15.056
 15.0759
 15.1311
 12.4148
 12.3468
 12.3583
 12.2526
 9.14496
 9.12038
 9.41407
 9.27916
 9.35769
 9.27914
 12.6824
 12.6877
 12.573
 12.7673
 9.80871
 9.89333
 9.75959
 10.3028
 10.3053
 10.2584
 10.3754
 9.31804
 9.18129
 9.33949
 9.16933
 12.5207
 12.4072
 12.4459
 12.4973
 8.26107
 8.51332
 11.8809
 14.4947
 14.4559
 14.3862
 14.3505
 9.79219
 9.83514
 9.71383
 13.9225
 13.9921
 13.9324
 14.0297
 10.2243
 10.2389
 10.2344
 10.1052
 13.2951
 13.2999
 13.4227
 13.2596
 12.9273
 12.9428
 12.8365
 12.8127
 10.476
 10.3695
 10.3536
 12.2453
 12.1859
 12.278
 12.3465
 10.7704
 10.7919
 10.7042
 10.9068
 10.9433
 11.0601
 9.33015
 9.2804
 9.29973
 10.2473
 10.2257
 10.3204
 14.6032
 14.5892
 14.494
 14.5716
 13.0952
 12.983
 13.1473
 12.9458
 8.9745
 9.17638
 9.18209
 9.19344
 9.57875
 9.62929
 12.7731
 12.5537
 12.7583
 10.2811
 10.4514
 10.4259
 10.5063
 10.3697
 10.4123
 10.4687
 12.6115
 12.6717
 12.5982
 12.5706
 8.36432
 8.36659
 12.1529
 12.2003
 12.1492
 12.0847
 12.7137
 12.7055
 12.6646
 10.2067
 10.1644
 11.5089
 11.5626
 11.548
 11.4187
 13.309
 13.3551
 10.5982
 10.6644
 12.1493
 12.3125
 12.2826
 12.1918
 11.1833
 11.1872
 11.2793
 11.1024
 11.2005
 11.2821
 11.2087
 13.5782
 13.5585
 13.6123
 13.4166
 13.9173
 13.9166
 13.8386
 13.8773
 10.1591
 10.2578
 10.3701
 10.2836
 8.86412
 8.84778
 8.95061
 8.95114
 10.9449
 10.8714
 10.9894
 11.4234
 11.4996
 11.5571
 11.4893
 11.4164
 9.68422
 9.64919
 12.4152
 12.2977
 12.4063
 12.4398
 12.8879
 8.86307
 8.8948
 9.00602
 8.94975
 11.3801
 11.5862
 11.5287
 11.4167
 15.0664
 15.003
 11.7938
 11.9469
 11.7959
 14.6121
 14.5835
 14.6371
 14.535
 10.7096
 10.811
 10.7259
 10.7803
 13.3161
 13.1893
 13.1622
 12.638
 12.5367
 8.1533
 8.17529
 8.177
 8.47461
 8.46793
 8.55229
 13.0849
 12.9222
 12.6592
 12.6641
 14.8318
 14.8973
 14.909
 14.9267
 8.87116
 9.07386
 8.83126
 12.9456
 12.927
 12.8602
 13.0148
 12.7384
 12.7858
 12.6556
 12.7867
 10.2084
 10.1531
 10.0937
 10.1709
 10.7497
 10.4697
 10.607
 10.2674
 10.2454
 10.3995
 10.2537
 9.71768
 9.87094
 9.59113
 9.93793
 13.3844
 13.3751
 13.0574
 13.0512
 12.996
 10.8504
 10.9145
 11.0411
 10.9857
 12.8464
 12.8564
 12.7243
 12.7692
 10.0424
 10.1254
 10.0972
 10.0177
 13.339
 13.2038
 8.95005
 9.04952
 9.00103
 9.12245
 10.0435
 10.2664
 10.1684
 10.0062
 12.457
 12.4444
 12.4835
 12.3785
 9.24759
 9.08044
 11.8542
 11.8232
 11.7789
 11.7519
 13.9923
 13.9704
 13.9856
 13.9647
 13.3273
 13.2629
 13.3318
 13.2384
 8.06706
 8.00795
 7.95471
 7.97659
 8.70813
 8.77186
 8.82696
 12.5141
 12.5353
 12.5519
 8.16066
 8.06936
 11.7715
 11.716
 11.8009
 11.6325
 9.13151
 9.23017
 9.10426
 9.23094
 12.7856
 12.847
 12.7676
 12.8609
 13.5984
 13.4886
 13.5443
 9.4369
 9.26639
 9.27857
 9.31183
 12.0723
 11.9109
 11.9381
 11.9816
 13.0022
 12.9597
 12.8824
 13.0821
 13.3851
 13.5544
 13.3456
 10.8798
 11.0172
 10.8071
 11.3078
 11.2779
 11.3833
 11.2331
 10.9233
 10.9405
 10.8055
 10.9664
 12.1885
 12.0684
 12.1834
 12.0782
 12.6791
 12.6518
 12.5859
 12.7338
 13.1087
 13.2107
 10.4085
 10.2225
 10.4174
 10.4169
 11.188
 11.3619
 11.2242
 11.3016
 11.1217
 11.304
 11.3289
 11.3928
 11.168
 11.2554
 14.5381
 14.4981
 14.418
 14.4784
 8.67023
 8.5171
 8.67137
 12.0051
 12.0156
 12.0403
 12.1295
 11.6223
 11.7247
 11.6254
 13.2285
 13.1513
 13.2765
 13.2393
 12.9273
 13.0337
 12.9577
 12.9871
 12.0721
 12.0381
 11.9395
 12.777
 12.8407
 10.0345
 10.1164
 9.93198
 7.89292
 7.86495
 7.99564
 7.91643
 12.9317
 13.0552
 13.0483
 12.9081
 11.6264
 11.5172
 11.4791
 11.605
 9.67878
 9.63997
 9.77678
 9.77451
 12.8392
 12.7912
 12.8809
 12.7122
 12.5365
 12.4662
 12.4269
 12.328
 9.41865
 9.54315
 9.7069
 9.67196
 12.5722
 12.4409
 8.90329
 8.9568
 8.82525
 10.9215
 11.037
 13.6928
 13.7446
 13.771
 13.7968
 12.0332
 11.9788
 11.9411
 11.9692
 13.7557
 13.8052
 13.7509
 11.666
 11.6887
 10.6767
 10.5874
 10.4468
 10.6663
 12.0468
 12.0378
 10.4154
 10.283
 12.1382
 12.2131
 12.1476
 12.1059
 10.3942
 10.4996
 10.3426
 10.3144
 9.82338
 9.67322
 9.53528
 9.63606
 8.24296
 8.22305
 8.29048
 8.28172
 11.5374
 11.4706
 12.8907
 12.8933
 13.0828
 13.1364
 9.75588
 9.91026
 13.1983
 13.0825
 13.1619
 14.3094
 14.2903
 14.1303
 14.1992
 14.4921
 14.4046
 14.4553
 11.2741
 11.1184
 11.1377
 11.1586
 12.1157
 12.0075
 12.095
 12.9703
 12.4852
 12.3918
 12.5386
 12.4142
 13.0029
 12.9176
 13.0852
 12.976
 12.2289
 12.3232
 12.208
 12.3157
 10.2111
 10.4614
 10.4516
 10.2477
 8.22818
 8.28838
 8.28885
 8.15658
 11.8369
 11.8761
 11.7027
 11.7545
 9.42964
 9.50408
 9.25649
 9.30206
 12.4965
 10.1725
 10.3694
 10.2759
 10.3063
 13.6247
 13.6892
 13.6315
 13.6241
 10.1451
 10.0061
 9.99672
 12.3333
 8.82912
 8.81794
 8.89967
 8.64719
 8.48565
 8.48211
 8.47189
 8.40382
 8.57549
 8.45002
 8.41391
 11.3902
 11.4131
 11.3765
 11.5371
 8.52842
 8.51782
 8.45587
 8.46087
 12.9942
 13.0745
 13.0964
 13.1228
 10.5109
 10.5672
 10.5499
 10.6909
 11.8764
 11.7286
 11.7548
 11.8625
 14.1023
 14.0246
 14.0859
 10.6885
 11.6294
 11.6646
 11.7232
 11.5678
 8.53724
 8.41346
 8.4173
 8.37187
 8.57645
 8.4827
 8.35328
 8.40062
 10.6011
 10.6424
 10.5566
 10.665
 12.4801
 12.5569
 12.5983
 12.5516
 12.009
 11.876
 11.9624
 8.77987
 8.69363
 8.79951
 8.93582
 8.47221
 8.38904
 8.40123
 8.51698
 13.0235
 13.0893
 13.0872
 9.48935
 9.36972
 8.47589
 8.51457
 8.48849
 12.9538
 13.0337
 12.9007
 12.8915
 9.97312
 9.75922
 10.0058
 10.0401
 12.0385
 10.9167
 10.8849
 10.7988
 10.9084
 10.5908
 10.7011
 10.5628
 10.7834
 8.57095
 8.49089
 9.20348
 9.02282
 9.14437
 8.99979
 9.26507
 9.05819
 9.14908
 8.98998
 9.38606
 9.55165
 9.33576
 9.51265
 9.99645
 9.88076
 9.9817
 9.90828
 13.9367
 13.81
 8.63933
 8.57887
 8.48232
 13.4059
 13.427
 13.4002
 12.6865
 12.8374
 12.8706
 12.7294
 9.89791
 9.98097
 9.86996
 9.74578
 11.7788
 11.9029
 11.8486
 11.8367
 7.80884
 7.93377
 7.81365
 7.69841
 10.9866
 11.0182
 10.9231
 10.9602
 9.35481
 9.24166
 9.38193
 10.4012
 10.4027
 11.0192
 11.2253
 11.0649
 11.0675
 11.2622
 11.438
 11.3027
 11.3977
 13.1514
 13.104
 13.0862
 10.5108
 10.3962
 10.4496
 10.3379
 12.1601
 12.1091
 12.0145
 8.93669
 8.97299
 8.77898
 9.01215
 8.41534
 10.8056
 11.0006
 11.0156
 10.8944
 10.443
 10.3455
 10.328
 10.3803
 10.5779
 10.6498
 10.7046
 15.3132
 15.3797
 15.2841
 15.2873
 12.741
 12.6381
 13.2865
 13.3818
 11.6704
 11.8732
 11.8155
 11.7317
 15.8335
 15.7974
 7.95006
 7.90275
 7.84827
 7.73242
 9.94421
 9.68534
 13.142
 13.1591
 13.091
 13.0955
 11.6387
 11.6245
 11.5248
 11.5675
 9.25357
 9.11084
 9.16859
 9.33093
 12.5877
 12.633
 12.5326
 12.5761
 11.7895
 11.8944
 11.7478
 11.8131
 9.14123
 9.07064
 9.06186
 8.91918
 11.8093
 11.7653
 11.7652
 11.9244
 8.27983
 8.40347
 8.36855
 8.41885
 10.5564
 10.4437
 10.482
 12.7289
 12.7299
 12.8926
 12.7531
 10.7652
 10.8797
 10.7986
 10.8961
 11.1645
 11.2672
 12.273
 12.089
 12.059
 10.4638
 10.4921
 10.3352
 10.3063
 8.14572
 8.16094
 8.03212
 8.03744
 8.8483
 8.73314
 8.63495
 8.86852
 12.8697
 12.8912
 12.991
 12.9567
 13.3848
 13.3957
 13.4195
 13.4059
 13.1131
 13.2623
 13.1585
 13.2135
 13.5282
 13.5139
 13.5586
 11.3485
 11.3731
 11.3475
 11.5324
 9.50949
 9.43498
 9.98403
 9.80091
 9.91297
 9.92809
 9.67994
 9.58674
 9.75274
 12.7433
 12.8379
 12.8022
 12.8729
 11.3903
 11.3656
 11.2812
 11.3019
 7.78101
 7.76325
 7.7201
 7.64749
 11.0976
 11.1714
 11.2278
 11.0853
 10.8935
 11.0476
 10.8774
 11.017
 8.74104
 8.65508
 8.78909
 8.78086
 13.2222
 13.3911
 13.3231
 13.265
 10.0328
 10.0352
 13.2853
 13.3675
 9.38299
 9.536
 9.40508
 9.28226
 11.1311
 11.1548
 11.0874
 11.2608
 13.7439
 13.6393
 13.7141
 13.3089
 13.344
 13.4064
 13.398
 12.3927
 12.5297
 11.1265
 11.1866
 11.0916
 11.1816
 10.3429
 10.3618
 10.2519
 12.0176
 12.1246
 12.1064
 11.9963
 12.1432
 11.9598
 12.1496
 12.0294
 9.71507
 9.84489
 9.7913
 9.78922
 13.5778
 13.5851
 13.5317
 8.04025
 8.00901
 8.2119
 8.18412
 10.6527
 10.6969
 10.6752
 12.9216
 12.8801
 12.8378
 8.44454
 8.4516
 8.58981
 8.37918
 9.37167
 12.4363
 12.5743
 12.5559
 12.508
 8.62501
 8.8936
 8.77824
 8.66391
 10.6769
 10.5076
 10.564
 8.09611
 8.06641
 8.06541
 8.08452
 8.63633
 8.75054
 8.7495
 8.60697
 8.54786
 13.7386
 13.6631
 11.6362
 11.6823
 11.515
 11.6187
 13.8497
 13.917
 13.9108
 13.8768
 12.3131
 10.6021
 10.556
 10.7627
 10.0219
 9.91142
 9.79693
 10.0235
 12.2906
 12.2708
 12.3638
 12.4051
 12.6589
 12.6862
 10.8035
 10.722
 10.7331
 12.5472
 12.6195
 12.5376
 12.4652
 12.6953
 12.6904
 12.6297
 12.5994
 8.47505
 8.41848
 12.2512
 12.1555
 12.2451
 12.2594
 13.5645
 13.3855
 13.5696
 13.431
 12.7411
 12.7169
 12.4801
 12.6805
 13.5053
 13.5753
 13.4998
 9.53982
 9.67908
 9.52797
 10.0731
 10.0558
 8.65321
 8.61648
 8.73053
 13.111
 13.2352
 13.1951
 13.2266
 12.964
 12.9028
 12.857
 15.4692
 15.3581
 15.4623
 15.5242
 9.62996
 9.82556
 9.62245
 9.53047
 12.5325
 12.4742
 12.5473
 12.3597
 10.6619
 10.7685
 10.7173
 10.642
 9.77684
 9.81783
 9.96849
 9.8904
 12.9313
 12.925
 12.8797
 12.8301
 11.6738
 11.561
 11.6854
 10.1841
 10.1571
 10.0628
 10.6163
 10.619
 10.6789
 10.5243
 11.784
 11.9217
 11.9299
 11.9135
 10.5454
 10.4788
 10.4234
 13.5553
 13.3538
 13.5225
 13.4997
 11.4951
 11.4822
 11.4617
 11.5934
 13.023
 13.1316
 13.1312
 13.0797
 13.1926
 13.3571
 13.1635
 13.202
 7.61594
 7.42897
 7.68965
 13.0326
 13.1183
 13.041
 7.71515
 9.49181
 9.47317
 9.67075
 9.591
 13.3017
 10.0668
 12.4757
 12.49
 12.5722
 12.5481
 13.5532
 13.6224
 13.6761
 13.6152
 10.3628
 11.7359
 8.03002
 8.06733
 8.06227
 8.09411
 15.3637
 15.282
 15.3136
 12.4872
 12.5845
 12.6069
 13.4521
 13.5399
 7.41454
 7.33285
 7.5381
 7.46721
 12.0065
 12.1971
 12.0758
 12.0397
 9.28853
 9.12681
 9.11508
 10.5551
 10.6742
 10.2652
 10.3266
 10.0986
 10.2396
 8.49303
 8.59881
 8.64329
 8.53996
 11.7401
 11.751
 11.564
 11.6276
 8.78385
 8.69822
 8.85674
 8.7799
 11.4393
 11.3657
 11.2284
 11.4101
 9.68779
 9.67535
 9.60639
 9.76973
 9.51907
 9.68154
 9.53325
 9.23728
 12.7991
 12.9666
 12.7613
 12.6932
 11.3344
 8.31415
 8.08176
 8.18439
 8.14919
 10.9405
 10.9087
 11.0765
 10.8592
 10.7146
 10.7041
 13.1398
 13.2037
 13.2464
 13.1101
 12.3145
 12.4304
 12.3116
 11.3928
 11.4209
 11.4776
 11.557
 7.82537
 7.98605
 8.00559
 7.96456
 12.6224
 12.6255
 12.7149
 12.7416
 10.0689
 10.2729
 10.258
 10.1727
 11.5104
 11.4802
 11.5895
 13.1941
 13.0923
 13.1385
 13.1138
 14.253
 14.2387
 14.3647
 14.196
 12.3281
 12.436
 12.477
 9.13327
 9.13225
 9.04321
 10.9807
 9.79641
 9.97316
 9.88709
 9.8895
 12.5663
 12.6019
 12.5826
 12.5846
 8.83946
 8.60915
 8.72431
 8.7807
 11.0967
 11.2904
 10.3985
 10.4867
 10.4494
 10.3726
 10.2425
 10.2876
 10.5217
 14.41
 14.354
 14.5023
 14.3977
 7.27038
 7.02533
 7.09631
 7.25127
 12.2791
 12.1661
 12.2182
 12.8607
 12.7881
 12.9516
 12.752
 10.2615
 10.4216
 10.3491
 15.0319
 15.1265
 15.1785
 15.0938
 9.82941
 9.82872
 9.58064
 9.53592
 9.67725
 9.64568
 13.378
 13.4468
 13.41
 13.483
 13.0896
 13.0874
 13.0454
 13.1341
 14.005
 13.9055
 13.8552
 14.0035
 11.7519
 14.1033
 14.03
 14.0484
 13.9982
 9.69103
 9.85088
 9.88016
 9.94212
 13.0818
 12.9648
 10.064
 9.9704
 9.97564
 10.1488
 9.1125
 9.02097
 9.10944
 9.03932
 7.83786
 7.73441
 7.75023
 7.56937
 15.3485
 15.3857
 15.2641
 10.6663
 10.5205
 10.5671
 10.5957
 9.44802
 9.41022
 9.55861
 9.47605
 14.4381
 14.3521
 14.3205
 14.4435
 10.7278
 9.68814
 9.62411
 9.57983
 9.73648
 8.59526
 8.50921
 8.5966
 11.7648
 11.7173
 11.7335
 11.6422
 8.03534
 7.81669
 7.73645
 7.84288
 10.9091
 10.8457
 10.9192
 10.9372
 10.7671
 12.6888
 12.8393
 12.6586
 11.0585
 11.21
 11.1494
 10.999
 11.2113
 11.1645
 11.1218
 11.2862
 12.2673
 12.422
 12.3785
 13.4887
 14.1887
 14.0885
 14.2879
 10.4215
 10.2991
 10.3577
 9.81456
 9.76902
 9.85092
 12.8092
 12.6809
 12.7525
 12.5733
 10.0755
 10.1658
 8.7979
 8.86294
 8.9297
 8.85953
 8.35317
 8.39661
 8.40272
 8.95679
 8.84625
 10.5273
 10.4186
 10.5133
 9.17234
 9.35244
 9.23306
 13.0582
 15.0955
 15.1441
 15.0575
 15.0781
 10.7701
 10.7322
 10.8528
 10.8184
 14.8158
 14.7877
 14.6858
 14.8318
 9.93578
 9.9412
 9.84173
 11.3293
 11.3922
 11.491
 11.5179
 12.6064
 12.5233
 12.7266
 12.6548
 10.8537
 10.8178
 10.6887
 9.8151
 9.72303
 11.6065
 11.4616
 11.5754
 11.5333
 12.2248
 12.1374
 12.1972
 13.0479
 13.0438
 13.0367
 10.6036
 10.5831
 10.4714
 10.6577
 9.65235
 9.50579
 9.61813
 9.52982
 7.25428
 7.35386
 7.20169
 7.34135
 11.1666
 11.1747
 7.18779
 7.29397
 7.35946
 10.3167
 13.3756
 13.2823
 13.1948
 13.2414
 12.6102
 12.5212
 12.5975
 12.5479
 10.4189
 10.5181
 10.4583
 8.81927
 8.69474
 13.4648
 13.429
 13.5295
 13.4005
 9.80437
 9.868
 13.3966
 13.448
 10.9066
 10.9217
 10.987
 13.6551
 13.7375
 13.6093
 12.5449
 12.5639
 12.619
 12.5985
 8.75542
 8.7521
 8.67199
 8.76175
 12.0165
 12.0036
 11.9912
 11.7007
 11.8728
 11.7747
 11.7641
 8.48895
 8.66345
 8.66257
 8.68808
 14.2777
 14.239
 14.3154
 11.3604
 11.5011
 11.4326
 9.56132
 9.47953
 10.1525
 10.191
 10.3315
 10.3113
 14.5054
 14.4256
 14.4477
 14.4856
 12.7561
 12.7533
 12.7339
 12.6478
 9.30851
 9.25178
 9.19143
 9.16546
 9.2147
 9.26011
 9.27234
 9.34854
 11.8361
 11.9794
 11.8534
 11.8873
 7.71053
 7.49148
 7.5373
 7.68567
 13.0085
 12.9103
 13.0459
 14.5307
 14.6174
 14.5875
 10.911
 10.8544
 10.1551
 10.1232
 10.2357
 10.1601
 8.87918
 8.95391
 8.73353
 8.72963
 12.165
 11.1713
 11.8732
 11.7636
 11.7066
 11.6294
 15.4889
 15.6141
 15.5946
 15.4758
 9.6607
 9.71469
 12.7514
 12.6965
 12.6181
 12.3344
 12.3867
 12.257
 12.2167
 13.361
 13.4397
 12.1464
 12.1627
 12.2444
 12.0919
 13.1421
 13.2304
 12.5936
 12.5302
 12.6803
