 -80.233
 -80.9418
 -80.8447
 -81.1574
 -84.972
 -84.9923
 -85.0014
 -85.0123
 -84.709
 -84.6464
 -84.717
 -84.6765
 -84.7547
 -84.6689
 -84.7118
 -84.6529
 -85.2495
 -85.254
 -85.2444
 -85.2422
 -85.2213
 -85.2151
 -85.2277
 -85.2171
 -77.0208
 -76.4376
 -76.6263
 -76.9451
 -78.2816
 -78.3913
 -78.4104
 -78.1744
 -85.2115
 -85.2072
 -85.195
 -85.204
 -85.2169
 -85.2178
 -85.2154
 -85.2281
 -74.2564
 -73.7871
 -74.4824
 -74.5964
 -84.5509
 -84.5749
 -84.4959
 -84.538
 -81.9922
 -82.0121
 -81.7526
 -82.2338
 -85.0929
 -85.0538
 -85.0386
 -85.0688
 -84.2742
 -84.2093
 -84.2832
 -84.3583
 -78.8113
 -78.3893
 -79.1313
 -78.4494
 -85.1988
 -85.2042
 -85.1938
 -85.2037
 -84.7511
 -84.7092
 -84.7659
 -84.7313
 -84.4052
 -84.4608
 -84.47
 -84.5354
 -85.1285
 -85.1345
 -85.1423
 -85.1474
 -77.4278
 -76.5865
 -77.4923
 -76.8845
 -85.2598
 -85.2631
 -85.2685
 -85.2663
 -55.2637
 -54.5989
 -54.1291
 -55.3139
 -85.0274
 -85.0299
 -84.9924
 -84.991
 -84.1612
 -84.0471
 -84.0884
 -84.1856
 -84.563
 -84.5984
 -84.5573
 -84.5331
 -83.5003
 -83.7215
 -83.8116
 -83.5103
 -78.3368
 -77.8039
 -78.3732
 -78.1677
 -81.9389
 -81.8435
 -81.5768
 -81.785
 -85.0696
 -85.0704
 -85.049
 -85.0318
 -84.2171
 -84.3374
 -84.1617
 -84.2414
 -82.0134
 -82.2353
 -82.2571
 -82.0103
 -84.9492
 -84.9149
 -84.9687
 -84.9193
 -84.9595
 -84.9467
 -84.9376
 -84.9524
 -82.2618
 -82.0661
 -82.352
 -81.8459
 -79.6999
 -79.5847
 -79.5821
 -79.6463
 -84.9263
 -84.8547
 -84.9239
 -84.9
 -71.7027
 -72.3997
 -72.3841
 -72.9586
 -84.9352
 -84.9316
 -84.9913
 -84.9711
 -85.269
 -85.2655
 -85.2673
 -85.263
 -84.676
 -84.6564
 -84.691
 -84.5866
 -85.0389
 -85.0632
 -85.0489
 -85.0515
 -74.8626
 -74.6627
 -75.1824
 -74.2659
 -84.8525
 -84.8214
 -84.8359
 -84.8871
 -85.2005
 -85.2001
 -85.2112
 -85.2093
 -81.2599
 -81.5331
 -81.4243
 -81.3008
 -84.8956
 -84.9476
 -84.9358
 -84.926
 -78.6616
 -79.1135
 -78.5199
 -77.8836
 -82.6695
 -82.4826
 -82.4007
 -82.2679
 -84.4256
 -84.3465
 -84.3136
 -84.2776
 -77.7935
 -77.6144
 -77.3668
 -77.6525
 -84.3572
 -84.2767
 -84.2607
 -84.3433
 -82.8784
 -82.5028
 -82.7872
 -82.3611
 -84.6881
 -84.724
 -84.6642
 -84.7276
 -81.7186
 -81.9932
 -81.8766
 -82.236
 -84.5603
 -84.5435
 -84.6178
 -84.5196
 -84.914
 -84.9368
 -84.9487
 -84.9607
 -85.009
 -85.0009
 -85.0194
 -84.9669
 -81.1465
 -81.267
 -80.6293
 -81.4208
 -83.1571
 -83.0499
 -83.1477
 -83.3909
 -58.0185
 -56.9274
 -56.3236
 -57.2179
 -81.9997
 -81.997
 -81.6762
 -81.9116
 -84.2863
 -84.3966
 -84.3725
 -84.4077
 -83.0291
 -82.9689
 -83.3122
 -82.7838
 -83.0615
 -83.3455
 -83.0042
 -83.2956
 -78.5336
 -78.1657
 -78.7086
 -78.6631
 -85.1569
 -85.1731
 -85.1723
 -85.1532
 -85.2563
 -85.2588
 -85.2597
 -85.2608
 -84.5282
 -84.6164
 -84.4399
 -84.4955
 -82.0748
 -82.0083
 -82.2855
 -81.9405
 -84.8869
 -84.9038
 -84.9302
 -84.8812
 -77.2972
 -76.0827
 -76.4629
 -76.4043
 -77.0593
 -76.4474
 -76.3622
 -77.2753
 -56.6199
 -55.915
 -57.2143
 -56.9385
 -84.6813
 -84.7192
 -84.7127
 -84.7669
 -80.7372
 -81.3169
 -81.4108
 -80.8417
 -79.9769
 -79.5081
 -79.9296
 -80.4553
 -85.2578
 -85.2625
 -85.2593
 -85.2641
 -79.7982
 -79.7039
 -79.342
 -79.8005
 -80.3781
 -80.102
 -79.761
 -80.3162
 -81.0842
 -81.3873
 -81.112
 -80.7869
 -83.5821
 -83.5133
 -83.6906
 -83.6358
 -80.5588
 -80.9724
 -80.7065
 -80.8094
 -82.6018
 -82.8025
 -82.869
 -82.6796
 -83.0718
 -83.0227
 -82.9509
 -82.8294
 -79.1498
 -78.5746
 -79.4039
 -78.8462
 -53.2423
 -52.8166
 -54.7405
 -54.8085
 -77.9919
 -78.2323
 -78.5595
 -78.2588
 -84.6594
 -84.6526
 -84.7133
 -84.5874
 -84.6978
 -84.6993
 -84.7587
 -84.7298
 -85.0004
 -85.0049
 -84.9827
 -85.0396
 -77.9784
 -77.9375
 -78.0398
 -78.2321
 -85.2581
 -85.2597
 -85.2565
 -85.2645
 -85.0098
 -85.0375
 -85.0129
 -85.0144
 -72.7446
 -72.6175
 -71.6833
 -71.9049
 -82.6991
 -82.72
 -82.5689
 -83.0689
 -80.1988
 -80.452
 -79.8448
 -80.0708
 -80.3915
 -80.1322
 -80.1845
 -78.1775
 -78.1075
 -78.0866
 -77.9221
 -84.831
 -84.8042
 -84.7859
 -84.8582
 -83.5346
 -83.7862
 -83.661
 -83.5082
 -84.7774
 -84.8253
 -84.8126
 -81.9891
 -81.5377
 -81.7915
 -81.605
 -84.0445
 -84.0954
 -84.0695
 -83.9351
 -85.1201
 -85.1179
 -85.1154
 -85.1375
 -77.5121
 -77.6932
 -78.6396
 -78.2537
 -79.1172
 -78.6904
 -78.5196
 -78.7827
 -84.7344
 -84.6646
 -84.6375
 -84.6593
 -84.9492
 -84.9269
 -84.9956
 -84.9895
 -74.5114
 -74.3471
 -73.9306
 -73.2086
 -78.7263
 -78.8467
 -79.6339
 -79.4032
 -83.0061
 -83.2839
 -83.4293
 -83.0843
 -85.2317
 -85.24
 -85.2339
 -85.2362
 -84.6682
 -84.7358
 -84.7382
 -84.7201
 -83.9986
 -83.7366
 -84.0042
 -83.9809
 -61.3879
 -59.5813
 -61.5697
 -61.3346
 -83.7179
 -83.5002
 -83.734
 -83.8663
 -85.1033
 -85.0907
 -85.1052
 -85.0708
 -80.6327
 -79.8962
 -81.0067
 -80.6763
 -80.0545
 -80.1619
 -79.6476
 -79.9278
 -79.4293
 -78.847
 -79.023
 -79.2141
 -73.046
 -72.9337
 -72.9047
 -73.2419
 -79.8417
 -79.1081
 -79.1181
 -79.1069
 -84.774
 -84.7559
 -84.7668
 -84.7231
 -76.7442
 -76.9149
 -77.2139
 -77.4501
 -85.2332
 -85.2264
 -85.2273
 -85.2314
 -76.6999
 -75.7881
 -75.942
 -76.595
 -85.1172
 -85.0896
 -85.1085
 -85.0937
 -83.6599
 -83.4918
 -83.4833
 -83.6014
 -82.3898
 -82.5761
 -82.7359
 -82.4195
 -81.5823
 -81.6349
 -82.0114
 -81.6762
 -80.8601
 -80.8401
 -80.5875
 -80.3857
 -85.2602
 -85.2628
 -85.2641
 -85.2643
 -81.2498
 -81.1135
 -81.224
 -81.1352
 -85.2692
 -85.2663
 -85.268
 -85.2643
 -84.9389
 -84.9472
 -84.9852
 -84.9589
 -66.5458
 -68.1961
 -67.8499
 -66.3233
 -85.2143
 -85.2112
 -85.2215
 -85.2265
 -78.8076
 -79.5668
 -78.9848
 -78.453
 -64.0369
 -63.3938
 -63.1435
 -63.786
 -85.089
 -85.0876
 -85.0773
 -85.0922
 -85.2504
 -85.2544
 -85.2535
 -85.2538
 -84.2173
 -84.2984
 -84.1916
 -84.2146
 -85.037
 -85.0065
 -85.0476
 -85.0249
 -80.3833
 -79.8492
 -80.1046
 -80.0929
 -84.5064
 -84.4846
 -84.5257
 -84.6129
 -82.3858
 -82.1056
 -82.3849
 -82.4051
 -78.4803
 -78.6969
 -78.42
 -78.3848
 -74.8823
 -74.7477
 -74.7566
 -75.3599
 -83.5034
 -83.4037
 -83.62
 -83.3433
 -84.024
 -84.0663
 -83.9913
 -83.8979
 -80.0564
 -79.9161
 -80.2456
 -80.5369
 -79.9898
 -79.4498
 -80.0338
 -79.8876
 -84.8079
 -84.7997
 -84.7429
 -84.7671
 -85.2231
 -85.2266
 -85.2319
 -85.2319
 -85.205
 -85.1933
 -85.207
 -85.2092
 -85.2056
 -85.1885
 -85.1911
 -85.1982
 -84.7952
 -84.7791
 -84.8169
 -84.7529
 -79.9013
 -79.3435
 -79.7874
 -79.6147
 -80.0948
 -80.3466
 -80.465
 -80.5897
 -83.8761
 -83.8858
 -83.5403
 -83.5973
 -85.003
 -84.9786
 -85.0408
 -85.0209
 -84.9867
 -84.9612
 -84.9679
 -84.9956
 -84.4542
 -84.3657
 -84.4111
 -84.4239
 -84.601
 -84.6567
 -84.5551
 -84.5903
 -74.7699
 -74.6144
 -74.9798
 -75.7625
 -47.4413
 -46.8461
 -47.5395
 -46.1196
 -80.9202
 -80.8507
 -80.2443
 -80.5831
 -52.2096
 -53.9101
 -53.407
 -81.0756
 -81.0145
 -81.2377
 -80.6419
 -85.1108
 -85.0988
 -85.1058
 -85.0886
 -84.3233
 -84.4006
 -84.4035
 -84.4751
 -85.2306
 -85.2254
 -85.2381
 -85.2262
 -79.9128
 -80.0041
 -79.5307
 -80.002
 -84.9124
 -84.8791
 -84.9298
 -84.9214
 -84.4671
 -84.5002
 -84.371
 -84.3869
 -85.2462
 -85.2489
 -85.253
 -85.2473
 -85.1157
 -85.1161
 -85.1245
 -85.1447
 -80.836
 -81.2913
 -80.9831
 -80.8147
 -84.8405
 -84.8296
 -84.7875
 -84.8204
 -85.1455
 -85.1121
 -85.1358
 -85.1142
 -63.6762
 -61.6832
 -62.8438
 -61.8684
 -84.2469
 -84.3176
 -84.3533
 -84.3614
 -85.1316
 -85.1329
 -85.1551
 -85.146
 -84.7633
 -84.8202
 -84.7167
 -84.841
 -85.0625
 -85.037
 -85.0696
 -85.0589
 -79.9033
 -80.3411
 -80.5611
 -80.6862
 -85.1017
 -85.1467
 -85.1042
 -85.1398
 -83.2351
 -83.3824
 -82.9084
 -83.1675
 -83.7468
 -83.8333
 -83.9389
 -83.688
 -85.1023
 -85.1107
 -85.0877
 -85.1095
 -85.2717
 -85.2684
 -85.2698
 -85.2725
 -75.2907
 -75.7725
 -76.0697
 -76.2948
 -82.3914
 -82.5804
 -82.7679
 -82.4641
 -84.4463
 -84.4164
 -84.3357
 -84.3647
 -85.131
 -85.1422
 -85.1424
 -85.1414
 -81.4118
 -81.1726
 -81.2323
 -81.2442
 -76.1456
 -77.1332
 -77.515
 -76.3648
 -84.9082
 -84.9092
 -84.8659
 -84.8561
 -84.6318
 -84.6989
 -84.6441
 -84.6617
 -85.2276
 -85.2302
 -85.2355
 -85.2265
 -78.1525
 -78.8734
 -77.9707
 -78.6711
 -85.2548
 -85.2591
 -85.2575
 -85.2544
 -82.0232
 -82.5002
 -82.3512
 -82.1978
 -48.4059
 -48.1162
 -48.4658
 -48.8924
 -85.1848
 -85.1985
 -85.2012
 -85.1982
 -84.8628
 -84.8958
 -84.8421
 -84.771
 -85.2243
 -85.2232
 -85.2179
 -85.2144
 -83.9244
 -83.7517
 -83.9348
 -83.9713
 -83.6041
 -83.7611
 -83.7883
 -83.6632
 -85.0749
 -85.045
 -85.0596
 -85.054
 -79.8959
 -80.0781
 -79.6676
 -79.9689
 -79.2286
 -79.559
 -79.5513
 -79.4151
 -57.9508
 -57.1718
 -57.4096
 -56.9611
 -84.3523
 -84.4258
 -84.4611
 -84.5136
 -84.0645
 -83.9502
 -84.1564
 -84.0397
 -84.816
 -84.7272
 -84.7604
 -84.8275
 -82.3895
 -82.7379
 -82.7633
 -82.2764
 -85.2147
 -85.2106
 -85.2201
 -85.2093
 -85.2502
 -85.2588
 -85.2511
 -85.2473
 -84.7858
 -84.8326
 -84.8717
 -84.8681
 -41.7715
 -41.6914
 -41.9228
 -42.2411
 -83.0202
 -82.8739
 -83.0935
 -82.7789
 -83.2882
 -83.204
 -82.9877
 -83.2086
 -83.1054
 -83.1125
 -82.8918
 -82.864
 -85.0679
 -85.0577
 -85.0866
 -85.0485
 -62.5176
 -63.9219
 -61.3268
 -62.3217
 -54.3631
 -54.6083
 -53.1119
 -53.0516
 -85.0225
 -84.9976
 -85.0325
 -84.9997
 -81.6646
 -82.0842
 -81.4769
 -82.0975
 -83.0719
 -83.0731
 -83.1585
 -83.1691
 -84.7572
 -84.6886
 -84.7031
 -84.6173
 -79.5824
 -79.8306
 -80.0478
 -79.7905
 -85.1326
 -85.1005
 -85.1109
 -85.1223
 -82.4538
 -81.8102
 -82.193
 -81.7367
 -81.7547
 -81.6247
 -81.2861
 -81.6983
 -76.3264
 -75.7513
 -76.7408
 -75.4621
 -83.1835
 -83.5174
 -83.2344
 -83.4905
 -85.1557
 -85.1664
 -85.1659
 -85.1514
 -84.8548
 -84.9172
 -84.9287
 -84.8759
 -79.0098
 -78.8591
 -79.4672
 -79.4522
 -81.2962
 -81.7733
 -81.7905
 -81.2806
 -85.2212
 -85.2232
 -85.2272
 -85.2295
 -85.1273
 -85.1157
 -85.1262
 -85.1123
 -83.2348
 -83.1509
 -82.9892
 -83.1366
 -77.9058
 -78.0014
 -77.9671
 -78.1674
 -68.0084
 -70.3778
 -70.0992
 -68.5219
 -84.8336
 -84.7844
 -84.7481
 -84.8172
 -76.5639
 -75.6282
 -76.517
 -74.3675
 -85.1628
 -85.148
 -85.1436
 -85.1608
 -84.5802
 -84.6642
 -84.6023
 -84.5173
 -85.1924
 -85.1895
 -85.1849
 -85.1838
 -84.9359
 -84.8964
 -84.8881
 -84.9092
 -83.3355
 -83.2492
 -83.3014
 -83.4668
 -80.1483
 -79.4187
 -79.5998
 -79.8916
 -70.141
 -72.138
 -70.2722
 -70.5521
 -74.482
 -72.8992
 -74.5698
 -74.0651
 -79.5819
 -78.752
 -78.5808
 -78.7648
 -83.848
 -83.9031
 -83.839
 -83.5969
 -83.9619
 -83.906
 -84.0374
 -83.7992
 -84.1083
 -83.9668
 -84.2332
 -84.0861
 -84.9179
 -84.8838
 -84.9263
 -84.9213
 -61.8341
 -60.338
 -60.4233
 -60.2916
 -84.4529
 -84.4658
 -84.4201
 -84.5088
 -78.9224
 -78.1742
 -78.4711
 -78.6652
 -82.9817
 -83.2966
 -83.0939
 -83.2822
 -85.2455
 -85.2352
 -85.2462
 -85.2449
 -83.5427
 -83.4277
 -83.421
 -83.3553
 -77.2102
 -76.9006
 -77.0945
 -76.2071
 -82.6925
 -82.7211
 -82.879
 -83.0227
 -80.3553
 -80.6205
 -80.5687
 -80.2467
 -83.3209
 -83.0787
 -83.424
 -83.271
 -62.6759
 -61.4902
 -62.0098
 -62.8449
 -83.1889
 -83.1883
 -83.4398
 -83.4489
 -84.8945
 -84.882
 -84.9091
 -84.8956
 -84.554
 -84.5613
 -84.6059
 -84.5589
 -85.2023
 -85.184
 -85.2017
 -85.1906
 -81.2474
 -81.1456
 -81.4666
 -81.2388
 -79.8174
 -80.2231
 -79.8864
 -80.7206
 -85.1615
 -85.1477
 -85.1687
 -85.1665
 -80.4972
 -80.4769
 -81.0358
 -80.4995
 -85.1674
 -85.1587
 -85.1725
 -85.1598
 -84.2276
 -84.387
 -84.2707
 -84.3156
 -83.8999
 -83.6483
 -83.8855
 -83.9581
 -80.2554
 -80.6593
 -80.5422
 -80.2006
 -83.5557
 -83.5031
 -83.6335
 -83.4335
 -85.179
 -85.1693
 -85.1797
 -85.1797
 -48.2432
 -48.3397
 -48.529
 -47.4744
 -77.761
 -77.678
 -77.6824
 -77.8001
 -76.9432
 -76.9692
 -76.9238
 -76.4328
 -81.7402
 -81.8495
 -81.5848
 -82.0671
 -83.0518
 -82.855
 -83.0279
 -82.9011
 -81.4409
 -81.2696
 -81.0876
 -81.5577
 -85.2316
 -85.2256
 -85.2392
 -85.2214
 -79.9203
 -79.6448
 -79.7559
 -80.2491
 -84.8274
 -84.8459
 -84.8726
 -84.8256
 -83.7427
 -85.0903
 -85.0601
 -85.0772
 -85.0806
 -84.657
 -84.6999
 -84.7411
 -84.7282
 -74.778
 -75.6685
 -75.9573
 -75.3056
 -82.1151
 -81.947
 -82.1571
 -82.4022
 -80.3041
 -79.7806
 -80.2168
 -80.4799
 -85.1212
 -85.1091
 -85.1039
 -85.105
 -83.3189
 -82.9055
 -83.1994
 -83.0629
 -85.143
 -85.1513
 -85.1278
 -85.1206
 -84.9126
 -84.9457
 -84.8859
 -84.9554
 -75.3443
 -75.7882
 -75.4458
 -76.2598
 -79.348
 -78.6139
 -79.8382
 -79.443
 -84.9625
 -84.9891
 -84.9859
 -84.9574
 -83.5652
 -83.263
 -83.4339
 -77.1457
 -76.5942
 -76.798
 -77.4851
 -84.8017
 -84.7018
 -84.7612
 -84.6973
 -80.6988
 -80.2056
 -80.1298
 -80.6619
 -83.6859
 -83.3721
 -83.5124
 -83.6903
 -85.1997
 -85.1992
 -85.187
 -85.1998
 -81.6016
 -81.4416
 -81.27
 -81.5904
 -85.1059
 -85.0884
 -85.1088
 -85.1141
 -84.0118
 -83.9473
 -84.04
 -83.8699
 -85.0022
 -84.9844
 -84.9577
 -84.9774
 -85.1926
 -85.1932
 -85.203
 -85.1974
 -81.7451
 -81.7104
 -81.9308
 -81.9225
 -47.6694
 -49.4499
 -48.9398
 -49.961
 -85.2203
 -85.2116
 -85.217
 -85.2099
 -84.7344
 -84.7231
 -84.6498
 -84.6767
 -77.9317
 -77.9724
 -79.0096
 -78.1825
 -82.7865
 -82.8994
 -83.0338
 -82.7383
 -65.1484
 -65.5661
 -65.804
 -64.355
 -85.1621
 -85.1659
 -85.1843
 -85.164
 -78.4008
 -78.1714
 -78.2968
 -78.3215
 -84.2296
 -84.3184
 -84.1682
 -84.2516
 -78.9452
 -77.6849
 -78.6107
 -78.771
 -85.2466
 -85.2453
 -85.2475
 -85.2349
 -85.2525
 -85.2527
 -85.2474
 -85.2443
 -84.8663
 -84.8078
 -84.8077
 -84.8561
 -84.3359
 -84.3824
 -84.3372
 -84.2796
 -84.4027
 -76.491
 -76.7463
 -75.4335
 -76.3882
 -78.6661
 -78.3623
 -78.2015
 -78.9736
 -84.786
 -84.8446
 -84.8511
 -84.8359
 -78.7285
 -79.0911
 -79.0955
 -78.7131
 -80.1266
 -80.0517
 -79.9344
 -80.4617
 -84.8505
 -84.8704
 -84.8416
 -84.8154
 -82.0501
 -82.3875
 -82.0356
 -82.3987
 -84.8497
 -84.8558
 -84.8799
 -84.9009
 -80.535
 -80.4247
 -79.9743
 -80.6157
 -81.9044
 -82.2286
 -82.1827
 -82.2335
 -83.3109
 -83.4668
 -83.1899
 -83.4537
 -84.3924
 -84.4935
 -84.403
 -84.4974
 -85.0439
 -85.0293
 -85.0621
 -85.0704
 -84.0908
 -84.0513
 -83.973
 -83.9803
 -84.196
 -84.2001
 -84.2869
 -84.2283
 -75.5647
 -75.5471
 -75.8951
 -76.1392
 -84.7925
 -84.8168
 -84.8242
 -84.8234
 -83.9122
 -83.9649
 -83.9976
 -83.8721
 -84.1767
 -84.2005
 -84.0937
 -84.1878
 -82.5656
 -82.6789
 -82.2817
 -82.4868
 -77.1372
 -77.089
 -77.422
 -76.6155
 -85.0204
 -85.0266
 -85.0504
 -85.0389
 -77.437
 -76.8053
 -77.0768
 -77.8814
 -85.2465
 -85.2461
 -85.2507
 -85.2499
 -85.1364
 -85.1257
 -85.1501
 -85.146
 -85.1661
 -85.1644
 -85.1626
 -85.1584
 -85.0873
 -85.0947
 -85.0851
 -85.1007
 -84.8863
 -84.9177
 -84.8658
 -84.922
 -68.6301
 -67.7697
 -66.0195
 -84.188
 -84.015
 -84.1751
 -84.0983
 -85.1037
 -85.0983
 -85.0886
 -85.1093
 -82.3708
 -82.0057
 -82.2265
 -82.3252
 -80.8694
 -80.8872
 -80.7319
 -80.994
 -84.9746
 -84.978
 -85.0168
 -84.9414
 -83.2147
 -83.1283
 -83.3079
 -83.3979
 -81.2689
 -81.2859
 -81.243
 -81.0871
 -85.221
 -85.2278
 -84.6602
 -84.631
 -84.5774
 -84.5593
 -83.3853
 -83.405
 -83.2323
 -84.4512
 -84.4673
 -84.4273
 -84.3664
 -70.0715
 -69.9502
 -71.3604
 -71.2607
 -85.1096
 -85.1296
 -85.1252
 -85.11
 -84.4372
 -84.41
 -84.3539
 -84.3566
 -82.3132
 -81.9818
 -82.1102
 -82.3657
 -83.9718
 -83.785
 -83.8558
 -83.9039
 -78.5996
 -78.4512
 -78.5559
 -78.4871
 -75.9489
 -77.1152
 -76.3015
 -76.5178
 -82.9658
 -83.1798
 -83.1897
 -83.0758
 -77.4125
 -77.2035
 -77.4166
 -78.0547
 -83.2134
 -83.0978
 -83.1368
 -83.0437
 -85.132
 -85.1326
 -85.112
 -85.1076
 -78.9982
 -79.2711
 -79.4238
 -79.227
 -57.6843
 -59.1465
 -57.3968
 -58.4787
 -84.4986
 -84.3395
 -84.4762
 -84.4429
 -82.7074
 -82.893
 -82.6805
 -82.9071
 -78.3843
 -78.2607
 -78.7265
 -78.5816
 -83.5349
 -83.3677
 -83.5639
 -83.6026
 -85.2344
 -85.23
 -85.2366
 -85.2338
 -80.4603
 -80.4622
 -80.258
 -80.5271
 -84.6845
 -84.6
 -84.595
 -84.5969
 -82.7195
 -82.916
 -82.7118
 -83.1242
 -84.9129
 -84.9279
 -84.9165
 -84.9586
 -85.1523
 -85.1452
 -85.1565
 -85.1428
 -78.2257
 -78.7275
 -78.3917
 -79.2715
 -81.4787
 -81.7172
 -81.6596
 -81.6125
 -84.2896
 -84.2782
 -84.1532
 -84.2077
 -78.1209
 -78.2569
 -78.234
 -78.4072
 -48.9527
 -48.1959
 -48.3007
 -48.8274
 -83.8955
 -83.7314
 -83.8
 -83.6838
 -46.6196
 -46.4471
 -46.5224
 -47.3953
 -48.7051
 -50.1151
 -49.729
 -48.9722
 -70.4351
 -71.4036
 -71.0199
 -70.0183
 -84.7604
 -84.7111
 -84.6739
 -84.6308
 -84.7623
 -84.7858
 -84.803
 -84.8303
 -84.8323
 -84.8084
 -84.8319
 -84.772
 -84.5785
 -84.4843
 -84.5115
 -84.5826
 -65.3472
 -64.2297
 -65.2449
 -65.0451
 -79.2853
 -79.0936
 -79.5869
 -79.3634
 -77.6145
 -77.0646
 -77.4323
 -76.9211
 -82.07
 -82.4055
 -82.0997
 -82.4202
 -84.043
 -83.9654
 -84.0614
 -83.9724
 -84.9433
 -84.9221
 -84.908
 -84.9376
 -79.5949
 -80.2483
 -80.5527
 -79.8658
 -84.7765
 -83.7823
 -83.9361
 -83.93
 -83.8514
 -85.2457
 -85.2502
 -85.2555
 -85.2514
 -83.1888
 -83.2844
 -83.3764
 -83.2378
 -85.1801
 -85.1974
 -85.1845
 -79.0962
 -79.2843
 -79.5087
 -79.0196
 -52.6793
 -53.9039
 -53.2295
 -53.8661
 -83.56
 -83.5741
 -83.8336
 -83.4446
 -82.4979
 -81.9899
 -82.0813
 -82.0547
 -77.8438
 -78.1718
 -78.5893
 -78.8585
 -78.5298
 -78.735
 -78.309
 -78.8268
 -68.8973
 -67.7695
 -68.5717
 -68.6358
 -84.4103
 -84.3697
 -84.3999
 -84.5427
 -83.7121
 -83.9208
 -83.6363
 -83.8253
 -81.6147
 -81.148
 -81.6044
 -81.3837
 -83.0473
 -82.9589
 -83.3094
 -84.896
 -84.8862
 -84.8829
 -79.5849
 -79.7127
 -78.8671
 -78.7059
 -73.253
 -73.009
 -73.0079
 -73.2118
 -80.3929
 -80.7603
 -80.6397
 -80.3116
 -72.2174
 -70.997
 -72.6044
 -70.6458
 -85.0696
 -85.0956
 -85.075
 -85.088
 -84.8257
 -84.8599
 -84.8651
 -84.8978
 -78.3578
 -78.1869
 -78.2749
 -78.1867
 -66.265
 -64.3145
 -65.8491
 -66.2611
 -83.9825
 -83.7592
 -83.9682
 -83.9028
 -85.219
 -85.204
 -85.2172
 -85.2059
 -71.7511
 -71.609
 -71.0504
 -71.6604
 -84.6791
 -84.6231
 -84.5965
 -84.6964
 -57.4368
 -56.4801
 -57.2253
 -56.567
 -84.9021
 -84.9094
 -84.9037
 -84.9415
 -82.3353
 -82.035
 -82.4852
 -81.9759
 -85.0839
 -85.0874
 -85.0991
 -85.1063
 -78.8917
 -79.0467
 -79.0869
 -79.4869
 -81.6765
 -81.3694
 -81.3884
 -81.4092
 -78.9764
 -78.7809
 -79.4978
 -79.3655
 -80.722
 -80.5969
 -81.1397
 -80.2031
 -83.9594
 -84.0681
 -84.0752
 -83.9349
 -83.0235
 -82.8392
 -83.0984
 -83.0925
 -85.0908
 -85.0721
 -85.0457
 -85.0421
 -85.2383
 -85.2425
 -85.2331
 -85.2371
 -82.4641
 -82.4274
 -82.2117
 -82.4009
 -85.1246
 -85.1134
 -85.1143
 -85.1339
 -84.8513
 -84.9012
 -84.9383
 -84.8865
 -62.8192
 -62.2569
 -60.808
 -62.8518
 -76.1963
 -77.5373
 -77.2066
 -76.8385
 -82.2797
 -82.1014
 -82.0166
 -82.0646
 -69.1493
 -68.3186
 -68.1096
 -67.1799
 -84.0524
 -84.1767
 -84.1674
 -84.1481
 -85.0326
 -85.0869
 -85.0559
 -85.0593
 -69.9343
 -71.8416
 -69.9938
 -69.8905
 -83.0839
 -83.2726
 -83.1683
 -83.1839
 -80.9366
 -80.9416
 -80.9524
 -80.7423
 -48.9845
 -49.9394
 -49.7117
 -48.8569
 -82.1811
 -82.1401
 -82.0531
 -82.4035
 -83.8159
 -83.9337
 -83.924
 -83.9384
 -84.9276
 -84.9802
 -84.9518
 -84.9823
 -80.7783
 -80.9051
 -81.0666
 -83.7502
 -83.71
 -83.6408
 -83.7467
 -81.4071
 -81.5499
 -81.8706
 -81.5809
 -84.766
 -84.714
 -84.7475
 -84.7554
 -84.7111
 -84.7663
 -84.7898
 -84.7436
 -85.1343
 -85.1145
 -85.1281
 -85.1146
 -79.1941
 -79.4622
 -79.7204
 -79.3046
 -85.1937
 -85.1992
 -85.2046
 -85.1972
 -80.2066
 -80.5943
 -80.3068
 -80.1126
 -83.694
 -83.8975
 -83.8813
 -83.9966
 -84.0706
 -83.9231
 -83.9393
 -83.8849
 -47.6882
 -46.7743
 -47.5161
 -47.5691
 -80.8958
 -80.5835
 -80.9065
 -80.9557
 -83.4091
 -83.4348
 -83.5803
 -83.7805
 -83.2761
 -83.3675
 -83.3397
 -83.1398
 -85.2284
 -85.23
 -85.2212
 -85.2334
 -80.1839
 -80.5942
 -80.8219
 -80.3242
 -80.9804
 -80.7257
 -81.0862
 -80.6232
 -84.9076
 -84.9373
 -84.902
 -84.9392
 -78.2661
 -78.1213
 -77.7024
 -77.6132
 -78.2127
 -78.0352
 -78.4643
 -78.0421
 -84.615
 -84.5098
 -84.6043
 -84.5781
 -84.7873
 -84.7718
 -84.7233
 -84.7755
 -84.0797
 -84.0704
 -84.2304
 -84.2072
 -80.5248
 -80.3316
 -84.5315
 -84.4456
 -84.5783
 -84.4649
 -80.8956
 -81.0946
 -80.9499
 -80.978
 -82.8483
 -83.1069
 -83.1757
 -83.0385
 -85.1793
 -85.1708
 -85.1622
 -85.1845
 -82.6822
 -82.7592
 -82.8891
 -82.9315
 -84.9849
 -85.0189
 -85.0359
 -84.9752
 -78.999
 -80.0806
 -79.7037
 -80.0481
 -82.4104
 -82.1606
 -82.0589
 -82.2603
 -83.4201
 -83.6867
 -83.5231
 -83.6764
 -79.5723
 -79.1487
 -78.9595
 -79.2301
 -58.0945
 -58.0334
 -57.6675
 -56.7413
 -85.2436
 -85.243
 -85.2427
 -85.2452
 -71.5913
 -71.1955
 -71.8581
 -71.1352
 -84.1172
 -84.1835
 -84.0543
 -84.0724
 -57.6726
 -57.5983
 -58.9496
 -57.5665
 -84.4836
 -84.5591
 -84.4834
 -84.4761
 -80.3597
 -80.2751
 -80.1598
 -80.1013
 -80.4684
 -80.5513
 -80.1439
 -80.3729
 -83.8036
 -83.8913
 -83.6474
 -83.8493
 -85.0838
 -85.0487
 -85.0699
 -85.0424
 -82.1215
 -82.5022
 -82.4051
 -82.4979
 -78.288
 -78.1189
 -78.3024
 -78.4915
 -85.0537
 -85.0881
 -85.0678
 -85.0932
 -79.3691
 -78.492
 -79.493
 -79.4731
 -81.9128
 -82.2441
 -82.2009
 -82.3568
 -84.8348
 -84.9031
 -84.9004
 -84.8596
 -83.8189
 -83.9781
 -83.978
 -83.976
 -82.978
 -82.7479
 -82.9726
 -83.0545
 -85.1691
 -85.1839
 -85.1889
 -85.1932
 -85.132
 -85.1367
 -85.1397
 -85.1282
 -84.3018
 -84.2958
 -84.1488
 -84.2398
 -83.0963
 -83.2562
 -83.0689
 -83.4827
 -81.1467
 -81.2947
 -81.3953
 -81.8926
 -77.0549
 -76.9353
 -76.5279
 -84.9315
 -84.9708
 -84.9381
 -84.9872
 -56.137
 -55.2526
 -54.4123
 -54.2936
 -84.6315
 -84.528
 -84.5821
 -84.5947
 -79.7541
 -79.1804
 -79.4683
 -79.5
 -78.8509
 -78.5158
 -78.6191
 -78.5998
 -85.0872
 -85.0635
 -85.0702
 -85.1069
 -84.0207
 -83.9086
 -84.0827
 -83.9692
 -82.9778
 -82.8992
 -80.8521
 -82.622
 -82.9049
 -82.6203
 -82.7713
 -58.4369
 -59.36
 -84.5588
 -84.606
 -84.6584
 -74.1608
 -74.8439
 -73.4032
 -74.2729
 -84.5374
 -84.4436
 -84.4627
 -84.4619
 -81.7616
 -82.1232
 -82.0443
 -82.0591
 -80.6695
 -81.2149
 -80.8793
 -80.8659
 -85.1883
 -85.19
 -85.208
 -85.1968
 -74.8116
 -75.59
 -74.6953
 -75.6356
 -84.5955
 -84.6185
 -84.6116
 -84.6662
 -85.1975
 -85.2029
 -85.1884
 -85.191
 -83.8797
 -83.716
 -83.9266
 -83.7933
 -84.5336
 -84.4351
 -84.4987
 -84.4757
 -83.5201
 -83.7331
 -83.6154
 -83.3092
 -85.257
 -85.2484
 -85.2516
 -85.2429
 -85.2533
 -85.2508
 -85.2481
 -85.2461
 -85.2528
 -85.2507
 -85.2501
 -85.2525
 -82.861
 -82.5934
 -82.8159
 -82.8071
 -84.2512
 -84.1395
 -84.1702
 -84.257
 -82.8708
 -82.8212
 -82.6358
 -82.7811
 -82.6295
 -82.4638
 -82.9003
 -82.5254
 -84.7622
 -84.7954
 -84.8067
 -84.7537
 -85.084
 -85.1189
 -85.1116
 -85.1172
 -85.032
 -85.0437
 -85.0065
 -85.0403
 -83.5562
 -83.681
 -83.5504
 -83.6284
 -83.3487
 -83.2936
 -83.2789
 -83.1717
 -80.2814
 -79.9799
 -80.1556
 -80.5984
 -84.8737
 -84.9174
 -84.9067
 -84.8657
 -68.7693
 -68.7177
 -67.7297
 -69.9007
 -85.0347
 -85.0579
 -85.0265
 -85.0151
 -84.1861
 -84.371
 -84.1653
 -84.3243
 -84.0137
 -84.1577
 -84.0331
 -84.0294
 -74.8178
 -74.6942
 -73.9483
 -73.1904
 -44.4093
 -44.9775
 -44.3877
 -44.4558
 -81.4662
 -81.7904
 -81.4652
 -81.568
 -85.0077
 -84.9489
 -84.9588
 -85.0044
 -78.8485
 -78.4525
 -78.7244
 -79.077
 -84.1619
 -84.2061
 -84.0973
 -84.2683
 -84.4005
 -84.4935
 -84.568
 -84.5267
 -84.8904
 -84.9145
 -84.8482
 -84.8779
 -66.7631
 -65.5657
 -65.8064
 -66.5425
 -68.4536
 -68.3711
 -67.8824
 -67.8222
 -84.9936
 -85.0456
 -85.0127
 -85.0269
 -84.802
 -84.7033
 -84.7334
 -84.7921
 -81.513
 -81.5446
 -81.3619
 -81.4106
 -83.5481
 -83.4411
 -83.6087
 -83.7177
 -84.2201
 -84.2674
 -84.2101
 -84.2169
 -80.9554
 -80.8305
 -81.295
 -80.8463
 -84.612
 -84.5721
 -84.5538
 -84.499
 -85.2791
 -85.2755
 -85.2781
 -85.2786
 -84.3368
 -84.4136
 -84.4334
 -84.5128
 -83.5773
 -83.7068
 -83.5451
 -83.7887
 -83.5682
 -83.5317
 -83.345
 -83.6126
 -84.1787
 -84.2346
 -84.1704
 -84.0558
 -85.2166
 -85.2199
 -85.2096
 -85.2176
 -85.1038
 -85.0835
 -85.1005
 -84.5557
 -84.5386
 -84.6171
 -84.5437
 -78.3705
 -78.3336
 -78.6584
 -78.2551
 -82.3248
 -82.388
 -82.135
 -82.4244
 -85.0579
 -85.0197
 -85.0285
 -85.0173
 -80.3152
 -80.4096
 -80.5419
 -80.7163
 -81.9644
 -81.6323
 -81.6023
 -82.0056
 -82.2794
 -82.1949
 -81.7287
 -82.0318
 -84.7329
 -84.6916
 -84.6808
 -84.6561
 -84.1805
 -84.0469
 -84.2125
 -83.9421
 -84.5344
 -84.3373
 -84.4157
 -84.4357
 -79.2514
 -79.3265
 -79.498
 -79.2557
 -82.5081
 -82.7253
 -82.791
 -82.5441
 -84.6541
 -84.5895
 -84.6584
 -84.6888
 -81.4515
 -81.6465
 -81.8081
 -81.305
 -84.2665
 -84.3197
 -84.3521
 -84.2594
 -78.9636
 -78.8325
 -79.082
 -78.7689
 -85.2119
 -85.2147
 -85.2007
 -85.2115
 -79.8934
 -79.4587
 -79.9792
 -80.1886
 -78.8106
 -77.7895
 -78.4367
 -78.4311
 -84.772
 -84.7532
 -84.7938
 -84.8159
 -80.2747
 -80.4017
 -80.4856
 -80.3942
 -84.4842
 -84.4715
 -84.5014
 -84.4032
 -73.5616
 -73.8885
 -72.5159
 -72.8768
 -83.9872
 -83.9347
 -83.9813
 -84.0984
 -85.1492
 -85.1691
 -85.1466
 -85.1621
 -83.9975
 -83.822
 -83.7992
 -83.9799
 -84.9128
 -84.9384
 -84.9074
 -84.9137
 -84.395
 -84.334
 -84.3361
 -84.4427
 -84.2523
 -84.3236
 -84.3068
 -84.4129
 -85.2208
 -85.2184
 -85.2242
 -85.2031
 -78.967
 -78.7359
 -78.5099
 -78.377
 -79.1025
 -78.9001
 -78.4388
 -78.8708
 -85.1032
 -85.0938
 -85.0863
 -85.1134
 -85.1871
 -85.1951
 -85.1825
 -80.955
 -80.8687
 -80.8226
 -81.0441
 -84.6829
 -84.7537
 -84.6567
 -84.6572
 -84.0312
 -84.0972
 -83.9325
 -84.1145
 -77.898
 -78.3492
 -77.298
 -77.7592
 -84.9142
 -84.9474
 -84.9343
 -84.9251
 -83.4359
 -83.1591
 -83.2233
 -83.399
 -83.9262
 -83.7842
 -83.7701
 -83.7897
 -84.9563
 -84.9904
 -84.9822
 -84.9747
 -77.4861
 -77.3274
 -77.5659
 -77.7987
 -80.7897
 -80.2271
 -80.5081
 -80.298
 -85.2456
 -85.2386
 -85.2464
 -85.2424
 -79.3339
 -79.278
 -79.3908
 -79.9537
 -78.1282
 -77.9633
 -78.0306
 -78.0749
 -83.5922
 -83.6295
 -83.5422
 -83.7824
 -59.4839
 -60.0582
 -58.8547
 -60.9989
 -83.9247
 -83.9444
 -83.8467
 -83.9454
 -85.0047
 -84.9965
 -84.9839
 -84.9742
 -85.0992
 -85.0793
 -85.091
 -75.1638
 -75.1727
 -75.85
 -75.4155
 -80.1082
 -80.5294
 -79.9338
 -80.3624
 -78.1181
 -77.9295
 -77.1665
 -77.4114
 -80.7846
 -80.4314
 -80.6733
 -80.6498
 -85.2469
 -85.2517
 -85.255
 -85.2516
 -76.1194
 -76.1727
 -75.846
 -75.2994
 -79.4572
 -79.085
 -79.4781
 -80.1452
 -85.0989
 -85.1194
 -85.1017
 -85.0934
 -82.0708
 -82.0411
 -82.2621
 -79.7668
 -79.4453
 -79.9935
 -83.9707
 -83.9984
 -83.8168
 -61.4468
 -63.412
 -63.6595
 -62.0788
 -84.0408
 -84.1615
 -84.1228
 -84.1954
 -83.8541
 -83.9821
 -83.7335
 -83.7388
 -85.0966
 -85.114
 -85.097
 -85.0974
 -85.174
 -85.1745
 -85.1932
 -85.1728
 -77.3531
 -76.3629
 -76.3186
 -77.8221
 -84.2268
 -84.3325
 -84.3734
 -84.2569
 -83.9983
 -84.1166
 -84.155
 -84.1398
 -83.0151
 -83.3318
 -83.1764
 -83.3575
 -81.4523
 -81.5528
 -81.7082
 -81.0811
 -84.2616
 -84.0924
 -84.2571
 -84.2411
 -79.2574
 -79.4077
 -79.2321
 -79.5504
 -85.1743
 -85.1672
 -85.1749
 -85.1767
 -81.1344
 -80.9589
 -81.1365
 -81.5043
 -85.0859
 -85.0638
 -85.0821
 -85.0576
 -85.1979
 -85.1933
 -85.176
 -85.1914
 -85.2254
 -85.2239
 -85.2197
 -85.2169
 -80.0086
 -79.7254
 -84.8857
 -84.8636
 -84.8385
 -84.8694
 -78.4681
 -79.2872
 -78.9542
 -78.6658
 -84.9594
 -85.0135
 -85.005
 -85.0123
 -85.0558
 -85.0562
 -85.0786
 -85.0544
 -80.5261
 -81.0113
 -80.9588
 -80.8113
 -84.2465
 -84.2446
 -84.3403
 -84.3178
 -80.77
 -80.7528
 -81.1108
 -80.7858
 -82.5373
 -82.446
 -82.5608
 -82.775
 -50.4109
 -52.1519
 -49.9543
 -51.3419
 -85.1192
 -85.1071
 -85.1386
 -85.1221
 -80.9061
 -80.7105
 -81.0956
 -81.5536
 -74.9042
 -74.276
 -74.3008
 -75.0975
 -83.0235
 -82.8486
 -83.1365
 -83.0893
 -74.0166
 -72.5936
 -71.9688
 -74.1898
 -83.0344
 -82.8073
 -82.6012
 -82.9623
 -84.8126
 -84.7896
 -84.8519
 -84.7616
 -83.1683
 -83.01
 -83.0199
 -83.0982
 -85.1103
 -85.1319
 -85.1163
 -82.9924
 -83.2044
 -83.0916
 -83.2515
 -50.6522
 -49.9283
 -50.0436
 -49.7593
 -85.2518
 -85.2525
 -85.2561
 -85.253
 -84.2591
 -84.2044
 -84.2853
 -84.1727
 -85.0109
 -84.9874
 -84.9491
 -84.9962
 -77.588
 -78.1317
 -76.5676
 -77.3041
 -81.2154
 -81.5886
 -81.0331
 -81.4986
 -81.3942
 -81.9555
 -81.5389
 -81.9238
 -85.194
 -85.1833
 -85.1971
 -85.2062
 -81.9995
 -81.7763
 -81.5325
 -81.672
 -85.2342
 -85.23
 -85.2367
 -85.2265
 -84.7319
 -84.6446
 -84.6562
 -84.7404
 -79.2161
 -79.3328
 -79.4727
 -79.1563
 -58.4763
 -59.0698
 -60.3387
 -58.1749
 -82.5478
 -82.127
 -82.4051
 -81.9644
 -83.3386
 -83.3807
 -83.5287
 -83.3619
 -84.8049
 -84.8285
 -84.7863
 -84.7536
 -51.7494
 -50.1793
 -52.0567
 -51.508
 -82.7106
 -82.5502
 -82.8531
 -82.721
 -85.229
 -85.218
 -85.2165
 -85.2176
 -85.0716
 -85.0889
 -85.0803
 -85.0695
 -85.0049
 -85.0252
 -85.0421
 -85.0096
 -84.9169
 -84.8995
 -84.8724
 -84.898
 -85.0408
 -85.0825
 -85.0649
 -85.0586
 -84.518
 -84.544
 -84.5195
 -84.5277
 -79.6143
 -80.6458
 -81.0575
 -81.0566
 -80.9108
 -84.7772
 -84.7238
 -84.743
 -84.7063
 -84.7444
 -84.753
 -84.6535
 -84.6945
 -73.2409
 -73.5304
 -73.4692
 -73.2452
 -85.1557
 -85.1552
 -85.149
 -85.1591
 -84.9689
 -85.0022
 -85.0387
 -85.0162
 -79.3651
 -79.9149
 -79.874
 -79.3409
 -79.3825
 -79.2146
 -80.5704
 -80.8302
 -80.6816
 -81.041
 -78.8807
 -78.1326
 -77.1098
 -77.7345
 -84.6995
 -84.767
 -84.743
 -84.7113
 -85.2512
 -85.25
 -85.2508
 -85.2531
 -83.6402
 -83.5105
 -83.6155
 -83.4269
 -85.18
 -85.1558
 -85.1397
 -85.1437
 -82.844
 -82.8541
 -82.6797
 -82.9089
 -84.6312
 -84.5911
 -84.5316
 -84.5349
 -77.3233
 -77.1124
 -77.1035
 -76.1341
 -84.2968
 -84.3881
 -84.2345
 -84.3011
 -84.4874
 -84.6029
 -84.6374
 -84.5247
 -79.8896
 -79.7168
 -79.3539
 -79.5649
 -81.974
 -81.7774
 -82.3336
 -82.0296
 -82.8587
 -82.8431
 -82.5962
 -82.4649
 -84.208
 -84.2989
 -84.2485
 -84.2733
 -70.1663
 -70.7542
 -71.1567
 -72.1546
 -84.3656
 -84.2697
 -84.3639
 -84.3954
 -82.0621
 -81.6811
 -82.1035
 -82.3768
 -84.8527
 -84.8284
 -84.85
 -84.7991
 -85.0444
 -85.024
 -85.0452
 -85.0239
 -85.2194
 -85.2171
 -85.2095
 -85.2158
 -85.1667
 -85.175
 -85.1536
 -85.2504
 -85.2473
 -85.2529
 -85.2515
 -85.0074
 -84.9862
 -84.9431
 -84.9759
 -83.2409
 -83.1885
 -83.3492
 -83.3202
 -85.1634
 -85.1515
 -85.1428
 -85.164
 -84.0014
 -84.0383
 -83.943
 -83.9125
 -84.1724
 -84.2317
 -84.1858
 -85.2205
 -85.2261
 -85.222
 -85.2197
 -85.1583
 -85.1482
 -85.1522
 -83.9424
 -83.845
 -84.0048
 -84.0528
 -81.9137
 -82.1203
 -81.8976
 -82.3718
 -84.7829
 -84.7412
 -84.7224
 -84.7089
 -85.2061
 -85.2125
 -85.212
 -85.2062
 -79.5742
 -79.5581
 -80.0113
 -79.3936
 -83.3562
 -83.314
 -83.1147
 -83.1221
 -83.5561
 -83.7614
 -83.4521
 -83.581
 -84.7788
 -84.7264
 -84.7798
 -84.8024
 -80.3475
 -79.9881
 -80.7125
 -80.0802
 -78.041
 -77.5334
 -78.116
 -77.6733
 -83.771
 -83.7937
 -83.7497
 -83.9295
 -85.2124
 -85.2034
 -85.2031
 -85.2085
 -81.2603
 -80.8136
 -81.3001
 -81.1063
 -78.3994
 -78.9782
 -78.3628
 -78.8761
 -84.421
 -84.2639
 -84.4126
 -84.4116
 -80.5236
 -80.5983
 -80.3311
 -79.1322
 -79.4768
 -79.3738
 -84.3129
 -84.283
 -84.4167
 -84.305
 -78.9544
 -78.7879
 -78.3397
 -78.914
 -79.6842
 -79.1524
 -79.5181
 -79.5875
 -84.4015
 -84.4558
 -84.3724
 -78.1935
 -78.0112
 -85.0536
 -85.0609
 -85.102
 -85.1033
 -84.7704
 -84.8602
 -84.8641
 -84.8168
 -70.5878
 -71.8064
 -69.5553
 -72.0394
 -61.6419
 -61.5198
 -60.5286
 -61.7862
 -80.1552
 -79.2695
 -79.8942
 -79.8649
 -85.1858
 -85.1832
 -85.1895
 -85.1837
 -84.5261
 -84.4759
 -84.417
 -84.4755
 -77.691
 -77.6222
 -77.5897
 -77.5571
 -80.83
 -80.9237
 -81.0624
 -81.5744
 -81.2015
 -81.152
 -81.0313
 -80.1859
 -80.52
 -80.5751
 -80.5989
 -80.5404
 -80.2376
 -80.7423
 -80.7851
 -78.5809
 -78.1052
 -78.5498
 -77.9517
 -85.2428
 -85.2453
 -85.2448
 -85.2419
 -85.168
 -85.1821
 -85.1684
 -83.6931
 -83.5709
 -83.7056
 -83.4652
 -80.0768
 -79.3718
 -80.1444
 -79.89
 -85.2564
 -85.2604
 -79.0574
 -78.7981
 -78.8547
 -78.5941
 -83.99
 -84.2491
 -84.0839
 -84.1567
 -84.5757
 -84.5553
 -79.0063
 -78.8836
 -79.5516
 -78.9923
 -85.1992
 -85.2021
 -85.1944
 -85.2093
 -85.2451
 -85.2408
 -85.2387
 -85.247
 -83.052
 -83.1752
 -83.0323
 -71.2332
 -72.1434
 -71.522
 -79.1564
 -79.8251
 -79.1028
 -79.3121
 -84.9132
 -84.8708
 -84.9389
 -84.8642
 -81.2677
 -80.7426
 -80.9217
 -80.4374
 -81.1519
 -80.8633
 -81.3139
 -80.7192
 -84.7088
 -84.6767
 -84.7318
 -84.7936
 -52.6098
 -52.8641
 -52.102
 -51.093
 -84.8523
 -84.879
 -84.9049
 -84.8887
 -84.921
 -84.9158
 -84.9541
 -84.9725
 -77.9887
 -77.9769
 -77.1916
 -77.7953
 -85.1618
 -85.1648
 -85.1679
 -85.1555
 -50.3738
 -48.849
 -49.4309
 -48.3242
 -85.213
 -85.1884
 -85.1899
 -85.1813
 -85.0403
 -85.0308
 -80.6231
 -80.8644
 -80.7085
 -81.0774
 -77.3511
 -76.7652
 -77.0734
 -77.5678
 -85.1557
 -85.1675
 -85.1626
 -85.1614
 -81.9046
 -82.0588
 -82.0376
 -81.7994
 -85.2016
 -85.1913
 -85.2001
 -80.5028
 -80.0538
 -79.7727
 -76.5609
 -77.2342
 -77.4027
 -85.2268
 -85.2295
 -85.2258
 -85.223
 -80.8049
 -80.6122
 -80.63
 -80.5624
 -85.1623
 -85.1662
 -77.0297
 -77.3581
 -76.8503
 -77.0705
 -83.933
 -84.0534
 -84.0908
 -83.8998
 -81.4404
 -81.1222
 -82.5237
 -83.054
 -82.9397
 -82.6253
 -80.458
 -80.3451
 -80.4022
 -79.9676
 -85.2332
 -85.2464
 -85.2321
 -85.2383
 -78.3797
 -78.2053
 -78.2998
 -85.0873
 -50.8908
 -50.9846
 -51.0283
 -50.4136
 -85.1363
 -85.1347
 -85.1494
 -85.1125
 -81.2792
 -81.3058
 -81.8387
 -81.7532
 -84.7793
 -84.7745
 -84.7683
 -84.7627
 -80.3428
 -80.0465
 -79.8382
 -80.2841
 -84.6815
 -73.1627
 -72.9881
 -72.9607
 -73.2341
 -84.5735
 -84.6032
 -84.5624
 -84.4936
 -85.0022
 -85.0269
 -85.0245
 -84.9817
 -85.0299
 -84.996
 -85.0447
 -85.142
 -85.1517
 -85.154
 -85.1456
 -77.7762
 -78.0327
 -78.6763
 -78.4047
 -85.0581
 -85.0551
 -85.057
 -85.0788
 -74.7736
 -74.6011
 -74.9124
 -73.8751
 -85.0243
 -85.0385
 -85.0555
 -85.0565
 -83.6216
 -83.5034
 -83.4693
 -83.3874
 -84.7804
 -84.8201
 -84.8357
 -84.8514
 -83.9103
 -83.8446
 -83.7803
 -83.7255
 -85.2026
 -85.1819
 -84.1882
 -84.0574
 -84.0647
 -84.1764
 -72.0991
 -71.6828
 -72.983
 -71.6198
 -73.8243
 -73.3784
 -75.0567
 -73.6577
 -83.9385
 -84.076
 -84.0592
 -84.0946
 -84.9175
 -84.9229
 -84.9008
 -84.9593
 -84.9554
 -84.9286
 -84.9394
 -84.9741
 -85.2028
 -85.184
 -85.1915
 -85.1845
 -84.9765
 -85.0262
 -85.0026
 -84.9813
 -73.5145
 -73.8454
 -74.3609
 -73.1679
 -78.4636
 -78.4857
 -78.3249
 -79.3161
 -85.2584
 -85.2554
 -85.2549
 -85.2545
 -84.3129
 -84.3205
 -84.3343
 -84.4677
 -79.0782
 -79.7187
 -78.9836
 -79.7567
 -55.2184
 -54.8775
 -56.7315
 -54.7674
 -85.1302
 -85.1417
 -85.1197
 -85.1613
 -80.1568
 -80.0883
 -80.2677
 -80.5634
 -82.5055
 -82.8014
 -82.3019
 -82.6168
 -74.9978
 -74.5693
 -74.8585
 -75.3267
 -84.6457
 -84.6113
 -84.6508
 -84.66
 -85.1924
 -85.1934
 -85.1898
 -85.1936
 -84.4249
 -84.3066
 -84.3337
 -84.3028
 -83.1352
 -83.0841
 -83.3971
 -83.2889
 -72.8398
 -73.3518
 -73.7953
 -72.0196
 -85.1768
 -84.7191
 -84.7677
 -84.7001
 -84.7462
 -82.3173
 -82.1744
 -81.8661
 -81.8724
 -84.8336
 -84.8686
 -84.8704
 -84.8887
 -78.9217
 -78.8255
 -78.6645
 -79.4308
 -84.7
 -84.7262
 -84.6409
 -71.2066
 -72.4997
 -71.3985
 -70.9838
 -85.0649
 -85.0089
 -85.0491
 -85.0287
 -78.3748
 -78.3124
 -78.626
 -78.4134
 -85.27
 -85.2677
 -85.2686
 -85.2725
 -80.5496
 -80.638
 -80.6651
 -80.6381
 -60.1683
 -63.3893
 -63.1516
 -62.1663
 -69.8968
 -69.8021
 -71.0417
 -70.5255
 -85.2576
 -85.2555
 -85.251
 -85.251
 -85.2132
 -85.2125
 -85.2227
 -85.2232
 -83.7203
 -83.8907
 -83.836
 -83.8773
 -80.7186
 -80.6926
 -80.9917
 -84.1902
 -84.1844
 -83.976
 -84.0695
 -84.7105
 -84.6893
 -84.7373
 -84.7731
 -83.9226
 -84.1985
 -84.1159
 -84.1012
 -83.8156
 -83.8927
 -84.0821
 -83.97
 -85.23
 -85.2205
 -85.2238
 -85.2201
 -79.2531
 -79.1139
 -79.68
 -79.2574
 -69.9124
 -67.499
 -67.8696
 -84.8819
 -84.8356
 -84.8797
 -84.8699
 -85.1537
 -85.1676
 -85.1505
 -85.1472
 -79.6805
 -79.4179
 -79.8064
 -79.3105
 -79.383
 -79.5722
 -78.9701
 -85.1587
 -85.15
 -85.1644
 -85.1366
 -83.3021
 -83.2884
 -83.4295
 -83.2601
 -79.3103
 -78.6853
 -79.1951
 -79.2943
 -82.4235
 -82.2612
 -82.2976
 -82.4819
 -85.0693
 -85.0658
 -85.0383
 -85.0711
 -79.1328
 -79.9205
 -78.706
 -79.801
 -82.6996
 -82.2942
 -82.5019
 -82.5191
 -81.2471
 -81.485
 -81.2586
 -85.2265
 -85.2239
 -85.2152
 -85.223
 -83.1643
 -83.284
 -83.0643
 -83.2918
 -85.2562
 -85.2554
 -85.2621
 -84.0333
 -84.0839
 -84.0874
 -84.0236
 -72.509
 -73.3963
 -71.8635
 -72.2649
 -84.5167
 -84.5366
 -84.5946
 -84.666
 -83.7315
 -83.9239
 -83.6663
 -79.8771
 -80.1326
 -80.4717
 -79.9581
 -78.1428
 -78.2759
 -78.0238
 -78.3532
 -79.9051
 -80.1082
 -80.4264
 -79.7283
 -59.0799
 -59.1275
 -60.9749
 -61.1354
 -81.7248
 -81.5873
 -81.4066
 -81.4418
 -81.3434
 -81.1823
 -81.7584
 -81.0665
 -85.1473
 -85.1345
 -85.1358
 -85.1592
 -76.2523
 -77.2609
 -76.9106
 -76.7116
 -84.7103
 -84.6678
 -84.728
 -84.7379
 -85.1957
 -85.1954
 -85.1855
 -85.1815
 -85.2045
 -85.1931
 -85.2
 -85.2083
 -85.0603
 -85.083
 -85.0552
 -85.0804
 -85.2267
 -85.2355
 -85.2354
 -85.2177
 -85.1782
 -85.1831
 -85.181
 -85.2533
 -85.2394
 -85.2455
 -85.2444
 -75.3398
 -74.8529
 -75.188
 -74.6277
 -82.3302
 -82.1494
 -81.9179
 -82.1826
 -81.1245
 -81.5961
 -81.3028
 -81.6691
 -82.0652
 -81.8925
 -81.8356
 -81.7656
 -85.199
 -85.1852
 -85.1898
 -85.1956
 -82.564
 -82.5906
 -82.3624
 -82.1441
 -80.028
 -79.394
 -79.4373
 -79.8815
 -84.6804
 -84.6589
 -84.7393
 -84.6581
 -80.0789
 -80.6718
 -80.0963
 -80.2697
 -84.9168
 -84.8804
 -84.8866
 -84.0898
 -84.2335
 -84.203
 -85.1362
 -85.1204
 -85.1406
 -85.1344
 -82.4342
 -82.5348
 -82.3398
 -82.3336
 -84.6048
 -84.5354
 -84.5486
 -84.5927
 -81.9317
 -81.4816
 -81.7258
 -81.9923
 -85.2591
 -85.257
 -85.2277
 -85.222
 -85.2165
 -85.2275
 -73.8457
 -73.6589
 -73.6703
 -73.2545
 -84.6535
 -84.7165
 -84.7224
 -84.7678
 -79.6495
 -80.4309
 -79.9847
 -79.4264
 -46.6449
 -44.7602
 -46.4464
 -45.8544
 -80.6459
 -80.5011
 -80.2295
 -80.4545
 -84.9107
 -84.8669
 -84.9044
 -76.8149
 -76.691
 -77.4946
 -77.4282
 -85.1896
 -85.1806
 -85.1972
 -85.1898
 -80.8714
 -81.002
 -80.8538
 -80.9833
 -84.6385
 -84.6962
 -84.6488
 -84.6421
 -72.4
 -73.1028
 -71.774
 -72.6531
 -55.1412
 -54.6551
 -55.7868
 -56.0814
 -79.7493
 -80.0779
 -79.7061
 -79.6243
 -82.0149
 -81.8994
 -82.1274
 -84.214
 -84.0509
 -84.2733
 -84.203
 -78.0032
 -77.9673
 -77.0902
 -84.8935
 -84.8866
 -84.8992
 -84.9294
 -85.0625
 -85.1028
 -85.0653
 -85.1002
 -84.8367
 -84.797
 -84.839
 -84.8381
 -85.1909
 -85.1631
 -85.178
 -85.178
 -85.0148
 -84.9731
 -84.9752
 -80.9185
 -81.1263
 -81.1673
 -81.2848
 -84.9596
 -84.9243
 -84.7731
 -84.7004
 -84.6745
 -84.7617
 -84.9141
 -84.891
 -84.8915
 -84.9251
 -79.787
 -80.1271
 -79.971
 -79.3752
 -80.4243
 -80.7081
 -80.3614
 -80.6422
 -47.2716
 -48.0443
 -48.2297
 -47.688
 -80.2684
 -80.5402
 -80.2669
 -80.8283
 -80.6123
 -80.5509
 -80.6644
 -83.4677
 -83.4523
 -83.3468
 -83.3068
 -80.992
 -81.4412
 -81.4289
 -81.1745
 -73.5317
 -74.2131
 -73.5317
 -73.3413
 -85.029
 -85.0044
 -85.0395
 -84.9972
 -83.7119
 -83.8384
 -83.6684
 -83.569
 -85.2245
 -85.2265
 -85.221
 -85.2248
 -84.3725
 -84.2617
 -84.3662
 -84.3067
 -85.1615
 -85.1607
 -85.1632
 -57.9544
 -59.5254
 -58.6861
 -59.1002
 -84.8871
 -84.9395
 -84.8876
 -84.8954
 -82.7423
 -82.4972
 -82.7763
 -82.6533
 -78.7299
 -78.2581
 -81.6669
 -81.7027
 -81.8744
 -81.7863
 -82.8126
 -82.5212
 -82.6419
 -85.152
 -85.1563
 -85.1486
 -85.1589
 -85.1347
 -85.1247
 -85.1087
 -85.1258
 -79.1169
 -78.8721
 -79.1942
 -78.9809
 -83.4424
 -83.3336
 -80.4327
 -80.9177
 -80.6424
 -80.2238
 -84.9552
 -84.9437
 -84.9896
 -84.9854
 -71.571
 -71.1703
 -71.397
 -71.5681
 -79.7124
 -79.955
 -79.5601
 -79.5425
 -80.4823
 -80.8657
 -81.0423
 -80.8691
 -83.9678
 -83.9174
 -83.9825
 -84.1419
 -84.9627
 -84.9493
 -84.9251
 -84.9336
 -85.0127
 -84.9693
 -84.9455
 -84.9867
 -51.9461
 -51.7095
 -51.3968
 -50.9022
 -77.1258
 -77.7277
 -77.8809
 -84.1764
 -83.9767
 -84.0902
 -84.3338
 -84.4528
 -84.3538
 -84.4162
 -85.1966
 -85.2023
 -85.1982
 -85.2069
 -83.1462
 -80.2061
 -80.1387
 -79.5322
 -79.7788
 -84.6566
 -84.6002
 -84.5246
 -84.5815
 -85.0211
 -84.9914
 -85.004
 -85.0318
 -85.1756
 -85.1807
 -79.2745
 -79.153
 -78.8859
 -78.7931
 -83.5855
 -83.673
 -83.6012
 -83.7572
 -77.9091
 -77.8049
 -77.9277
 -78.0545
 -84.3258
 -82.0945
 -81.791
 -82.3475
 -82.4974
 -81.3906
 -81.6402
 -81.7448
 -81.5775
 -85.2023
 -85.1853
 -85.2275
 -85.2337
 -85.2297
 -85.2287
 -63.8948
 -63.2265
 -63.4652
 -64.1167
 -84.9922
 -85.0035
 -84.9632
 -85.0227
 -84.468
 -84.3103
 -84.3306
 -84.4399
 -54.4119
 -54.8321
 -54.9003
 -54.0171
 -83.5155
 -83.5455
 -83.6169
 -83.4212
 -83.4609
 -83.2312
 -83.1132
 -83.1865
 -78.1224
 -77.2749
 -78.0783
 -77.8009
 -85.2551
 -85.2579
 -85.2587
 -85.2567
 -83.124
 -82.8907
 -82.9738
 -80.5063
 -80.983
 -80.9143
 -80.5534
 -85.2333
 -85.2475
 -85.2382
 -85.2406
 -80.7489
 -80.4976
 -80.0424
 -81.0511
 -82.6926
 -82.874
 -85.0792
 -85.0882
 -85.1059
 -85.0615
 -84.2007
 -84.1852
 -84.3212
 -84.266
 -85.2094
 -85.1999
 -85.2007
 -85.2051
 -83.1124
 -83.4095
 -80.0958
 -80.314
 -80.4162
 -80.3423
 -80.9441
 -80.936
 -81.1547
 -81.3206
 -85.1179
 -85.1126
 -85.0883
 -85.0946
 -85.0552
 -85.0492
 -85.0601
 -85.0685
 -84.9793
 -84.9186
 -84.9776
 -84.9423
 -81.4594
 -81.8995
 -81.7095
 -81.4349
 -64.8878
 -64.0925
 -64.7937
 -65.0241
 -85.2155
 -85.2213
 -85.2128
 -85.2151
 -77.6798
 -77.8438
 -77.9708
 -78.4168
 -84.0595
 -84.0789
 -84.1979
 -84.0059
 -81.7851
 -82.3755
 -81.9904
 -82.2012
 -84.0107
 -83.8531
 -83.9391
 -84.5873
 -84.6793
 -84.575
 -84.6468
 -83.6885
 -83.8421
 -83.724
 -83.6215
 -84.8471
 -84.8607
 -84.9072
 -84.835
 -84.8374
 -84.8345
 -84.8557
 -84.7711
 -53.735
 -55.9887
 -53.927
 -72.3449
 -73.6566
 -73.8607
 -73.4114
 -83.8437
 -83.7189
 -83.7743
 -83.7704
 -85.1193
 -85.1312
 -85.1192
 -85.1404
 -79.5925
 -78.9544
 -79.5594
 -80.6739
 -80.857
 -80.842
 -84.5011
 -84.4736
 -84.5454
 -84.5402
 -83.9468
 -84.0077
 -84.1112
 -84.1128
 -85.2707
 -85.2711
 -85.269
 -85.2704
 -69.6279
 -69.8865
 -69.1809
 -67.3269
 -84.9608
 -84.9913
 -82.2173
 -82.604
 -82.5947
 -82.3085
 -84.7886
 -84.8486
 -84.8359
 -84.8465
 -84.2771
 -84.3248
 -84.4044
 -84.3202
 -82.8032
 -82.7495
 -83.0003
 -82.5634
 -84.7747
 -84.8276
 -84.7956
 -84.818
 -79.2356
 -79.3822
 -79.4186
 -79.733
 -76.5427
 -76.1895
 -76.6353
 -76.4252
 -85.0446
 -85.0527
 -85.0884
 -85.1018
 -83.8782
 -83.9822
 -84.0785
 -60.8777
 -60.5608
 -61.383
 -85.1081
 -85.1294
 -85.1297
 -85.1341
 -85.1721
 -85.1674
 -85.1573
 -85.1516
 -83.7022
 -83.7678
 -83.856
 -83.8689
 -85.2038
 -85.2108
 -85.2128
 -85.2097
 -85.1874
 -85.1948
 -85.1911
 -85.2016
 -82.6717
 -82.8153
 -82.9805
 -82.7692
 -84.9362
 -84.9512
 -84.9742
 -84.9697
 -85.2666
 -85.2654
 -85.2661
 -85.2692
 -85.0207
 -85.0095
 -84.9949
 -85.0339
 -84.0193
 -83.9026
 -83.9459
 -83.7853
 -85.1098
 -85.1091
 -85.0962
 -85.0892
 -84.8743
 -84.8553
 -84.9018
 -84.4272
 -84.5115
 -64.9498
 -65.5858
 -64.6141
 -64.2476
 -84.3354
 -84.4509
 -84.3887
 -84.4211
 -67.8031
 -68.2293
 -68.4282
 -68.6163
 -66.8494
 -66.3136
 -68.2825
 -68.0332
 -84.0723
 -84.1761
 -84.1561
 -84.0668
 -82.2994
 -82.3253
 -82.043
 -82.3641
 -84.4929
 -84.5927
 -84.5581
 -84.561
 -83.9292
 -83.7864
 -75.399
 -75.0155
 -75.2023
 -75.7996
 -85.227
 -85.2324
 -85.2355
 -85.2348
 -82.4051
 -82.2826
 -82.7559
 -82.5217
 -85.0618
 -85.0447
 -85.0337
 -85.0578
 -75.3091
 -74.5432
 -75.2051
 -74.7222
 -85.1739
 -85.1868
 -85.1859
 -85.1848
 -84.3465
 -84.2632
 -84.3528
 -84.3812
 -79.8112
 -79.1188
 -78.5267
 -79.0363
 -85.2736
 -85.2733
 -85.2723
 -85.2709
 -81.5837
 -81.8953
 -81.6124
 -81.6144
 -82.4819
 -82.1767
 -82.4765
 -82.0781
 -85.2411
 -85.2427
 -85.236
 -85.2461
 -83.6738
 -83.3889
 -83.5295
 -83.5353
 -85.1408
 -85.1514
 -85.1401
 -85.1389
 -85.0954
 -85.0752
 -85.0813
 -82.9377
 -82.5698
 -82.6422
 -82.7534
 -85.114
 -85.1277
 -85.1154
 -85.1241
 -78.9392
 -79.413
 -79.3262
 -78.9649
 -85.176
 -85.1848
 -85.1832
 -85.1801
 -85.1632
 -85.1565
 -85.1633
 -85.1597
 -79.3039
 -79.1248
 -79.8886
 -79.4763
 -80.0464
 -79.9832
 -80.3678
 -79.7809
 -42.7637
 -42.9654
 -42.3622
 -42.5966
 -84.8999
 -84.8614
 -84.8575
 -66.9578
 -68.5957
 -69.0787
 -67.8452
 -85.2246
 -85.2126
 -85.2171
 -85.2163
 -78.6451
 -85.1145
 -85.0866
 -85.0823
 -85.0976
 -85.1218
 -85.0893
 -85.1047
 -50.8839
 -49.9628
 -50.4739
 -50.8561
 -48.3837
 -49.0252
 -48.485
 -48.1592
 -85.2017
 -85.1865
 -85.1958
 -85.206
 -79.9813
 -79.7987
 -80.1483
 -79.6845
 -84.8524
 -84.8415
 -84.882
 -81.8062
 -81.4999
 -81.7855
 -81.3816
 -82.9582
 -82.9607
 -82.9619
 -85.0793
 -85.0819
 -85.1018
 -84.5018
 -84.5808
 -84.5725
 -84.4996
 -81.9774
 -81.5551
 -81.619
 -81.9038
 -79.7851
 -79.9964
 -79.7308
 -79.9387
 -84.8767
 -84.9136
 -84.917
 -73.798
 -74.5352
 -72.7312
 -72.5888
 -79.3952
 -80.1828
 -79.3973
 -82.6109
 -83.0888
 -82.9003
 -82.8545
 -76.9743
 -77.6634
 -77.8229
 -77.5339
 -79.8019
 -80.2733
 -80.3955
 -80.228
 -85.0844
 -85.0631
 -85.066
 -85.0632
 -83.3628
 -83.1644
 -83.2328
 -83.4213
 -80.4692
 -80.6684
 -83.9244
 -83.8651
 -83.8798
 -83.7384
 -85.1457
 -85.2464
 -85.248
 -85.2479
 -85.2468
 -41.5355
 -41.3967
 -41.3754
 -41.5624
 -85.0438
 -85.0767
 -85.0594
 -85.2646
 -85.2649
 -85.2613
 -85.2637
 -85.0012
 -84.963
 -84.9928
 -84.9724
 -79.4571
 -79.5975
 -79.8677
 -79.5029
 -83.1296
 -82.9213
 -82.9438
 -82.6894
 -85.2671
 -85.268
 -85.268
 -85.266
 -84.888
 -84.8462
 -84.8281
 -84.8644
 -73.0345
 -71.9605
 -71.802
 -73.5871
 -82.7604
 -82.7049
 -82.7817
 -82.2741
 -82.5213
 -82.6636
 -82.7646
 -82.5073
 -41.6058
 -41.5193
 -41.4952
 -41.6608
 -78.8976
 -78.7967
 -78.6999
 -79.0472
 -84.9481
 -84.9937
 -84.9706
 -84.9795
 -84.503
 -84.4968
 -84.5869
 -84.4606
 -83.2683
 -83.3381
 -83.5519
 -83.4619
 -84.8786
 -84.9322
 -84.9245
 -84.9186
 -84.4042
 -84.4656
 -84.5092
 -84.4371
 -84.9001
 -84.887
 -84.8665
 -84.9407
 -85.2743
 -85.2693
 -85.2701
 -85.2747
 -85.0152
 -84.993
 -84.9828
 -84.9337
 -84.8335
 -84.7792
 -84.7793
 -84.8451
 -84.7906
 -84.0229
 -84.0043
 -83.9166
 -84.1619
 -85.2406
 -85.2393
 -85.2369
 -85.2353
 -83.3445
 -83.1579
 -83.3577
 -83.2852
 -84.465
 -84.5137
 -84.556
 -84.3948
 -83.7425
 -83.5313
 -83.6977
 -83.8578
 -81.6586
 -81.0484
 -81.5707
 -81.2056
 -57.6699
 -58.2967
 -60.4196
 -58.0426
 -85.2772
 -85.2722
 -84.7771
 -84.7323
 -84.7326
 -44.5081
 -44.603
 -44.6867
 -80.2581
 -79.8713
 -80.1121
 -79.6587
 -65.8088
 -66.4208
 -64.1306
 -63.8148
 -76.6301
 -76.1779
 -76.8537
 -75.4235
 -85.2208
 -85.2021
 -85.2137
 -85.2107
 -84.2098
 -84.0686
 -84.0973
 -84.0527
 -84.7895
 -84.8638
 -84.8406
 -84.8888
 -84.4758
 -84.5327
 -84.3907
 -84.4057
 -84.9588
 -84.9633
 -84.9369
 -84.939
 -83.5632
 -83.5206
 -85.1136
 -85.0552
 -85.1172
 -85.0689
 -84.909
 -84.8772
 -84.854
 -84.9132
 -80.1928
 -79.7068
 -80.269
 -79.8364
 -80.785
 -80.9427
 -80.9254
 -80.9515
 -84.4569
 -84.453
 -84.4221
 -84.5031
 -84.1244
 -84.1538
 -84.2465
 -84.3221
 -77.113
 -76.1073
 -75.9689
 -77.1048
 -84.8151
 -84.809
 -84.7947
 -84.7691
 -85.2639
 -85.26
 -85.2613
 -85.2621
 -85.1512
 -85.1401
 -85.1457
 -85.1407
 -85.2736
 -85.2757
 -85.2733
 -85.2763
 -85.1826
 -85.1929
 -85.1885
 -85.1908
 -84.0527
 -84.2145
 -84.0388
 -84.0693
 -84.8749
 -84.8293
 -83.6757
 -83.8772
 -83.6251
 -83.7821
 -80.5226
 -80.8207
 -80.8692
 -80.9836
 -85.0453
 -85.0637
 -85.0668
 -85.0378
 -83.59
 -83.4951
 -83.5988
 -83.3821
 -82.6316
 -82.4173
 -82.3452
 -82.4751
 -79.4188
 -79.5039
 -79.7812
 -80.0037
 -80.9173
 -80.6394
 -80.5736
 -81.22
 -79.0501
 -79.3204
 -79.6345
 -79.2447
 -60.6997
 -61.2104
 -60.3748
 -60.3666
 -84.9916
 -85.0047
 -84.9606
 -84.9943
 -84.7829
 -84.8125
 -62.0053
 -63.4616
 -63.2277
 -61.3254
 -81.7117
 -81.753
 -84.6855
 -84.6412
 -84.6878
 -85.1749
 -85.1711
 -78.7364
 -78.7003
 -78.4896
 -78.9645
 -62.5316
 -63.6929
 -63.6046
 -63.8603
 -76.5384
 -76.8133
 -77.3157
 -77.5575
 -81.5186
 -81.5954
 -81.7428
 -81.885
 -84.5527
 -84.4308
 -84.4333
 -84.4505
 -84.6689
 -84.6351
 -84.6356
 -84.6089
 -81.3364
 -81.7835
 -81.763
 -81.6669
 -84.5553
 -84.5343
 -84.5769
 -84.4391
 -83.7556
 -83.621
 -83.5974
 -83.6801
 -84.206
 -84.2899
 -84.3627
 -84.2576
 -84.2248
 -84.1048
 -84.2773
 -83.6519
 -83.5411
 -83.8185
 -83.7045
 -81.9543
 -82.0992
 -81.8502
 -81.7558
 -79.9918
 -80.3538
 -79.7904
 -80.2846
 -85.2273
 -85.2274
 -85.2312
 -85.2351
 -83.2907
 -83.2691
 -83.4637
 -83.4938
 -76.11
 -75.9344
 -75.294
 -75.8999
 -73.5516
 -73.1291
 -73.2154
 -72.6699
 -78.0659
 -77.8129
 -77.8177
 -77.9669
 -78.9825
 -78.9659
 -79.602
 -79.6615
 -80.1264
 -79.8305
 -79.691
 -79.8949
 -85.2339
 -85.2389
 -85.2365
 -85.2368
 -82.692
 -82.6833
 -82.6202
 -82.8775
 -84.9877
 -84.9926
 -84.9712
 -84.9606
 -79.8057
 -80.3799
 -79.5597
 -80.1673
 -85.2391
 -85.2446
 -85.2435
 -85.2515
 -85.2524
 -85.2527
 -85.2545
 -84.8624
 -84.752
 -84.8038
 -84.809
 -81.0094
 -81.1385
 -80.7217
 -81.0025
 -85.2633
 -85.2583
 -85.2605
 -82.504
 -82.2441
 -82.3257
 -81.9199
 -85.1847
 -85.1881
 -85.1619
 -85.1651
 -85.1832
 -85.1663
 -81.9282
 -81.6752
 -81.8051
 -72.468
 -72.8519
 -71.5245
 -72.1024
 -79.3144
 -78.7191
 -79.3132
 -79.4731
 -83.9373
 -84.0938
 -83.9332
 -85.2299
 -85.2148
 -85.2172
 -84.9165
 -84.8856
 -84.8535
 -84.8802
 -85.2347
 -85.2374
 -85.2228
 -85.2455
 -83.0311
 -83.2725
 -83.3841
 -83.1827
 -85.1374
 -85.1416
 -85.1525
 -85.1209
 -83.8938
 -83.9287
 -83.8018
 -83.7932
 -81.1924
 -80.8821
 -81.0816
 -85.2592
 -85.2516
 -85.2543
 -85.264
 -84.8256
 -84.5306
 -84.6288
 -84.6229
 -84.5652
 -84.5099
 -84.4999
 -84.4385
 -80.7182
 -80.5479
 -80.5295
 -80.4996
 -80.4862
 -80.9467
 -83.3561
 -83.0909
 -83.0151
 -82.9015
 -82.5761
 -82.8825
 -82.6062
 -82.7705
 -84.88
 -85.2685
 -85.2622
 -85.2596
 -85.2647
 -53.2395
 -51.8556
 -53.146
 -53.149
 -82.0822
 -81.7629
 -81.0705
 -80.9238
 -81.0624
 -81.1501
 -80.5446
 -80.5991
 -80.0599
 -80.2832
 -84.9585
 -84.9134
 -84.9323
 -84.9487
 -84.9991
 -85.0289
 -84.9858
 -85.0009
 -80.6589
 -80.3223
 -84.8042
 -84.7745
 -84.8504
 -84.8005
 -84.92
 -84.9546
 -84.9158
 -84.2731
 -84.2232
 -84.1555
 -84.0937
 -83.2587
 -83.027
 -83.1794
 -83.053
 -84.9791
 -85.0168
 -85.0116
 -84.9937
 -85.091
 -85.1079
 -85.1151
 -85.1056
 -84.9962
 -85.0338
 -84.9955
 -85.0114
 -85.0288
 -85.0087
 -84.9752
 -83.232
 -83.3098
 -83.2949
 -83.1356
 -69.9388
 -70.1636
 -70.7894
 -70.7906
 -82.417
 -82.3363
 -82.1908
 -82.2827
 -85.0664
 -85.0439
 -85.0289
 -85.0585
 -84.825
 -84.8232
 -84.807
 -84.874
 -82.3476
 -82.5435
 -82.619
 -82.6919
 -84.8398
 -84.7777
 -84.8044
 -84.8349
 -84.2858
 -84.3357
 -84.1032
 -84.2985
 -84.3808
 -84.4852
 -84.453
 -84.459
 -84.8158
 -84.831
 -84.8439
 -85.246
 -85.2465
 -85.244
 -85.2456
 -82.285
 -82.5686
 -82.4125
 -82.5186
 -83.855
 -84.0346
 -83.9958
 -83.9388
 -69.1927
 -68.1072
 -68.1197
 -69.4723
 -79.2184
 -79.6521
 -79.5838
 -79.2754
 -80.194
 -79.2096
 -79.5977
 -79.1144
 -79.34
 -79.5697
 -79.5153
 -79.6919
 -84.1887
 -84.1009
 -84.1399
 -77.4156
 -77.3309
 -77.5824
 -77.6352
 -77.7603
 -78.0665
 -78.6774
 -77.806
 -85.2547
 -85.252
 -85.2499
 -85.2507
 -84.3016
 -84.2137
 -84.2251
 -84.167
 -85.124
 -85.1303
 -85.1257
 -85.1003
 -84.5225
 -84.5713
 -84.5121
 -84.4361
 -84.8008
 -84.849
 -84.8145
 -84.8277
 -80.3704
 -79.9403
 -80.2296
 -79.5624
 -83.7084
 -84.0078
 -83.814
 -83.8037
 -85.0807
 -85.0894
 -85.0596
 -85.0653
 -84.6154
 -84.5918
 -84.6748
 -84.6389
 -77.955
 -77.7963
 -78.7397
 -78.7936
 -85.2396
 -85.2429
 -85.2416
 -85.2431
 -82.2622
 -81.9604
 -77.9638
 -83.7825
 -83.863
 -83.9202
 -83.7189
 -83.2372
 -83.3625
 -83.1272
 -83.1398
 -65.3965
 -65.1074
 -66.8821
 -81.7828
 -81.5134
 -81.4011
 -81.2081
 -84.5222
 -84.661
 -84.6183
 -84.6615
 -83.7977
 -83.9774
 -83.8633
 -83.8345
 -85.1962
 -85.2015
 -85.2019
 -85.1996
 -79.765
 -80.41
 -79.9568
 -80.0962
 -80.0616
 -79.9102
 -80.5711
 -65.8825
 -63.943
 -64.7639
 -66.0772
 -79.4507
 -79.9839
 -79.6871
 -84.3689
 -84.5622
 -84.3885
 -79.4454
 -79.4289
 -79.022
 -79.215
 -83.1642
 -83.3799
 -83.4568
 -83.373
 -41.6957
 -41.7068
 -41.6569
 -42.0018
 -83.0662
 -82.9416
 -83.0273
 -76.2574
 -76.2076
 -76.2888
 -76.3575
 -83.0788
 -82.9236
 -82.6668
 -82.9327
 -79.2259
 -79.681
 -79.6628
 -79.8057
 -84.7406
 -84.7598
 -84.717
 -84.778
 -84.9278
 -84.9102
 -84.9473
 -84.9481
 -85.2541
 -85.2537
 -85.2554
 -85.2521
 -84.3964
 -84.2383
 -84.372
 -84.4165
 -78.7575
 -78.349
 -78.7016
 -78.4582
 -80.4385
 -80.2362
 -73.1237
 -73.0072
 -73.5429
 -73.4431
 -83.597
 -83.6808
 -81.7388
 -82.195
 -82.1223
 -80.417
 -80.6365
 -80.852
 -80.5393
 -85.2082
 -85.207
 -85.1933
 -85.1964
 -85.1975
 -85.1919
 -85.1845
 -85.1948
 -80.5066
 -80.7732
 -80.5337
 -79.9806
 -77.6095
 -77.7246
 -84.5536
 -84.5536
 -84.5305
 -84.6177
 -80.2337
 -79.9113
 -80.4388
 -80.3041
 -82.1735
 -81.77
 -82.5232
 -85.2703
 -85.2717
 -85.269
 -83.9102
 -84.0873
 -83.9763
 -84.0198
 -85.1459
 -85.1655
 -85.1419
 -85.1369
 -84.0848
 -84.2019
 -84.2142
 -84.1074
 -84.9613
 -84.9966
 -85.0062
 -84.9439
 -78.6779
 -79.0752
 -78.7615
 -78.5858
 -79.2656
 -79.9079
 -79.0526
 -79.757
 -84.1971
 -84.0651
 -84.2562
 -84.1181
 -81.8714
 -82.2673
 -82.3826
 -81.819
 -77.7748
 -78.0093
 -78.2774
 -78.8954
 -83.1608
 -83.3418
 -83.422
 -83.5172
 -84.6025
 -84.6301
 -84.5821
 -84.1427
 -84.2517
 -84.1848
 -84.2626
 -46.1194
 -47.3868
 -47.6558
 -46.9468
 -77.7714
 -77.7606
 -77.8303
 -77.7972
 -81.7878
 -81.6436
 -81.7871
 -82.1047
 -61.5135
 -62.5654
 -60.5053
 -61.9863
 -85.1175
 -85.1059
 -85.1
 -85.2565
 -85.255
 -85.2525
 -85.2548
 -85.0139
 -85.0685
 -85.0444
 -85.0452
 -84.1052
 -84.6968
 -84.741
 -84.7878
 -84.7455
 -83.7715
 -83.8879
 -83.6655
 -83.7029
 -75.1745
 -73.911
 -74.7033
 -79.7876
 -80.0004
 -80.0921
 -79.3372
 -47.1578
 -46.0131
 -47.0423
 -45.4206
 -65.0231
 -64.901
 -65.8029
 -64.4758
 -81.367
 -81.3695
 -81.6173
 -81.8549
 -85.2633
 -85.2557
 -85.2581
 -85.2549
 -49.9338
 -49.6018
 -50.9712
 -50.253
 -84.9065
 -84.9303
 -84.8712
 -84.904
 -84.244
 -84.2506
 -84.3673
 -84.2636
 -80.4562
 -79.577
 -79.4621
 -83.2863
 -83.0674
 -82.9396
 -82.9289
 -85.2631
 -85.2621
 -85.2645
 -76.0201
 -77.3228
 -77.5534
 -83.3635
 -83.5247
 -83.7328
 -83.6959
 -81.6176
 -81.5395
 -81.4802
 -81.328
 -82.1006
 -82.0352
 -82.3832
 -82.4841
 -75.4148
 -74.8874
 -74.7969
 -75.8424
 -83.396
 -83.5343
 -83.3224
 -83.604
 -85.2068
 -85.1836
 -85.1871
 -85.1772
 -85.1947
 -85.1866
 -85.1775
 -85.1981
 -74.3172
 -74.155
 -74.6865
 -73.9954
 -85.1144
 -85.1119
 -85.1068
 -85.0938
 -85.1984
 -85.2084
 -85.2027
 -85.1913
 -85.0686
 -85.0761
 -85.0434
 -85.0512
 -84.7642
 -84.73
 -84.7855
 -84.756
 -83.9121
 -83.7943
 -84.0065
 -81.4002
 -80.7763
 -81.0756
 -81.0555
 -84.9725
 -84.9456
 -84.9017
 -84.936
 -85.0601
 -85.0582
 -85.0791
 -85.0704
 -85.2778
 -85.277
 -85.2741
 -85.2752
 -65.894
 -66.8428
 -66.4863
 -66.6682
 -73.4297
 -73.1077
 -73.2127
 -73.64
 -75.5676
 -75.61
 -76.7992
 -75.5599
 -81.4762
 -81.0076
 -81.3646
 -81.3885
 -82.5567
 -82.6073
 -82.5943
 -85.209
 -85.2187
 -85.2284
 -85.2234
 -85.086
 -85.0825
 -85.0731
 -85.0551
 -83.763
 -83.6228
 -83.5771
 -83.7086
 -85.2026
 -85.2123
 -84.5494
 -84.5694
 -84.5676
 -84.4724
 -85.2107
 -85.2165
 -85.2226
 -85.2123
 -84.3457
 -84.4758
 -84.307
 -84.4973
 -81.2064
 -81.624
 -80.9683
 -81.3852
 -71.4743
 -70.2926
 -71.2943
 -72.2228
 -45.9005
 -46.7797
 -45.3034
 -46.4249
 -85.1639
 -85.1543
 -85.1508
 -85.1664
 -85.1534
 -85.1521
 -85.1574
 -85.1665
 -82.967
 -82.598
 -82.8947
 -82.7533
 -84.1345
 -84.0613
 -84.0406
 -84.1585
 -79.7363
 -79.295
 -80.0195
 -84.4639
 -84.4125
 -84.4111
 -84.3355
 -80.0999
 -79.9847
 -80.2412
 -80.3571
 -83.9411
 -83.755
 -83.6201
 -83.7265
 -84.7981
 -84.7612
 -84.7917
 -84.7988
 -84.1775
 -84.1236
 -84.1133
 -85.0797
 -85.0491
 -85.0669
 -85.0683
 -84.598
 -84.6895
 -59.0893
 -60.8173
 -58.3952
 -59.4664
 -85.019
 -85.0042
 -85.0219
 -80.4286
 -80.5363
 -80.6406
 -80.3167
 -84.739
 -84.7513
 -84.7182
 -83.5982
 -83.438
 -83.6757
 -83.4817
 -84.6012
 -84.4785
 -84.6301
 -84.5707
 -84.5744
 -84.6694
 -52.6527
 -52.686
 -51.9819
 -52.3836
 -46.7636
 -45.8152
 -45.1169
 -46.1769
 -83.9074
 -83.6945
 -83.7659
 -83.6745
 -84.6117
 -84.5573
 -84.5919
 -84.5085
 -52.79
 -52.7625
 -52.7089
 -53.8347
 -80.3827
 -79.8817
 -74.3128
 -74.6642
 -74.7341
 -75.3915
 -84.6513
 -84.6498
 -84.7425
 -84.6899
 -84.519
 -84.5174
 -84.602
 -84.4719
 -84.5497
 -84.4729
 -84.4649
 -84.4563
 -81.8081
 -81.9104
 -82.088
 -81.799
 -78.1935
 -77.5796
 -77.1088
 -78.2301
 -65.9499
 -67.5427
 -67.2756
 -65.7854
 -79.0213
 -79.0938
 -79.0965
 -79.8765
 -85.0013
 -84.9875
 -85.0246
 -85.0171
 -83.9186
 -83.5189
 -83.7538
 -64.0071
 -64.9392
 -66.0903
 -84.8248
 -84.8877
 -84.8678
 -84.8699
 -84.8568
 -84.7918
 -84.8146
 -84.8527
 -82.8496
 -82.6758
 -82.574
 -83.4454
 -83.5477
 -83.706
 -83.5019
 -78.9035
 -78.6209
 -78.5437
 -78.5749
 -85.1432
 -85.137
 -85.1513
 -85.1497
 -78.2577
 -78.1715
 -78.1864
 -78.3228
 -76.4585
 -76.0933
 -76.5026
 -85.232
 -85.2458
 -85.2503
 -85.2424
 -85.0443
 -85.0651
 -81.2117
 -80.9706
 -81.3781
 -81.3556
 -83.8075
 -83.9883
 -83.8615
 -83.3562
 -83.2739
 -83.3191
 -83.053
 -77.4685
 -78.1828
 -77.7472
 -85.111
 -85.1256
 -85.0957
 -85.099
 -77.3065
 -78.3513
 -77.5956
 -77.3424
 -84.9416
 -84.909
 -84.8706
 -84.8737
 -78.3943
 -78.5795
 -78.4128
 -77.7285
 -78.1904
 -77.9872
 -80.7661
 -80.4769
 -80.6325
 -80.7269
 -66.0466
 -65.2038
 -63.7897
 -65.3679
 -85.019
 -85.048
 -82.2447
 -82.4286
 -82.4965
 -82.461
 -85.2486
 -85.2467
 -85.2486
 -85.2512
 -81.5584
 -81.156
 -81.562
 -81.9715
 -85.0597
 -85.0866
 -85.0905
 -85.0837
 -85.188
 -85.2018
 -85.1825
 -85.1939
 -84.913
 -84.8525
 -85.241
 -85.247
 -85.2446
 -85.2415
 -77.6628
 -77.7354
 -77.2889
 -78.1535
 -85.2472
 -85.2478
 -85.2478
 -85.2468
 -85.2565
 -85.2634
 -85.2582
 -85.2553
 -84.3008
 -84.2947
 -84.4052
 -84.3695
 -83.3254
 -83.1847
 -83.4506
 -83.5702
 -85.1521
 -85.1352
 -85.1504
 -85.1512
 -60.9899
 -62.4942
 -61.1358
 -60.8423
 -85.1389
 -85.156
 -82.0597
 -82.308
 -82.3762
 -82.6908
 -85.1666
 -85.1524
 -85.1427
 -85.1433
 -79.0341
 -79.5172
 -79.4422
 -79.3743
 -82.2499
 -81.7076
 -81.9301
 -82.1861
 -78.4353
 -78.338
 -79.1772
 -78.7971
 -78.5468
 -78.8344
 -78.4221
 -77.4783
 -77.903
 -77.707
 -77.933
 -84.5241
 -84.4452
 -84.407
 -85.1332
 -85.1322
 -85.1538
 -85.1517
 -84.3234
 -84.2565
 -84.1588
 -78.9957
 -78.6494
 -78.9594
 -83.6808
 -83.878
 -83.6889
 -83.8556
 -84.6965
 -84.6965
 -84.6812
 -84.764
 -83.0025
 -83.2308
 -83.2685
 -83.2042
 -83.1111
 -83.0289
 -82.9077
 -82.4096
 -82.1802
 -82.0611
 -82.3852
 -82.6751
 -82.7872
 -82.3018
 -85.141
 -85.1442
 -85.1457
 -85.1264
 -84.7291
 -84.6903
 -84.7408
 -84.7515
 -83.6488
 -83.6028
 -83.4869
 -83.7938
 -76.077
 -75.3659
 -76.1896
 -84.3513
 -84.2718
 -84.3276
 -84.3718
 -80.5834
 -79.9395
 -80.3607
 -79.9663
 -55.5272
 -56.31
 -55.4468
 -55.0426
 -82.7115
 -82.545
 -82.6807
 -82.6508
 -85.1576
 -85.1522
 -85.174
 -85.1675
 -82.2816
 -82.5492
 -82.3585
 -82.1847
 -78.1756
 -78.1899
 -78.3014
 -78.4842
 -78.3315
 -77.9332
 -78.0057
 -83.1503
 -83.1909
 -83.0351
 -84.7307
 -82.2493
 -81.5923
 -82.0002
 -81.9633
 -85.1996
 -85.1988
 -85.2044
 -85.1829
 -85.1854
 -85.191
 -81.9579
 -82.2491
 -82.0154
 -82.1945
 -85.2395
 -85.245
 -85.2485
 -85.2469
 -79.3521
 -84.5447
 -84.4452
 -84.5165
 -84.4849
 -78.7826
 -79.0084
 -78.9329
 -79.0086
 -85.1841
 -85.1966
 -85.1826
 -85.1873
 -84.6967
 -84.7728
 -84.7643
 -84.7081
 -85.0336
 -85.0546
 -85.0063
 -85.0251
 -77.5177
 -77.7212
 -77.8394
 -77.5317
 -81.3347
 -81.6401
 -81.3079
 -81.399
 -84.4342
 -84.3491
 -84.4135
 -84.2938
 -81.1792
 -80.6781
 -81.2816
 -80.8646
 -84.6628
 -84.7021
 -84.7615
 -84.7489
 -79.4141
 -79.3026
 -79.7973
 -79.707
 -80.8012
 -80.8186
 -81.2315
 -81.137
 -84.4632
 -84.4775
 -84.4899
 -84.5577
 -85.1621
 -85.1725
 -85.1669
 -85.1801
 -74.0079
 -74.7328
 -75.0777
 -75.2555
 -65.8069
 -63.7434
 -65.8474
 -65.4405
 -85.2065
 -85.2203
 -85.2126
 -85.2075
 -68.8635
 -67.608
 -67.3473
 -66.4453
 -65.8464
 -67.2853
 -83.8796
 -83.9018
 -83.7687
 -83.7245
 -81.1055
 -81.3627
 -81.3448
 -81.0322
 -85.2772
 -85.276
 -85.277
 -85.2748
 -85.1892
 -85.1867
 -85.1997
 -84.6496
 -84.6405
 -84.7152
 -84.6438
 -78.852
 -78.9608
 -78.48
 -79.1224
 -80.8542
 -80.7634
 -80.6657
 -80.5977
 -80.8985
 -81.083
 -84.6975
 -84.8102
 -84.7733
 -84.7275
 -84.575
 -84.5597
 -84.4776
 -84.5902
 -84.7666
 -84.7382
 -84.7053
 -84.7591
 -85.2545
 -85.2532
 -85.2452
 -85.258
 -84.9193
 -84.9012
 -84.8698
 -82.5681
 -84.0591
 -83.9769
 -83.9972
 -83.8995
 -84.1803
 -84.0003
 -84.0688
 -84.2064
 -85.1335
 -85.1332
 -85.1256
 -85.1167
 -84.9342
 -84.8985
 -84.9141
 -84.9381
 -84.6247
 -84.5533
 -84.5314
 -81.7357
 -81.231
 -81.6729
 -81.179
 -83.9946
 -84.1814
 -84.1051
 -84.0561
 -82.5535
 -82.7766
 -82.4105
 -49.5068
 -49.3721
 -48.6095
 -49.9086
 -85.1296
 -85.1647
 -85.1494
 -85.0969
 -85.0592
 -85.1019
 -85.0786
 -51.496
 -84.2656
 -84.2619
 -84.2433
 -84.3652
 -84.6132
 -84.6203
 -72.4927
 -72.5145
 -72.3335
 -72.8055
 -75.7489
 -76.0462
 -77.1228
 -75.832
 -79.6899
 -79.9944
 -79.5895
 -80.3015
 -79.8508
 -80.1243
 -80.2323
 -79.7625
 -79.7273
 -80.0408
 -82.3015
 -81.919
 -81.784
 -81.9209
 -82.7419
 -83.0693
 -85.2726
 -85.2705
 -77.6739
 -78.6585
 -77.4744
 -78.1581
 -83.3074
 -83.2271
 -83.4635
 -83.1663
 -73.0924
 -73.6392
 -71.9021
 -72.1234
 -85.161
 -85.1706
 -85.1507
 -85.1598
 -85.0216
 -84.9946
 -85.016
 -84.9918
 -84.6443
 -84.7137
 -84.7154
 -84.6686
 -84.4471
 -84.4844
 -84.6127
 -84.5774
 -83.8912
 -83.8354
 -77.7476
 -84.8937
 -84.93
 -84.9386
 -84.9364
 -85.2321
 -85.2261
 -85.238
 -85.2255
 -85.0785
 -85.0983
 -85.0659
 -85.0797
 -41.7416
 -41.6802
 -41.8186
 -42.0322
 -85.2494
 -85.2522
 -85.2514
 -85.2515
 -80.2031
 -80.1629
 -79.7263
 -80.3964
 -82.0095
 -81.5483
 -81.7407
 -81.4052
 -84.8862
 -84.8927
 -84.9119
 -84.9297
 -84.9209
 -84.8979
 -84.8782
 -84.8932
 -78.694
 -79.3464
 -78.9693
 -79.2203
 -85.2519
 -85.2531
 -85.2508
 -85.2523
 -85.1737
 -85.1777
 -85.1762
 -85.1833
 -84.8451
 -84.8474
 -84.8839
 -84.8919
 -85.1457
 -85.1276
 -85.1453
 -85.1415
 -80.68
 -81.1928
 -81.2139
 -81.2875
 -78.8772
 -78.9304
 -79.1556
 -79.1791
 -85.1394
 -85.1331
 -85.1213
 -85.1261
 -83.2335
 -83.0576
 -83.086
 -82.8326
 -83.2277
 -83.1185
 -83.0569
 -83.1944
 -47.5398
 -48.4774
 -48.4711
 -48.5834
 -85.2412
 -85.2442
 -85.1808
 -85.1788
 -85.1736
 -85.1885
 -74.3971
 -73.7614
 -73.4637
 -74.5152
 -81.4233
 -80.8045
 -80.7653
 -80.5892
 -85.1752
 -85.1655
 -85.1871
 -85.1851
 -83.1021
 -83.1721
 -83.0237
 -83.3061
 -82.0766
 -82.1762
 -81.8092
 -81.8418
 -85.2488
 -85.2522
 -85.2482
 -85.2507
 -84.2873
 -84.2364
 -84.2785
 -84.3286
 -83.9285
 -83.9737
 -83.9467
 -83.8175
 -85.0656
 -85.0744
 -85.0816
 -85.0547
 -84.7167
 -84.6712
 -84.6635
 -84.617
 -82.9531
 -82.9384
 -82.6289
 -81.4582
 -81.811
 -81.6083
 -82.1812
 -68.9329
 -67.8487
 -68.1707
 -69.9929
 -81.8062
 -81.9841
 -82.0534
 -82.1041
 -84.188
 -84.1018
 -84.1481
 -84.0675
 -85.2231
 -85.2276
 -85.228
 -85.2171
 -82.179
 -82.6761
 -82.4335
 -82.3304
 -74.2402
 -74.1092
 -73.2373
 -72.4205
 -84.8068
 -84.8777
 -84.8503
 -84.8217
 -84.541
 -84.4967
 -84.4583
 -84.0961
 -84.2395
 -84.3094
 -84.3365
 -66.4539
 -66.0951
 -66.2686
 -67.3946
 -84.3077
 -84.2163
 -84.2326
 -84.1985
 -85.2499
 -85.2492
 -85.2501
 -85.25
 -84.1876
 -84.111
 -84.2221
 -84.1794
 -76.9732
 -76.5789
 -76.9103
 -77.0297
 -79.5658
 -79.9504
 -79.5907
 -79.1279
 -85.2706
 -85.268
 -85.2702
 -85.2691
 -80.6811
 -80.8354
 -80.75
 -79.956
 -84.5708
 -84.4613
 -84.4775
 -84.5384
 -85.2736
 -85.2756
 -85.2732
 -85.2704
 -85.1944
 -85.213
 -85.201
 -84.8342
 -84.8497
 -84.8925
 -84.91
 -85.1237
 -85.1383
 -85.151
 -85.1181
 -56.4217
 -57.5199
 -58.3168
 -57.9283
 -78.6422
 -79.2812
 -78.095
 -85.205
 -85.2119
 -85.2093
 -85.2153
 -84.5627
 -84.5204
 -84.6119
 -84.4834
 -84.9839
 -84.9817
 -85.02
 -84.95
 -74.7053
 -74.5413
 -73.7056
 -73.4982
 -83.027
 -83.3641
 -83.0092
 -83.2348
 -84.6576
 -84.5242
 -84.5966
 -73.8919
 -74.1121
 -74.4304
 -74.4187
 -79.2707
 -77.3343
 -77.6976
 -77.4769
 -82.4235
 -85.2098
 -85.2192
 -85.2087
 -85.2166
 -58.0321
 -57.8321
 -56.6518
 -56.8486
 -85.0409
 -85.0901
 -85.0679
 -85.097
 -84.62
 -84.563
 -84.5443
 -84.4607
 -50.3395
 -85.0965
 -85.0831
 -85.11
 -85.2127
 -85.2252
 -85.2144
 -85.2167
 -83.6481
 -83.5905
 -83.9092
 -83.7148
 -84.8478
 -84.8481
 -84.8897
 -84.8186
 -80.1126
 -79.6814
 -83.9276
 -83.8522
 -83.8135
 -83.9692
 -79.9943
 -79.6278
 -79.276
 -79.6519
 -81.4316
 -81.3076
 -81.8168
 -81.8561
 -84.9273
 -84.8895
 -84.924
 -84.9251
 -61.9654
 -61.6843
 -61.53
 -63.3329
 -78.9758
 -78.7441
 -78.948
 -78.6431
 -65.4445
 -66.285
 -76.8576
 -76.9637
 -76.9855
 -76.8649
 -75.2168
 -74.5208
 -75.423
 -74.717
 -85.2472
 -85.2428
 -85.2362
 -85.2357
 -84.4557
 -84.4246
 -84.3833
 -84.514
 -82.7346
 -83.1492
 -82.8962
 -82.9336
 -83.9217
 -83.8485
 -83.803
 -83.9487
 -85.2187
 -85.2161
 -73.7115
 -73.3609
 -73.4473
 -73.7042
 -85.2207
 -85.22
 -85.2128
 -59.6036
 -59.5108
 -59.5066
 -58.9358
 -85.1892
 -85.1651
 -85.1827
 -85.1774
 -81.5033
 -81.2329
 -81.6252
 -81.1593
 -83.4859
 -83.43
 -83.3779
 -85.1947
 -85.1857
 -85.1921
 -85.197
 -84.4539
 -84.3404
 -84.4426
 -84.3896
 -83.4306
 -83.5664
 -83.6509
 -83.5174
 -81.5576
 -81.4086
 -82.6409
 -82.0496
 -82.4019
 -82.2848
 -84.6248
 -84.5232
 -84.5853
 -85.2343
 -85.2272
 -85.2246
 -85.2374
 -83.4116
 -83.5316
 -83.3807
 -83.4789
 -82.8937
 -82.702
 -81.1409
 -80.784
 -80.6276
 -81.1442
 -63.9445
 -64.2197
 -65.7903
 -84.5297
 -84.5497
 -84.4165
 -84.4196
 -85.2431
 -85.2455
 -85.2438
 -65.0091
 -64.8179
 -65.0744
 -83.042
 -82.9171
 -83.0145
 -82.7827
 -84.774
 -84.7912
 -84.7244
 -84.7478
 -56.1369
 -55.4219
 -55.7937
 -56.2923
 -85.1619
 -85.168
 -85.1615
 -85.1576
 -84.8078
 -84.7914
 -84.7927
 -84.7452
 -85.046
 -85.0509
 -85.0354
 -85.1972
 -85.2024
 -85.2101
 -85.2001
 -84.0302
 -83.8207
 -83.9978
 -84.0522
 -85.2325
 -85.2273
 -85.2286
 -85.2237
 -81.8941
 -81.8559
 -82.0703
 -81.6498
 -85.2332
 -84.7484
 -83.8456
 -83.8089
 -83.9484
 -83.76
 -84.5894
 -84.5484
 -84.5172
 -84.4877
 -84.9676
 -84.9687
 -84.9417
 -84.9255
 -84.672
 -84.6572
 -84.7228
 -84.6857
 -84.9634
 -84.9384
 -84.9591
 -84.9611
 -83.8499
 -83.7409
 -83.7525
 -83.9141
 -83.4804
 -83.4889
 -83.5408
 -83.6358
 -82.8515
 -82.7397
 -82.669
 -82.9532
 -83.4875
 -83.4664
 -83.3024
 -78.3111
 -78.3885
 -78.3283
 -78.6924
 -84.0737
 -84.7843
 -84.8326
 -84.8441
 -84.8453
 -85.2285
 -85.2292
 -85.2156
 -80.9906
 -80.2868
 -80.4639
 -80.2896
 -84.2174
 -84.3568
 -84.2991
 -84.6217
 -84.5611
 -84.561
 -84.5002
 -84.7977
 -84.8372
 -84.8717
 -84.8948
 -85.1802
 -85.1868
 -85.1989
 -85.1856
 -79.8565
 -79.7883
 -80.0684
 -79.3908
 -84.1231
 -84.0557
 -84.0845
 -83.9528
 -83.6603
 -83.624
 -83.4493
 -83.7245
 -83.5152
 -83.4427
 -83.366
 -83.2304
 -83.9407
 -83.908
 -84.0025
 -83.8109
 -84.913
 -84.8507
 -84.934
 -84.8765
 -83.4371
 -83.1283
 -83.2478
 -83.337
 -73.4813
 -73.5101
 -73.4593
 -73.7095
 -68.1617
 -68.8178
 -68.3452
 -83.9065
 -83.9452
 -84.0485
 -84.1091
 -83.9966
 -83.9529
 -84.0683
 -84.1527
 -83.4584
 -83.2899
 -83.5963
 -83.5487
 -85.205
 -85.2087
 -85.1919
 -85.1923
 -84.9817
 -84.9534
 -84.9353
 -84.9632
 -80.8967
 -81.1808
 -81.0774
 -81.1897
 -76.0361
 -77.212
 -76.8981
 -75.4752
 -85.1831
 -85.1754
 -85.1665
 -85.1824
 -59.2734
 -57.7255
 -58.0648
 -59.793
 -82.0071
 -82.3029
 -82.1383
 -82.1055
 -75.3586
 -75.7026
 -75.6236
 -79.3066
 -79.555
 -79.6779
 -80.1623
 -84.8986
 -84.8971
 -84.9333
 -84.8483
 -78.5876
 -78.0379
 -78.0536
 -78.5642
 -68.4351
 -71.2851
 -69.4415
 -56.0836
 -57.3504
 -57.9875
 -57.1057
 -85.2592
 -85.2618
 -85.2603
 -85.2664
 -80.6094
 -80.2888
 -80.5118
 -80.7348
 -84.4278
 -84.2913
 -84.3347
 -84.379
 -85.1957
 -85.1954
 -85.1829
 -85.1942
 -85.1007
 -85.116
 -85.0929
 -85.0951
 -80.8529
 -81.0299
 -80.6799
 -80.8506
 -72.5843
 -71.2441
 -69.9393
 -71.5452
 -84.3994
 -84.4547
 -84.3332
 -84.3891
 -74.0589
 -75.0199
 -82.9274
 -82.4524
 -82.5924
 -82.8094
 -83.0014
 -82.9835
 -82.8337
 -83.0781
 -82.5578
 -82.5799
 -82.433
 -77.1945
 -77.4534
 -77.2152
 -84.4249
 -84.4322
 -84.4795
 -84.4932
 -84.3893
 -84.3681
 -84.3224
 -84.4695
 -80.8458
 -81.2495
 -81.0158
 -80.9158
 -84.9927
 -85.0113
 -84.9766
 -84.9804
 -83.8085
 -83.5733
 -83.693
 -83.8465
 -78.0729
 -78.0637
 -77.9937
 -78.0491
 -82.6287
 -82.9399
 -82.6848
 -84.5326
 -84.514
 -84.4462
 -84.4844
 -84.0632
 -84.1727
 -84.2099
 -85.2519
 -85.2534
 -85.2493
 -85.2481
 -66.4664
 -65.5569
 -66.7059
 -64.4779
 -82.1168
 -82.372
 -82.3981
 -82.1538
 -81.4885
 -81.4173
 -81.1133
 -81.5421
 -85.2524
 -85.2521
 -85.2616
 -85.2658
 -85.0911
 -85.1037
 -85.0984
 -79.2224
 -79.3507
 -78.8541
 -79.4031
 -84.9982
 -84.971
 -84.9804
 -80.6242
 -80.7214
 -80.387
 -80.4818
 -45.362
 -45.8993
 -45.6889
 -46.172
 -85.2091
 -85.2116
 -85.2214
 -85.205
 -77.3376
 -77.1164
 -76.8102
 -76.3327
 -85.2538
 -85.2542
 -85.2526
 -85.2527
 -78.8533
 -79.3987
 -78.9231
 -79.2915
 -46.5149
 -45.2302
 -46.0808
 -46.2919
 -70.4123
 -69.5545
 -70.5134
 -70.6753
 -77.7597
 -78.1273
 -78.5546
 -77.6474
 -83.6008
 -83.404
 -75.6252
 -75.9874
 -74.2956
 -74.472
 -84.6365
 -84.5827
 -84.5647
 -84.5041
 -83.5144
 -83.5048
 -83.4903
 -83.7368
 -85.1972
 -85.1833
 -85.2023
 -85.2051
 -85.1488
 -85.1471
 -85.1666
 -85.1569
 -85.1121
 -85.08
 -85.1059
 -85.0936
 -85.193
 -85.1942
 -85.1998
 -85.188
 -84.7526
 -84.7612
 -84.7971
 -84.7672
 -85.1257
 -85.143
 -85.1398
 -85.1371
 -67.8821
 -65.8941
 -65.7846
 -67.8945
 -85.139
 -85.1501
 -85.1521
 -85.1493
 -82.8055
 -82.5663
 -82.339
 -82.4548
 -85.049
 -85.0024
 -85.0058
 -85.1646
 -85.1742
 -85.1801
 -85.1764
 -77.3339
 -76.5085
 -76.4851
 -76.8682
 -71.5349
 -71.307
 -70.8405
 -71.0088
 -84.8639
 -84.8623
 -84.8427
 -84.9132
 -82.6741
 -82.694
 -82.6918
 -82.4123
 -84.8275
 -84.8106
 -84.824
 -84.7966
 -84.7903
 -84.7846
 -84.8832
 -82.2763
 -82.195
 -81.9512
 -84.7534
 -84.8006
 -84.2433
 -84.09
 -85.2278
 -85.2338
 -85.235
 -85.228
 -83.9932
 -84.0112
 -83.9156
 -84.0757
 -84.7072
 -84.7183
 -84.7872
 -84.7074
 -84.5663
 -84.6013
 -84.5539
 -84.6224
 -85.1323
 -85.0258
 -85.0267
 -85.0056
 -84.9984
 -83.2522
 -83.3559
 -83.1208
 -83.1306
 -76.1625
 -76.1635
 -76.1425
 -76.1269
 -84.6885
 -84.6436
 -84.7116
 -84.6815
 -84.8557
 -84.8537
 -84.8189
 -84.8904
 -49.145
 -50.0297
 -50.3867
 -50.9576
 -83.8372
 -83.9807
 -83.9109
 -83.7816
 -83.5458
 -83.3906
 -83.3034
 -83.4412
 -84.7309
 -84.6888
 -78.5396
 -78.6236
 -78.8062
 -78.5643
 -81.8413
 -82.0203
 -81.9866
 -81.8128
 -79.288
 -79.0616
 -78.963
 -79.0064
 -81.0778
 -81.3252
 -81.2941
 -81.0058
 -78.7384
 -78.6802
 -78.4273
 -78.7663
 -85.113
 -85.0955
 -85.0944
 -85.1109
 -85.1341
 -85.1221
 -85.1065
 -85.1191
 -80.7078
 -80.474
 -80.2179
 -80.6365
 -83.923
 -83.8255
 -83.9294
 -83.8097
 -85.1155
 -85.098
 -85.1185
 -85.109
 -83.3108
 -83.1159
 -83.1123
 -83.4324
 -80.487
 -80.8693
 -73.7755
 -74.1908
 -74.3593
 -73.5975
 -83.7486
 -83.6904
 -83.4949
 -83.4336
 -85.0984
 -85.0862
 -85.0862
 -85.1193
 -85.241
 -85.2342
 -85.2365
 -85.2414
 -51.7863
 -51.5582
 -82.5638
 -82.8809
 -82.8435
 -83.0677
 -82.075
 -81.6042
 -81.9078
 -81.9383
 -81.9199
 -81.9021
 -79.3678
 -79.5099
 -79.5738
 -79.6043
 -83.5482
 -83.6881
 -83.8016
 -67.5923
 -68.5224
 -68.5723
 -69.3203
 -85.1615
 -85.1737
 -85.1454
 -85.1635
 -85.2457
 -85.2449
 -85.2421
 -85.2563
 -85.2542
 -85.2452
 -85.2516
 -84.4792
 -84.5857
 -84.5826
 -84.5684
 -83.8414
 -84.0501
 -83.7977
 -83.9746
 -84.9977
 -85.0414
 -85.0493
 -85.034
 -84.6335
 -84.592
 -84.6676
 -84.6083
 -84.5551
 -84.6102
 -84.5585
 -84.1918
 -84.208
 -84.1369
 -84.3046
 -84.9377
 -85.0146
 -84.9877
 -84.9451
 -83.2206
 -83.0085
 -83.1438
 -83.1912
 -83.9771
 -83.9221
 -84.1264
 -83.9258
 -84.8339
 -84.8189
 -84.7857
 -84.827
 -83.9069
 -83.8326
 -83.7903
 -83.9468
 -46.8988
 -46.5531
 -47.9103
 -47.7942
 -80.0403
 -79.855
 -79.7719
 -79.522
 -84.9362
 -84.9235
 -84.9789
 -84.985
 -78.5584
 -78.5419
 -77.5442
 -77.3356
 -76.6508
 -75.5765
 -76.6956
 -77.3626
 -85.1045
 -85.0947
 -85.103
 -85.0795
 -85.0346
 -85.0005
 -85.0361
 -85.0223
 -85.1605
 -85.1449
 -85.153
 -85.1662
 -84.9087
 -84.9146
 -84.9529
 -84.9269
 -82.682
 -82.5277
 -82.3942
 -82.5086
 -80.3544
 -80.1758
 -80.5459
 -80.0602
 -84.8349
 -84.7481
 -84.8483
 -84.7737
 -80.4848
 -80.6443
 -80.6731
 -80.6642
 -74.9249
 -75.1295
 -75.3902
 -75.6406
 -83.7909
 -83.9295
 -83.8049
 -83.9153
 -82.0736
 -81.8435
 -81.6122
 -82.3389
 -82.5164
 -82.8882
 -82.6427
 -74.3343
 -73.7134
 -72.9157
 -73.7341
 -80.6281
 -80.5506
 -80.4301
 -80.435
 -84.9251
 -84.9505
 -84.9278
 -84.933
 -84.1188
 -84.2298
 -84.2642
 -85.2681
 -85.2634
 -85.2649
 -85.2664
 -85.1922
 -85.1996
 -85.2084
 -85.1947
 -81.9104
 -82.2006
 -81.7429
 -82.1671
 -84.1515
 -84.2498
 -74.8486
 -74.729
 -73.5814
 -75.2619
 -84.0863
 -83.9099
 -83.8856
 -84.0352
 -85.1302
 -85.1367
 -85.1209
 -85.1383
 -80.1061
 -80.2256
 -80.3101
 -82.9722
 -83.0852
 -83.0926
 -82.7407
 -81.9649
 -82.3283
 -82.3747
 -82.3409
 -83.7588
 -83.9052
 -83.9457
 -83.7709
 -83.1544
 -83.2898
 -83.4385
 -83.2727
 -83.87
 -83.9
 -83.7756
 -83.9934
 -83.0139
 -83.1769
 -85.0368
 -85.005
 -85.0438
 -85.0256
 -83.1009
 -82.9121
 -82.9779
 -83.1247
 -84.5455
 -84.4383
 -84.5132
 -83.0817
 -83.2869
 -83.1163
 -83.2514
 -84.6512
 -84.606
 -84.5574
 -84.6139
 -78.9361
 -78.3556
 -78.7831
 -77.9902
 -83.3587
 -83.3092
 -83.5767
 -84.3684
 -84.4045
 -84.4881
 -84.3071
 -83.7141
 -83.6591
 -83.7842
 -79.1898
 -79.308
 -78.9207
 -84.6625
 -84.6449
 -84.6379
 -84.5471
 -83.6081
 -83.7155
 -83.7721
 -53.7704
 -54.2335
 -54.5811
 -52.6754
 -84.6296
 -84.5744
 -84.5257
 -84.6404
 -82.2899
 -82.0058
 -82.0656
 -81.9015
 -85.1177
 -85.1174
 -85.1272
 -85.1303
 -85.1623
 -85.1476
 -85.1701
 -85.1666
 -76.2144
 -77.3464
 -75.8152
 -76.1459
 -84.3676
 -84.3027
 -84.2093
 -80.8091
 -80.3884
 -80.7479
 -80.6876
 -85.1151
 -85.0914
 -85.1081
 -84.0212
 -84.1577
 -84.0679
 -84.1658
 -84.9031
 -84.9234
 -84.9175
 -84.8988
 -85.2053
 -85.2034
 -85.2148
 -85.204
 -42.6468
 -42.1681
 -42.2418
 -42.6134
 -81.1649
 -81.2845
 -81.4877
 -81.1119
 -84.1418
 -84.3423
 -84.2652
 -84.335
 -72.212
 -71.3916
 -70.6942
 -83.61
 -83.7583
 -83.734
 -83.5605
 -85.2137
 -84.7638
 -84.7005
 -84.653
 -84.728
 -85.1464
 -85.1463
 -85.146
 -85.1546
 -85.0239
 -85.0223
 -85.0142
 -85.0455
 -84.3044
 -84.2749
 -83.971
 -83.8012
 -83.8389
 -83.793
 -54.7156
 -56.1801
 -54.8525
 -55.5372
 -81.8601
 -81.7444
 -81.5843
 -81.302
 -81.2243
 -81.528
 -81.3351
 -85.2344
 -85.24
 -85.2384
 -85.2337
 -83.7768
 -83.7758
 -83.9201
 -83.9481
 -84.0854
 -84.0256
 -83.9086
 -84.0033
 -85.1516
 -85.1349
 -85.1616
 -85.1377
 -83.887
 -83.844
 -84.0403
 -83.9647
 -66.0864
 -66.2429
 -64.859
 -65.351
 -83.5929
 -83.5414
 -83.6797
 -83.5956
 -80.9549
 -81.0018
 -81.0675
 -81.3145
 -79.9956
 -79.5808
 -79.5621
 -79.7894
 -76.3526
 -76.609
 -76.3241
 -76.2088
 -63.4547
 -62.9565
 -62.4454
 -64.4287
 -85.2383
 -85.2376
 -85.238
 -85.2355
 -58.2458
 -58.7173
 -57.1897
 -59.0559
 -83.8307
 -83.7051
 -83.8191
 -83.6806
 -85.2344
 -85.2387
 -85.2282
 -85.2327
 -82.7339
 -82.6117
 -82.8105
 -82.8282
 -75.9404
 -85.1887
 -85.1807
 -85.1842
 -85.2008
 -78.5155
 -65.326
 -67.1963
 -67.1908
 -65.3452
 -84.4593
 -84.5819
 -85.0286
 -84.9926
 -85.0475
 -85.0047
 -85.0822
 -85.0863
 -85.1013
 -85.0958
 -85.256
 -85.25
 -85.2596
 -85.0459
 -85.0798
 -85.0658
 -85.0578
 -82.6615
 -85.229
 -84.8448
 -84.8422
 -84.8174
 -85.248
 -85.2505
 -85.2521
 -85.2497
 -82.9498
 -82.8749
 -82.931
 -82.7125
 -80.7314
 -80.9438
 -80.3903
 -80.3649
 -84.7283
 -84.7008
 -84.732
 -84.8119
 -85.2091
 -85.213
 -85.2024
 -85.1954
 -85.185
 -85.1812
 -85.1861
 -85.18
 -84.4942
 -84.6264
 -84.6153
 -61.4657
 -60.3603
 -63.5664
 -61.2722
 -43.7708
 -44.9293
 -44.2749
 -44.6665
 -71.3875
 -69.8915
 -69.3838
 -70.3622
 -83.9993
 -84.1302
 -84.0129
 -66.6617
 -67.7931
 -67.3334
 -66.5945
 -85.0215
 -85.0106
 -85.0428
 -85.1121
 -85.1111
 -85.0999
 -85.1114
 -78.4083
 -78.1697
 -84.8929
 -84.8862
 -85.2768
 -85.2749
 -85.2767
 -85.2453
 -85.2508
 -85.2488
 -85.2513
 -83.1362
 -82.9725
 -83.2938
 -83.1584
 -81.6898
 -81.6232
 -81.435
 -81.8807
 -83.6921
 -83.7065
 -83.8907
 -83.801
 -85.2487
 -85.2474
 -85.2508
 -85.2485
 -84.9022
 -84.9345
 -84.9217
 -84.8915
 -75.6052
 -75.493
 -75.5906
 -76.0419
 -84.89
 -84.9134
 -84.8755
 -84.9228
 -84.4018
 -84.4321
 -84.3131
 -84.4459
 -84.7703
 -84.7933
 -84.7985
 -41.4142
 -41.5287
 -41.6233
 -81.2509
 -80.9942
 -82.9296
 -82.9147
 -82.7245
 -83.0816
 -85.0393
 -85.0709
 -85.0481
 -85.0374
 -84.8939
 -84.9111
 -84.9621
 -84.9464
 -84.9429
 -84.9217
 -84.9903
 -55.4744
 -55.5123
 -75.6081
 -75.422
 -75.8369
 -75.6818
 -84.3352
 -54.9378
 -53.5588
 -54.0279
 -54.1986
 -80.8207
 -81.2772
 -81.0117
 -80.9328
 -83.3647
 -83.2099
 -64.1797
 -66.8452
 -66.6436
 -65.1445
 -85.2373
 -85.2441
 -85.2442
 -85.2376
 -85.1883
 -85.1978
 -85.1955
 -85.2026
 -77.663
 -78.9453
 -77.9592
 -78.579
 -81.2856
 -81.0883
 -81.824
 -81.714
 -81.5042
 -81.3647
 -81.5187
 -84.9744
 -85.0081
 -84.9444
 -84.9741
 -75.2782
 -76.089
 -76.4698
 -76.5209
 -83.6677
 -83.656
 -83.6382
 -84.7574
 -84.7832
 -84.7984
 -84.8508
 -81.3074
 -81.4123
 -81.5881
 -81.4749
 -79.3578
 -79.8137
 -80.1804
 -79.6029
 -80.1677
 -79.8782
 -79.9814
 -80.3365
 -82.539
 -82.5628
 -82.9057
 -82.706
 -84.6099
 -84.57
 -80.8988
 -80.9425
 -81.0018
 -80.6583
 -85.2521
 -85.2408
 -85.2449
 -85.2448
 -79.4063
 -79.6992
 -79.4714
 -79.7591
 -71.074
 -70.6207
 -71.7832
 -71.4208
 -84.3969
 -84.3467
 -60.8202
 -60.7753
 -59.8352
 -61.0835
 -81.9129
 -82.278
 -81.7454
 -85.233
 -85.2355
 -85.2394
 -85.2373
 -62.7047
 -61.7474
 -62.2608
 -79.7338
 -79.6407
 -80.0379
 -79.8707
 -63.776
 -79.1277
 -78.8501
 -79.0112
 -78.4486
 -83.7935
 -83.6704
 -83.8312
 -83.8524
 -82.7316
 -82.7854
 -82.9191
 -82.7165
 -85.2374
 -85.2456
 -84.2365
 -84.323
 -84.2937
 -84.2409
 -77.9231
 -76.9061
 -78.0602
 -76.8462
 -81.6713
 -82.2876
 -81.9398
 -81.7527
 -85.1808
 -85.1749
 -85.1739
 -85.1793
 -83.0776
 -83.2454
 -83.4281
 -83.3089
 -84.4403
 -85.1003
 -85.1003
 -85.0851
 -81.6521
 -81.7744
 -81.3738
 -81.8171
 -84.8847
 -84.8631
 -84.8788
 -84.8412
 -82.0791
 -81.6849
 -81.8848
 -82.1383
 -85.2327
 -85.2281
 -85.2224
 -85.2331
 -85.2694
 -85.2707
 -85.2684
 -79.9477
 -80.1519
 -80.5505
 -80.332
 -84.6385
 -84.6324
 -84.5548
 -84.603
 -84.7831
 -84.8138
 -84.8331
 -84.8484
 -80.7563
 -80.8939
 -78.9118
 -78.733
 -78.504
 -79.169
 -82.5639
 -83.0049
 -84.2904
 -84.3508
 -84.2915
 -84.2495
 -84.5336
 -84.558
 -84.6289
 -84.5494
 -82.4106
 -82.7004
 -82.8509
 -82.6404
 -84.1718
 -84.1706
 -84.1759
 -85.1332
 -85.1204
 -85.1089
 -85.1234
 -85.0077
 -84.9929
 -85.0084
 -82.6197
 -82.8951
 -82.4254
 -82.788
 -79.5241
 -78.7388
 -78.4159
 -79.3455
 -84.8433
 -84.7689
 -84.7821
 -84.8179
 -82.9815
 -82.9331
 -82.6104
 -77.6248
 -77.5666
 -77.6296
 -77.5853
 -81.2334
 -81.2279
 -81.3579
 -81.458
 -85.0826
 -85.0595
 -85.0549
 -85.2583
 -85.2511
 -85.2546
 -84.7822
 -84.8106
 -84.8227
 -81.2498
 -80.8994
 -81.3938
 -81.1247
 -85.2663
 -85.2679
 -85.266
 -85.2685
 -84.7317
 -84.6831
 -84.7109
 -84.7607
 -85.1137
 -85.1219
 -85.1373
 -85.1422
 -85.089
 -85.1051
 -85.0944
 -85.0969
 -69.0042
 -67.2831
 -67.7707
 -82.3689
 -82.4464
 -82.2602
 -82.4637
 -85.13
 -85.1342
 -85.1193
 -85.1204
 -83.4066
 -83.4796
 -83.4698
 -83.6596
 -84.8818
 -84.8856
 -84.8856
 -84.8405
 -85.1571
 -85.1707
 -75.4105
 -75.9445
 -75.866
 -76.2171
 -84.9608
 -84.9291
 -84.9938
 -84.9552
 -82.716
 -82.6627
 -82.5275
 -82.8152
 -84.7979
 -84.6985
 -85.2462
 -85.2458
 -85.2368
 -85.2454
 -85.094
 -85.1231
 -85.0831
 -85.1258
 -85.2624
 -85.2653
 -85.2705
 -85.2702
 -84.9938
 -84.9994
 -85.0148
 -84.7944
 -84.8523
 -84.863
 -84.8261
 -84.8249
 -84.803
 -84.827
 -84.7619
 -80.6615
 -80.7585
 -80.4515
 -80.3041
 -66.5069
 -65.9657
 -67.4971
 -83.8173
 -83.799
 -83.8405
 -85.1272
 -85.1062
 -85.1165
 -85.1017
 -82.6035
 -82.7731
 -82.9831
 -82.7828
 -78.5878
 -77.6388
 -77.8987
 -78.7032
 -83.9665
 -83.8345
 -83.7038
 -83.7542
 -81.8057
 -82.3126
 -81.8486
 -85.2509
 -85.253
 -85.2426
 -85.2413
 -76.1684
 -76.3424
 -78.8718
 -79.1509
 -79.1776
 -84.9346
 -84.9524
 -84.905
 -84.9761
 -83.7613
 -83.9954
 -83.9087
 -83.9488
 -77.8108
 -77.9408
 -78.3612
 -77.9115
 -84.1842
 -83.9167
 -83.9767
 -84.0782
 -81.8405
 -81.5367
 -82.0316
 -82.0381
 -85.1726
 -85.1818
 -85.2015
 -81.3648
 -81.3773
 -81.589
 -81.577
 -84.1302
 -84.2294
 -77.1473
 -77.7968
 -77.4437
 -77.2569
 -78.2202
 -77.6097
 -77.9547
 -77.6946
 -85.1751
 -85.1732
 -79.1316
 -79.642
 -79.3109
 -78.7994
 -83.9926
 -83.8646
 -83.9198
 -84.02
 -82.3593
 -70.4157
 -69.0848
 -69.5341
 -84.424
 -84.3904
 -84.3896
 -84.3175
 -85.2067
 -85.2083
 -85.2036
 -85.2136
 -68.674
 -69.4802
 -69.4554
 -68.0604
 -79.0641
 -79.3608
 -78.9261
 -79.0499
 -84.7013
 -84.7067
 -84.7076
 -70.4593
 -70.1865
 -71.3068
 -71.3709
 -85.2571
 -85.2521
 -85.2518
 -85.259
 -75.2829
 -75.6544
 -75.8121
 -74.9315
 -84.7118
 -84.6468
 -84.6881
 -84.7361
 -82.5857
 -82.808
 -82.7054
 -82.5218
 -77.6069
 -77.8202
 -77.5898
 -81.8806
 -82.1982
 -81.8936
 -82.1548
 -78.393
 -78.0095
 -78.2815
 -78.2776
 -78.7394
 -78.3302
 -78.427
 -85.0323
 -84.9936
 -85.0369
 -84.9426
 -84.9129
 -83.5311
 -83.8476
 -83.6206
 -83.6414
 -85.2295
 -85.2266
 -85.2188
 -85.2261
 -84.4398
 -84.5524
 -84.367
 -84.5124
 -84.5826
 -84.6381
 -84.5746
 -84.5749
 -78.9987
 -78.8156
 -79.2706
 -79.2113
 -78.9399
 -84.7266
 -84.6252
 -84.6942
 -84.7398
 -85.2252
 -85.2369
 -84.0242
 -84.0734
 -83.9028
 -84.0861
 -77.9719
 -77.888
 -78.2023
 -85.1632
 -85.1772
 -85.1582
 -85.1651
 -84.1265
 -83.9017
 -84.008
 -84.0299
 -78.8507
 -78.6431
 -78.8957
 -79.0489
 -83.6283
 -83.6234
 -83.868
 -83.682
 -84.6132
 -84.7305
 -74.2655
 -73.9147
 -74.0813
 -73.7228
 -78.378
 -79.4905
 -79.8203
 -79.6418
 -80.0494
 -79.8569
 -79.3377
 -78.5675
 -78.6065
 -79.0736
 -84.1049
 -84.0295
 -84.0463
 -84.4014
 -84.3723
 -84.3146
 -84.2845
 -80.8497
 -80.7745
 -80.8523
 -80.81
 -82.8323
 -82.731
 -84.2172
 -84.1515
 -84.2098
 -84.1498
 -84.2751
 -84.261
 -83.7038
 -83.8295
 -83.8925
 -83.7026
 -59.3218
 -61.3993
 -61.0281
 -61.6411
 -84.183
 -78.4572
 -78.8171
 -78.548
 -78.4581
 -85.2567
 -85.2606
 -85.2555
 -84.9408
 -84.9402
 -84.8978
 -84.9406
 -83.463
 -83.481
 -83.382
 -83.1157
 -84.2211
 -84.3054
 -84.1426
 -79.8316
 -80.1595
 -80.049
 -79.8022
 -85.1662
 -85.1782
 -85.1617
 -85.1715
 -84.7817
 -84.7532
 -84.8013
 -84.7761
 -85.1683
 -85.1767
 -85.1496
 -85.1649
 -74.4102
 -74.2674
 -73.7934
 -73.8661
 -80.3548
 -80.6723
 -85.0429
 -85.0291
 -85.0161
 -85.0384
 -85.2128
 -85.2107
 -85.2141
 -85.2093
 -85.2722
 -85.2756
 -85.269
 -85.2751
 -85.198
 -85.1858
 -85.1948
 -84.6995
 -84.7691
 -84.6919
 -84.7438
 -85.2344
 -85.239
 -85.2378
 -85.2384
 -75.7968
 -76.3397
 -76.9957
 -76.2611
 -85.1173
 -85.1381
 -85.1392
 -84.7389
 -84.7161
 -84.6934
 -84.6851
 -78.2729
 -78.1081
 -78.2703
 -78.0008
 -84.7081
 -84.7603
 -84.7474
 -84.7433
 -84.4187
 -84.4928
 -84.5318
 -84.4162
 -80.2152
 -80.2577
 -80.8118
 -80.968
 -74.7019
 -74.8387
 -73.9799
 -73.9924
 -82.792
 -82.8393
 -83.0385
 -82.8221
 -56.4069
 -56.313
 -58.7549
 -57.1671
 -78.4596
 -78.8543
 -78.4064
 -79.6627
 -79.1278
 -79.0445
 -78.8728
 -50.9263
 -51.0551
 -49.968
 -51.6931
 -85.182
 -85.1729
 -85.1763
 -85.0608
 -85.0738
 -85.0921
 -85.0912
 -79.9147
 -80.715
 -80.4618
 -67.3409
 -68.075
 -67.2608
 -73.7353
 -73.2127
 -73.9197
 -74.0666
 -80.6408
 -80.6011
 -80.8917
 -80.3309
 -84.7502
 -84.8473
 -84.8
 -84.7959
 -59.8775
 -59.4362
 -60.143
 -58.745
 -84.5767
 -84.4218
 -84.414
 -84.5488
 -85.0659
 -85.0684
 -85.0423
 -85.0639
 -84.3674
 -84.3462
 -84.5157
 -84.4138
 -83.3056
 -83.1105
 -83.4247
 -78.7504
 -78.7126
 -78.7692
 -78.988
 -85.1848
 -85.1928
 -85.1995
 -85.1898
 -85.1254
 -85.1332
 -85.1193
 -85.1007
 -80.1327
 -80.4753
 -80.2282
 -79.9397
 -85.1953
 -85.2047
 -85.209
 -85.226
 -85.2399
 -85.233
 -85.2308
 -85.2329
 -85.2313
 -85.2242
 -85.2273
 -64.7644
 -64.4809
 -51.1349
 -51.4911
 -50.8894
 -52.2509
 -84.4915
 -84.4476
 -84.377
 -83.4662
 -83.3708
 -83.6174
 -83.3695
 -84.0079
 -84.1642
 -84.1266
 -84.0358
 -41.8676
 -82.8345
 -84.4241
 -84.5096
 -85.1342
 -85.1426
 -85.1415
 -85.1363
 -67.5931
 -81.8857
 -82.1416
 -81.8824
 -85.2787
 -85.277
 -85.2773
 -85.2767
 -84.0256
 -83.9328
 -84.0577
 -84.181
 -85.2064
 -85.2027
 -85.214
 -85.1969
 -83.2365
 -83.4714
 -82.9749
 -82.4573
 -82.8249
 -82.5856
 -85.2004
 -85.1972
 -85.1871
 -85.2026
 -84.6078
 -84.5344
 -84.4603
 -84.459
 -76.2304
 -75.7208
 -76.6195
 -76.5141
 -85.0737
 -85.1105
 -85.0946
 -85.2266
 -85.2375
 -85.2377
 -85.2261
 -85.1061
 -85.0959
 -85.0867
 -85.0939
 -80.2134
 -80.2121
 -81.0641
 -80.1717
 -81.2194
 -80.9702
 -81.0111
 -81.0379
 -85.1894
 -85.1961
 -85.1964
 -85.196
 -82.6596
 -82.8387
 -82.4897
 -85.049
 -85.0449
 -85.0419
 -85.0211
 -77.1455
 -77.7617
 -76.8127
 -76.9935
 -84.6474
 -84.6971
 -84.579
 -84.634
 -77.1462
 -77.6343
 -77.1742
 -77.096
 -84.2025
 -84.2019
 -84.064
 -84.2135
 -85.0704
 -85.0637
 -85.0869
 -85.0581
 -75.6324
 -75.3853
 -75.905
 -83.9209
 -84.0555
 -85.1693
 -85.1667
 -85.1589
 -85.1536
 -82.6175
 -82.4321
 -82.3768
 -75.9991
 -75.4693
 -75.2275
 -75.5221
 -84.8579
 -84.8759
 -84.8603
 -84.8954
 -84.6034
 -84.6044
 -84.7137
 -84.6344
 -45.397
 -45.4866
 -46.5217
 -45.6437
 -84.0078
 -83.8008
 -83.9033
 -56.1424
 -57.3542
 -57.8154
 -83.9377
 -83.8795
 -83.7689
 -83.9599
 -83.7731
 -73.563
 -74.1447
 -72.3815
 -73.2445
 -83.2628
 -83.5168
 -83.52
 -85.1395
 -85.1403
 -85.1435
 -85.1309
 -83.348
 -83.447
 -83.573
 -83.5638
 -83.7788
 -83.7343
 -83.7286
 -85.2688
 -85.268
 -85.2664
 -85.2639
 -78.622
 -79.7502
 -79.5299
 -79.3049
 -73.7455
 -73.7881
 -74.1499
 -74.2118
 -82.2929
 -82.2302
 -82.6194
 -82.3111
 -85.17
 -85.1638
 -85.1749
 -85.1567
 -44.8637
 -45.6562
 -44.7355
 -45.9825
 -85.082
 -85.0497
 -85.0621
 -85.0645
 -72.7998
 -72.2141
 -72.9878
 -72.7112
 -85.1224
 -85.0678
 -85.0912
 -85.1154
 -84.9296
 -84.922
 -84.8941
 -84.9097
 -85.0854
 -85.0928
 -80.5652
 -80.1854
 -80.1198
 -80.4502
 -85.1901
 -85.1931
 -85.1928
 -84.9445
 -84.9002
 -84.9076
 -84.9533
 -79.8379
 -80.2545
 -79.9773
 -79.606
 -81.7439
 -81.6496
 -81.9878
 -41.4349
 -41.4664
 -41.2007
 -41.4296
 -83.5691
 -83.4339
 -83.7052
 -85.2034
 -85.2104
 -85.1956
 -85.1923
 -85.0402
 -85.0145
 -85.1597
 -85.1801
 -85.1809
 -85.1725
 -84.812
 -84.8133
 -70.3504
 -70.1468
 -69.1379
 -70.9504
 -85.0214
 -85.0244
 -85.0243
 -84.9966
 -83.8699
 -83.9017
 -81.9315
 -82.0938
 -81.9676
 -81.8991
 -85.1487
 -85.1607
 -85.1593
 -85.1587
 -80.7212
 -79.8367
 -79.9422
 -80.562
 -85.1876
 -85.1896
 -85.2021
 -85.2091
 -84.2979
 -84.3037
 -84.2253
 -71.4682
 -71.0286
 -70.7459
 -71.3479
 -84.7192
 -84.7237
 -84.6996
 -84.646
 -78.6249
 -77.9663
 -78.0302
 -77.5712
 -79.5305
 -78.7285
 -79.3043
 -43.8941
 -43.7408
 -44.0043
 -44.4325
 -74.6996
 -75.6302
 -75.8969
 -75.0164
 -84.9937
 -84.9907
 -85.0215
 -84.986
 -83.8898
 -83.9686
 -83.763
 -82.1372
 -78.3117
 -78.6437
 -78.4446
 -78.6929
 -82.8147
 -82.5568
 -82.7901
 -82.9051
 -84.9454
 -84.9991
 -85.0018
 -84.9453
 -76.6979
 -76.7745
 -78.0603
 -68.2974
 -84.2691
 -84.2896
 -84.1885
 -84.358
 -78.5811
 -79.1726
 -53.3788
 -52.27
 -77.8545
 -78.3567
 -77.9364
 -77.2829
 -84.9057
 -84.9343
 -85.1644
 -85.1624
 -85.166
 -85.1601
 -82.1017
 -82.4057
 -82.364
 -82.4251
 -85.2442
 -85.2473
 -85.2506
 -85.2484
 -81.3171
 -81.4685
 -80.6484
 -80.5773
 -85.0402
 -85.0492
 -85.018
 -85.0012
 -80.0106
 -80.0378
 -80.2738
 -80.2279
 -84.9798
 -84.9903
 -84.9482
 -84.9713
 -82.6753
 -83.0365
 -85.21
 -85.2068
 -84.892
 -84.9366
 -84.8816
 -84.9415
 -84.8498
 -84.8193
 -84.8288
 -84.8856
 -84.1792
 -84.1255
 -84.2393
 -84.2099
 -84.9872
 -84.9651
 -85.0182
 -85.0155
 -79.7404
 -79.2887
 -79.5319
 -79.4951
 -85.2005
 -85.1956
 -85.197
 -85.2053
 -85.2167
 -85.2075
 -85.213
 -77.0707
 -77.6987
 -77.6733
 -77.3244
 -84.7811
 -84.7366
 -84.7352
 -84.7797
 -75.1442
 -76.1172
 -76.1584
 -76.9853
 -84.1553
 -83.3866
 -83.6301
 -83.6452
 -83.4627
 -85.0951
 -85.0936
 -85.0869
 -85.0684
 -57.8093
 -56.5943
 -57.239
 -58.7681
 -84.7699
 -84.7949
 -84.8179
 -84.773
 -83.8422
 -83.943
 -83.6411
 -83.7522
 -85.0046
 -84.9811
 -84.9743
 -84.9638
 -84.6771
 -85.2702
 -85.2711
 -85.2643
 -85.2658
 -85.0323
 -85.0464
 -85.0132
 -85.0118
 -52.2331
 -52.5708
 -53.4794
 -52.1214
 -82.8398
 -82.5795
 -82.4502
 -82.6536
 -80.9712
 -83.8617
 -83.9389
 -83.9607
 -84.0699
 -85.1827
 -85.1859
 -85.1701
 -85.1648
 -85.1113
 -85.0993
 -85.1307
 -85.1786
 -85.1552
 -85.1644
 -85.1619
 -44.9084
 -45.1891
 -85.0184
 -84.9964
 -84.98
 -80.3183
 -80.3179
 -80.146
 -80.6671
 -84.9073
 -84.8888
 -84.8945
 -84.8552
 -84.1814
 -84.8408
 -84.7818
 -84.8398
 -84.8356
 -85.1861
 -85.1569
 -85.1711
 -85.1835
 -84.8148
 -84.8559
 -84.8937
 -84.8218
 -82.621
 -82.7701
 -82.3221
 -82.95
 -78.1364
 -78.2306
 -77.9995
 -78.3014
 -85.2622
 -85.2573
 -85.2607
 -85.2607
 -84.9291
 -84.9179
 -84.9351
 -84.8921
 -85.2589
 -85.2569
 -85.2573
 -85.2596
 -80.6086
 -79.8946
 -80.6524
 -80.7331
 -83.9397
 -83.8744
 -85.2006
 -85.2152
 -85.2024
 -85.2074
 -84.0808
 -84.0793
 -84.065
 -84.2051
 -83.6063
 -83.7492
 -84.2011
 -84.1526
 -84.3098
 -84.1801
 -85.1257
 -85.1321
 -85.1229
 -85.1472
 -81.7469
 -81.3266
 -81.1418
 -81.5264
 -67.736
 -68.6172
 -67.7007
 -67.6106
 -76.0261
 -75.7062
 -75.813
 -75.5756
 -81.2438
 -81.5714
 -81.641
 -81.2915
 -82.8059
 -82.4808
 -82.6661
 -83.4616
 -83.1467
 -83.3412
 -83.3708
 -84.0773
 -84.0245
 -83.9357
 -84.0996
 -67.6374
 -67.8304
 -68.1773
 -82.5621
 -82.1488
 -82.5867
 -82.4703
 -84.2939
 -84.4249
 -84.397
 -84.2534
 -79.8283
 -79.0888
 -79.916
 -79.1824
 -81.6764
 -81.9441
 -81.9259
 -81.8702
 -84.3407
 -84.3127
 -84.3856
 -84.4603
 -84.084
 -83.9337
 -84.0722
 -84.0418
 -84.8981
 -84.8766
 -84.8807
 -84.8536
 -75.1113
 -75.3658
 -75.5809
 -85.0896
 -85.0729
 -85.1025
 -85.0865
 -79.9216
 -80.4087
 -79.9456
 -79.6047
 -83.0835
 -83.0503
 -82.8812
 -83.1916
 -83.358
 -83.5778
 -83.5833
 -84.4201
 -84.4454
 -84.4651
 -84.5149
 -84.8198
 -84.8166
 -84.8607
 -84.7844
 -84.8472
 -84.8859
 -84.9005
 -85.1546
 -85.1532
 -85.1646
 -84.8448
 -84.8196
 -84.7823
 -84.7932
 -85.1183
 -85.1189
 -85.1013
 -85.1963
 -85.1971
 -85.1964
 -85.1872
 -83.471
 -83.0552
 -83.35
 -83.1881
 -80.515
 -80.2401
 -80.8399
 -80.3997
 -79.2462
 -85.1403
 -85.1369
 -85.163
 -85.115
 -85.1293
 -85.0945
 -43.2242
 -42.9061
 -43.2788
 -43.7721
 -85.0247
 -84.9978
 -82.8707
 -82.8876
 -83.1752
 -85.2559
 -85.2591
 -84.5285
 -84.4203
 -84.4659
 -84.5106
 -82.6142
 -82.7474
 -82.7526
 -85.0468
 -85.091
 -85.0773
 -85.0823
 -81.0731
 -81.1824
 -80.8952
 -81.4473
 -49.2835
 -50.2089
 -49.9546
 -48.8666
 -84.4725
 -84.4875
 -84.4752
 -84.5571
 -85.1095
 -85.1468
 -85.1192
 -85.0781
 -85.0667
 -85.0806
 -85.0611
 -79.5724
 -78.8614
 -78.7615
 -78.518
 -80.7422
 -80.9863
 -76.5407
 -77.2426
 -76.2363
 -85.2371
 -85.2311
 -85.0736
 -85.0425
 -85.067
 -85.0535
 -84.1044
 -84.2336
 -84.1841
 -85.0228
 -84.987
 -85.0503
 -85.0379
 -79.9369
 -78.9164
 -79.087
 -79.5868
 -83.6468
 -83.5962
 -83.7898
 -83.8182
 -83.7212
 -83.8267
 -83.8884
 -83.7497
 -78.5357
 -78.7737
 -78.1467
 -80.8249
 -80.4617
 -80.793
 -80.6809
 -85.2682
 -85.2694
 -85.269
 -85.2728
 -72.2921
 -70.7206
 -85.1831
 -85.1986
 -85.1941
 -85.1886
 -83.2686
 -83.4933
 -83.4012
 -83.2718
 -84.3477
 -84.4223
 -84.4117
 -84.4458
 -76.128
 -76.495
 -83.753
 -83.6392
 -83.6409
 -83.5012
 -82.8756
 -82.7628
 -82.6693
 -82.9749
 -85.1337
 -85.1349
 -85.1277
 -85.1412
 -83.3766
 -83.5891
 -83.5726
 -83.372
 -80.9503
 -81.032
 -84.6921
 -84.6959
 -84.6495
 -84.7011
 -84.9266
 -84.924
 -84.9548
 -84.0265
 -84.1645
 -84.1119
 -84.2002
 -78.3129
 -78.7315
 -78.1443
 -78.9877
 -49.1305
 -50.3729
 -50.1077
 -48.8882
 -83.6723
 -83.5829
 -83.7829
 -83.9365
 -84.3908
 -84.4883
 -84.3856
 -84.4129
 -82.5439
 -82.7009
 -82.4007
 -82.4645
 -80.5487
 -80.3352
 -80.7231
 -80.8916
 -85.1459
 -85.1535
 -84.6644
 -84.6102
 -84.5849
 -60.5689
 -59.9813
 -59.1318
 -61.026
 -79.3115
 -78.8261
 -79.4212
 -78.4759
 -84.1709
 -84.1728
 -84.1431
 -84.0563
 -85.1501
 -85.1543
 -85.1513
 -83.2351
 -83.0795
 -82.8164
 -82.8408
 -80.5601
 -81.0709
 -80.8921
 -80.5461
 -84.9514
 -84.8908
 -84.8929
 -84.9256
 -84.3872
 -84.3695
 -84.3201
 -84.3188
 -84.9967
 -85.0012
 -84.9903
 -85.052
 -85.0549
 -85.0626
 -85.0491
 -82.3845
 -82.5206
 -82.1647
 -82.1497
 -83.4995
 -83.3583
 -83.5475
 -51.7395
 -52.0586
 -51.9786
 -51.1872
 -81.1058
 -81.1693
 -71.5362
 -70.7455
 -72.0254
 -72.8199
 -78.7217
 -76.5982
 -85.1417
 -81.112
 -80.6997
 -80.9629
 -80.5276
 -85.265
 -84.6296
 -84.5933
 -84.6187
 -84.5284
 -80.9625
 -81.1799
 -81.0253
 -82.4696
 -82.7546
 -82.7452
 -85.0588
 -85.07
 -85.0472
 -85.0717
 -85.1125
 -85.1031
 -85.1144
 -85.098
 -77.4191
 -76.4189
 -76.4535
 -77.0916
 -85.2186
 -85.218
 -85.2285
 -85.2147
 -83.7659
 -83.5995
 -83.4059
 -85.1082
 -85.1169
 -85.1197
 -84.1709
 -84.0923
 -84.1231
 -84.1956
 -81.116
 -81.3361
 -80.9074
 -80.9877
 -84.4702
 -84.5871
 -84.4488
 -81.7013
 -81.9129
 -81.8663
 -81.5346
 -83.2031
 -83.4875
 -85.1024
 -85.1212
 -85.1214
 -85.1408
 -85.1509
 -85.1662
 -85.1536
 -85.1545
 -77.6744
 -78.3241
 -77.6029
 -78.4027
 -84.8986
 -84.845
 -84.896
 -84.913
 -84.6157
 -84.4801
 -84.579
 -84.6596
 -82.8982
 -82.6017
 -83.0174
 -82.7972
 -85.103
 -85.0894
 -85.0818
 -85.0659
 -83.3778
 -83.1038
 -83.5098
 -83.3207
 -83.8023
 -83.735
 -83.7217
 -83.9541
 -83.0142
 -82.8573
 -83.0657
 -83.0895
 -79.2248
 -79.8961
 -76.9017
 -77.4488
 -77.8819
 -76.9749
 -68.9596
 -67.1635
 -68.8511
 -69.2628
 -84.6468
 -84.6346
 -84.579
 -84.6886
 -84.3385
 -84.2915
 -84.2234
 -85.2487
 -85.2495
 -85.2476
 -85.2473
 -85.229
 -85.2386
 -85.2256
 -85.169
 -85.1789
 -85.1615
 -84.3249
 -84.4461
 -84.4742
 -84.3411
 -84.8098
 -84.8206
 -84.8435
 -84.7713
 -85.1229
 -85.1367
 -85.1321
 -85.1419
 -81.2087
 -80.8088
 -80.9068
 -81.1084
 -72.9586
 -73.6822
 -74.3004
 -74.2751
 -85.2554
 -85.2592
 -85.2476
 -85.2613
 -80.0698
 -79.9368
 -79.5975
 -80.0944
 -83.9663
 -83.9379
 -84.0105
 -83.9099
 -85.2573
 -85.2609
 -85.2516
 -85.2655
 -84.508
 -84.4184
 -84.5505
 -84.5175
 -83.0793
 -82.9946
 -83.1393
 -83.0009
 -80.5829
 -80.237
 -80.3134
 -76.4429
 -77.2833
 -76.7754
 -76.2898
 -79.3048
 -79.1877
 -79.4179
 -79.1097
 -77.4557
 -77.7237
 -79.6585
 -80.0411
 -78.9652
 -84.9756
 -84.947
 -84.9488
 -84.9469
 -85.247
 -85.2455
 -85.2452
 -85.2457
 -84.8059
 -84.7687
 -84.8068
 -84.7129
 -83.2042
 -85.0979
 -85.108
 -85.1097
 -85.0882
 -77.838
 -77.825
 -77.7901
 -77.7254
 -85.2261
 -85.2259
 -85.2252
 -85.2332
 -81.8093
 -81.7603
 -82.1617
 -84.9299
 -75.9582
 -75.787
 -75.0765
 -79.6755
 -79.2338
 -78.8034
 -79.8433
 -83.9829
 -83.9868
 -83.7595
 -83.9692
 -84.9716
 -84.9653
 -84.9456
 -85.0018
 -83.154
 -84.9379
 -84.9114
 -84.915
 -83.3829
 -83.4069
 -83.4181
 -83.6094
 -81.8205
 -81.9091
 -81.6581
 -81.6181
 -82.4795
 -82.1528
 -82.3822
 -82.5022
 -84.9572
 -80.3252
 -80.4634
 -80.5824
 -84.973
 -84.9458
 -84.9863
 -84.9619
 -85.1347
 -85.1276
 -85.1491
 -85.1195
 -85.2213
 -85.226
 -85.2196
 -81.5287
 -81.5568
 -81.3387
 -81.5188
 -74.1443
 -73.5837
 -74.1355
 -85.0229
 -85.0335
 -85.0792
 -85.0722
 -85.0664
 -85.0591
 -83.4403
 -83.5647
 -83.6476
 -85.239
 -85.2393
 -85.2459
 -85.2407
 -85.1448
 -85.1433
 -85.1515
 -85.152
 -84.6739
 -84.7321
 -84.7458
 -84.7668
 -84.2463
 -84.2839
 -84.1691
 -84.0795
 -80.6247
 -80.6394
 -80.4708
 -80.7518
 -85.0911
 -85.0859
 -85.0725
 -85.0954
 -81.8009
 -81.9253
 -81.4308
 -82.7465
 -82.9589
 -83.0363
 -83.0517
 -85.2348
 -85.2301
 -85.2414
 -85.2391
 -84.9181
 -84.921
 -84.9214
 -84.8905
 -85.2493
 -85.2446
 -85.2367
 -85.2483
 -82.2249
 -82.3648
 -82.5025
 -82.4646
 -84.1298
 -84.1265
 -84.0254
 -84.2336
 -85.2
 -85.1961
 -85.2062
 -85.2018
 -83.8668
 -83.9447
 -83.726
 -83.773
 -85.2531
 -85.255
 -85.2523
 -81.0947
 -80.9319
 -80.9392
 -81.0031
 -84.4463
 -84.4486
 -84.3754
 -84.3374
 -84.576
 -84.6139
 -84.5608
 -84.6004
 -83.5842
 -83.5443
 -83.7867
 -83.5759
 -85.1463
 -85.1487
 -85.1638
 -85.148
 -83.7453
 -83.5173
 -83.6681
 -83.6231
 -84.634
 -84.6125
 -84.5998
 -84.5854
 -77.5224
 -77.5316
 -77.4661
 -77.5154
 -85.083
 -85.084
 -85.0705
 -85.0536
 -76.065
 -76.0126
 -76.014
 -80.8983
 -80.6675
 -80.6581
 -80.922
 -77.8268
 -78.2834
 -79.436
 -78.4159
 -84.9116
 -84.9249
 -84.9424
 -84.9555
 -84.7349
 -84.7889
 -84.7279
 -84.7669
 -81.5516
 -81.1722
 -81.3066
 -81.0142
 -85.2719
 -85.2695
 -85.2665
 -52.2805
 -51.9766
 -84.5954
 -84.6328
 -84.5453
 -84.61
 -63.7347
 -61.939
 -60.1677
 -61.4982
 -84.7308
 -84.7659
 -84.8073
 -84.7605
 -82.8288
 -82.0167
 -81.8282
 -81.7695
 -81.5433
 -85.0311
 -85.0249
 -85.0354
 -85.0469
 -85.2085
 -85.1971
 -85.2135
 -85.2054
 -77.5268
 -77.5085
 -84.9104
 -84.9358
 -84.9892
 -84.93
 -84.2898
 -84.0728
 -84.3448
 -84.2228
 -79.9989
 -79.9206
 -79.7245
 -80.5667
 -83.7628
 -83.5509
 -83.5224
 -83.7489
 -85.1033
 -85.0783
 -85.134
 -85.2504
 -85.2484
 -85.2484
 -85.2483
 -85.2529
 -85.2531
 -85.2569
 -82.134
 -81.9725
 -81.9988
 -82.2524
 -85.1684
 -85.1699
 -85.1582
 -85.1614
 -78.7123
 -78.3597
 -78.5017
 -78.5591
 -84.7769
 -84.7073
 -84.7791
 -84.6769
 -84.423
 -84.5362
 -84.44
 -84.4303
 -85.2456
 -85.2465
 -85.2448
 -85.2488
 -84.8532
 -84.8636
 -84.8538
 -84.8171
 -58.6695
 -57.8545
 -57.7414
 -58.828
 -83.1312
 -82.7049
 -83.0639
 -82.9306
 -81.9506
 -82.1775
 -82.3164
 -81.7879
 -84.9917
 -84.9904
 -84.9624
 -84.955
 -79.2217
 -78.9202
 -78.8385
 -78.8218
 -84.5525
 -84.4883
 -84.4333
 -84.5442
 -81.1126
 -80.9922
 -80.7094
 -71.0712
 -70.6249
 -70.0189
 -70.2771
 -84.4358
 -84.5343
 -84.4355
 -84.6402
 -84.6496
 -84.6357
 -80.232
 -79.9323
 -79.5859
 -78.2871
 -78.2815
 -78.4978
 -78.767
 -85.1619
 -42.29
 -42.6381
 -42.4199
 -41.8977
 -85.141
 -85.1359
 -85.1521
 -85.139
 -76.2344
 -82.5242
 -82.4526
 -82.463
 -82.7136
 -82.0387
 -81.731
 -82.4713
 -78.6275
 -79.5309
 -79.1074
 -78.9515
 -61.4061
 -61.3454
 -62.4378
 -60.1033
 -78.515
 -78.8657
 -78.7669
 -84.2898
 -84.2325
 -84.2183
 -82.2024
 -82.0699
 -85.2766
 -85.272
 -85.2718
 -77.8282
 -78.5427
 -77.6446
 -82.0264
 -82.2445
 -82.3881
 -85.1601
 -85.1723
 -85.1755
 -85.0215
 -85.0232
 -85.0423
 -85.0321
 -80.1014
 -80.2181
 -80.4646
 -75.5283
 -74.7589
 -85.2206
 -85.2196
 -85.229
 -85.2256
 -65.9196
 -66.415
 -64.4561
 -67.3437
 -77.5317
 -77.2921
 -48.8831
 -48.1105
 -55.5829
 -55.3874
 -55.728
 -82.4375
 -82.708
 -82.3743
 -85.2081
 -85.2009
 -85.1855
 -84.8822
 -84.8687
 -84.9022
 -80.7999
 -80.4705
 -80.8379
 -81.083
 -80.7355
 -85.1734
 -75.7664
 -75.7453
 -76.0313
 -76.0305
 -82.1937
 -82.6986
 -82.265
 -82.4541
 -85.0079
 -85.0152
 -85.0359
 -84.7605
 -84.7793
 -84.744
 -84.7513
 -82.4351
 -82.3472
 -82.645
 -82.8795
 -84.9732
 -84.9759
 -85.0179
 -85.0136
 -85.0287
 -85.0166
 -85.0318
 -85.0533
 -83.8101
 -84.9019
 -84.9511
 -84.9381
 -84.9533
 -85.2499
 -85.2532
 -85.2477
 -85.2466
 -78.992
 -77.8897
 -77.5993
 -78.3338
 -85.2328
 -85.2448
 -85.2427
 -85.2404
 -47.5434
 -48.4814
 -47.5352
 -85.1916
 -85.1844
 -85.1984
 -85.201
 -79.2845
 -79.1486
 -78.5678
 -78.5749
 -85.1118
 -85.0901
 -85.1102
 -85.1231
 -77.8309
 -77.8918
 -76.2308
 -76.6178
 -85.2351
 -85.068
 -85.0446
 -85.063
 -85.0381
 -85.1933
 -85.199
 -85.2015
 -75.3047
 -75.6866
 -75.1635
 -74.908
 -84.8944
 -84.8819
 -84.8592
 -84.8358
 -84.5223
 -84.6266
 -84.6255
 -84.5792
 -84.3443
 -84.3939
 -84.3044
 -84.2652
 -85.2729
 -85.2688
 -82.8452
 -82.8309
 -82.7616
 -82.6067
 -82.8608
 -82.9841
 -83.0166
 -84.9326
 -84.8958
 -84.9512
 -84.9734
 -84.8442
 -84.8492
 -84.843
 -84.8903
 -84.5343
 -84.5872
 -84.5946
 -84.4932
 -80.0564
 -79.8913
 -81.4504
 -81.2403
 -81.2011
 -82.1644
 -82.3802
 -82.3525
 -82.3693
 -72.5923
 -71.6114
 -72.1852
 -72.0119
 -82.267
 -81.8213
 -81.5789
 -60.8652
 -60.9486
 -62.1899
 -82.1439
 -82.1489
 -81.8494
 -82.3685
 -79.4631
 -80.0089
 -79.0743
 -83.7623
 -84.9834
 -84.95
 -85.0033
 -83.0029
 -83.0074
 -83.1833
 -83.2699
 -77.2678
 -77.2235
 -78.862
 -78.1466
 -84.0761
 -84.2042
 -84.2275
 -84.2178
 -85.0368
 -85.0196
 -85.2676
 -85.2648
 -85.2628
 -85.2672
 -84.9457
 -84.9692
 -84.9797
 -84.9347
 -83.3028
 -83.2759
 -83.2454
 -83.4036
 -85.2378
 -85.2392
 -85.249
 -85.2327
 -85.2523
 -85.2531
 -85.2563
 -84.129
 -83.9663
 -83.8742
 -84.0387
 -78.0545
 -77.9315
 -78.2576
 -82.7782
 -82.8074
 -83.064
 -82.7718
 -73.0672
 -72.1623
 -73.615
 -71.8677
 -84.7339
 -84.7496
 -84.7662
 -84.604
 -77.7053
 -77.7072
 -77.6784
 -77.7883
 -80.5653
 -80.7405
 -80.8584
 -80.7389
 -85.1975
 -85.186
 -85.2066
 -85.1889
 -83.8327
 -83.8567
 -83.7096
 -83.8661
 -82.0033
 -81.8401
 -82.0929
 -81.8427
 -85.0662
 -85.0617
 -85.0014
 -85.0426
 -85.0206
 -85.0143
 -82.5566
 -82.8987
 -82.7706
 -83.15
 -83.2277
 -83.371
 -83.3177
 -83.3354
 -77.9455
 -78.3526
 -77.8921
 -82.1727
 -81.9631
 -81.7666
 -44.5554
 -43.8745
 -44.6211
 -44.1459
 -80.8398
 -80.9307
 -74.9593
 -75.4142
 -74.9745
 -73.9543
 -84.256
 -84.1168
 -84.2361
 -84.1024
 -62.0773
 -64.0962
 -64.5802
 -63.2305
 -79.4521
 -79.3638
 -78.946
 -84.8794
 -84.8833
 -84.8698
 -84.8475
 -78.5029
 -79.0604
 -78.2957
 -75.917
 -76.0733
 -74.9455
 -75.47
 -81.7504
 -81.6352
 -81.6358
 -81.9909
 -85.0127
 -85.0592
 -55.6474
 -56.3774
 -80.339
 -80.0414
 -83.4497
 -83.2405
 -83.3344
 -83.2688
 -84.7656
 -84.826
 -84.7803
 -84.8343
 -83.522
 -83.5688
 -83.6528
 -83.6696
 -73.6917
 -71.8756
 -72.9646
 -72.9647
 -84.4665
 -84.3676
 -84.3949
 -78.16
 -77.7882
 -77.9842
 -77.9111
 -85.1814
 -85.1724
 -85.1883
 -85.167
 -84.8608
 -84.8671
 -84.8832
 -84.8194
 -78.8158
 -79.0684
 -78.6615
 -83.235
 -82.9404
 -83.2098
 -83.2831
 -74.9531
 -74.5188
 -74.884
 -78.4882
 -79.2734
 -79.0173
 -78.6892
 -79.2995
 -79.1989
 -79.664
 -79.3382
 -83.3648
 -83.1318
 -83.1236
 -82.9985
 -85.2557
 -85.2531
 -85.2509
 -85.252
 -84.6183
 -84.6922
 -84.6397
 -84.7069
 -82.9558
 -82.61
 -82.8387
 -84.1547
 -84.1005
 -84.0678
 -85.1668
 -85.1367
 -85.1656
 -85.1464
 -84.5801
 -84.553
 -84.5151
 -84.611
 -82.8547
 -83.098
 -83.0265
 -83.1484
 -72.8814
 -72.8144
 -78.7949
 -78.5736
 -79.019
 -79.0127
 -51.7781
 -51.2926
 -49.987
 -51.3283
 -85.0017
 -84.9969
 -85.0073
 -84.9796
 -79.3652
 -78.8719
 -78.9593
 -78.9163
 -83.6407
 -83.5236
 -83.5877
 -83.3715
 -70.3276
 -69.6239
 -69.9213
 -69.6441
 -84.207
 -84.1792
 -84.1317
 -84.1091
 -83.0353
 -84.8882
 -84.9202
 -84.8334
 -84.8446
 -82.8074
 -82.4391
 -82.3932
 -82.6412
 -82.2524
 -82.465
 -82.694
 -82.5345
 -81.4257
 -80.997
 -81.0533
 -81.0098
 -77.8743
 -77.2342
 -78.2513
 -85.0835
 -85.0853
 -85.0869
 -85.043
 -82.4284
 -82.356
 -82.361
 -82.2506
 -85.053
 -85.0586
 -85.0836
 -84.8653
 -84.8149
 -84.8463
 -84.8417
 -85.0076
 -85.0616
 -85.0349
 -85.0624
 -74.6887
 -75.5647
 -74.4899
 -41.8849
 -42.1979
 -42.2779
 -84.8262
 -84.8712
 -84.8786
 -84.229
 -84.4108
 -84.34
 -84.4682
 -82.0175
 -82.1036
 -82.2263
 -81.8516
 -82.9866
 -82.9965
 -82.665
 -82.752
 -58.1863
 -59.0642
 -56.7464
 -59.3504
 -83.5535
 -83.474
 -83.4361
 -83.4277
 -84.5844
 -84.6218
 -84.6323
 -84.5017
 -79.1082
 -79.3164
 -80.541
 -79.8001
 -80.1721
 -80.2368
 -84.8974
 -84.8623
 -84.8938
 -84.8756
 -79.3014
 -79.7127
 -84.6707
 -84.6307
 -74.2893
 -43.4147
 -43.3013
 -43.4426
 -44.1418
 -69.2525
 -70.6509
 -85.2594
 -85.2662
 -85.2604
 -72.276
 -73.2882
 -74.2421
 -73.3411
 -84.9574
 -84.9397
 -80.7044
 -80.5918
 -80.6467
 -80.7014
 -81.5257
 -82.1599
 -81.9887
 -84.9033
 -84.9514
 -84.9217
 -84.9606
 -84.6487
 -84.7299
 -84.679
 -84.701
 -85.1349
 -85.1406
 -85.1599
 -83.0411
 -82.7837
 -83.08
 -82.7495
 -83.7241
 -85.1239
 -85.1041
 -85.1226
 -85.1214
 -75.8468
 -75.7654
 -75.9413
 -76.2477
 -84.1291
 -83.9572
 -84.023
 -83.8759
 -84.9968
 -84.9585
 -84.9878
 -84.9558
 -47.8157
 -48.2336
 -48.6502
 -48.9624
 -78.6235
 -85.2332
 -82.3073
 -82.6325
 -82.3874
 -82.1094
 -83.9532
 -84.0181
 -83.8579
 -83.8473
 -79.2528
 -78.5589
 -78.9164
 -79.1358
 -84.2934
 -84.2457
 -84.306
 -84.3267
 -78.3539
 -78.427
 -78.8045
 -77.0389
 -77.4906
 -77.8924
 -77.4804
 -82.7821
 -82.9463
 -82.5444
 -82.7888
 -84.9923
 -85.0036
 -84.9456
 -85.2615
 -85.2668
 -85.2617
 -85.2627
 -57.4053
 -56.4849
 -56.0446
 -83.5903
 -83.6254
 -82.9743
 -83.0535
 -82.8359
 -83.1814
 -85.2157
 -85.2083
 -85.2184
 -85.2148
 -84.8398
 -84.7984
 -84.8364
 -84.7945
 -77.7001
 -78.6174
 -78.0488
 -66.8605
 -82.7486
 -82.5234
 -82.576
 -82.7995
 -83.2274
 -83.3042
 -83.2501
 -84.8429
 -84.8206
 -84.8106
 -84.8588
 -85.043
 -84.9993
 -85.0288
 -85.0123
 -82.3595
 -82.2285
 -84.92
 -84.9133
 -84.9492
 -84.9778
 -84.3856
 -84.3523
 -84.3568
 -84.4557
 -85.2504
 -85.2515
 -84.4451
 -84.3684
 -84.4942
 -84.4356
 -84.9268
 -84.9459
 -84.963
 -84.9651
 -84.8702
 -84.9024
 -84.8602
 -84.8745
 -83.5972
 -83.6596
 -82.9876
 -83.1136
 -82.9032
 -82.7621
 -81.1947
 -80.872
 -81.0832
 -81.0804
 -84.2794
 -84.3377
 -84.365
 -84.248
 -77.3457
 -77.8752
 -78.0785
 -78.346
 -79.2318
 -79.1399
 -78.9171
 -79.1603
 -54.3066
 -54.6899
 -54.4433
 -53.2463
 -81.1455
 -80.5827
 -84.0667
 -83.8988
 -84.0546
 -83.9553
 -82.3428
 -82.2139
 -82.5021
 -82.64
 -83.8126
 -83.8911
 -83.9232
 -83.8838
 -83.1396
 -83.1123
 -84.8537
 -84.8195
 -85.2601
 -85.2621
 -85.261
 -85.2646
 -73.4301
 -82.9999
 -83.0019
 -83.0831
 -83.2338
 -84.0309
 -83.852
 -83.8887
 -83.8614
 -80.4405
 -80.151
 -79.9917
 -79.6281
 -84.7261
 -84.6558
 -84.7441
 -84.6816
 -83.8138
 -83.702
 -83.6375
 -83.7932
 -78.2987
 -78.169
 -78.4974
 -77.6914
 -77.4913
 -81.8599
 -82.339
 -81.9414
 -82.324
 -81.9808
 -82.5156
 -82.0191
 -81.8703
 -77.9766
 -77.9648
 -77.4847
 -77.9088
 -79.4691
 -79.7173
 -80.3723
 -80.1376
 -82.9316
 -83.1014
 -82.7125
 -82.6923
 -78.6773
 -78.4414
 -78.3098
 -78.4624
 -84.2278
 -84.2909
 -84.1141
 -81.0853
 -81.0671
 -81.0457
 -80.9257
 -64.6784
 -65.796
 -84.1417
 -84.2172
 -84.2645
 -84.1418
 -84.3037
 -84.2275
 -84.2882
 -75.4387
 -75.9593
 -76.3409
 -73.3239
 -73.7604
 -73.7971
 -73.2581
 -84.6364
 -84.638
 -84.6549
 -84.5481
 -83.9649
 -83.7525
 -83.9874
 -85.0792
 -85.0547
 -85.0629
 -83.3132
 -83.1273
 -83.1735
 -85.1229
 -85.1304
 -85.122
 -50.5224
 -49.7295
 -50.0319
 -50.545
 -85.2525
 -85.2529
 -85.2513
 -85.2527
 -81.3745
 -81.0709
 -84.3565
 -84.1725
 -77.217
 -77.3759
 -77.3414
 -77.9677
 -84.458
 -84.4595
 -84.5534
 -84.8827
 -84.9183
 -84.9189
 -84.9271
 -85.0996
 -85.0714
 -76.1287
 -76.1994
 -76.0415
 -84.1882
 -84.1412
 -84.0315
 -80.4049
 -79.8681
 -80.3531
 -75.3357
 -75.375
 -74.9703
 -74.5583
 -82.7547
 -82.8151
 -82.576
 -82.8852
 -82.3832
 -82.0304
 -82.1977
 -82.3137
 -84.6373
 -84.5979
 -84.6111
 -84.685
 -84.917
 -84.9062
 -84.9186
 -84.8789
 -81.893
 -81.7032
 -82.1531
 -84.6403
 -84.6335
 -84.582
 -84.8897
 -84.9193
 -84.8812
 -84.8776
 -85.2664
 -85.2631
 -85.2692
 -83.695
 -83.6899
 -83.6773
 -84.7627
 -84.788
 -84.7095
 -83.4225
 -83.5695
 -83.3091
 -80.8994
 -80.3981
 -80.4524
 -76.3409
 -76.816
 -76.4875
 -76.5205
 -83.2929
 -83.5157
 -83.7224
 -83.5618
 -79.9525
 -79.6693
 -79.2047
 -77.5689
 -78.1526
 -84.8167
 -84.7819
 -84.8664
 -84.8121
 -84.8185
 -84.8425
 -84.8157
 -84.7592
 -78.0791
 -78.6332
 -78.9095
 -79.1568
 -77.9679
 -77.5151
 -77.6684
 -77.4214
 -69.1242
 -68.5489
 -69.2531
 -68.196
 -85.174
 -85.1818
 -85.0905
 -85.0668
 -85.074
 -85.0891
 -85.2326
 -80.753
 -81.1427
 -80.5868
 -83.8454
 -83.9152
 -83.7627
 -83.7604
 -78.6258
 -78.4655
 -83.2539
 -83.2661
 -83.3463
 -74.9941
 -75.3326
 -85.0415
 -85.0502
 -85.0709
 -85.034
 -85.1252
 -85.1247
 -85.1462
 -85.1445
 -84.9827
 -84.9836
 -84.939
 -81.2437
 -81.516
 -81.4818
 -85.0763
 -85.08
 -85.0885
 -85.0978
 -80.0604
 -79.3232
 -79.8887
 -80.1119
 -85.0267
 -85.0055
 -85.0097
 -85.0285
 -80.0003
 -79.2611
 -79.0836
 -80.2306
 -75.7269
 -76.1422
 -75.2857
 -85.2415
 -85.2528
 -85.2449
 -85.246
 -77.9332
 -78.0691
 -78.014
 -82.822
 -82.9773
 -83.0498
 -82.9482
 -85.196
 -85.2084
 -85.2021
 -79.5092
 -79
 -79.3146
 -78.9412
 -84.5425
 -85.1746
 -85.1789
 -85.1557
 -85.1734
 -75.2022
 -75.386
 -75.7304
 -75.4068
 -84.8676
 -84.783
 -84.8458
 -84.8715
 -83.8262
 -83.9018
 -83.5987
 -75.7061
 -74.9937
 -75.883
 -73.8071
 -84.7111
 -84.7209
 -84.7433
 -79.2681
 -79.1259
 -51.8437
 -50.8828
 -52.2867
 -52.704
 -68.921
 -66.5573
 -66.1888
 -85.0853
 -85.0732
 -85.1489
 -85.1245
 -85.1298
 -85.1344
 -72.0239
 -72.6743
 -71.1632
 -72.7307
 -82.4316
 -82.6028
 -82.6127
 -82.6178
 -83.2269
 -82.9193
 -82.9635
 -83.0972
 -83.9367
 -83.904
 -84.0462
 -83.8754
 -84.1593
 -83.9414
 -84.1056
 -84.0102
 -85.2061
 -78.2429
 -78.0771
 -78.2801
 -78.1137
 -85.2219
 -85.2175
 -85.2278
 -84.3426
 -84.1995
 -84.1663
 -84.2132
 -75.9477
 -76.6937
 -76.8392
 -83.7817
 -83.6421
 -83.7728
 -83.6104
 -83.4802
 -84.6253
 -84.6569
 -84.7028
 -84.6926
 -80.5142
 -80.5741
 -80.5056
 -83.5327
 -83.8619
 -83.8078
 -85.2182
 -85.2124
 -85.2063
 -85.2126
 -83.1815
 -83.0122
 -83.024
 -48.3881
 -49.0185
 -47.7629
 -83.2
 -83.0433
 -83.1322
 -82.8516
 -84.7045
 -84.7417
 -84.7589
 -83.6732
 -83.6436
 -85.1411
 -85.1429
 -85.1308
 -85.1295
 -85.0075
 -85.0296
 -85.0091
 -85.014
 -85.2559
 -85.2552
 -85.2511
 -85.2496
 -84.1889
 -83.9255
 -84.1231
 -84.1827
 -84.8245
 -84.8335
 -84.8018
 -84.7546
 -85.1432
 -85.1537
 -85.161
 -80.0658
 -80.3469
 -79.6326
 -79.8498
 -82.8386
 -83.0801
 -81.8169
 -81.6012
 -81.9156
 -81.7497
 -84.7833
 -84.7559
 -84.7799
 -84.8017
 -83.2179
 -83.4401
 -83.3142
 -83.1973
 -84.8016
 -84.7764
 -84.8608
 -84.7966
 -83.6066
 -83.6829
 -83.7501
 -83.8148
 -83.5059
 -83.3083
 -83.3647
 -85.1053
 -85.0906
 -85.1089
 -85.1983
 -85.1943
 -85.191
 -85.2127
 -85.2009
 -85.1982
 -85.2071
 -84.9212
 -84.9555
 -84.92
 -56.3876
 -55.6496
 -54.9796
 -82.8169
 -83.0997
 -82.8704
 -85.0976
 -85.1104
 -85.1036
 -85.0949
 -82.7914
 -82.9057
 -82.7751
 -84.1848
 -84.2895
 -84.1877
 -84.1475
 -84.4961
 -84.2806
 -84.3836
 -84.3409
 -83.53
 -83.6579
 -83.6562
 -83.7909
 -78.9072
 -79.2692
 -78.9711
 -78.7906
 -82.894
 -84.1925
 -84.208
 -84.2728
 -84.0369
 -77.7893
 -77.9008
 -77.9708
 -77.9425
 -75.7525
 -76.3551
 -75.917
 -76.2443
 -77.9697
 -77.9541
 -78.1381
 -77.58
 -84.5907
 -84.6244
 -84.6691
 -84.705
 -79.947
 -79.5995
 -79.8273
 -79.9625
 -85.2207
 -85.2111
 -85.2221
 -85.2134
 -65.9348
 -66.5797
 -67.6304
 -67.3309
 -78.9465
 -78.985
 -78.905
 -74.455
 -74.0336
 -73.8356
 -73.8492
 -76.6757
 -76.284
 -77.1294
 -78.3288
 -78.3867
 -83.8304
 -83.8006
 -83.8794
 -84.1309
 -85.215
 -85.2029
 -85.1969
 -85.2017
 -85.1993
 -85.2049
 -85.1962
 -78.7787
 -78.4783
 -85.215
 -85.2216
 -85.2121
 -85.1093
 -85.1026
 -85.1029
 -85.1282
 -76.7717
 -76.4962
 -76.7324
 -85.2529
 -85.2533
 -85.2499
 -85.2569
 -81.2939
 -81.4095
 -81.6566
 -81.1066
 -78.1879
 -77.3424
 -77.5872
 -78.1952
 -74.2868
 -75.359
 -74.9093
 -74.7067
 -61.234
 -61.3805
 -60.5008
 -60.4437
 -84.4056
 -84.5704
 -84.524
 -84.5108
 -81.8147
 -81.8756
 -81.7034
 -81.3096
 -85.2411
 -85.2396
 -85.2416
 -46.6166
 -47.8133
 -47.1372
 -48.3435
 -69.0581
 -70.5524
 -69.5088
 -70.8299
 -85.2481
 -85.254
 -85.2518
 -85.2508
 -83.6964
 -83.72
 -83.8795
 -85.1696
 -85.1878
 -85.1922
 -77.8375
 -77.6882
 -76.7483
 -85.24
 -85.2409
 -85.2363
 -85.2373
 -85.0623
 -85.0425
 -85.0327
 -85.0203
 -80.4029
 -80.6694
 -80.9616
 -80.5965
 -81.9392
 -81.5888
 -81.8433
 -81.3836
 -85.0233
 -85.0234
 -85.0169
 -85.0492
 -84.0402
 -83.9677
 -83.8438
 -83.9283
 -63.5018
 -64.9432
 -65.2072
 -64.5866
 -85.1248
 -85.0896
 -85.1124
 -85.0995
 -85.2503
 -83.5468
 -83.6001
 -83.7205
 -83.7082
 -85.1865
 -85.1954
 -85.1891
 -85.2037
 -78.0136
 -78.0328
 -78.0631
 -78.1029
 -85.223
 -85.2286
 -85.2174
 -85.2145
 -83.3574
 -83.2674
 -82.0263
 -81.8575
 -82.1552
 -82.1928
 -84.9513
 -84.9104
 -84.9026
 -84.9165
 -84.1245
 -84.2371
 -84.171
 -81.7087
 -81.6684
 -81.7804
 -84.9999
 -84.9842
 -84.9529
 -84.9653
 -84.7716
 -84.7428
 -84.7957
 -84.746
 -78.5993
 -78.3502
 -78.1664
 -83.472
 -83.8732
 -83.8935
 -83.6435
 -67.2045
 -65.8422
 -67.3848
 -65.3471
 -64.0668
 -85.2345
 -85.2121
 -85.2341
 -85.2238
 -83.8421
 -83.73
 -83.6596
 -83.8372
 -85.1141
 -85.1275
 -82.8594
 -82.4641
 -82.5567
 -80.1188
 -79.7077
 -80.3253
 -80.207
 -85.2321
 -85.2258
 -85.2375
 -85.2347
 -78.5178
 -78.6148
 -78.5861
 -80.5581
 -80.4461
 -80.7987
 -80.4837
 -81.726
 -82.1601
 -81.8048
 -81.3497
 -84.7418
 -84.8196
 -84.7363
 -84.7749
 -79.6422
 -80.2166
 -79.9349
 -79.8288
 -84.8984
 -84.5218
 -84.617
 -84.6399
 -84.4759
 -85.1909
 -85.1956
 -85.1778
 -85.2193
 -85.2173
 -85.216
 -85.2095
 -84.5581
 -84.6189
 -84.5256
 -84.5815
 -85.2516
 -85.2494
 -85.2472
 -85.2401
 -81.8545
 -84.1659
 -83.9779
 -84.0178
 -84.1333
 -83.832
 -83.5347
 -83.7174
 -83.7166
 -61.6616
 -63.2707
 -63.771
 -62.1851
 -82.9817
 -83.0417
 -83.1216
 -82.8442
 -82.8452
 -82.8348
 -82.9118
 -83.087
 -83.1024
 -83.114
 -83.3419
 -85.1591
 -85.1488
 -85.1429
 -82.8574
 -82.4848
 -82.592
 -82.6818
 -85.1031
 -85.1253
 -85.1169
 -83.4435
 -83.2326
 -84.0091
 -84.1095
 -84.0655
 -83.7961
 -83.7204
 -83.765
 -83.7854
 -83.8167
 -84.0158
 -83.956
 -85.1896
 -85.1929
 -85.1929
 -81.8514
 -85.2208
 -84.0653
 -84.1435
 -84.0163
 -83.9347
 -75.9998
 -75.8193
 -75.0278
 -78.0928
 -78.7001
 -79.1325
 -83.9208
 -83.9983
 -83.8027
 -83.2131
 -83.2201
 -83.2751
 -83.4029
 -83.8342
 -83.6869
 -83.9575
 -83.7414
 -47.6349
 -47.9583
 -46.8569
 -84.9882
 -84.9569
 -84.9743
 -83.4611
 -83.4981
 -85.0281
 -85.0052
 -85.0205
 -84.9923
 -84.2157
 -84.312
 -84.1985
 -61.5597
 -62.5704
 -60.611
 -61.1693
 -82.6626
 -82.4065
 -82.7246
 -82.1838
 -79.1754
 -78.9877
 -78.7676
 -78.663
 -84.7103
 -84.6118
 -84.677
 -84.7118
 -81.3109
 -80.8126
 -81.2561
 -80.6361
 -66.5465
 -66.345
 -66.563
 -81.6149
 -81.5087
 -81.3223
 -81.432
 -84.6807
 -84.7521
 -84.7103
 -84.7396
 -83.6785
 -83.8852
 -83.8735
 -83.7832
 -80.0434
 -79.8676
 -80.1318
 -82.5231
 -82.2759
 -82.3732
 -82.3574
 -78.5379
 -77.8498
 -78.57
 -78.0467
 -73.8262
 -74.951
 -74.3459
 -73.3152
 -85.2447
 -85.2456
 -85.2412
 -85.2447
 -78.604
 -78.9672
 -78.8687
 -78.9793
 -79.7444
 -79.4148
 -79.8199
 -79.8616
 -84.6365
 -84.6941
 -84.7051
 -84.7411
 -81.0142
 -81.034
 -81.4098
 -81.1402
 -85.2669
 -85.2652
 -85.2655
 -85.2688
 -83.172
 -83.067
 -83.2902
 -76.73
 -76.249
 -76.3936
 -77.0792
 -78.4149
 -78.2276
 -78.335
 -78.2015
 -77.8429
 -76.6368
 -84.884
 -84.8151
 -84.8684
 -84.7975
 -85.274
 -85.2728
 -85.2741
 -85.2734
 -82.2619
 -81.9778
 -82.0958
 -81.93
 -79.0791
 -78.8472
 -78.803
 -84.6961
 -84.615
 -84.6332
 -84.676
 -82.8834
 -82.9551
 -82.8641
 -83.2198
 -80.1178
 -80.244
 -80.0966
 -80.4648
 -76.1154
 -77.0348
 -76.5127
 -84.9746
 -85.0133
 -85.0276
 -84.9803
 -85.1464
 -85.1313
 -85.1243
 -82.1997
 -82.002
 -82.2526
 -82.5378
 -82.5211
 -82.4736
 -82.7519
 -79.7836
 -80.4154
 -80.7003
 -80.3374
 -84.6355
 -84.5664
 -84.5453
 -77.8339
 -77.7379
 -77.1803
 -83.6393
 -83.7816
 -83.7611
 -85.1231
 -85.105
 -85.1307
 -84.7583
 -84.7569
 -81.6081
 -81.8063
 -81.4454
 -81.7289
 -81.842
 -81.7012
 -83.3828
 -83.1242
 -79.9608
 -75.3412
 -75.4117
 -74.8251
 -85.1094
 -85.1116
 -85.079
 -82.1113
 -82.3942
 -82.3043
 -82.1279
 -80.6667
 -83.5976
 -83.6687
 -84.7119
 -84.7524
 -84.6874
 -84.7623
 -83.5296
 -83.4403
 -83.6228
 -82.2647
 -82.4218
 -81.9858
 -82.2226
 -81.5511
 -82.0829
 -82.8374
 -82.5816
 -82.3847
 -82.8875
 -85.1748
 -85.1585
 -85.1555
 -85.1701
 -85.1968
 -85.2027
 -85.2087
 -85.2113
 -77.8883
 -78.3421
 -83.3068
 -83.4327
 -83.2933
 -83.0729
 -84.2933
 -84.3209
 -84.3862
 -84.4207
 -84.4516
 -84.5295
 -84.4725
 -84.4399
 -83.4103
 -83.2292
 -83.1707
 -83.4053
 -82.8776
 -83.0742
 -82.9354
 -82.8665
 -85.1219
 -85.0928
 -85.1246
 -85.1218
 -77.7944
 -78.4289
 -78.8542
 -79.1581
 -78.4883
 -79.085
 -78.8104
 -84.9813
 -85.007
 -85.0421
 -85.0623
 -80.0023
 -80.3587
 -80.1847
 -80.4493
 -85.2355
 -85.2282
 -85.2336
 -85.2331
 -85.1612
 -85.1528
 -85.1614
 -85.1451
 -81.9398
 -82.1062
 -81.8359
 -81.9721
 -84.7956
 -84.8184
 -84.8044
 -84.7412
 -80.3316
 -80.5381
 -80.8661
 -80.9416
 -85.0111
 -84.9866
 -84.9902
 -78.6203
 -78.927
 -78.5409
 -78.7202
 -84.4717
 -84.4157
 -84.488
 -84.5236
 -81.5581
 -81.6435
 -84.9339
 -85.0063
 -84.9736
 -84.974
 -85.0513
 -85.0428
 -85.0169
 -83.0944
 -83.3968
 -83.1535
 -85.0624
 -85.0684
 -85.081
 -85.0911
 -68.0761
 -68.293
 -69.2649
 -69.1293
 -79.9711
 -80.2212
 -80.4441
 -80.691
 -84.4084
 -84.268
 -84.288
 -84.3992
 -85.1685
 -85.1775
 -85.1648
 -85.182
 -85.1386
 -85.1548
 -85.1544
 -85.1451
 -85.1419
 -85.1309
 -85.1432
 -85.1711
 -85.1787
 -80.6296
 -80.8472
 -80.5556
 -80.9605
 -78.4905
 -78.6128
 -77.7981
 -78.4068
 -80.8364
 -80.8384
 -81.7411
 -82.097
 -81.8482
 -81.7057
 -82.6147
 -82.5712
 -82.8569
 -82.5648
 -79.5008
 -79.5111
 -79.1285
 -83.6592
 -83.5481
 -83.5647
 -83.5174
 -85.2747
 -85.2736
 -85.2698
 -80.7854
 -80.6205
 -80.8164
 -81.2737
 -84.9947
 -84.944
 -84.9712
 -84.9841
 -84.6991
 -84.7541
 -84.7182
 -83.4103
 -83.3024
 -83.4826
 -84.8248
 -84.8806
 -84.8396
 -85.115
 -85.1069
 -84.75
 -84.7495
 -84.741
 -80.3469
 -80.5152
 -80.5925
 -80.1332
 -85.205
 -85.2126
 -85.2083
 -85.2044
 -84.5132
 -84.5748
 -84.555
 -58.0318
 -56.3512
 -55.7289
 -57.6361
 -75.4421
 -75.0089
 -84.1093
 -81.7919
 -82.2991
 -81.9561
 -81.7874
 -83.8991
 -84.0781
 -84.0756
 -85.0117
 -85.0084
 -84.9837
 -85.0179
 -85.2469
 -85.2479
 -83.5566
 -83.5051
 -83.5117
 -83.3562
 -73.991
 -72.7896
 -72.8468
 -73.6568
 -85.1574
 -85.1657
 -85.1671
 -85.1597
 -84.2676
 -84.3182
 -84.2358
 -48.86
 -48.1666
 -47.5629
 -47.6466
 -78.6026
 -78.4874
 -78.1684
 -80.8602
 -81.2378
 -80.5451
 -80.9557
 -84.4234
 -84.4455
 -84.4071
 -84.5205
 -83.4836
 -83.6089
 -77.641
 -77.7542
 -77.7168
 -77.7379
 -84.3755
 -84.4664
 -81.2118
 -80.5171
 -80.6611
 -80.9048
 -82.2118
 -82.3242
 -81.9879
 -82.237
 -83.6589
 -83.8568
 -83.8649
 -83.7389
 -80.2331
 -79.9522
 -79.3562
 -84.6459
 -84.5844
 -84.6704
 -84.5788
 -84.9877
 -85.0194
 -85.0415
 -85.0058
 -84.928
 -84.9418
 -84.9554
 -84.9655
 -72.648
 -71.7145
 -72.1093
 -71.1595
 -83.7595
 -83.6239
 -54.1756
 -53.1887
 -53.2331
 -52.2497
 -82.3197
 -82.0624
 -81.8608
 -85.2091
 -44.3291
 -44.6998
 -44.7923
 -43.4941
 -83.0252
 -83.0898
 -82.9723
 -82.9721
 -81.6013
 -81.9398
 -81.6536
 -84.9256
 -84.9671
 -84.9553
 -84.9305
 -84.9504
 -84.9331
 -84.9797
 -84.9829
 -84.8671
 -84.9002
 -84.8608
 -84.8381
 -80.582
 -80.9026
 -80.3904
 -80.8528
 -77.7092
 -77.4585
 -76.9076
 -77.054
 -84.514
 -84.5375
 -84.6083
 -84.5222
 -82.4049
 -81.9208
 -82.5841
 -82.335
 -85.2672
 -85.1735
 -85.1715
 -84.2969
 -84.3075
 -82.364
 -82.1231
 -82.2033
 -85.19
 -85.2057
 -85.1983
 -85.1922
 -82.8466
 -82.7503
 -84.3919
 -84.2991
 -61.3937
 -63.0597
 -61.3756
 -63.0591
 -80.517
 -80.3203
 -80.0171
 -80.1842
 -84.3434
 -84.4681
 -84.3871
 -84.4125
 -63.9263
 -62.6742
 -63.7798
 -64.3421
 -85.235
 -85.2327
 -85.2415
 -85.2378
 -85.1864
 -85.1748
 -85.221
 -85.2124
 -85.2013
 -85.2228
 -85.0291
 -85.0529
 -81.7295
 -81.8191
 -81.5152
 -45.4803
 -46.4454
 -45.2007
 -45.4101
 -65.9364
 -66.9001
 -67.2266
 -66.158
 -85.1974
 -85.2048
 -85.1968
 -85.1926
 -84.7773
 -84.832
 -84.7869
 -83.9755
 -83.8049
 -83.7011
 -83.8508
 -80.9954
 -81.6146
 -81.0752
 -80.9555
 -85.0819
 -85.0991
 -85.1062
 -85.1983
 -83.6613
 -83.8879
 -79.9107
 -80.0898
 -84.7168
 -84.8075
 -84.7172
 -84.7485
 -77.5468
 -76.7324
 -77.7956
 -76.7191
 -77.7131
 -77.1479
 -77.3436
 -47.4087
 -48.9293
 -48.4837
 -48.2854
 -80.6819
 -80.9608
 -80.9713
 -81.289
 -85.1323
 -85.1356
 -85.0836
 -85.0992
 -85.0986
 -85.0984
 -80.1692
 -80.108
 -80.5344
 -79.9617
 -84.9694
 -84.9491
 -84.9839
 -84.7817
 -84.7962
 -84.794
 -84.7391
 -85.0942
 -85.0954
 -85.0729
 -85.1064
 -81.1306
 -81.5241
 -81.3875
 -81.1677
 -85.224
 -85.2133
 -82.8608
 -58.331
 -59.2054
 -59.8397
 -60.6254
 -84.9317
 -84.9344
 -84.9596
 -66.6815
 -65.6036
 -65.7146
 -65.1231
 -84.6247
 -84.615
 -84.5868
 -84.6552
 -76.9128
 -76.885
 -76.2388
 -77.0248
 -79.4947
 -79.3258
 -79.7052
 -79.7502
 -84.5849
 -84.6297
 -84.6172
 -81.854
 -81.9414
 -81.8087
 -81.5617
 -84.6003
 -84.5583
 -84.6227
 -84.4855
 -84.137
 -84.1055
 -84.9657
 -84.9783
 -84.9802
 -84.769
 -84.7771
 -84.6982
 -58.5781
 -58.8189
 -60.1673
 -58.9143
 -77.9665
 -78.4578
 -77.6794
 -78.6405
 -85.079
 -85.0436
 -85.0587
 -85.055
 -85.0824
 -85.0826
 -79.5785
 -80.5765
 -79.6796
 -84.7909
 -84.7315
 -84.7634
 -84.7182
 -84.7763
 -84.7698
 -84.7388
 -80.8261
 -80.6154
 -80.8885
 -80.9282
 -85.1784
 -85.1856
 -81.9806
 -81.8596
 -81.9764
 -82.2265
 -80.4758
 -80.5267
 -80.6924
 -84.8588
 -84.8762
 -83.4172
 -83.2607
 -83.5094
 -83.592
 -78.0424
 -77.9042
 -84.5988
 -84.6033
 -82.0967
 -81.4984
 -81.5429
 -81.892
 -83.7143
 -83.698
 -83.6168
 -83.8438
 -83.7025
 -83.6118
 -83.7326
 -70.463
 -70.3268
 -69.9123
 -72.1
 -65.631
 -65.7888
 -66.7365
 -66.6903
 -84.6571
 -84.5943
 -84.5175
 -84.5912
 -85.1023
 -85.1034
 -85.0855
 -85.0843
