 18.7034
 18.5931
 18.6257
 18.5492
 16.6071
 16.5916
 16.5219
 16.4869
 17.1884
 17.2628
 17.1688
 17.2691
 17.1069
 17.1673
 17.2172
 17.2391
 15.8635
 15.7551
 15.9119
 15.9382
 15.9072
 15.9935
 15.8398
 15.9614
 19.1112
 19.1945
 19.1678
 19.1109
 19.0836
 19.0489
 19.0486
 19.1068
 15.846
 15.889
 15.9824
 15.8795
 15.9398
 15.9256
 15.9621
 15.8105
 19.3815
 19.4336
 19.3536
 19.3385
 17.1437
 17.1377
 17.2144
 17.1626
 18.2891
 18.3039
 18.3655
 18.2321
 16.604
 16.7233
 16.7598
 16.6879
 17.5385
 17.5534
 17.5049
 17.4424
 18.8527
 18.9123
 18.8104
 18.9102
 16.2297
 16.1606
 16.2254
 16.117
 16.9375
 16.9895
 16.9147
 16.9726
 17.5385
 17.5233
 17.5097
 17.4604
 16.1921
 16.2011
 16.1545
 16.0775
 19.028
 19.1194
 19.0219
 19.0871
 15.614
 15.6171
 15.5078
 15.4878
 20.015
 20.0649
 20.0628
 19.9931
 16.8254
 16.7726
 16.8519
 16.8693
 17.656
 17.7039
 17.6203
 17.6044
 17.4239
 17.4136
 17.4593
 17.4857
 18.0067
 17.9232
 17.8831
 17.9941
 18.8684
 18.9286
 18.8558
 18.8596
 18.3409
 18.3628
 18.4381
 18.3912
 16.7002
 16.7172
 16.7457
 16.8095
 17.6058
 17.4701
 17.6269
 17.5841
 18.2812
 18.2125
 18.2196
 18.2772
 17.0159
 17.1085
 17.0145
 17.092
 16.5764
 16.6197
 16.6194
 16.6083
 18.2949
 18.383
 18.2873
 18.4168
 18.776
 18.7825
 18.7973
 18.7941
 17.0654
 17.1725
 17.094
 17.1012
 19.2029
 19.1713
 19.1529
 19.1436
 16.8459
 16.8327
 16.6845
 16.7208
 15.3066
 15.4208
 15.3386
 15.4422
 17.3298
 17.3579
 17.3161
 17.4207
 16.7509
 16.6765
 16.7077
 16.7568
 19.1271
 19.1299
 19.0583
 19.182
 16.9882
 17.0642
 17.0316
 16.9509
 15.8492
 15.8841
 15.7952
 15.8501
 18.503
 18.4357
 18.4659
 18.4977
 17.002
 16.873
 16.9079
 16.8844
 18.7485
 18.6726
 18.727
 18.806
 18.2884
 18.3399
 18.3689
 18.3905
 17.5266
 17.5887
 17.6005
 17.6737
 18.8864
 18.9197
 18.9443
 18.8757
 17.3662
 17.4409
 17.4301
 17.3808
 18.1396
 18.2239
 18.1252
 18.2564
 17.3279
 17.2775
 17.3198
 17.2817
 18.378
 18.3092
 18.3631
 18.2614
 17.2011
 17.2112
 17.1402
 17.2702
 16.7691
 16.7675
 16.7137
 16.6592
 16.7199
 16.7883
 16.748
 16.8629
 18.4474
 18.4693
 18.5577
 18.4157
 17.9534
 17.9965
 17.9939
 17.8942
 19.8872
 19.9236
 19.97
 19.9148
 18.3784
 18.4039
 18.4749
 18.3895
 17.6439
 17.528
 17.5875
 17.5729
 18.1263
 18.1276
 18.015
 18.1836
 18.2222
 18.1399
 18.2272
 18.1524
 18.961
 19.0075
 18.9419
 18.9437
 16.1493
 16.0418
 15.9923
 16.1547
 15.9062
 15.8711
 15.8239
 15.7894
 17.4737
 17.369
 17.5407
 17.4807
 18.3479
 18.3708
 18.3183
 18.4154
 16.817
 16.7835
 16.7335
 16.8234
 18.9909
 19.1522
 19.0876
 19.084
 19.0293
 19.0931
 19.125
 19.0213
 20.0451
 20.0994
 20.0335
 20.0463
 17.2642
 17.1584
 17.2272
 17.1448
 18.4945
 18.4083
 18.3929
 18.4833
 18.6739
 18.7316
 18.6351
 18.6317
 15.7141
 15.6025
 15.6436
 15.5873
 18.8446
 18.8847
 18.9479
 18.8647
 18.6917
 18.7324
 18.7778
 18.6963
 18.5462
 18.4876
 18.558
 18.6207
 17.8201
 17.8376
 17.7682
 17.7783
 18.6339
 18.5432
 18.6104
 18.5802
 18.3024
 18.2623
 18.2371
 18.277
 17.9485
 17.9723
 18.0067
 18.0338
 18.7926
 18.8905
 18.7729
 18.8846
 20.2254
 20.2354
 20.1539
 20.1538
 18.9701
 18.942
 18.8903
 18.9324
 17.188
 17.2561
 17.1662
 17.2955
 17.1775
 17.2186
 17.1495
 17.2353
 16.7363
 16.8079
 16.8124
 16.7435
 19.1598
 19.1716
 19.147
 19.1119
 15.4911
 15.5071
 15.5863
 15.4343
 16.8632
 16.7829
 16.8809
 16.8498
 19.1765
 19.1719
 19.2445
 19.2621
 18.2561
 18.2647
 18.2902
 18.161
 18.7152
 18.6569
 18.7827
 18.7334
 18.6966
 18.7336
 18.7404
 19.1263
 19.1361
 19.1455
 19.1791
 17.0017
 17.0577
 17.1186
 16.9727
 17.9759
 17.8623
 17.8991
 17.9549
 17.1517
 17.0624
 17.1438
 18.3577
 18.4669
 18.3923
 18.4231
 17.7832
 17.7085
 17.7347
 17.8299
 16.2848
 16.4347
 16.4231
 16.24
 18.9914
 18.9821
 18.8845
 18.9198
 18.7466
 18.8014
 18.8487
 18.7928
 17.2672
 17.3665
 17.3816
 17.3447
 16.8763
 16.9345
 16.7959
 16.8031
 19.1125
 19.0925
 19.125
 19.1798
 18.7859
 18.7609
 18.6355
 18.6734
 18.037
 17.9438
 17.8919
 18.0232
 15.9855
 15.9249
 15.9582
 15.9367
 17.225
 17.1299
 17.0897
 17.1372
 17.6869
 17.8144
 17.716
 17.6867
 19.9233
 20.006
 19.9228
 19.9252
 17.8901
 17.9493
 17.8492
 17.8004
 16.2903
 16.3967
 16.291
 16.4225
 18.5678
 18.6863
 18.5205
 18.5496
 18.8234
 18.8084
 18.8855
 18.8394
 18.8262
 18.9036
 18.887
 18.8655
 19.4984
 19.5068
 19.5045
 19.4662
 18.604
 18.7241
 18.713
 18.7159
 17.2476
 17.2521
 17.2378
 17.3083
 19.1589
 19.1282
 19.1041
 19.0779
 16.1487
 16.2364
 16.1562
 16.1314
 19.0181
 19.1137
 19.1068
 19.0245
 16.3399
 16.4812
 16.3218
 16.4133
 17.9832
 18.0502
 18.047
 17.9963
 18.143
 18.0614
 18.0392
 18.1139
 18.4632
 18.4629
 18.3533
 18.4332
 18.6256
 18.6257
 18.6983
 18.7119
 15.6048
 15.5013
 15.4713
 15.4888
 18.5606
 18.6174
 18.5588
 18.6046
 15.3193
 15.4167
 15.3522
 15.4902
 16.8461
 16.882
 16.7707
 16.8535
 19.7193
 19.6398
 19.6552
 19.7204
 15.7546
 15.7697
 15.7002
 15.6659
 18.8489
 18.772
 18.8463
 18.9116
 19.6747
 19.7295
 19.7565
 19.6795
 16.5466
 16.5807
 16.6306
 16.5883
 15.8037
 15.6741
 15.774
 15.8299
 17.4542
 17.4431
 17.475
 17.5051
 16.655
 16.7626
 16.6345
 16.7544
 18.745
 18.8381
 18.7831
 18.8102
 17.3019
 17.3395
 17.3089
 17.2329
 18.2159
 18.2331
 18.1689
 18.1621
 19.0614
 19.0199
 19.0804
 19.0814
 19.3377
 19.3529
 19.3626
 19.2867
 17.9334
 17.963
 17.884
 17.992
 17.692
 17.7088
 17.7279
 17.7874
 18.7773
 18.7876
 18.7216
 18.7147
 18.7721
 18.8871
 18.7857
 18.7941
 17.1298
 17.107
 17.1712
 17.1805
 15.8737
 15.9504
 15.8072
 15.7774
 16.0702
 16.1234
 16.0474
 16.0176
 16.1234
 16.2269
 16.2019
 16.1429
 16.8908
 16.9461
 16.8625
 16.9466
 18.7719
 18.8859
 18.8017
 18.8327
 18.7315
 18.6704
 18.65
 18.6369
 17.6897
 17.7457
 17.8269
 17.8507
 16.8931
 16.9387
 16.8187
 16.8848
 16.9245
 16.9733
 16.9335
 16.8665
 17.4929
 17.5739
 17.5099
 17.4924
 17.2071
 17.1292
 17.2235
 17.2099
 19.2256
 19.2342
 19.1901
 19.1195
 20.4733
 20.5246
 20.4642
 20.5471
 18.5511
 18.5588
 18.6444
 18.5929
 20.277
 20.1983
 20.2159
 18.611
 18.6312
 18.5781
 18.665
 16.1569
 16.2204
 16.1764
 16.2384
 17.5766
 17.5394
 17.5116
 17.4438
 15.9937
 16.04
 15.9399
 16.0595
 18.8028
 18.7911
 18.8825
 18.8121
 16.9314
 16.931
 16.7798
 16.8192
 17.4717
 17.4957
 17.5896
 17.5229
 15.6412
 15.5769
 15.5549
 15.7396
 16.5401
 16.5616
 16.5199
 16.4399
 18.5253
 18.4457
 18.4998
 18.528
 16.8943
 16.9038
 16.9895
 16.8805
 16.3764
 16.5179
 16.4462
 16.4935
 19.6537
 19.743
 19.721
 19.7372
 17.5961
 17.5657
 17.5082
 17.4968
 16.3604
 16.3236
 16.3177
 16.4048
 17.1551
 17.0759
 17.2118
 17.0227
 16.3571
 16.4603
 16.3473
 16.352
 18.697
 18.6197
 18.5773
 18.595
 16.4936
 16.3309
 16.5131
 16.3632
 17.9751
 17.931
 18.0614
 17.9759
 17.8156
 17.7839
 17.7299
 17.8356
 16.5395
 16.5814
 16.6444
 16.493
 15.3635
 15.4466
 15.4498
 15.3908
 19.2526
 19.2082
 19.1634
 19.1358
 18.3336
 18.2536
 18.2166
 18.3139
 17.2523
 17.3124
 17.3471
 17.3224
 16.592
 16.5232
 16.5496
 16.5117
 18.527
 18.6011
 18.5654
 18.5562
 19.0857
 19.0012
 18.9592
 19.068
 16.8511
 16.8451
 16.9662
 16.9519
 17.0571
 16.9815
 17.0629
 17.0267
 15.7324
 15.64
 15.56
 15.7229
 18.8981
 18.7926
 18.9185
 18.8535
 15.8501
 15.7519
 15.7671
 15.8323
 18.3404
 18.2583
 18.3278
 18.3539
 20.4203
 20.4287
 20.3898
 20.3751
 16.1479
 16.1095
 16.0343
 16.0906
 17.0313
 16.9815
 17.0829
 17.1572
 16.2383
 16.2233
 16.2887
 16.2917
 17.7555
 17.855
 17.7953
 17.7503
 17.9492
 17.9095
 17.8917
 17.9382
 16.6524
 16.7673
 16.7602
 16.7174
 18.7854
 18.7447
 18.8263
 18.7672
 18.9515
 18.9083
 18.8968
 18.9403
 20.0073
 20.0428
 20.0575
 20.0718
 17.405
 17.3531
 17.3102
 17.2779
 17.6675
 17.7001
 17.5573
 17.6556
 17.2056
 17.3471
 17.2369
 17.177
 18.2817
 18.1628
 18.1496
 18.2974
 15.8012
 15.8023
 15.7437
 15.9113
 15.7792
 15.6231
 15.7792
 15.8002
 17.1217
 17.0812
 17.0114
 17.003
 20.925
 20.9377
 20.9105
 20.86
 17.9657
 18.016
 17.952
 18.0624
 17.9304
 17.9511
 18.0474
 17.9511
 17.9737
 17.9514
 18.0607
 18.0533
 16.5438
 16.5859
 16.4623
 16.5936
 19.8251
 19.7401
 19.8691
 19.8265
 20.0399
 20.0547
 20.1011
 20.1391
 16.4516
 16.5218
 16.4549
 16.559
 18.4085
 18.3043
 18.4477
 18.3239
 18.164
 18.1839
 18.1483
 18.1443
 16.9883
 17.0239
 17.0635
 17.1458
 18.8932
 18.8461
 18.8171
 18.8617
 16.4991
 16.5718
 16.5616
 16.485
 18.2622
 18.406
 18.3424
 18.4566
 18.3777
 18.3844
 18.4562
 18.403
 19.0983
 19.1437
 19.06
 19.1493
 18.059
 17.9557
 18.0083
 17.9374
 16.327
 16.2787
 16.2911
 16.3549
 16.9331
 16.8367
 16.8008
 16.8883
 18.8627
 18.8721
 18.8013
 18.8035
 18.5471
 18.4455
 18.4459
 18.5431
 16.0719
 16.0287
 15.9582
 16.0087
 16.577
 16.659
 16.6139
 16.6335
 17.8918
 17.9261
 17.9784
 17.9223
 19.1989
 19.1793
 19.1834
 19.1513
 19.5212
 19.4054
 19.4338
 19.5112
 17.0845
 17.1871
 17.2267
 17.1453
 18.9997
 19.0748
 19.0024
 19.152
 16.166
 16.2868
 16.2787
 16.1755
 17.2732
 17.149
 17.2194
 17.2929
 16.523
 16.5557
 16.5936
 16.5346
 16.8799
 16.9979
 16.9843
 16.9128
 17.9574
 18.0099
 17.9499
 17.8942
 18.7036
 18.8465
 18.8146
 18.7511
 19.3934
 19.276
 19.3764
 19.3677
 19.1216
 19.2235
 19.1134
 19.1437
 18.7264
 18.8127
 18.8276
 18.7726
 17.8343
 17.8022
 17.7986
 17.9507
 17.8533
 17.789
 17.8153
 17.8839
 17.7636
 17.8361
 17.6998
 17.7743
 17.1702
 17.2204
 17.1291
 17.1458
 19.7532
 19.8369
 19.7906
 19.7978
 17.5404
 17.5129
 17.5539
 17.4603
 18.8779
 18.9605
 18.9229
 18.9047
 18.1776
 18.0651
 18.1476
 18.0871
 15.8736
 16.0434
 15.9024
 15.9544
 17.8125
 17.8557
 17.8598
 17.8987
 19.0232
 19.069
 19.0426
 19.131
 18.1323
 18.1571
 18.0859
 18.0422
 18.682
 18.6357
 18.6392
 18.7131
 17.8918
 18.0017
 17.8955
 17.9859
 19.7033
 19.7669
 19.7366
 19.6721
 18.1834
 18.1745
 18.1127
 18.0997
 17.0736
 17.099
 17.0256
 17.1048
 17.175
 17.1655
 17.1302
 17.1591
 15.9789
 16.1718
 16.0225
 16.0926
 18.5159
 18.526
 18.4439
 18.5016
 18.706
 18.6501
 18.7212
 18.5667
 15.9403
 16.0816
 15.9496
 15.9775
 18.6893
 18.6876
 18.6027
 18.6847
 16.377
 16.4096
 16.3012
 16.4222
 17.5352
 17.4083
 17.4828
 17.4219
 17.8546
 17.9802
 17.864
 17.8361
 18.7618
 18.6717
 18.6813
 18.7627
 17.9033
 17.8972
 17.7856
 17.8884
 16.3532
 16.3772
 16.3388
 16.3277
 20.4844
 20.4552
 20.4324
 20.5327
 19.2345
 19.2537
 19.2543
 19.2265
 19.1404
 19.1208
 19.1427
 19.2009
 18.4027
 18.3624
 18.448
 18.3296
 18.1891
 18.2602
 18.2084
 18.2497
 18.5042
 18.5562
 18.5754
 18.5005
 15.7106
 15.7565
 15.5928
 15.765
 18.794
 18.8513
 18.8472
 18.7319
 17.2309
 17.2315
 17.1969
 17.2979
 17.7727
 16.4909
 16.5926
 16.5865
 16.6125
 17.3268
 17.2441
 17.1772
 17.2445
 19.3124
 19.2707
 19.2537
 19.2861
 18.3269
 18.3628
 18.2934
 18.2399
 18.5583
 18.6462
 18.5904
 18.5892
 16.2902
 16.3971
 16.3764
 16.3645
 18.0981
 18.2261
 18.1357
 18.1699
 16.1779
 16.1652
 16.2721
 16.256
 16.9253
 16.8686
 16.9684
 16.845
 19.2759
 19.2196
 19.2512
 19.1499
 18.7489
 18.8358
 18.6921
 18.7546
 17.1796
 17.1171
 17.1025
 17.1692
 17.8777
 17.9852
 17.8608
 19.0875
 19.1248
 19.0887
 19.055
 17.0839
 17.2517
 17.1358
 17.2111
 18.5983
 18.7018
 18.68
 18.6422
 17.9133
 18.0391
 17.9711
 17.9016
 16.0966
 16.0974
 16.251
 16.1254
 18.416
 18.4508
 18.5027
 18.432
 16.5304
 16.6613
 16.5625
 16.5208
 17.7537
 17.8225
 17.76
 17.8623
 16.6876
 16.7521
 16.8369
 16.7786
 16.2193
 16.2183
 16.0988
 16.1532
 18.358
 18.3716
 18.3022
 18.3089
 20.426
 20.3237
 20.3293
 20.279
 15.5428
 15.6092
 15.6172
 15.627
 17.161
 17.2106
 17.2393
 17.181
 18.889
 18.8998
 18.7448
 18.8642
 18.1593
 18.0839
 18.0768
 18.1622
 19.611
 19.5895
 19.6035
 19.6651
 16.1859
 16.1187
 15.9964
 16.0905
 19.1392
 19.1956
 19.1656
 19.1544
 17.4433
 17.3578
 17.4821
 17.4183
 18.8086
 18.9634
 18.8387
 18.8521
 15.4604
 15.4769
 15.4708
 15.5813
 15.608
 15.6349
 15.7051
 15.7736
 16.8308
 16.9191
 16.9491
 16.805
 17.3911
 17.3594
 17.3832
 17.4556
 17.3718
 18.9574
 18.9432
 19.0329
 18.9756
 18.8529
 18.8844
 18.9133
 18.83
 17.0538
 16.9702
 16.9645
 16.9527
 19.0133
 18.942
 18.9426
 19.0176
 18.6783
 18.7107
 18.7185
 18.6427
 16.8615
 16.8241
 16.8363
 16.9324
 18.3084
 18.2038
 18.3069
 18.2083
 17.0601
 17.0523
 17.0472
 16.9749
 18.638
 18.6562
 18.7219
 18.657
 18.4321
 18.3802
 18.3558
 18.3483
 18.0091
 17.9177
 18.0391
 17.9516
 17.4268
 17.3232
 17.3762
 17.2793
 16.6071
 16.6565
 16.507
 16.5366
 17.5108
 17.5375
 17.5867
 17.5748
 17.5421
 17.4888
 17.4708
 17.4879
 19.331
 19.3326
 19.2848
 19.2573
 17.2089
 17.2044
 17.1521
 17.1917
 17.7951
 17.7776
 17.7297
 17.7927
 17.6882
 17.7027
 17.7617
 17.712
 18.3209
 18.3017
 18.3886
 18.3293
 19.0801
 19.0906
 19.0442
 19.1598
 16.7799
 16.8152
 16.7678
 16.7254
 19.0505
 19.1101
 19.0891
 18.9922
 15.7318
 15.7397
 15.5958
 15.6826
 16.6079
 16.6777
 16.5578
 16.6031
 16.5742
 16.5569
 16.5456
 16.5863
 16.386
 16.4324
 16.4413
 16.3302
 16.9348
 16.891
 16.9781
 16.893
 19.623
 19.6684
 19.7446
 17.5786
 17.7054
 17.5988
 17.6106
 16.6517
 16.7005
 16.7272
 16.6673
 18.36
 18.4558
 18.4058
 18.3838
 18.6601
 18.6282
 18.6939
 18.6205
 16.8939
 16.875
 16.8104
 16.9764
 18.0165
 18.0415
 18.0148
 17.9265
 18.5822
 18.5748
 18.616
 18.6209
 15.753
 15.6149
 17.2287
 17.2403
 17.3387
 17.3237
 17.9728
 18.0066
 18.0541
 17.5197
 17.4869
 17.4977
 17.5953
 19.4063
 19.4417
 19.3541
 19.3653
 16.531
 16.4638
 16.4615
 16.5766
 17.5555
 17.5787
 17.6329
 17.6189
 18.3681
 18.4393
 18.3929
 18.3174
 17.6169
 17.7059
 17.6786
 17.6373
 19.0595
 19.1025
 19.0252
 19.0622
 19.231
 19.0937
 19.1945
 19.1673
 18.0151
 17.9469
 17.9165
 17.9683
 18.9892
 19.0061
 19.0028
 18.9387
 17.8936
 17.9398
 17.9211
 17.9545
 16.3937
 16.4208
 16.5289
 16.5403
 18.9562
 18.908
 18.871
 18.9268
 19.9803
 19.9102
 19.9413
 19.905
 17.2651
 17.4346
 17.339
 17.2914
 18.1201
 18.058
 18.1366
 18.0603
 19.0504
 19.0639
 18.9809
 18.9979
 17.9741
 18.0173
 17.9238
 17.9404
 16.2041
 16.2373
 16.178
 16.1958
 18.7358
 18.7432
 18.785
 18.7483
 17.3663
 17.4133
 17.411
 17.4471
 18.1792
 18.0745
 18.1412
 18.0226
 16.9689
 16.898
 16.9027
 16.8372
 16.4646
 16.4671
 16.4166
 16.508
 18.9006
 18.8333
 18.8777
 18.7597
 18.452
 18.3881
 18.4046
 18.4251
 17.4077
 17.4171
 17.5316
 17.4564
 19.0923
 19.0591
 19.0725
 19.0463
 20.4361
 20.5048
 20.499
 20.4602
 17.6308
 17.7054
 17.7142
 17.7152
 20.593
 20.6124
 20.5722
 20.5243
 20.4659
 20.3886
 20.385
 20.4202
 19.384
 19.3348
 19.3399
 19.4068
 17.1873
 17.2521
 17.3091
 17.339
 17.2484
 17.1634
 17.1637
 17.0988
 17.1015
 17.1844
 17.1229
 17.2235
 17.3155
 17.4136
 17.3939
 17.2791
 19.7033
 19.7623
 19.7212
 19.7393
 18.9164
 18.9602
 18.8688
 18.901
 18.9053
 19.0134
 19.0012
 18.9705
 18.2753
 18.1809
 18.2698
 18.1711
 17.5199
 17.5747
 17.518
 17.5571
 16.9778
 16.9837
 17.0271
 16.9457
 18.7968
 18.7058
 18.6925
 18.7823
 17.1615
 17.9989
 17.9378
 17.9337
 17.9885
 15.5812
 15.559
 15.434
 15.5112
 18.1072
 18.1084
 18.0396
 18.1022
 16.2491
 16.1306
 16.2172
 18.9856
 18.9346
 18.9087
 19.0014
 20.2771
 20.2096
 20.2312
 20.1894
 17.858
 17.8723
 17.7722
 17.9219
 18.3309
 18.4379
 18.415
 18.4282
 18.9985
 18.9386
 18.8926
 18.8747
 18.8489
 18.8179
 18.8927
 18.8107
 19.4658
 19.5856
 19.5138
 19.5183
 17.4355
 17.4478
 17.3821
 17.2598
 17.9074
 17.8198
 17.9273
 17.8587
 18.5525
 18.6193
 18.5533
 18.5784
 18.0054
 18.0754
 17.9048
 16.7589
 16.8157
 16.8348
 18.7139
 18.7087
 18.8101
 18.8271
 19.513
 19.5481
 19.546
 19.5165
 18.5627
 18.5099
 18.5115
 18.5819
 19.4084
 19.4805
 19.3934
 19.5115
 16.7726
 16.6222
 16.7328
 16.7058
 16.8328
 16.7976
 16.7676
 16.7124
 19.0975
 19.1306
 19.1157
 19.127
 19.5438
 19.6428
 19.5804
 19.5519
 17.6066
 17.7241
 17.6285
 17.677
 15.8668
 15.9527
 15.8125
 15.9289
 19.4748
 19.4757
 19.5186
 19.4687
 17.1486
 17.2449
 17.2474
 17.1299
 20.037
 20.08
 20.0263
 20.0598
 16.9725
 16.9097
 16.9985
 16.8363
 18.2211
 18.288
 18.185
 18.3141
 16.7828
 16.7801
 16.6777
 16.6922
 19.001
 18.9735
 18.9548
 18.8784
 18.3719
 18.4419
 18.4296
 18.4381
 18.6505
 18.68
 18.5974
 18.5972
 18.6141
 18.6507
 18.5544
 18.6817
 17.6427
 17.5859
 17.5975
 17.6762
 18.0713
 18.1468
 18.0622
 18.067
 16.633
 16.7228
 16.7626
 16.7164
 15.7056
 15.616
 15.8142
 15.8291
 18.1433
 18.1526
 18.2167
 18.1607
 16.4021
 16.4347
 16.4838
 16.3366
 17.0209
 16.8894
 16.8463
 16.9037
 19.713
 19.7568
 19.8277
 19.7309
 19.0641
 18.9267
 18.9514
 18.9956
 18.243
 18.3038
 18.3276
 18.2898
 19.4445
 19.5015
 19.5171
 19.5533
 17.5544
 17.4574
 17.4712
 17.5145
 16.7685
 16.6028
 16.6945
 16.67
 19.3965
 19.2915
 19.3882
 19.3978
 17.9724
 17.901
 17.9534
 17.9387
 18.5834
 18.5964
 18.5936
 18.6354
 20.3984
 20.3468
 20.3236
 20.3858
 18.4061
 18.4208
 18.4229
 18.3509
 17.9148
 17.8595
 17.877
 17.8446
 17.1182
 17.0359
 17.0917
 17.009
 18.6849
 18.6659
 18.6521
 17.8967
 17.9122
 17.9344
 17.9177
 18.4401
 18.4878
 18.3381
 18.4229
 17.2478
 17.3339
 17.2527
 17.3002
 17.1984
 17.0909
 17.1319
 17.1303
 16.2179
 16.2892
 16.2407
 16.3577
 18.8523
 18.8622
 18.7997
 18.8754
 15.8775
 15.8518
 15.8132
 15.8552
 18.7182
 18.6451
 18.7115
 18.7551
 17.9157
 17.8201
 17.8327
 17.7836
 17.8137
 17.9114
 17.8722
 17.9286
 20.5244
 20.5873
 20.5256
 20.5468
 18.4695
 18.52
 18.4616
 18.4472
 17.932
 17.9572
 17.872
 17.7758
 18.0078
 17.9851
 17.9655
 18.0847
 15.5459
 15.5535
 15.6574
 15.5907
 18.7232
 18.6352
 18.5847
 18.6984
 18.6174
 18.6672
 18.5714
 18.6888
 17.0295
 16.9212
 17.0016
 16.9617
 18.9338
 18.9504
 18.9968
 19.0059
 18.9667
 18.9828
 18.9329
 18.9922
 17.2451
 17.3586
 17.2564
 17.3272
 17.238
 17.2287
 17.3113
 17.228
 17.7357
 17.7236
 17.5913
 17.6475
 18.6412
 18.6821
 17.4574
 17.5279
 17.4189
 17.5087
 18.6353
 18.5883
 18.6401
 18.6132
 18.2016
 18.1118
 18.079
 18.1046
 16.2002
 16.2637
 16.3046
 16.1947
 18.1055
 18.0793
 18.0364
 18.0188
 16.8752
 16.8111
 16.7752
 16.9009
 18.7595
 18.6281
 18.6741
 18.6364
 18.3408
 18.4211
 18.4301
 18.3972
 17.9661
 17.808
 17.8881
 17.8833
 18.9063
 18.9773
 19.0047
 18.9498
 19.9288
 19.8879
 19.9321
 19.9671
 16.0273
 16.0501
 16.1025
 16.0616
 19.4142
 19.4149
 19.3816
 19.4421
 17.4968
 17.4625
 17.5529
 17.5485
 19.9255
 19.9124
 19.8879
 19.9647
 17.513
 17.4214
 17.4781
 17.49
 18.7192
 18.7291
 18.7592
 18.7409
 18.7469
 18.7214
 18.8018
 18.7532
 17.6726
 17.6406
 17.7397
 17.6826
 16.565
 16.6602
 16.5727
 16.6798
 18.3627
 18.2326
 18.2533
 18.2559
 19.1193
 19.1469
 19.1146
 19.0746
 16.5827
 16.445
 16.5093
 16.4123
 18.6849
 18.7254
 18.6308
 18.6194
 18.2919
 18.2097
 18.2343
 18.1824
 16.9799
 16.7969
 16.8422
 16.8983
 17.7741
 17.6916
 17.6641
 17.6628
 18.0388
 18.0669
 18.0259
 17.9766
 16.1911
 16.1329
 16.072
 16.034
 16.5888
 16.5446
 16.5584
 16.6032
 17.6095
 17.5881
 17.705
 17.6622
 18.0593
 18.0115
 18.0969
 17.9189
 18.4783
 18.4503
 18.4488
 18.3401
 19.1079
 19.112
 19.1767
 16.8474
 16.8019
 16.8027
 16.7408
 19.9572
 20.0018
 20.0762
 20.0505
 17.0999
 17.2117
 17.1519
 17.1791
 18.8398
 18.9445
 18.8862
 18.8782
 19.0229
 19.109
 19.0819
 19.0935
 16.3692
 16.4657
 16.4201
 16.2908
 17.8187
 17.8681
 17.7892
 17.8475
 17.9765
 18.0064
 18.6455
 18.1594
 18.0725
 18.1793
 18.1195
 19.9412
 19.8777
 17.2566
 17.2245
 17.1959
 19.227
 19.192
 19.2873
 19.2293
 17.1707
 17.2698
 17.2395
 17.2329
 18.2757
 18.195
 18.2187
 18.2301
 18.6713
 18.547
 18.6199
 18.6031
 16.3055
 16.3046
 16.1813
 16.2698
 19.2207
 19.1453
 19.2275
 19.1378
 17.3837
 17.3886
 17.3526
 17.3007
 16.0099
 15.9945
 16.1156
 16.1176
 17.8192
 17.9159
 17.8441
 17.903
 17.3146
 17.4557
 17.4127
 17.4125
 17.9895
 17.9212
 17.9869
 18.1156
 15.571
 15.7742
 15.5993
 15.7697
 15.7649
 15.7507
 15.8079
 15.9029
 15.9628
 16.0196
 16.0282
 15.9538
 18.197
 18.2684
 18.1832
 18.1953
 17.5547
 17.6748
 17.6263
 17.5781
 18.0674
 18.0784
 18.1393
 18.0921
 18.249
 18.2652
 18.169
 18.2798
 17.1667
 17.1431
 17.131
 17.2386
 16.6062
 16.5049
 16.5565
 16.4851
 16.5518
 16.5133
 16.6084
 16.4616
 17.7718
 17.7272
 17.7924
 17.7336
 18.0426
 18.0359
 18.0701
 18.1105
 18.7401
 18.7832
 18.7581
 18.6674
 16.9074
 16.8279
 16.8197
 16.9374
 19.3909
 19.3814
 19.459
 19.374
 16.8552
 16.8053
 16.8534
 16.8625
 17.6848
 17.5386
 17.6681
 17.5702
 17.7133
 17.6992
 17.694
 17.7836
 19.1426
 19.1473
 19.1805
 19.2454
 20.69
 20.6376
 20.7163
 20.7062
 18.4401
 18.3578
 18.439
 18.4221
 16.8123
 16.9163
 16.8682
 16.8106
 18.9981
 19.0764
 19.0184
 18.9653
 17.5331
 17.4821
 17.592
 17.4871
 17.4476
 17.3823
 17.2957
 17.3252
 17.0038
 16.9546
 17.0922
 17.0543
 19.5578
 19.5931
 19.6008
 19.5372
 19.5414
 19.5262
 19.5643
 19.5821
 16.7598
 16.6247
 16.664
 16.6978
 17.161
 17.2912
 17.3155
 17.2303
 18.5092
 18.4964
 18.5436
 18.5434
 17.9599
 17.9823
 17.9011
 17.8581
 17.734
 17.7131
 17.7165
 17.772
 18.5014
 18.5692
 18.4282
 18.5421
 17.3376
 17.4042
 17.3703
 17.4404
 15.1793
 15.3243
 15.2186
 15.1969
 17.4798
 17.359
 17.3767
 17.3194
 17.9455
 17.9065
 17.9656
 17.8635
 17.9059
 17.9092
 17.9828
 17.9119
 17.7089
 17.6434
 17.6966
 17.773
 15.8958
 15.8975
 15.9868
 15.9095
 16.6568
 16.7469
 16.6954
 17.3595
 17.3511
 17.3082
 17.3705
 19.1113
 19.1233
 19.0447
 19.1264
 18.211
 18.2125
 18.2775
 18.1834
 16.5787
 16.7049
 16.7519
 16.6978
 18.7385
 18.7039
 18.6907
 18.6552
 18.3659
 18.421
 18.428
 18.3401
 18.2418
 18.2852
 18.3773
 18.2911
 17.1658
 17.235
 17.2583
 17.2405
 17.6589
 17.7275
 17.6519
 17.7991
 17.3536
 17.5066
 17.4491
 17.4214
 18.9604
 18.9149
 18.9097
 18.9439
 18.3406
 18.287
 18.2686
 18.3503
 17.2529
 17.3176
 17.2345
 17.1522
 18.3723
 18.3379
 18.2903
 18.4081
 17.4799
 17.3863
 17.3913
 17.4345
 18.997
 19.0278
 18.9764
 19.0418
 16.1347
 16.1061
 16.2126
 16.1363
 18.7684
 18.818
 18.7386
 18.7096
 18.8345
 18.9859
 18.892
 18.8912
 16.9734
 16.9685
 16.9013
 16.8816
 18.7844
 18.7682
 18.7513
 18.757
 17.4664
 17.5145
 17.4705
 17.5614
 19.1761
 19.1734
 19.2657
 19.2494
 17.7047
 17.751
 17.7348
 17.6454
 16.2561
 16.0939
 16.2244
 16.1386
 17.6445
 17.7673
 17.7654
 17.7093
 17.0631
 17.025
 17.0545
 17.0694
 17.4656
 17.4972
 17.4666
 17.427
 17.476
 17.4515
 17.4194
 17.3556
 15.9728
 15.9455
 15.9095
 16.0681
 18.9082
 18.9582
 19.0029
 19.0081
 18.8037
 18.84
 18.9137
 18.8453
 16.4446
 16.4291
 16.4961
 16.3546
 16.3114
 16.2561
 16.3161
 18.5628
 18.6002
 18.6032
 18.5411
 17.4848
 17.3828
 17.4662
 17.4817
 17.5276
 17.4997
 17.5906
 17.4874
 18.8327
 18.7638
 18.8763
 18.8179
 17.0091
 16.9454
 16.9667
 16.9424
 18.0171
 18.1059
 18.0993
 17.9996
 17.6753
 17.7727
 17.7566
 17.791
 16.9301
 16.8606
 16.8401
 16.8614
 19.1783
 19.212
 19.1718
 19.1306
 18.5363
 18.6316
 18.6162
 18.605
 15.9034
 16.0624
 15.9403
 15.9807
 18.9074
 18.921
 18.8936
 18.7792
 19.1795
 19.2189
 19.2007
 19.1927
 17.9998
 17.9608
 18.0049
 17.8891
 19.9441
 19.9205
 19.9665
 19.8735
 17.8099
 17.7925
 17.8364
 17.8018
 16.859
 16.9103
 16.9359
 16.9512
 16.5627
 16.6233
 16.5977
 19.2358
 19.2251
 19.2066
 19.2334
 18.7329
 18.6413
 18.7486
 18.6606
 18.8267
 18.8552
 18.8818
 18.9164
 18.6125
 18.6757
 18.6348
 18.6601
 15.8233
 15.7493
 15.7102
 15.7376
 19.1117
 19.1044
 19.1319
 19.1807
 18.6546
 18.7203
 18.6667
 18.5812
 16.6527
 16.606
 16.6614
 16.7034
 18.3627
 18.3979
 18.3407
 18.5743
 18.6673
 18.6032
 17.5907
 17.685
 17.7485
 19.7905
 19.7112
 19.6976
 19.7622
 17.7967
 17.7528
 17.795
 17.7189
 17.8104
 17.7701
 17.8928
 17.8606
 16.4059
 16.3497
 16.4531
 16.4733
 16.1757
 16.2188
 16.0363
 16.2025
 18.8949
 18.9559
 18.9648
 18.8398
 17.6013
 17.499
 17.5046
 17.5143
 17.5673
 17.4999
 17.4602
 17.4907
 17.9841
 17.8794
 17.9258
 17.8507
 18.4062
 18.3631
 18.3592
 18.461
 17.6212
 17.7009
 17.6602
 17.6055
 18.937
 18.9182
 18.9559
 18.8954
 16.3677
 16.4045
 16.3604
 16.3321
 18.6378
 18.6499
 18.6071
 18.5723
 16.5531
 16.6467
 16.5967
 16.5552
 16.0898
 16.1553
 16.206
 16.1061
 16.2651
 16.3012
 16.2962
 16.3223
 18.7542
 18.8116
 17.1406
 17.1538
 17.222
 17.1792
 18.8568
 18.7531
 18.8074
 18.8388
 16.8778
 16.7176
 16.7758
 16.7411
 16.5233
 16.6214
 16.4923
 16.6085
 18.4581
 18.4095
 18.3938
 18.4381
 17.6801
 17.6852
 17.606
 17.6499
 18.6217
 18.6135
 18.557
 18.6124
 18.1567
 18.1532
 18.1421
 18.0677
 20.3099
 20.2021
 20.3274
 20.2314
 16.2756
 16.3294
 16.1974
 16.301
 18.5701
 18.6534
 18.555
 18.5303
 19.225
 19.2864
 19.2828
 19.2004
 18.0654
 18.0988
 18.0201
 17.9836
 19.1471
 19.2532
 19.2705
 19.152
 18.1472
 18.2433
 18.258
 18.1916
 17.0962
 17.1294
 17.0201
 17.1591
 17.9213
 17.9792
 17.9803
 17.9437
 16.402
 16.2449
 16.4023
 18.0546
 17.9696
 18.0982
 17.9951
 20.3525
 20.384
 20.3827
 20.4149
 15.713
 15.6727
 15.6371
 15.7205
 17.7652
 17.7718
 17.7207
 17.7844
 16.9014
 16.9671
 17.0385
 16.9446
 18.9411
 18.869
 19.0433
 18.9664
 18.4043
 18.3423
 18.4771
 18.4047
 18.4174
 18.2988
 18.3567
 18.3018
 16.2373
 16.3068
 16.2223
 16.162
 18.3219
 18.389
 18.4339
 18.4111
 15.7454
 15.7805
 15.7166
 15.8367
 17.155
 17.2537
 17.2569
 17.1458
 18.9068
 18.888
 18.8566
 18.8996
 19.9792
 19.9627
 19.9025
 20.0037
 18.1347
 18.252
 18.1827
 18.2719
 17.884
 17.8877
 17.8116
 17.9048
 16.997
 17.0075
 17.0538
 17.1382
 20.2506
 20.3094
 20.217
 20.2688
 18.1246
 18.19
 18.0793
 18.1086
 15.9566
 16.0173
 16.0405
 16.0144
 16.7507
 16.6628
 16.6966
 16.728
 16.6781
 16.7015
 16.6084
 16.7263
 16.6878
 16.7677
 16.7889
 16.7505
 16.671
 16.5497
 16.6265
 16.6331
 17.5036
 17.4669
 17.5087
 17.5101
 18.8173
 18.6779
 18.5934
 18.5747
 18.6346
 17.2702
 17.386
 17.3459
 17.3409
 17.2931
 17.2655
 17.3803
 17.3702
 19.5217
 19.4801
 19.4849
 19.5209
 16.4805
 16.4839
 16.5315
 16.4873
 16.8992
 16.8228
 16.7356
 16.7983
 18.9261
 18.8061
 18.8298
 18.6923
 18.6946
 18.7117
 18.6683
 18.6151
 18.6322
 18.5817
 18.7584
 18.8493
 18.962
 18.8977
 17.283
 17.1857
 17.2102
 17.3096
 15.9501
 15.9223
 15.9756
 15.9229
 17.9089
 17.9464
 17.8851
 17.9911
 16.1383
 16.2987
 16.3365
 16.3528
 18.109
 18.1319
 18.1641
 18.0743
 17.2408
 17.3256
 17.3774
 17.3635
 18.8174
 18.8306
 18.8494
 18.9083
 17.6511
 17.5436
 17.6848
 17.5974
 17.4818
 17.3838
 17.3308
 17.4769
 18.7732
 18.8103
 18.8826
 18.8464
 18.3563
 18.4089
 18.2512
 18.3012
 18.0632
 18.0748
 18.1393
 18.1878
 17.567
 17.5317
 17.5678
 17.5208
 19.3188
 19.3167
 19.2881
 19.229
 17.3345
 17.4298
 17.3815
 17.3148
 18.3484
 18.4507
 18.3317
 18.2918
 17.1495
 17.1655
 17.1502
 17.2112
 16.3614
 16.451
 16.3797
 16.4189
 16.1637
 16.2326
 16.2215
 16.1942
 16.148
 16.0854
 16.253
 15.7273
 15.6578
 15.6138
 15.5632
 16.6536
 16.7587
 16.853
 16.7236
 17.9059
 17.9245
 17.863
 17.8766
 16.0559
 16.1146
 16.1731
 16.0707
 17.816
 17.8135
 17.8637
 17.8745
 17.5076
 17.4602
 17.4847
 16.3788
 16.2809
 16.3371
 16.3443
 16.3744
 16.4813
 16.4368
 17.613
 17.6312
 17.564
 17.5434
 18.3968
 18.3579
 18.4095
 18.301
 17.2085
 17.2815
 17.3064
 17.3195
 16.2076
 16.1388
 16.192
 16.2325
 18.633
 18.6618
 18.63
 18.7038
 17.969
 17.9993
 18.0561
 18.0818
 17.825
 17.6976
 17.82
 17.8224
 17.0692
 17.1594
 17.1008
 17.0977
 18.6935
 18.7506
 18.6394
 18.734
 18.9743
 19.0402
 18.9674
 18.9702
 17.9136
 17.9147
 17.927
 17.848
 15.7669
 15.8266
 15.837
 15.8229
 18.5768
 18.6688
 18.565
 18.6226
 18.8875
 18.8258
 18.9176
 18.8259
 17.3724
 17.486
 17.368
 17.3899
 18.5994
 18.5548
 18.6041
 18.968
 18.8978
 18.9293
 17.5495
 17.6226
 17.4829
 17.589
 18.8473
 18.8847
 18.938
 18.8521
 18.9078
 18.997
 18.9205
 18.9278
 17.321
 17.2978
 17.3419
 18.7401
 18.7511
 16.4735
 16.4474
 16.3225
 16.3045
 17.205
 17.0773
 17.0827
 17.1189
 19.3549
 19.3001
 19.4023
 19.2763
 19.8056
 19.767
 19.8601
 19.7787
 18.542
 18.6877
 18.603
 18.5903
 16.353
 16.3549
 16.2972
 16.3386
 17.1823
 17.2468
 17.2871
 17.2518
 19.2153
 19.2337
 19.24
 19.2516
 18.6077
 18.6047
 18.5577
 18.5162
 18.5878
 18.5615
 18.5799
 18.7997
 18.7437
 18.7353
 18.7387
 18.7458
 18.8063
 18.7362
 18.7081
 18.9407
 19.035
 18.9639
 19.0179
 16.1241
 16.0192
 16.1023
 16.0882
 16.0835
 15.9945
 16.1449
 17.9566
 18.0154
 17.944
 18.0371
 18.6258
 18.7291
 18.6108
 18.6371
 15.7248
 15.6397
 18.9614
 19.0205
 19.0036
 19.0529
 17.6703
 17.5288
 17.6191
 17.5484
 17.4202
 17.4555
 18.8574
 18.8724
 18.7965
 18.8517
 16.0663
 15.9884
 16.1046
 15.9243
 15.8191
 15.8982
 15.8323
 15.6778
 18.0972
 18.0611
 18.0881
 19.4931
 19.428
 19.4555
 18.6985
 18.5966
 18.7067
 18.684
 16.8827
 16.9729
 16.8209
 16.9545
 18.4077
 18.4604
 18.4898
 18.5336
 18.5401
 18.5843
 18.5107
 18.5961
 17.2497
 17.2429
 17.2147
 17.1057
 20.1902
 20.1274
 20.1949
 20.2521
 17.0272
 17.014
 16.9264
 16.9378
 16.98
 16.9902
 16.9128
 16.8856
 18.9823
 18.9744
 19.0873
 19.0055
 16.408
 16.3393
 16.328
 16.4285
 20.3245
 20.4008
 20.408
 20.4607
 16.1309
 16.3077
 16.3072
 16.3018
 16.5827
 16.6788
 18.5317
 18.4739
 18.485
 18.4295
 19.0665
 19.1478
 19.0988
 19.0385
 16.4745
 16.3828
 16.3925
 16.4367
 18.4491
 18.433
 18.4386
 18.4883
 15.7272
 15.7892
 15.7505
 18.6638
 18.7358
 18.7573
 19.1703
 19.0768
 19.0541
 16.2066
 16.1453
 16.1794
 16.2199
 18.6527
 18.7043
 18.7086
 18.6957
 16.4287
 16.4186
 19.2093
 19.1471
 19.2083
 19.1874
 17.8627
 17.7693
 17.778
 17.8381
 18.5658
 18.5968
 18.2447
 18.0894
 18.1008
 18.1879
 18.4862
 18.4964
 18.4891
 18.5751
 15.8122
 15.7261
 15.8745
 15.8369
 19.1251
 19.1651
 19.1473
 16.7119
 20.2813
 20.3119
 20.3029
 20.3299
 16.4352
 16.4022
 16.3562
 16.5146
 18.533
 18.5238
 18.386
 18.4253
 16.9746
 17.0266
 17.0107
 16.9865
 18.5042
 18.5651
 18.6003
 18.5267
 17.2909
 19.5116
 19.5357
 19.5364
 19.5016
 17.2542
 17.2613
 17.2804
 17.3505
 16.6312
 16.5923
 16.5341
 16.7086
 16.6829
 16.7901
 16.6764
 16.4055
 16.2858
 16.3776
 16.3528
 18.9376
 18.9124
 18.8192
 18.8691
 16.3524
 16.3508
 16.3677
 16.2763
 19.2034
 19.2184
 19.2036
 19.2843
 16.4439
 16.3862
 16.356
 16.353
 18.0018
 18.0486
 18.0593
 18.0786
 17.0255
 16.9727
 16.941
 16.9196
 17.609
 17.653
 17.6792
 17.703
 16.0594
 16.1945
 17.8015
 17.8797
 17.8599
 17.8029
 19.4235
 19.4574
 19.3618
 19.454
 19.1799
 19.2119
 19.1062
 19.1971
 17.6216
 17.5514
 17.5342
 17.53
 16.9726
 16.9791
 16.9863
 16.8745
 16.7757
 16.8655
 16.8075
 16.7544
 16.2975
 16.402
 16.375
 16.4449
 16.7894
 16.669
 16.7366
 16.7862
 19.1523
 19.1674
 19.114
 19.2165
 18.8623
 18.872
 18.8871
 18.7765
 15.6415
 15.7285
 15.7644
 15.7521
 17.5152
 17.4628
 17.4942
 17.3625
 18.7477
 18.6456
 18.7346
 18.6881
 19.9998
 20.0083
 19.928
 20.0518
 16.3975
 16.3535
 16.4374
 16.2637
 18.7268
 18.7001
 18.6807
 18.6306
 18.1792
 18.1108
 18.2258
 18.1626
 19.2903
 19.3087
 19.2962
 19.234
 17.3652
 17.4183
 17.3786
 17.3751
 16.2058
 16.1973
 16.2395
 16.2078
 17.4923
 17.6265
 17.5762
 17.5976
 18.105
 18.0697
 18.0022
 18.0473
 19.3705
 19.328
 19.2901
 19.3992
 16.1689
 17.1299
 17.0656
 17.1724
 17.0618
 18.147
 18.1891
 18.2607
 18.2161
 16.8909
 16.8399
 16.8581
 16.7714
 18.715
 18.7996
 18.7491
 18.7021
 17.4258
 17.3598
 17.4596
 19.4094
 19.2925
 19.379
 19.375
 16.6151
 16.7834
 16.6835
 16.7326
 19.0903
 19.1066
 19.0452
 19.0918
 15.3193
 15.367
 15.3319
 15.2606
 18.7535
 18.7431
 18.7268
 18.7449
 19.8458
 19.6842
 19.7041
 19.7657
 19.4349
 19.4442
 19.3844
 19.3747
 15.6803
 15.7513
 15.7811
 15.8234
 16.0598
 16.068
 16.0178
 16.0041
 17.9573
 17.8837
 17.9145
 17.8679
 18.6412
 18.675
 18.6236
 17.7109
 17.7232
 17.8333
 17.7948
 17.1764
 17.2276
 17.1127
 17.1251
 17.6345
 17.4715
 17.5267
 17.548
 17.8134
 17.7966
 17.6489
 17.7183
 15.6275
 15.7039
 15.7047
 15.745
 18.9169
 18.9522
 18.83
 18.9156
 19.3991
 19.5179
 19.5078
 16.9517
 17.0044
 17.0002
 17.0564
 16.5421
 16.4538
 16.5047
 16.5224
 18.72
 18.7265
 18.7038
 18.8826
 18.8668
 18.818
 18.9396
 16.2883
 16.3472
 16.2445
 16.3917
 17.9859
 18.009
 17.9208
 17.9809
 18.822
 18.9091
 18.8392
 18.8466
 18.182
 18.2284
 18.2216
 18.1615
 16.6399
 16.6301
 16.7174
 16.633
 18.7073
 18.601
 18.7554
 18.6378
 18.0883
 18.2223
 18.1978
 18.1318
 18.5033
 18.4012
 18.4727
 16.1014
 16.1213
 16.1783
 16.1974
 17.8863
 17.8883
 17.9404
 17.841
 15.6026
 15.655
 15.459
 17.7841
 17.7272
 17.7603
 17.7835
 19.312
 19.2536
 19.3502
 19.3157
 17.5323
 17.5134
 17.4684
 17.3903
 17.8338
 17.7173
 17.8637
 18.6903
 18.6751
 18.5956
 18.6221
 19.1337
 19.1081
 19.1619
 19.0849
 18.735
 18.6834
 18.6343
 18.7382
 19.8913
 19.866
 19.8008
 19.7897
 18.281
 18.2982
 18.3343
 18.3469
 18.5297
 18.5654
 18.4551
 18.584
 16.1558
 16.3031
 16.2731
 16.1101
 19.0821
 18.9813
 19.0122
 19.0376
 17.3077
 17.3386
 17.2852
 17.2409
 15.7635
 15.7387
 15.7978
 15.8515
 15.7448
 15.8908
 15.8242
 15.7952
 16.7271
 16.6715
 16.7167
 16.7093
 15.7477
 15.6135
 15.6273
 15.8109
 16.2109
 16.2077
 16.2207
 15.5695
 15.7336
 15.6915
 15.6922
 19.3331
 19.3725
 19.3346
 19.401
 18.1605
 18.2689
 18.2824
 18.2521
 18.4466
 18.3535
 18.4259
 18.3513
 18.398
 18.4504
 18.4461
 18.4698
 16.1048
 16.1695
 16.0836
 16.0637
 18.2611
 18.2575
 18.3371
 18.3509
 18.704
 18.7951
 18.8078
 18.7295
 17.0432
 17.0681
 16.9776
 17.1026
 18.5933
 18.5238
 18.5971
 18.5228
 16.9275
 17
 17.0421
 17.7166
 17.6263
 17.6016
 16.2835
 16.3925
 16.399
 16.3556
 18.1748
 18.1408
 18.2052
 18.2046
 17.2867
 17.3673
 17.338
 17.2636
 18.4229
 18.5247
 18.4814
 18.3947
 15.5891
 15.6551
 15.9422
 15.9794
 16.0167
 15.8862
 19.38
 19.412
 19.4095
 19.4618
 17.289
 17.2213
 17.1998
 17.1339
 18.682
 18.6037
 18.6877
 18.7243
 20.5646
 20.6697
 20.5692
 20.6021
 18.7129
 18.752
 18.8023
 18.7429
 17.0145
 17.1046
 17.0177
 19.1229
 19.1346
 19.0288
 19.0364
 15.8178
 15.9252
 15.8017
 15.8994
 18.7055
 18.6679
 18.6944
 18.6534
 17.3881
 17.2978
 17.3251
 17.3793
 19.2401
 19.2238
 19.2993
 19.2415
 20.1248
 20.1046
 20.0944
 20.0572
 18.826
 18.7595
 18.8256
 18.8498
 18.2708
 18.3054
 18.2408
 17.6003
 17.7466
 17.6081
 17.6684
 18.9575
 18.945
 19.0163
 16.8572
 16.8991
 16.8328
 16.7744
 16.728
 16.6002
 16.7384
 16.6291
 17.0422
 17.1511
 17.0696
 17.0494
 15.9463
 16.1659
 16.0964
 16.0583
 16.7499
 16.7926
 16.7162
 18.4869
 18.427
 18.4445
 18.4001
 16.8643
 16.9503
 17.2039
 17.2836
 17.3138
 17.2534
 17.0538
 17.0872
 17.0636
 17.0138
 18.7712
 18.7369
 18.7547
 18.8225
 18.7688
 18.7044
 18.7615
 18.6948
 20.5847
 20.5362
 20.5169
 20.551
 18.7648
 18.6935
 18.7647
 18.4252
 18.4568
 18.4788
 18.4486
 17.7974
 17.7974
 17.8449
 17.8629
 18.4417
 18.3634
 18.3557
 18.4131
 19.3279
 19.2837
 19.3425
 19.3393
 16.5916
 16.7301
 16.6317
 16.6863
 17.9911
 17.9276
 17.9842
 18.0464
 16.2662
 16.2701
 16.2987
 16.2273
 17.6261
 17.6976
 17.6291
 17.6832
 16.0202
 15.9606
 16.0073
 20.0503
 19.9839
 20.0029
 20.0013
 17.0712
 16.9286
 17.0377
 17.0229
 18.053
 18.1246
 18.0367
 18.0764
 18.8903
 18.9449
 18.4192
 18.3981
 18.355
 18.3735
 18.1437
 18.2419
 18.2258
 16.2412
 16.2074
 16.3021
 16.2357
 16.1284
 16.1849
 16.2607
 16.2306
 18.9384
 18.958
 18.9094
 18.9497
 18.0371
 18.0576
 18.608
 18.5287
 18.5815
 18.6501
 16.7939
 16.8774
 16.724
 16.715
 19.2913
 19.267
 19.3009
 19.2426
 18.8297
 18.8097
 18.8755
 18.8839
 18.6452
 18.5565
 18.5167
 18.5616
 17.711
 17.7197
 17.7317
 17.5993
 16.9742
 16.9815
 17.0384
 17.0512
 16.7793
 16.8228
 16.8977
 16.819
 20.3414
 20.3535
 20.3844
 20.4084
 19.1081
 19.0316
 18.9973
 17.5536
 17.7093
 17.6169
 17.4831
 17.4166
 17.4998
 17.3854
 16.1886
 16.111
 16.1692
 16.0796
 17.9315
 18.6829
 18.6815
 18.7604
 18.7511
 17.2092
 17.2579
 17.3336
 17.2993
 16.657
 16.765
 16.7609
 16.6434
 16.6231
 16.6158
 18.9473
 18.9853
 19.0191
 19.0289
 17.7659
 17.6922
 17.7165
 17.6852
 19.1898
 19.2181
 19.1945
 19.1588
 17.4312
 18.3053
 18.353
 18.2236
 18.1937
 18.466
 18.4112
 18.3761
 18.4309
 16.1907
 16.2925
 16.0032
 15.9283
 15.8718
 15.9565
 19.6434
 19.7108
 19.6694
 19.6444
 16.7678
 16.758
 16.874
 16.7262
 17.4966
 17.5961
 17.5427
 17.4464
 20.2267
 20.2036
 20.2061
 20.2574
 17.8281
 17.8268
 17.7833
 17.8692
 17.9036
 17.9981
 18.0529
 18.0523
 18.9164
 18.991
 18.8783
 18.9155
 15.7142
 15.6073
 15.5988
 15.5759
 17.9806
 18.071
 18.0637
 18.5059
 18.4258
 18.4204
 18.4977
 15.9447
 15.8144
 15.9135
 15.8963
 18.544
 18.5951
 18.6583
 18.534
 18.0787
 18.0191
 16.5733
 16.5823
 16.5036
 16.6595
 17.5887
 17.5721
 17.4689
 17.4676
 15.9593
 16.0145
 15.8907
 15.9601
 18.0364
 17.903
 18.8122
 18.785
 18.7653
 18.7676
 18.5708
 18.5547
 18.4983
 18.4726
 16.4778
 16.4567
 16.5737
 16.5313
 16.7747
 16.826
 16.7347
 16.7447
 16.816
 16.9181
 16.8271
 16.8315
 18.5696
 18.4683
 18.5089
 18.5595
 19.7095
 19.7617
 19.7407
 19.7153
 15.739
 15.6283
 15.7267
 15.6755
 18.9567
 18.9533
 18.9432
 18.9019
 17.6548
 17.5781
 17.5721
 17.631
 18.379
 18.255
 18.3414
 18.2961
 17.6571
 17.7616
 17.6626
 17.3025
 17.1974
 17.2964
 17.1661
 17.9016
 17.8416
 17.8819
 17.9548
 17.0003
 16.9605
 16.8958
 17.0214
 16.9892
 17.0263
 16.9858
 17.1324
 20.2035
 20.1036
 20.1985
 19.2053
 19.1305
 19.0833
 19.1148
 17.6214
 17.681
 17.6561
 17.6633
 16.6071
 16.4989
 16.5566
 16.4979
 18.6536
 18.7575
 18.6557
 18.63
 18.5775
 18.5698
 17.4578
 17.5111
 17.4523
 17.4468
 17.6985
 17.6119
 17.5909
 17.5771
 15.1467
 15.1771
 15.2375
 15.1107
 19.4101
 19.3766
 19.4309
 19.5192
 16.9052
 16.893
 18.2696
 18.1903
 18.1782
 18.2643
 17.0843
 17.0353
 17.0438
 17.0198
 17.4958
 17.4811
 17.4229
 17.449
 18.1944
 18.1871
 18.1107
 18.246
 17.2374
 17.1532
 17.1728
 17.1628
 18.9338
 18.8982
 18.9102
 18.8483
 19.1559
 19.2317
 19.1452
 19.1865
 16.5689
 16.5278
 16.4671
 16.3294
 17.6764
 17.6358
 17.5666
 19.7879
 19.8261
 19.7619
 16.4296
 16.3798
 16.3631
 16.3259
 16.3379
 16.3722
 16.4126
 16.4175
 17.8657
 17.8481
 17.834
 17.7785
 16.1817
 16.1183
 16.1441
 16.1332
 15.8897
 15.7603
 15.8746
 15.751
 18.1463
 18.1076
 18.0413
 18.1287
 16.6355
 16.5889
 16.5543
 16.5633
 15.2185
 15.1788
 15.2896
 15.1595
 16.8424
 16.8276
 16.8856
 16.7469
 17.5956
 17.7223
 17.6668
 17.7516
 16.5019
 16.442
 16.5169
 16.5416
 17.0876
 17.1073
 17.0471
 17.3551
 17.2776
 19.5201
 19.5135
 19.5371
 19.5648
 17.3777
 17.2922
 17.311
 17.3311
 19.6749
 19.6578
 19.644
 19.6416
 19.5766
 19.5888
 19.5134
 19.4822
 17.5112
 17.4717
 17.4625
 17.541
 18.2941
 18.2946
 18.3651
 18.2572
 17.2142
 17.1205
 17.144
 17.1561
 17.807
 17.8678
 19.2574
 19.2999
 19.2803
 19.2142
 15.8329
 15.7969
 15.7469
 15.8317
 18.2459
 18.3132
 18.1821
 18.2354
 16.383
 16.4164
 16.4916
 16.4321
 19.239
 19.3019
 19.2389
 19.2669
 16.2739
 16.1189
 16.168
 16.1423
 17.3491
 17.4666
 17.375
 17.3895
 18.625
 18.7038
 18.7623
 18.7172
 15.416
 15.4704
 15.457
 15.5368
 18.4974
 18.4005
 18.4745
 18.4989
 18.1036
 18.2295
 18.1468
 18.1888
 15.8259
 15.8076
 15.9005
 15.804
 17.8629
 17.9875
 17.9556
 17.9596
 16.5326
 16.4574
 16.4997
 16.5419
 16.5294
 16.5958
 16.5664
 18.0883
 18.2392
 18.1679
 18.2026
 16.6002
 16.5089
 16.5674
 16.539
 19.0079
 18.9201
 18.928
 19.0141
 16.373
 16.3096
 16.3174
 16.3639
 16.4143
 16.4481
 16.3896
 16.433
 18.8293
 18.8468
 18.6975
 18.7758
 18.7818
 18.8152
 18.7352
 18.85
 20.8461
 20.8257
 20.889
 20.8736
 16.7391
 16.847
 16.8317
 19.5223
 19.4171
 19.4212
 19.4622
 16.0232
 16.101
 16.0826
 16.0611
 18.8517
 16.4382
 16.5329
 16.496
 16.4233
 16.438
 16.5065
 16.5193
 20.3141
 20.3992
 20.3778
 20.3393
 20.4107
 20.421
 20.4296
 20.4524
 16.0003
 16.0817
 16.0048
 15.945
 18.7668
 18.8037
 18.7256
 18.8176
 17.1131
 17.162
 17.0552
 18.4031
 18.473
 18.4086
 18.5216
 18.0882
 18.0824
 18.1212
 16.4083
 16.4514
 16.3084
 17.5114
 17.4517
 17.4337
 17.4933
 18.3837
 18.468
 18.4759
 18.4131
 18.8652
 18.8394
 18.8804
 18.8468
 17.1415
 17.0858
 17.0756
 19.2639
 19.2265
 19.3336
 19.337
 18.7929
 18.6368
 18.7328
 18.1551
 18.0224
 18.0426
 18.1101
 18.8409
 18.7624
 18.7705
 18.7991
 18.8295
 18.7245
 18.7062
 18.7314
 16.3445
 16.4051
 16.402
 16.4163
 18.0176
 18.093
 18.0294
 17.9915
 18.4901
 18.5161
 17.5894
 17.6527
 17.6086
 17.6953
 16.0405
 16.1467
 16.1039
 16.1346
 16.1507
 20.9291
 20.9528
 20.965
 20.9307
 16.6772
 16.5789
 16.6299
 15.7308
 15.7689
 15.8063
 15.7543
 16.8829
 17.0106
 16.9921
 17.0047
 18.8826
 18.8507
 18.8078
 18.8887
 18.0793
 18.1377
 18.1705
 18.1417
 15.65
 15.6625
 15.6972
 15.711
 16.7281
 16.7959
 16.856
 16.7871
 19.3055
 19.3645
 19.3701
 19.2723
 18.1973
 18.1703
 18.1531
 18.2818
 18.3311
 18.2912
 18.2415
 18.3082
 20.9494
 20.9626
 20.9613
 20.9439
 19.0164
 19.0317
 19.0585
 18.9801
 16.7548
 16.6443
 16.7664
 16.7038
 17.4234
 17.431
 17.3503
 17.4585
 17.9508
 17.8894
 17.8218
 17.9359
 17.0229
 16.9329
 16.9623
 16.9655
 17.3464
 17.3544
 17.2727
 17.3609
 16.929
 16.9251
 16.9963
 16.8254
 15.3811
 15.5508
 15.4958
 15.3324
 16.6301
 16.6719
 16.6954
 16.8204
 16.9683
 17.0201
 17.0917
 17.0002
 17.1366
 17.6391
 17.6389
 17.6969
 17.559
 16.0627
 16.1043
 16.1218
 16.1166
 18.0363
 18.0826
 18.0002
 18.0314
 17.5006
 17.4625
 17.4165
 17.5513
 17.7702
 17.8606
 17.8017
 17.7304
 18.3392
 18.4572
 18.3696
 18.4467
 19.9589
 19.9238
 19.8419
 19.9741
 15.2443
 15.4009
 17.2508
 17.3001
 17.3102
 20.6527
 20.6539
 20.6621
 18.6534
 18.7104
 18.6733
 18.741
 19.5439
 19.5395
 19.6437
 19.6444
 19.0055
 19.0449
 18.9867
 19.0863
 15.9089
 16.0387
 15.9864
 15.9664
 17.6768
 17.7849
 17.7371
 17.8005
 17.0601
 16.9625
 16.9629
 16.8789
 17.362
 17.4013
 17.4508
 17.523
 16.9773
 16.9318
 17.0129
 16.9834
 17.9367
 17.9315
 16.4771
 16.6731
 16.4989
 16.6637
 16.8558
 16.914
 16.9583
 16.7827
 18.6751
 18.7725
 18.662
 18.7592
 18.7328
 18.7114
 18.7136
 18.7014
 17.578
 17.562
 17.5996
 17.5419
 17.5778
 17.5202
 17.465
 17.4014
 19.0363
 19.1401
 19.1699
 19.0095
 16.9196
 16.9916
 17.0243
 17.0328
 15.4582
 15.5139
 15.461
 15.5084
 16.4155
 16.4676
 16.4661
 16.5097
 15.3704
 15.3166
 15.421
 15.288
 16.3211
 16.2174
 16.2433
 16.2388
 17.7022
 17.5877
 17.683
 17.6554
 17.0827
 17.1389
 17.8926
 17.7868
 17.9208
 17.8642
 18.7335
 18.6555
 18.6684
 18.6383
 16.7366
 16.6005
 16.5979
 16.6865
 17.9235
 17.9431
 17.9202
 18.0171
 18.1267
 18.1929
 18.2161
 18.1775
 18.8494
 18.8486
 18.8098
 18.7391
 18.5479
 18.5434
 18.5944
 18.4695
 18.7844
 18.727
 18.7221
 18.7571
 19.9183
 19.9088
 19.9629
 19.9407
 16.8075
 16.774
 16.8693
 16.7913
 17.154
 17.1316
 19.72
 19.7111
 19.7169
 19.7898
 18.4287
 18.3964
 17.2286
 17.3018
 17.2157
 16.524
 16.494
 19.0149
 19.0277
 19.0688
 18.9683
 19.8125
 19.7725
 19.7738
 19.7532
 19.1198
 19.0743
 19.0291
 19.014
 18.4456
 18.374
 18.3561
 18.3459
 17.3802
 17.4866
 17.4913
 17.4836
 17.0265
 17.0651
 17.0788
 17.0932
 18.4778
 18.405
 18.3931
 18.4134
 17.5483
 17.5518
 17.5119
 17.6418
 17.6938
 17.7539
 17.7744
 17.7288
 17.6426
 17.5798
 17.5394
 17.5771
 17.5351
 17.6707
 17.5361
 17.8948
 17.962
 17.8286
 17.885
 18.2681
 18.2301
 18.3378
 18.2734
 18.7826
 18.716
 18.8269
 18.7178
 16.0187
 16.0495
 15.9902
 15.9302
 18.0313
 18.0308
 17.9371
 17.9487
 19.154
 19.1517
 19.2785
 19.1812
 19.3136
 19.2949
 19.3266
 19.3472
 19.1325
 19.1929
 19.1882
 19.1505
 18.7874
 18.7942
 18.7039
 18.6862
 18.8286
 18.878
 18.9
 18.8633
 16.2836
 16.2269
 16.2183
 16.1905
 18.084
 18.0858
 18.103
 18.0187
 16.8999
 16.807
 16.8838
 16.9302
 18.7718
 18.6743
 18.79
 18.72
 15.9274
 15.8925
 15.8996
 15.8326
 15.7931
 15.8162
 15.7008
 16.8885
 17.0634
 17.0073
 16.9989
 18.6526
 18.6099
 18.6976
 18.6275
 15.532
 15.6753
 15.6462
 18.2083
 18.2762
 18.2205
 18.3306
 16.3393
 16.3224
 16.53
 16.4993
 16.4208
 16.5309
 18.3414
 18.3922
 18.3583
 19.1531
 19.1231
 19.2116
 19.1838
 18.7577
 18.7929
 18.7111
 18.7119
 17.7575
 17.6602
 17.7872
 15.8014
 15.9757
 15.9598
 16.919
 17.0328
 17.0604
 16.9991
 15.7996
 15.8387
 15.953
 15.7206
 18.1622
 18.0705
 18.0276
 18.0806
 16.1859
 16.1689
 16.1228
 16.2575
 17.6705
 17.6493
 17.7101
 17.7564
 18.5655
 18.6509
 18.6084
 15.6237
 15.7136
 15.6637
 15.5267
 17.1982
 17.4892
 17.3824
 17.4256
 17.472
 17.2871
 17.2745
 17.3444
 18.6051
 18.6583
 18.6439
 18.647
 18.6501
 18.5448
 18.131
 18.2166
 18.2155
 18.2268
 18.0877
 17.9851
 18.0618
 18.0005
 16.9796
 15.514
 15.6688
 15.6879
 15.5871
 20.1305
 20.2107
 20.1753
 20.1839
 18.4722
 18.5173
 18.6484
 18.6757
 18.632
 18.6115
 18.6622
 18.6548
 18.7648
 18.7245
 16.8524
 16.9689
 16.9603
 16.8993
 16.7839
 16.7476
 16.8585
 16.7656
 18.4476
 18.5208
 17.0653
 17.0447
 16.93
 17.0045
 17.0429
 16.9411
 17.0335
 17.488
 17.5566
 17.6049
 17.6328
 17.992
 18.07
 17.9949
 18.0776
 16.8538
 16.7209
 16.7388
 16.844
 16.5487
 16.5347
 16.463
 16.5661
 16.6527
 16.556
 16.6261
 16.8179
 16.7933
 16.7999
 16.8769
 18.1439
 18.1213
 18.1066
 18.1772
 19.5243
 19.5519
 19.4991
 19.4895
 18.344
 18.3528
 18.3961
 18.3745
 16.5295
 16.6259
 16.6909
 16.6058
 17.0939
 17.1444
 17.1467
 17.0719
 18.3199
 18.2751
 18.2393
 18.2352
 17.1325
 17.2244
 17.1605
 17.1363
 17.5821
 17.5511
 17.6718
 17.5408
 17.6041
 17.517
 17.5515
 17.5148
 17.1716
 17.1013
 17.1146
 16.1909
 16.1575
 16.2183
 16.1983
 18.3738
 18.2888
 18.327
 18.3218
 17.9112
 17.8268
 17.8349
 17.8526
 19.412
 19.4555
 19.4433
 19.3768
 18.8462
 18.7895
 18.7941
 18.839
 18.7564
 18.8784
 18.8163
 18.8924
 18.8887
 18.8434
 18.8554
 18.8205
 17.6031
 17.6493
 17.6335
 19.2147
 19.2328
 19.1898
 19.1733
 18.9803
 18.9499
 18.8966
 18.9723
 15.5822
 15.6948
 15.6984
 15.6176
 17.5523
 17.5996
 17.6527
 17.6884
 16.5766
 16.5726
 16.6297
 16.6561
 17.404
 17.3616
 17.4209
 17.4767
 17.1922
 17.124
 17.1983
 17.1789
 18.5986
 18.6672
 18.6346
 18.7305
 17.7952
 17.6294
 17.7609
 17.7377
 16.4837
 16.4134
 16.4788
 16.4466
 17.3593
 17.395
 17.269
 17.2876
 18.9105
 18.9576
 18.8742
 18.8366
 16.151
 16.1162
 16.143
 16.0982
 18.2332
 18.3074
 19.006
 17.7987
 17.7595
 17.6947
 17.8172
 18.0235
 17.9399
 18.0336
 18.054
 19.7737
 19.7857
 19.7114
 18.3682
 18.4491
 18.4672
 18.5165
 17.3659
 17.2251
 17.2866
 17.2033
 17.6712
 17.6084
 17.6446
 17.6768
 16.1819
 16.1343
 16.1238
 16.1549
 18.8086
 18.676
 18.769
 18.64
 18.6451
 18.6657
 18.5635
 19.5973
 19.7053
 19.6429
 19.6093
 18.8498
 18.7528
 18.8226
 17.3917
 17.2218
 17.3647
 18.9086
 18.9207
 18.9884
 18.9536
 17.9906
 17.9101
 17.8935
 17.895
 20.9368
 20.9412
 20.9343
 20.8797
 18.1243
 18.1515
 18.1532
 19.1828
 19.2008
 19.1841
 19.1838
 18.1378
 18.1775
 18.2481
 18.1839
 18.9788
 18.9106
 18.9165
 18.8765
 16.9564
 16.9163
 16.9724
 16.8945
 16.735
 16.8151
 16.7526
 16.7066
 15.8029
 15.8011
 15.7467
 15.8788
 17.5111
 17.6253
 17.5386
 17.5086
 18.9951
 19.0863
 19.0029
 19.0544
 18.5357
 18.5677
 19.489
 19.4856
 19.46
 19.4617
 17.9599
 17.9246
 18.3564
 18.2269
 18.2557
 18.7277
 18.677
 18.6404
 18.6819
 15.9248
 15.8739
 16.0204
 16.0023
 16.1069
 16.1293
 16.1684
 16.1231
 18.6204
 18.5935
 18.6481
 18.711
 19.23
 19.2041
 17.4073
 17.3708
 17.3949
 17.3116
 18.7259
 18.7551
 18.6908
 18.6933
 18.2335
 18.3417
 18.1663
 15.2506
 15.2106
 15.3202
 17.7271
 17.6117
 17.6516
 17.6514
 16.292
 16.1806
 16.3151
 16.3667
 17.566
 17.4892
 17.4688
 17.578
 16.8766
 16.8072
 16.7944
 16.9256
 19.0278
 18.9521
 19.0161
 19.0528
 18.6837
 18.5767
 18.7163
 18.6092
 17.5542
 17.6428
 17.4702
 17.5845
 18.3202
 18.2301
 18.206
 18.3269
 19.0062
 18.9781
 18.9478
 18.8796
 17.9775
 17.9386
 17.8874
 17.8419
 17.088
 17.0755
 17.137
 17.6352
 17.5427
 17.6054
 17.556
 20.5466
 20.4795
 20.4316
 20.4785
 19.226
 19.2293
 19.2096
 19.2207
 18.3827
 18.3825
 18.3931
 18.3077
 19.8182
 19.7478
 19.8443
 19.7918
 16.2313
 16.2329
 16.3143
 15.6793
 15.7625
 15.8566
 15.7752
 16.6987
 16.5365
 16.5983
 16.5957
 17.6723
 17.1275
 17.008
 16.9781
 17.0599
 17.7981
 17.7305
 17.8404
 17.8468
 19.0334
 19.1035
 19.0664
 18.6323
 18.6117
 18.5855
 18.7007
 20.5409
 20.6131
 20.5494
 20.6383
 19.6811
 19.6824
 19.6568
 19.6578
 18.4199
 18.4204
 18.3696
 18.3213
 15.5819
 15.7347
 15.6813
 15.7003
 20.3497
 20.3317
 20.2682
 20.2804
 16.9695
 16.8773
 17.0267
 16.9238
 17.6867
 17.677
 17.5968
 17.672
 18.594
 18.7391
 18.7276
 17.8748
 17.9709
 17.9821
 17.9755
 15.7731
 15.7277
 15.7035
 18.9798
 18.8564
 18.8402
 18.1504
 18.1268
 18.0295
 18.0492
 18.4313
 18.4544
 18.4794
 18.4962
 18.3626
 18.3795
 18.2838
 18.2665
 19.1445
 19.1949
 19.1851
 19.1038
 17.9158
 17.855
 17.9424
 17.8553
 15.8473
 15.9952
 15.9929
 16.0667
 16.2425
 16.2637
 16.2647
 16.1874
 19.3059
 19.2865
 19.286
 19.2987
 16.3446
 16.3
 16.3066
 16.4218
 16.0034
 15.8671
 15.9031
 16.0282
 16.3219
 16.3336
 16.4434
 16.4328
 17.2478
 17.2583
 17.1854
 17.2227
 17.7638
 17.8276
 17.7375
 18.4116
 18.5363
 18.5028
 18.4723
 16.7297
 16.7913
 16.841
 16.712
 16.7521
 16.6999
 16.6565
 16.6841
 15.2243
 15.2265
 15.3982
 15.2956
 19.757
 19.7045
 19.7187
 19.7053
 19.4602
 19.5003
 19.4811
 19.4242
 19.1132
 19.1377
 19.0392
 19.1416
 18.3231
 18.4422
 18.3617
 18.3704
 18.2776
 18.2681
 18.2704
 15.9572
 15.8923
 15.7941
 15.8534
 16.6596
 16.706
 16.7579
 16.7483
 17.9374
 18.0016
 18.0296
 17.9806
 16.1824
 16.1241
 17.4575
 17.4589
 17.4638
 17.5432
 16.283
 16.239
 16.1097
 16.207
 17.5874
 17.4726
 17.61
 17.4633
 18.4353
 18.3873
 18.5089
 18.4738
 19.3957
 19.4455
 19.4034
 19.3385
 20.6109
 20.5351
 20.636
 20.5791
 16.3716
 16.4047
 16.4189
 16.3541
 15.9777
 15.963
 15.9563
 15.8885
 18.1232
 18.2241
 18.1653
 18.2194
 17.7439
 17.791
 17.8054
 17.7436
 18.7585
 18.8396
 18.7027
 17.2487
 17.3207
 17.3091
 17.3461
 18.7978
 18.8136
 18.7547
 18.7604
 17.8755
 17.9546
 18.0246
 17.9699
 17.1929
 17.2397
 17.2195
 17.1775
 17.6368
 17.6649
 17.704
 16.2697
 16.3623
 16.334
 16.3363
 17.255
 17.147
 19.8488
 19.727
 19.8509
 19.802
 16.8387
 16.9083
 16.8699
 18.6073
 18.5772
 18.5833
 18.5987
 17.3648
 17.3847
 17.4107
 17.7667
 17.855
 17.7625
 17.8151
 17.3041
 17.4017
 17.2466
 17.3391
 17.2192
 17.1192
 20.2754
 20.2756
 20.3319
 20.2698
 20.4528
 20.5388
 20.5679
 20.4919
 17.7114
 17.8118
 17.7709
 17.8167
 17.4042
 17.4591
 17.4042
 17.4668
 20.2124
 20.2274
 20.2002
 20.1497
 18.6423
 18.7344
 19.1537
 19.1399
 19.1021
 19.0324
 17.1898
 17.2302
 17.1055
 17.1739
 17.4502
 17.4139
 17.3351
 17.4845
 17.2596
 17.3645
 17.3897
 17.361
 18.4551
 18.4532
 18.3707
 18.4554
 18.9452
 18.9471
 19.0317
 18.9328
 19.5066
 19.4241
 19.4296
 19.4981
 18.9374
 18.9466
 18.9438
 18.8159
 16.7737
 16.8544
 16.7653
 16.8279
 17.7087
 17.9122
 17.813
 19.8033
 19.7569
 19.7052
 17.0713
 16.9263
 17.007
 17.0135
 16.9556
 17.1327
 17.0377
 17.0111
 18.0701
 18.1277
 18.1582
 18.0003
 17.9729
 17.8918
 17.9615
 18.9852
 19.0375
 19.0582
 19.0586
 16.5607
 16.5941
 16.518
 16.5639
 19.1836
 19.2046
 19.1976
 19.1615
 19.1972
 19.2471
 19.2037
 15.6209
 15.4898
 15.4228
 15.5281
 16.3737
 16.3093
 18.584
 18.6181
 18.5397
 18.5705
 17.796
 17.701
 17.7999
 17.9553
 18.0043
 17.9797
 18.0576
 18.9995
 18.9358
 18.9654
 16.6456
 16.5856
 16.7125
 16.6714
 18.9924
 18.8837
 18.9587
 18.9741
 16.944
 17.0325
 17.0606
 17.0087
 19.148
 19.1028
 18.9034
 18.9953
 18.9254
 18.9667
 18.6463
 18.688
 18.668
 18.6374
 19.6786
 19.7
 19.7734
 19.729
 16.7865
 16.6786
 18.4019
 18.3496
 18.3417
 18.3487
 15.7587
 15.8044
 15.7716
 15.7373
 18.4174
 18.4571
 18.3456
 18.2873
 16.6059
 16.508
 16.4773
 16.4691
 16.0841
 15.9752
 16.1549
 15.9965
 16.9541
 17.0521
 16.1189
 16.0315
 16.0632
 16.0879
 18.98
 18.9955
 18.9924
 18.9178
 16.1633
 16.1205
 16.1061
 16.1704
 15.6428
 15.5076
 15.5169
 15.6151
 17.3605
 17.3538
 17.2726
 17.297
 17.8804
 17.9141
 17.8145
 17.7736
 16.1583
 16.2855
 16.2097
 16.152
 19.7663
 19.6756
 19.7217
 19.7893
 16.2095
 16.0712
 18.3818
 18.3253
 18.316
 18.2388
 16.3304
 16.3617
 16.4661
 16.4534
 18.9724
 18.8935
 18.9074
 18.9104
 18.1798
 18.3048
 18.2627
 18.1955
 18.7793
 18.8061
 18.7057
 18.9775
 19.0256
 18.9788
 19.0597
 19.16
 19.0853
 19.1067
 19.07
 17.3774
 17.4334
 17.4614
 16.4322
 16.4191
 16.3318
 16.354
 17.6299
 17.6772
 17.701
 18.9754
 19.0371
 18.9967
 17.7529
 17.6189
 17.7327
 17.658
 17.3009
 17.3235
 17.2877
 17.1838
 18.0026
 17.9023
 17.8888
 17.9279
 18.1538
 18.2003
 18.2202
 18.2645
 18.31
 18.3159
 18.153
 18.1151
 18.0571
 18.1994
 16.3575
 16.425
 16.3721
 16.4439
 16.9628
 17.027
 16.9753
 16.9337
 17.995
 17.949
 17.9906
 17.8645
 18.9515
 19.0086
 18.9701
 17.6191
 17.6745
 17.6156
 17.6071
 18.5027
 18.6108
 18.5751
 18.622
 20.0557
 20.0388
 20.0761
 20.1001
 18.2833
 18.3281
 18.3072
 18.3139
 16.2777
 16.2914
 16.2018
 16.2349
 18.2947
 18.187
 18.2444
 18.2962
 19.1066
 19.1121
 19.0749
 19.043
 18.9858
 19.0304
 19.0225
 17.9215
 17.9049
 17.921
 17.2519
 18.3494
 18.476
 18.3974
 18.4015
 16.1233
 16.1458
 16.0823
 16.3106
 16.2891
 16.2402
 18.3198
 18.2323
 18.2952
 18.2434
 15.5495
 15.5119
 15.4813
 15.4689
 18.9475
 17.499
 17.5769
 17.5148
 17.541
 18.8874
 18.8538
 18.8656
 18.8444
 16.1309
 16.0874
 16.234
 16.1365
 17.0833
 16.9437
 17.0035
 17.0513
 16.7171
 16.6636
 16.7714
 16.7526
 19.1602
 19.1305
 19.0913
 19.1579
 18.5169
 18.4442
 18.5231
 18.5234
 17.6441
 17.6955
 17.6093
 17.6973
 18.379
 18.4703
 18.3401
 18.433
 17.1496
 17.1184
 17.0317
 17.0527
 18.8887
 18.9306
 18.8477
 18.8454
 18.5507
 18.4991
 18.4317
 18.4807
 17.4118
 17.4025
 17.4207
 17.3041
 16.0114
 15.8872
 15.9598
 15.8933
 19.0967
 19.091
 19.0083
 19.0522
 19.6114
 19.701
 19.6052
 19.6121
 16.0884
 16.0143
 16.0466
 16.0013
 19.6024
 19.6719
 19.4725
 19.5053
 19.5116
 19.4365
 17.7824
 17.7279
 17.8081
 17.8714
 18.514
 18.464
 18.465
 18.5502
 15.2924
 15.2399
 15.2527
 15.3329
 16.1711
 16.1798
 16.0529
 17.083
 17.0908
 17.0158
 17.1246
 19.029
 19.004
 19.0873
 18.9792
 18.5752
 18.5899
 18.6204
 18.6585
 18.6072
 18.5455
 17.0948
 16.9521
 16.9964
 17.051
 17.2221
 17.217
 17.2992
 17.2005
 16.9535
 16.9587
 17.0559
 16.9553
 15.6862
 15.6638
 15.8512
 15.6287
 16.7556
 16.747
 16.8425
 18.223
 17.6068
 17.6227
 17.5925
 17.6648
 17.5687
 17.6651
 17.6396
 17.6278
 16.5122
 16.572
 16.5748
 16.627
 16.7884
 16.8421
 16.8424
 16.7496
 17.4203
 17.5019
 17.4957
 18.3812
 18.4216
 18.3472
 18.4851
 17.6405
 17.4927
 17.5859
 17.5575
 18.3109
 18.2607
 18.3542
 20.2968
 20.2961
 20.341
 20.2602
 16.4409
 16.2966
 16.3496
 16.3553
 16.4834
 16.3241
 16.4117
 20.2615
 17.5528
 17.5284
 17.5636
 17.4504
 17.4507
 17.4263
 19.4983
 19.4775
 19.4856
 19.458
 19.0921
 19.0673
 18.998
 19.1055
 18.6784
 18.6313
 18.6291
 18.7277
 18.8159
 18.7773
 18.7208
 18.8124
 18.8232
 18.7506
 18.1749
 18.2312
 18.2552
 18.2731
 18.1217
 18.0388
 15.1341
 15.1312
 18.9544
 18.822
 18.9524
 18.8725
 17.9654
 17.9905
 17.9421
 18.035
 19.13
 19.1121
 19.2433
 19.1952
 16.3462
 16.2871
 16.4547
 16.3885
 16.473
 16.5519
 16.4756
 16.5594
 17.1632
 17.103
 17.0874
 17.129
 17.6808
 17.6539
 17.5273
 17.589
 17.7162
 17.7718
 18.9659
 16.8929
 16.7927
 16.8195
 16.795
 15.7226
 15.7366
 15.5884
 15.7681
 16.4143
 16.3127
 16.4339
 16.3926
 20.9306
 20.9292
 20.9173
 20.8924
 15.8453
 15.8281
 15.8788
 15.8722
 18.7143
 18.7108
 18.7913
 18.668
 18.3869
 18.4807
 18.443
 18.5107
 17.0628
 17.0504
 16.9967
 16.9851
 17.0632
 17.08
 17.1307
 17.109
 18.9915
 18.8561
 18.9248
 18.8937
 15.9901
 15.9391
 15.9999
 15.9857
 16.3335
 16.2682
 16.3001
 16.2379
 16.8621
 16.8431
 16.7775
 16.7772
 16.1414
 16.211
 16.1845
 16.1397
 18.5212
 18.4377
 18.4391
 18.4032
 19.0038
 18.9794
 18.9627
 18.9282
 16.4003
 16.484
 16.5085
 16.4856
 18.0544
 18.0517
 18.0923
 18.166
 17.8925
 17.9341
 17.9506
 17.8979
 20.4936
 20.4629
 20.4141
 20.4588
 15.8738
 15.8515
 16.1191
 16.0968
 16.1878
 16.048
 19.293
 19.3758
 19.4031
 19.277
 18.512
 18.6196
 18.6177
 18.6608
 16.2925
 16.3602
 16.2595
 16.2261
 18.2277
 18.1981
 18.248
 18.1582
 18.2711
 18.2444
 18.3428
 18.3349
 15.736
 15.7144
 15.7723
 15.8129
 17.6604
 17.6801
 17.6526
 17.6169
 17.8588
 17.8283
 17.8537
 17.912
 16.7354
 16.6813
 16.6518
 16.6916
 17.1472
 17.1693
 17.2015
 17.2529
 18.1501
 18.1342
 18.2465
 18.5063
 18.4389
 18.4847
 18.3693
 19.4377
 19.4558
 19.4811
 19.3574
 18.3582
 18.3037
 18.2881
 18.2715
 17.7519
 17.8067
 17.7567
 17.8293
 15.6191
 15.5898
 15.608
 15.7327
 18.3711
 18.2212
 18.3011
 18.3003
 19.2301
 19.2272
 19.288
 19.3257
 16.9013
 16.8232
 16.864
 16.9345
 17.2975
 17.3056
 17.3519
 17.6832
 17.5534
 17.5501
 17.5145
 19.4767
 19.4731
 19.4683
 19.4118
 17.5438
 17.6277
 17.5898
 17.6664
 16.0747
 16.0641
 16.0609
 16.046
 17.6426
 17.6215
 17.6178
 17.5606
 19.1799
 19.2333
 19.2009
 19.1692
 18.8808
 18.8279
 18.8942
 18.9581
 15.0572
 15.0911
 15.0403
 15.0347
 18.5465
 18.5294
 18.5417
 18.6465
 17.3394
 17.4831
 17.4377
 17.4087
 15.2146
 15.2017
 15.2836
 15.2805
 16.141
 16.0153
 16.0759
 16.9047
 16.914
 16.8093
 16.7797
 16.2837
 16.2906
 16.1593
 16.3189
 20.1374
 20.0888
 20.0358
 20.0554
 18.7739
 18.6888
 18.8017
 15.8235
 15.706
 15.7268
 15.7218
 17.3907
 17.4114
 17.3166
 17.4372
 16.641
 16.66
 16.55
 16.7179
 19.0589
 19.0679
 19.1328
 19.1736
 18.252
 18.1616
 18.271
 18.1975
 17.1227
 17.2615
 17.2222
 19.4395
 19.4084
 19.3628
 19.3694
 18.9183
 19.0121
 18.9626
 18.9934
 18.3066
 15.7989
 15.7485
 15.7751
 15.7021
 19.9812
 19.9787
 20.0393
 20.0465
 16.7382
 16.5935
 16.668
 16.5743
 17.2689
 17.3328
 17.2912
 17.3892
 20.3623
 16.4603
 16.5385
 16.4182
 15.8605
 15.7373
 15.8136
 15.7975
 17.976
 17.9426
 17.8165
 17.9167
 17.1975
 17.2032
 17.13
 17.2521
 18.7357
 18.8192
 17.8045
 17.8469
 17.8406
 17.7465
 18.7494
 18.7986
 18.8379
 18.7662
 18.4296
 18.4686
 18.3469
 18.351
 16.9763
 17.0341
 16.9714
 16.9416
 19.709
 19.7098
 19.7087
 19.6209
 19.0203
 19.0715
 19.0352
 19.0979
 19.595
 19.5254
 19.259
 19.2626
 19.2502
 19.2527
 19.3341
 19.3893
 19.2971
 19.3747
 15.7733
 15.8204
 15.9028
 15.906
 17.4075
 17.4026
 17.4408
 17.3065
 18.2435
 18.1301
 18.2029
 18.1935
 17.6007
 17.6331
 17.6535
 17.5713
 15.7171
 15.7246
 19.4783
 19.5226
 19.5128
 19.4747
 15.7274
 15.6986
 15.7742
 19.8801
 19.9131
 19.8816
 19.9235
 15.9351
 16.0315
 15.9592
 16.0347
 18.3487
 18.4131
 18.3219
 18.4116
 18.0244
 18.0014
 18.046
 15.7362
 15.791
 15.7765
 15.7189
 17.49
 17.5718
 17.4718
 17.5509
 17.9515
 17.9119
 17.8284
 17.9121
 18.3104
 18.3598
 18.1234
 18.2722
 18.1576
 18.2207
 17.2998
 17.3933
 17.3504
 15.6453
 15.7999
 15.8155
 15.7044
 18.0709
 18.0118
 18.0779
 18.0605
 18.2055
 18.2513
 18.5071
 18.6005
 18.6199
 18.5513
 19.835
 19.8227
 19.756
 17.549
 17.5292
 17.6417
 17.6466
 15.8502
 15.8441
 15.8314
 19.5754
 19.6381
 19.5736
 17.9934
 18.0618
 18.0158
 18.0964
 17.0765
 17.0812
 17.1879
 17.1507
 20.0574
 20.0838
 20.0622
 20.0529
 16.3685
 16.3432
 16.4051
 16.4169
 17.0195
 17.0959
 17.0826
 17.107
 16.3902
 16.3608
 16.4246
 15.834
 15.8164
 15.6641
 15.7493
 17.708
 17.8081
 17.7176
 17.7124
 16.1011
 16.124
 16.1661
 16.1759
 18.3844
 18.415
 18.3584
 18.4518
 15.6945
 17.2615
 17.8501
 17.8931
 17.8126
 17.9199
 17.2836
 17.3013
 17.3849
 17.3962
 16.8119
 16.7854
 16.8402
 16.926
 17.2944
 17.3383
 17.2326
 17.2754
 16.6367
 16.6979
 16.6132
 16.6289
 17.8429
 17.8961
 17.8549
 17.7839
 17.949
 17.9152
 17.9004
 17.8637
 18.2318
 18.2476
 18.2808
 18.1754
 17.8658
 17.8697
 17.9472
 19.1156
 19.0975
 19.1174
 19.0548
 17.7899
 17.0983
 16.9684
 16.9618
 17.0425
 15.8869
 15.8803
 15.9948
 18.4366
 18.5589
 18.5041
 18.5433
 17.6566
 17.5477
 17.5729
 17.2363
 17.2375
 17.3157
 17.3144
 17.0597
 17.0331
 16.9402
 16.9223
 16.2272
 16.1766
 16.1166
 16.192
 18.7868
 18.8045
 18.7497
 18.8773
 17.5526
 17.619
 17.6426
 17.6654
 17.8934
 17.9527
 18.0035
 17.9152
 17.9984
 18.0611
 18.0665
 18.1259
 17.8252
 17.8621
 17.8114
 17.9024
 16.779
 16.9289
 16.7567
 16.8605
 17.9707
 18.1103
 18.0572
 18.0438
 19.5007
 19.4988
 19.5011
 19.4669
 19.5278
 19.4727
 19.4793
 17.816
 17.8038
 17.7267
 17.7195
 17.7793
 17.7267
 17.7028
 17.6813
 17.8914
 17.967
 17.8434
 17.8411
 15.9517
 15.9456
 16.0656
 16.0535
 16.7769
 16.8728
 16.8713
 16.7678
 18.5829
 18.5325
 18.5416
 18.5206
 19.0223
 18.9354
 18.9447
 19.0559
 16.3307
 16.3503
 16.4064
 16.325
 19.9566
 19.9935
 19.9771
 19.9075
 18.2791
 18.1948
 18.2428
 18.2538
 19.2157
 19.1601
 19.1682
 18.8343
 18.7759
 18.7712
 18.7164
 16.9485
 16.9843
 16.9111
 17.0458
 18.7639
 18.8865
 18.8368
 18.8095
 19.4737
 19.3224
 19.4247
 20.0514
 19.9798
 19.9369
 19.959
 15.6156
 15.5824
 15.52
 15.443
 18.7157
 18.77
 18.7235
 18.6951
 17.3718
 17.4951
 17.475
 17.3919
 16.0529
 16.1234
 16.1971
 16.1346
 16.5779
 16.4476
 16.6224
 16.5404
 18.6321
 18.6235
 18.6772
 18.6411
 19.258
 19.3379
 19.4022
 19.3187
 17.5966
 17.5393
 17.626
 17.5757
 19.2285
 19.1235
 18.1415
 18.2679
 18.2466
 18.1749
 18.0149
 18.0222
 18.0725
 17.9876
 18.1138
 18.1056
 18.1488
 19.0708
 19.0407
 19.07
 17.3207
 17.3181
 17.2914
 17.2627
 17.4832
 17.4934
 17.563
 17.4113
 18.6281
 18.53
 18.5724
 18.6213
 16.7507
 16.6443
 16.7863
 16.7352
 17.8405
 17.9482
 17.8902
 17.8054
 19.1995
 19.2005
 19.2195
 19.2029
 18.3333
 18.2822
 18.3345
 17.4564
 17.4556
 17.5386
 17.4586
 17.7502
 17.7032
 17.6409
 15.6108
 15.6656
 15.6808
 15.71
 19.627
 19.6602
 19.6207
 19.7237
 18.4259
 18.3347
 18.3501
 18.403
 18.4554
 18.4768
 18.5483
 18.4552
 15.512
 15.5524
 15.4313
 15.3471
 16.7326
 16.6779
 16.6884
 18.7482
 18.7752
 18.8014
 18.7677
 16.5444
 16.6561
 16.6077
 18.7097
 18.7071
 18.7673
 18.7493
 20.5903
 20.5394
 20.5891
 20.5454
 16.0824
 16.0457
 15.9841
 16.103
 19.0569
 19.0803
 19.1172
 19.1907
 15.7938
 15.8371
 15.8526
 15.8244
 18.8593
 18.7561
 18.831
 18.7945
 20.5747
 20.6577
 20.5831
 20.5881
 19.3921
 19.4822
 19.4129
 19.3631
 19.0349
 18.9682
 18.9194
 19.0483
 17.8144
 17.9431
 19.0251
 19.0146
 19.1384
 19.1189
 17.3752
 17.4188
 17.4496
 17.4985
 17.9328
 17.931
 17.9895
 17.8705
 16.1285
 16.2501
 16.0437
 16.0239
 16.3237
 16.3871
 16.3232
 16.2719
 16.5413
 16.59
 16.5482
 16.6331
 16.2763
 16.2593
 16.234
 16.3008
 17.0342
 17.0672
 16.9781
 17.0484
 16.4977
 16.3951
 16.4278
 16.4782
 19.5477
 19.6466
 19.6611
 19.5358
 16.1454
 16.0923
 16.1158
 16.1316
 18.1857
 18.2545
 18.2873
 18.2493
 16.713
 16.8636
 16.8165
 16.3126
 16.2214
 16.2308
 16.2739
 19.0132
 19.102
 19.1113
 19.0782
 19.4397
 19.4699
 19.5141
 19.4894
 16.8509
 16.8697
 16.9279
 16.7823
 18.0302
 18.0446
 18.0697
 18.1148
 17.0662
 17.1354
 17.0712
 17.0766
 17.0738
 17.0719
 16.9064
 18.2701
 18.2952
 18.3698
 17.1132
 17.0848
 17.5909
 17.7117
 15.6409
 15.5869
 15.5847
 15.6329
 17.668
 17.6257
 17.6736
 17.5753
 17.1016
 17.1519
 17.031
 17.1466
 17.478
 17.4256
 17.4596
 17.3824
 16.5249
 16.537
 16.4873
 16.546
 16.553
 18.0819
 18.0761
 18.1623
 18.1663
 19.2101
 19.2102
 19.2081
 19.1993
 17.0756
 17.1721
 17.0771
 17.1328
 17.0741
 17.1437
 17.1591
 17.0651
 20.4148
 20.3714
 20.3419
 20.2849
 17.8179
 17.7465
 17.7821
 17.833
 17.8366
 17.9127
 17.9428
 17.8667
 17.1789
 17.2462
 19.0581
 19.0345
 18.9975
 19.0466
 18.4473
 18.3971
 18.4303
 18.481
 18.9243
 18.9617
 18.9963
 18.9872
 18.5321
 18.4723
 18.4848
 18.5466
 18.8909
 18.8971
 18.9349
 18.8774
 16.727
 16.7626
 16.7247
 16.6663
 16.1407
 16.1426
 16.2404
 16.1791
 18.6739
 18.7087
 18.7565
 18.6628
 17.8293
 17.9182
 17.8431
 17.8659
 16.5374
 16.6564
 16.5774
 16.6337
 18.1844
 18.2195
 18.2276
 18.1295
 18.6773
 18.6204
 19.3546
 19.3182
 19.2962
 19.3614
 18.0218
 18.0507
 18.0836
 18.1276
 16.4433
 16.4902
 16.4928
 16.3763
 15.9255
 15.9917
 15.9739
 15.9066
 20.2001
 20.1913
 18.1367
 18.0683
 18.0329
 18.0213
 18.2575
 18.3801
 18.3009
 18.2994
 18.3765
 18.4093
 18.8409
 18.7924
 18.8091
 18.7618
 17.9547
 17.8707
 17.8411
 19.5253
 19.4768
 19.4725
 19.4324
 16.2432
 16.1692
 16.3037
 16.2344
 16.0156
 16.0157
 16.009
 15.556
 15.6415
 15.7204
 15.6533
 17.5361
 17.3982
 17.4581
 17.4334
 17.8251
 17.72
 17.8719
 17.7779
 16.6965
 16.5616
 16.51
 16.5943
 17.1523
 17.1578
 17.0739
 17.1527
 17.3313
 17.245
 17.2856
 17.6989
 17.6819
 17.7313
 17.6275
 16.9473
 16.7839
 16.8401
 16.9303
 18.1279
 18.1591
 18.1102
 18.0994
 17.7526
 17.7764
 17.6863
 17.8116
 17.1815
 17.2016
 17.2432
 17.1512
 17.8235
 17.8916
 17.9181
 17.8174
 20.5437
 20.5663
 20.4977
 20.4975
 18.7984
 18.8326
 18.8284
 18.8888
 16.9522
 16.9451
 16.8526
 16.8421
 18.7859
 18.765
 18.8622
 18.8938
 19.0149
 19.1223
 19.011
 18.9457
 16.3381
 16.3475
 16.2821
 16.4106
 16.4193
 16.5156
 16.4275
 16.4461
 16.115
 16.2035
 16.1043
 16.0941
 16.6989
 16.7053
 16.6213
 16.651
 18.2114
 18.2122
 18.2777
 18.2113
 18.8073
 18.8359
 18.7687
 18.8461
 17.0818
 17.2174
 17.0792
 17.1831
 18.7666
 18.7421
 18.7295
 18.7357
 19.3546
 19.3324
 19.3115
 19.2677
 17.9265
 17.859
 17.9107
 17.8433
 18.3656
 18.4189
 18.4816
 18.2932
 18.2716
 18.1696
 18.2588
 19.2487
 19.2937
 19.3674
 19.2987
 18.6903
 18.7022
 18.7411
 18.7143
 17.0407
 16.9824
 17.0302
 16.9808
 17.7329
 17.6552
 17.6456
 15.5734
 15.6736
 15.6726
 15.6037
 15.9383
 15.8555
 15.7916
 15.8833
 18.396
 18.3362
 18.4295
 18.3346
 17.4955
 17.4306
 19.0891
 19.0926
 19.1763
 19.0626
 17.7043
 17.7745
 17.8295
 17.7636
 16.0689
 16.0441
 16.1379
 16.0605
 18.7653
 18.7499
 18.7124
 18.1632
 18.1572
 18.1281
 18.2349
 18.3346
 18.212
 18.2359
 18.2671
 17.8746
 17.7839
 17.7758
 17.8979
 17.9206
 17.8721
 17.8138
 17.8841
 17.6444
 17.5869
 17.6487
 17.572
 18.0134
 17.952
 16.6239
 16.6576
 16.5047
 16.6319
 17.9375
 18.0234
 17.9927
 17.9403
 17.3074
 17.4415
 17.3976
 17.9777
 17.8968
 17.9464
 17.9012
 17.3863
 17.4288
 17.4737
 17.4057
 18.8087
 18.8907
 18.8284
 18.9299
 18.1115
 18.1258
 18.0333
 17.5276
 17.5231
 17.403
 17.5795
 17.9746
 17.9845
 17.9238
 18.9275
 18.8986
 18.9773
 17.2673
 17.275
 17.273
 17.3695
 17.804
 17.7409
 17.734
 20.2341
 20.2168
 20.1812
 20.305
 17.1645
 17.2262
 17.2681
 17.1621
 18.2952
 18.3997
 18.388
 18.4068
 16.5974
 16.6046
 16.5721
 16.4977
 16.4365
 16.4992
 16.3914
 16.406
 18.9837
 18.8759
 19.0023
 18.9842
 17.6065
 17.6777
 17.7153
 18.4815
 18.573
 18.5139
 18.513
 16.248
 16.3912
 16.3166
 17.7906
 17.7222
 17.7726
 17.6851
 17.0842
 17.0512
 17.0511
 17.0603
 16.1783
 16.1242
 16.1169
 16.1915
 20.802
 20.8663
 20.8485
 20.8015
 18.6114
 18.5983
 18.5473
 18.6162
 17.5714
 17.4248
 17.4788
 17.4468
 19.3442
 19.413
 19.4203
 17.7873
 17.7099
 17.738
 17.8021
 15.9539
 17.1801
 17.2335
 17.3528
 17.2625
 16.5043
 16.507
 16.4787
 16.4447
 16.7421
 16.8
 16.8154
 16.7601
 17.5766
 17.6111
 17.6979
 17.8008
 17.806
 17.7929
 20.0471
 19.981
 20.0401
 19.997
 18.4759
 18.513
 18.5457
 18.595
 18.5805
 18.5212
 18.5779
 16.0051
 15.8087
 16.0134
 16.0137
 17.88
 17.8895
 17.7832
 17.7948
 17.5092
 17.5458
 17.6139
 17.5551
 16.355
 16.4064
 16.3116
 16.4148
 17.758
 17.7786
 17.6901
 17.7846
 19.5854
 19.5476
 19.6219
 19.5968
 17.9722
 18.005
 17.9589
 17.9915
 18.6317
 18.6299
 18.6174
 18.5624
 18.8018
 18.8633
 18.843
 18.814
 19.2698
 19.241
 19.2741
 19.2708
 19.7196
 19.7554
 19.7669
 19.6714
 15.5
 15.6054
 15.559
 15.5834
 19.9275
 19.8982
 19.9635
 19.8453
 17.8917
 17.9428
 17.8821
 17.9646
 15.6168
 15.6432
 15.6963
 15.6891
 18.2325
 18.2403
 18.1934
 18.16
 19.2153
 16.1686
 16.2268
 16.2058
 16.1186
 18.8583
 19.6191
 19.5327
 19.5133
 19.5898
 17.4557
 17.3545
 16.6949
 16.8114
 16.695
 16.8019
 16.3624
 16.3792
 16.3151
 16.3254
 15.4512
 15.5574
 15.4532
 16.6754
 16.5697
 16.57
 16.5709
 18.1562
 15.8141
 17.0934
 17.1334
 17.1595
 16.0285
 15.9584
 15.9389
 15.9854
 18.2057
 18.2026
 18.2137
 18.2648
 18.5992
 18.583
 18.6284
 18.6776
 17.0923
 17.1534
 17.1314
 17.0031
 15.8927
 15.8033
 15.912
 15.9037
 16.2996
 16.3273
 16.2668
 16.3335
 17.3148
 17.1833
 17.1989
 19.7138
 19.759
 19.62
 19.706
 20.7394
 20.6639
 20.7059
 20.661
 19.2074
 19.3073
 19.3129
 19.2628
 17.6097
 17.5374
 17.6305
 19.4962
 19.4217
 19.4517
 19.5166
 16.5081
 16.5356
 16.4284
 16.6352
 16.6028
 16.6698
 16.6325
 18.8019
 18.8364
 16.9904
 16.8829
 15.2214
 15.3134
 15.2051
 15.565
 15.5368
 15.5493
 15.4965
 18.0295
 18.1067
 17.984
 18.0439
 18.4991
 18.5157
 18.5565
 18.4652
 17.9632
 17.9709
 17.8887
 17.8933
 15.8342
 15.8383
 15.8176
 15.8441
 17.0263
 16.9912
 17.0194
 17.0759
 19.2459
 19.2486
 19.2476
 19.1791
 16.9741
 16.9522
 17.0157
 16.9111
 17.5695
 17.5452
 17.6231
 17.531
 17.1197
 17.0479
 17.0639
 20.9683
 20.9455
 20.9348
 18.474
 18.5178
 18.1903
 18.1887
 18.2645
 18.1516
 16.835
 16.7424
 16.803
 16.8311
 16.9666
 16.9227
 16.813
 16.9219
 16.9112
 16.9598
 16.8152
 20.1405
 20.1473
 19.3172
 19.3246
 19.2752
 19.3103
 17.5374
 20.2039
 20.2744
 20.2434
 20.2378
 18.6558
 18.558
 18.6396
 18.6504
 18.1124
 18.1449
 19.6981
 19.5719
 19.5818
 19.646
 15.4812
 15.3593
 15.4227
 15.458
 15.8426
 15.8221
 15.8711
 15.7289
 18.9253
 18.786
 18.8853
 18.8105
 18.4998
 18.5512
 18.3906
 18.4309
 18.4785
 18.5335
 18.4809
 16.8496
 16.8072
 16.9219
 16.8457
 19.2088
 19.1622
 19.1255
 19.1103
 17.8822
 17.835
 17.8954
 17.3168
 17.3076
 17.2591
 17.1956
 18.526
 18.5119
 18.452
 18.4922
 18.7621
 18.6776
 18.6318
 18.7158
 18.8012
 18.8607
 18.8465
 18.7802
 18.2284
 18.184
 18.1301
 18.2037
 17.1779
 17.2439
 18.6387
 18.6185
 18.5903
 18.6617
 15.498
 15.6601
 15.6422
 15.6309
 18.9086
 18.866
 18.9089
 18.8555
 19.5268
 19.548
 19.4546
 19.5048
 17.5176
 17.4782
 19.9182
 19.8905
 19.9699
 19.8741
 18.3451
 18.3076
 18.3828
 16.0499
 16.0937
 16.0178
 16.006
 19.8201
 19.8445
 19.8235
 18.812
 18.8138
 18.7372
 18.7636
 19.6371
 18.8424
 18.8747
 18.8654
 18.9491
 17.7729
 17.8264
 17.7645
 17.7814
 18.0837
 18.0647
 18.0191
 18.0898
 15.9146
 15.7938
 17.6877
 17.6494
 17.6702
 17.6919
 18.8681
 18.9624
 18.8548
 18.9678
 18.4377
 18.269
 18.3555
 18.4358
 16.1683
 16.2452
 16.2345
 16.2398
 18.111
 18.0852
 17.9978
 18.0213
 17.5371
 16.427
 16.3613
 16.4474
 18.4051
 18.3857
 18.4647
 18.3497
 17.0235
 17.0483
 16.9971
 17.1173
 18.2612
 18.3137
 18.3204
 18.2205
 15.8906
 16.0012
 16.0119
 15.9623
 15.2387
 15.1801
 15.2789
 18.8132
 18.7512
 18.6741
 18.7315
 17.3588
 17.3025
 17.4135
 17.3796
 17.0227
 16.9998
 16.9358
 16.8944
 18.4917
 18.4921
 18.7647
 18.8088
 18.8344
 18.7436
 18.2572
 18.1303
 17.3623
 17.3357
 17.3779
 17.4093
 17.1915
 17.1552
 17.0916
 17.198
 18.1451
 18.1209
 18.0464
 18.0821
 17.4474
 17.4382
 17.4333
 16.2419
 16.3616
 16.3867
 16.336
 16.6944
 16.722
 16.6647
 18.1684
 18.032
 18.1558
 18.0971
 18.6837
 18.7817
 18.8325
 18.7274
 17.0299
 17.1266
 17.1271
 17.0541
 18.0952
 18.1034
 18.1903
 19.2442
 19.2568
 19.2399
 19.2559
 18.5156
 18.5287
 18.4876
 18.4581
 16.6474
 16.6434
 16.7312
 15.5442
 15.665
 15.6607
 17.114
 17.0691
 17.0672
 18.5212
 18.5994
 18.4929
 18.574
 15.7069
 15.7079
 15.72
 15.6512
 17.2691
 17.3135
 17.2608
 17.1969
 16.5021
 16.4577
 16.3191
 16.3518
 16.654
 16.6112
 16.6614
 16.6518
 19.448
 19.495
 19.5063
 18.207
 18.1871
 18.2454
 18.1776
 16.5792
 16.5233
 16.6161
 16.6143
 17.9972
 17.9556
 17.9412
 17.8512
 16.9458
 16.9439
 16.9692
 17.0701
 15.9918
 15.9331
 19.2623
 19.205
 19.2144
 19.1755
 16.792
 16.8406
 16.7254
 16.8183
 18.2444
 18.2887
 18.3119
 18.2241
 17.129
 17.2231
 15.7517
 15.7556
 15.8298
 15.7026
 16.5048
 16.3935
 16.5384
 16.3339
 15.5959
 15.5996
 15.5145
 15.4429
 16.8803
 16.905
 16.8527
 17.1016
 16.9809
 17.012
 17.0367
 16.9569
 17.0285
 17.0039
 17.0958
 18.6481
 18.6254
 18.7049
 18.7264
 19.6062
 19.6476
 19.5548
 17.8138
 17.7936
 17.7975
 16.282
 16.3662
 16.3096
 16.3952
 18.1314
 18.0755
 18.0054
 18.0707
 18.9073
 18.9979
 18.9789
 18.9033
 17.7959
 17.8825
 17.9199
 17.9265
 18.2705
 18.1578
 18.2613
 15.78
 15.7358
 15.857
 15.8482
 19.1779
 19.1471
 19.0103
 18.964
 18.9563
 16.9828
 16.9496
 17.0369
 16.898
 17.9064
 17.8258
 17.8065
 17.8667
 19.029
 19.0157
 18.9469
 19.0149
 17.5069
 17.6506
 17.6507
 17.5475
 18.4021
 18.4591
 18.3564
 18.3616
 16.1899
 16.1716
 16.0408
 18.5179
 18.5382
 18.4624
 18.4693
 17.5442
 17.4849
 19.057
 18.9561
 18.9805
 19.042
 18.938
 19.0074
 18.9731
 19.0047
 16.042
 16.1094
 18.8071
 18.7366
 18.7751
 18.8354
 17.7819
 17.8697
 17.8186
 17.7847
 18.2909
 19.541
 19.6063
 19.5859
 17.4946
 17.5021
 17.4701
 17.553
 16.0615
 16.0504
 16.1212
 16.0104
 19.3994
 19.3987
 19.3561
 19.4228
 18.958
 18.8925
 18.9758
 18.9613
 17.0403
 16.9917
 16.9877
 19.3163
 19.3024
 19.2632
 19.24
 15.5413
 15.6539
 15.5737
 15.5241
 19.2381
 19.1807
 19.1605
 19.2721
 17.2086
 17.3023
 17.2302
 17.1335
 18.2685
 18.223
 18.2373
 18.2949
 18.9973
 18.9684
 18.982
 18.348
 18.2534
 18.3584
 18.2794
 19.1014
 19.1849
 19.1327
 19.1314
 18.8738
 18.9264
 18.883
 16.7904
 16.8642
 16.7656
 16.8088
 16.9023
 17.902
 17.7256
 17.8357
 17.8333
 16.0107
 16.0552
 16.1028
 16.0561
 17.5016
 17.4119
 17.5555
 17.4481
 17.1573
 17.0905
 17.1571
 17.1873
 18.9789
 19.0155
 18.9249
 18.7918
 18.8121
 17.3277
 17.4329
 17.3544
 17.3162
 16.0789
 15.9481
 17.6204
 17.5964
 17.6737
 17.5741
 19.0885
 19.1092
 19.0335
 16.2489
 16.2139
 16.2918
 16.2577
 17.6628
 17.7695
 17.7414
 17.7186
 19.0194
 19.0671
 19.0207
 18.9871
 17.8677
 17.8828
 17.7633
 17.8437
 17.2538
 17.1093
 19.3861
 19.4257
 19.4026
 19.4524
 18.8108
 18.6878
 18.623
 18.6691
 18.6039
 18.622
 18.6291
 18.7238
 18.6852
 18.637
 17.7413
 17.7319
 17.7564
 17.3088
 17.3464
 17.3766
 17.4178
 18.7209
 18.7287
 18.7116
 18.7291
 18.2728
 18.2798
 17.5122
 17.5841
 17.5623
 17.6298
 17.5457
 17.5311
 17.9282
 17.825
 17.8154
 17.8986
 19.873
 19.7916
 19.8068
 19.7633
 17.5512
 19.1048
 19.0241
 19.081
 19.0978
 15.8006
 15.7236
 15.8174
 16.8591
 16.9006
 16.9416
 16.8463
 17.8868
 17.831
 17.8626
 17.9864
 17.7562
 17.6833
 17.7812
 18.8479
 18.7861
 18.8226
 18.8671
 16.1045
 16.0324
 16.2124
 16.0811
 17.2744
 17.3022
 17.222
 17.2443
 16.1333
 16.1091
 16.2421
 16.1731
 19.1374
 19.1225
 19.2015
 19.197
 18.6654
 18.6042
 16.8409
 16.879
 16.927
 16.8742
 16.0104
 16.0035
 15.9895
 16.0462
 15.2767
 15.2343
 15.3065
 15.188
 16.1098
 16.1754
 16.091
 17.2687
 17.2158
 17.2971
 17.2483
 16.2991
 16.2637
 16.2065
 16.2504
 19.2283
 19.1556
 19.1023
 19.172
 16.4737
 16.4234
 16.3984
 17.2889
 17.3143
 17.3361
 17.3315
 19.1132
 19.1531
 19.1123
 19.1747
 17.0442
 16.946
 17.0112
 17.0018
 17.436
 17.3706
 17.3467
 17.4182
 18.5261
 18.4779
 18.4583
 18.3953
 19.2788
 19.2648
 19.3605
 19.3535
 18.0436
 18.0153
 17.9463
 18.0268
 20.0281
 19.9975
 19.9136
 19.9458
 18.9145
 18.8663
 18.9249
 18.7453
 18.8285
 18.8261
 18.8437
 20.3195
 20.2788
 20.367
 20.2894
 16.3033
 16.3756
 16.3712
 16.5986
 16.5898
 16.5139
 16.534
 18.6859
 18.5639
 18.6018
 19.5853
 19.5745
 19.6083
 19.2223
 19.304
 19.2215
 19.2202
 18.6354
 18.6475
 18.5785
 18.7042
 17.227
 17.1224
 17.1876
 17.1994
 19.8519
 19.8426
 19.781
 19.8625
 17.3899
 17.5214
 17.5412
 17.4374
 16.5912
 16.5138
 16.6561
 16.5869
 17.5793
 17.5783
 17.4557
 17.4945
 18.1067
 18.1561
 18.0357
 19.0559
 19.0624
 19.059
 19.0056
 16.1076
 16.0246
 16.0044
 16.0221
 16.5036
 16.448
 16.5066
 16.5565
 18.5636
 18.4993
 18.5395
 18.6023
 15.8682
 15.8172
 15.7771
 16.0942
 15.9598
 16.0762
 16.0445
 15.9866
 15.957
 16.0466
 16.0133
 19.777
 19.7966
 20.3144
 20.3039
 20.351
 20.2533
 17.255
 17.2926
 17.3498
 17.8602
 17.9219
 17.7926
 17.8985
 17.7648
 17.6759
 17.7062
 17.7535
 20.903
 18.1358
 17.3564
 17.275
 16.5628
 16.5011
 16.5384
 16.5258
 19.5957
 18.3146
 18.2394
 18.3165
 15.1633
 15.2295
 15.2269
 15.2238
 17.72
 17.7841
 17.7242
 17.655
 15.7448
 15.8127
 15.7631
 15.8363
 18.0941
 18.0031
 18.1504
 18.3242
 18.234
 18.288
 16.3537
 16.3088
 16.425
 16.3443
 17.4136
 17.4474
 17.5079
 17.5616
 19.2098
 19.2695
 19.154
 19.18
 16.4874
 16.3338
 16.3922
 15.8354
 15.6938
 15.6929
 15.8305
 16.5431
 16.5585
 16.6429
 16.541
 18.6949
 18.7101
 18.5784
 18.717
 18.5131
 18.5707
 18.5589
 18.5691
 16.2494
 16.175
 16.1827
 16.1679
 18.149
 18.1648
 18.2319
 16.7603
 16.7418
 16.788
 16.8325
 19.0279
 18.9572
 19.0706
 19.0661
 17.3278
 17.2907
 17.3995
 17.3549
 19.1258
 19.0712
 19.1193
 19.1135
 17.5742
 17.4923
 17.5586
 17.5355
 16.6552
 16.6301
 16.5483
 16.7327
 19.2881
 19.3115
 19.2497
 17.6398
 17.567
 16.4608
 16.5136
 16.5132
 16.573
 18.1446
 18.1925
 18.2022
 19.1683
 19.2411
 19.2631
 19.2255
 17.119
 17.0831
 17.1362
 17.0531
 17.2422
 17.2585
 17.121
 17.2221
 20.6233
 20.6311
 20.5573
 20.5963
 17.8244
 17.9097
 17.8524
 20.1574
 20.0982
 20.0807
 17.7157
 17.7187
 17.7676
 17.7445
 17.8369
 19.1112
 19.1046
 19.216
 19.1876
 18.0524
 17.9865
 17.9449
 16.548
 16.554
 16.5582
 16.5934
 17.9371
 17.8946
 17.8529
 17.8545
 17.8633
 17.8958
 17.9151
 15.2985
 15.3569
 15.3773
 15.4574
 18.7484
 18.5933
 18.6336
 18.6883
 19.3822
 19.3774
 19.3435
 19.3538
 18.3441
 18.3751
 18.2442
 18.329
 16.3177
 16.2604
 16.2554
 16.3824
 20.6719
 20.6059
 20.651
 20.5619
 16.8401
 16.9345
 16.8659
 16.8572
 19.3564
 19.4161
 19.3873
 19.395
 16.4766
 16.6673
 16.6286
 16.5456
 16.6548
 16.7145
 16.759
 16.6914
 16.826
 16.7749
 18.6912
 18.7378
 18.7432
 18.7005
 16.1257
 16.1345
 16.1328
 16.7743
 16.9106
 16.8461
 16.75
 18.8125
 18.7261
 18.7826
 18.8634
 18.3293
 18.3637
 18.2587
 20.9758
 20.9747
 21.0028
 20.9751
 17.8279
 17.9563
 17.8373
 16.1641
 16.096
 16.164
 16.1933
 16.579
 16.6406
 16.2016
 16.1146
 16.0389
 16.1792
 16.8804
 16.8706
 19.3948
 19.352
 19.4573
 19.3047
 16.6983
 16.7236
 16.7091
 16.8174
 17.6979
 17.6453
 18.4165
 18.3507
 18.367
 18.4045
 16.7282
 16.6891
 16.6414
 16.6879
 18.633
 18.7688
 18.7638
 18.6613
 16.1996
 16.2155
 16.1289
 15.9855
 17.4022
 17.3765
 17.4788
 19.5454
 19.585
 19.5931
 19.5393
 17.2513
 17.2764
 17.3181
 17.3616
 18.7343
 18.8087
 18.8394
 18.8695
 18.6814
 18.7715
 18.7081
 20.7372
 20.7395
 20.7461
 20.6999
 19.2656
 19.1415
 19.1126
 19.2257
 16.5367
 16.5918
 16.501
 16.5941
 17.9103
 17.8899
 17.9668
 18.2445
 19.0265
 18.9845
 19.0129
 18.9543
 18.2337
 18.2968
 18.2437
 18.2163
 17.0002
 16.881
 16.8639
 16.9711
 19.0386
 19.0386
 18.8992
 19.6215
 17.427
 17.3883
 17.4869
 17.3497
 18.9965
 18.8815
 20.2156
 20.2723
 19.0033
 18.9434
 19.0065
 19.1013
 16.9291
 16.8548
 16.445
 16.4483
 16.4053
 16.464
 18.4468
 18.3778
 18.3586
 18.384
 15.8856
 15.8659
 15.7819
 15.8702
 18.3763
 18.3693
 18.5319
 18.5167
 16.7885
 16.7769
 16.8153
 16.9372
 18.8147
 18.8104
 18.7713
 18.7648
 16.6695
 16.6127
 16.7233
 16.6517
 18.0947
 18.0317
 16.0199
 16.0707
 17.1509
 17.0911
 17.1789
 17.0707
 17.1218
 17.1598
 17.156
 17.0637
 17.5981
 17.6529
 17.5738
 17.5682
 16.6649
 16.7839
 16.6701
 16.5826
 18.8398
 18.9205
 18.8716
 18.876
 16.0813
 16.1187
 16.1382
 15.9291
 15.9065
 16.0037
 15.9379
 19.0889
 18.9966
 18.9969
 19.0354
 16.9091
 17.0196
 17.0035
 16.9618
 19.0777
 19.0131
 19.005
 18.9376
 17.7463
 17.929
 17.8137
 17.8117
 17.9283
 16.4593
 16.4449
 16.44
 16.549
 20.0232
 20.0781
 20.0351
 19.9731
 16.9663
 16.9113
 16.8452
 16.925
 17.7611
 17.68
 17.8398
 17.7756
 16.9781
 17.0434
 17.0547
 17.0558
 17.119
 15.3412
 15.4106
 15.5433
 15.4688
 16.6278
 16.6271
 16.7671
 16.7265
 20.1768
 20.1338
 20.0802
 20.1883
 18.1269
 18.2196
 18.2575
 18.1752
 18.5255
 17.6729
 17.6953
 17.6648
 17.5964
 16.1927
 16.1956
 16.2821
 16.3334
 16.4795
 16.4786
 16.3928
 16.1967
 16.4036
 16.302
 16.3469
 20.6341
 20.5949
 16.7565
 16.7552
 16.7367
 18.5723
 18.5784
 18.5985
 18.5047
 16.8543
 16.8974
 16.8306
 16.91
 17.5882
 17.082
 17.1653
 17.0747
 17.1078
 15.9268
 16.0793
 16.0395
 15.9357
 17.0856
 17.023
 16.9014
 17.0642
 18.1604
 18.1323
 18.2454
 18.0714
 19.1307
 19.1142
 19.158
 19.0955
 15.4842
 15.6086
 15.4465
 15.4969
 16.9081
 16.9494
 16.8674
 16.9774
 15.6315
 15.6811
 15.6565
 15.5695
 18.5636
 18.6788
 18.5631
 18.5485
 17.5883
 17.6331
 15.9885
 15.8588
 16.0027
 15.9296
 17.5955
 17.5672
 17.568
 17.4869
 17.909
 17.8106
 17.6805
 17.6182
 17.579
 17.676
 16.4239
 16.4472
 16.4756
 16.3807
 18.384
 18.4856
 18.5323
 18.4414
 19.4108
 19.3452
 19.3956
 19.3938
 19.2165
 19.2435
 19.2492
 19.2457
 18.476
 18.4354
 18.432
 18.5107
 18.0642
 18.1802
 18.0978
 18.0319
 18.1608
 18.1022
 18.0616
 17.7595
 17.8239
 17.8476
 17.7848
 19.4567
 19.4864
 19.4481
 18.2489
 18.2832
 18.1854
 18.2007
 17.6345
 17.5641
 17.5671
 17.6698
 18.6607
 18.734
 18.6161
 18.7456
 18.5155
 18.444
 18.4638
 18.4698
 17.48
 17.4749
 17.4089
 17.3495
 17.8941
 17.9653
 17.9022
 17.9273
 17.0401
 17.0773
 17.0262
 17.0558
 19.244
 19.2232
 19.194
 16.5546
 16.5964
 16.4871
 16.5913
 18.6586
 18.5814
 18.6296
 18.6908
 18.1075
 18.161
 18.1957
 18.0824
 17.9321
 17.8612
 17.835
 17.2968
 17.3071
 17.2731
 17.205
 17.1339
 17.1185
 17.0646
 17.1652
 16.9761
 16.9648
 16.8835
 16.3927
 16.3494
 16.3675
 17.2008
 17.241
 17.3001
 17.2254
 16.2564
 16.2072
 16.3237
 16.1089
 16.104
 16.1325
 16.216
 17.8703
 18.029
 17.9445
 17.9762
 18.511
 18.573
 18.502
 18.5683
 18.8929
 16.3592
 16.4072
 16.2611
 16.3447
 16.2726
 16.4401
 20.7859
 20.8256
 20.7808
 20.7571
 16.7495
 16.8254
 18.0564
 18.1594
 18.0578
 15.6165
 15.5079
 17.2884
 17.4187
 17.3825
 17.3628
 18.1239
 18.081
 18.0786
 16.7394
 16.5744
 16.6813
 16.619
 18.5509
 18.5299
 18.5894
 18.5037
 20.3118
 20.2478
 20.263
 20.3294
 17.436
 17.4196
 17.4638
 17.347
 16.4164
 16.2576
 16.4191
 16.6448
 16.6448
 16.6248
 16.7056
 18.7047
 18.8291
 18.7948
 18.8777
 18.7328
 18.6628
 18.9892
 18.9264
 19.0137
 15.5556
 15.6193
 16.419
 16.5124
 16.4067
 16.5357
 17.6478
 17.5193
 17.5394
 16.8312
 16.9353
 16.7644
 16.7541
 18.6636
 18.7816
 18.7597
 18.7013
 17.7857
 17.7932
 17.7171
 17.6984
 17.8459
 17.7799
 17.777
 17.8493
 18.8106
 18.7674
 18.7909
 18.6627
 18.7034
 18.674
 18.6812
 15.2164
 15.1069
 15.1833
 15.0588
 19.308
 19.4079
 16.1567
 16.13
 16.1406
 16.2051
 18.0895
 18.0086
 18.0444
 18.0822
 17.6468
 17.5878
 17.5854
 17.5843
 19.2454
 19.1756
 17.685
 17.7451
 17.7488
 17.7991
 18.0757
 18.1031
 18.1301
 18.0461
 16.5199
 16.5434
 16.5756
 16.5238
 17.9149
 17.8591
 17.8397
 17.9635
 18.6023
 18.6008
 17.3398
 17.3383
 17.3852
 17.3119
 16.9248
 16.9667
 16.8894
 17.643
 17.5549
 17.5813
 17.5403
 18.9378
 18.8989
 18.9568
 18.8499
 20.4414
 20.374
 20.383
 20.4474
 17.895
 17.9491
 17.8907
 17.7881
 17.5359
 17.4164
 17.5039
 17.5334
 18.1603
 18.1146
 18.2093
 18.1894
 18.4157
 18.4672
 18.4077
 18.3666
 16.4823
 16.38
 17.3032
 17.345
 17.3767
 19.876
 19.9082
 19.9505
 19.8689
 18.7961
 18.8631
 18.7453
 18.8888
 17.6763
 17.6431
 17.7017
 17.7295
 16.5048
 16.4669
 16.4624
 18.0374
 18.067
 18.1686
 18.1739
 18.6442
 18.5317
 18.5726
 18.6505
 16.8013
 16.9053
 16.9149
 16.8458
 17.3019
 17.33
 17.3625
 17.3545
 16.5113
 16.4946
 16.4996
 16.7299
 16.7138
 16.721
 16.7061
 18.2884
 18.2745
 18.3331
 18.3802
 17.9693
 17.9802
 17.9025
 20.3377
 20.3262
 20.3424
 20.3866
 18.6489
 18.6471
 19.401
 19.4527
 19.3745
 19.3325
 18.8612
 19.1781
 16.2002
 18.5628
 18.6503
 18.5821
 18.6901
 15.5257
 17.273
 17.3579
 17.2724
 17.3868
 18.5995
 18.5095
 18.5563
 18.2584
 18.1909
 18.1897
 16.4901
 16.4797
 16.6065
 16.4995
 16.6086
 16.6692
 16.5897
 16.659
 19.0303
 19.1348
 19.1382
 19.0637
 15.915
 15.8921
 15.8642
 15.9795
 17.7909
 17.8719
 17.9346
 16.6152
 16.5401
 16.5937
 17.4788
 17.5623
 17.5314
 17.4645
 18.5589
 18.513
 18.6181
 18.5821
 17.536
 17.4071
 17.52
 18.4761
 18.4532
 18.4467
 18.5407
 18.0657
 17.9495
 16.4913
 16.4376
 16.413
 16.3335
 16.1857
 16.0664
 16.1301
 16.1654
 18.8004
 18.7171
 18.8355
 18.7674
 16.8626
 16.9891
 16.9398
 16.8385
 17.3514
 17.4873
 17.3706
 17.3185
 18.2239
 18.2911
 18.1816
 18.2272
 16.2991
 16.3363
 16.3718
 16.4149
 18.0442
 18.1181
 17.9938
 18.0197
 17.7907
 17.8593
 17.861
 17.7253
 17.9948
 18.0495
 17.9771
 17.9668
 18.7545
 18.6734
 18.8772
 18.8213
 18.7635
 18.8595
 19.5178
 19.6301
 19.5572
 19.5276
 17.3031
 17.3068
 17.305
 17.2134
 17.374
 17.4699
 17.4565
 15.9619
 15.9373
 15.9156
 15.9229
 15.5131
 15.4653
 15.5521
 16.0524
 16.0092
 16.1464
 17.5101
 17.4106
 17.3402
 17.4686
 17.0154
 16.9544
 16.8986
 17.0573
 16.553
 16.4666
 16.5427
 16.4532
 18.4809
 18.5681
 18.5462
 18.4911
 19.3695
 19.3023
 19.2667
 19.2669
 15.567
 15.5643
 15.6358
 15.4565
 18.6593
 18.6916
 18.7246
 18.6402
 17.5837
 17.5834
 17.5378
 17.6059
 15.4765
 15.5281
 15.6458
 15.415
 17.1837
 17.2738
 17.158
 17.1875
 18.1459
 18.1885
 18.1551
 18.1836
 18.6328
 18.7017
 18.693
 19.1541
 19.0674
 19.1208
 19.1695
 18.9537
 18.991
 18.9467
 18.9976
 18.8882
 18.9556
 18.7087
 18.6625
 18.8014
 16.5578
 16.6111
 16.6291
 16.6428
 16.1001
 16.176
 16.1454
 16.1648
 17.153
 17.1756
 17.1723
 17.2859
 17.9296
 16.1906
 16.1512
 16.1675
 16.2236
 19.2114
 19.2158
 19.2223
 19.239
 15.7387
 15.6658
 15.7632
 15.6194
 18.2567
 18.3377
 18.2111
 16.9671
 19.098
 19.1001
 19.1555
 18.841
 18.8822
 18.9316
 18.8017
 17.6697
 17.6865
 17.8032
 17.7287
 16.7922
 16.7846
 16.8578
 16.728
 17.9397
 17.0096
 17.0499
 17.0761
 17.9105
 17.9344
 17.9098
 17.8241
 18.4913
 18.4676
 18.534
 18.5333
 18.2419
 18.3473
 18.2698
 18.259
 16.9595
 18.7504
 18.7429
 18.6974
 16.6219
 16.683
 16.6064
 16.6595
 16.378
 16.4087
 16.2997
 16.4354
 16.0567
 16.0075
 16.0716
 18.4856
 18.4807
 18.5427
 18.474
 19.2597
 19.3108
 19.2633
 16.4583
 16.4814
 16.2884
 16.3256
 16.3742
 16.3752
 17.9417
 17.9381
 17.8773
 15.7212
 15.76
 15.6782
 15.7762
 16.4717
 16.5125
 16.4748
 16.4284
 17.2216
 17.2293
 17.1736
 17.1578
 17.6222
 17.5956
 17.6444
 17.7163
 18.6734
 18.6923
 18.7126
 18.6431
 16.3348
 16.328
 16.3748
 16.2511
 18.4357
 18.4122
 18.516
 18.271
 18.1987
 18.1896
 18.1656
 16.0984
 16.1086
 15.9831
 16.0568
 17.0073
 17.0002
 17.0375
 17.0646
 15.6952
 15.7656
 15.8417
 15.7513
 18.2582
 18.1981
 18.1654
 18.1763
 17.6269
 17.5931
 17.6943
 17.5289
 16.3852
 16.3958
 16.3378
 16.3786
 17.6623
 17.5928
 17.6821
 17.6657
 15.7049
 15.5719
 15.6815
 18.5105
 18.5381
 18.5569
 18.5436
 17.4612
 17.4647
 17.4822
 17.5504
 17.2565
 17.1615
 17.2352
 17.2242
 17.7703
 17.8256
 17.6931
 17.7864
 16.405
 16.4102
 16.2936
 16.359
 17.9275
 18.0159
 17.9636
 17.9935
 17.3451
 17.369
 17.352
 17.4262
 19.2611
 19.2568
 19.2741
 19.26
 16.6804
 16.6603
 16.7365
 16.7775
 19.2636
 19.2652
 19.2651
 18.7124
 18.7506
 18.7483
 18.7016
 18.9651
 18.9309
 18.7884
 18.8997
 16.7415
 16.7847
 16.7213
 16.6616
 17.0526
 16.93
 17.0252
 17.0113
 18.2543
 18.3319
 18.3277
 18.3749
 15.4068
 15.4756
 15.5595
 20.3006
 20.3167
 17.3338
 17.2524
 17.3779
 17.3454
 19.6485
 19.7129
 19.7879
 19.7152
 17.0686
 17.0601
 16.9561
 16.996
 18.2165
 18.4523
 18.4818
 18.5039
 18.5509
 16.8139
 16.7832
 16.7666
 16.7342
 16.3374
 16.3686
 16.2773
 16.3629
 19.2586
 19.2586
 16.9467
 16.9067
 16.7702
 16.9202
 17.4215
 17.5779
 17.4111
 17.4922
 18.593
 18.5899
 18.6475
 18.4814
 17.9363
 18.0082
 18.0262
 17.9265
 16.4915
 16.597
 16.403
 16.0707
 16.104
 16.0898
 16.1054
 15.4917
 15.4873
 15.4603
 18.4004
 18.4526
 18.4362
 18.3888
 16.0409
 16.1196
 16.1444
 16.1623
 19.0232
 19.0924
 19.0642
 19.0434
 17.1403
 17.1317
 17.1157
 17.2174
 17.5479
 17.4438
 17.5209
 17.5157
 16.0324
 16.0397
 16.0483
 15.9684
 17.0355
 16.9789
 17.0659
 17.1167
 19.8102
 19.8494
 19.8729
 19.8202
 17.9277
 18.0504
 17.9358
 18.0298
 18.3512
 18.2258
 18.2412
 18.3391
 16.8147
 16.7613
 16.8518
 16.9318
 18.9211
 18.9812
 19.0124
 19.0006
 17.346
 17.4123
 17.3839
 17.2824
 18.4111
 18.48
 18.4879
 19.2773
 19.3299
 19.3052
 19.3562
 17.2594
 17.1795
 17.3201
 17.1244
 17.1394
 17.1917
 18.726
 18.8087
 18.8635
 18.8841
 18.894
 18.8559
 18.8271
 16.1022
 20.8629
 20.8226
 20.8284
 20.8929
 16.4322
 16.5078
 16.3589
 16.4423
 19.0793
 18.2292
 18.2446
 18.2677
 18.1521
 18.3747
 18.4236
 18.2656
 18.6741
 18.569
 18.6188
 18.656
 19.8119
 19.8349
 19.7875
 19.886
 19.0256
 18.9613
 18.9653
 17.6557
 17.7025
 17.6937
 18.4163
 18.4454
 15.2736
 15.3918
 15.4008
 18.9583
 18.8933
 18.9935
 18.2467
 18.1815
 18.1493
 16.0286
 15.9374
 15.9512
 16.7538
 16.7485
 16.6573
 16.7507
 18.6527
 18.603
 18.5784
 19.2393
 19.3226
 15.8728
 15.9595
 15.8389
 15.8762
 19.582
 19.5544
 19.6377
 19.5014
 18.9364
 18.9644
 20.429
 20.4904
 20.1198
 20.133
 20.0918
 18.2554
 18.2112
 18.3
 15.9114
 16.0209
 16.0563
 16.9792
 16.9636
 16.8803
 18.6064
 18.5414
 18.4592
 18.4127
 18.4896
 16.2778
 19.3079
 19.3098
 19.2735
 19.2688
 18.3466
 18.1986
 18.2959
 18.3005
 16.8561
 16.89
 16.8269
 16.9039
 16.8955
 16.9483
 16.9211
 18.2742
 18.3033
 18.2285
 18.1698
 16.9891
 16.9518
 16.8929
 16.8965
 16.6819
 16.7612
 16.7156
 16.6144
 17.8147
 16.9339
 16.9281
 16.9015
 16.8709
 15.7678
 15.7161
 15.7642
 15.8357
 18.7701
 18.9083
 18.9264
 18.8232
 15.9499
 15.8963
 15.9488
 15.9587
 20.4841
 20.4645
 20.5178
 15.8621
 15.9206
 15.7608
 15.8162
 18.7401
 18.7594
 18.8349
 18.823
 16.6733
 16.7573
 16.6964
 16.6355
 18.9427
 18.9397
 19.0988
 19.0638
 15.6072
 16.4878
 16.6158
 16.5679
 16.6567
 16.2728
 16.1783
 16.2214
 19.1976
 19.1539
 19.2236
 19.2539
 16.7541
 16.8247
 16.8169
 16.8672
 17.4192
 17.3436
 17.3337
 17.3652
 17.5303
 17.4794
 17.603
 17.6068
 15.4864
 15.5966
 18.0973
 18.0874
 18.0958
 18.2712
 18.204
 18.1754
 18.1272
 16.895
 16.9505
 16.7988
 16.7938
 16.8791
 16.8326
 16.8323
 16.7621
 17.2621
 17.2555
 17.1817
 17.2836
 18.754
 18.7446
 18.5478
 18.6032
 18.6062
 18.2471
 18.1899
 18.1866
 18.1746
 19.344
 19.4073
 19.4008
 19.4022
 18.3424
 18.3867
 18.4593
 19.7761
 19.7804
 19.7013
 18.3238
 18.3341
 18.4055
 18.2762
 18.7254
 18.6176
 18.7438
 17.9321
 16.8879
 16.9111
 16.8079
 18.1507
 18.1807
 18.1256
 18.0726
 18.9836
 18.9753
 18.7895
 18.8879
 17.8275
 17.7752
 17.7456
 17.7417
 16.5242
 16.5821
 15.3685
 15.4535
 15.5125
 15.3584
 16.8249
 16.8736
 16.7882
 16.9291
 18.1046
 18.1224
 18.1302
 18.0839
 15.6689
 15.6595
 15.4887
 15.729
 15.9128
 15.8637
 15.8436
 17.7108
 17.8222
 17.8526
 17.7492
 19.1568
 19.1825
 19.1123
 18.0359
 18.0457
 17.9458
 18.0332
 19.1665
 19.2738
 19.1749
 19.2733
 17.0634
 17.0715
 17.0472
 17.2365
 19.246
 19.2434
 19.2513
 19.2248
 18.7218
 18.6661
 18.6457
 18.6894
 15.8499
 15.9536
 15.8332
 15.9233
 17.6292
 17.6274
 17.7018
 17.623
 18.3356
 18.3891
 18.3098
 18.3753
 16.922
 16.9
 16.5914
 16.4479
 16.489
 16.5019
 18.1828
 18.0912
 18.1155
 18.0119
 17.9789
 17.9249
 17.9626
 17.9735
 19.0945
 19.0475
 19.1129
 18.1977
 18.2565
 18.3017
 20.6943
 20.771
 20.7122
 20.7511
 18.6647
 18.6249
 19.2045
 19.1632
 19.1937
 19.2607
 17.4019
 17.4836
 17.4098
 17.5087
 19.7908
 19.7129
 19.6718
 19.7478
 18.8742
 18.8969
 18.9835
 17.1201
 17.0905
 17.0997
 17.1437
 18.8244
 18.7594
 18.8539
 18.9303
 18.9254
 18.9961
 18.9878
 18.2549
 18.3045
 18.2918
 18.2046
 16.6561
 16.4333
 20.1722
 20.1413
 18.6888
 18.7568
 18.0639
 18.134
 18.1054
 18.1166
 17.1669
 17.105
 17.1676
 17.0515
 17.8131
 17.8078
 17.7611
 17.7444
 19.1532
 19.2801
 19.1735
 19.2306
 17.4553
 17.5583
 17.5011
 19.138
 19.16
 19.1217
 19.1247
 16.1503
 16.132
 16.0661
 16.1842
 17.19
 17.194
 17.2011
 17.2814
 19.0389
 18.9806
 19.0642
 18.0209
 18.1156
 18.0312
 17.9848
 19.2429
 19.2472
 19.2157
 18.8563
 18.7811
 18.8049
 18.8531
 18.9667
 18.982
 18.9043
 18.9541
 18.15
 18.2161
 18.241
 18.2649
 15.8514
 15.9054
 15.9813
 15.9488
 17.3516
 17.2434
 17.2837
 17.2781
 18.1132
 18.2174
 18.1381
 17.6681
 17.7097
 17.7033
 16.2479
 16.3574
 16.2567
 16.3234
 17.2745
 17.2501
 17.3464
 17.2174
 18.2184
 18.1558
 18.1166
 18.1357
 19.3394
 19.3132
 19.0594
 19.1112
 19.017
 19.0157
 20.2957
 20.3181
 20.38
 20.2869
 16.8635
 16.8449
 16.8428
 16.8827
 18.8004
 18.8904
 18.8594
 18.8669
 17.8091
 17.8962
 17.8387
 17.9362
 19.462
 19.4954
 19.4834
 19.5153
 17.5904
 17.6377
 17.6852
 17.6755
 18.0097
 16.8654
 16.9447
 16.9725
 16.9461
 18.1718
 18.2654
 18.2868
 18.1873
 18.1745
 18.1328
 18.0775
 18.1012
 18.3929
 18.4688
 18.4386
 18.4951
 18.9829
 19.0672
 18.9385
 16.4511
 16.4273
 16.3961
 16.5641
 18.2029
 18.2307
 18.2315
 18.2607
 16.5475
 16.5027
 16.4428
 17.1385
 17.1984
 17.1394
 17.1912
 16.7086
 16.5762
 16.6509
 16.5695
 18.9976
 18.9299
 19.0108
 20.9052
 20.8703
 20.8606
 16.9497
 16.8444
 16.8702
 17.5695
 17.4233
 17.502
 17.4215
 18.3384
 18.2983
 18.2589
 18.3201
 18.1025
 18.0655
 18.179
 18.153
 19.9456
 19.8914
 20.0137
 19.8888
 17.7705
 17.8132
 17.8208
 17.8318
 17.4321
 17.4347
 17.3453
 17.4424
 18.8128
 18.8134
 18.6139
 18.7683
 18.6912
 18.6807
 17.0709
 17.144
 17.0976
 17.0913
 18.9046
 18.8175
 17.3631
 17.4014
 19.1302
 20.7574
 20.7737
 20.7629
 20.7108
 19.4394
 19.3631
 15.6063
 15.4937
 15.5892
 19.2708
 19.2015
 19.1401
 19.2098
 16.9597
 16.9388
 18.7414
 18.7595
 18.7474
 18.744
 18.453
 18.3129
 18.3738
 16.852
 16.8248
 16.8425
 16.7422
 17.261
 17.1774
 17.2508
 17.2252
 16.4341
 16.4319
 16.3391
 18.1397
 18.2135
 18.1339
 18.2536
 17.8997
 16.3515
 16.513
 16.3913
 16.4322
 19.2482
 19.2726
 19.2189
 19.1847
 17.7209
 17.7874
 17.678
 17.7589
 16.8134
 16.9559
 16.8525
 16.9236
 20.4128
 20.3993
 20.3758
 20.3728
 19.0057
 15.6494
 18.2711
 18.1482
 18.2275
 18.3063
 17.6916
 17.6126
 17.7116
 17.7435
 18.726
 18.8357
 18.775
 18.7521
 17.6458
 17.6905
 17.6568
 17.6385
 19.0972
 19.0796
 19
 19.1031
 19.0354
 18.9841
 19.0424
 18.0914
 18.0082
 18.1295
 18.0836
 16.77
 16.6804
 16.8595
 15.3012
 15.1861
 15.2903
 15.3539
 20.0021
 20.0822
 20.0877
 17.9853
 17.9916
 18.0464
 18.0102
 18.0985
 17.9833
 16.1121
 16.1148
 16.153
 16.0299
 16.974
 17.0388
 17.0158
 17.0841
 18.983
 18.8641
 18.9528
 19.6103
 18.1901
 18.2927
 18.2548
 18.199
 17.9814
 17.9255
 17.939
 17.1406
 17.1912
 17.1695
 17.1119
 16.8704
 16.9669
 16.8967
 16.9451
 18.2301
 18.2887
 16.9916
 16.9984
 16.9857
 16.918
 17.5981
 17.6235
 17.5993
 17.5244
 15.9393
 15.8768
 17.3257
 17.4068
 17.3389
 17.3736
 17.0302
 16.9864
 16.9739
 16.9198
 17.1836
 17.1303
 17.1803
 17.1873
 17.9399
 17.8901
 18.1613
 18.1013
 18.1649
 18.2162
 18.4346
 18.5098
 18.4764
 18.4544
 17.5656
 17.5039
 17.5069
 17.5484
 19.0619
 19.0048
 18.9541
 18.9197
 18.747
 18.7649
 18.7958
 18.7685
 20.1692
 20.1159
 20.1227
 20.1972
 18.4311
 18.5598
 17.5953
 17.7294
 17.629
 17.6695
 18.2535
 18.2704
 18.2384
 18.1787
 17.7373
 17.6811
 17.6427
 17.7101
 18.1247
 18.1093
 16.8496
 16.8832
 15.6878
 15.6697
 15.6527
 15.6403
 19.2218
 18.1803
 18.1901
 18.164
 18.1056
 17.8746
 17.9505
 17.9215
 17.9011
 18.5849
 18.6362
 18.6538
 18.725
 17.0364
 17.1464
 17.0517
 17.1485
 17.6658
 17.7212
 17.7481
 17.6701
 19.1038
 19.1332
 19.0666
 19.1374
 19.1755
 18.3073
 18.2235
 18.3311
 18.3008
 18.3936
 18.2829
 18.3671
 18.3848
 18.9808
 18.9767
 19.0491
 18.9801
 18.7749
 18.753
 18.6488
 18.6979
 18.0156
 17.9384
 18.0495
 18.0554
 19.0736
 19.1213
 19.1533
 19.1247
 17.6351
 17.6119
 17.7202
 18.6749
 18.6751
 18.6926
 18.7025
 19.8038
 19.7563
 17.635
 17.577
 17.5586
 17.7742
 17.6794
 17.7167
 17.6718
 19.1977
 19.1399
 19.1124
 19.4486
 19.409
 19.4097
 19.4358
 17.3338
 17.3577
 17.2807
 17.3515
 17.6823
 17.7946
 17.6792
 16.7038
 16.8712
 16.7925
 17.9399
 18.0042
 17.989
 16.4289
 16.4517
 16.4095
 20.2318
 20.2843
 20.2864
 20.2369
 15.9396
 15.8998
 15.9578
 15.89
 18.4956
 18.5696
 17.5503
 17.6069
 18.9424
 18.9407
 18.9608
 18.8876
 17.4037
 17.4452
 17.3453
 16.8073
 16.7392
 16.7565
 16.7429
 16.3604
 16.4919
 19.2367
 19.2273
 19.2657
 17.6337
 17.6399
 17.7189
 18.7694
 18.8376
 18.7506
 19.1639
 19.1628
 19.1837
 19.2136
 18.1885
 18.1532
 18.2335
 18.1214
 18.288
 18.375
 18.3596
 18.296
 17.097
 17.12
 17.132
 17.0384
 16.8812
 16.9576
 16.9141
 17.0196
 18.3505
 18.3328
 18.2813
 17.3742
 17.408
 17.4545
 17.1151
 17.0327
 17.0752
 17.0406
 15.0655
 15.1339
 15.039
 17.9198
 17.948
 17.9485
 17.0615
 17.0094
 17.1175
 17.9966
 17.9524
 18.0529
 18.5122
 18.6032
 18.5823
 19.2315
 19.2028
 19.2144
 19.1931
 17.9212
 18.1164
 18.0299
 18.0872
 18.6746
 18.6978
 18.7538
 19.0219
 18.9373
 17.2008
 17.2563
 17.1317
 17.212
 17.183
 17.1069
 17.2256
 17.2752
 18.9555
 18.8705
 18.8296
 18.81
 19.052
 19.1416
 19.086
 19.1475
 19.5804
 19.6225
 19.5783
 19.6525
 15.9844
 15.9424
 16.52
 16.6437
 16.5722
 16.5054
 15.8358
 18.5622
 18.4693
 18.5568
 17.8557
 17.8339
 17.895
 17.9295
 19.0259
 19.0275
 18.0426
 18.067
 17.9736
 19.2852
 19.2559
 16.6302
 16.6252
 16.5301
 16.7035
 16.2875
 16.3204
 16.1543
 16.2593
 16.8623
 16.8481
 16.9335
 18.4972
 18.4372
 18.4415
 16.3112
 16.3282
 16.2925
 16.2728
 18.7163
 18.8105
 18.7397
 18.7027
 16.7884
 16.8442
 16.872
 16.7945
 18.6543
 18.738
 18.7546
 18.6208
 19.0585
 19.027
 19.0833
 15.8427
 15.686
 15.7594
 15.8083
 19.222
 19.1843
 19.2025
 18.2215
 18.1979
 18.0932
 18.1646
 15.8734
 15.777
 15.8262
 18.6479
 18.7081
 18.6138
 18.6652
 17.2556
 16.0926
 16.0342
 16.2303
 16.1225
 19.3466
 19.3251
 19.2846
 19.3312
 17.1833
 17.3126
 17.2115
 17.1813
 17.9723
 17.9455
 18.0481
 19.0374
 19.0869
 19.0281
 19.1775
 17.2778
 17.3153
 17.2347
 18.7716
 18.8068
 20.1747
 20.2461
 20.1824
 20.1344
 19.4812
 19.6477
 19.6541
 16.2475
 16.2901
 16.1252
 16.2519
 16.2816
 16.2213
 19.4425
 19.4248
 19.4982
 19.3981
 18.3236
 18.2896
 18.2994
 18.2492
 18.0753
 18.1842
 18.1804
 18.1539
 17.6187
 17.6527
 17.5559
 17.6389
 17.6203
 17.7534
 17.6696
 17.7451
 16.004
 19.1224
 19.1593
 19.1169
 19.1437
 15.9773
 16.0519
 15.9411
 17.5902
 17.6739
 17.7202
 17.6847
 19.1878
 19.1129
 19.087
 17.717
 17.7879
 17.7358
 17.7899
 17.9665
 17.1269
 17.1024
 17.002
 17.0392
 18.7262
 18.7354
 18.7278
 17.9678
 17.8365
 17.8975
 15.8846
 15.9232
 16.0264
 15.9369
 17.9675
 17.9788
 18.0179
 20.47
 20.4494
 20.5162
 17.9755
 18.032
 17.9787
 18.1092
 17.0874
 17.0016
 17.0323
 17.8921
 17.8664
 16.4829
 16.4246
 16.5335
 16.51
 16.8864
 16.8024
 16.842
 16.864
 15.7841
 15.8195
 15.8835
 15.9547
 17.6922
 17.8473
 17.7355
 17.7108
 16.9612
 16.9887
 17.0159
 17.0437
 16.4894
 16.4185
 16.3474
 18.8379
 18.791
 18.9138
 18.8636
 18.0512
 17.9721
 18.4658
 18.5268
 18.4601
 18.4887
 17.2012
 17.2059
 17.2194
 17.1554
 17.99
 17.917
 17.9338
 18.0207
 17.3
 17.3498
 17.2473
 17.346
 17.9133
 17.8949
 17.8127
 17.8134
 18.0375
 18.1015
 18.1028
 16.5171
 16.5837
 16.5431
 16.1648
 16.1592
 16.1877
 16.0494
 16.5266
 16.5275
 16.4612
 17.0061
 16.8711
 16.9786
 20.0166
 20.0065
 20.0731
 18.07
 17.9679
 18.0469
 16.6186
 16.5786
 16.6347
 16.6312
 18.0726
 18.0343
 18.0794
 17.6259
 17.6078
 17.5869
 17.6825
 17.2342
 17.4102
 17.3535
 17.3544
 17.9767
 17.9072
 17.9348
 17.8756
 18.9189
 18.869
 18.9091
 18.9527
 18.0412
 17.6416
 17.6555
 17.6053
 17.7622
 19.2254
 19.1959
 19.1846
 19.1895
 19.1634
 19.0985
 19.1406
 19.0999
 19.0436
 18.9854
 19.0247
 19.0567
 17.2561
 17.283
 17.1657
 17.1191
 18.794
 18.8395
 18.8098
 18.8006
 15.547
 15.6494
 15.5771
 15.6476
 19.5887
 19.5475
 19.4968
 19.4999
 18.7774
 18.7686
 18.7901
 19.3195
 19.3814
 19.4224
 19.4079
 19.012
 19.0681
 18.9629
 19.1702
 19.1551
 17.8486
 17.8603
 17.7995
 17.6857
 16.2196
 16.2973
 16.3214
 16.152
 16.1725
 16.1075
 16.2038
 19.0107
 19.0693
 15.7461
 15.6879
 15.7734
 16.4895
 16.507
 16.4758
 16.4276
 19.0259
 19.0663
 19.0139
 15.8801
 15.8336
 15.9223
 15.8071
 18.4146
 18.3975
 18.3396
 18.4665
 18.9973
 19.0932
 19.0439
 18.9767
 19.3762
 19.2552
 19.3053
 19.3278
 19.8534
 19.8211
 19.8903
 19.8919
 17.4282
 17.2799
 17.3656
 17.2915
 18.3597
 18.3595
 18.3902
 18.4979
 15.8202
 15.9521
 15.8292
 20.5035
 20.4286
 20.4797
 20.3903
 19.5096
 19.438
 19.476
 19.4147
 15.9418
 15.79
 15.8739
 15.8783
 17.9802
 17.9675
 17.9014
 16.4286
 16.3093
 16.2883
 18.8812
 18.8858
 18.9858
 15.7794
 15.8987
 15.8964
 15.8239
 16.3925
 16.4263
 16.4479
 16.5268
 18.6799
 18.6381
 18.5677
 18.6338
 18.3811
 18.468
 18.3827
 18.4805
 16.8041
 16.7994
 16.7677
 16.677
 17.7794
 17.8281
 17.8819
 17.8464
 19.6405
 19.5659
 19.5713
 19.564
 16.3703
 16.5598
 16.4377
 16.4819
 15.6762
 17.787
 17.7648
 17.7105
 17.7119
 16.1518
 16.0998
 16.112
 16.0171
 19.2169
 19.2168
 19.2024
 19.2017
 15.8294
 15.7496
 15.8575
 15.8964
 18.025
 18.0423
 18.3433
 18.3874
 18.3326
 18.3016
 16.8113
 16.9009
 16.9121
 16.9103
 17.6136
 17.5149
 17.5261
 18.3773
 18.3926
 18.3585
 16.8349
 16.8357
 16.9419
 16.9504
 16.9122
 16.96
 16.8682
 16.9363
 18.9381
 19.0155
 19.0209
 17.9739
 17.7999
 17.8034
 17.8982
 19.6835
 19.6102
 19.5377
 19.6392
 19.7001
 15.747
 15.9097
 15.7367
 15.8918
 17.8426
 17.8913
 17.9282
 17.8487
 16.2048
 16.1407
 18.1477
 18.2715
 18.2699
 18.7419
 18.818
 18.6902
 18.7126
 15.894
 15.9224
 15.8598
 15.8527
 19.1153
 19.0862
 19.099
 18.7322
 18.7664
 18.7058
 18.7598
 18.425
 18.3412
 18.4018
 18.5031
 17.1403
 16.9687
 17.0582
 17.0191
 18.8438
 18.7352
 18.7982
 18.8055
 16.8456
 17.4859
 17.3866
 17.3583
 17.499
 16.1862
 16.1515
 16.2467
 15.9361
 15.9752
 15.9853
 16.0563
 17.4319
 17.3941
 17.5045
 17.4537
 15.4848
 15.4868
 15.4824
 15.5944
 18.4614
 17.5232
 17.6399
 17.649
 17.5583
 17.8215
 17.9483
 17.8987
 17.8564
 19.8441
 19.7691
 19.7496
 19.8262
 18.0051
 17.9838
 17.9543
 18.0527
 18.2472
 18.2267
 18.1992
 18.1681
 18.1757
 18.159
 18.1016
 16.3378
 16.4359
 16.4757
 18.2286
 18.3127
 18.3022
 18.2401
 16.3188
 16.1797
 16.2552
 17.8975
 17.9488
 17.8124
 17.7602
 17.7861
 17.705
 17.7285
 17.7023
 17.8874
 17.8667
 17.757
 17.7949
 16.2849
 16.2272
 16.2333
 18.4285
 16.0935
 17.6001
 17.5385
 17.6025
 17.6901
 18.9563
 18.9348
 19.0276
 18.8119
 18.7335
 18.7039
 17.7938
 17.7678
 17.8464
 17.9463
 17.9505
 17.906
 17.8646
 17.8913
 17.9552
 17.8371
 17.9428
 20.5514
 20.539
 20.6063
 16.8027
 16.9124
 16.8036
 18.0456
 18.0124
 16.4944
 16.6304
 16.5961
 16.6273
 17.4787
 17.4077
 17.4745
 19.7681
 19.7781
 19.853
 19.8222
 18.1912
 18.2987
 18.2268
 18.2366
 18.9144
 18.9537
 18.9969
 19.0221
 17.188
 17.3097
 17.2509
 17.201
 18.5577
 18.6137
 18.5712
 18.6618
 19.6384
 19.6528
 19.6622
 18.3935
 18.4252
 18.4699
 18.4507
 17.1487
 17.0503
 17.0818
 17.0841
 17.9385
 17.8529
 17.8366
 17.8879
 18.8174
 18.8596
 18.8145
 18.3266
 18.3898
 18.3584
 18.3755
 18.8341
 18.9176
 18.8184
 18.8967
 19.1615
 19.0605
 19.06
 19.1752
 16.003
 15.9395
 15.9702
 15.9374
 19.0608
 18.9961
 19.02
 18.995
 18.8509
 18.9064
 18.8209
 18.8325
 17.3955
 17.2742
 17.3257
 17.2596
 18.3888
 18.4196
 18.339
 18.3653
 15.2206
 15.1655
 15.1763
 15.165
 18.2092
 18.2493
 18.1725
 19.1779
 19.2365
 19.2106
 19.1443
 19.096
 19.1351
 19.1083
 19.137
 18.962
 19.0791
 17.1298
 17.2041
 17.1345
 17.2537
 15.4723
 15.5547
 15.5092
 15.5213
 18.2807
 18.3604
 18.3153
 18.3632
 18.979
 19.0312
 19.0405
 17.2457
 17.3352
 17.3531
 17.2635
 18.0952
 18.1209
 18.056
 18.0118
 18.7561
 18.7563
 18.7653
 18.6943
 19.2178
 19.0974
 19.1708
 16.6894
 16.6016
 16.5639
 16.6635
 16.6058
 16.5949
 16.6893
 18.2554
 18.2439
 18.1903
 18.1642
 18.2082
 18.2588
 18.158
 18.7625
 18.6899
 18.6593
 18.6647
 17.268
 17.2839
 17.3532
 18.9833
 18.9791
 19.0667
 17.8162
 17.719
 17.761
 16.5575
 16.6712
 16.618
 17.1128
 17.1376
 18.4412
 18.3843
 18.443
 18.3763
 18.3446
 18.3808
 18.0594
 18.1605
 18.6753
 19.3021
 19.2858
 19.3536
 16.2804
 16.2926
 16.4268
 18.2535
 18.1919
 18.2167
 18.2729
 18.73
 17.9009
 17.8358
 17.2299
 17.2141
 17.2461
 17.169
 17.9264
 18.0045
 17.9148
 18.2051
 18.1624
 18.2885
 18.1867
 18.3983
 18.2523
 18.2032
 18.2654
 18.296
 18.1572
 16.3492
 16.4347
 16.4583
 16.3974
 16.2998
 16.2275
 16.0959
 16.1445
 19.0159
 18.9457
 17.878
 17.914
 17.9348
 17.9957
 17.6598
 17.636
 17.6102
 17.5722
 17.2945
 17.2181
 17.3046
 17.318
 18.0818
 18.1247
 18.1583
 18.0653
 18.1984
 18.1454
 18.1834
 18.2291
 16.5444
 16.6802
 16.5695
 16.6051
 18.8469
 18.7528
 18.7448
 18.6851
 18.8827
 18.789
 18.8402
 16.7366
 16.6526
 16.5538
 16.5263
 18.7932
 18.7336
 18.7537
 18.6947
 16.2211
 16.2626
 16.1919
 16.2392
 16.5733
 16.6277
 16.6009
 16.6398
 18.3348
 18.2933
 18.3684
 18.3277
 17.0736
 17.0448
 17.1041
 17.1874
 18.7233
 18.6771
 18.6156
 18.5929
 16.8853
 16.9327
 16.9077
 19.0447
 18.9959
 19.057
 19.0149
 17.5342
 17.5577
 17.5114
 17.4755
 18.3933
 18.3688
 16.9366
 16.8114
 16.8678
 16.9127
 16.8525
 16.8685
 16.9237
 18.1547
 18.044
 18.1467
 16.717
 16.7294
 16.6941
 16.6086
 19.6293
 19.5934
 19.543
 19.5735
 18.7159
 18.6899
 18.6146
 18.6051
 17.4402
 17.5543
 17.5394
 17.4293
 16.2259
 16.214
 16.2779
 16.2185
 16.4966
 16.4115
 16.3905
 16.4835
 16.0807
 16.0761
 16.0592
 16.2996
 16.2719
 18.509
 18.4534
 18.5133
 18.4357
 18.9092
 18.8771
 18.9977
 18.9285
 18.625
 18.6218
 18.4542
 18.368
 18.4334
 18.4268
 18.2201
 18.2093
 18.1167
 18.2075
 18.9478
 18.9453
 19.0066
 17.7398
 17.7938
 17.7783
 17.8137
 15.221
 15.2546
 15.3465
 18.4946
 18.5081
 18.4816
 18.4099
 16.507
 16.6231
 16.5495
 16.5186
 17.1392
 17.0301
 17.0626
 17.86
 17.9089
 17.8192
 17.134
 17.0337
 17.1446
 16.5421
 16.6339
 17.2084
 17.1937
 17.1924
 18.6956
 18.6646
 18.6428
 18.7356
 16.1579
 16.0935
 16.1634
 16.194
 17.5084
 17.3997
 17.4696
 19.9207
 19.9963
 20.0202
 19.9264
 19.0581
 19.1001
 17.6331
 18.4332
 18.3303
 18.3972
 18.4322
 17.8456
 17.7594
 17.7647
 16.9844
 16.9552
 17.0287
 16.9831
 16.1828
 16.1228
 17.9854
 18.0239
 18.019
 18.0719
 19.1396
 19.1933
 19.2016
 19.1051
 16.4844
 16.4216
 16.4425
 16.4818
 17.3991
 17.3624
 17.4142
 20.3858
 20.4135
 20.4788
 20.481
 19.0102
 19.0255
 19.0997
 18.5703
 18.5101
 18.615
 18.5495
 17.5196
 17.5123
 17.5693
 17.4549
 17.9108
 17.8413
 19.2558
 19.2299
 19.2377
 19.2352
 17.3418
 17.2475
 18.6181
 18.7092
 18.6475
 18.6261
 18.2649
 18.2297
 18.3287
 18.2612
 17.9124
 17.8301
 17.7868
 17.857
 18.5752
 18.6153
 18.7044
 17.1344
 17.2616
 17.1358
 17.2286
 16.674
 16.599
 16.5236
 16.6661
 16.778
 16.7895
 16.7848
 16.6878
 19.1639
 19.2464
 19.182
 19.2408
 17.9378
 17.9913
 20.0826
 20.167
 20.1235
 20.201
 18.3187
 18.4011
 18.4346
 15.7763
 20.7052
 20.6867
 20.6905
 20.7948
 17.9638
 17.914
 17.9629
 17.952
 18.496
 18.4171
 18.4553
 16.7128
 16.6393
 16.6198
 16.7231
 16.7138
 16.7473
 16.6518
 16.6608
 16.7529
 16.7141
 16.7907
 16.8253
 18.6741
 18.6052
 18.7189
 18.6057
 18.9578
 18.9892
 19.0223
 19.0193
 17.3556
 17.3621
 17.256
 17.3679
 18.2329
 18.3506
 18.2074
 18.2837
 15.3838
 16.1468
 16.0999
 17.5308
 17.539
 18.1583
 18.2255
 18.2084
 16.0904
 15.945
 16.041
 16.0634
 18.0141
 18.0524
 17.6237
 17.6937
 19.7629
 19.6954
 19.7789
 19.7077
 18.6863
 18.7157
 18.7755
 18.7322
 17.3637
 17.2571
 17.351
 17.281
 19.6026
 19.6848
 19.6235
 19.5906
 15.5255
 15.5761
 15.471
 15.5685
 16.223
 16.3447
 16.0441
 16.1079
 16.1831
 16.0416
 16.7015
 16.6273
 18.3702
 18.3231
 18.3766
 20.5456
 20.4784
 20.5664
 20.563
 19.5176
 19.4678
 19.4566
 19.5213
 16.1865
 16.1063
 16.1857
 16.2385
 17.0122
 16.8814
 16.9489
 17.7543
 17.8326
 17.8919
 17.7919
 18.592
 18.4973
 18.5696
 18.6019
 16.392
 16.306
 16.3803
 16.1644
 17.8123
 17.7103
 18.5993
 18.5702
 17.2238
 17.1343
 17.2586
 17.2248
 18.9098
 19.0064
 18.8817
 19.0185
 19.0697
 19.1553
 19.1212
 20.465
 20.347
 20.3589
 20.4036
 18.541
 18.4959
 18.5044
 18.4337
 16.4873
 16.4695
 16.6492
 16.5604
 16.6173
 16.5605
 18.7227
 18.7254
 18.6488
 18.7811
 16.8866
 16.9401
 16.8556
 17.1995
 17.206
 17.17
 17.2443
 16.5847
 16.4891
 16.5893
 16.4851
 18.6195
 18.5444
 18.5699
 18.6031
 15.9402
 16.0981
 18.1959
 19.9565
 19.9329
 19.8792
 19.8569
 16.8698
 16.8993
 16.8224
 19.5648
 19.6124
 19.5644
 19.6402
 17.1256
 17.1342
 17.1291
 17.0478
 19.1482
 19.1516
 19.2384
 19.1218
 18.8924
 18.9017
 18.8284
 18.8116
 17.2923
 17.2237
 17.2117
 18.433
 18.3922
 18.4554
 18.5
 17.494
 17.5055
 17.4499
 17.5791
 17.5761
 17.66
 16.5653
 16.5341
 16.548
 17.1577
 17.1419
 17.1966
 20.046
 20.0373
 19.9698
 20.0241
 19.0123
 18.9327
 19.0467
 18.9076
 16.3539
 16.4796
 16.4852
 16.4932
 16.7611
 16.7968
 18.7904
 18.6441
 18.7828
 17.1769
 17.2886
 17.2759
 17.3304
 17.2421
 17.2719
 17.3066
 18.68
 18.721
 18.6717
 18.6521
 15.9884
 15.9918
 18.3784
 18.4108
 18.375
 18.3353
 18.7604
 18.7553
 18.7285
 17.1442
 17.1176
 17.9464
 17.9782
 17.9791
 17.8882
 19.1627
 19.1958
 17.3768
 17.4255
 18.3701
 18.476
 18.4552
 18.3975
 17.7326
 17.7347
 17.7956
 17.6811
 17.7433
 17.7967
 17.7505
 19.3216
 19.3048
 19.3439
 19.2087
 19.5467
 19.5481
 19.4926
 19.5228
 17.0897
 17.1451
 17.2162
 17.1641
 16.2882
 16.2809
 16.3436
 16.3419
 17.5844
 17.5383
 17.6151
 17.9019
 17.9546
 17.9904
 17.9331
 17.8798
 16.8012
 16.7785
 18.543
 18.4637
 18.5367
 18.56
 18.8566
 16.2949
 16.3188
 16.3869
 16.3488
 17.8778
 18.0101
 17.9745
 17.9024
 20.3519
 20.3075
 18.138
 18.239
 18.1364
 20.0431
 20.0236
 20.0637
 19.9921
 17.4529
 17.5165
 17.4627
 17.5001
 19.1719
 19.0811
 19.0637
 18.6875
 18.6178
 15.8864
 15.8978
 15.8978
 16.0911
 16.0832
 16.1352
 18.9924
 18.8821
 18.7179
 18.7237
 20.192
 20.2377
 20.2482
 20.2648
 16.291
 16.4216
 16.2692
 18.9055
 18.8938
 18.8455
 18.9541
 18.7563
 18.7889
 18.6988
 18.7885
 17.1416
 17.1021
 17.0687
 17.117
 17.4711
 17.2886
 17.3813
 17.1495
 17.1381
 17.233
 17.1418
 16.8177
 16.9186
 16.7378
 16.9571
 19.2119
 19.2046
 18.9916
 18.9883
 18.9456
 17.5417
 17.5854
 17.6647
 17.6306
 18.8334
 18.8413
 18.7511
 18.7811
 17.0364
 17.0929
 17.0754
 17.0269
 19.1768
 19.0784
 16.365
 16.4265
 16.3895
 16.4726
 17.0199
 17.1622
 17.099
 16.9967
 18.5701
 18.5612
 18.5887
 18.5172
 16.5581
 16.4537
 18.1841
 18.1644
 18.1341
 18.1178
 19.6278
 19.6094
 19.6221
 19.6087
 19.179
 19.1337
 19.1814
 19.1147
 15.8466
 15.8063
 15.765
 15.7818
 16.221
 16.2619
 16.2985
 18.6111
 18.6265
 18.6368
 15.8976
 15.8343
 18.1253
 18.0836
 18.1381
 18.0242
 16.4814
 16.5426
 16.4659
 16.5454
 18.8046
 18.8455
 18.7912
 18.8526
 19.3346
 19.2594
 19.3044
 16.658
 16.5537
 16.5608
 16.5944
 18.3112
 18.2031
 18.221
 18.2515
 18.9359
 18.9081
 18.8551
 18.989
 19.1838
 19.309
 19.1611
 17.5331
 17.6264
 17.4897
 17.8252
 17.8077
 17.8744
 17.775
 17.5901
 17.5992
 17.5099
 17.6154
 18.3931
 18.3108
 18.3889
 18.3197
 18.7203
 18.7012
 18.6566
 18.7572
 19.0199
 19.0941
 17.256
 17.1353
 17.2598
 17.2577
 17.7422
 17.8563
 17.7665
 17.8184
 17.7083
 17.827
 17.8451
 17.8914
 17.7432
 17.7923
 19.9908
 19.9574
 19.9053
 19.9442
 16.2073
 16.103
 16.1966
 18.2865
 18.2959
 18.3048
 18.3719
 18.0123
 18.0792
 18.0144
 19.1034
 19.0476
 19.1379
 19.1109
 18.892
 18.9667
 18.9133
 18.9341
 18.3203
 18.2962
 18.2322
 18.7893
 18.8321
 17.0004
 17.0535
 16.9319
 15.7352
 15.7098
 15.7987
 15.7497
 18.8927
 18.9704
 18.9695
 18.8664
 18.0185
 17.9473
 17.9242
 18.0102
 16.7979
 16.7749
 16.8566
 16.8579
 18.8228
 18.7931
 18.8534
 18.7393
 18.6239
 18.578
 18.5514
 18.484
 16.6373
 16.7176
 16.8185
 16.8009
 18.6479
 18.5583
 16.3471
 16.3801
 16.296
 17.5966
 17.669
 19.4065
 19.4468
 19.4585
 19.4821
 18.3005
 18.2642
 18.2405
 18.2589
 19.4674
 19.5052
 19.4653
 18.0597
 18.0756
 17.4202
 17.3668
 17.274
 17.413
 18.2922
 18.2865
 17.2513
 17.1683
 18.3668
 18.417
 18.3743
 18.3469
 17.2526
 17.3226
 17.2251
 17.2024
 16.8862
 16.7894
 16.7048
 16.7695
 15.9487
 15.9335
 15.9806
 15.9737
 17.9698
 17.9243
 18.8592
 18.8607
 18.989
 19.0243
 16.8298
 16.9264
 19.0629
 18.9853
 19.0357
 19.8362
 19.8225
 19.7105
 19.7584
 19.962
 19.9045
 19.9391
 17.8152
 17.7158
 17.7243
 17.7393
 18.3543
 18.2824
 18.3411
 18.9252
 18.5907
 18.5276
 18.626
 18.5411
 18.9431
 18.887
 18.999
 18.9227
 18.4165
 18.48
 18.4026
 18.4762
 17.1515
 17.3099
 17.306
 17.1763
 15.9426
 15.9818
 15.9844
 15.8932
 18.1631
 18.1882
 18.0733
 18.1069
 16.644
 16.6902
 16.5356
 16.5651
 18.5983
 17.1137
 17.237
 17.179
 17.199
 19.3782
 19.4249
 19.3821
 19.3807
 17.0885
 17.0008
 16.9935
 18.4811
 16.2735
 16.2643
 16.3167
 16.1681
 16.0679
 16.0605
 16.0548
 16.0566
 16.1718
 16.088
 16.0591
 17.8745
 17.8886
 17.8683
 17.9724
 16.1444
 16.135
 16.0938
 16.0967
 18.9362
 18.9897
 19.0044
 19.0218
 17.3182
 17.3549
 17.346
 17.4361
 18.183
 18.086
 18.1027
 18.1746
 19.6833
 19.6263
 19.6758
 17.4345
 18.0377
 18.0599
 18.0973
 17.997
 16.1219
 16.0458
 16.0458
 16.0199
 16.1138
 16.0506
 15.971
 16.0029
 17.3597
 17.3865
 17.3311
 17.3997
 18.5788
 18.6322
 18.6602
 18.63
 18.2685
 18.1801
 18.238
 16.2328
 16.1824
 16.2441
 16.3341
 16.0681
 16.014
 16.0288
 16.0944
 18.9586
 18.9999
 18.9996
 16.7076
 16.6288
 16.1102
 16.1371
 16.1206
 18.9102
 18.9635
 18.8705
 18.8645
 16.9866
 16.8547
 17.0108
 17.0302
 18.2982
 17.5825
 17.5618
 17.5095
 17.5788
 17.3642
 17.4364
 17.3475
 17.4874
 16.1043
 16.0542
 16.5091
 16.3969
 16.4734
 16.3846
 16.5379
 16.4073
 16.4638
 16.3655
 16.6204
 16.718
 16.5876
 16.7014
 16.9918
 16.9215
 16.9798
 16.9356
 19.5608
 19.4707
 16.1764
 16.1375
 16.0752
 19.2344
 19.2509
 19.2309
 18.7263
 18.8318
 18.8536
 18.7572
 16.9223
 16.9776
 16.9093
 16.8265
 18.1328
 18.2148
 18.1782
 18.1686
 15.6691
 15.7525
 15.6657
 15.5937
 17.628
 17.6495
 17.5894
 17.6133
 16.5994
 16.5304
 16.613
 17.2342
 17.236
 17.6516
 17.7833
 17.6822
 17.6833
 17.7867
 17.9095
 17.8061
 17.8756
 19.0316
 18.9935
 18.9824
 17.3225
 17.2464
 17.284
 17.211
 18.3846
 18.3492
 18.2876
 16.346
 16.3675
 16.2473
 16.3922
 16.047
 17.5098
 17.6333
 17.646
 17.565
 17.2611
 17.1991
 17.1894
 17.2206
 17.3716
 17.4215
 17.4549
 20.5491
 20.6003
 20.5306
 20.5319
 18.7538
 18.6874
 19.1397
 19.2077
 18.0517
 18.1827
 18.1489
 18.0906
 20.9213
 20.8939
 15.7382
 15.7074
 15.6764
 15.6006
 16.9656
 16.7959
 19.0439
 19.0564
 19.0078
 19.0104
 18.0432
 18.0326
 17.9688
 17.9979
 16.5337
 16.4428
 16.4814
 16.5824
 18.6629
 18.6929
 18.6263
 18.6545
 18.1286
 18.191
 18.0974
 18.1382
 16.4575
 16.4091
 16.4054
 16.3168
 18.1395
 18.1108
 18.1062
 18.2176
 15.9769
 16.0627
 16.0375
 16.0714
 17.3358
 17.2647
 17.2878
 18.7572
 18.757
 18.8681
 18.772
 17.4719
 17.5525
 17.4982
 17.5578
 17.7302
 17.7956
 18.4467
 18.3232
 18.304
 17.2867
 17.3068
 17.205
 17.1871
 15.8927
 15.9009
 15.8133
 15.8142
 16.2862
 16.2151
 16.1546
 16.3025
 18.8413
 18.8548
 18.9243
 18.8987
 19.2176
 19.2251
 19.2436
 19.2335
 19.0151
 19.1158
 19.0409
 19.0824
 19.2992
 19.2887
 19.3202
 17.8535
 17.8707
 17.851
 17.9737
 16.7151
 16.6697
 17.0071
 16.8917
 16.9636
 16.9684
 16.7936
 16.7332
 16.8392
 18.7715
 18.836
 18.8116
 18.86
 17.8832
 17.8679
 17.8116
 17.8268
 15.6635
 15.6529
 15.6258
 15.572
 17.6759
 17.7235
 17.7616
 17.6696
 17.5474
 17.6475
 17.537
 17.6242
 16.2468
 16.1925
 16.2752
 16.2714
 19.0856
 19.199
 19.1569
 19.1157
 17.0065
 17.0175
 19.1326
 19.1896
 16.6092
 16.7018
 16.619
 16.5425
 17.721
 17.735
 17.6958
 17.8065
 19.4339
 19.3587
 19.4101
 19.1555
 19.183
 19.2177
 19.2175
 18.5342
 18.6284
 17.7166
 17.7562
 17.6931
 17.7495
 17.2256
 17.238
 17.1692
 18.2871
 18.3578
 18.3531
 18.2749
 18.3595
 18.2371
 18.3631
 18.2825
 16.8355
 16.9238
 16.8915
 16.8856
 19.3259
 19.33
 19.2959
 15.8098
 15.787
 15.9167
 15.895
 17.4144
 17.4409
 17.426
 18.8896
 18.8605
 18.832
 16.0647
 16.0649
 16.153
 16.0197
 16.6311
 18.5571
 18.6496
 18.6362
 18.6045
 16.1539
 16.3169
 16.2525
 16.1788
 17.4051
 17.2974
 17.3334
 15.8618
 15.8445
 15.8438
 15.853
 16.1752
 16.2466
 16.2415
 16.1487
 16.1134
 19.4223
 19.3708
 18.0411
 18.0699
 17.9607
 18.0266
 19.5334
 19.5824
 19.5786
 19.5534
 18.4772
 17.3895
 17.3546
 17.4897
 17.0101
 16.9374
 16.8635
 17.0075
 18.4667
 18.4547
 18.5169
 18.5413
 18.7226
 18.7417
 17.4933
 17.4467
 17.448
 18.6372
 18.6851
 18.6282
 18.5805
 18.7365
 18.7324
 18.6921
 18.6717
 16.1038
 16.0619
 18.436
 18.3729
 18.4316
 18.4426
 19.3105
 19.1881
 19.3111
 19.216
 18.7545
 18.7408
 18.5793
 18.7147
 19.2855
 19.3379
 19.2842
 16.7127
 16.799
 16.6913
 17.0492
 17.0407
 16.1759
 16.1525
 16.2273
 19.0147
 19.1023
 19.0748
 19.0919
 18.9166
 18.8739
 18.8407
 20.6551
 20.5687
 20.6497
 20.695
 16.7668
 16.8962
 16.7647
 16.7059
 18.6258
 18.5883
 18.635
 18.5115
 17.4223
 17.4921
 17.4638
 17.4119
 16.8444
 16.8703
 16.9669
 16.9136
 18.896
 18.8901
 18.8595
 18.8238
 18.0632
 17.9889
 18.0696
 17.1062
 17.0909
 17.0309
 17.389
 17.3943
 17.4251
 17.3239
 18.1172
 18.2085
 18.2129
 18.2028
 17.3637
 17.3195
 17.2852
 19.3184
 19.1771
 19.295
 19.2786
 17.9474
 17.9395
 17.9239
 18.0112
 18.9533
 19.027
 19.0248
 18.9955
 19.0718
 19.1847
 19.0542
 19.0797
 15.5408
 15.4166
 15.5874
 18.9609
 19.0234
 18.9651
 15.57
 16.6789
 16.6646
 16.7904
 16.7435
 19.1569
 17.0379
 18.5802
 18.5904
 18.6454
 18.6295
 19.3188
 19.3683
 19.4064
 19.3632
 17.2202
 18.0986
 15.8182
 15.8471
 15.8385
 15.8567
 20.5728
 20.5165
 20.5408
 18.606
 18.6721
 18.6904
 19.2348
 19.3036
 15.3881
 15.3304
 15.4646
 15.415
 18.2704
 18.3987
 18.316
 18.2943
 16.575
 16.4744
 16.4664
 17.3551
 17.4319
 17.1689
 17.2077
 17.0651
 17.1571
 16.0896
 16.1574
 16.1817
 16.1154
 18.0977
 18.1021
 17.98
 18.0221
 16.2778
 16.2227
 16.3189
 16.269
 17.9144
 17.8612
 17.7729
 17.8893
 16.8274
 16.8129
 16.7708
 16.8766
 16.6907
 16.79
 16.6991
 16.5163
 18.8016
 18.9181
 18.7739
 18.7289
 17.8279
 15.9666
 15.8212
 15.8843
 15.8631
 17.5874
 17.5681
 17.6793
 17.5365
 17.4446
 17.4343
 19.0171
 19.0665
 19.0905
 18.9973
 18.4763
 18.5532
 18.4741
 17.8754
 17.896
 17.9303
 17.9847
 15.6407
 15.7441
 15.7585
 15.7269
 18.6863
 18.6879
 18.7484
 18.7667
 17.0499
 17.1813
 17.175
 17.1216
 17.9395
 17.9209
 17.9912
 19.082
 19.0089
 19.0415
 19.0241
 19.789
 19.7771
 19.8645
 19.7468
 18.4906
 18.5603
 18.5855
 16.4928
 16.4903
 16.4307
 17.6027
 16.8558
 16.9682
 16.9169
 16.9179
 18.6623
 18.6862
 18.6748
 18.6768
 16.3319
 16.1778
 16.2574
 16.2874
 17.6922
 17.8182
 17.2441
 17.3026
 17.2756
 17.2274
 17.1587
 17.1901
 17.336
 19.903
 19.8653
 19.9703
 19.897
 15.2998
 15.1325
 15.1855
 15.2855
 18.449
 18.3732
 18.4084
 18.8512
 18.7984
 18.912
 18.7742
 17.1478
 17.2578
 17.2104
 20.347
 20.414
 20.4533
 20.3884
 16.8771
 16.8748
 16.7376
 16.7113
 16.7973
 16.7776
 19.1934
 19.2447
 19.2168
 19.2666
 19.0042
 19.0031
 18.9723
 19.0355
 19.6185
 19.5505
 19.5125
 19.6144
 18.1147
 19.6826
 19.6255
 19.6375
 19.6068
 16.8152
 16.9151
 16.931
 16.972
 18.9825
 18.8999
 17.0209
 16.9637
 16.9663
 17.0748
 16.4792
 16.4237
 16.4816
 16.4329
 15.6856
 15.6236
 15.6349
 15.5129
 20.5569
 20.584
 20.4955
 17.413
 17.3192
 17.3507
 17.3665
 16.658
 16.6346
 16.7242
 16.6746
 19.9199
 19.8624
 19.8399
 19.9256
 17.4389
 16.8294
 16.791
 16.7616
 16.8578
 16.1454
 16.0958
 16.1462
 18.1104
 18.0784
 18.0886
 18.0296
 15.792
 15.6595
 15.6034
 15.6661
 17.5809
 17.5379
 17.5857
 17.5983
 17.4759
 18.7276
 18.8307
 18.7068
 17.6654
 17.7654
 17.7256
 17.628
 17.7574
 17.7303
 17.6951
 17.8084
 18.4459
 18.5505
 18.5208
 19.2712
 19.7495
 19.6792
 19.8202
 17.2645
 17.193
 17.2269
 16.8776
 16.8521
 16.9042
 18.8066
 18.7215
 18.7697
 18.6493
 17.0417
 17.0993
 16.2632
 16.3083
 16.345
 16.3038
 15.997
 16.0229
 16.0276
 16.3741
 16.3057
 17.3444
 17.2729
 17.3343
 16.5027
 16.6241
 16.547
 18.9764
 20.3952
 20.4309
 20.3682
 20.3814
 17.4673
 17.4431
 17.5201
 17.4978
 20.1925
 20.1721
 20.1
 20.2028
 16.9666
 16.9637
 16.9074
 17.8481
 17.8866
 17.9531
 17.9705
 18.6709
 18.6154
 18.7509
 18.7038
 17.5358
 17.5102
 17.4314
 16.9186
 16.8565
 18.0245
 17.9286
 18.0003
 17.9788
 18.4264
 18.3678
 18.4065
 18.9857
 18.981
 18.9767
 17.3958
 17.3748
 17.3082
 17.4241
 16.7799
 16.6855
 16.7568
 16.7029
 15.2948
 15.3644
 15.2622
 15.354
 17.7373
 17.7481
 15.2463
 15.3233
 15.3632
 17.201
 19.1922
 19.1268
 19.066
 19.0985
 18.6691
 18.6116
 18.6661
 18.6293
 17.245
 17.3078
 17.269
 16.2844
 16.2087
 19.2667
 19.2394
 19.3126
 19.2201
 16.8821
 16.9234
 19.2005
 19.237
 17.5814
 17.5895
 17.6318
 19.3907
 19.4502
 19.3577
 18.6432
 18.6571
 18.692
 18.6832
 16.2758
 16.2699
 16.2232
 16.284
 18.2672
 18.2573
 18.2499
 18.0697
 18.1821
 18.119
 18.1096
 16.0596
 16.1717
 16.1701
 16.184
 19.8031
 19.7736
 19.8308
 17.864
 17.956
 17.9124
 16.7391
 16.6846
 17.0938
 17.1157
 17.2095
 17.193
 19.9542
 19.8968
 19.9157
 19.9412
 18.7576
 18.7553
 18.7447
 18.6851
 16.6083
 16.5747
 16.5372
 16.524
 16.5296
 16.567
 16.5658
 16.6187
 18.1642
 18.2594
 18.1748
 18.1963
 15.5721
 15.4292
 15.4592
 15.5625
 18.9583
 18.8918
 18.9851
 19.9822
 20.0485
 20.0295
 17.5617
 17.5197
 17.0884
 17.0661
 17.1359
 17.0932
 16.3188
 16.3668
 16.2282
 16.2235
 18.3681
 17.7485
 18.1891
 18.1181
 18.0799
 18.0312
 20.6631
 20.7541
 20.7426
 20.6499
 16.7926
 16.8301
 18.771
 18.7327
 18.6802
 18.4931
 18.5291
 18.4395
 18.4137
 19.192
 19.2508
 18.3727
 18.3852
 18.438
 18.3374
 19.0341
 19.0939
