 -85.4187
 -85.4243
 -85.4232
 -85.4259
 -85.5074
 -85.5082
 -85.5102
 -85.5114
 -85.4873
 -85.4844
 -85.4878
 -85.4851
 -85.4912
 -85.4881
 -85.4875
 -85.4859
 -85.5379
 -85.5397
 -85.5366
 -85.5357
 -85.5337
 -85.5317
 -85.5352
 -85.5325
 -85.3986
 -85.3954
 -85.3963
 -85.3983
 -85.4039
 -85.4047
 -85.4047
 -85.4031
 -85.5333
 -85.5323
 -85.5297
 -85.532
 -85.5326
 -85.5329
 -85.5321
 -85.5356
 -85.3861
 -85.384
 -85.3872
 -85.3878
 -85.4859
 -85.4864
 -85.4833
 -85.4853
 -85.4358
 -85.4355
 -85.4327
 -85.4384
 -85.5126
 -85.5086
 -85.5068
 -85.5099
 -85.4723
 -85.471
 -85.4731
 -85.4755
 -85.4096
 -85.4068
 -85.4117
 -85.4071
 -85.5264
 -85.5278
 -85.5259
 -85.5284
 -85.4945
 -85.4924
 -85.4953
 -85.4931
 -85.4745
 -85.4757
 -85.4762
 -85.4783
 -85.5217
 -85.5218
 -85.5232
 -85.5249
 -85.4019
 -85.3973
 -85.4019
 -85.3989
 -85.5428
 -85.5435
 -85.5454
 -85.545
 -85.3171
 -85.3142
 -85.3115
 -85.3172
 -85.505
 -85.5059
 -85.5026
 -85.5023
 -85.4681
 -85.4657
 -85.4682
 -85.4699
 -85.4801
 -85.4811
 -85.4795
 -85.4785
 -85.4539
 -85.4579
 -85.4598
 -85.4542
 -85.4074
 -85.4045
 -85.408
 -85.4071
 -85.4347
 -85.4336
 -85.4305
 -85.4327
 -85.5095
 -85.5094
 -85.5075
 -85.5056
 -85.47
 -85.4749
 -85.4687
 -85.4708
 -85.4366
 -85.4395
 -85.4394
 -85.4365
 -85.4996
 -85.4966
 -85.5005
 -85.4972
 -85.5076
 -85.5062
 -85.506
 -85.5066
 -85.4375
 -85.4348
 -85.4384
 -85.4326
 -85.4149
 -85.4142
 -85.4138
 -85.4142
 -85.4964
 -85.4919
 -85.4961
 -85.4948
 -85.3809
 -85.3834
 -85.3837
 -85.3856
 -85.5008
 -85.5009
 -85.5059
 -85.5044
 -85.5469
 -85.5452
 -85.5463
 -85.5447
 -85.4837
 -85.4832
 -85.4846
 -85.48
 -85.5069
 -85.5094
 -85.5081
 -85.5076
 -85.3911
 -85.3904
 -85.3932
 -85.3886
 -85.4943
 -85.4924
 -85.4932
 -85.4965
 -85.5328
 -85.5322
 -85.5345
 -85.5335
 -85.4272
 -85.4302
 -85.4288
 -85.4276
 -85.4967
 -85.5008
 -85.4997
 -85.4997
 -85.4107
 -85.414
 -85.4107
 -85.4069
 -85.4412
 -85.4389
 -85.4379
 -85.4363
 -85.475
 -85.4724
 -85.4716
 -85.4698
 -85.4054
 -85.4041
 -85.4028
 -85.405
 -85.4778
 -85.4749
 -85.475
 -85.4773
 -85.4446
 -85.4401
 -85.4444
 -85.4386
 -85.4843
 -85.4861
 -85.4839
 -85.4862
 -85.4318
 -85.435
 -85.4332
 -85.4376
 -85.4847
 -85.4841
 -85.487
 -85.4822
 -85.5019
 -85.5024
 -85.5041
 -85.5057
 -85.5061
 -85.5049
 -85.5065
 -85.502
 -85.4273
 -85.4276
 -85.4224
 -85.4293
 -85.4511
 -85.4493
 -85.4501
 -85.4544
 -85.3283
 -85.3232
 -85.321
 -85.3248
 -85.4342
 -85.434
 -85.4306
 -85.4333
 -85.4703
 -85.4747
 -85.4729
 -85.4739
 -85.4471
 -85.4463
 -85.4512
 -85.4437
 -85.4453
 -85.4495
 -85.4448
 -85.449
 -85.4071
 -85.4049
 -85.4081
 -85.408
 -85.5241
 -85.5271
 -85.528
 -85.5238
 -85.5383
 -85.5392
 -85.5399
 -85.5404
 -85.4779
 -85.4817
 -85.475
 -85.4771
 -85.4354
 -85.4346
 -85.4376
 -85.4336
 -85.5005
 -85.5021
 -85.5037
 -85.5003
 -85.4012
 -85.395
 -85.3969
 -85.3965
 -85.4003
 -85.397
 -85.3966
 -85.4008
 -85.3229
 -85.3195
 -85.3253
 -85.3244
 -85.4858
 -85.4891
 -85.4874
 -85.4905
 -85.4253
 -85.4293
 -85.4304
 -85.4255
 -85.4181
 -85.4148
 -85.4186
 -85.421
 -85.5411
 -85.543
 -85.5422
 -85.5432
 -85.4137
 -85.4127
 -85.41
 -85.4135
 -85.4198
 -85.418
 -85.4153
 -85.4194
 -85.4254
 -85.4282
 -85.4255
 -85.4226
 -85.4584
 -85.4576
 -85.4609
 -85.4602
 -85.4212
 -85.4251
 -85.4225
 -85.4235
 -85.4406
 -85.4432
 -85.4441
 -85.4417
 -85.451
 -85.4501
 -85.4488
 -85.4473
 -85.4118
 -85.4079
 -85.4133
 -85.4092
 -85.3068
 -85.3046
 -85.3146
 -85.315
 -85.4045
 -85.4057
 -85.4079
 -85.4061
 -85.4875
 -85.4857
 -85.489
 -85.4836
 -85.4883
 -85.4873
 -85.4903
 -85.4875
 -85.5049
 -85.504
 -85.5027
 -85.5069
 -85.4013
 -85.4009
 -85.4015
 -85.4028
 -85.544
 -85.5439
 -85.5425
 -85.5454
 -85.5039
 -85.5066
 -85.5038
 -85.5044
 -85.3846
 -85.3844
 -85.3806
 -85.3809
 -85.4421
 -85.4422
 -85.4405
 -85.447
 -85.4179
 -85.42
 -85.415
 -85.4169
 -85.4192
 -85.4172
 -85.4176
 -85.4029
 -85.4024
 -85.4023
 -85.4012
 -85.4945
 -85.4924
 -85.4907
 -85.4956
 -85.4536
 -85.4585
 -85.4565
 -85.4537
 -85.4907
 -85.4939
 -85.4916
 -85.434
 -85.4293
 -85.4321
 -85.4303
 -85.4648
 -85.4665
 -85.4658
 -85.4624
 -85.5191
 -85.5162
 -85.5163
 -85.521
 -85.4024
 -85.4032
 -85.4087
 -85.4063
 -85.4126
 -85.4097
 -85.4083
 -85.4103
 -85.4872
 -85.4838
 -85.4828
 -85.4839
 -85.5009
 -85.4991
 -85.5042
 -85.5036
 -85.3909
 -85.3908
 -85.3889
 -85.386
 -85.4099
 -85.4106
 -85.4164
 -85.4149
 -85.4485
 -85.4528
 -85.4552
 -85.4491
 -85.5344
 -85.5362
 -85.535
 -85.5356
 -85.486
 -85.4895
 -85.4903
 -85.4889
 -85.4649
 -85.4594
 -85.4647
 -85.4646
 -85.3417
 -85.335
 -85.3424
 -85.3415
 -85.4584
 -85.4549
 -85.4594
 -85.4617
 -85.5186
 -85.5158
 -85.5188
 -85.5144
 -85.4226
 -85.417
 -85.4254
 -85.4232
 -85.4157
 -85.4165
 -85.4126
 -85.4149
 -85.4134
 -85.4096
 -85.4106
 -85.4117
 -85.381
 -85.3806
 -85.3805
 -85.382
 -85.4177
 -85.4123
 -85.4125
 -85.4126
 -85.4888
 -85.4882
 -85.4887
 -85.4864
 -85.3973
 -85.3987
 -85.4001
 -85.4012
 -85.5314
 -85.5293
 -85.5304
 -85.5313
 -85.399
 -85.3943
 -85.395
 -85.3985
 -85.5181
 -85.5139
 -85.5181
 -85.5155
 -85.4572
 -85.454
 -85.4541
 -85.4563
 -85.4415
 -85.4446
 -85.4462
 -85.4423
 -85.4301
 -85.4304
 -85.4347
 -85.4311
 -85.4232
 -85.4231
 -85.4206
 -85.4192
 -85.5423
 -85.5438
 -85.5444
 -85.5443
 -85.4266
 -85.4249
 -85.4265
 -85.4252
 -85.5468
 -85.5454
 -85.5463
 -85.5443
 -85.5025
 -85.5018
 -85.5057
 -85.5028
 -85.3595
 -85.3651
 -85.364
 -85.3588
 -85.5362
 -85.5355
 -85.5376
 -85.5385
 -85.4099
 -85.4145
 -85.4108
 -85.4074
 -85.3535
 -85.3509
 -85.3499
 -85.3527
 -85.5131
 -85.5125
 -85.5112
 -85.5127
 -85.539
 -85.541
 -85.5397
 -85.5392
 -85.474
 -85.4753
 -85.4732
 -85.4726
 -85.5085
 -85.5052
 -85.5094
 -85.5063
 -85.4186
 -85.4144
 -85.4165
 -85.416
 -85.4821
 -85.4807
 -85.4823
 -85.4855
 -85.44
 -85.4378
 -85.4411
 -85.4413
 -85.4048
 -85.4063
 -85.4043
 -85.4041
 -85.3881
 -85.3877
 -85.3874
 -85.3904
 -85.455
 -85.4536
 -85.4572
 -85.4524
 -85.4651
 -85.4654
 -85.4641
 -85.4617
 -85.4164
 -85.4156
 -85.4183
 -85.4199
 -85.416
 -85.4115
 -85.4161
 -85.4151
 -85.4923
 -85.4929
 -85.4901
 -85.4903
 -85.5341
 -85.5334
 -85.5361
 -85.5364
 -85.5307
 -85.5287
 -85.5309
 -85.5314
 -85.5294
 -85.5261
 -85.5269
 -85.5282
 -85.4948
 -85.4932
 -85.496
 -85.4926
 -85.4155
 -85.4112
 -85.4145
 -85.4132
 -85.4174
 -85.4195
 -85.4205
 -85.4215
 -85.4635
 -85.4625
 -85.457
 -85.4572
 -85.5026
 -85.5006
 -85.5059
 -85.5041
 -85.5017
 -85.4998
 -85.5006
 -85.503
 -85.4762
 -85.4732
 -85.4751
 -85.4757
 -85.4856
 -85.4884
 -85.4843
 -85.4852
 -85.3897
 -85.3889
 -85.3905
 -85.3942
 -85.2694
 -85.2649
 -85.27
 -85.2589
 -85.4245
 -85.4238
 -85.4194
 -85.4218
 -85.3014
 -85.3105
 -85.3078
 -85.425
 -85.4246
 -85.4267
 -85.4221
 -85.5219
 -85.52
 -85.5213
 -85.5193
 -85.4728
 -85.4749
 -85.4754
 -85.478
 -85.534
 -85.5329
 -85.5357
 -85.5327
 -85.4152
 -85.4159
 -85.412
 -85.4155
 -85.4972
 -85.496
 -85.5006
 -85.4995
 -85.4767
 -85.4769
 -85.4728
 -85.4743
 -85.5399
 -85.541
 -85.5419
 -85.5387
 -85.5159
 -85.5154
 -85.5165
 -85.5195
 -85.4246
 -85.4286
 -85.4258
 -85.4245
 -85.4969
 -85.4965
 -85.4935
 -85.4969
 -85.5196
 -85.5151
 -85.5178
 -85.5156
 -85.3515
 -85.3442
 -85.3484
 -85.3448
 -85.4708
 -85.4725
 -85.474
 -85.4744
 -85.519
 -85.5197
 -85.5214
 -85.5191
 -85.4892
 -85.4921
 -85.4866
 -85.4935
 -85.5156
 -85.5124
 -85.5161
 -85.5156
 -85.4169
 -85.4203
 -85.4223
 -85.4224
 -85.5148
 -85.5206
 -85.5148
 -85.5196
 -85.451
 -85.4532
 -85.4465
 -85.4502
 -85.4598
 -85.462
 -85.4642
 -85.4593
 -85.5146
 -85.5143
 -85.5118
 -85.5159
 -85.5469
 -85.5456
 -85.5457
 -85.5467
 -85.3902
 -85.3924
 -85.3941
 -85.3951
 -85.4383
 -85.441
 -85.4433
 -85.4392
 -85.4818
 -85.4798
 -85.4779
 -85.479
 -85.5153
 -85.5172
 -85.5168
 -85.5172
 -85.4281
 -85.4254
 -85.4264
 -85.4266
 -85.3961
 -85.4006
 -85.4027
 -85.397
 -85.4999
 -85.5
 -85.4962
 -85.4963
 -85.4893
 -85.4922
 -85.4892
 -85.4905
 -85.5367
 -85.5383
 -85.5399
 -85.5367
 -85.4062
 -85.4107
 -85.4053
 -85.4092
 -85.5389
 -85.5406
 -85.5403
 -85.5391
 -85.4351
 -85.4398
 -85.4374
 -85.4359
 -85.2772
 -85.2749
 -85.2771
 -85.2804
 -85.5272
 -85.5292
 -85.5299
 -85.5291
 -85.4948
 -85.4968
 -85.4933
 -85.4894
 -85.5298
 -85.5299
 -85.5283
 -85.5278
 -85.4638
 -85.4596
 -85.4627
 -85.4645
 -85.4555
 -85.4579
 -85.4587
 -85.4562
 -85.5102
 -85.5066
 -85.5075
 -85.5079
 -85.4152
 -85.4166
 -85.4134
 -85.4159
 -85.4094
 -85.4117
 -85.4118
 -85.4105
 -85.3296
 -85.3263
 -85.3271
 -85.3251
 -85.4764
 -85.4793
 -85.4805
 -85.4823
 -85.466
 -85.4638
 -85.4697
 -85.4658
 -85.4901
 -85.485
 -85.488
 -85.491
 -85.4388
 -85.4436
 -85.444
 -85.4376
 -85.5343
 -85.534
 -85.5358
 -85.532
 -85.5386
 -85.542
 -85.5388
 -85.538
 -85.4927
 -85.494
 -85.4973
 -85.4974
 -85.2184
 -85.2175
 -85.22
 -85.2233
 -85.4503
 -85.4481
 -85.4511
 -85.4461
 -85.4534
 -85.4523
 -85.4482
 -85.4523
 -85.4507
 -85.4513
 -85.4469
 -85.447
 -85.5116
 -85.5103
 -85.514
 -85.5096
 -85.346
 -85.3512
 -85.3418
 -85.3454
 -85.3118
 -85.3135
 -85.3051
 -85.3052
 -85.5123
 -85.5099
 -85.5124
 -85.5091
 -85.4312
 -85.4358
 -85.4293
 -85.4354
 -85.447
 -85.4469
 -85.4482
 -85.4484
 -85.4918
 -85.4895
 -85.4889
 -85.4855
 -85.4126
 -85.4145
 -85.4161
 -85.4141
 -85.5165
 -85.513
 -85.514
 -85.516
 -85.4392
 -85.4322
 -85.4361
 -85.4311
 -85.433
 -85.4324
 -85.429
 -85.4322
 -85.397
 -85.3942
 -85.3987
 -85.3929
 -85.4495
 -85.4546
 -85.451
 -85.4549
 -85.5217
 -85.5233
 -85.5233
 -85.5211
 -85.4966
 -85.5005
 -85.5017
 -85.4981
 -85.4109
 -85.4101
 -85.4139
 -85.4134
 -85.4265
 -85.4312
 -85.4313
 -85.4265
 -85.5309
 -85.5317
 -85.5332
 -85.5327
 -85.5152
 -85.5131
 -85.5145
 -85.5133
 -85.4536
 -85.4522
 -85.4497
 -85.4521
 -85.4005
 -85.4012
 -85.401
 -85.4022
 -85.3663
 -85.374
 -85.3728
 -85.3675
 -85.4927
 -85.4896
 -85.4879
 -85.4914
 -85.3985
 -85.3942
 -85.3982
 -85.3891
 -85.5241
 -85.521
 -85.5209
 -85.5238
 -85.4821
 -85.4869
 -85.4842
 -85.4811
 -85.5216
 -85.5209
 -85.5199
 -85.5204
 -85.5002
 -85.4968
 -85.4967
 -85.4986
 -85.4529
 -85.4511
 -85.4527
 -85.4554
 -85.4177
 -85.4118
 -85.4132
 -85.4157
 -85.3735
 -85.381
 -85.3743
 -85.3749
 -85.3902
 -85.3838
 -85.3906
 -85.3889
 -85.4154
 -85.4103
 -85.4095
 -85.4112
 -85.4601
 -85.4613
 -85.4605
 -85.4549
 -85.4613
 -85.4617
 -85.463
 -85.4588
 -85.4657
 -85.4622
 -85.4685
 -85.4646
 -85.4943
 -85.4922
 -85.4952
 -85.4948
 -85.3444
 -85.3387
 -85.3391
 -85.3387
 -85.476
 -85.4767
 -85.4751
 -85.4784
 -85.4099
 -85.4054
 -85.4072
 -85.4085
 -85.446
 -85.4505
 -85.4476
 -85.4502
 -85.537
 -85.5334
 -85.5367
 -85.536
 -85.458
 -85.456
 -85.4561
 -85.4543
 -85.4012
 -85.3995
 -85.4006
 -85.396
 -85.4437
 -85.4435
 -85.4461
 -85.4484
 -85.4192
 -85.4217
 -85.4212
 -85.4183
 -85.4534
 -85.4489
 -85.4542
 -85.451
 -85.3488
 -85.3443
 -85.3461
 -85.3492
 -85.4481
 -85.4484
 -85.452
 -85.452
 -85.4957
 -85.4946
 -85.4968
 -85.4951
 -85.4853
 -85.4857
 -85.4872
 -85.4858
 -85.5306
 -85.5261
 -85.5299
 -85.5278
 -85.4274
 -85.4265
 -85.4299
 -85.4275
 -85.4164
 -85.4192
 -85.4165
 -85.4231
 -85.5284
 -85.525
 -85.5286
 -85.528
 -85.4205
 -85.4201
 -85.4245
 -85.4205
 -85.5217
 -85.5205
 -85.5231
 -85.5203
 -85.4714
 -85.4765
 -85.4732
 -85.4752
 -85.4609
 -85.4554
 -85.4608
 -85.4616
 -85.4178
 -85.4213
 -85.4204
 -85.4175
 -85.4556
 -85.4552
 -85.459
 -85.4548
 -85.5235
 -85.5221
 -85.5238
 -85.5238
 -85.2763
 -85.2768
 -85.2781
 -85.2706
 -85.3995
 -85.3989
 -85.3989
 -85.3996
 -85.398
 -85.3984
 -85.3979
 -85.3953
 -85.4319
 -85.4333
 -85.4301
 -85.4353
 -85.4464
 -85.4436
 -85.4461
 -85.4442
 -85.4284
 -85.4263
 -85.425
 -85.4291
 -85.5371
 -85.5359
 -85.5396
 -85.5351
 -85.4155
 -85.4134
 -85.4141
 -85.4181
 -85.4901
 -85.4908
 -85.4922
 -85.4888
 -85.4603
 -85.514
 -85.5104
 -85.5117
 -85.5116
 -85.4838
 -85.4862
 -85.4885
 -85.4871
 -85.3887
 -85.392
 -85.3932
 -85.3906
 -85.4359
 -85.4341
 -85.4367
 -85.4395
 -85.4218
 -85.4177
 -85.4208
 -85.422
 -85.5195
 -85.5167
 -85.5169
 -85.5172
 -85.4502
 -85.4441
 -85.4484
 -85.4467
 -85.5229
 -85.5237
 -85.5202
 -85.5201
 -85.4989
 -85.501
 -85.4979
 -85.5021
 -85.3903
 -85.3923
 -85.3908
 -85.3947
 -85.4136
 -85.4092
 -85.4168
 -85.4139
 -85.4963
 -85.4985
 -85.4985
 -85.4962
 -85.456
 -85.451
 -85.4551
 -85.3998
 -85.3972
 -85.3984
 -85.4015
 -85.4912
 -85.4861
 -85.4892
 -85.4861
 -85.4226
 -85.4183
 -85.4183
 -85.4216
 -85.4574
 -85.4515
 -85.4544
 -85.4575
 -85.5286
 -85.5286
 -85.5252
 -85.5282
 -85.4307
 -85.429
 -85.4272
 -85.4304
 -85.5146
 -85.5116
 -85.5144
 -85.5154
 -85.4647
 -85.4628
 -85.4651
 -85.461
 -85.5061
 -85.5044
 -85.5019
 -85.5037
 -85.5263
 -85.5264
 -85.529
 -85.5276
 -85.4332
 -85.4328
 -85.4355
 -85.4353
 -85.2706
 -85.2833
 -85.2791
 -85.2864
 -85.5388
 -85.5371
 -85.5375
 -85.5367
 -85.4889
 -85.4875
 -85.4852
 -85.487
 -85.405
 -85.405
 -85.4116
 -85.4063
 -85.4442
 -85.4464
 -85.4478
 -85.4436
 -85.3564
 -85.3579
 -85.3585
 -85.3535
 -85.5238
 -85.5251
 -85.5284
 -85.5254
 -85.4032
 -85.4016
 -85.4025
 -85.4028
 -85.4737
 -85.477
 -85.472
 -85.4747
 -85.411
 -85.4037
 -85.409
 -85.41
 -85.5427
 -85.5421
 -85.5425
 -85.5396
 -85.5416
 -85.5414
 -85.5398
 -85.5387
 -85.4991
 -85.4957
 -85.4948
 -85.4996
 -85.4773
 -85.4785
 -85.4772
 -85.4744
 -85.4784
 -85.3994
 -85.4003
 -85.3946
 -85.3986
 -85.4092
 -85.4075
 -85.4063
 -85.4108
 -85.492
 -85.4954
 -85.4956
 -85.4954
 -85.4065
 -85.4091
 -85.4091
 -85.4064
 -85.4182
 -85.4175
 -85.4167
 -85.4208
 -85.4968
 -85.498
 -85.4972
 -85.4941
 -85.4359
 -85.4404
 -85.4359
 -85.4403
 -85.4948
 -85.4952
 -85.4958
 -85.4982
 -85.4219
 -85.4213
 -85.4179
 -85.4218
 -85.433
 -85.4363
 -85.4362
 -85.4368
 -85.4517
 -85.4548
 -85.4499
 -85.4542
 -85.4764
 -85.4804
 -85.4777
 -85.4815
 -85.5096
 -85.5081
 -85.5124
 -85.5123
 -85.471
 -85.47
 -85.4678
 -85.4682
 -85.4712
 -85.4726
 -85.474
 -85.4729
 -85.3906
 -85.3905
 -85.3924
 -85.3937
 -85.4899
 -85.4908
 -85.4918
 -85.4912
 -85.4618
 -85.4628
 -85.4642
 -85.4614
 -85.4684
 -85.4686
 -85.466
 -85.4683
 -85.4392
 -85.4403
 -85.4359
 -85.4384
 -85.3994
 -85.399
 -85.4011
 -85.3964
 -85.5049
 -85.505
 -85.5072
 -85.5067
 -85.4012
 -85.3979
 -85.3994
 -85.4036
 -85.5388
 -85.5386
 -85.5411
 -85.5398
 -85.5159
 -85.5137
 -85.5177
 -85.5165
 -85.518
 -85.5181
 -85.5181
 -85.5171
 -85.5161
 -85.5155
 -85.5149
 -85.5179
 -85.4991
 -85.5005
 -85.4972
 -85.5007
 -85.3665
 -85.3636
 -85.3577
 -85.4703
 -85.4655
 -85.4698
 -85.4684
 -85.5123
 -85.5114
 -85.5103
 -85.5125
 -85.4377
 -85.4336
 -85.436
 -85.4372
 -85.4226
 -85.4232
 -85.4213
 -85.424
 -85.5011
 -85.5016
 -85.5045
 -85.4984
 -85.45
 -85.4487
 -85.451
 -85.4534
 -85.4262
 -85.4264
 -85.4255
 -85.4244
 -85.5357
 -85.5384
 -85.4857
 -85.4848
 -85.4818
 -85.4817
 -85.453
 -85.4528
 -85.4502
 -85.4761
 -85.4769
 -85.4758
 -85.4733
 -85.3734
 -85.3726
 -85.3777
 -85.3773
 -85.5148
 -85.5172
 -85.5169
 -85.5142
 -85.4756
 -85.4746
 -85.4727
 -85.473
 -85.4371
 -85.4335
 -85.4351
 -85.4382
 -85.4671
 -85.4629
 -85.4644
 -85.4659
 -85.4052
 -85.404
 -85.4055
 -85.4048
 -85.3933
 -85.3992
 -85.395
 -85.3961
 -85.4487
 -85.4519
 -85.4529
 -85.4507
 -85.4027
 -85.4018
 -85.4024
 -85.406
 -85.4536
 -85.4515
 -85.4524
 -85.4508
 -85.5184
 -85.518
 -85.5148
 -85.5143
 -85.4086
 -85.4104
 -85.4118
 -85.4101
 -85.3279
 -85.334
 -85.3267
 -85.3314
 -85.4806
 -85.4743
 -85.4786
 -85.4791
 -85.4445
 -85.4472
 -85.4438
 -85.4474
 -85.4048
 -85.4039
 -85.4071
 -85.4061
 -85.4549
 -85.4523
 -85.456
 -85.4563
 -85.5313
 -85.5303
 -85.532
 -85.5314
 -85.4192
 -85.419
 -85.4173
 -85.4193
 -85.4833
 -85.4803
 -85.4801
 -85.4796
 -85.4428
 -85.4465
 -85.4435
 -85.4491
 -85.498
 -85.4997
 -85.4991
 -85.5019
 -85.5192
 -85.5185
 -85.5202
 -85.5178
 -85.4062
 -85.4092
 -85.4071
 -85.4129
 -85.4299
 -85.4326
 -85.4319
 -85.4312
 -85.4758
 -85.4754
 -85.4709
 -85.4735
 -85.4033
 -85.4042
 -85.404
 -85.4051
 -85.2814
 -85.2761
 -85.2768
 -85.2807
 -85.4659
 -85.4625
 -85.4628
 -85.4617
 -85.2643
 -85.263
 -85.2635
 -85.2703
 -85.2789
 -85.2886
 -85.2859
 -85.2807
 -85.3748
 -85.3783
 -85.3771
 -85.3733
 -85.4892
 -85.4868
 -85.4847
 -85.4832
 -85.4881
 -85.4901
 -85.4907
 -85.4926
 -85.4929
 -85.491
 -85.4927
 -85.4892
 -85.4823
 -85.4786
 -85.4795
 -85.483
 -85.356
 -85.352
 -85.3556
 -85.3547
 -85.4102
 -85.4087
 -85.4124
 -85.4108
 -85.4043
 -85.4004
 -85.402
 -85.4007
 -85.4368
 -85.441
 -85.437
 -85.4415
 -85.4703
 -85.4681
 -85.4706
 -85.4687
 -85.4986
 -85.4975
 -85.4961
 -85.4985
 -85.4143
 -85.4188
 -85.4207
 -85.4163
 -85.4895
 -85.4573
 -85.4601
 -85.4604
 -85.4586
 -85.5408
 -85.5415
 -85.5438
 -85.5424
 -85.4492
 -85.4503
 -85.4522
 -85.4498
 -85.525
 -85.5283
 -85.5257
 -85.4084
 -85.41
 -85.4116
 -85.4077
 -85.3043
 -85.3106
 -85.3074
 -85.3104
 -85.4564
 -85.4565
 -85.4614
 -85.4544
 -85.439
 -85.4336
 -85.4341
 -85.4342
 -85.4033
 -85.4056
 -85.408
 -85.4094
 -85.408
 -85.4094
 -85.4064
 -85.4099
 -85.3698
 -85.3652
 -85.3684
 -85.3683
 -85.476
 -85.4751
 -85.4772
 -85.4823
 -85.4574
 -85.4616
 -85.4565
 -85.4595
 -85.4294
 -85.4259
 -85.4297
 -85.4278
 -85.4492
 -85.4467
 -85.4536
 -85.5015
 -85.4999
 -85.4994
 -85.4151
 -85.4159
 -85.4106
 -85.4098
 -85.3813
 -85.3801
 -85.3801
 -85.3811
 -85.422
 -85.4248
 -85.4242
 -85.4212
 -85.3793
 -85.3749
 -85.3808
 -85.3735
 -85.5082
 -85.5119
 -85.5092
 -85.5102
 -85.4986
 -85.5001
 -85.501
 -85.503
 -85.404
 -85.4028
 -85.4034
 -85.4028
 -85.3602
 -85.353
 -85.3586
 -85.3601
 -85.4663
 -85.4614
 -85.4657
 -85.4638
 -85.5341
 -85.5313
 -85.5347
 -85.5318
 -85.3773
 -85.3769
 -85.3748
 -85.3771
 -85.4876
 -85.4846
 -85.4839
 -85.4883
 -85.3277
 -85.3235
 -85.3271
 -85.3241
 -85.498
 -85.4996
 -85.4975
 -85.5022
 -85.4397
 -85.4363
 -85.4415
 -85.4353
 -85.5085
 -85.5088
 -85.5112
 -85.5114
 -85.4073
 -85.4084
 -85.4088
 -85.4118
 -85.4324
 -85.4293
 -85.4296
 -85.4294
 -85.4138
 -85.4123
 -85.4168
 -85.4165
 -85.4223
 -85.4209
 -85.4254
 -85.4186
 -85.4662
 -85.4687
 -85.4679
 -85.4645
 -85.4476
 -85.4447
 -85.4485
 -85.4483
 -85.5117
 -85.5092
 -85.5069
 -85.5073
 -85.5381
 -85.5398
 -85.536
 -85.5362
 -85.4424
 -85.4419
 -85.4391
 -85.4415
 -85.5175
 -85.5162
 -85.5156
 -85.5192
 -85.4941
 -85.4982
 -85.5004
 -85.4972
 -85.3483
 -85.3461
 -85.3406
 -85.3484
 -85.3965
 -85.4037
 -85.4018
 -85.3998
 -85.4386
 -85.4361
 -85.4351
 -85.4362
 -85.3702
 -85.3672
 -85.3664
 -85.3633
 -85.4694
 -85.4733
 -85.4728
 -85.4714
 -85.5065
 -85.5122
 -85.5092
 -85.5094
 -85.3733
 -85.3801
 -85.3733
 -85.3732
 -85.4506
 -85.4538
 -85.4515
 -85.4522
 -85.4245
 -85.4243
 -85.4244
 -85.4225
 -85.2808
 -85.287
 -85.2853
 -85.2796
 -85.4357
 -85.4352
 -85.4343
 -85.4383
 -85.4595
 -85.4621
 -85.4617
 -85.4623
 -85.4967
 -85.5001
 -85.4979
 -85.501
 -85.4215
 -85.4226
 -85.4238
 -85.459
 -85.4582
 -85.457
 -85.4587
 -85.4292
 -85.4294
 -85.4339
 -85.4307
 -85.4888
 -85.4856
 -85.4879
 -85.4875
 -85.4875
 -85.4912
 -85.4908
 -85.4896
 -85.5216
 -85.5191
 -85.5207
 -85.5178
 -85.4115
 -85.4125
 -85.4148
 -85.4117
 -85.532
 -85.533
 -85.5342
 -85.5325
 -85.418
 -85.4212
 -85.4187
 -85.4171
 -85.4568
 -85.461
 -85.4606
 -85.4632
 -85.4639
 -85.4604
 -85.4608
 -85.4593
 -85.2723
 -85.2653
 -85.2709
 -85.2714
 -85.4265
 -85.4239
 -85.4267
 -85.4272
 -85.4535
 -85.4531
 -85.4563
 -85.4605
 -85.4515
 -85.4528
 -85.4528
 -85.4489
 -85.5393
 -85.5393
 -85.537
 -85.5391
 -85.4176
 -85.4213
 -85.4233
 -85.4188
 -85.4241
 -85.4218
 -85.4252
 -85.4209
 -85.4968
 -85.4996
 -85.497
 -85.4991
 -85.4069
 -85.406
 -85.4037
 -85.4031
 -85.4052
 -85.4042
 -85.4066
 -85.4041
 -85.485
 -85.4804
 -85.4847
 -85.4823
 -85.4896
 -85.4891
 -85.4864
 -85.4893
 -85.4661
 -85.4661
 -85.4708
 -85.4696
 -85.4208
 -85.419
 -85.4783
 -85.4757
 -85.4804
 -85.4765
 -85.4233
 -85.4253
 -85.4236
 -85.4242
 -85.4441
 -85.448
 -85.4492
 -85.4473
 -85.5254
 -85.524
 -85.5227
 -85.5262
 -85.4447
 -85.4459
 -85.4479
 -85.4485
 -85.5027
 -85.5049
 -85.5065
 -85.5016
 -85.4122
 -85.4193
 -85.4169
 -85.4189
 -85.4382
 -85.4352
 -85.4342
 -85.4363
 -85.4532
 -85.4591
 -85.4558
 -85.4574
 -85.4119
 -85.4089
 -85.4076
 -85.4097
 -85.3297
 -85.3296
 -85.328
 -85.3239
 -85.5345
 -85.5341
 -85.5335
 -85.5344
 -85.3779
 -85.3768
 -85.379
 -85.3763
 -85.4717
 -85.4733
 -85.4695
 -85.4698
 -85.3278
 -85.3274
 -85.3331
 -85.3272
 -85.4772
 -85.4802
 -85.4776
 -85.4773
 -85.4194
 -85.4188
 -85.4177
 -85.4177
 -85.4193
 -85.42
 -85.4167
 -85.4186
 -85.4635
 -85.4651
 -85.4605
 -85.4635
 -85.5125
 -85.5089
 -85.5116
 -85.5083
 -85.4356
 -85.4404
 -85.4394
 -85.4402
 -85.4035
 -85.4023
 -85.4036
 -85.4049
 -85.5107
 -85.5149
 -85.5126
 -85.5157
 -85.4155
 -85.4114
 -85.417
 -85.4173
 -85.4354
 -85.4395
 -85.4383
 -85.4407
 -85.4951
 -85.5009
 -85.4998
 -85.4976
 -85.4616
 -85.4652
 -85.4657
 -85.4658
 -85.4484
 -85.446
 -85.4488
 -85.4504
 -85.5248
 -85.527
 -85.528
 -85.5287
 -85.5157
 -85.5167
 -85.5167
 -85.5152
 -85.4719
 -85.472
 -85.4677
 -85.47
 -85.4482
 -85.4505
 -85.4471
 -85.4545
 -85.4268
 -85.4282
 -85.4286
 -85.4339
 -85.3988
 -85.3983
 -85.3959
 -85.5015
 -85.5037
 -85.5023
 -85.5055
 -85.321
 -85.3169
 -85.3127
 -85.3121
 -85.4881
 -85.4836
 -85.486
 -85.4854
 -85.4136
 -85.4092
 -85.4114
 -85.4117
 -85.4069
 -85.4044
 -85.4052
 -85.4049
 -85.5161
 -85.5129
 -85.5148
 -85.519
 -85.4647
 -85.4621
 -85.4658
 -85.4631
 -85.4495
 -85.4483
 -85.4227
 -85.4429
 -85.4469
 -85.4422
 -85.4448
 -85.331
 -85.3348
 -85.4839
 -85.4855
 -85.4872
 -85.3881
 -85.3908
 -85.3848
 -85.3883
 -85.4849
 -85.481
 -85.4822
 -85.4823
 -85.4349
 -85.4387
 -85.4379
 -85.4376
 -85.4214
 -85.4266
 -85.4234
 -85.4235
 -85.5252
 -85.5253
 -85.5289
 -85.5266
 -85.39
 -85.3935
 -85.3894
 -85.3936
 -85.4815
 -85.482
 -85.4823
 -85.4845
 -85.5295
 -85.5304
 -85.527
 -85.5274
 -85.4605
 -85.4569
 -85.4606
 -85.4579
 -85.4811
 -85.4765
 -85.4785
 -85.478
 -85.4537
 -85.4571
 -85.4546
 -85.4492
 -85.5422
 -85.5384
 -85.5411
 -85.5377
 -85.5392
 -85.5392
 -85.538
 -85.5366
 -85.5371
 -85.5361
 -85.5359
 -85.5372
 -85.4445
 -85.441
 -85.4442
 -85.444
 -85.4717
 -85.468
 -85.4692
 -85.4715
 -85.4467
 -85.4462
 -85.4434
 -85.4456
 -85.4404
 -85.439
 -85.4442
 -85.4391
 -85.4893
 -85.4907
 -85.4913
 -85.488
 -85.5116
 -85.5156
 -85.5144
 -85.5157
 -85.5101
 -85.5113
 -85.5079
 -85.5124
 -85.4594
 -85.4615
 -85.4587
 -85.461
 -85.4518
 -85.4511
 -85.4506
 -85.4489
 -85.4178
 -85.4156
 -85.4169
 -85.4207
 -85.4977
 -85.5006
 -85.5004
 -85.4967
 -85.3698
 -85.3697
 -85.3658
 -85.3731
 -85.5054
 -85.5077
 -85.5048
 -85.5039
 -85.468
 -85.4732
 -85.4674
 -85.4719
 -85.4647
 -85.4669
 -85.4653
 -85.4634
 -85.3906
 -85.3903
 -85.3876
 -85.3841
 -85.2447
 -85.2498
 -85.2447
 -85.2453
 -85.43
 -85.4335
 -85.43
 -85.431
 -85.5052
 -85.501
 -85.5026
 -85.505
 -85.4071
 -85.4043
 -85.4063
 -85.4085
 -85.4705
 -85.4722
 -85.4684
 -85.4729
 -85.4761
 -85.4789
 -85.4823
 -85.4808
 -85.4962
 -85.4979
 -85.4934
 -85.495
 -85.3621
 -85.3581
 -85.3588
 -85.3615
 -85.3676
 -85.3675
 -85.3656
 -85.3653
 -85.504
 -85.5089
 -85.5067
 -85.5069
 -85.4904
 -85.4854
 -85.4856
 -85.4888
 -85.4289
 -85.4294
 -85.4274
 -85.4278
 -85.4554
 -85.4538
 -85.4569
 -85.459
 -85.4675
 -85.469
 -85.4678
 -85.467
 -85.4257
 -85.4238
 -85.4289
 -85.4243
 -85.482
 -85.48
 -85.4801
 -85.4777
 -85.5498
 -85.5478
 -85.5492
 -85.5495
 -85.4734
 -85.4772
 -85.4771
 -85.4796
 -85.4559
 -85.4575
 -85.4547
 -85.4598
 -85.4557
 -85.4552
 -85.452
 -85.4558
 -85.4683
 -85.4701
 -85.4683
 -85.4652
 -85.5332
 -85.5338
 -85.5316
 -85.5333
 -85.5121
 -85.5096
 -85.5114
 -85.4798
 -85.4795
 -85.4821
 -85.4794
 -85.4036
 -85.4033
 -85.4059
 -85.403
 -85.4396
 -85.44
 -85.437
 -85.4409
 -85.51
 -85.5057
 -85.5056
 -85.5057
 -85.418
 -85.4191
 -85.42
 -85.4215
 -85.434
 -85.4308
 -85.4306
 -85.4346
 -85.4384
 -85.4368
 -85.4321
 -85.4359
 -85.4876
 -85.4853
 -85.4846
 -85.4842
 -85.4685
 -85.465
 -85.4691
 -85.4622
 -85.4802
 -85.4737
 -85.476
 -85.4769
 -85.41
 -85.4111
 -85.412
 -85.4104
 -85.4392
 -85.4419
 -85.4428
 -85.4395
 -85.4849
 -85.4822
 -85.4854
 -85.4876
 -85.4312
 -85.4329
 -85.435
 -85.4296
 -85.4737
 -85.4768
 -85.4771
 -85.4748
 -85.408
 -85.4071
 -85.4088
 -85.4066
 -85.5299
 -85.5307
 -85.5277
 -85.5299
 -85.4161
 -85.4132
 -85.4169
 -85.4186
 -85.4098
 -85.4034
 -85.4073
 -85.4073
 -85.4935
 -85.4935
 -85.4959
 -85.4968
 -85.4174
 -85.4183
 -85.4191
 -85.4185
 -85.4778
 -85.4768
 -85.4782
 -85.4747
 -85.3868
 -85.3878
 -85.3825
 -85.3837
 -85.4649
 -85.4635
 -85.4645
 -85.4674
 -85.5217
 -85.5258
 -85.5221
 -85.5246
 -85.4668
 -85.4618
 -85.4615
 -85.4647
 -85.4965
 -85.4981
 -85.4964
 -85.4965
 -85.4761
 -85.4744
 -85.4754
 -85.4778
 -85.4737
 -85.4753
 -85.4759
 -85.4789
 -85.5333
 -85.5333
 -85.5344
 -85.5303
 -85.4091
 -85.4076
 -85.4058
 -85.4054
 -85.4117
 -85.4101
 -85.407
 -85.41
 -85.5155
 -85.5152
 -85.5136
 -85.5177
 -85.524
 -85.5256
 -85.5236
 -85.4251
 -85.4239
 -85.4237
 -85.4259
 -85.4817
 -85.4852
 -85.4813
 -85.481
 -85.47
 -85.4714
 -85.4674
 -85.4718
 -85.4064
 -85.4097
 -85.4035
 -85.4065
 -85.4972
 -85.4996
 -85.4987
 -85.4986
 -85.4529
 -85.4485
 -85.4494
 -85.4526
 -85.4644
 -85.4605
 -85.4609
 -85.46
 -85.5003
 -85.5029
 -85.5028
 -85.5022
 -85.3993
 -85.3983
 -85.3997
 -85.4012
 -85.4243
 -85.4198
 -85.4214
 -85.4207
 -85.5362
 -85.5335
 -85.536
 -85.5349
 -85.4105
 -85.41
 -85.4109
 -85.4153
 -85.4017
 -85.4005
 -85.4011
 -85.4013
 -85.4554
 -85.4563
 -85.4547
 -85.4595
 -85.3355
 -85.3375
 -85.333
 -85.3413
 -85.4616
 -85.4625
 -85.4605
 -85.4622
 -85.5037
 -85.5026
 -85.5016
 -85.5009
 -85.5134
 -85.5112
 -85.5124
 -85.3906
 -85.3907
 -85.3932
 -85.3913
 -85.4173
 -85.421
 -85.4161
 -85.4197
 -85.4076
 -85.4064
 -85.4032
 -85.4034
 -85.423
 -85.42
 -85.4221
 -85.4215
 -85.5384
 -85.5398
 -85.5407
 -85.54
 -85.3957
 -85.396
 -85.3944
 -85.3918
 -85.4153
 -85.4126
 -85.4151
 -85.4196
 -85.5123
 -85.5147
 -85.5125
 -85.5116
 -85.4352
 -85.4346
 -85.4372
 -85.4193
 -85.4159
 -85.4196
 -85.4663
 -85.465
 -85.4616
 -85.3426
 -85.35
 -85.3509
 -85.3451
 -85.4634
 -85.466
 -85.4647
 -85.4671
 -85.4607
 -85.4632
 -85.4581
 -85.4584
 -85.5158
 -85.5179
 -85.515
 -85.5146
 -85.5251
 -85.5246
 -85.5289
 -85.5246
 -85.4039
 -85.3996
 -85.3994
 -85.4069
 -85.4697
 -85.4733
 -85.4739
 -85.4719
 -85.4687
 -85.4717
 -85.4731
 -85.4721
 -85.4498
 -85.4549
 -85.4526
 -85.4557
 -85.43
 -85.4313
 -85.4323
 -85.4268
 -85.4701
 -85.466
 -85.4693
 -85.4702
 -85.4103
 -85.4114
 -85.41
 -85.4123
 -85.5225
 -85.5213
 -85.5226
 -85.5232
 -85.4243
 -85.4231
 -85.4248
 -85.4275
 -85.5127
 -85.5099
 -85.5118
 -85.511
 -85.5285
 -85.5273
 -85.5247
 -85.5276
 -85.5289
 -85.5282
 -85.5277
 -85.527
 -85.4164
 -85.4141
 -85.4938
 -85.4928
 -85.4909
 -85.4927
 -85.4083
 -85.4131
 -85.4112
 -85.4093
 -85.5013
 -85.5063
 -85.505
 -85.5059
 -85.5116
 -85.5099
 -85.5134
 -85.5101
 -85.4249
 -85.4283
 -85.4284
 -85.4267
 -85.47
 -85.4701
 -85.4728
 -85.4721
 -85.4225
 -85.4225
 -85.4257
 -85.4227
 -85.4422
 -85.4419
 -85.4428
 -85.4462
 -85.2903
 -85.3001
 -85.2869
 -85.2951
 -85.5198
 -85.5181
 -85.5224
 -85.5195
 -85.4244
 -85.4218
 -85.4256
 -85.4286
 -85.3905
 -85.3876
 -85.3877
 -85.3914
 -85.4476
 -85.4455
 -85.4495
 -85.4499
 -85.3884
 -85.3822
 -85.3804
 -85.3886
 -85.446
 -85.4426
 -85.4403
 -85.4446
 -85.492
 -85.4911
 -85.4945
 -85.4895
 -85.4526
 -85.45
 -85.45
 -85.4514
 -85.5166
 -85.5209
 -85.517
 -85.4479
 -85.4515
 -85.4478
 -85.4513
 -85.2924
 -85.2879
 -85.2886
 -85.2867
 -85.5402
 -85.5407
 -85.5416
 -85.5402
 -85.4683
 -85.4672
 -85.4693
 -85.4664
 -85.5031
 -85.5011
 -85.498
 -85.5018
 -85.4032
 -85.4064
 -85.3981
 -85.4017
 -85.4291
 -85.4324
 -85.4267
 -85.4307
 -85.4299
 -85.4356
 -85.432
 -85.4353
 -85.5267
 -85.525
 -85.5277
 -85.5293
 -85.4356
 -85.4328
 -85.4303
 -85.4317
 -85.5372
 -85.5363
 -85.5378
 -85.535
 -85.4889
 -85.4849
 -85.4852
 -85.4892
 -85.4107
 -85.4116
 -85.4127
 -85.4106
 -85.3313
 -85.3336
 -85.3386
 -85.33
 -85.4427
 -85.4373
 -85.4404
 -85.436
 -85.4547
 -85.455
 -85.458
 -85.4543
 -85.4939
 -85.4944
 -85.4924
 -85.4898
 -85.2982
 -85.2884
 -85.2999
 -85.2971
 -85.444
 -85.4414
 -85.4461
 -85.4446
 -85.5346
 -85.5326
 -85.5321
 -85.5326
 -85.509
 -85.5114
 -85.5103
 -85.5092
 -85.5077
 -85.5083
 -85.5106
 -85.507
 -85.5039
 -85.5014
 -85.5004
 -85.5018
 -85.5085
 -85.5129
 -85.5107
 -85.5102
 -85.4782
 -85.479
 -85.4784
 -85.4787
 -85.4147
 -85.4211
 -85.4248
 -85.4249
 -85.4234
 -85.4873
 -85.4838
 -85.4851
 -85.4841
 -85.4867
 -85.4876
 -85.4829
 -85.4837
 -85.3811
 -85.3825
 -85.3824
 -85.3812
 -85.5186
 -85.5186
 -85.5173
 -85.5189
 -85.5016
 -85.5042
 -85.5078
 -85.5057
 -85.4104
 -85.4147
 -85.4143
 -85.4145
 -85.4147
 -85.4136
 -85.4207
 -85.4231
 -85.4219
 -85.425
 -85.4112
 -85.4068
 -85.4011
 -85.4043
 -85.4859
 -85.4894
 -85.4883
 -85.4859
 -85.5371
 -85.5373
 -85.5367
 -85.5377
 -85.4572
 -85.4549
 -85.4571
 -85.4534
 -85.526
 -85.5216
 -85.5196
 -85.5197
 -85.4454
 -85.445
 -85.443
 -85.4467
 -85.4846
 -85.482
 -85.4799
 -85.4802
 -85.4053
 -85.4043
 -85.4039
 -85.3995
 -85.4713
 -85.4746
 -85.4696
 -85.4721
 -85.4762
 -85.4807
 -85.4824
 -85.4772
 -85.4154
 -85.414
 -85.4113
 -85.4127
 -85.4345
 -85.4323
 -85.4389
 -85.4358
 -85.4466
 -85.4462
 -85.4429
 -85.4407
 -85.4708
 -85.473
 -85.4715
 -85.4726
 -85.3744
 -85.3762
 -85.3777
 -85.3819
 -85.4788
 -85.4752
 -85.4775
 -85.4797
 -85.4347
 -85.4306
 -85.4353
 -85.4381
 -85.4927
 -85.4916
 -85.4926
 -85.4899
 -85.5148
 -85.5122
 -85.5144
 -85.5129
 -85.5304
 -85.529
 -85.5284
 -85.5294
 -85.5246
 -85.5263
 -85.5219
 -85.5394
 -85.5398
 -85.5412
 -85.5417
 -85.507
 -85.5041
 -85.5007
 -85.5044
 -85.4535
 -85.4527
 -85.4555
 -85.4549
 -85.5268
 -85.5248
 -85.5229
 -85.5264
 -85.4636
 -85.4643
 -85.4621
 -85.4615
 -85.4719
 -85.4739
 -85.4727
 -85.5269
 -85.5288
 -85.5276
 -85.5272
 -85.5209
 -85.5186
 -85.5195
 -85.4669
 -85.465
 -85.4684
 -85.4696
 -85.4329
 -85.4356
 -85.4328
 -85.438
 -85.4897
 -85.4874
 -85.4865
 -85.4859
 -85.5279
 -85.5297
 -85.5286
 -85.5274
 -85.4171
 -85.4165
 -85.419
 -85.4149
 -85.4528
 -85.452
 -85.4489
 -85.4487
 -85.457
 -85.4618
 -85.4563
 -85.4575
 -85.4927
 -85.4893
 -85.4918
 -85.4924
 -85.4191
 -85.4163
 -85.4217
 -85.417
 -85.4048
 -85.4019
 -85.4052
 -85.4035
 -85.458
 -85.4583
 -85.4576
 -85.4613
 -85.5352
 -85.5335
 -85.5333
 -85.5339
 -85.4264
 -85.4224
 -85.4269
 -85.4249
 -85.4075
 -85.4107
 -85.4066
 -85.4104
 -85.4786
 -85.4737
 -85.4785
 -85.4782
 -85.422
 -85.4231
 -85.4209
 -85.4093
 -85.4119
 -85.411
 -85.473
 -85.4713
 -85.4761
 -85.4723
 -85.4103
 -85.4088
 -85.4065
 -85.4102
 -85.4123
 -85.4084
 -85.4113
 -85.4116
 -85.4791
 -85.4802
 -85.4781
 -85.4098
 -85.409
 -85.5133
 -85.5136
 -85.5186
 -85.5189
 -85.4889
 -85.4938
 -85.4939
 -85.4919
 -85.3751
 -85.3795
 -85.3715
 -85.3804
 -85.3441
 -85.3441
 -85.34
 -85.3448
 -85.4207
 -85.4139
 -85.4181
 -85.4185
 -85.5232
 -85.523
 -85.5244
 -85.5232
 -85.4846
 -85.4822
 -85.4806
 -85.4822
 -85.3995
 -85.3991
 -85.3988
 -85.3986
 -85.4234
 -85.424
 -85.4256
 -85.4288
 -85.4254
 -85.4256
 -85.4247
 -85.4165
 -85.4193
 -85.4196
 -85.4197
 -85.4193
 -85.4166
 -85.4204
 -85.4212
 -85.407
 -85.4038
 -85.4065
 -85.4033
 -85.5336
 -85.535
 -85.5341
 -85.5338
 -85.526
 -85.5285
 -85.5248
 -85.4574
 -85.455
 -85.4577
 -85.4533
 -85.4194
 -85.4144
 -85.42
 -85.4183
 -85.5408
 -85.5423
 -85.4087
 -85.4067
 -85.4072
 -85.4054
 -85.465
 -85.4714
 -85.4673
 -85.4696
 -85.4808
 -85.4797
 -85.4105
 -85.41
 -85.4141
 -85.4105
 -85.5288
 -85.5303
 -85.5278
 -85.5319
 -85.5373
 -85.5357
 -85.5363
 -85.5394
 -85.4478
 -85.4496
 -85.4477
 -85.3757
 -85.3791
 -85.3769
 -85.4133
 -85.4181
 -85.4129
 -85.4141
 -85.4986
 -85.4956
 -85.501
 -85.4958
 -85.4294
 -85.4257
 -85.426
 -85.4228
 -85.4272
 -85.4249
 -85.4287
 -85.4239
 -85.4857
 -85.4848
 -85.487
 -85.4906
 -85.3028
 -85.3041
 -85.2999
 -85.2938
 -85.4956
 -85.4965
 -85.4993
 -85.4985
 -85.4984
 -85.4979
 -85.5005
 -85.5021
 -85.4041
 -85.4043
 -85.3996
 -85.403
 -85.5208
 -85.522
 -85.5225
 -85.52
 -85.2897
 -85.2795
 -85.2833
 -85.2759
 -85.53
 -85.5249
 -85.5251
 -85.5243
 -85.5099
 -85.5076
 -85.423
 -85.4255
 -85.4244
 -85.4275
 -85.4006
 -85.3973
 -85.3989
 -85.4018
 -85.5191
 -85.5213
 -85.5207
 -85.52
 -85.4328
 -85.4343
 -85.4341
 -85.4317
 -85.5346
 -85.5328
 -85.5341
 -85.421
 -85.4175
 -85.416
 -85.396
 -85.3997
 -85.4008
 -85.5303
 -85.5313
 -85.5304
 -85.5296
 -85.4226
 -85.4206
 -85.4207
 -85.4206
 -85.5203
 -85.5207
 -85.3972
 -85.3994
 -85.3966
 -85.3978
 -85.4611
 -85.4645
 -85.4648
 -85.4613
 -85.4272
 -85.4249
 -85.4402
 -85.4472
 -85.4463
 -85.442
 -85.4231
 -85.4225
 -85.423
 -85.4191
 -85.5364
 -85.5394
 -85.5357
 -85.537
 -85.4035
 -85.4021
 -85.4028
 -85.5102
 -85.294
 -85.2946
 -85.2949
 -85.2911
 -85.5183
 -85.5189
 -85.5206
 -85.5154
 -85.4271
 -85.4274
 -85.4329
 -85.4318
 -85.4939
 -85.4924
 -85.4928
 -85.4934
 -85.4227
 -85.4202
 -85.4186
 -85.4222
 -85.4852
 -85.381
 -85.3802
 -85.3801
 -85.3814
 -85.4845
 -85.4847
 -85.4835
 -85.4806
 -85.5074
 -85.5091
 -85.5104
 -85.5051
 -85.5076
 -85.5043
 -85.5086
 -85.5197
 -85.5223
 -85.5211
 -85.5209
 -85.4039
 -85.4053
 -85.4092
 -85.4073
 -85.5157
 -85.5157
 -85.5154
 -85.5182
 -85.3901
 -85.3892
 -85.3905
 -85.3861
 -85.5125
 -85.5143
 -85.5154
 -85.5155
 -85.4555
 -85.4535
 -85.4529
 -85.4517
 -85.4926
 -85.4949
 -85.4959
 -85.4967
 -85.4667
 -85.465
 -85.4637
 -85.4626
 -85.5297
 -85.5258
 -85.466
 -85.4627
 -85.4628
 -85.4656
 -85.3787
 -85.3773
 -85.3822
 -85.3771
 -85.3872
 -85.3854
 -85.3924
 -85.3865
 -85.4665
 -85.4697
 -85.4702
 -85.4705
 -85.4979
 -85.498
 -85.497
 -85.5013
 -85.5028
 -85.5001
 -85.5016
 -85.5039
 -85.5265
 -85.5231
 -85.5242
 -85.5222
 -85.5037
 -85.5074
 -85.5055
 -85.5034
 -85.3873
 -85.3879
 -85.3903
 -85.3852
 -85.4082
 -85.4084
 -85.4073
 -85.4133
 -85.5415
 -85.5401
 -85.5395
 -85.5396
 -85.4725
 -85.474
 -85.4734
 -85.4785
 -85.4128
 -85.4175
 -85.4128
 -85.4169
 -85.3161
 -85.3144
 -85.3234
 -85.3141
 -85.5186
 -85.5202
 -85.5172
 -85.5231
 -85.418
 -85.418
 -85.4193
 -85.4218
 -85.4419
 -85.4456
 -85.4397
 -85.4427
 -85.3895
 -85.388
 -85.3891
 -85.3913
 -85.4831
 -85.4815
 -85.4831
 -85.4835
 -85.5264
 -85.5266
 -85.5257
 -85.5265
 -85.476
 -85.4717
 -85.473
 -85.472
 -85.4477
 -85.4481
 -85.4523
 -85.4504
 -85.382
 -85.384
 -85.3858
 -85.3791
 -85.5255
 -85.4886
 -85.4911
 -85.4873
 -85.4907
 -85.441
 -85.4393
 -85.436
 -85.4371
 -85.4968
 -85.499
 -85.4985
 -85.501
 -85.4128
 -85.4109
 -85.4112
 -85.4151
 -85.4827
 -85.4847
 -85.4806
 -85.3767
 -85.3819
 -85.3776
 -85.3765
 -85.5107
 -85.5051
 -85.5088
 -85.507
 -85.4041
 -85.4036
 -85.4058
 -85.4043
 -85.547
 -85.5462
 -85.5467
 -85.548
 -85.4194
 -85.42
 -85.4205
 -85.42
 -85.3376
 -85.3496
 -85.3488
 -85.3453
 -85.3725
 -85.3721
 -85.3765
 -85.3752
 -85.5414
 -85.5403
 -85.5394
 -85.5388
 -85.5318
 -85.5313
 -85.533
 -85.5334
 -85.4573
 -85.4607
 -85.4596
 -85.4607
 -85.422
 -85.4212
 -85.4237
 -85.4667
 -85.4669
 -85.4617
 -85.4638
 -85.4884
 -85.4866
 -85.4907
 -85.4908
 -85.4654
 -85.4721
 -85.4699
 -85.4693
 -85.4606
 -85.462
 -85.4672
 -85.4644
 -85.5389
 -85.5368
 -85.5371
 -85.5362
 -85.4102
 -85.4093
 -85.4134
 -85.4103
 -85.3727
 -85.3643
 -85.3653
 -85.497
 -85.4943
 -85.4959
 -85.4946
 -85.518
 -85.5207
 -85.5187
 -85.5179
 -85.4157
 -85.4141
 -85.4165
 -85.4112
 -85.4118
 -85.4133
 -85.4089
 -85.5223
 -85.5207
 -85.5233
 -85.519
 -85.4521
 -85.4516
 -85.4546
 -85.4518
 -85.4124
 -85.4082
 -85.4115
 -85.4118
 -85.4413
 -85.4392
 -85.4395
 -85.4421
 -85.5116
 -85.5111
 -85.5086
 -85.5112
 -85.4133
 -85.4185
 -85.4106
 -85.4176
 -85.4448
 -85.4392
 -85.441
 -85.4427
 -85.4273
 -85.4305
 -85.4278
 -85.5316
 -85.5311
 -85.5292
 -85.5299
 -85.4526
 -85.4534
 -85.4506
 -85.4546
 -85.5416
 -85.5409
 -85.5443
 -85.4647
 -85.4663
 -85.4659
 -85.4646
 -85.3811
 -85.3846
 -85.3788
 -85.3804
 -85.4763
 -85.4773
 -85.4797
 -85.4825
 -85.4587
 -85.4633
 -85.4573
 -85.4171
 -85.4184
 -85.4217
 -85.4189
 -85.4026
 -85.4035
 -85.4017
 -85.4041
 -85.4168
 -85.4185
 -85.4211
 -85.4161
 -85.3336
 -85.3336
 -85.3412
 -85.3417
 -85.4345
 -85.4334
 -85.4316
 -85.4315
 -85.4277
 -85.4264
 -85.4315
 -85.4255
 -85.5235
 -85.5199
 -85.5205
 -85.525
 -85.3967
 -85.4018
 -85.4002
 -85.399
 -85.4861
 -85.4844
 -85.487
 -85.4879
 -85.5336
 -85.534
 -85.5324
 -85.5312
 -85.5345
 -85.5313
 -85.5329
 -85.534
 -85.5079
 -85.5102
 -85.5078
 -85.5095
 -85.536
 -85.5388
 -85.5386
 -85.534
 -85.5253
 -85.5259
 -85.5256
 -85.5419
 -85.538
 -85.5393
 -85.5391
 -85.3901
 -85.3881
 -85.3897
 -85.3869
 -85.4402
 -85.4367
 -85.435
 -85.4372
 -85.4282
 -85.4327
 -85.4295
 -85.4332
 -85.435
 -85.4332
 -85.4326
 -85.4317
 -85.5288
 -85.5264
 -85.528
 -85.5288
 -85.4404
 -85.4407
 -85.4373
 -85.4358
 -85.4174
 -85.4131
 -85.4131
 -85.416
 -85.4907
 -85.4897
 -85.4933
 -85.4887
 -85.4201
 -85.4241
 -85.42
 -85.4224
 -85.4986
 -85.4962
 -85.4958
 -85.4661
 -85.47
 -85.4699
 -85.5206
 -85.5176
 -85.5186
 -85.519
 -85.4415
 -85.443
 -85.4402
 -85.4402
 -85.4832
 -85.4802
 -85.481
 -85.4837
 -85.4331
 -85.4284
 -85.4309
 -85.434
 -85.5422
 -85.5411
 -85.5343
 -85.5331
 -85.532
 -85.5349
 -85.3846
 -85.3837
 -85.3838
 -85.382
 -85.4846
 -85.4874
 -85.4879
 -85.49
 -85.4165
 -85.4215
 -85.4179
 -85.4149
 -85.2631
 -85.2471
 -85.2615
 -85.2567
 -85.4207
 -85.4194
 -85.4172
 -85.4191
 -85.497
 -85.494
 -85.4966
 -85.3978
 -85.3972
 -85.4016
 -85.4013
 -85.5322
 -85.5297
 -85.533
 -85.5306
 -85.4219
 -85.4233
 -85.422
 -85.4235
 -85.4828
 -85.4858
 -85.484
 -85.4832
 -85.3826
 -85.3849
 -85.38
 -85.3833
 -85.3164
 -85.3142
 -85.3196
 -85.3209
 -85.4139
 -85.4167
 -85.4136
 -85.4129
 -85.4367
 -85.4353
 -85.438
 -85.4696
 -85.4646
 -85.4704
 -85.4683
 -85.4051
 -85.4049
 -85.4004
 -85.499
 -85.4979
 -85.4998
 -85.5019
 -85.5085
 -85.5132
 -85.5089
 -85.5128
 -85.4939
 -85.4909
 -85.4936
 -85.4939
 -85.53
 -85.5242
 -85.5266
 -85.5272
 -85.5055
 -85.5027
 -85.5041
 -85.4257
 -85.4283
 -85.4279
 -85.4297
 -85.5014
 -85.4986
 -85.4888
 -85.4852
 -85.4842
 -85.4874
 -85.4968
 -85.4954
 -85.4957
 -85.4979
 -85.4155
 -85.4176
 -85.4166
 -85.4128
 -85.4185
 -85.4211
 -85.4183
 -85.4209
 -85.2695
 -85.2751
 -85.2764
 -85.2725
 -85.4179
 -85.4203
 -85.4179
 -85.4266
 -85.4249
 -85.4243
 -85.4255
 -85.4578
 -85.4576
 -85.4556
 -85.4548
 -85.427
 -85.431
 -85.4314
 -85.4287
 -85.3843
 -85.3869
 -85.3841
 -85.3836
 -85.5089
 -85.5053
 -85.5086
 -85.5057
 -85.4558
 -85.4584
 -85.4553
 -85.4532
 -85.5292
 -85.5294
 -85.5284
 -85.5297
 -85.4738
 -85.4705
 -85.4735
 -85.4716
 -85.5268
 -85.5279
 -85.527
 -85.3287
 -85.3348
 -85.3318
 -85.3332
 -85.4945
 -85.4993
 -85.4953
 -85.4957
 -85.4464
 -85.4431
 -85.447
 -85.4453
 -85.4089
 -85.4065
 -85.4317
 -85.4322
 -85.4342
 -85.4332
 -85.4445
 -85.4405
 -85.4418
 -85.522
 -85.5229
 -85.5208
 -85.5225
 -85.5233
 -85.5217
 -85.5193
 -85.5207
 -85.4097
 -85.4082
 -85.4103
 -85.409
 -85.453
 -85.4513
 -85.4205
 -85.4244
 -85.422
 -85.4188
 -85.5024
 -85.5004
 -85.5051
 -85.505
 -85.3792
 -85.3785
 -85.3785
 -85.3799
 -85.414
 -85.4156
 -85.4126
 -85.4123
 -85.4204
 -85.424
 -85.4256
 -85.4239
 -85.4637
 -85.4628
 -85.4637
 -85.4681
 -85.4998
 -85.4991
 -85.4972
 -85.4975
 -85.5053
 -85.502
 -85.4999
 -85.5032
 -85.3003
 -85.299
 -85.2972
 -85.2942
 -85.3992
 -85.4025
 -85.4037
 -85.4703
 -85.4645
 -85.4678
 -85.4747
 -85.4782
 -85.4745
 -85.4784
 -85.5271
 -85.5287
 -85.5275
 -85.5297
 -85.4522
 -85.4186
 -85.4184
 -85.4141
 -85.4157
 -85.4848
 -85.4827
 -85.4797
 -85.4814
 -85.5077
 -85.5044
 -85.5051
 -85.5084
 -85.5184
 -85.5192
 -85.4101
 -85.409
 -85.4072
 -85.4067
 -85.4593
 -85.4623
 -85.4609
 -85.4629
 -85.4008
 -85.3998
 -85.4006
 -85.4016
 -85.4759
 -85.4361
 -85.4334
 -85.4396
 -85.4412
 -85.429
 -85.4315
 -85.4328
 -85.4308
 -85.5285
 -85.525
 -85.5325
 -85.5343
 -85.5346
 -85.5333
 -85.3531
 -85.3506
 -85.3517
 -85.354
 -85.5041
 -85.5049
 -85.5011
 -85.5064
 -85.476
 -85.4713
 -85.4727
 -85.4763
 -85.3133
 -85.3154
 -85.3156
 -85.3113
 -85.4579
 -85.4581
 -85.4598
 -85.456
 -85.455
 -85.4509
 -85.4488
 -85.4496
 -85.406
 -85.4016
 -85.4064
 -85.4047
 -85.5403
 -85.5419
 -85.5422
 -85.5422
 -85.4507
 -85.4469
 -85.4475
 -85.4236
 -85.4278
 -85.4275
 -85.424
 -85.5355
 -85.539
 -85.5367
 -85.5373
 -85.424
 -85.4218
 -85.4184
 -85.4255
 -85.4452
 -85.4478
 -85.5124
 -85.513
 -85.5152
 -85.5102
 -85.4697
 -85.4698
 -85.474
 -85.4733
 -85.5314
 -85.5297
 -85.5319
 -85.531
 -85.4493
 -85.4548
 -85.4161
 -85.4176
 -85.4185
 -85.4181
 -85.4245
 -85.4246
 -85.4268
 -85.4282
 -85.5159
 -85.5157
 -85.5123
 -85.5134
 -85.5076
 -85.5065
 -85.5085
 -85.5088
 -85.5022
 -85.4979
 -85.502
 -85.5003
 -85.428
 -85.4325
 -85.4305
 -85.4279
 -85.3555
 -85.3525
 -85.3549
 -85.3558
 -85.5354
 -85.5376
 -85.5354
 -85.5364
 -85.4042
 -85.4049
 -85.4056
 -85.408
 -85.4667
 -85.469
 -85.4705
 -85.4669
 -85.4327
 -85.4391
 -85.4348
 -85.4369
 -85.466
 -85.4617
 -85.4651
 -85.4824
 -85.4864
 -85.4823
 -85.4865
 -85.4579
 -85.4609
 -85.4586
 -85.4563
 -85.4951
 -85.4962
 -85.4989
 -85.4942
 -85.4947
 -85.4939
 -85.4953
 -85.4902
 -85.3094
 -85.3204
 -85.3104
 -85.3827
 -85.3878
 -85.3892
 -85.3873
 -85.4658
 -85.4631
 -85.4643
 -85.464
 -85.5136
 -85.5161
 -85.5143
 -85.5168
 -85.4161
 -85.4115
 -85.416
 -85.4224
 -85.4243
 -85.4244
 -85.4781
 -85.4768
 -85.4793
 -85.4793
 -85.4646
 -85.4674
 -85.469
 -85.4693
 -85.5488
 -85.5485
 -85.5477
 -85.5491
 -85.3718
 -85.373
 -85.3702
 -85.3637
 -85.5003
 -85.5022
 -85.4382
 -85.4426
 -85.4426
 -85.4391
 -85.4925
 -85.4943
 -85.4942
 -85.4951
 -85.4729
 -85.474
 -85.4764
 -85.4743
 -85.4438
 -85.4433
 -85.4468
 -85.4408
 -85.4889
 -85.4919
 -85.4905
 -85.4915
 -85.4101
 -85.4112
 -85.4114
 -85.4138
 -85.3962
 -85.3939
 -85.3968
 -85.3954
 -85.5094
 -85.5106
 -85.5138
 -85.5173
 -85.4647
 -85.467
 -85.4696
 -85.3419
 -85.3406
 -85.3438
 -85.5178
 -85.5199
 -85.5204
 -85.521
 -85.5229
 -85.522
 -85.5204
 -85.5198
 -85.458
 -85.4591
 -85.4604
 -85.4616
 -85.5275
 -85.5291
 -85.529
 -85.5288
 -85.5308
 -85.5337
 -85.5314
 -85.5343
 -85.4434
 -85.4451
 -85.448
 -85.4444
 -85.5054
 -85.507
 -85.5083
 -85.508
 -85.5474
 -85.5476
 -85.5467
 -85.5484
 -85.5047
 -85.5044
 -85.5028
 -85.5068
 -85.468
 -85.4637
 -85.4655
 -85.4618
 -85.5152
 -85.5158
 -85.5138
 -85.513
 -85.4947
 -85.4936
 -85.4963
 -85.4791
 -85.4821
 -85.3563
 -85.3586
 -85.3551
 -85.3537
 -85.4771
 -85.4808
 -85.4795
 -85.4793
 -85.3636
 -85.365
 -85.3657
 -85.3662
 -85.3622
 -85.3605
 -85.3671
 -85.3667
 -85.4708
 -85.4729
 -85.4729
 -85.4699
 -85.4376
 -85.4378
 -85.4346
 -85.4387
 -85.4834
 -85.4872
 -85.4861
 -85.4858
 -85.462
 -85.4594
 -85.3909
 -85.3892
 -85.3901
 -85.3928
 -85.5353
 -85.5365
 -85.5374
 -85.5363
 -85.4389
 -85.4367
 -85.4426
 -85.4398
 -85.5149
 -85.5137
 -85.5115
 -85.5137
 -85.3915
 -85.388
 -85.391
 -85.3892
 -85.5237
 -85.527
 -85.5262
 -85.5265
 -85.4774
 -85.4733
 -85.4768
 -85.4767
 -85.4182
 -85.4138
 -85.4107
 -85.4131
 -85.547
 -85.5465
 -85.5465
 -85.5456
 -85.4297
 -85.4333
 -85.4302
 -85.4299
 -85.4428
 -85.4378
 -85.4416
 -85.4383
 -85.5376
 -85.538
 -85.5361
 -85.5387
 -85.4577
 -85.4525
 -85.4545
 -85.4545
 -85.5172
 -85.5191
 -85.5175
 -85.5169
 -85.5137
 -85.5114
 -85.5122
 -85.4461
 -85.4405
 -85.4422
 -85.4427
 -85.5142
 -85.5165
 -85.5147
 -85.5157
 -85.4074
 -85.4107
 -85.4102
 -85.4073
 -85.5222
 -85.5238
 -85.5237
 -85.5227
 -85.5208
 -85.5197
 -85.5211
 -85.5202
 -85.4118
 -85.4107
 -85.4169
 -85.4136
 -85.4163
 -85.4156
 -85.4188
 -85.4141
 -85.2287
 -85.2307
 -85.2246
 -85.2271
 -85.5022
 -85.4986
 -85.4989
 -85.3626
 -85.3684
 -85.37
 -85.3658
 -85.533
 -85.5306
 -85.5313
 -85.5314
 -85.4091
 -85.5163
 -85.513
 -85.5133
 -85.5155
 -85.5167
 -85.5134
 -85.5142
 -85.2937
 -85.2882
 -85.2914
 -85.2936
 -85.2764
 -85.2808
 -85.2772
 -85.2747
 -85.53
 -85.5274
 -85.5293
 -85.5312
 -85.4159
 -85.4145
 -85.4174
 -85.4136
 -85.4933
 -85.4922
 -85.4953
 -85.4323
 -85.4291
 -85.4321
 -85.4277
 -85.4467
 -85.4468
 -85.4463
 -85.5151
 -85.5143
 -85.5182
 -85.4766
 -85.4797
 -85.4796
 -85.4768
 -85.4341
 -85.4299
 -85.4303
 -85.4333
 -85.4138
 -85.4154
 -85.4134
 -85.4149
 -85.4939
 -85.4961
 -85.4964
 -85.3859
 -85.3889
 -85.382
 -85.3814
 -85.4133
 -85.4196
 -85.4144
 -85.4423
 -85.4486
 -85.4468
 -85.4451
 -85.4033
 -85.4072
 -85.4075
 -85.406
 -85.4142
 -85.4181
 -85.4191
 -85.4178
 -85.5173
 -85.5149
 -85.5156
 -85.5151
 -85.4512
 -85.4481
 -85.4497
 -85.4522
 -85.424
 -85.4243
 -85.4673
 -85.4651
 -85.4664
 -85.4629
 -85.5256
 -85.5339
 -85.5346
 -85.5343
 -85.5339
 -85.2156
 -85.2142
 -85.2139
 -85.216
 -85.5097
 -85.5129
 -85.5104
 -85.542
 -85.5417
 -85.5405
 -85.5417
 -85.5031
 -85.4989
 -85.5006
 -85.4993
 -85.4119
 -85.4131
 -85.4151
 -85.4121
 -85.4481
 -85.4452
 -85.4447
 -85.4433
 -85.5436
 -85.5437
 -85.5432
 -85.5427
 -85.5022
 -85.4996
 -85.4977
 -85.5002
 -85.3834
 -85.3797
 -85.3791
 -85.3859
 -85.4429
 -85.4427
 -85.4437
 -85.4376
 -85.4394
 -85.4412
 -85.4428
 -85.4395
 -85.2163
 -85.2154
 -85.2151
 -85.2169
 -85.407
 -85.4064
 -85.4057
 -85.4083
 -85.5028
 -85.5069
 -85.5033
 -85.5049
 -85.4787
 -85.4784
 -85.4821
 -85.4776
 -85.4524
 -85.4544
 -85.4579
 -85.4545
 -85.4973
 -85.5008
 -85.4993
 -85.4997
 -85.4793
 -85.4798
 -85.4828
 -85.4792
 -85.4981
 -85.4975
 -85.4957
 -85.5011
 -85.5471
 -85.5445
 -85.5451
 -85.5476
 -85.5083
 -85.5062
 -85.5057
 -85.5013
 -85.4944
 -85.4918
 -85.4904
 -85.4941
 -85.4912
 -85.467
 -85.4667
 -85.4643
 -85.4704
 -85.5344
 -85.5337
 -85.5331
 -85.533
 -85.4518
 -85.4491
 -85.4524
 -85.4511
 -85.4769
 -85.4784
 -85.4801
 -85.4746
 -85.4613
 -85.4571
 -85.4602
 -85.4634
 -85.4329
 -85.4272
 -85.4318
 -85.4282
 -85.3281
 -85.3307
 -85.3391
 -85.3295
 -85.5488
 -85.5464
 -85.4888
 -85.4866
 -85.4866
 -85.2449
 -85.2458
 -85.2469
 -85.4203
 -85.4173
 -85.4191
 -85.4159
 -85.3586
 -85.3608
 -85.3525
 -85.3513
 -85.3987
 -85.3965
 -85.3997
 -85.3933
 -85.5335
 -85.5296
 -85.5317
 -85.5315
 -85.4688
 -85.465
 -85.466
 -85.4645
 -85.4919
 -85.4959
 -85.4953
 -85.4984
 -85.4783
 -85.4787
 -85.4752
 -85.4738
 -85.4998
 -85.5006
 -85.4983
 -85.4988
 -85.4558
 -85.4553
 -85.5155
 -85.5087
 -85.5156
 -85.51
 -85.4997
 -85.4975
 -85.4959
 -85.5014
 -85.4187
 -85.4146
 -85.4193
 -85.4154
 -85.4209
 -85.4222
 -85.422
 -85.4224
 -85.4754
 -85.4755
 -85.4743
 -85.477
 -85.4688
 -85.4703
 -85.4728
 -85.4751
 -85.4002
 -85.3949
 -85.3943
 -85.4001
 -85.4961
 -85.494
 -85.493
 -85.4923
 -85.5445
 -85.5433
 -85.5441
 -85.5438
 -85.5195
 -85.5179
 -85.5184
 -85.5173
 -85.5473
 -85.5481
 -85.5468
 -85.5484
 -85.5239
 -85.5263
 -85.5255
 -85.5258
 -85.4652
 -85.4697
 -85.4653
 -85.4663
 -85.4949
 -85.4921
 -85.4579
 -85.4622
 -85.4569
 -85.4597
 -85.4197
 -85.4225
 -85.4227
 -85.4238
 -85.5075
 -85.5106
 -85.5108
 -85.5079
 -85.4563
 -85.4548
 -85.4565
 -85.4525
 -85.4439
 -85.4409
 -85.44
 -85.4417
 -85.4122
 -85.4128
 -85.4148
 -85.4167
 -85.4249
 -85.4235
 -85.4223
 -85.4281
 -85.4123
 -85.4144
 -85.4159
 -85.4135
 -85.3404
 -85.3422
 -85.3389
 -85.3391
 -85.5041
 -85.5053
 -85.5017
 -85.5045
 -85.4901
 -85.4911
 -85.3455
 -85.3507
 -85.3498
 -85.3429
 -85.4313
 -85.4321
 -85.4865
 -85.4842
 -85.4868
 -85.5196
 -85.5196
 -85.4066
 -85.4064
 -85.4049
 -85.4083
 -85.3463
 -85.3503
 -85.3501
 -85.351
 -85.3973
 -85.3987
 -85.4013
 -85.4025
 -85.4302
 -85.4323
 -85.4335
 -85.4345
 -85.4802
 -85.4761
 -85.4759
 -85.4765
 -85.4907
 -85.4893
 -85.4889
 -85.4882
 -85.4289
 -85.433
 -85.4329
 -85.432
 -85.4773
 -85.4768
 -85.4782
 -85.4732
 -85.4632
 -85.4605
 -85.4598
 -85.4617
 -85.4692
 -85.472
 -85.4739
 -85.4722
 -85.4713
 -85.4671
 -85.4721
 -85.4571
 -85.4548
 -85.4602
 -85.458
 -85.4364
 -85.4379
 -85.434
 -85.4352
 -85.4156
 -85.4186
 -85.4139
 -85.4181
 -85.5329
 -85.5323
 -85.5338
 -85.5351
 -85.4506
 -85.4503
 -85.4539
 -85.4541
 -85.3951
 -85.3945
 -85.3905
 -85.3939
 -85.3846
 -85.3838
 -85.3835
 -85.3818
 -85.4022
 -85.4004
 -85.4005
 -85.4014
 -85.4115
 -85.4113
 -85.4157
 -85.4163
 -85.4156
 -85.4134
 -85.4124
 -85.4139
 -85.5303
 -85.5317
 -85.5314
 -85.5317
 -85.4453
 -85.4453
 -85.4444
 -85.4481
 -85.5017
 -85.5028
 -85.5008
 -85.4998
 -85.4155
 -85.4195
 -85.4139
 -85.4181
 -85.5352
 -85.5364
 -85.536
 -85.5384
 -85.5388
 -85.5387
 -85.5403
 -85.4974
 -85.4906
 -85.4928
 -85.4932
 -85.4238
 -85.4251
 -85.4213
 -85.4239
 -85.544
 -85.5416
 -85.5422
 -85.4414
 -85.438
 -85.4402
 -85.435
 -85.5235
 -85.5239
 -85.519
 -85.5199
 -85.5226
 -85.5193
 -85.4351
 -85.4324
 -85.4337
 -85.3841
 -85.3857
 -85.3805
 -85.3827
 -85.4136
 -85.4105
 -85.4145
 -85.4151
 -85.4627
 -85.4668
 -85.462
 -85.5357
 -85.5316
 -85.5322
 -85.4986
 -85.4956
 -85.494
 -85.496
 -85.5366
 -85.5369
 -85.5333
 -85.5392
 -85.4466
 -85.4504
 -85.4523
 -85.4492
 -85.5226
 -85.5235
 -85.525
 -85.5206
 -85.4646
 -85.4654
 -85.4627
 -85.4614
 -85.426
 -85.4226
 -85.4246
 -85.5423
 -85.5404
 -85.5413
 -85.5441
 -85.4911
 -85.4783
 -85.4823
 -85.4816
 -85.4794
 -85.4821
 -85.4822
 -85.4795
 -85.4231
 -85.4213
 -85.4208
 -85.4206
 -85.4204
 -85.4249
 -85.4494
 -85.4453
 -85.4447
 -85.4436
 -85.4439
 -85.4484
 -85.4448
 -85.4473
 -85.4965
 -85.5446
 -85.5417
 -85.541
 -85.543
 -85.3064
 -85.2986
 -85.3061
 -85.3063
 -85.4338
 -85.4309
 -85.4241
 -85.4228
 -85.4243
 -85.4252
 -85.4204
 -85.4208
 -85.4164
 -85.418
 -85.5012
 -85.4976
 -85.4985
 -85.5002
 -85.5048
 -85.5067
 -85.5027
 -85.5051
 -85.4251
 -85.4217
 -85.4931
 -85.4928
 -85.4972
 -85.4944
 -85.4963
 -85.4994
 -85.4963
 -85.4733
 -85.471
 -85.4691
 -85.4677
 -85.451
 -85.4474
 -85.4502
 -85.4475
 -85.5024
 -85.5063
 -85.5058
 -85.5033
 -85.5127
 -85.5141
 -85.5158
 -85.5134
 -85.5066
 -85.51
 -85.5073
 -85.5047
 -85.5059
 -85.5052
 -85.5023
 -85.4491
 -85.4503
 -85.4502
 -85.4476
 -85.3717
 -85.372
 -85.3744
 -85.3746
 -85.4386
 -85.4377
 -85.436
 -85.437
 -85.512
 -85.5093
 -85.5074
 -85.5103
 -85.4915
 -85.4908
 -85.4902
 -85.4939
 -85.4374
 -85.4398
 -85.4407
 -85.4416
 -85.4923
 -85.4887
 -85.4908
 -85.492
 -85.4714
 -85.4727
 -85.4667
 -85.4722
 -85.4735
 -85.477
 -85.4758
 -85.4763
 -85.4913
 -85.4928
 -85.4931
 -85.5335
 -85.5339
 -85.5328
 -85.5333
 -85.437
 -85.4405
 -85.4386
 -85.4397
 -85.4599
 -85.4639
 -85.463
 -85.4618
 -85.3705
 -85.3669
 -85.3672
 -85.372
 -85.4113
 -85.414
 -85.4138
 -85.4115
 -85.4173
 -85.4107
 -85.4134
 -85.41
 -85.4109
 -85.4126
 -85.4121
 -85.4136
 -85.4699
 -85.4675
 -85.4687
 -85.3988
 -85.3983
 -85.3998
 -85.4002
 -85.4041
 -85.4057
 -85.409
 -85.4038
 -85.5417
 -85.54
 -85.5396
 -85.5408
 -85.4727
 -85.4704
 -85.4698
 -85.4682
 -85.515
 -85.5153
 -85.5141
 -85.5121
 -85.4793
 -85.4808
 -85.4782
 -85.4761
 -85.4904
 -85.4931
 -85.4907
 -85.4916
 -85.421
 -85.4176
 -85.4196
 -85.4147
 -85.4592
 -85.4661
 -85.4611
 -85.4615
 -85.5139
 -85.5155
 -85.5129
 -85.5138
 -85.4826
 -85.4814
 -85.4855
 -85.4842
 -85.4054
 -85.4041
 -85.4092
 -85.4099
 -85.5328
 -85.5337
 -85.5332
 -85.5339
 -85.4386
 -85.4351
 -85.4036
 -85.4606
 -85.4624
 -85.4644
 -85.4595
 -85.4506
 -85.4535
 -85.4493
 -85.4492
 -85.3557
 -85.3547
 -85.3607
 -85.433
 -85.4298
 -85.4288
 -85.4268
 -85.4796
 -85.4855
 -85.4833
 -85.486
 -85.4635
 -85.4666
 -85.4647
 -85.4636
 -85.527
 -85.5282
 -85.5284
 -85.5276
 -85.4143
 -85.4195
 -85.4158
 -85.4188
 -85.4185
 -85.4177
 -85.4227
 -85.3591
 -85.3522
 -85.3553
 -85.3596
 -85.4123
 -85.4165
 -85.4138
 -85.4769
 -85.4841
 -85.478
 -85.4115
 -85.4113
 -85.4084
 -85.4099
 -85.4505
 -85.4543
 -85.4552
 -85.4546
 -85.2174
 -85.2175
 -85.217
 -85.2207
 -85.4474
 -85.4458
 -85.4467
 -85.3948
 -85.3944
 -85.3949
 -85.3952
 -85.4465
 -85.4447
 -85.4409
 -85.4444
 -85.4091
 -85.4123
 -85.4122
 -85.4135
 -85.4938
 -85.4951
 -85.493
 -85.4961
 -85.5029
 -85.5005
 -85.5029
 -85.5041
 -85.5388
 -85.5388
 -85.5397
 -85.5377
 -85.4742
 -85.4699
 -85.4739
 -85.4751
 -85.407
 -85.4041
 -85.4066
 -85.4049
 -85.423
 -85.4211
 -85.3811
 -85.3808
 -85.3829
 -85.3825
 -85.4549
 -85.4564
 -85.4328
 -85.4385
 -85.4374
 -85.4193
 -85.4212
 -85.423
 -85.4205
 -85.5319
 -85.5324
 -85.5289
 -85.5295
 -85.5296
 -85.5288
 -85.5276
 -85.5289
 -85.4209
 -85.4227
 -85.4206
 -85.4168
 -85.399
 -85.3998
 -85.4804
 -85.4809
 -85.48
 -85.4834
 -85.4181
 -85.4162
 -85.4198
 -85.4191
 -85.4381
 -85.4333
 -85.4417
 -85.5476
 -85.5482
 -85.5468
 -85.4636
 -85.468
 -85.4658
 -85.4663
 -85.5209
 -85.5241
 -85.5202
 -85.5191
 -85.4688
 -85.4722
 -85.4729
 -85.4686
 -85.5015
 -85.5044
 -85.5047
 -85.5
 -85.4062
 -85.409
 -85.4068
 -85.4055
 -85.4139
 -85.4189
 -85.4124
 -85.4174
 -85.4708
 -85.4672
 -85.4734
 -85.4691
 -85.4345
 -85.4391
 -85.4402
 -85.4341
 -85.4035
 -85.4046
 -85.4064
 -85.4098
 -85.451
 -85.4528
 -85.4554
 -85.4572
 -85.488
 -85.4887
 -85.4864
 -85.4685
 -85.4717
 -85.4696
 -85.4718
 -85.2585
 -85.2687
 -85.2703
 -85.2649
 -85.3998
 -85.3996
 -85.4002
 -85.4
 -85.4328
 -85.4318
 -85.4325
 -85.4362
 -85.3435
 -85.3474
 -85.3398
 -85.3451
 -85.5204
 -85.52
 -85.5178
 -85.5408
 -85.5394
 -85.538
 -85.5392
 -85.5064
 -85.5117
 -85.5093
 -85.5094
 -85.4673
 -85.4871
 -85.4909
 -85.4925
 -85.4897
 -85.4595
 -85.4622
 -85.4576
 -85.458
 -85.3941
 -85.3892
 -85.3921
 -85.4176
 -85.4191
 -85.4201
 -85.4144
 -85.2671
 -85.2578
 -85.266
 -85.2529
 -85.3557
 -85.3553
 -85.3583
 -85.3543
 -85.4298
 -85.4297
 -85.4323
 -85.4348
 -85.5433
 -85.5406
 -85.5414
 -85.5409
 -85.287
 -85.2844
 -85.2934
 -85.2884
 -85.4978
 -85.5002
 -85.4956
 -85.4984
 -85.4688
 -85.4692
 -85.4727
 -85.4694
 -85.4213
 -85.4147
 -85.4144
 -85.4545
 -85.4502
 -85.4493
 -85.4493
 -85.5411
 -85.5415
 -85.5421
 -85.3973
 -85.4042
 -85.4054
 -85.4495
 -85.452
 -85.4557
 -85.4551
 -85.4311
 -85.4302
 -85.4294
 -85.428
 -85.4357
 -85.4352
 -85.4391
 -85.4401
 -85.3933
 -85.3907
 -85.3907
 -85.3954
 -85.4547
 -85.4572
 -85.4532
 -85.458
 -85.5325
 -85.5282
 -85.5284
 -85.5264
 -85.5269
 -85.526
 -85.5251
 -85.5281
 -85.3869
 -85.3868
 -85.3883
 -85.386
 -85.5179
 -85.5186
 -85.5183
 -85.5153
 -85.5297
 -85.5328
 -85.5317
 -85.5287
 -85.5167
 -85.5167
 -85.5131
 -85.5137
 -85.4883
 -85.4871
 -85.4899
 -85.4884
 -85.462
 -85.4593
 -85.4636
 -85.4298
 -85.424
 -85.4261
 -85.4269
 -85.5037
 -85.5015
 -85.4988
 -85.5026
 -85.5084
 -85.509
 -85.5109
 -85.5099
 -85.5492
 -85.549
 -85.5471
 -85.5481
 -85.3579
 -85.3612
 -85.36
 -85.3607
 -85.3825
 -85.381
 -85.3816
 -85.3834
 -85.3936
 -85.3935
 -85.399
 -85.3932
 -85.4324
 -85.4273
 -85.4309
 -85.4308
 -85.4397
 -85.4401
 -85.4398
 -85.5315
 -85.5334
 -85.5359
 -85.5344
 -85.5119
 -85.511
 -85.5093
 -85.5087
 -85.4581
 -85.4556
 -85.4546
 -85.4569
 -85.5282
 -85.5302
 -85.4796
 -85.4801
 -85.48
 -85.4766
 -85.5267
 -85.5279
 -85.5304
 -85.5279
 -85.473
 -85.4773
 -85.4719
 -85.4781
 -85.4288
 -85.432
 -85.4259
 -85.4287
 -85.3774
 -85.3733
 -85.3767
 -85.3805
 -85.257
 -85.2642
 -85.2518
 -85.2613
 -85.5222
 -85.5206
 -85.5204
 -85.5227
 -85.5273
 -85.5275
 -85.5279
 -85.5296
 -85.4462
 -85.4412
 -85.4447
 -85.4423
 -85.467
 -85.4651
 -85.4646
 -85.4674
 -85.415
 -85.4116
 -85.4174
 -85.4818
 -85.4793
 -85.4797
 -85.4776
 -85.4162
 -85.4154
 -85.4175
 -85.4182
 -85.4606
 -85.4567
 -85.4541
 -85.4563
 -85.4904
 -85.4885
 -85.4898
 -85.4906
 -85.4696
 -85.4684
 -85.467
 -85.518
 -85.5149
 -85.5162
 -85.5161
 -85.4846
 -85.489
 -85.3341
 -85.3409
 -85.3311
 -85.3356
 -85.5047
 -85.5029
 -85.5044
 -85.4214
 -85.4225
 -85.4229
 -85.421
 -85.4848
 -85.4849
 -85.4834
 -85.4599
 -85.4561
 -85.4606
 -85.4577
 -85.4821
 -85.4776
 -85.4838
 -85.4806
 -85.4848
 -85.4888
 -85.3044
 -85.3045
 -85.3005
 -85.3029
 -85.263
 -85.256
 -85.2496
 -85.2583
 -85.4635
 -85.4591
 -85.4607
 -85.4588
 -85.4812
 -85.479
 -85.4811
 -85.4783
 -85.3045
 -85.3046
 -85.3042
 -85.3099
 -85.4204
 -85.4162
 -85.389
 -85.3902
 -85.3911
 -85.3942
 -85.4859
 -85.4851
 -85.4896
 -85.4872
 -85.4789
 -85.4793
 -85.4825
 -85.4773
 -85.4827
 -85.479
 -85.4784
 -85.4788
 -85.4321
 -85.433
 -85.4354
 -85.432
 -85.4059
 -85.4036
 -85.4004
 -85.4063
 -85.3602
 -85.3657
 -85.3649
 -85.3596
 -85.4092
 -85.4093
 -85.4095
 -85.4151
 -85.5041
 -85.5019
 -85.5053
 -85.5039
 -85.4635
 -85.4549
 -85.4594
 -85.3509
 -85.3543
 -85.3582
 -85.4931
 -85.4981
 -85.4956
 -85.4956
 -85.4958
 -85.4906
 -85.4929
 -85.4946
 -85.4467
 -85.4441
 -85.4426
 -85.453
 -85.4544
 -85.4579
 -85.4544
 -85.408
 -85.406
 -85.4054
 -85.4056
 -85.5164
 -85.5154
 -85.5176
 -85.5168
 -85.4022
 -85.4015
 -85.4017
 -85.4027
 -85.3954
 -85.3935
 -85.3955
 -85.5392
 -85.5424
 -85.5436
 -85.5415
 -85.5147
 -85.5168
 -85.4263
 -85.4244
 -85.4282
 -85.4276
 -85.4608
 -85.4651
 -85.4613
 -85.4532
 -85.4518
 -85.4523
 -85.4486
 -85.4029
 -85.4066
 -85.4046
 -85.514
 -85.516
 -85.512
 -85.5129
 -85.4014
 -85.4072
 -85.4032
 -85.4019
 -85.4987
 -85.4959
 -85.494
 -85.495
 -85.4034
 -85.4048
 -85.407
 -85.4027
 -85.4055
 -85.4043
 -85.4223
 -85.42
 -85.4211
 -85.4222
 -85.3588
 -85.356
 -85.3511
 -85.3563
 -85.5055
 -85.5086
 -85.4363
 -85.4385
 -85.4393
 -85.4389
 -85.5393
 -85.5384
 -85.5388
 -85.54
 -85.4303
 -85.4273
 -85.4316
 -85.4352
 -85.5105
 -85.5136
 -85.5143
 -85.5141
 -85.5275
 -85.5305
 -85.526
 -85.5294
 -85.4981
 -85.4944
 -85.5333
 -85.5354
 -85.5346
 -85.5338
 -85.4036
 -85.4038
 -85.402
 -85.4065
 -85.5339
 -85.5344
 -85.5345
 -85.5337
 -85.5418
 -85.5443
 -85.5434
 -85.5419
 -85.477
 -85.4771
 -85.4806
 -85.4795
 -85.4533
 -85.4515
 -85.4559
 -85.458
 -85.5236
 -85.5202
 -85.5225
 -85.5237
 -85.3412
 -85.3472
 -85.3419
 -85.3408
 -85.5219
 -85.5256
 -85.4345
 -85.4376
 -85.4377
 -85.4417
 -85.5222
 -85.5205
 -85.5181
 -85.5183
 -85.409
 -85.4124
 -85.4118
 -85.4113
 -85.4402
 -85.4341
 -85.4363
 -85.4394
 -85.4102
 -85.4089
 -85.4146
 -85.4073
 -85.4054
 -85.4073
 -85.4044
 -85.3997
 -85.4024
 -85.4013
 -85.4027
 -85.4799
 -85.4771
 -85.4761
 -85.5193
 -85.5194
 -85.5217
 -85.5219
 -85.4712
 -85.4691
 -85.4674
 -85.408
 -85.4057
 -85.4075
 -85.4608
 -85.4659
 -85.4614
 -85.4648
 -85.485
 -85.4846
 -85.4848
 -85.489
 -85.4494
 -85.4535
 -85.454
 -85.4527
 -85.4475
 -85.4461
 -85.4445
 -85.4392
 -85.4367
 -85.4359
 -85.4405
 -85.4431
 -85.4452
 -85.4389
 -85.5202
 -85.5193
 -85.5204
 -85.5176
 -85.4932
 -85.4909
 -85.493
 -85.4944
 -85.4547
 -85.4551
 -85.4531
 -85.459
 -85.3982
 -85.3949
 -85.398
 -85.4728
 -85.4704
 -85.4723
 -85.4733
 -85.4233
 -85.4181
 -85.4209
 -85.4181
 -85.318
 -85.3217
 -85.3176
 -85.3156
 -85.4419
 -85.4397
 -85.4413
 -85.441
 -85.5238
 -85.5229
 -85.5258
 -85.5248
 -85.4377
 -85.4416
 -85.4392
 -85.437
 -85.4031
 -85.4031
 -85.4039
 -85.4052
 -85.4059
 -85.4037
 -85.4042
 -85.4518
 -85.4527
 -85.4511
 -85.4875
 -85.4365
 -85.43
 -85.4342
 -85.434
 -85.5283
 -85.5278
 -85.5293
 -85.524
 -85.5246
 -85.5257
 -85.4352
 -85.439
 -85.4362
 -85.4385
 -85.5411
 -85.5423
 -85.543
 -85.543
 -85.41
 -85.4785
 -85.4746
 -85.4769
 -85.4762
 -85.4089
 -85.4101
 -85.4098
 -85.4106
 -85.5266
 -85.5286
 -85.5251
 -85.527
 -85.4899
 -85.4949
 -85.4931
 -85.4908
 -85.508
 -85.5101
 -85.506
 -85.5069
 -85.3998
 -85.4009
 -85.402
 -85.3999
 -85.4273
 -85.4305
 -85.427
 -85.4277
 -85.4727
 -85.4702
 -85.4728
 -85.469
 -85.4292
 -85.4248
 -85.4308
 -85.4264
 -85.4873
 -85.4889
 -85.4922
 -85.4914
 -85.4115
 -85.4103
 -85.414
 -85.4136
 -85.4239
 -85.4249
 -85.4285
 -85.427
 -85.4782
 -85.4786
 -85.4786
 -85.4821
 -85.5271
 -85.53
 -85.5283
 -85.5303
 -85.3895
 -85.3918
 -85.3942
 -85.394
 -85.3584
 -85.3512
 -85.3586
 -85.3572
 -85.5296
 -85.5323
 -85.5309
 -85.531
 -85.3675
 -85.3631
 -85.3645
 -85.3613
 -85.3594
 -85.3646
 -85.462
 -85.4632
 -85.4601
 -85.4586
 -85.4262
 -85.4285
 -85.4284
 -85.425
 -85.5487
 -85.5488
 -85.5489
 -85.5479
 -85.5265
 -85.5262
 -85.5292
 -85.4887
 -85.4883
 -85.4914
 -85.4874
 -85.4068
 -85.4076
 -85.4043
 -85.4087
 -85.4236
 -85.4229
 -85.4219
 -85.4211
 -85.4236
 -85.4256
 -85.49
 -85.4957
 -85.4938
 -85.4913
 -85.4832
 -85.4829
 -85.4798
 -85.4839
 -85.494
 -85.4934
 -85.4903
 -85.4938
 -85.5404
 -85.5405
 -85.537
 -85.5416
 -85.5009
 -85.5006
 -85.4975
 -85.4411
 -85.4675
 -85.4662
 -85.4672
 -85.4645
 -85.47
 -85.4655
 -85.4669
 -85.4691
 -85.5167
 -85.5158
 -85.5154
 -85.5137
 -85.5017
 -85.4995
 -85.4999
 -85.5027
 -85.4817
 -85.4788
 -85.4782
 -85.4326
 -85.4292
 -85.433
 -85.4274
 -85.4667
 -85.4724
 -85.4692
 -85.4695
 -85.4401
 -85.4429
 -85.4383
 -85.2831
 -85.2819
 -85.2767
 -85.2854
 -85.5182
 -85.523
 -85.5208
 -85.5175
 -85.5131
 -85.5184
 -85.5156
 -85.2963
 -85.4717
 -85.4722
 -85.4712
 -85.4754
 -85.481
 -85.4814
 -85.3795
 -85.3795
 -85.3789
 -85.3809
 -85.3945
 -85.3961
 -85.4013
 -85.3952
 -85.4167
 -85.4191
 -85.4174
 -85.4185
 -85.4149
 -85.4169
 -85.4178
 -85.4141
 -85.4138
 -85.4164
 -85.4404
 -85.4368
 -85.4356
 -85.4359
 -85.4447
 -85.4487
 -85.5491
 -85.5488
 -85.4037
 -85.4098
 -85.4031
 -85.4069
 -85.4535
 -85.4523
 -85.4552
 -85.4505
 -85.3864
 -85.3883
 -85.3811
 -85.3827
 -85.5214
 -85.523
 -85.5191
 -85.5207
 -85.5119
 -85.5093
 -85.5117
 -85.5091
 -85.4877
 -85.4904
 -85.4909
 -85.4889
 -85.4731
 -85.4741
 -85.479
 -85.4774
 -85.4628
 -85.4615
 -85.4036
 -85.4984
 -85.5015
 -85.5013
 -85.5017
 -85.5373
 -85.5365
 -85.5398
 -85.536
 -85.5147
 -85.5183
 -85.5139
 -85.5155
 -85.2178
 -85.2172
 -85.2187
 -85.2208
 -85.5383
 -85.5389
 -85.5381
 -85.5382
 -85.418
 -85.418
 -85.4146
 -85.4196
 -85.4337
 -85.4295
 -85.4311
 -85.4278
 -85.4951
 -85.4955
 -85.4975
 -85.4981
 -85.4967
 -85.4955
 -85.494
 -85.4949
 -85.4069
 -85.4115
 -85.4089
 -85.4106
 -85.5366
 -85.5373
 -85.5363
 -85.5367
 -85.5228
 -85.5241
 -85.5235
 -85.525
 -85.4984
 -85.4988
 -85.5012
 -85.5015
 -85.524
 -85.5217
 -85.5231
 -85.5237
 -85.4238
 -85.4279
 -85.428
 -85.4291
 -85.4071
 -85.4078
 -85.4091
 -85.4097
 -85.5189
 -85.5172
 -85.516
 -85.5166
 -85.4492
 -85.4479
 -85.4472
 -85.4437
 -85.4538
 -85.452
 -85.4512
 -85.4535
 -85.2701
 -85.2773
 -85.2768
 -85.2781
 -85.5364
 -85.5368
 -85.5263
 -85.5264
 -85.5246
 -85.528
 -85.3878
 -85.3848
 -85.3836
 -85.3882
 -85.4284
 -85.4233
 -85.4229
 -85.4215
 -85.5236
 -85.5217
 -85.5253
 -85.5254
 -85.4453
 -85.4464
 -85.4445
 -85.4486
 -85.4371
 -85.4384
 -85.434
 -85.4344
 -85.5394
 -85.5401
 -85.5389
 -85.5388
 -85.4709
 -85.4696
 -85.4707
 -85.4722
 -85.4621
 -85.4632
 -85.4624
 -85.4597
 -85.5093
 -85.5102
 -85.5112
 -85.5089
 -85.4897
 -85.4884
 -85.4873
 -85.4852
 -85.446
 -85.446
 -85.4417
 -85.4291
 -85.4323
 -85.4303
 -85.4362
 -85.3697
 -85.3663
 -85.3671
 -85.3738
 -85.4335
 -85.4358
 -85.4365
 -85.4372
 -85.4672
 -85.4652
 -85.4665
 -85.4642
 -85.538
 -85.5388
 -85.5386
 -85.5357
 -85.4361
 -85.4423
 -85.4391
 -85.4382
 -85.3877
 -85.3873
 -85.3838
 -85.3809
 -85.4955
 -85.4989
 -85.4972
 -85.4949
 -85.4827
 -85.4818
 -85.48
 -85.4666
 -85.471
 -85.4724
 -85.4734
 -85.3617
 -85.3604
 -85.3611
 -85.3651
 -85.4729
 -85.4701
 -85.4709
 -85.4692
 -85.5353
 -85.5352
 -85.5355
 -85.5356
 -85.4692
 -85.4687
 -85.4702
 -85.4709
 -85.3976
 -85.3955
 -85.3971
 -85.398
 -85.4123
 -85.4149
 -85.4121
 -85.409
 -85.5494
 -85.5488
 -85.5494
 -85.5493
 -85.4236
 -85.4246
 -85.424
 -85.4183
 -85.4817
 -85.477
 -85.478
 -85.4798
 -85.5487
 -85.5492
 -85.5481
 -85.5477
 -85.5279
 -85.5315
 -85.5293
 -85.4967
 -85.4962
 -85.5004
 -85.5015
 -85.5199
 -85.5206
 -85.5238
 -85.5189
 -85.3223
 -85.3269
 -85.3301
 -85.3287
 -85.4106
 -85.4153
 -85.4083
 -85.5332
 -85.5357
 -85.5351
 -85.5357
 -85.4799
 -85.4784
 -85.482
 -85.4772
 -85.5071
 -85.5059
 -85.5101
 -85.504
 -85.3919
 -85.3913
 -85.3879
 -85.3865
 -85.4441
 -85.449
 -85.4438
 -85.447
 -85.4879
 -85.4823
 -85.4844
 -85.3838
 -85.3847
 -85.3862
 -85.3862
 -85.4101
 -85.4011
 -85.4031
 -85.4019
 -85.4389
 -85.534
 -85.5356
 -85.5343
 -85.5361
 -85.3293
 -85.3284
 -85.3233
 -85.3244
 -85.5076
 -85.5129
 -85.5106
 -85.5135
 -85.4838
 -85.4815
 -85.4819
 -85.4783
 -85.2904
 -85.5149
 -85.5129
 -85.5164
 -85.5329
 -85.5359
 -85.5339
 -85.5341
 -85.4553
 -85.4549
 -85.4609
 -85.457
 -85.4926
 -85.4926
 -85.4949
 -85.4909
 -85.4173
 -85.414
 -85.4627
 -85.461
 -85.4605
 -85.4642
 -85.4169
 -85.4143
 -85.412
 -85.415
 -85.4294
 -85.428
 -85.4334
 -85.4338
 -85.4983
 -85.4959
 -85.4982
 -85.4989
 -85.3457
 -85.3447
 -85.3441
 -85.3509
 -85.4077
 -85.406
 -85.4074
 -85.4052
 -85.3575
 -85.3608
 -85.396
 -85.3963
 -85.3966
 -85.3961
 -85.3894
 -85.3867
 -85.3906
 -85.3874
 -85.539
 -85.5378
 -85.5359
 -85.5358
 -85.4771
 -85.4768
 -85.4753
 -85.4806
 -85.4428
 -85.4484
 -85.4455
 -85.4453
 -85.4669
 -85.4654
 -85.4645
 -85.468
 -85.5368
 -85.5363
 -85.3829
 -85.3813
 -85.3816
 -85.3829
 -85.5357
 -85.5367
 -85.5345
 -85.337
 -85.3365
 -85.3365
 -85.3343
 -85.5301
 -85.5266
 -85.529
 -85.5275
 -85.4313
 -85.4288
 -85.4323
 -85.4281
 -85.4535
 -85.453
 -85.4519
 -85.534
 -85.5325
 -85.5331
 -85.5344
 -85.4765
 -85.4729
 -85.4764
 -85.4742
 -85.4538
 -85.4561
 -85.4585
 -85.4554
 -85.433
 -85.4311
 -85.4431
 -85.4358
 -85.4406
 -85.4386
 -85.483
 -85.4791
 -85.4813
 -85.5389
 -85.536
 -85.5356
 -85.5385
 -85.4523
 -85.4545
 -85.4518
 -85.4533
 -85.4447
 -85.4421
 -85.427
 -85.4231
 -85.422
 -85.4258
 -85.3507
 -85.3517
 -85.357
 -85.4765
 -85.4776
 -85.4729
 -85.4728
 -85.5376
 -85.5378
 -85.5378
 -85.3561
 -85.3553
 -85.3565
 -85.4498
 -85.4471
 -85.4488
 -85.4454
 -85.4915
 -85.4919
 -85.4882
 -85.4894
 -85.3221
 -85.3187
 -85.3205
 -85.323
 -85.5213
 -85.5222
 -85.5207
 -85.5202
 -85.4946
 -85.4925
 -85.4928
 -85.4911
 -85.5144
 -85.5153
 -85.5134
 -85.5325
 -85.5332
 -85.5363
 -85.5342
 -85.4656
 -85.4611
 -85.4651
 -85.466
 -85.5328
 -85.5318
 -85.5314
 -85.5306
 -85.4335
 -85.4329
 -85.4353
 -85.4308
 -85.5382
 -85.4877
 -85.4609
 -85.4598
 -85.463
 -85.4588
 -85.483
 -85.4819
 -85.4796
 -85.4787
 -85.5026
 -85.5032
 -85.5011
 -85.4989
 -85.485
 -85.484
 -85.4874
 -85.4857
 -85.5062
 -85.5042
 -85.5068
 -85.5064
 -85.4607
 -85.4585
 -85.4592
 -85.4625
 -85.4546
 -85.4553
 -85.4561
 -85.4579
 -85.444
 -85.4427
 -85.4417
 -85.4457
 -85.4561
 -85.456
 -85.4526
 -85.4032
 -85.4038
 -85.4032
 -85.4055
 -85.4653
 -85.49
 -85.4938
 -85.4942
 -85.493
 -85.5349
 -85.5351
 -85.5319
 -85.4266
 -85.4208
 -85.4227
 -85.4211
 -85.4692
 -85.4735
 -85.4719
 -85.4839
 -85.4826
 -85.4812
 -85.48
 -85.4919
 -85.4935
 -85.4965
 -85.4976
 -85.526
 -85.5273
 -85.5293
 -85.5267
 -85.4148
 -85.4144
 -85.4165
 -85.4114
 -85.4687
 -85.4664
 -85.4663
 -85.4642
 -85.4569
 -85.4556
 -85.4527
 -85.4573
 -85.4541
 -85.4524
 -85.4514
 -85.449
 -85.4626
 -85.4616
 -85.4637
 -85.4596
 -85.5018
 -85.4962
 -85.5027
 -85.4988
 -85.4537
 -85.4483
 -85.4503
 -85.4516
 -85.382
 -85.382
 -85.3819
 -85.3831
 -85.367
 -85.3694
 -85.368
 -85.4618
 -85.4624
 -85.4652
 -85.4662
 -85.4635
 -85.4641
 -85.4661
 -85.4676
 -85.4555
 -85.452
 -85.4577
 -85.4576
 -85.5311
 -85.5317
 -85.5283
 -85.5286
 -85.5029
 -85.5002
 -85.4994
 -85.5026
 -85.4241
 -85.4266
 -85.4259
 -85.4269
 -85.3967
 -85.4021
 -85.4011
 -85.3944
 -85.5244
 -85.523
 -85.5215
 -85.5242
 -85.3346
 -85.3285
 -85.3299
 -85.3368
 -85.4363
 -85.44
 -85.438
 -85.4375
 -85.3914
 -85.393
 -85.3927
 -85.4118
 -85.4141
 -85.4146
 -85.4177
 -85.4979
 -85.4974
 -85.4999
 -85.4945
 -85.4106
 -85.4064
 -85.4073
 -85.4098
 -85.3677
 -85.3778
 -85.3713
 -85.3208
 -85.3267
 -85.3294
 -85.3255
 -85.5423
 -85.5431
 -85.5435
 -85.5452
 -85.4207
 -85.4181
 -85.4199
 -85.4218
 -85.4781
 -85.4734
 -85.4744
 -85.4769
 -85.5284
 -85.5273
 -85.525
 -85.5269
 -85.5135
 -85.5163
 -85.5123
 -85.5135
 -85.4237
 -85.4248
 -85.4219
 -85.4235
 -85.3821
 -85.3771
 -85.3725
 -85.3782
 -85.4741
 -85.4761
 -85.4723
 -85.4741
 -85.3872
 -85.3915
 -85.4453
 -85.439
 -85.4405
 -85.4437
 -85.4491
 -85.4488
 -85.4466
 -85.4504
 -85.4438
 -85.444
 -85.4421
 -85.3999
 -85.4013
 -85.4
 -85.48
 -85.4801
 -85.4815
 -85.4824
 -85.4756
 -85.475
 -85.4731
 -85.4784
 -85.423
 -85.4268
 -85.4247
 -85.4235
 -85.5047
 -85.5075
 -85.5034
 -85.5045
 -85.4603
 -85.4557
 -85.4581
 -85.4613
 -85.4011
 -85.401
 -85.4005
 -85.401
 -85.4394
 -85.4428
 -85.4398
 -85.4792
 -85.4788
 -85.476
 -85.4781
 -85.4656
 -85.4681
 -85.4697
 -85.5412
 -85.5407
 -85.54
 -85.5395
 -85.3603
 -85.3574
 -85.3611
 -85.3535
 -85.4348
 -85.438
 -85.4381
 -85.4353
 -85.4295
 -85.4286
 -85.4255
 -85.4297
 -85.5424
 -85.542
 -85.5447
 -85.5462
 -85.5101
 -85.5117
 -85.5112
 -85.4133
 -85.4133
 -85.4108
 -85.4136
 -85.5093
 -85.5058
 -85.5073
 -85.4205
 -85.4212
 -85.4184
 -85.4192
 -85.2523
 -85.2567
 -85.2553
 -85.2593
 -85.5306
 -85.5312
 -85.533
 -85.5296
 -85.4006
 -85.3994
 -85.3979
 -85.3951
 -85.5396
 -85.539
 -85.5387
 -85.5391
 -85.4098
 -85.4139
 -85.4105
 -85.4128
 -85.2624
 -85.2517
 -85.2588
 -85.2607
 -85.375
 -85.3713
 -85.375
 -85.3761
 -85.4026
 -85.4051
 -85.4074
 -85.4019
 -85.4586
 -85.4538
 -85.3956
 -85.3967
 -85.3892
 -85.3901
 -85.4821
 -85.4795
 -85.4787
 -85.4767
 -85.4547
 -85.4547
 -85.4535
 -85.4584
 -85.5276
 -85.5248
 -85.5296
 -85.53
 -85.5218
 -85.5207
 -85.5232
 -85.523
 -85.5148
 -85.512
 -85.5142
 -85.5121
 -85.5259
 -85.5264
 -85.5271
 -85.5252
 -85.4917
 -85.4912
 -85.494
 -85.4917
 -85.5163
 -85.519
 -85.5183
 -85.5174
 -85.3651
 -85.3581
 -85.3576
 -85.3652
 -85.5232
 -85.525
 -85.5246
 -85.5241
 -85.4438
 -85.4405
 -85.4386
 -85.4401
 -85.5078
 -85.5033
 -85.5038
 -85.5221
 -85.5244
 -85.5247
 -85.5237
 -85.4016
 -85.3974
 -85.3972
 -85.3992
 -85.3773
 -85.3763
 -85.3743
 -85.3751
 -85.4975
 -85.4972
 -85.4953
 -85.5004
 -85.4462
 -85.446
 -85.4452
 -85.4427
 -85.493
 -85.4914
 -85.4928
 -85.492
 -85.4919
 -85.4917
 -85.4975
 -85.4379
 -85.4371
 -85.4339
 -85.4892
 -85.4911
 -85.4703
 -85.4658
 -85.5385
 -85.5401
 -85.5398
 -85.5385
 -85.4656
 -85.4669
 -85.4646
 -85.4689
 -85.489
 -85.4878
 -85.4921
 -85.4878
 -85.4782
 -85.4798
 -85.478
 -85.4809
 -85.5164
 -85.51
 -85.5112
 -85.5091
 -85.5086
 -85.45
 -85.4513
 -85.4475
 -85.4476
 -85.3941
 -85.3941
 -85.394
 -85.3941
 -85.49
 -85.4871
 -85.4906
 -85.4884
 -85.494
 -85.4925
 -85.4912
 -85.4953
 -85.2826
 -85.2886
 -85.2905
 -85.2933
 -85.4615
 -85.4647
 -85.4625
 -85.4606
 -85.4571
 -85.4539
 -85.4525
 -85.4555
 -85.4881
 -85.4856
 -85.4054
 -85.406
 -85.4072
 -85.4056
 -85.432
 -85.434
 -85.4334
 -85.4314
 -85.4102
 -85.4085
 -85.4077
 -85.4082
 -85.4259
 -85.4285
 -85.4281
 -85.4252
 -85.4084
 -85.408
 -85.4066
 -85.4088
 -85.5119
 -85.5102
 -85.5111
 -85.5131
 -85.523
 -85.5225
 -85.5198
 -85.5215
 -85.4216
 -85.4197
 -85.4176
 -85.4214
 -85.4615
 -85.4588
 -85.4614
 -85.4595
 -85.5148
 -85.512
 -85.5145
 -85.5131
 -85.4489
 -85.4463
 -85.4466
 -85.4513
 -85.4207
 -85.4239
 -85.3848
 -85.3865
 -85.3873
 -85.3842
 -85.4556
 -85.4544
 -85.4515
 -85.4501
 -85.5156
 -85.5145
 -85.5149
 -85.5181
 -85.5364
 -85.5346
 -85.5351
 -85.5367
 -85.2979
 -85.2962
 -85.4423
 -85.4461
 -85.4467
 -85.4485
 -85.4373
 -85.4317
 -85.4352
 -85.4354
 -85.4339
 -85.4329
 -85.412
 -85.4134
 -85.4135
 -85.4143
 -85.4553
 -85.4588
 -85.4604
 -85.3644
 -85.3675
 -85.3678
 -85.3704
 -85.5236
 -85.5255
 -85.5216
 -85.5241
 -85.5357
 -85.5356
 -85.5353
 -85.5424
 -85.5413
 -85.5392
 -85.5408
 -85.4759
 -85.4812
 -85.4796
 -85.4799
 -85.4612
 -85.4659
 -85.4599
 -85.4639
 -85.5059
 -85.5102
 -85.5116
 -85.5093
 -85.487
 -85.4862
 -85.4896
 -85.4865
 -85.4821
 -85.4853
 -85.4834
 -85.4678
 -85.4682
 -85.4667
 -85.4713
 -85.4991
 -85.5054
 -85.503
 -85.4996
 -85.4492
 -85.4464
 -85.4485
 -85.4492
 -85.4634
 -85.4626
 -85.4668
 -85.4616
 -85.492
 -85.4912
 -85.4895
 -85.4922
 -85.4618
 -85.4598
 -85.4589
 -85.4625
 -85.2651
 -85.2624
 -85.2731
 -85.2721
 -85.4161
 -85.4146
 -85.4142
 -85.4122
 -85.4988
 -85.4985
 -85.5023
 -85.5027
 -85.4091
 -85.4093
 -85.4038
 -85.4025
 -85.3989
 -85.3936
 -85.3989
 -85.4025
 -85.5175
 -85.5168
 -85.5186
 -85.5149
 -85.5136
 -85.5103
 -85.5133
 -85.5124
 -85.5251
 -85.5224
 -85.5246
 -85.5258
 -85.5032
 -85.5032
 -85.5061
 -85.5048
 -85.4425
 -85.4415
 -85.4391
 -85.4415
 -85.4173
 -85.4158
 -85.4189
 -85.4152
 -85.4932
 -85.4883
 -85.4936
 -85.4894
 -85.4187
 -85.42
 -85.4204
 -85.4202
 -85.388
 -85.3891
 -85.3901
 -85.3914
 -85.4591
 -85.462
 -85.4594
 -85.462
 -85.4353
 -85.4327
 -85.4303
 -85.4375
 -85.4391
 -85.4439
 -85.4404
 -85.3877
 -85.3851
 -85.3817
 -85.385
 -85.4209
 -85.4202
 -85.4191
 -85.4194
 -85.4973
 -85.4992
 -85.4975
 -85.4985
 -85.4659
 -85.4689
 -85.4698
 -85.544
 -85.5419
 -85.5423
 -85.5433
 -85.53
 -85.5325
 -85.5341
 -85.5316
 -85.4331
 -85.4362
 -85.4315
 -85.4359
 -85.472
 -85.4747
 -85.392
 -85.3915
 -85.3866
 -85.3936
 -85.4657
 -85.4621
 -85.4608
 -85.4639
 -85.5243
 -85.5251
 -85.5225
 -85.5248
 -85.417
 -85.418
 -85.419
 -85.4453
 -85.4464
 -85.447
 -85.442
 -85.4344
 -85.439
 -85.4389
 -85.4382
 -85.4593
 -85.4626
 -85.4634
 -85.4591
 -85.4526
 -85.4548
 -85.4574
 -85.4543
 -85.464
 -85.4659
 -85.4632
 -85.467
 -85.4491
 -85.452
 -85.5087
 -85.5065
 -85.5112
 -85.508
 -85.4514
 -85.4481
 -85.4493
 -85.4516
 -85.4814
 -85.4768
 -85.4791
 -85.4505
 -85.454
 -85.4516
 -85.4537
 -85.4833
 -85.4814
 -85.4796
 -85.4819
 -85.4106
 -85.407
 -85.4097
 -85.4048
 -85.451
 -85.4503
 -85.4546
 -85.4735
 -85.4743
 -85.4781
 -85.4715
 -85.4574
 -85.4564
 -85.4589
 -85.4099
 -85.4108
 -85.408
 -85.4852
 -85.4845
 -85.4841
 -85.4807
 -85.4588
 -85.4615
 -85.4621
 -85.3099
 -85.3122
 -85.3138
 -85.3043
 -85.4866
 -85.484
 -85.4823
 -85.4871
 -85.4378
 -85.4341
 -85.4347
 -85.4332
 -85.5144
 -85.5144
 -85.5155
 -85.5167
 -85.5212
 -85.5189
 -85.5226
 -85.5218
 -85.3978
 -85.4035
 -85.3963
 -85.3974
 -85.472
 -85.4696
 -85.4673
 -85.4254
 -85.4214
 -85.4244
 -85.4241
 -85.52
 -85.5159
 -85.5183
 -85.4644
 -85.4677
 -85.4655
 -85.4684
 -85.4957
 -85.497
 -85.4968
 -85.4958
 -85.5286
 -85.5292
 -85.5306
 -85.5284
 -85.2273
 -85.2225
 -85.2232
 -85.2268
 -85.4254
 -85.4264
 -85.4285
 -85.4249
 -85.4694
 -85.4757
 -85.4734
 -85.4748
 -85.3803
 -85.3771
 -85.375
 -85.4585
 -85.4615
 -85.4609
 -85.4576
 -85.532
 -85.49
 -85.4873
 -85.4835
 -85.4873
 -85.5181
 -85.5181
 -85.5184
 -85.5196
 -85.5055
 -85.5047
 -85.5039
 -85.5067
 -85.472
 -85.4707
 -85.465
 -85.4609
 -85.4613
 -85.4609
 -85.3132
 -85.3202
 -85.3136
 -85.3169
 -85.4322
 -85.4309
 -85.4293
 -85.4264
 -85.426
 -85.4288
 -85.4268
 -85.5335
 -85.5369
 -85.534
 -85.5333
 -85.4595
 -85.4594
 -85.4628
 -85.4632
 -85.4711
 -85.4696
 -85.4666
 -85.4691
 -85.5211
 -85.5189
 -85.5226
 -85.5192
 -85.4625
 -85.4614
 -85.4659
 -85.4628
 -85.3596
 -85.3605
 -85.3555
 -85.3573
 -85.4559
 -85.4548
 -85.4573
 -85.4557
 -85.4239
 -85.4243
 -85.4249
 -85.4271
 -85.416
 -85.4131
 -85.4133
 -85.4148
 -85.3941
 -85.3954
 -85.3939
 -85.3936
 -85.3498
 -85.3479
 -85.3461
 -85.3533
 -85.5411
 -85.5395
 -85.5401
 -85.5396
 -85.3302
 -85.3322
 -85.3256
 -85.3334
 -85.4601
 -85.4576
 -85.46
 -85.457
 -85.5389
 -85.5391
 -85.5372
 -85.5379
 -85.4423
 -85.441
 -85.4435
 -85.4442
 -85.3933
 -85.5268
 -85.5255
 -85.526
 -85.5291
 -85.4085
 -85.3572
 -85.3636
 -85.3637
 -85.3574
 -85.4764
 -85.4809
 -85.5075
 -85.5039
 -85.5088
 -85.5049
 -85.5167
 -85.5167
 -85.5186
 -85.518
 -85.5436
 -85.5416
 -85.5442
 -85.5089
 -85.5127
 -85.5121
 -85.5115
 -85.4431
 -85.5358
 -85.4934
 -85.4928
 -85.4915
 -85.5355
 -85.5369
 -85.5373
 -85.5364
 -85.4454
 -85.4446
 -85.4451
 -85.4422
 -85.4227
 -85.4241
 -85.4204
 -85.4194
 -85.4897
 -85.4874
 -85.4886
 -85.4934
 -85.5327
 -85.5342
 -85.5317
 -85.5311
 -85.5245
 -85.5237
 -85.5249
 -85.5235
 -85.4811
 -85.4866
 -85.486
 -85.3427
 -85.3384
 -85.3508
 -85.3419
 -85.2381
 -85.2486
 -85.2427
 -85.2463
 -85.3797
 -85.374
 -85.3723
 -85.3759
 -85.4674
 -85.4706
 -85.4669
 -85.363
 -85.367
 -85.3654
 -85.3626
 -85.5108
 -85.51
 -85.5134
 -85.5136
 -85.514
 -85.5123
 -85.5136
 -85.4084
 -85.4068
 -85.4957
 -85.4973
 -85.5492
 -85.5481
 -85.5491
 -85.5412
 -85.5422
 -85.5418
 -85.5427
 -85.4495
 -85.4467
 -85.4518
 -85.4495
 -85.4307
 -85.43
 -85.4282
 -85.4326
 -85.4572
 -85.4567
 -85.4605
 -85.4589
 -85.5384
 -85.5383
 -85.5389
 -85.5383
 -85.4966
 -85.4985
 -85.4975
 -85.4954
 -85.392
 -85.3914
 -85.3917
 -85.3941
 -85.4968
 -85.4982
 -85.4958
 -85.499
 -85.4737
 -85.4745
 -85.4709
 -85.4752
 -85.4915
 -85.4938
 -85.4935
 -85.2143
 -85.2156
 -85.2166
 -85.4286
 -85.4262
 -85.4455
 -85.4454
 -85.4427
 -85.4477
 -85.5062
 -85.5095
 -85.5068
 -85.5062
 -85.4973
 -85.4982
 -85.5019
 -85.4997
 -85.4996
 -85.4981
 -85.5033
 -85.3183
 -85.3185
 -85.391
 -85.3903
 -85.3924
 -85.3913
 -85.4735
 -85.3157
 -85.309
 -85.3113
 -85.3122
 -85.4224
 -85.4266
 -85.4239
 -85.4231
 -85.4507
 -85.4488
 -85.3523
 -85.3617
 -85.3611
 -85.3559
 -85.541
 -85.5432
 -85.5426
 -85.5414
 -85.5317
 -85.5327
 -85.5316
 -85.5346
 -85.4039
 -85.4113
 -85.4054
 -85.4091
 -85.4274
 -85.4253
 -85.4324
 -85.4311
 -85.4296
 -85.4278
 -85.4297
 -85.5023
 -85.5043
 -85.4998
 -85.5023
 -85.3917
 -85.3953
 -85.3969
 -85.3973
 -85.4571
 -85.4579
 -85.4566
 -85.4863
 -85.4874
 -85.4886
 -85.4915
 -85.4274
 -85.4283
 -85.4304
 -85.429
 -85.4129
 -85.4163
 -85.4189
 -85.4149
 -85.4167
 -85.4144
 -85.4151
 -85.418
 -85.441
 -85.4422
 -85.4458
 -85.4426
 -85.4858
 -85.4835
 -85.4232
 -85.4237
 -85.4245
 -85.4214
 -85.5426
 -85.539
 -85.5397
 -85.5398
 -85.4113
 -85.4134
 -85.4117
 -85.4139
 -85.3747
 -85.373
 -85.3774
 -85.3759
 -85.4742
 -85.4741
 -85.3408
 -85.3409
 -85.337
 -85.3419
 -85.4343
 -85.4373
 -85.4327
 -85.5337
 -85.5332
 -85.5349
 -85.5349
 -85.3478
 -85.3447
 -85.3464
 -85.4141
 -85.4135
 -85.4166
 -85.4153
 -85.3516
 -85.411
 -85.4093
 -85.4101
 -85.4066
 -85.4624
 -85.4599
 -85.463
 -85.4624
 -85.4455
 -85.4464
 -85.4484
 -85.4453
 -85.5361
 -85.5386
 -85.4686
 -85.4707
 -85.4698
 -85.4685
 -85.4062
 -85.4011
 -85.4072
 -85.4006
 -85.4308
 -85.4379
 -85.434
 -85.4315
 -85.5255
 -85.524
 -85.524
 -85.5244
 -85.4472
 -85.4492
 -85.4524
 -85.4508
 -85.4753
 -85.5156
 -85.5168
 -85.5143
 -85.4314
 -85.4325
 -85.4286
 -85.4335
 -85.4959
 -85.4947
 -85.496
 -85.493
 -85.4362
 -85.4328
 -85.4339
 -85.4373
 -85.5349
 -85.5329
 -85.5319
 -85.534
 -85.5477
 -85.5484
 -85.5471
 -85.4151
 -85.4169
 -85.4203
 -85.4183
 -85.4827
 -85.4839
 -85.4799
 -85.4816
 -85.4928
 -85.4939
 -85.4958
 -85.4971
 -85.425
 -85.4257
 -85.4114
 -85.4098
 -85.4086
 -85.4127
 -85.4402
 -85.4462
 -85.477
 -85.4784
 -85.4766
 -85.4754
 -85.4845
 -85.4857
 -85.4885
 -85.4844
 -85.4419
 -85.4444
 -85.4472
 -85.445
 -85.4733
 -85.4735
 -85.4738
 -85.5209
 -85.5179
 -85.5168
 -85.5185
 -85.5064
 -85.5053
 -85.507
 -85.4419
 -85.4464
 -85.4406
 -85.4446
 -85.4155
 -85.4104
 -85.4083
 -85.4142
 -85.4945
 -85.4904
 -85.4909
 -85.4931
 -85.4474
 -85.4468
 -85.4426
 -85.3989
 -85.3985
 -85.3989
 -85.3986
 -85.4272
 -85.4269
 -85.4284
 -85.4296
 -85.5107
 -85.5091
 -85.5077
 -85.5429
 -85.5405
 -85.541
 -85.4911
 -85.4928
 -85.4931
 -85.4271
 -85.4237
 -85.4284
 -85.4255
 -85.5425
 -85.5429
 -85.5425
 -85.5436
 -85.4872
 -85.4851
 -85.4867
 -85.4891
 -85.5149
 -85.5161
 -85.5196
 -85.5193
 -85.5116
 -85.5133
 -85.5119
 -85.5122
 -85.3698
 -85.3641
 -85.3656
 -85.4404
 -85.4414
 -85.4389
 -85.4417
 -85.5157
 -85.5168
 -85.5143
 -85.5145
 -85.4528
 -85.4543
 -85.4543
 -85.458
 -85.4971
 -85.4974
 -85.4969
 -85.4936
 -85.5272
 -85.5291
 -85.3911
 -85.3935
 -85.3933
 -85.3949
 -85.5046
 -85.5025
 -85.5072
 -85.5036
 -85.4426
 -85.4415
 -85.4401
 -85.4438
 -85.4925
 -85.4881
 -85.539
 -85.539
 -85.5368
 -85.5396
 -85.5143
 -85.5179
 -85.513
 -85.5191
 -85.5434
 -85.5439
 -85.5457
 -85.5461
 -85.5027
 -85.5026
 -85.5042
 -85.4925
 -85.4969
 -85.4963
 -85.4948
 -85.4952
 -85.493
 -85.4943
 -85.4908
 -85.4212
 -85.4221
 -85.4193
 -85.4181
 -85.3609
 -85.3588
 -85.3643
 -85.4601
 -85.46
 -85.4606
 -85.5205
 -85.5176
 -85.5193
 -85.517
 -85.4436
 -85.446
 -85.4492
 -85.4463
 -85.4085
 -85.4035
 -85.4051
 -85.4091
 -85.4627
 -85.4591
 -85.4574
 -85.4575
 -85.4344
 -85.4397
 -85.4347
 -85.5399
 -85.5407
 -85.5379
 -85.5376
 -85.3944
 -85.3953
 -85.4074
 -85.4094
 -85.4096
 -85.4988
 -85.4998
 -85.4967
 -85.5021
 -85.4577
 -85.4622
 -85.4615
 -85.4609
 -85.4029
 -85.4035
 -85.4063
 -85.4035
 -85.4707
 -85.4642
 -85.465
 -85.4683
 -85.4334
 -85.4306
 -85.4351
 -85.4355
 -85.5246
 -85.5258
 -85.5295
 -85.4279
 -85.4277
 -85.4303
 -85.4301
 -85.4704
 -85.473
 -85.4
 -85.4041
 -85.4026
 -85.4006
 -85.4057
 -85.4025
 -85.4042
 -85.4027
 -85.5273
 -85.526
 -85.4123
 -85.4154
 -85.4137
 -85.4103
 -85.4641
 -85.4609
 -85.4623
 -85.4644
 -85.4385
 -85.3724
 -85.368
 -85.3695
 -85.4747
 -85.4738
 -85.4744
 -85.4717
 -85.5297
 -85.5299
 -85.5284
 -85.531
 -85.3694
 -85.3718
 -85.3722
 -85.3673
 -85.409
 -85.4113
 -85.4081
 -85.4089
 -85.4905
 -85.492
 -85.4922
 -85.3756
 -85.375
 -85.3787
 -85.3792
 -85.543
 -85.541
 -85.5419
 -85.5434
 -85.3908
 -85.3927
 -85.3935
 -85.3893
 -85.4873
 -85.484
 -85.4863
 -85.4892
 -85.4405
 -85.4435
 -85.4421
 -85.4399
 -85.4033
 -85.4045
 -85.4031
 -85.4339
 -85.4379
 -85.4337
 -85.437
 -85.4039
 -85.4011
 -85.4029
 -85.4029
 -85.4097
 -85.4071
 -85.4083
 -85.5063
 -85.5034
 -85.507
 -85.5018
 -85.499
 -85.4552
 -85.4626
 -85.4577
 -85.4579
 -85.5339
 -85.5329
 -85.5314
 -85.5328
 -85.4759
 -85.4799
 -85.474
 -85.4788
 -85.4861
 -85.4885
 -85.4859
 -85.4851
 -85.408
 -85.4067
 -85.41
 -85.4123
 -85.4107
 -85.486
 -85.4824
 -85.4846
 -85.4872
 -85.5317
 -85.5349
 -85.4668
 -85.4679
 -85.4642
 -85.4684
 -85.4026
 -85.402
 -85.4041
 -85.5241
 -85.5262
 -85.5235
 -85.5246
 -85.4678
 -85.4629
 -85.4648
 -85.4657
 -85.4072
 -85.4057
 -85.4075
 -85.4086
 -85.4572
 -85.4569
 -85.462
 -85.4583
 -85.4836
 -85.4894
 -85.3859
 -85.3843
 -85.3851
 -85.3835
 -85.4089
 -85.4158
 -85.4177
 -85.4161
 -85.419
 -85.4179
 -85.4163
 -85.4114
 -85.4124
 -85.4151
 -85.4657
 -85.4648
 -85.4644
 -85.4797
 -85.4783
 -85.4769
 -85.4753
 -85.4215
 -85.4209
 -85.4218
 -85.4212
 -85.4433
 -85.4421
 -85.4716
 -85.4694
 -85.4709
 -85.4688
 -85.4723
 -85.4722
 -85.4578
 -85.461
 -85.462
 -85.4582
 -85.3345
 -85.3426
 -85.3413
 -85.3436
 -85.4704
 -85.4039
 -85.4065
 -85.4046
 -85.404
 -85.5392
 -85.5409
 -85.5389
 -85.5
 -85.4992
 -85.4969
 -85.5003
 -85.4551
 -85.4565
 -85.455
 -85.4499
 -85.4677
 -85.4702
 -85.4659
 -85.4141
 -85.4167
 -85.4157
 -85.4138
 -85.5255
 -85.5276
 -85.5232
 -85.5262
 -85.4883
 -85.4871
 -85.4897
 -85.4885
 -85.5258
 -85.5269
 -85.5227
 -85.5251
 -85.3897
 -85.3894
 -85.3869
 -85.3872
 -85.4193
 -85.4222
 -85.5055
 -85.5042
 -85.5028
 -85.5048
 -85.5317
 -85.5313
 -85.5319
 -85.5307
 -85.5479
 -85.5487
 -85.547
 -85.549
 -85.5286
 -85.5265
 -85.5284
 -85.4853
 -85.4887
 -85.4848
 -85.4873
 -85.5303
 -85.5315
 -85.5318
 -85.5315
 -85.3927
 -85.3957
 -85.3986
 -85.3951
 -85.516
 -85.5185
 -85.5188
 -85.487
 -85.486
 -85.4851
 -85.4849
 -85.4033
 -85.402
 -85.4032
 -85.4014
 -85.491
 -85.4945
 -85.4925
 -85.4927
 -85.4766
 -85.4792
 -85.4805
 -85.4768
 -85.4216
 -85.423
 -85.4259
 -85.428
 -85.389
 -85.3896
 -85.3857
 -85.3859
 -85.4467
 -85.4479
 -85.451
 -85.4475
 -85.3219
 -85.3217
 -85.332
 -85.3253
 -85.407
 -85.4094
 -85.4066
 -85.415
 -85.4111
 -85.4109
 -85.4099
 -85.2935
 -85.2941
 -85.2874
 -85.2982
 -85.524
 -85.5222
 -85.5226
 -85.512
 -85.5124
 -85.5151
 -85.5146
 -85.4173
 -85.4234
 -85.4215
 -85.3638
 -85.366
 -85.3633
 -85.3863
 -85.3836
 -85.3869
 -85.3873
 -85.4214
 -85.421
 -85.4237
 -85.4186
 -85.4874
 -85.4925
 -85.4902
 -85.4895
 -85.3371
 -85.3354
 -85.3382
 -85.3326
 -85.48
 -85.4745
 -85.4743
 -85.4791
 -85.511
 -85.5124
 -85.5086
 -85.5109
 -85.4729
 -85.4726
 -85.4781
 -85.4755
 -85.4505
 -85.4475
 -85.4527
 -85.4057
 -85.4055
 -85.4056
 -85.4074
 -85.527
 -85.5289
 -85.5297
 -85.5286
 -85.5166
 -85.5185
 -85.5163
 -85.5146
 -85.4202
 -85.4231
 -85.4212
 -85.4185
 -85.5325
 -85.5338
 -85.5351
 -85.5311
 -85.5347
 -85.5323
 -85.5324
 -85.5345
 -85.5347
 -85.5326
 -85.5335
 -85.3536
 -85.3525
 -85.2952
 -85.2975
 -85.294
 -85.3015
 -85.4821
 -85.4806
 -85.4782
 -85.456
 -85.4537
 -85.4591
 -85.4543
 -85.4638
 -85.4678
 -85.4665
 -85.4642
 -85.2192
 -85.4449
 -85.4785
 -85.4819
 -85.5163
 -85.5178
 -85.5172
 -85.5169
 -85.3643
 -85.4349
 -85.438
 -85.4348
 -85.5498
 -85.5489
 -85.549
 -85.5489
 -85.4644
 -85.4619
 -85.4646
 -85.4677
 -85.5343
 -85.5329
 -85.5348
 -85.5321
 -85.4491
 -85.4533
 -85.4458
 -85.4391
 -85.4435
 -85.4407
 -85.5253
 -85.5256
 -85.5229
 -85.5257
 -85.4804
 -85.4781
 -85.4757
 -85.4745
 -85.3945
 -85.392
 -85.3966
 -85.3958
 -85.5129
 -85.5179
 -85.5161
 -85.5352
 -85.5384
 -85.5385
 -85.5352
 -85.5142
 -85.5133
 -85.5115
 -85.5133
 -85.4182
 -85.418
 -85.4247
 -85.4177
 -85.4272
 -85.4247
 -85.4252
 -85.4252
 -85.5256
 -85.5273
 -85.5272
 -85.5273
 -85.4438
 -85.4445
 -85.4407
 -85.5075
 -85.5075
 -85.5067
 -85.5049
 -85.3997
 -85.4032
 -85.398
 -85.3988
 -85.484
 -85.4857
 -85.4811
 -85.483
 -85.399
 -85.4017
 -85.3992
 -85.3989
 -85.4706
 -85.4726
 -85.4694
 -85.4718
 -85.5105
 -85.5104
 -85.513
 -85.5086
 -85.3914
 -85.3903
 -85.393
 -85.4658
 -85.469
 -85.5206
 -85.5194
 -85.5189
 -85.5172
 -85.4431
 -85.4407
 -85.4403
 -85.3946
 -85.3921
 -85.3909
 -85.3923
 -85.4936
 -85.4948
 -85.4934
 -85.4959
 -85.4841
 -85.4837
 -85.489
 -85.4851
 -85.2525
 -85.2534
 -85.2619
 -85.2546
 -85.4625
 -85.4582
 -85.4606
 -85.321
 -85.3261
 -85.328
 -85.4639
 -85.4623
 -85.4599
 -85.4627
 -85.4588
 -85.3879
 -85.3897
 -85.3827
 -85.3857
 -85.4504
 -85.4544
 -85.4549
 -85.5165
 -85.5165
 -85.5166
 -85.5152
 -85.4539
 -85.4557
 -85.4579
 -85.4579
 -85.4592
 -85.4582
 -85.4579
 -85.5468
 -85.5462
 -85.5456
 -85.5444
 -85.4103
 -85.4178
 -85.4162
 -85.4141
 -85.3846
 -85.3846
 -85.3864
 -85.3864
 -85.4372
 -85.4363
 -85.4414
 -85.4376
 -85.5219
 -85.5225
 -85.5234
 -85.5198
 -85.2481
 -85.2551
 -85.2469
 -85.2579
 -85.5078
 -85.5044
 -85.5063
 -85.5064
 -85.3822
 -85.3797
 -85.3824
 -85.3814
 -85.5161
 -85.5097
 -85.5117
 -85.5147
 -85.505
 -85.5033
 -85.5016
 -85.5036
 -85.508
 -85.5092
 -85.4203
 -85.4177
 -85.4173
 -85.4196
 -85.5281
 -85.5286
 -85.5284
 -85.5023
 -85.4981
 -85.4996
 -85.503
 -85.4143
 -85.4177
 -85.4154
 -85.4124
 -85.4336
 -85.4323
 -85.4366
 -85.2148
 -85.2151
 -85.2122
 -85.2146
 -85.4574
 -85.4533
 -85.4585
 -85.5287
 -85.5306
 -85.528
 -85.5274
 -85.5098
 -85.5076
 -85.5234
 -85.5264
 -85.5278
 -85.5249
 -85.4968
 -85.4972
 -85.3748
 -85.3749
 -85.3707
 -85.3777
 -85.5071
 -85.5069
 -85.5071
 -85.504
 -85.4635
 -85.4653
 -85.4334
 -85.4355
 -85.4342
 -85.4332
 -85.5144
 -85.5161
 -85.5165
 -85.5159
 -85.4218
 -85.4156
 -85.4163
 -85.4208
 -85.5261
 -85.5261
 -85.5286
 -85.5314
 -85.4758
 -85.4765
 -85.4728
 -85.3756
 -85.374
 -85.373
 -85.3753
 -85.487
 -85.4867
 -85.4855
 -85.4833
 -85.4104
 -85.4066
 -85.4062
 -85.404
 -85.4153
 -85.4103
 -85.4138
 -85.2396
 -85.238
 -85.2407
 -85.2443
 -85.3888
 -85.3934
 -85.3946
 -85.3902
 -85.5093
 -85.508
 -85.5109
 -85.5078
 -85.4593
 -85.4608
 -85.4566
 -85.4379
 -85.4047
 -85.4067
 -85.4054
 -85.4072
 -85.4444
 -85.4411
 -85.4438
 -85.4454
 -85.4988
 -85.5037
 -85.5041
 -85.4997
 -85.3985
 -85.3988
 -85.4055
 -85.3656
 -85.4747
 -85.4761
 -85.4722
 -85.4778
 -85.406
 -85.4103
 -85.3075
 -85.3014
 -85.4033
 -85.4062
 -85.4036
 -85.3997
 -85.4979
 -85.5004
 -85.5205
 -85.5202
 -85.5211
 -85.5198
 -85.4334
 -85.4367
 -85.4367
 -85.4368
 -85.537
 -85.5377
 -85.5391
 -85.5378
 -85.4295
 -85.4305
 -85.4231
 -85.423
 -85.5063
 -85.5068
 -85.5045
 -85.5017
 -85.416
 -85.4162
 -85.418
 -85.4177
 -85.5058
 -85.5073
 -85.5035
 -85.5059
 -85.444
 -85.4482
 -85.5308
 -85.5298
 -85.4951
 -85.4978
 -85.4943
 -85.4983
 -85.4927
 -85.4915
 -85.4919
 -85.4956
 -85.4698
 -85.4681
 -85.4712
 -85.4708
 -85.5049
 -85.5017
 -85.5061
 -85.5078
 -85.4142
 -85.4109
 -85.4127
 -85.4124
 -85.5293
 -85.5286
 -85.5284
 -85.5317
 -85.5332
 -85.531
 -85.5324
 -85.399
 -85.4028
 -85.4027
 -85.4009
 -85.4956
 -85.4919
 -85.4925
 -85.4941
 -85.393
 -85.3976
 -85.3976
 -85.4016
 -85.4673
 -85.4539
 -85.459
 -85.459
 -85.4545
 -85.5149
 -85.515
 -85.5147
 -85.5119
 -85.3286
 -85.3233
 -85.3262
 -85.3325
 -85.4939
 -85.4958
 -85.4979
 -85.4951
 -85.462
 -85.4654
 -85.4581
 -85.4611
 -85.5023
 -85.4998
 -85.4994
 -85.499
 -85.4874
 -85.5468
 -85.5463
 -85.5439
 -85.5449
 -85.5085
 -85.5092
 -85.5053
 -85.5059
 -85.3011
 -85.303
 -85.3078
 -85.3008
 -85.4447
 -85.441
 -85.4393
 -85.4423
 -85.4249
 -85.4646
 -85.4651
 -85.4659
 -85.4689
 -85.5254
 -85.5256
 -85.523
 -85.5218
 -85.5171
 -85.5165
 -85.5199
 -85.5247
 -85.5198
 -85.5221
 -85.521
 -85.2489
 -85.2508
 -85.5051
 -85.5039
 -85.5035
 -85.4214
 -85.4212
 -85.4202
 -85.4244
 -85.4991
 -85.4975
 -85.499
 -85.4962
 -85.4696
 -85.4938
 -85.4904
 -85.4939
 -85.493
 -85.5305
 -85.5258
 -85.5274
 -85.5302
 -85.4923
 -85.4947
 -85.4981
 -85.493
 -85.4426
 -85.4441
 -85.4385
 -85.4469
 -85.4027
 -85.4033
 -85.4017
 -85.4038
 -85.5441
 -85.5418
 -85.5443
 -85.5436
 -85.4996
 -85.4985
 -85.5005
 -85.4971
 -85.542
 -85.5412
 -85.5416
 -85.5429
 -85.4223
 -85.4167
 -85.4224
 -85.4232
 -85.4675
 -85.4658
 -85.5302
 -85.5336
 -85.5302
 -85.5318
 -85.4687
 -85.4693
 -85.4692
 -85.4728
 -85.4567
 -85.4601
 -85.4684
 -85.4691
 -85.4722
 -85.4682
 -85.5189
 -85.5189
 -85.5178
 -85.5211
 -85.4324
 -85.4279
 -85.426
 -85.4299
 -85.3662
 -85.3696
 -85.3663
 -85.3659
 -85.3941
 -85.3923
 -85.3926
 -85.392
 -85.4278
 -85.4304
 -85.4309
 -85.4274
 -85.4462
 -85.4413
 -85.4445
 -85.4531
 -85.448
 -85.4509
 -85.4517
 -85.4653
 -85.4636
 -85.4619
 -85.4652
 -85.3656
 -85.3658
 -85.3673
 -85.4404
 -85.4371
 -85.442
 -85.4409
 -85.4713
 -85.4745
 -85.4742
 -85.4699
 -85.417
 -85.4123
 -85.418
 -85.4128
 -85.4306
 -85.4333
 -85.4331
 -85.4325
 -85.4744
 -85.4742
 -85.4767
 -85.4791
 -85.4636
 -85.4603
 -85.463
 -85.4623
 -85.4958
 -85.4942
 -85.495
 -85.4936
 -85.3906
 -85.3918
 -85.3929
 -85.5133
 -85.5115
 -85.5151
 -85.5124
 -85.4179
 -85.4217
 -85.4184
 -85.416
 -85.4474
 -85.446
 -85.4439
 -85.4488
 -85.4534
 -85.4568
 -85.4575
 -85.4803
 -85.4804
 -85.4816
 -85.484
 -85.4911
 -85.4911
 -85.4935
 -85.4894
 -85.4945
 -85.496
 -85.4981
 -85.5199
 -85.5206
 -85.5212
 -85.4912
 -85.4897
 -85.4874
 -85.4891
 -85.5199
 -85.5211
 -85.5179
 -85.5281
 -85.5282
 -85.5278
 -85.5258
 -85.4548
 -85.4481
 -85.4524
 -85.45
 -85.4228
 -85.4203
 -85.4246
 -85.4214
 -85.411
 -85.5196
 -85.5186
 -85.5228
 -85.5182
 -85.5204
 -85.5154
 -85.2328
 -85.2298
 -85.2333
 -85.238
 -85.5063
 -85.5038
 -85.4458
 -85.4445
 -85.4487
 -85.5415
 -85.5432
 -85.4816
 -85.4769
 -85.4784
 -85.4795
 -85.4438
 -85.4457
 -85.4458
 -85.5073
 -85.5126
 -85.5101
 -85.5114
 -85.4257
 -85.4269
 -85.4243
 -85.4289
 -85.2817
 -85.2874
 -85.2859
 -85.2787
 -85.4778
 -85.4783
 -85.4774
 -85.4811
 -85.5166
 -85.5217
 -85.5172
 -85.5109
 -85.5101
 -85.5113
 -85.509
 -85.4147
 -85.4099
 -85.4098
 -85.4077
 -85.4206
 -85.4233
 -85.3988
 -85.4023
 -85.3974
 -85.5406
 -85.5386
 -85.5146
 -85.5114
 -85.5147
 -85.5114
 -85.4666
 -85.4709
 -85.4697
 -85.5054
 -85.5021
 -85.5082
 -85.5074
 -85.4175
 -85.4109
 -85.4122
 -85.4153
 -85.46
 -85.4594
 -85.4631
 -85.4639
 -85.4589
 -85.4613
 -85.4622
 -85.4592
 -85.4096
 -85.4113
 -85.4084
 -85.4223
 -85.4197
 -85.4219
 -85.4211
 -85.5476
 -85.5488
 -85.548
 -85.5496
 -85.3806
 -85.3747
 -85.5266
 -85.5285
 -85.528
 -85.5264
 -85.45
 -85.4536
 -85.452
 -85.4499
 -85.4722
 -85.4746
 -85.4745
 -85.4752
 -85.3937
 -85.3959
 -85.4632
 -85.4607
 -85.4606
 -85.4582
 -85.4468
 -85.4451
 -85.4441
 -85.448
 -85.5169
 -85.5166
 -85.5156
 -85.5174
 -85.4539
 -85.4572
 -85.4575
 -85.453
 -85.424
 -85.4245
 -85.485
 -85.4851
 -85.4831
 -85.4856
 -85.499
 -85.4983
 -85.5008
 -85.4673
 -85.471
 -85.4696
 -85.4718
 -85.4062
 -85.4087
 -85.4051
 -85.4105
 -85.2815
 -85.2897
 -85.288
 -85.2799
 -85.4565
 -85.4548
 -85.4585
 -85.4619
 -85.4748
 -85.4787
 -85.4751
 -85.4753
 -85.4425
 -85.4447
 -85.4405
 -85.4413
 -85.4256
 -85.4234
 -85.4264
 -85.4282
 -85.518
 -85.5201
 -85.4847
 -85.483
 -85.4813
 -85.3397
 -85.3373
 -85.334
 -85.3412
 -85.4128
 -85.4098
 -85.4138
 -85.4078
 -85.4686
 -85.4691
 -85.4677
 -85.4658
 -85.5181
 -85.5191
 -85.5188
 -85.45
 -85.4481
 -85.444
 -85.444
 -85.4209
 -85.4259
 -85.4239
 -85.4207
 -85.5022
 -85.4982
 -85.4982
 -85.5002
 -85.4799
 -85.4789
 -85.4775
 -85.4777
 -85.51
 -85.5105
 -85.5101
 -85.5082
 -85.5084
 -85.5089
 -85.5082
 -85.4385
 -85.4398
 -85.4363
 -85.4351
 -85.454
 -85.452
 -85.4554
 -85.299
 -85.3008
 -85.3006
 -85.296
 -85.4242
 -85.4245
 -85.3777
 -85.3747
 -85.3795
 -85.3824
 -85.409
 -85.3962
 -85.5228
 -85.4256
 -85.4219
 -85.4243
 -85.4204
 -85.5442
 -85.4844
 -85.4821
 -85.4841
 -85.4801
 -85.424
 -85.4264
 -85.4248
 -85.4398
 -85.4434
 -85.4434
 -85.5126
 -85.5133
 -85.5096
 -85.513
 -85.5139
 -85.5124
 -85.5142
 -85.5121
 -85.402
 -85.3968
 -85.3969
 -85.4003
 -85.5335
 -85.5337
 -85.5353
 -85.5322
 -85.46
 -85.4572
 -85.4536
 -85.5128
 -85.5144
 -85.5139
 -85.4726
 -85.4692
 -85.4705
 -85.4732
 -85.4258
 -85.4279
 -85.4237
 -85.4247
 -85.475
 -85.4798
 -85.4747
 -85.431
 -85.4329
 -85.4327
 -85.429
 -85.4498
 -85.4547
 -85.515
 -85.5172
 -85.5178
 -85.5201
 -85.523
 -85.5262
 -85.5243
 -85.5236
 -85.4066
 -85.4106
 -85.4056
 -85.4098
 -85.4989
 -85.4947
 -85.4973
 -85.5001
 -85.4817
 -85.4768
 -85.4805
 -85.4836
 -85.4439
 -85.4404
 -85.4458
 -85.4428
 -85.5197
 -85.5181
 -85.5173
 -85.5156
 -85.4512
 -85.4473
 -85.4535
 -85.4514
 -85.461
 -85.4591
 -85.4588
 -85.4642
 -85.4497
 -85.4472
 -85.4504
 -85.451
 -85.4132
 -85.4176
 -85.402
 -85.4048
 -85.4075
 -85.4025
 -85.3689
 -85.3625
 -85.3683
 -85.3697
 -85.4829
 -85.4825
 -85.4813
 -85.4854
 -85.4759
 -85.4732
 -85.4725
 -85.5366
 -85.537
 -85.5371
 -85.5369
 -85.5397
 -85.5412
 -85.5388
 -85.5266
 -85.5279
 -85.5244
 -85.4735
 -85.4775
 -85.4795
 -85.4746
 -85.4938
 -85.4954
 -85.4971
 -85.4918
 -85.5149
 -85.5172
 -85.5158
 -85.5177
 -85.428
 -85.4242
 -85.4251
 -85.4273
 -85.3821
 -85.3851
 -85.3876
 -85.3874
 -85.5424
 -85.5431
 -85.5405
 -85.5444
 -85.4189
 -85.4177
 -85.4154
 -85.4193
 -85.4678
 -85.4675
 -85.4694
 -85.4667
 -85.5439
 -85.5438
 -85.5411
 -85.5457
 -85.4843
 -85.4808
 -85.4855
 -85.4842
 -85.4475
 -85.446
 -85.448
 -85.4462
 -85.4212
 -85.4182
 -85.4189
 -85.396
 -85.4004
 -85.3977
 -85.3954
 -85.4101
 -85.4091
 -85.4109
 -85.4086
 -85.4041
 -85.4039
 -85.4158
 -85.4183
 -85.4112
 -85.5085
 -85.5064
 -85.5061
 -85.5056
 -85.5344
 -85.5334
 -85.5336
 -85.5335
 -85.4909
 -85.4894
 -85.4911
 -85.4867
 -85.4518
 -85.5206
 -85.5218
 -85.5215
 -85.5195
 -85.4
 -85.4
 -85.3996
 -85.3993
 -85.5363
 -85.5374
 -85.536
 -85.5388
 -85.435
 -85.4328
 -85.438
 -85.4988
 -85.3959
 -85.3954
 -85.3921
 -85.4137
 -85.4111
 -85.4086
 -85.4149
 -85.4657
 -85.4653
 -85.4601
 -85.4642
 -85.5046
 -85.5045
 -85.5023
 -85.507
 -85.452
 -85.4982
 -85.4965
 -85.4963
 -85.4542
 -85.4538
 -85.4544
 -85.4582
 -85.4315
 -85.4324
 -85.4298
 -85.4294
 -85.4401
 -85.436
 -85.4389
 -85.4401
 -85.4995
 -85.4182
 -85.4191
 -85.4205
 -85.5073
 -85.5053
 -85.5085
 -85.5064
 -85.5193
 -85.5184
 -85.5218
 -85.5174
 -85.532
 -85.5333
 -85.5317
 -85.4294
 -85.4297
 -85.4272
 -85.4295
 -85.3869
 -85.3848
 -85.387
 -85.5121
 -85.512
 -85.5178
 -85.5167
 -85.5153
 -85.5152
 -85.4531
 -85.4546
 -85.4565
 -85.5383
 -85.538
 -85.5397
 -85.5379
 -85.5184
 -85.5178
 -85.519
 -85.5196
 -85.4872
 -85.4879
 -85.4896
 -85.4906
 -85.47
 -85.4711
 -85.4689
 -85.4659
 -85.4213
 -85.4211
 -85.4199
 -85.4226
 -85.5171
 -85.5172
 -85.5155
 -85.5191
 -85.432
 -85.4331
 -85.4283
 -85.4425
 -85.4455
 -85.4465
 -85.4469
 -85.5329
 -85.5321
 -85.5352
 -85.534
 -85.4964
 -85.4966
 -85.496
 -85.4944
 -85.54
 -85.5386
 -85.5365
 -85.5394
 -85.438
 -85.4404
 -85.442
 -85.4414
 -85.4683
 -85.4691
 -85.4656
 -85.4718
 -85.5246
 -85.5241
 -85.526
 -85.525
 -85.4646
 -85.4674
 -85.4628
 -85.4638
 -85.5402
 -85.5419
 -85.5403
 -85.4265
 -85.4248
 -85.4248
 -85.4254
 -85.476
 -85.476
 -85.4742
 -85.4725
 -85.4835
 -85.4865
 -85.4837
 -85.4845
 -85.4596
 -85.4578
 -85.4634
 -85.4591
 -85.5193
 -85.5194
 -85.5223
 -85.52
 -85.4576
 -85.4534
 -85.4559
 -85.455
 -85.4833
 -85.4824
 -85.4823
 -85.4809
 -85.3985
 -85.3985
 -85.3981
 -85.3986
 -85.5117
 -85.5121
 -85.5097
 -85.5082
 -85.3931
 -85.3929
 -85.3929
 -85.4218
 -85.4198
 -85.4199
 -85.4221
 -85.4037
 -85.406
 -85.4133
 -85.4071
 -85.5024
 -85.5017
 -85.5036
 -85.5054
 -85.4911
 -85.4951
 -85.4916
 -85.4926
 -85.4339
 -85.4303
 -85.4308
 -85.4284
 -85.5463
 -85.5452
 -85.5439
 -85.3022
 -85.3005
 -85.482
 -85.4842
 -85.48
 -85.4822
 -85.3517
 -85.345
 -85.3382
 -85.3433
 -85.4907
 -85.4917
 -85.4951
 -85.4931
 -85.4437
 -85.4339
 -85.432
 -85.4313
 -85.429
 -85.5065
 -85.5068
 -85.5075
 -85.5089
 -85.5263
 -85.5245
 -85.5277
 -85.5256
 -85.3984
 -85.3983
 -85.4976
 -85.4993
 -85.5038
 -85.499
 -85.4742
 -85.4679
 -85.4752
 -85.4717
 -85.4187
 -85.4185
 -85.4165
 -85.4238
 -85.4575
 -85.4537
 -85.4533
 -85.4574
 -85.5148
 -85.5117
 -85.5185
 -85.5355
 -85.5348
 -85.5349
 -85.5347
 -85.5427
 -85.5428
 -85.5436
 -85.4356
 -85.4337
 -85.4342
 -85.4368
 -85.5268
 -85.5255
 -85.5242
 -85.5241
 -85.4065
 -85.404
 -85.405
 -85.4054
 -85.4898
 -85.488
 -85.4901
 -85.4857
 -85.4743
 -85.4784
 -85.475
 -85.4751
 -85.535
 -85.5351
 -85.5348
 -85.5362
 -85.4949
 -85.4961
 -85.4943
 -85.4922
 -85.332
 -85.3285
 -85.3282
 -85.3327
 -85.4513
 -85.4453
 -85.4506
 -85.4472
 -85.4339
 -85.438
 -85.4386
 -85.4331
 -85.5036
 -85.5044
 -85.5017
 -85.5001
 -85.4101
 -85.4079
 -85.4071
 -85.4072
 -85.4801
 -85.4777
 -85.4773
 -85.4812
 -85.4277
 -85.426
 -85.4243
 -85.3781
 -85.376
 -85.3746
 -85.3747
 -85.4798
 -85.4832
 -85.4784
 -85.4876
 -85.4874
 -85.4858
 -85.418
 -85.4155
 -85.4129
 -85.4068
 -85.4066
 -85.408
 -85.4094
 -85.5253
 -85.2234
 -85.2269
 -85.2248
 -85.2195
 -85.5185
 -85.5171
 -85.5205
 -85.5182
 -85.3964
 -85.4408
 -85.4399
 -85.4398
 -85.4436
 -85.4344
 -85.4315
 -85.4393
 -85.4123
 -85.418
 -85.4154
 -85.4137
 -85.3432
 -85.3428
 -85.3469
 -85.3383
 -85.4057
 -85.4081
 -85.4074
 -85.471
 -85.4693
 -85.4691
 -85.4356
 -85.4341
 -85.5486
 -85.5466
 -85.5465
 -85.4041
 -85.408
 -85.4031
 -85.4373
 -85.4402
 -85.4417
 -85.5265
 -85.529
 -85.5289
 -85.5062
 -85.5063
 -85.5087
 -85.5068
 -85.4186
 -85.4201
 -85.4218
 -85.3922
 -85.3885
 -85.5343
 -85.533
 -85.5357
 -85.5349
 -85.3588
 -85.3607
 -85.3535
 -85.3641
 -85.4031
 -85.4018
 -85.2807
 -85.2753
 -85.3195
 -85.3185
 -85.3203
 -85.4397
 -85.4428
 -85.4386
 -85.5321
 -85.5297
 -85.5277
 -85.4963
 -85.496
 -85.4987
 -85.4228
 -85.4226
 -85.4263
 -85.4284
 -85.425
 -85.523
 -85.3916
 -85.3915
 -85.393
 -85.393
 -85.4357
 -85.4422
 -85.4372
 -85.4383
 -85.5034
 -85.5036
 -85.5056
 -85.4952
 -85.4958
 -85.4938
 -85.4947
 -85.44
 -85.4383
 -85.4421
 -85.4453
 -85.4999
 -85.5004
 -85.5037
 -85.5034
 -85.5076
 -85.5057
 -85.5072
 -85.51
 -85.4604
 -85.4983
 -85.5001
 -85.5001
 -85.5014
 -85.5391
 -85.5402
 -85.5388
 -85.5379
 -85.4115
 -85.4048
 -85.4033
 -85.4077
 -85.5349
 -85.5372
 -85.5362
 -85.5358
 -85.2701
 -85.2774
 -85.2701
 -85.5315
 -85.53
 -85.5338
 -85.533
 -85.4136
 -85.413
 -85.4092
 -85.4094
 -85.5134
 -85.5105
 -85.5127
 -85.5147
 -85.4045
 -85.4048
 -85.3962
 -85.3982
 -85.5391
 -85.5128
 -85.5092
 -85.5111
 -85.5082
 -85.5252
 -85.5271
 -85.5267
 -85.3914
 -85.3933
 -85.3907
 -85.3895
 -85.5015
 -85.4994
 -85.4992
 -85.4974
 -85.4794
 -85.4832
 -85.4832
 -85.4816
 -85.4738
 -85.4755
 -85.4718
 -85.471
 -85.546
 -85.5439
 -85.4456
 -85.4458
 -85.4453
 -85.44
 -85.4433
 -85.4449
 -85.4463
 -85.4996
 -85.4971
 -85.502
 -85.503
 -85.4966
 -85.4978
 -85.4975
 -85.5004
 -85.4816
 -85.4827
 -85.4844
 -85.4805
 -85.4171
 -85.4165
 -85.428
 -85.426
 -85.4256
 -85.4378
 -85.4404
 -85.4404
 -85.4408
 -85.3816
 -85.3779
 -85.3798
 -85.3792
 -85.4363
 -85.4326
 -85.4297
 -85.3408
 -85.3411
 -85.3459
 -85.4363
 -85.4363
 -85.4333
 -85.4389
 -85.4144
 -85.4185
 -85.4121
 -85.4583
 -85.5016
 -85.4997
 -85.5038
 -85.4455
 -85.4449
 -85.4475
 -85.4493
 -85.4015
 -85.4014
 -85.4105
 -85.4062
 -85.4634
 -85.4665
 -85.4671
 -85.4672
 -85.511
 -85.5091
 -85.546
 -85.5447
 -85.5438
 -85.546
 -85.5003
 -85.5007
 -85.5023
 -85.4983
 -85.4504
 -85.4499
 -85.4495
 -85.4518
 -85.5388
 -85.5391
 -85.5425
 -85.5375
 -85.538
 -85.5386
 -85.5394
 -85.4666
 -85.4632
 -85.4609
 -85.4648
 -85.402
 -85.4011
 -85.4034
 -85.4457
 -85.4455
 -85.4497
 -85.4455
 -85.3858
 -85.3815
 -85.3873
 -85.3807
 -85.4904
 -85.4906
 -85.4916
 -85.4837
 -85.3992
 -85.3992
 -85.3991
 -85.3998
 -85.4201
 -85.4219
 -85.4229
 -85.4215
 -85.5327
 -85.53
 -85.5336
 -85.5307
 -85.4655
 -85.4658
 -85.4625
 -85.466
 -85.4353
 -85.4333
 -85.4365
 -85.4335
 -85.5056
 -85.5056
 -85.5084
 -85.513
 -85.5114
 -85.5108
 -85.4419
 -85.4461
 -85.4445
 -85.4497
 -85.4514
 -85.4539
 -85.4525
 -85.4525
 -85.4023
 -85.4047
 -85.4017
 -85.4393
 -85.4367
 -85.4344
 -85.2461
 -85.2398
 -85.2469
 -85.2424
 -85.4226
 -85.4237
 -85.3907
 -85.393
 -85.391
 -85.3868
 -85.4756
 -85.4719
 -85.4751
 -85.4711
 -85.3452
 -85.3523
 -85.3541
 -85.3493
 -85.4115
 -85.4108
 -85.4078
 -85.4944
 -85.495
 -85.4942
 -85.4928
 -85.4089
 -85.4125
 -85.4077
 -85.3984
 -85.3991
 -85.3942
 -85.3961
 -85.4355
 -85.4337
 -85.434
 -85.438
 -85.5061
 -85.5132
 -85.3189
 -85.322
 -85.4192
 -85.4166
 -85.4529
 -85.4495
 -85.451
 -85.45
 -85.4897
 -85.4926
 -85.4902
 -85.4938
 -85.4582
 -85.4587
 -85.4606
 -85.4612
 -85.3874
 -85.3803
 -85.385
 -85.3841
 -85.4773
 -85.4737
 -85.4751
 -85.4029
 -85.4012
 -85.4025
 -85.4022
 -85.527
 -85.5262
 -85.5286
 -85.5252
 -85.4917
 -85.4918
 -85.4924
 -85.4888
 -85.4066
 -85.4087
 -85.4055
 -85.45
 -85.4456
 -85.4496
 -85.4512
 -85.3897
 -85.3884
 -85.39
 -85.4093
 -85.4138
 -85.4123
 -85.41
 -85.4095
 -85.4089
 -85.4123
 -85.4099
 -85.4491
 -85.4456
 -85.4452
 -85.4435
 -85.5387
 -85.5378
 -85.5366
 -85.5371
 -85.4826
 -85.4865
 -85.4848
 -85.486
 -85.4463
 -85.4417
 -85.4448
 -85.4683
 -85.4667
 -85.4663
 -85.5248
 -85.5211
 -85.5246
 -85.5223
 -85.483
 -85.4831
 -85.4804
 -85.4849
 -85.4433
 -85.4467
 -85.4467
 -85.4475
 -85.3824
 -85.3827
 -85.406
 -85.4044
 -85.4075
 -85.4075
 -85.2983
 -85.2954
 -85.2871
 -85.2957
 -85.504
 -85.5043
 -85.5043
 -85.5026
 -85.4129
 -85.4093
 -85.4103
 -85.4099
 -85.459
 -85.456
 -85.4578
 -85.4536
 -85.3737
 -85.3714
 -85.3723
 -85.3712
 -85.4703
 -85.469
 -85.4674
 -85.4672
 -85.4496
 -85.4981
 -85.4977
 -85.4943
 -85.4951
 -85.4437
 -85.4391
 -85.4383
 -85.442
 -85.44
 -85.4425
 -85.4451
 -85.4435
 -85.4307
 -85.4269
 -85.4278
 -85.4264
 -85.4036
 -85.3998
 -85.4057
 -85.5146
 -85.5151
 -85.5158
 -85.5104
 -85.4408
 -85.4398
 -85.4397
 -85.4383
 -85.5117
 -85.5126
 -85.5151
 -85.4934
 -85.4907
 -85.4927
 -85.4918
 -85.5073
 -85.5115
 -85.5096
 -85.5122
 -85.3932
 -85.3973
 -85.3925
 -85.2195
 -85.2226
 -85.2235
 -85.4949
 -85.4991
 -85.4981
 -85.4706
 -85.4764
 -85.4738
 -85.4777
 -85.4353
 -85.4367
 -85.4382
 -85.4347
 -85.4462
 -85.4472
 -85.4424
 -85.4435
 -85.3299
 -85.3335
 -85.3237
 -85.3347
 -85.4594
 -85.4577
 -85.4572
 -85.4569
 -85.4797
 -85.4806
 -85.4826
 -85.4779
 -85.4123
 -85.4132
 -85.4212
 -85.4149
 -85.418
 -85.4185
 -85.4957
 -85.4933
 -85.4952
 -85.4945
 -85.4107
 -85.4137
 -85.484
 -85.4824
 -85.3893
 -85.2345
 -85.2335
 -85.2347
 -85.2413
 -85.3707
 -85.3756
 -85.5424
 -85.5447
 -85.5428
 -85.3816
 -85.3854
 -85.389
 -85.3856
 -85.4994
 -85.4986
 -85.4203
 -85.4194
 -85.4199
 -85.4203
 -85.4305
 -85.437
 -85.4348
 -85.4988
 -85.5009
 -85.4994
 -85.5028
 -85.4859
 -85.4892
 -85.4856
 -85.4874
 -85.5182
 -85.5188
 -85.5217
 -85.4469
 -85.4433
 -85.4473
 -85.4425
 -85.458
 -85.5184
 -85.5146
 -85.5176
 -85.5169
 -85.3927
 -85.3921
 -85.3935
 -85.3949
 -85.4662
 -85.4626
 -85.4657
 -85.4621
 -85.5041
 -85.5002
 -85.5031
 -85.5006
 -85.2713
 -85.2746
 -85.2776
 -85.2801
 -85.4065
 -85.5388
 -85.4382
 -85.443
 -85.4397
 -85.4361
 -85.4648
 -85.4675
 -85.4633
 -85.4625
 -85.4135
 -85.4088
 -85.4114
 -85.4125
 -85.4712
 -85.4697
 -85.4714
 -85.472
 -85.4041
 -85.4045
 -85.4072
 -85.3987
 -85.4014
 -85.4038
 -85.4012
 -85.4448
 -85.448
 -85.4423
 -85.445
 -85.5043
 -85.5063
 -85.5007
 -85.5458
 -85.5476
 -85.5461
 -85.5454
 -85.3279
 -85.3236
 -85.3215
 -85.4556
 -85.456
 -85.4478
 -85.4494
 -85.4455
 -85.4509
 -85.53
 -85.5291
 -85.5297
 -85.5309
 -85.4952
 -85.4928
 -85.4945
 -85.492
 -85.4026
 -85.4082
 -85.4046
 -85.3621
 -85.4432
 -85.4399
 -85.4408
 -85.4437
 -85.4515
 -85.4533
 -85.4526
 -85.4925
 -85.491
 -85.491
 -85.4935
 -85.5063
 -85.5025
 -85.5051
 -85.5035
 -85.4393
 -85.4372
 -85.4969
 -85.4965
 -85.4985
 -85.5007
 -85.4737
 -85.4727
 -85.473
 -85.4762
 -85.5366
 -85.5376
 -85.4805
 -85.4772
 -85.4807
 -85.479
 -85.4973
 -85.4987
 -85.4998
 -85.5006
 -85.4923
 -85.4944
 -85.4921
 -85.4926
 -85.4562
 -85.4577
 -85.4455
 -85.4473
 -85.4442
 -85.4423
 -85.4287
 -85.4255
 -85.4273
 -85.4276
 -85.4727
 -85.4752
 -85.4752
 -85.4728
 -85.4006
 -85.4033
 -85.405
 -85.4065
 -85.4132
 -85.4124
 -85.411
 -85.4125
 -85.3126
 -85.3144
 -85.3132
 -85.307
 -85.428
 -85.4225
 -85.4684
 -85.4634
 -85.4675
 -85.4654
 -85.4385
 -85.4371
 -85.4402
 -85.4421
 -85.4622
 -85.4645
 -85.4658
 -85.4635
 -85.4483
 -85.4481
 -85.4983
 -85.4968
 -85.5423
 -85.5428
 -85.5428
 -85.5435
 -85.3858
 -85.4461
 -85.446
 -85.4473
 -85.4496
 -85.4619
 -85.4581
 -85.4591
 -85.4591
 -85.4219
 -85.4195
 -85.4184
 -85.4153
 -85.4911
 -85.4871
 -85.491
 -85.4874
 -85.4644
 -85.4619
 -85.4607
 -85.4641
 -85.4036
 -85.4028
 -85.405
 -85.4007
 -85.3994
 -85.4342
 -85.439
 -85.4344
 -85.4385
 -85.4342
 -85.4399
 -85.4352
 -85.433
 -85.4042
 -85.4043
 -85.4013
 -85.404
 -85.4137
 -85.4151
 -85.4199
 -85.418
 -85.4483
 -85.4514
 -85.446
 -85.4458
 -85.4053
 -85.4037
 -85.4027
 -85.4036
 -85.4693
 -85.4708
 -85.4659
 -85.4237
 -85.4235
 -85.423
 -85.4222
 -85.3532
 -85.357
 -85.4676
 -85.4697
 -85.4709
 -85.4653
 -85.4696
 -85.4677
 -85.4697
 -85.3924
 -85.395
 -85.3967
 -85.3824
 -85.3842
 -85.3841
 -85.3823
 -85.4823
 -85.482
 -85.4838
 -85.4801
 -85.4648
 -85.4601
 -85.4652
 -85.5105
 -85.5059
 -85.5078
 -85.4533
 -85.4504
 -85.4512
 -85.518
 -85.5183
 -85.5183
 -85.2893
 -85.2843
 -85.2868
 -85.2896
 -85.5374
 -85.538
 -85.537
 -85.5381
 -85.4282
 -85.4254
 -85.473
 -85.4691
 -85.4016
 -85.4023
 -85.402
 -85.4053
 -85.4784
 -85.4774
 -85.4814
 -85.5006
 -85.5031
 -85.5028
 -85.5034
 -85.5169
 -85.5128
 -85.3937
 -85.394
 -85.393
 -85.4692
 -85.4685
 -85.4656
 -85.4184
 -85.4143
 -85.4184
 -85.3931
 -85.393
 -85.3912
 -85.3899
 -85.4435
 -85.4446
 -85.4412
 -85.4457
 -85.4388
 -85.4347
 -85.4363
 -85.438
 -85.4883
 -85.4871
 -85.4869
 -85.4904
 -85.4993
 -85.4976
 -85.4988
 -85.4956
 -85.4335
 -85.4327
 -85.4366
 -85.4829
 -85.4823
 -85.4803
 -85.4941
 -85.4966
 -85.4944
 -85.4949
 -85.5488
 -85.548
 -85.5493
 -85.4577
 -85.4569
 -85.4566
 -85.4913
 -85.4931
 -85.489
 -85.4527
 -85.4551
 -85.451
 -85.4253
 -85.421
 -85.4217
 -85.3948
 -85.3969
 -85.3956
 -85.3961
 -85.4535
 -85.4528
 -85.4565
 -85.4535
 -85.418
 -85.4162
 -85.4133
 -85.4019
 -85.4056
 -85.4902
 -85.488
 -85.4931
 -85.4901
 -85.4904
 -85.4927
 -85.4895
 -85.487
 -85.4049
 -85.4085
 -85.4103
 -85.4116
 -85.4031
 -85.4001
 -85.4014
 -85.3996
 -85.3688
 -85.3667
 -85.3692
 -85.3654
 -85.5282
 -85.5294
 -85.5137
 -85.5104
 -85.5119
 -85.5139
 -85.5362
 -85.4235
 -85.4273
 -85.4226
 -85.4605
 -85.4619
 -85.4588
 -85.4584
 -85.406
 -85.4054
 -85.4496
 -85.4495
 -85.4517
 -85.3893
 -85.3908
 -85.5093
 -85.5097
 -85.5124
 -85.5076
 -85.5195
 -85.519
 -85.5231
 -85.5213
 -85.5033
 -85.5044
 -85.501
 -85.4273
 -85.4301
 -85.4297
 -85.5173
 -85.5171
 -85.5182
 -85.519
 -85.4173
 -85.4124
 -85.4162
 -85.4179
 -85.5058
 -85.5038
 -85.5037
 -85.5058
 -85.4179
 -85.4133
 -85.4123
 -85.42
 -85.3954
 -85.3972
 -85.3933
 -85.5367
 -85.5403
 -85.5383
 -85.5378
 -85.4004
 -85.4016
 -85.4011
 -85.4429
 -85.4448
 -85.4475
 -85.4448
 -85.5315
 -85.5341
 -85.5327
 -85.4165
 -85.4132
 -85.4164
 -85.4139
 -85.4819
 -85.5262
 -85.5276
 -85.5226
 -85.5257
 -85.3891
 -85.3901
 -85.3917
 -85.3901
 -85.4927
 -85.4876
 -85.4911
 -85.4929
 -85.4587
 -85.46
 -85.4547
 -85.3952
 -85.3927
 -85.3964
 -85.3873
 -85.4852
 -85.4848
 -85.4869
 -85.413
 -85.4119
 -85.2979
 -85.2924
 -85.3009
 -85.3028
 -85.3693
 -85.3603
 -85.3591
 -85.5189
 -85.5176
 -85.524
 -85.5202
 -85.5199
 -85.5214
 -85.3785
 -85.3807
 -85.3753
 -85.3811
 -85.4387
 -85.4407
 -85.4407
 -85.4413
 -85.4496
 -85.4448
 -85.4454
 -85.4472
 -85.4665
 -85.4653
 -85.4694
 -85.4656
 -85.4689
 -85.4633
 -85.4671
 -85.4645
 -85.5311
 -85.4031
 -85.4019
 -85.4033
 -85.4022
 -85.5331
 -85.5319
 -85.5344
 -85.472
 -85.4683
 -85.467
 -85.468
 -85.3934
 -85.3972
 -85.3981
 -85.4631
 -85.4599
 -85.4624
 -85.4597
 -85.4539
 -85.4875
 -85.4886
 -85.4919
 -85.4908
 -85.4198
 -85.4199
 -85.4197
 -85.4547
 -85.4609
 -85.4589
 -85.5336
 -85.5323
 -85.5302
 -85.5322
 -85.4512
 -85.4495
 -85.4489
 -85.2763
 -85.2805
 -85.2714
 -85.4511
 -85.4486
 -85.4506
 -85.4454
 -85.4895
 -85.4925
 -85.4918
 -85.4576
 -85.4576
 -85.518
 -85.5189
 -85.5165
 -85.5167
 -85.5035
 -85.5059
 -85.5042
 -85.5041
 -85.5394
 -85.5388
 -85.5374
 -85.5365
 -85.4673
 -85.4609
 -85.4655
 -85.4673
 -85.4967
 -85.496
 -85.4947
 -85.4931
 -85.5181
 -85.5199
 -85.5215
 -85.4155
 -85.4176
 -85.412
 -85.4139
 -85.4467
 -85.4505
 -85.432
 -85.4297
 -85.4329
 -85.4313
 -85.4897
 -85.4888
 -85.4894
 -85.491
 -85.451
 -85.4546
 -85.4531
 -85.4503
 -85.4879
 -85.4864
 -85.4908
 -85.4872
 -85.4564
 -85.4578
 -85.4599
 -85.4607
 -85.4537
 -85.4504
 -85.4512
 -85.5146
 -85.5127
 -85.5145
 -85.5283
 -85.5275
 -85.527
 -85.5312
 -85.5226
 -85.5222
 -85.5242
 -85.4977
 -85.5011
 -85.4981
 -85.322
 -85.3186
 -85.3152
 -85.4464
 -85.4509
 -85.4474
 -85.5127
 -85.5141
 -85.513
 -85.5124
 -85.4461
 -85.4478
 -85.4457
 -85.4681
 -85.4702
 -85.469
 -85.4666
 -85.4815
 -85.4743
 -85.477
 -85.4763
 -85.4538
 -85.4564
 -85.4562
 -85.4589
 -85.4087
 -85.4112
 -85.409
 -85.4078
 -85.4476
 -85.4684
 -85.4684
 -85.4703
 -85.4639
 -85.3999
 -85.4007
 -85.4012
 -85.401
 -85.3941
 -85.3971
 -85.395
 -85.3967
 -85.4037
 -85.4046
 -85.4047
 -85.4021
 -85.4832
 -85.4832
 -85.4867
 -85.4886
 -85.4158
 -85.4134
 -85.4149
 -85.4158
 -85.5389
 -85.5366
 -85.5386
 -85.5368
 -85.3592
 -85.3614
 -85.3651
 -85.3642
 -85.411
 -85.4113
 -85.4105
 -85.3872
 -85.3851
 -85.3842
 -85.3843
 -85.3989
 -85.3968
 -85.4013
 -85.4027
 -85.4033
 -85.4597
 -85.4591
 -85.4611
 -85.4666
 -85.529
 -85.5265
 -85.5255
 -85.5281
 -85.5277
 -85.5291
 -85.5269
 -85.407
 -85.4048
 -85.5355
 -85.5375
 -85.5349
 -85.5152
 -85.5146
 -85.515
 -85.5176
 -85.399
 -85.3975
 -85.3989
 -85.5383
 -85.539
 -85.5374
 -85.5397
 -85.4295
 -85.4306
 -85.4332
 -85.4274
 -85.4047
 -85.3999
 -85.4015
 -85.405
 -85.3863
 -85.3912
 -85.3891
 -85.3883
 -85.3425
 -85.3432
 -85.3398
 -85.3395
 -85.476
 -85.4818
 -85.4793
 -85.4808
 -85.4333
 -85.4337
 -85.4321
 -85.4277
 -85.5368
 -85.5349
 -85.5368
 -85.2625
 -85.2719
 -85.2668
 -85.2753
 -85.369
 -85.3741
 -85.3707
 -85.3753
 -85.5368
 -85.5396
 -85.5382
 -85.5379
 -85.4565
 -85.4567
 -85.4602
 -85.5217
 -85.5251
 -85.5259
 -85.4048
 -85.4041
 -85.3992
 -85.5373
 -85.5361
 -85.5353
 -85.5365
 -85.5149
 -85.5134
 -85.5127
 -85.5104
 -85.4195
 -85.4217
 -85.4245
 -85.4212
 -85.4333
 -85.4295
 -85.4326
 -85.4281
 -85.5048
 -85.5049
 -85.5051
 -85.5084
 -85.4647
 -85.463
 -85.4604
 -85.4621
 -85.3506
 -85.3559
 -85.3568
 -85.3547
 -85.5181
 -85.5129
 -85.5162
 -85.5147
 -85.5401
 -85.4591
 -85.46
 -85.4625
 -85.4623
 -85.5264
 -85.5281
 -85.5272
 -85.53
 -85.4006
 -85.4007
 -85.4011
 -85.4013
 -85.5349
 -85.5365
 -85.5339
 -85.533
 -85.4519
 -85.4508
 -85.435
 -85.4332
 -85.4362
 -85.437
 -85.5018
 -85.4984
 -85.4984
 -85.4984
 -85.4688
 -85.4725
 -85.4713
 -85.4326
 -85.4319
 -85.4334
 -85.5037
 -85.5029
 -85.4999
 -85.5003
 -85.4955
 -85.4938
 -85.497
 -85.4944
 -85.4071
 -85.4051
 -85.4042
 -85.454
 -85.4613
 -85.4619
 -85.4569
 -85.3618
 -85.3582
 -85.3635
 -85.3566
 -85.3519
 -85.5374
 -85.5325
 -85.5374
 -85.5342
 -85.4598
 -85.4582
 -85.4563
 -85.4599
 -85.5211
 -85.5228
 -85.4447
 -85.4391
 -85.4398
 -85.4173
 -85.4141
 -85.4191
 -85.4181
 -85.5355
 -85.5346
 -85.5367
 -85.5365
 -85.4042
 -85.4049
 -85.4047
 -85.4198
 -85.4188
 -85.4218
 -85.4192
 -85.4313
 -85.4358
 -85.4323
 -85.4278
 -85.4883
 -85.4938
 -85.4898
 -85.4916
 -85.4131
 -85.4177
 -85.4153
 -85.4146
 -85.4997
 -85.4775
 -85.4815
 -85.4827
 -85.4765
 -85.5276
 -85.5284
 -85.5254
 -85.5328
 -85.5319
 -85.5316
 -85.53
 -85.4803
 -85.4824
 -85.4785
 -85.4806
 -85.5429
 -85.5426
 -85.5425
 -85.5402
 -85.4323
 -85.4712
 -85.4662
 -85.4665
 -85.47
 -85.4603
 -85.4547
 -85.4576
 -85.4584
 -85.3435
 -85.3493
 -85.3511
 -85.3454
 -85.4492
 -85.4503
 -85.4515
 -85.4471
 -85.4437
 -85.4438
 -85.445
 -85.4472
 -85.4465
 -85.4469
 -85.4501
 -85.5214
 -85.5192
 -85.5181
 -85.4433
 -85.4388
 -85.4401
 -85.4414
 -85.5178
 -85.5216
 -85.5197
 -85.4548
 -85.4519
 -85.4641
 -85.4664
 -85.4654
 -85.4628
 -85.4617
 -85.4628
 -85.4584
 -85.4592
 -85.4637
 -85.4622
 -85.5246
 -85.5257
 -85.5258
 -85.4328
 -85.5317
 -85.4684
 -85.4709
 -85.4678
 -85.4646
 -85.3981
 -85.3978
 -85.3938
 -85.4075
 -85.4116
 -85.4136
 -85.4628
 -85.4643
 -85.4602
 -85.4523
 -85.4521
 -85.4538
 -85.4559
 -85.4607
 -85.4575
 -85.4628
 -85.458
 -85.2721
 -85.2743
 -85.2663
 -85.5037
 -85.5006
 -85.503
 -85.4521
 -85.4531
 -85.5113
 -85.5073
 -85.5086
 -85.507
 -85.4734
 -85.4764
 -85.4732
 -85.3437
 -85.3471
 -85.3398
 -85.3419
 -85.4424
 -85.4383
 -85.442
 -85.4381
 -85.4101
 -85.4087
 -85.4071
 -85.4063
 -85.4874
 -85.4829
 -85.4857
 -85.4873
 -85.4264
 -85.4229
 -85.4259
 -85.421
 -85.3611
 -85.3602
 -85.3608
 -85.4317
 -85.4304
 -85.4285
 -85.4295
 -85.4877
 -85.4915
 -85.4899
 -85.4905
 -85.4563
 -85.4603
 -85.4606
 -85.4585
 -85.4158
 -85.4144
 -85.4164
 -85.4395
 -85.4365
 -85.4377
 -85.4374
 -85.4083
 -85.4043
 -85.4086
 -85.4054
 -85.3881
 -85.3931
 -85.3911
 -85.3863
 -85.5355
 -85.5366
 -85.5356
 -85.5364
 -85.4056
 -85.4081
 -85.4074
 -85.4081
 -85.4138
 -85.4114
 -85.4146
 -85.4147
 -85.482
 -85.4859
 -85.4851
 -85.4874
 -85.4288
 -85.4281
 -85.4319
 -85.43
 -85.5475
 -85.548
 -85.5478
 -85.5484
 -85.4464
 -85.4448
 -85.448
 -85.3965
 -85.3942
 -85.3949
 -85.3982
 -85.4043
 -85.403
 -85.4038
 -85.4028
 -85.4036
 -85.3977
 -85.4946
 -85.4911
 -85.4942
 -85.4901
 -85.5467
 -85.5456
 -85.5463
 -85.5459
 -85.4377
 -85.4342
 -85.436
 -85.434
 -85.4082
 -85.4066
 -85.4062
 -85.4863
 -85.4827
 -85.483
 -85.4855
 -85.446
 -85.4458
 -85.4469
 -85.4503
 -85.4176
 -85.4182
 -85.4174
 -85.4204
 -85.3937
 -85.3987
 -85.3958
 -85.5061
 -85.5094
 -85.5109
 -85.5068
 -85.5162
 -85.5156
 -85.5133
 -85.438
 -85.4371
 -85.4399
 -85.4424
 -85.4412
 -85.4398
 -85.444
 -85.4154
 -85.4196
 -85.4216
 -85.4199
 -85.4851
 -85.4836
 -85.4813
 -85.4036
 -85.4034
 -85.3999
 -85.4585
 -85.4622
 -85.4608
 -85.5161
 -85.5127
 -85.5151
 -85.491
 -85.4904
 -85.4304
 -85.4328
 -85.4294
 -85.4324
 -85.4339
 -85.4322
 -85.4512
 -85.4468
 -85.4171
 -85.3903
 -85.3907
 -85.388
 -85.5192
 -85.5188
 -85.5144
 -85.4381
 -85.4412
 -85.4402
 -85.4376
 -85.4205
 -85.4565
 -85.4585
 -85.4859
 -85.4873
 -85.4849
 -85.4883
 -85.456
 -85.4529
 -85.4568
 -85.4389
 -85.4408
 -85.4353
 -85.4391
 -85.431
 -85.4372
 -85.4429
 -85.4399
 -85.4379
 -85.4443
 -85.523
 -85.5203
 -85.5198
 -85.5221
 -85.5249
 -85.5265
 -85.529
 -85.5286
 -85.4033
 -85.406
 -85.4541
 -85.4543
 -85.4526
 -85.4493
 -85.4711
 -85.472
 -85.4737
 -85.4749
 -85.4808
 -85.4839
 -85.4808
 -85.48
 -85.4517
 -85.449
 -85.448
 -85.4518
 -85.4447
 -85.4475
 -85.4455
 -85.4443
 -85.5153
 -85.5114
 -85.5154
 -85.515
 -85.4055
 -85.4099
 -85.4115
 -85.4144
 -85.4076
 -85.4117
 -85.4098
 -85.5043
 -85.5071
 -85.5106
 -85.5121
 -85.4159
 -85.4187
 -85.4174
 -85.4197
 -85.5315
 -85.5299
 -85.5315
 -85.531
 -85.5179
 -85.5163
 -85.5175
 -85.5154
 -85.4348
 -85.4367
 -85.4334
 -85.4351
 -85.4918
 -85.493
 -85.4916
 -85.4882
 -85.4183
 -85.4201
 -85.4231
 -85.4239
 -85.5037
 -85.5017
 -85.5023
 -85.4057
 -85.4077
 -85.4052
 -85.4066
 -85.4765
 -85.4748
 -85.4771
 -85.4784
 -85.4314
 -85.4323
 -85.499
 -85.504
 -85.5016
 -85.5009
 -85.5056
 -85.5049
 -85.5026
 -85.4472
 -85.4519
 -85.4479
 -85.5089
 -85.5092
 -85.5105
 -85.5123
 -85.365
 -85.3661
 -85.3695
 -85.3687
 -85.4168
 -85.4186
 -85.4209
 -85.4224
 -85.4766
 -85.4722
 -85.4727
 -85.4766
 -85.5245
 -85.5253
 -85.5234
 -85.5258
 -85.5175
 -85.52
 -85.5202
 -85.5182
 -85.5247
 -85.5242
 -85.525
 -85.5238
 -85.525
 -85.4241
 -85.4263
 -85.4237
 -85.4273
 -85.4075
 -85.4084
 -85.4033
 -85.4068
 -85.4233
 -85.4234
 -85.4313
 -85.4349
 -85.4322
 -85.4311
 -85.4417
 -85.4414
 -85.4454
 -85.4414
 -85.4108
 -85.4109
 -85.4082
 -85.4611
 -85.4587
 -85.4594
 -85.4578
 -85.5487
 -85.5481
 -85.5467
 -85.4253
 -85.4244
 -85.4261
 -85.4298
 -85.51
 -85.5059
 -85.5084
 -85.5094
 -85.4883
 -85.4921
 -85.4907
 -85.4557
 -85.4536
 -85.4575
 -85.4913
 -85.4949
 -85.4916
 -85.515
 -85.5132
 -85.4885
 -85.4888
 -85.4886
 -85.4191
 -85.4203
 -85.4211
 -85.4173
 -85.528
 -85.5296
 -85.5281
 -85.5273
 -85.4772
 -85.4805
 -85.4787
 -85.3288
 -85.3212
 -85.3183
 -85.3269
 -85.3941
 -85.3919
 -85.4679
 -85.4318
 -85.437
 -85.4335
 -85.4318
 -85.4608
 -85.4649
 -85.4648
 -85.5014
 -85.5016
 -85.4993
 -85.5019
 -85.5337
 -85.5345
 -85.4552
 -85.4541
 -85.4542
 -85.4516
 -85.3887
 -85.3844
 -85.3844
 -85.3883
 -85.519
 -85.5205
 -85.5203
 -85.5191
 -85.4759
 -85.4774
 -85.4752
 -85.2794
 -85.2742
 -85.2704
 -85.271
 -85.4062
 -85.4054
 -85.4033
 -85.4246
 -85.4274
 -85.422
 -85.4252
 -85.4754
 -85.476
 -85.4745
 -85.4787
 -85.4552
 -85.4579
 -85.3988
 -85.3995
 -85.3993
 -85.3994
 -85.4785
 -85.4822
 -85.425
 -85.4198
 -85.4217
 -85.4233
 -85.438
 -85.4395
 -85.4352
 -85.4383
 -85.4564
 -85.4603
 -85.4614
 -85.4584
 -85.4205
 -85.4185
 -85.4143
 -85.4873
 -85.4832
 -85.4876
 -85.4839
 -85.5057
 -85.5085
 -85.5111
 -85.5063
 -85.5017
 -85.502
 -85.5025
 -85.5049
 -85.3847
 -85.3807
 -85.3828
 -85.3791
 -85.4593
 -85.4567
 -85.3112
 -85.3061
 -85.3062
 -85.3012
 -85.4375
 -85.4341
 -85.4323
 -85.5349
 -85.2438
 -85.2474
 -85.2481
 -85.236
 -85.4503
 -85.4522
 -85.4501
 -85.4503
 -85.43
 -85.4336
 -85.4309
 -85.5036
 -85.5062
 -85.5064
 -85.5032
 -85.505
 -85.5038
 -85.5074
 -85.5074
 -85.5013
 -85.5029
 -85.5001
 -85.4989
 -85.4204
 -85.4234
 -85.4189
 -85.423
 -85.4042
 -85.4025
 -85.4003
 -85.4005
 -85.4801
 -85.4805
 -85.484
 -85.4801
 -85.4392
 -85.4343
 -85.4414
 -85.4382
 -85.5458
 -85.5253
 -85.5258
 -85.4729
 -85.4729
 -85.4414
 -85.4385
 -85.4393
 -85.5276
 -85.5312
 -85.5291
 -85.5281
 -85.4478
 -85.4463
 -85.4728
 -85.4699
 -85.3429
 -85.3492
 -85.3428
 -85.349
 -85.4204
 -85.4189
 -85.4164
 -85.4178
 -85.4773
 -85.4816
 -85.4781
 -85.4804
 -85.3531
 -85.3485
 -85.3525
 -85.3546
 -85.5401
 -85.5392
 -85.5415
 -85.5399
 -85.5256
 -85.5227
 -85.5327
 -85.531
 -85.5287
 -85.5331
 -85.5072
 -85.5096
 -85.4327
 -85.4342
 -85.4313
 -85.2524
 -85.2602
 -85.25
 -85.2521
 -85.3605
 -85.3639
 -85.3649
 -85.3612
 -85.5272
 -85.529
 -85.5272
 -85.526
 -85.4929
 -85.4974
 -85.4948
 -85.4637
 -85.4599
 -85.4576
 -85.4614
 -85.4249
 -85.4302
 -85.426
 -85.4248
 -85.5153
 -85.5179
 -85.5169
 -85.5283
 -85.4585
 -85.4632
 -85.419
 -85.4205
 -85.4878
 -85.492
 -85.487
 -85.4883
 -85.4034
 -85.3992
 -85.4049
 -85.3988
 -85.4018
 -85.3984
 -85.3997
 -85.2687
 -85.2792
 -85.2757
 -85.275
 -85.4239
 -85.4262
 -85.4259
 -85.4292
 -85.5171
 -85.5176
 -85.5114
 -85.5137
 -85.5129
 -85.5136
 -85.4177
 -85.4172
 -85.4206
 -85.4158
 -85.5015
 -85.4997
 -85.5026
 -85.4893
 -85.4896
 -85.4903
 -85.4873
 -85.5125
 -85.5139
 -85.5109
 -85.5148
 -85.4253
 -85.4289
 -85.4276
 -85.4256
 -85.5331
 -85.5297
 -85.4445
 -85.3311
 -85.3345
 -85.3371
 -85.3402
 -85.5003
 -85.5
 -85.5023
 -85.3619
 -85.3581
 -85.3589
 -85.3563
 -85.4873
 -85.4868
 -85.4867
 -85.4898
 -85.3978
 -85.3977
 -85.3942
 -85.3986
 -85.4121
 -85.4112
 -85.414
 -85.4146
 -85.4828
 -85.4851
 -85.485
 -85.4325
 -85.4337
 -85.4319
 -85.4295
 -85.4792
 -85.4781
 -85.4805
 -85.4754
 -85.469
 -85.467
 -85.5081
 -85.5091
 -85.5089
 -85.4893
 -85.4898
 -85.4866
 -85.3311
 -85.332
 -85.3372
 -85.3325
 -85.4037
 -85.4069
 -85.4021
 -85.408
 -85.5161
 -85.5121
 -85.5124
 -85.5121
 -85.5096
 -85.5089
 -85.4137
 -85.4208
 -85.4143
 -85.4899
 -85.4864
 -85.4876
 -85.4857
 -85.4887
 -85.4881
 -85.4867
 -85.4223
 -85.4206
 -85.4229
 -85.4233
 -85.5284
 -85.5288
 -85.4338
 -85.4326
 -85.4338
 -85.4362
 -85.4187
 -85.4191
 -85.4204
 -85.4931
 -85.4942
 -85.4535
 -85.4515
 -85.4538
 -85.4565
 -85.4017
 -85.4008
 -85.4816
 -85.4811
 -85.4354
 -85.43
 -85.4307
 -85.4335
 -85.4614
 -85.4616
 -85.4589
 -85.4642
 -85.4613
 -85.4591
 -85.4614
 -85.3752
 -85.375
 -85.3733
 -85.3816
 -85.3585
 -85.3591
 -85.3625
 -85.3621
 -85.4891
 -85.4861
 -85.4832
 -85.4858
 -85.5188
 -85.5193
 -85.5172
 -85.517
 -85.4688
