 8.284
 8.06738
 8.11973
 7.97601
 3.83223
 3.78683
 3.64517
 3.56857
 5.09749
 5.26192
 5.0578
 5.26232
 4.91135
 5.06358
 5.13373
 5.20277
 1.98955
 1.78313
 2.10486
 2.17451
 2.14861
 2.34012
 2.00585
 2.26872
 9.07991
 9.23058
 9.18231
 9.0831
 9.01649
 8.95566
 8.95477
 9.05689
 2.05373
 2.14278
 2.35259
 2.13598
 2.23613
 2.20238
 2.27933
 1.95304
 9.59473
 9.68534
 9.54513
 9.51797
 5.05812
 5.03886
 5.20757
 5.09709
 7.48909
 7.51259
 7.63915
 7.3706
 3.71447
 3.9888
 4.07654
 3.90444
 5.87412
 5.91624
 5.8086
 5.67612
 8.59204
 8.70724
 8.50924
 8.69979
 2.84063
 2.69713
 2.8389
 2.60993
 4.58987
 4.70587
 4.53966
 4.66716
 5.82656
 5.78127
 5.75338
 5.6438
 2.87595
 2.88744
 2.78437
 2.62872
 8.94646
 9.12332
 8.93524
 9.06122
 1.45662
 1.44115
 1.22863
 1.20729
 10.8728
 10.9591
 10.9642
 10.8404
 4.21818
 4.12854
 4.31759
 4.34369
 6.09816
 6.20889
 6.05657
 6.0031
 5.58595
 5.55189
 5.64981
 5.70393
 6.84611
 6.66479
 6.58067
 6.82415
 8.63841
 8.75699
 8.61897
 8.6302
 7.58999
 7.63354
 7.78126
 7.68838
 3.92376
 3.95423
 4.03958
 4.16871
 6.00678
 5.72765
 6.05755
 5.96337
 7.47271
 7.337
 7.34595
 7.46716
 4.62951
 4.83296
 4.61219
 4.79161
 3.78257
 3.87704
 3.88148
 3.8518
 7.48203
 7.65077
 7.46333
 7.72665
 8.41921
 8.43496
 8.45569
 8.44743
 4.73026
 4.97895
 4.7776
 4.82266
 9.33783
 9.27209
 9.24432
 9.21768
 4.32848
 4.30637
 3.97815
 4.06175
 0.870491
 1.0919
 0.945427
 1.13529
 5.36864
 5.41859
 5.3305
 5.56707
 4.06822
 3.90431
 3.9752
 4.06262
 9.16505
 9.17056
 9.04527
 9.2684
 4.6506
 4.80446
 4.73798
 4.55653
 2.09933
 2.16912
 1.97246
 2.0888
 7.91275
 7.78183
 7.83961
 7.89951
 4.65331
 4.37805
 4.45062
 4.4128
 8.40882
 8.27001
 8.38393
 8.53446
 7.43406
 7.5399
 7.59668
 7.64532
 5.8128
 5.95006
 5.97633
 6.12296
 8.66261
 8.71882
 8.76567
 8.65411
 5.5324
 5.69182
 5.67303
 5.56303
 7.14966
 7.33052
 7.13366
 7.40151
 5.33925
 5.23506
 5.34794
 5.24176
 7.65812
 7.52175
 7.61937
 7.41819
 5.16234
 5.18902
 5.03095
 5.3061
 4.18869
 4.17477
 4.06013
 3.94605
 4.02161
 4.14931
 4.05368
 4.31884
 7.80236
 7.83296
 8.01831
 7.73283
 6.8033
 6.89408
 6.87774
 6.67533
 10.6268
 10.7025
 10.7783
 10.6809
 7.6476
 7.69196
 7.8372
 7.67214
 6.05431
 5.81867
 5.93552
 5.89346
 7.11715
 7.12418
 6.88636
 7.24065
 7.26738
 7.09331
 7.28777
 7.12635
 8.79834
 8.88733
 8.76982
 8.76485
 2.74953
 2.51062
 2.41836
 2.76588
 2.06684
 1.9789
 1.88969
 1.82647
 5.66989
 5.45598
 5.82341
 5.69969
 7.58358
 7.63037
 7.51699
 7.71411
 4.28981
 4.19906
 4.09836
 4.30114
 8.87704
 9.17904
 9.06038
 9.05525
 8.95563
 9.07245
 9.13138
 8.93052
 10.8824
 10.9744
 10.8544
 10.88
 5.24712
 5.03312
 5.16435
 4.98611
 7.89307
 7.7177
 7.68347
 7.87191
 8.25854
 8.37322
 8.19815
 8.16325
 1.66053
 1.43957
 1.52334
 1.41242
 8.55954
 8.62383
 8.7446
 8.58689
 8.27005
 8.34936
 8.44212
 8.28157
 7.99337
 7.87326
 8.01186
 8.1384
 6.50475
 6.54564
 6.39573
 6.42213
 8.17339
 7.99588
 8.12433
 8.0675
 7.4649
 7.37612
 7.32636
 7.41495
 6.79586
 6.84397
 6.91176
 6.97308
 8.49305
 8.67566
 8.44805
 8.64952
 11.2117
 11.2374
 11.0833
 11.0797
 8.82253
 8.76441
 8.6697
 8.75164
 5.1092
 5.23555
 5.04523
 5.33295
 5.07563
 5.14675
 4.99374
 5.15901
 4.10403
 4.21601
 4.25939
 4.06037
 9.13818
 9.15628
 9.11273
 9.04964
 1.23796
 1.26101
 1.41433
 1.10562
 4.29139
 4.11799
 4.31597
 4.26486
 9.27997
 9.27592
 9.41235
 9.43119
 7.3684
 7.37705
 7.44094
 7.16211
 8.33272
 8.21964
 8.46269
 8.36909
 8.28885
 8.36541
 8.37555
 9.08933
 9.10635
 9.12284
 9.1797
 4.69198
 4.81265
 4.94077
 4.6229
 6.79373
 6.55587
 6.64209
 6.76204
 4.98677
 4.79747
 4.9475
 7.59357
 7.81038
 7.6681
 7.7323
 6.36607
 6.22611
 6.27789
 6.47139
 3.10077
 3.39491
 3.37508
 2.98964
 8.85018
 8.82532
 8.63157
 8.70219
 8.39586
 8.50318
 8.58338
 8.4871
 5.2345
 5.4421
 5.48402
 5.40735
 4.36121
 4.48542
 4.16917
 4.19327
 9.12438
 9.10159
 9.16277
 9.26631
 8.48002
 8.43643
 8.19744
 8.26861
 6.95041
 6.75695
 6.64701
 6.91992
 2.22779
 2.08953
 2.17071
 2.13203
 5.17883
 4.9696
 4.89058
 4.99141
 6.19519
 6.46489
 6.23845
 6.19839
 10.6449
 10.7909
 10.639
 10.6458
 6.61264
 6.7496
 6.54345
 6.43244
 3.09997
 3.32121
 3.09685
 3.39162
 8.03412
 8.26668
 7.93413
 8.00304
 8.48664
 8.45602
 8.61053
 8.52142
 8.5534
 8.70091
 8.65958
 8.61983
 9.79171
 9.8049
 9.80154
 9.73744
 8.13502
 8.36717
 8.34738
 8.35246
 5.16658
 5.18765
 5.15914
 5.30235
 9.17003
 9.12202
 9.07739
 9.02299
 2.59773
 2.78146
 2.63322
 2.57254
 8.9311
 9.11571
 9.09594
 8.94685
 3.19648
 3.50842
 3.16756
 3.36599
 6.78905
 6.93309
 6.9268
 6.81464
 7.20505
 7.04747
 6.99342
 7.15265
 7.82262
 7.81939
 7.60318
 7.7647
 8.13495
 8.13626
 8.26787
 8.30623
 1.45922
 1.26894
 1.20623
 1.23883
 8.00489
 8.1033
 8.00467
 8.08212
 0.920016
 1.10303
 0.975651
 1.23758
 4.31991
 4.37934
 4.14031
 4.31739
 10.249
 10.0976
 10.1289
 10.2529
 1.84442
 1.8899
 1.7228
 1.64867
 8.57834
 8.41763
 8.56056
 8.68844
 10.2226
 10.3122
 10.3576
 10.2332
 3.62573
 3.69458
 3.79877
 3.69963
 1.87093
 1.60631
 1.80824
 1.91681
 5.73323
 5.6935
 5.77886
 5.82767
 3.88603
 4.12058
 3.82903
 4.083
 8.35864
 8.54161
 8.44024
 8.47852
 5.37818
 5.45261
 5.38389
 5.21309
 7.32485
 7.38396
 7.25209
 7.23664
 8.97509
 8.90138
 9.00827
 9.00966
 9.50396
 9.53444
 9.54397
 9.41233
 6.72245
 6.79064
 6.6206
 6.84949
 6.18838
 6.19935
 6.25523
 6.37402
 8.40252
 8.42616
 8.30805
 8.27488
 8.43078
 8.64253
 8.44545
 8.47178
 4.92946
 4.90043
 5.0481
 5.04137
 2.09457
 2.22565
 1.94224
 1.8854
 2.48143
 2.61534
 2.44204
 2.3943
 2.59549
 2.83242
 2.78033
 2.64836
 4.50296
 4.62368
 4.45239
 4.63745
 8.43683
 8.65155
 8.49013
 8.55117
 8.35994
 8.24409
 8.2029
 8.17576
 6.24836
 6.33925
 6.54258
 6.57381
 4.34727
 4.45129
 4.16483
 4.29982
 4.43195
 4.54541
 4.46916
 4.32365
 5.75373
 5.92417
 5.79365
 5.75773
 5.1666
 4.99995
 5.21085
 5.17486
 9.32414
 9.34118
 9.26081
 9.12747
 11.6818
 11.7648
 11.6687
 11.8169
 7.99228
 8.00764
 8.18207
 8.07885
 11.3049
 11.1602
 11.1953
 8.08678
 8.12689
 8.0288
 8.21023
 2.82527
 2.96423
 2.87346
 3.00896
 5.93898
 5.84956
 5.7985
 5.65726
 2.30327
 2.39293
 2.15873
 2.42482
 8.4803
 8.45572
 8.62754
 8.48448
 4.51881
 4.54595
 4.23902
 4.31737
 5.69935
 5.72546
 5.93299
 5.81765
 1.57864
 1.45132
 1.39107
 1.75985
 3.5582
 3.59956
 3.5097
 3.32482
 7.95991
 7.79627
 7.90677
 7.96643
 4.47337
 4.49641
 4.68185
 4.45718
 3.21712
 3.5355
 3.36095
 3.48875
 10.1939
 10.3614
 10.3086
 10.3514
 5.99187
 5.92138
 5.80778
 5.78297
 3.24298
 3.16246
 3.11855
 3.29257
 4.99957
 4.82751
 5.12762
 4.72114
 3.27863
 3.50245
 3.25102
 3.26837
 8.29654
 8.14987
 8.0654
 8.08023
 3.4933
 3.11177
 3.5219
 3.18667
 6.80937
 6.71476
 6.99743
 6.81997
 6.46207
 6.38809
 6.27129
 6.50283
 3.58401
 3.65421
 3.8069
 3.48118
 0.956689
 1.12243
 1.13209
 1.01246
 9.35301
 9.26751
 9.1869
 9.1378
 7.53755
 7.3821
 7.3016
 7.49813
 5.29159
 5.41349
 5.49839
 5.44421
 3.6297
 3.48882
 3.53093
 3.47669
 7.93128
 8.06216
 8.00204
 7.98949
 9.05828
 8.8867
 8.80603
 9.02136
 4.34291
 4.32981
 4.59116
 4.56539
 4.86721
 4.69836
 4.87492
 4.79924
 1.78392
 1.60124
 1.43703
 1.7715
 8.69024
 8.49019
 8.73156
 8.59789
 1.91918
 1.73331
 1.76739
 1.8846
 7.55784
 7.3768
 7.50258
 7.55931
 11.5868
 11.6034
 11.5424
 11.5128
 2.68781
 2.5686
 2.45292
 2.55148
 4.71295
 4.6016
 4.81986
 4.99839
 2.7698
 2.74475
 2.88397
 2.90301
 6.33331
 6.53333
 6.39149
 6.31116
 6.71402
 6.61856
 6.58011
 6.68838
 3.85832
 4.10966
 4.08272
 4.00274
 8.46214
 8.38265
 8.53851
 8.42655
 8.75249
 8.6627
 8.64812
 8.71967
 10.8106
 10.8798
 10.8919
 10.9189
 5.60323
 5.47562
 5.39572
 5.31148
 6.15219
 6.23364
 5.93432
 6.13604
 5.07365
 5.37149
 5.1652
 5.01579
 7.44735
 7.2032
 7.17966
 7.482
 1.96337
 1.97785
 1.84164
 2.18952
 1.85968
 1.5114
 1.85125
 1.90423
 4.90892
 4.81445
 4.65531
 4.64195
 12.4386
 12.458
 12.4157
 12.3417
 6.82749
 6.9328
 6.79494
 7.02398
 6.73773
 6.78513
 6.97784
 6.78434
 6.83678
 6.79673
 7.01384
 7.00261
 3.63411
 3.72647
 3.458
 3.75119
 10.4681
 10.3163
 10.5521
 10.4714
 10.9206
 10.935
 11.0337
 11.0856
 3.49392
 3.65184
 3.49317
 3.72234
 7.71336
 7.50326
 7.79069
 7.53464
 7.17578
 7.21194
 7.13974
 7.132
 4.72612
 4.81415
 4.88523
 5.0783
 8.65634
 8.56685
 8.50786
 8.59468
 3.48285
 3.66294
 3.63869
 3.47181
 7.40302
 7.6942
 7.55954
 7.78491
 7.64914
 7.67592
 7.81555
 7.69384
 9.06735
 9.15417
 8.9909
 9.17017
 6.99123
 6.76793
 6.89855
 6.74186
 3.07175
 2.95934
 2.97925
 3.13036
 4.5287
 4.30788
 4.23182
 4.43617
 8.61186
 8.6336
 8.49195
 8.49091
 7.95648
 7.75138
 7.75061
 7.94828
 2.48828
 2.39954
 2.25137
 2.34725
 3.62881
 3.79511
 3.70152
 3.75649
 6.67533
 6.74659
 6.8577
 6.74105
 9.20242
 9.16689
 9.17738
 9.11494
 9.91809
 9.69132
 9.74025
 9.88682
 4.84043
 5.04235
 5.1329
 4.94758
 8.89563
 9.04104
 8.90391
 9.19787
 2.77472
 3.03936
 3.02778
 2.79663
 5.30484
 5.03688
 5.1925
 5.35561
 3.40136
 3.46275
 3.54282
 3.44826
 4.3976
 4.64683
 4.62591
 4.47321
 6.77655
 6.88266
 6.76673
 6.64771
 8.31027
 8.58538
 8.52134
 8.40429
 9.66937
 9.44496
 9.64165
 9.61973
 9.14469
 9.34144
 9.12796
 9.19126
 8.3641
 8.53833
 8.57093
 8.47702
 6.48082
 6.41566
 6.42597
 6.72315
 6.50543
 6.41469
 6.42782
 6.5963
 6.30324
 6.46166
 6.15906
 6.32535
 4.9541
 5.06876
 4.87601
 4.91281
 10.3523
 10.5006
 10.4373
 10.4505
 5.82552
 5.77479
 5.86003
 5.66598
 8.643
 8.80837
 8.73692
 8.69714
 7.21671
 6.98155
 7.15231
 7.02541
 2.01035
 2.36992
 2.06472
 2.16025
 6.49476
 6.58741
 6.59365
 6.67373
 8.92899
 9.01535
 8.96592
 9.13665
 7.15761
 7.19987
 7.05794
 6.96426
 8.26435
 8.17115
 8.18065
 8.32035
 6.66506
 6.888
 6.65862
 6.83682
 10.2889
 10.4038
 10.3483
 10.2366
 7.20262
 7.18878
 7.048
 7.02505
 4.79293
 4.84543
 4.69566
 4.84691
 5.11608
 5.09522
 5.01437
 5.08359
 2.32532
 2.74505
 2.41293
 2.5738
 7.93352
 7.95852
 7.79875
 7.91159
 8.30439
 8.19475
 8.32424
 8.02966
 2.34432
 2.63168
 2.34428
 2.39666
 8.24628
 8.24233
 8.07019
 8.2396
 3.15849
 3.24035
 3.01258
 3.25713
 5.88223
 5.60784
 5.77313
 5.6494
 6.5058
 6.76765
 6.52513
 6.46161
 8.40471
 8.23229
 8.25498
 8.40962
 6.65969
 6.65935
 6.43964
 6.64785
 3.06816
 3.13867
 3.0457
 3.02015
 11.6776
 11.6344
 11.6009
 11.7623
 9.26376
 9.29647
 9.29706
 9.24869
 9.12752
 9.0999
 9.13237
 9.24054
 7.70533
 7.62831
 7.79501
 7.55513
 7.22316
 7.36596
 7.25804
 7.34299
 7.87556
 7.96873
 8.00956
 7.8577
 1.77282
 1.87406
 1.51565
 1.90003
 8.47497
 8.58281
 8.57111
 8.35383
 5.12683
 5.10816
 5.03469
 5.2453
 6.39589
 3.52065
 3.75118
 3.71158
 3.75416
 5.37164
 5.20356
 5.06158
 5.18916
 9.46164
 9.37127
 9.33641
 9.40391
 7.54969
 7.6241
 7.48804
 7.37542
 8.02958
 8.19531
 8.08119
 8.06134
 3.07384
 3.30476
 3.26757
 3.2426
 7.01959
 7.28777
 7.09905
 7.17754
 2.86715
 2.83056
 3.07906
 3.0428
 4.48331
 4.35718
 4.57403
 4.30197
 9.39508
 9.29257
 9.35259
 9.1677
 8.40037
 8.57248
 8.28896
 8.40543
 4.91533
 4.78366
 4.75635
 4.90893
 6.60688
 6.83647
 6.5967
 9.01399
 9.08844
 9.03058
 8.95092
 4.86209
 5.20572
 4.97931
 5.14629
 8.07953
 8.26828
 8.24193
 8.14503
 6.6518
 6.91752
 6.78054
 6.6291
 2.56809
 2.56884
 2.88622
 2.62308
 7.74041
 7.81006
 7.91196
 7.76862
 3.56575
 3.82284
 3.61521
 3.53407
 6.32335
 6.45725
 6.3297
 6.54029
 3.97906
 4.11867
 4.3036
 4.17548
 2.81061
 2.80698
 2.55739
 2.67014
 7.63071
 7.65615
 7.52082
 7.53288
 11.6095
 11.4251
 11.4463
 11.3503
 1.46629
 1.61355
 1.60744
 1.64951
 5.05116
 5.14403
 5.23197
 5.11571
 8.68197
 8.70129
 8.40481
 8.63556
 7.19339
 7.05066
 7.02329
 7.20339
 10.0793
 10.0399
 10.0532
 10.1722
 2.82434
 2.69715
 2.42725
 2.64124
 9.09016
 9.18816
 9.13751
 9.11972
 5.71118
 5.52998
 5.79683
 5.66107
 8.51409
 8.81561
 8.57754
 8.59149
 1.22977
 1.27012
 1.25296
 1.49339
 1.48265
 1.53931
 1.68264
 1.83474
 4.33639
 4.53631
 4.59389
 4.29
 5.58919
 5.51533
 5.57046
 5.71887
 5.53212
 8.82491
 8.7934
 8.97541
 8.85712
 8.6004
 8.66095
 8.71352
 8.54929
 4.80641
 4.61627
 4.60674
 4.58917
 8.88645
 8.75617
 8.75386
 8.89348
 8.24921
 8.30084
 8.32467
 8.17148
 4.42667
 4.35083
 4.38328
 4.58068
 7.5195
 7.31023
 7.51856
 7.31638
 4.77756
 4.75964
 4.73353
 4.58706
 8.17489
 8.21538
 8.34335
 8.19466
 7.74686
 7.63133
 7.59508
 7.57802
 6.87873
 6.69428
 6.94662
 6.7579
 5.63811
 5.41779
 5.53965
 5.33094
 3.77502
 3.88203
 3.56725
 3.61102
 5.85585
 5.91266
 6.01869
 5.99495
 5.89887
 5.79559
 5.74732
 5.78953
 9.46455
 9.4684
 9.38628
 9.33625
 5.09219
 5.06384
 4.9723
 5.0375
 6.3838
 6.34256
 6.25696
 6.39203
 6.17052
 6.18882
 6.31916
 6.20909
 7.4864
 7.43748
 7.62196
 7.5042
 9.02774
 9.04449
 8.96279
 9.1712
 4.16018
 4.20663
 4.09001
 4.0393
 8.97099
 9.08774
 9.047
 8.85718
 1.7446
 1.76458
 1.47218
 1.64105
 3.66766
 3.81602
 3.54881
 3.64456
 3.55499
 3.52379
 3.51562
 3.59208
 3.31302
 3.39943
 3.42464
 3.18864
 4.50935
 4.41146
 4.60524
 4.40961
 10.0658
 10.1511
 10.2944
 5.96764
 6.232
 6.0066
 6.04262
 3.79729
 3.88401
 3.95067
 3.80843
 7.58447
 7.77745
 7.67419
 7.62912
 8.18614
 8.13869
 8.24949
 8.11657
 4.39027
 4.35519
 4.196
 4.57236
 6.91105
 6.95926
 6.89052
 6.73211
 8.03667
 8.02415
 8.08863
 8.11222
 1.84687
 1.56698
 5.18781
 5.21666
 5.42347
 5.3968
 6.80538
 6.86326
 6.96937
 5.7941
 5.73144
 5.76539
 5.9527
 9.7035
 9.75648
 9.59558
 9.61481
 3.56229
 3.40636
 3.40905
 3.64421
 5.86014
 5.9101
 6.02124
 5.99612
 7.60244
 7.75002
 7.66549
 7.51325
 6.07532
 6.26888
 6.20693
 6.12242
 8.94603
 9.02388
 8.89085
 8.95872
 9.30298
 9.04413
 9.23308
 9.18535
 6.92421
 6.77891
 6.72396
 6.82936
 8.87208
 8.90888
 8.88633
 8.76622
 6.67924
 6.77483
 6.73726
 6.80759
 3.27548
 3.32643
 3.56438
 3.5904
 8.78717
 8.69457
 8.62981
 8.72852
 10.7668
 10.6392
 10.7201
 10.6488
 5.32182
 5.67879
 5.46673
 5.39251
 7.13965
 7.01224
 7.17025
 7.01381
 8.95842
 8.98317
 8.83245
 8.86367
 6.78915
 6.88617
 6.69368
 6.71934
 2.66405
 2.73386
 2.59934
 2.64294
 8.33803
 8.34829
 8.42703
 8.34777
 5.41217
 5.53876
 5.53455
 5.59207
 7.22753
 7.02996
 7.16652
 6.91783
 4.57986
 4.43575
 4.45339
 4.30087
 3.3445
 3.37129
 3.25391
 3.44431
 8.70611
 8.57417
 8.65982
 8.43108
 7.81238
 7.68615
 7.71889
 7.75628
 5.62212
 5.64299
 5.8822
 5.73095
 9.0381
 8.97842
 9.0014
 8.95358
 11.5963
 11.706
 11.6972
 11.6307
 6.11595
 6.27897
 6.28073
 6.30208
 11.8648
 11.8963
 11.8419
 11.756
 11.6374
 11.5008
 11.5058
 11.5724
 9.62972
 9.53449
 9.55276
 9.67271
 5.0588
 5.19917
 5.31992
 5.39423
 5.17663
 5.0123
 5.00432
 4.86999
 4.87531
 5.03307
 4.91168
 5.12508
 5.3824
 5.59303
 5.54965
 5.30956
 10.2538
 10.3586
 10.284
 10.3052
 8.69866
 8.77659
 8.60579
 8.67106
 8.72129
 8.90294
 8.87155
 8.84808
 7.4622
 7.27032
 7.45098
 7.25234
 5.87898
 5.9934
 5.87145
 5.96008
 4.56628
 4.60162
 4.69204
 4.52978
 8.46037
 8.28157
 8.24306
 8.42219
 5.01397
 6.79251
 6.6542
 6.65436
 6.76149
 1.44019
 1.38367
 1.12716
 1.28682
 7.06851
 7.05571
 6.92733
 7.05186
 2.89104
 2.623
 2.81935
 8.80932
 8.72334
 8.66554
 8.83662
 11.2934
 11.1714
 11.2207
 11.1447
 6.5616
 6.5829
 6.36229
 6.686
 7.50468
 7.73147
 7.681
 7.70756
 8.87216
 8.76942
 8.67531
 8.63126
 8.59419
 8.53949
 8.67431
 8.52166
 9.81337
 10.0158
 9.89401
 9.89304
 5.65682
 5.69173
 5.55844
 5.28791
 6.62575
 6.43474
 6.67326
 6.52151
 7.95141
 8.09982
 7.95913
 8.01764
 6.89239
 7.02759
 6.68621
 4.18125
 4.29511
 4.33457
 8.32619
 8.30996
 8.51453
 8.55052
 9.81555
 9.87215
 9.8685
 9.81922
 8.05528
 7.94666
 7.95918
 8.09285
 9.66313
 9.80074
 9.63428
 9.85603
 4.07111
 3.76278
 3.99014
 3.92775
 4.35612
 4.2733
 4.21006
 4.08544
 9.0391
 9.09703
 9.07001
 9.09012
 9.97367
 10.1558
 10.0336
 9.98153
 6.04917
 6.29679
 6.09094
 6.18844
 2.07626
 2.28016
 1.98318
 2.23301
 9.76845
 9.7721
 9.84637
 9.76128
 5.03019
 5.23276
 5.24659
 4.98929
 10.8623
 10.9445
 10.8543
 10.9142
 4.5854
 4.46266
 4.63285
 4.30297
 7.33332
 7.47448
 7.2572
 7.51621
 4.09686
 4.08688
 3.88026
 3.90056
 8.85643
 8.80363
 8.77548
 8.63206
 7.65303
 7.79406
 7.77345
 7.78517
 8.24788
 8.30502
 8.13786
 8.14139
 8.11019
 8.17048
 7.98181
 8.25356
 6.11814
 5.99609
 6.0233
 6.1923
 7.02395
 7.17467
 6.99918
 7.01079
 3.77455
 3.95549
 4.07172
 4.00538
 1.72822
 1.54489
 1.94862
 1.96349
 7.19863
 7.21833
 7.34838
 7.23566
 3.29698
 3.37455
 3.47275
 3.15422
 4.71841
 4.44776
 4.33912
 4.48339
 10.2772
 10.3492
 10.4809
 10.3003
 9.02473
 8.7565
 8.81002
 8.89225
 7.38744
 7.50751
 7.5557
 7.48726
 9.75626
 9.85564
 9.88473
 9.95659
 5.94141
 5.73857
 5.76502
 5.84969
 4.08161
 3.71612
 3.91804
 3.87779
 9.67056
 9.4679
 9.65616
 9.67314
 6.83585
 6.68615
 6.79419
 6.76405
 8.06031
 8.07972
 8.07413
 8.15588
 11.5368
 11.4408
 11.4185
 11.5234
 7.68005
 7.70725
 7.71814
 7.56609
 6.63902
 6.52032
 6.55134
 6.4952
 4.84522
 4.65415
 4.78141
 4.59619
 8.23565
 8.19601
 8.15938
 6.61836
 6.65269
 6.70133
 6.65571
 7.78865
 7.85056
 7.58763
 7.74473
 5.18513
 5.36623
 5.20556
 5.28443
 5.11721
 4.89942
 4.95023
 4.98133
 2.91277
 3.08251
 2.9705
 3.21713
 8.58763
 8.58029
 8.47146
 8.61552
 2.14781
 2.07714
 1.9875
 2.10061
 8.33502
 8.19114
 8.3182
 8.40242
 6.64681
 6.44502
 6.47039
 6.35869
 6.40928
 6.61429
 6.53535
 6.64731
 11.7472
 11.8547
 11.7518
 11.78
 7.86943
 7.97251
 7.8554
 7.82848
 6.72693
 6.76652
 6.59867
 6.39738
 6.87605
 6.82541
 6.79352
 7.02942
 1.45313
 1.46714
 1.67868
 1.51042
 8.34137
 8.17271
 8.07555
 8.29462
 8.12147
 8.2189
 8.03673
 8.26165
 4.69207
 4.47521
 4.64789
 4.54532
 8.75805
 8.78771
 8.87667
 8.89214
 8.79413
 8.82643
 8.72791
 8.83861
 5.23376
 5.47865
 5.2562
 5.39808
 5.13836
 5.13437
 5.30424
 5.13141
 6.27382
 6.25321
 5.97903
 6.08903
 8.18831
 8.26941
 5.65031
 5.80336
 5.56028
 5.76037
 8.14982
 8.06021
 8.1514
 8.10883
 7.27058
 7.08629
 7.02391
 7.084
 2.79288
 2.92362
 3.02045
 2.76367
 7.11429
 7.06011
 6.97064
 6.93629
 4.32995
 4.17842
 4.09146
 4.3842
 8.41872
 8.15491
 8.24729
 8.1683
 7.54901
 7.7061
 7.7294
 7.65571
 6.77351
 6.46548
 6.63042
 6.59326
 8.65574
 8.79378
 8.84781
 8.74963
 10.6818
 10.6306
 10.6995
 10.7689
 2.33885
 2.38982
 2.48377
 2.39925
 9.67724
 9.68784
 9.61992
 9.72899
 5.82258
 5.74679
 5.93994
 5.92802
 10.6855
 10.6707
 10.6031
 10.7389
 5.77092
 5.58027
 5.70816
 5.73215
 8.30422
 8.32222
 8.37755
 8.3562
 8.36809
 8.32232
 8.47681
 8.38393
 6.20629
 6.13585
 6.35093
 6.21773
 3.64326
 3.86266
 3.68067
 3.90311
 7.61107
 7.35265
 7.39586
 7.39481
 9.07537
 9.12366
 9.06777
 8.99669
 3.72509
 3.4205
 3.57081
 3.35498
 8.27572
 8.38575
 8.1866
 8.17024
 7.4912
 7.32552
 7.36994
 7.26834
 4.64509
 4.25217
 4.3435
 4.47365
 6.38427
 6.208
 6.15721
 6.15444
 6.97065
 7.04615
 6.95026
 6.85666
 2.81916
 2.67435
 2.56156
 2.48407
 3.6147
 3.53137
 3.54743
 3.65102
 5.9982
 5.96134
 6.20517
 6.1077
 6.98684
 6.88912
 7.06014
 6.69485
 7.8553
 7.79978
 7.79063
 7.57447
 9.07618
 9.0881
 9.2011
 4.35294
 4.2342
 4.26771
 4.11045
 10.7698
 10.8529
 10.9724
 10.9419
 4.95122
 5.19711
 5.0652
 5.11452
 8.55512
 8.75358
 8.64596
 8.6318
 8.8894
 9.04198
 8.99772
 9.01601
 3.27889
 3.4962
 3.38946
 3.09443
 6.43134
 6.5381
 6.36364
 6.48768
 6.85593
 6.91682
 8.167
 7.2138
 7.03509
 7.24627
 7.12854
 10.6857
 10.5792
 5.27361
 5.19596
 5.12301
 9.35002
 9.27001
 9.45951
 9.3475
 5.11178
 5.3269
 5.26168
 5.25213
 7.48737
 7.32034
 7.36931
 7.38526
 8.23088
 7.98732
 8.1322
 8.10476
 2.97593
 2.97302
 2.68583
 2.89635
 9.31405
 9.17306
 9.32672
 9.15782
 5.50097
 5.50076
 5.43977
 5.32322
 2.40809
 2.36359
 2.63143
 2.63114
 6.46437
 6.66218
 6.49911
 6.62618
 5.39134
 5.68349
 5.58728
 5.59302
 6.82015
 6.66957
 6.80071
 7.06297
 1.39451
 1.82981
 1.46325
 1.83135
 1.7868
 1.77082
 1.89315
 2.07506
 2.1652
 2.26991
 2.27764
 2.14176
 7.26007
 7.40955
 7.23843
 7.25951
 5.91181
 6.15633
 6.06095
 5.95522
 7.0311
 7.05478
 7.18048
 7.08215
 7.35436
 7.40351
 7.19314
 7.41636
 5.03139
 4.97349
 4.94339
 5.16536
 3.74722
 3.50965
 3.61009
 3.47632
 3.68574
 3.60036
 3.81907
 3.50186
 6.41614
 6.3187
 6.4557
 6.33642
 6.93529
 6.92973
 6.99188
 7.07453
 8.36167
 8.45073
 8.39654
 8.22433
 4.47557
 4.29658
 4.28814
 4.538
 9.68727
 9.67415
 9.8089
 9.63202
 4.25709
 4.13487
 4.2641
 4.29998
 6.15578
 5.85205
 6.13525
 5.92129
 6.2416
 6.18004
 6.20737
 6.35292
 9.17276
 9.18894
 9.2606
 9.37637
 12.0551
 11.9699
 12.0884
 12.0748
 7.79215
 7.62809
 7.78947
 7.75465
 4.19106
 4.44346
 4.35456
 4.19916
 8.85132
 8.99388
 8.89159
 8.7849
 5.89353
 5.79222
 6.01405
 5.78738
 5.66889
 5.52504
 5.33672
 5.40832
 4.65894
 4.55289
 4.84976
 4.76011
 9.96897
 10.0488
 10.0514
 9.94608
 9.93095
 9.91195
 9.97714
 10.0064
 4.14766
 3.84834
 3.95684
 3.99704
 5.00803
 5.29207
 5.30797
 5.13051
 7.90128
 7.87754
 7.96937
 7.96246
 6.76197
 6.81532
 6.64858
 6.55303
 6.23409
 6.19463
 6.21043
 6.30622
 7.92167
 8.04595
 7.77623
 7.99831
 5.41206
 5.53632
 5.49613
 5.63631
 0.629281
 0.89379
 0.691574
 0.652377
 5.7562
 5.5202
 5.54715
 5.42145
 6.72176
 6.63352
 6.76232
 6.54324
 6.66122
 6.67196
 6.82629
 6.66258
 6.20333
 6.07412
 6.18355
 6.3443
 2.15801
 2.15593
 2.34931
 2.17586
 3.81144
 3.99787
 3.878
 5.45783
 5.45735
 5.34427
 5.48485
 9.04497
 9.06381
 8.93193
 9.07717
 7.32854
 7.3229
 7.45872
 7.2721
 3.75123
 4.02121
 4.08792
 4.01046
 8.35866
 8.29825
 8.26704
 8.19904
 7.60631
 7.7252
 7.73831
 7.56508
 7.38384
 7.46314
 7.65577
 7.48557
 5.04392
 5.18224
 5.23094
 5.21325
 6.09979
 6.25288
 6.07908
 6.39686
 5.44768
 5.78469
 5.65755
 5.60368
 8.77806
 8.70033
 8.68403
 8.75003
 7.53839
 7.42551
 7.38785
 7.55023
 5.23822
 5.38271
 5.20087
 5.03319
 7.66838
 7.59595
 7.50155
 7.73977
 5.76213
 5.57628
 5.57789
 5.67992
 8.85505
 8.91004
 8.81653
 8.93481
 2.61926
 2.54318
 2.78068
 2.62006
 8.41587
 8.52264
 8.36741
 8.30592
 8.57469
 8.86062
 8.6827
 8.68155
 4.65416
 4.65198
 4.50673
 4.45705
 8.41184
 8.37689
 8.34514
 8.36306
 5.69486
 5.7803
 5.69654
 5.88683
 9.2528
 9.23555
 9.4165
 9.38384
 6.24117
 6.33596
 6.29821
 6.11438
 2.98192
 2.62658
 2.91898
 2.72663
 6.12248
 6.3732
 6.37422
 6.24239
 4.74055
 4.65005
 4.7329
 4.74945
 5.70713
 5.78139
 5.72363
 5.6233
 5.76301
 5.70143
 5.64323
 5.49909
 2.26983
 2.24338
 2.16022
 2.50001
 8.69123
 8.78632
 8.86182
 8.87944
 8.50893
 8.57567
 8.70924
 8.58206
 3.4091
 3.39016
 3.5286
 3.21813
 3.01665
 2.89583
 3.02822
 8.02664
 8.09255
 8.10039
 7.98585
 5.6539
 5.43636
 5.63384
 5.66452
 5.89619
 5.83234
 6.02974
 5.80795
 8.57727
 8.44921
 8.66965
 8.56031
 4.64725
 4.50469
 4.55568
 4.51677
 6.87791
 7.0681
 7.04897
 6.8506
 6.19181
 6.39208
 6.36533
 6.42531
 4.47325
 4.31449
 4.2857
 4.33614
 9.17806
 9.23883
 9.1657
 9.09206
 7.96514
 8.14974
 8.10767
 8.10492
 2.11048
 2.42875
 2.17409
 2.26443
 8.69025
 8.71351
 8.66392
 8.44838
 9.16427
 9.23158
 9.20252
 9.1858
 6.82908
 6.75574
 6.84441
 6.60407
 10.6931
 10.6467
 10.7371
 10.5628
 6.42049
 6.38576
 6.48019
 6.40059
 4.2911
 4.38476
 4.44303
 4.48118
 3.64472
 3.78318
 3.71856
 9.32896
 9.31023
 9.26084
 9.31424
 8.35962
 8.18298
 8.39275
 8.22375
 8.58612
 8.63971
 8.70824
 8.75303
 8.10239
 8.22195
 8.14725
 8.18385
 1.89891
 1.75765
 1.66906
 1.72203
 9.09828
 9.08943
 9.13991
 9.23555
 8.23003
 8.35186
 8.2514
 8.0773
 3.79729
 3.67236
 3.80904
 3.89494
 7.61517
 7.67637
 7.55939
 8.08387
 8.24633
 8.11476
 6.05544
 6.21816
 6.36324
 10.4184
 10.2657
 10.2406
 10.3651
 6.3786
 6.27613
 6.35203
 6.20796
 6.4484
 6.35417
 6.61219
 6.56088
 3.34401
 3.21259
 3.43574
 3.47586
 2.77156
 2.85373
 2.4572
 2.8258
 8.70074
 8.82913
 8.84527
 8.59453
 5.97965
 5.77733
 5.76929
 5.8276
 5.97517
 5.82897
 5.74771
 5.8066
 6.8529
 6.62844
 6.72664
 6.57681
 7.71592
 7.63569
 7.61873
 7.83004
 6.0315
 6.21538
 6.09915
 6.01399
 8.74323
 8.70547
 8.77399
 8.661
 3.1192
 3.20529
 3.10699
 3.05285
 8.11443
 8.1457
 8.06995
 7.98432
 3.65492
 3.84882
 3.72602
 3.70589
 2.55394
 2.68767
 2.82628
 2.60462
 2.83296
 2.90196
 2.9089
 2.96485
 8.40766
 8.51787
 4.91416
 4.95553
 5.08767
 4.98908
 8.60968
 8.40432
 8.50819
 8.57189
 4.37966
 4.02946
 4.1506
 4.07674
 3.6245
 3.81026
 3.54345
 3.7895
 7.855
 7.7457
 7.72222
 7.80733
 6.12742
 6.14394
 5.97465
 6.05502
 8.14268
 8.12944
 8.01206
 8.1253
 7.20748
 7.21023
 7.18059
 7.03233
 11.386
 11.1972
 11.4227
 11.2558
 3.06482
 3.18523
 2.88559
 3.10693
 8.03589
 8.17409
 7.99562
 7.91991
 9.32439
 9.43501
 9.42951
 9.278
 7.01025
 7.08613
 6.91782
 6.86057
 9.19778
 9.39159
 9.43721
 9.19652
 7.13525
 7.32393
 7.37247
 7.21906
 4.85716
 4.92473
 4.69777
 4.99843
 6.73642
 6.85736
 6.85748
 6.78369
 3.3169
 2.98216
 3.30992
 6.97728
 6.80809
 7.0328
 6.84129
 11.4381
 11.5004
 11.4925
 11.5468
 1.69066
 1.62046
 1.5385
 1.6961
 6.29411
 6.318
 6.21082
 6.34984
 4.34943
 4.4885
 4.65124
 4.43495
 8.78579
 8.6483
 8.98315
 8.83761
 7.73828
 7.60754
 7.86867
 7.71438
 7.73039
 7.49164
 7.62028
 7.50262
 2.83511
 2.99302
 2.79952
 2.6613
 7.55023
 7.68269
 7.77805
 7.72786
 1.79794
 1.87726
 1.73418
 2.00019
 5.03198
 5.25067
 5.25531
 5.01427
 8.69326
 8.65835
 8.59828
 8.68217
 10.7661
 10.727
 10.6182
 10.8046
 7.1607
 7.401
 7.25652
 7.44643
 6.64846
 6.64866
 6.49438
 6.6828
 4.68498
 4.6883
 4.79909
 4.97499
 11.2845
 11.3993
 11.2309
 11.3128
 7.14381
 7.27431
 7.05079
 7.11467
 2.21416
 2.36393
 2.39949
 2.35012
 4.01323
 3.83756
 3.91063
 3.9822
 3.95571
 3.97619
 3.78645
 4.03859
 4.02953
 4.1974
 4.25093
 4.16286
 3.89141
 3.61679
 3.77656
 3.79839
 5.73966
 5.66272
 5.74308
 5.74664
 8.49332
 8.24527
 8.07866
 8.04611
 8.15705
 5.22201
 5.44766
 5.36847
 5.38274
 5.25919
 5.20605
 5.45889
 5.42451
 9.82906
 9.75864
 9.773
 9.82912
 3.39663
 3.39693
 3.49453
 3.39215
 4.39829
 4.22724
 4.0276
 4.16777
 8.71329
 8.49409
 8.53141
 8.30266
 8.30361
 8.33832
 8.22946
 8.1254
 8.16461
 8.0555
 8.43423
 8.6146
 8.83472
 8.70512
 5.2707
 5.062
 5.11927
 5.31112
 2.12078
 2.06752
 2.16669
 2.06366
 6.65955
 6.74306
 6.61779
 6.83429
 2.69126
 3.04076
 3.14426
 3.16763
 7.1028
 7.14326
 7.21745
 7.03648
 5.22368
 5.40046
 5.51453
 5.48606
 8.58603
 8.61364
 8.64384
 8.7688
 6.06892
 5.85811
 6.14638
 5.97781
 5.71945
 5.50196
 5.39274
 5.69554
 8.44309
 8.51226
 8.64881
 8.57735
 7.60688
 7.71197
 7.39644
 7.50662
 7.01768
 7.04101
 7.17598
 7.27088
 5.93988
 5.85546
 5.93146
 5.83913
 9.55127
 9.53294
 9.4803
 9.36855
 5.46706
 5.66655
 5.55356
 5.42264
 7.5721
 7.77187
 7.54073
 7.45082
 4.94379
 4.98932
 4.9481
 5.08923
 3.30072
 3.4935
 3.33573
 3.43071
 2.64882
 2.78602
 2.78729
 2.72043
 2.73271
 2.59318
 2.96513
 1.72409
 1.59068
 1.48937
 1.39991
 3.90725
 4.13102
 4.34407
 4.068
 6.69912
 6.73851
 6.60857
 6.63608
 2.55028
 2.69554
 2.83267
 2.59261
 6.43481
 6.42075
 6.52767
 6.553
 5.83764
 5.73568
 5.7906
 3.04941
 2.85651
 2.97278
 2.99395
 3.18197
 3.39187
 3.30608
 6.05804
 6.12428
 5.96786
 5.91389
 7.66938
 7.58926
 7.69342
 7.47156
 5.09535
 5.24498
 5.29756
 5.32823
 2.78547
 2.63354
 2.7464
 2.8364
 8.19228
 8.23761
 8.16215
 8.31193
 6.79855
 6.85732
 6.97996
 7.02868
 6.51468
 6.26006
 6.52146
 6.50525
 4.83359
 5.02538
 4.88933
 4.87224
 8.26192
 8.36776
 8.14454
 8.3379
 8.81353
 8.93195
 8.80207
 8.82507
 6.6216
 6.62055
 6.64799
 6.47807
 1.90865
 2.04225
 2.06494
 2.02179
 8.03751
 8.21929
 8.01443
 8.12317
 8.67766
 8.54673
 8.72155
 8.55643
 5.51528
 5.76563
 5.51261
 5.54524
 8.09863
 8.02874
 8.12343
 8.79919
 8.66953
 8.72535
 5.88667
 6.02555
 5.73581
 5.96093
 8.57717
 8.64047
 8.75143
 8.58814
 8.656
 8.82709
 8.6893
 8.69202
 5.43737
 5.38288
 5.48587
 8.43057
 8.45509
 3.49696
 3.45471
 3.14706
 3.1148
 5.10188
 4.81681
 4.82451
 4.91862
 9.58907
 9.4777
 9.68346
 9.43654
 10.445
 10.3952
 10.5484
 10.4018
 8.01577
 8.29894
 8.13118
 8.11106
 3.09076
 3.09296
 2.97655
 3.06834
 5.13875
 5.27555
 5.36533
 5.28387
 9.23397
 9.26817
 9.27624
 9.29645
 8.10704
 8.09392
 8.00942
 7.89906
 8.04263
 8.00596
 8.04356
 8.44704
 8.33535
 8.31612
 8.31893
 8.34697
 8.46053
 8.31012
 8.26794
 8.76046
 8.92714
 8.79377
 8.90083
 2.50537
 2.30793
 2.4593
 2.45555
 2.59984
 2.40055
 2.72597
 6.73045
 6.85059
 6.70744
 6.90636
 8.1609
 8.36189
 8.13219
 8.18914
 1.68505
 1.51939
 8.78696
 8.89057
 8.86346
 8.95471
 6.15889
 5.8492
 6.05057
 5.90725
 5.57399
 5.64397
 8.58161
 8.61634
 8.46441
 8.57417
 2.49954
 2.34188
 2.58618
 2.19691
 1.92366
 2.09118
 1.9622
 1.62834
 7.06163
 6.98574
 7.04748
 9.8056
 9.68977
 9.74405
 8.31988
 8.12156
 8.3351
 8.28944
 4.4263
 4.62088
 4.28565
 4.58959
 7.74366
 7.86175
 7.90216
 8.00177
 7.98006
 8.06739
 7.91765
 8.0976
 5.21131
 5.21884
 5.1374
 4.90974
 11.1672
 11.0759
 11.1836
 11.2871
 4.71417
 4.6753
 4.49442
 4.52796
 4.56961
 4.59539
 4.42859
 4.35332
 8.8376
 8.82917
 9.03708
 8.88324
 3.22487
 3.09678
 3.069
 3.27662
 11.4047
 11.5465
 11.5405
 11.64
 2.58216
 2.99273
 2.98069
 3.00015
 3.75485
 3.94427
 7.98205
 7.87326
 7.90272
 7.78711
 8.99712
 9.14456
 9.05715
 8.94326
 3.36968
 3.18209
 3.2199
 3.30275
 7.77506
 7.73347
 7.74473
 7.84776
 1.85326
 1.9936
 1.89741
 8.21085
 8.345
 8.40123
 9.18605
 9.01529
 8.97535
 2.72263
 2.611
 2.67725
 2.75953
 8.18201
 8.27525
 8.27989
 8.26861
 3.26708
 3.24577
 9.24015
 9.13181
 9.2458
 9.20833
 6.52956
 6.34413
 6.34975
 6.49826
 7.98007
 8.05445
 7.36668
 7.04621
 7.07976
 7.26244
 7.9096
 7.93364
 7.91851
 8.08218
 1.93378
 1.72091
 2.04496
 1.95026
 9.06876
 9.13693
 9.10416
 3.9355
 11.3396
 11.3778
 11.3671
 11.4168
 3.32377
 3.2775
 3.15799
 3.51292
 7.96133
 7.94372
 7.67212
 7.74571
 4.65152
 4.7552
 4.72471
 4.67951
 7.94755
 8.06203
 8.13117
 7.98725
 5.29539
 9.81359
 9.8513
 9.85227
 9.79588
 5.25833
 5.25911
 5.3114
 5.46223
 3.86419
 3.76734
 3.65207
 4.02852
 3.92619
 4.14982
 3.8948
 3.26388
 3.02608
 3.18734
 3.15938
 8.75348
 8.69942
 8.52365
 8.6146
 3.26667
 3.2658
 3.29706
 3.09721
 9.2877
 9.31313
 9.28341
 9.43709
 3.47649
 3.34981
 3.27575
 3.27017
 6.82327
 6.92132
 6.94474
 6.98986
 4.74549
 4.62261
 4.5571
 4.50974
 6.06775
 6.15959
 6.21703
 6.27035
 2.47113
 2.7754
 6.36204
 6.52434
 6.49261
 6.36732
 9.69229
 9.75406
 9.57846
 9.75095
 9.24521
 9.3053
 9.0975
 9.27567
 6.08566
 5.93127
 5.90305
 5.88948
 4.58098
 4.59148
 4.6206
 4.37175
 4.17471
 4.36875
 4.24389
 4.12355
 2.94993
 3.18742
 3.11589
 3.2702
 4.18502
 3.91548
 4.06387
 4.17748
 9.21758
 9.22766
 9.13154
 9.32116
 8.61995
 8.63628
 8.667
 8.4434
 1.53429
 1.70813
 1.7747
 1.7545
 5.82042
 5.72348
 5.7759
 5.49869
 8.42114
 8.22792
 8.4054
 8.29427
 10.8456
 10.8654
 10.7128
 10.9265
 3.2513
 3.15231
 3.34944
 2.93976
 8.33867
 8.30079
 8.26071
 8.15804
 7.23446
 7.08598
 7.33267
 7.19787
 9.42552
 9.46741
 9.43876
 9.32868
 5.44188
 5.54875
 5.46206
 5.44838
 2.78769
 2.77235
 2.85682
 2.79125
 5.75456
 6.02759
 5.93055
 5.97905
 7.04565
 6.99525
 6.83663
 6.92837
 9.57422
 9.50015
 9.43251
 9.63898
 2.75306
 4.98204
 4.83698
 5.06853
 4.8375
 7.20837
 7.29235
 7.43719
 7.36224
 4.46945
 4.35103
 4.38755
 4.20912
 8.3695
 8.50628
 8.43142
 8.32517
 5.526
 5.39385
 5.61039
 9.67541
 9.47421
 9.62578
 9.63194
 3.78282
 4.16297
 3.93334
 4.04634
 9.02659
 9.05487
 8.94481
 9.02824
 0.890859
 0.977038
 0.913247
 0.76885
 8.34906
 8.32438
 8.29989
 8.32697
 10.5284
 10.2321
 10.2629
 10.3731
 9.72174
 9.73882
 9.62103
 9.62197
 1.60653
 1.73447
 1.8024
 1.87377
 2.42865
 2.44307
 2.32042
 2.29408
 6.72941
 6.57074
 6.63672
 6.54738
 8.15127
 8.20234
 8.10097
 6.20738
 6.23085
 6.46964
 6.38407
 5.06033
 5.16238
 4.93056
 4.93357
 6.11737
 5.76998
 5.88703
 5.92821
 6.45884
 6.41801
 6.11376
 6.26037
 1.59687
 1.76685
 1.75939
 1.84479
 8.70929
 8.77441
 8.54735
 8.70615
 9.67947
 9.91175
 9.88681
 4.5716
 4.69634
 4.6608
 4.76528
 3.50311
 3.30494
 3.43321
 3.47583
 8.33008
 8.35785
 8.29863
 8.64915
 8.61967
 8.52883
 8.75748
 3.00454
 3.13476
 2.92408
 3.24601
 6.8347
 6.87895
 6.70194
 6.83047
 8.51991
 8.69054
 8.55126
 8.55346
 7.27208
 7.36795
 7.35154
 7.23147
 3.79209
 3.78973
 3.9743
 3.78746
 8.33066
 8.12056
 8.42855
 8.18455
 7.08176
 7.34768
 7.28753
 7.17403
 7.90933
 7.71854
 7.85712
 2.51035
 2.55288
 2.69469
 2.69823
 6.67272
 6.66262
 6.77924
 6.57841
 1.46607
 1.56739
 1.15706
 6.37614
 6.26642
 6.32058
 6.37449
 9.49482
 9.38222
 9.56796
 9.50624
 5.79633
 5.75404
 5.65292
 5.48419
 6.50567
 6.26868
 6.5694
 8.26951
 8.23078
 8.08549
 8.1596
 9.10103
 9.05186
 9.14598
 9.01568
 8.37049
 8.27053
 8.17313
 8.38085
 10.6087
 10.5708
 10.4419
 10.4224
 7.49648
 7.53731
 7.61115
 7.62911
 7.93991
 8.0114
 7.7864
 8.04755
 2.77506
 3.08537
 3.02284
 2.66783
 9.05161
 8.85608
 8.92219
 8.96619
 5.30757
 5.38586
 5.25953
 5.17785
 1.93539
 1.88965
 2.02201
 2.13106
 1.88987
 2.193
 2.05493
 1.97768
 4.00459
 3.8711
 3.99775
 3.9449
 1.85935
 1.56394
 1.59366
 2.00057
 2.80567
 2.78494
 2.81356
 1.40603
 1.76198
 1.66325
 1.66184
 9.48532
 9.55721
 9.49205
 9.60397
 7.23305
 7.4323
 7.47223
 7.40001
 7.80135
 7.611
 7.7586
 7.60084
 7.67419
 7.77854
 7.77206
 7.82142
 2.59071
 2.75157
 2.5799
 2.53083
 7.39746
 7.38951
 7.54199
 7.58706
 8.30913
 8.49005
 8.51178
 8.36106
 4.82069
 4.87674
 4.6723
 4.9441
 8.10085
 7.95455
 8.10445
 7.97699
 4.5004
 4.65819
 4.73017
 6.23726
 6.04359
 6.00157
 3.05577
 3.29283
 3.28087
 3.20245
 7.25888
 7.19154
 7.31992
 7.32072
 5.31954
 5.49257
 5.43284
 5.27831
 7.72888
 7.93263
 7.84352
 7.67489
 1.43839
 1.56359
 2.16267
 2.25147
 2.33813
 2.06946
 9.58478
 9.63956
 9.63807
 9.72733
 5.31427
 5.16148
 5.12333
 4.97705
 8.25568
 8.08416
 8.23954
 8.33188
 11.8237
 12.0144
 11.8351
 11.8928
 8.30429
 8.37715
 8.47502
 8.36564
 4.65707
 4.84797
 4.66811
 9.10973
 9.12929
 8.93267
 8.95391
 2.05715
 2.27556
 2.00724
 2.20979
 8.2537
 8.1869
 8.2398
 8.16862
 5.49879
 5.31147
 5.38262
 5.48135
 9.37434
 9.32827
 9.47643
 9.36837
 11.0243
 11.0112
 10.9709
 10.9122
 8.52988
 8.40462
 8.53251
 8.57483
 7.45852
 7.52706
 7.39815
 6.00798
 6.29799
 6.00327
 6.12601
 8.78541
 8.76414
 8.91034
 4.37187
 4.45709
 4.31988
 4.1895
 3.98755
 3.69322
 4.00333
 3.74898
 4.75766
 4.9881
 4.81228
 4.7735
 2.29584
 2.77462
 2.60857
 2.54036
 4.10369
 4.22903
 4.09742
 7.89945
 7.78323
 7.81176
 7.72675
 4.3558
 4.54114
 5.09566
 5.27768
 5.34364
 5.19198
 4.72344
 4.8014
 4.76347
 4.64655
 8.39983
 8.32527
 8.35982
 8.49983
 8.38665
 8.26758
 8.38326
 8.26144
 11.8391
 11.754
 11.7244
 11.7823
 8.40734
 8.27395
 8.40695
 7.7889
 7.85446
 7.89396
 7.83804
 6.47756
 6.47843
 6.5783
 6.61637
 7.80555
 7.645
 7.63367
 7.74788
 9.51239
 9.42822
 9.53512
 9.53226
 3.77575
 4.05433
 3.84375
 3.98312
 6.7803
 6.65055
 6.77773
 6.90228
 2.81377
 2.81139
 2.88427
 2.7507
 6.00025
 6.1641
 6.01464
 6.12716
 2.49352
 2.38209
 2.46359
 10.8904
 10.7671
 10.8111
 10.7998
 4.80356
 4.49188
 4.73361
 4.70479
 7.01206
 7.16065
 6.9792
 7.06202
 8.66392
 8.77659
 7.74093
 7.70353
 7.61691
 7.65444
 7.16577
 7.36818
 7.32861
 2.94455
 2.87204
 3.07152
 2.92454
 2.74972
 2.87328
 3.04368
 2.96212
 8.74703
 8.78421
 8.69184
 8.77019
 6.91196
 6.96208
 8.13044
 7.97045
 8.07602
 8.20895
 4.21794
 4.38536
 4.05498
 4.04237
 9.48049
 9.45524
 9.50064
 9.4105
 8.52818
 8.47793
 8.60597
 8.61764
 8.19606
 8.02344
 7.94537
 8.0314
 6.24982
 6.27305
 6.27155
 6.0176
 4.54437
 4.57124
 4.69187
 4.70382
 4.12786
 4.26572
 4.42014
 4.23138
 11.4009
 11.4239
 11.4732
 11.5165
 9.06878
 8.92216
 8.86657
 5.93064
 6.25409
 6.06288
 5.75463
 5.60002
 5.77783
 5.55544
 2.74871
 2.59117
 2.71036
 2.52078
 6.75608
 8.25059
 8.25133
 8.40991
 8.38574
 5.16628
 5.2776
 5.44317
 5.36045
 3.90575
 4.13514
 4.11755
 3.86956
 3.62264
 3.59113
 8.74273
 8.80419
 8.87526
 8.89713
 6.40759
 6.25652
 6.31228
 6.23621
 9.19507
 9.23831
 9.19543
 9.13894
 5.64935
 7.49115
 7.59613
 7.33808
 7.27636
 7.84152
 7.73033
 7.66187
 7.76727
 2.7266
 2.96008
 2.33559
 2.16646
 2.06687
 2.23945
 10.1772
 10.2913
 10.2248
 10.1759
 4.14319
 4.11125
 4.3583
 4.03117
 5.73407
 5.96378
 5.86947
 5.66593
 11.1925
 11.1533
 11.1541
 11.2441
 6.52703
 6.52086
 6.432
 6.61416
 6.67076
 6.86845
 6.97878
 6.96864
 8.70546
 8.85352
 8.6512
 8.71711
 1.68467
 1.4804
 1.46409
 1.43686
 6.84739
 7.02951
 7.00988
 7.94242
 7.78095
 7.77724
 7.92578
 2.15595
 1.86261
 2.07956
 2.0392
 7.99212
 8.08562
 8.21644
 7.95032
 7.06536
 6.94252
 3.66656
 3.66279
 3.49473
 3.84015
 5.98827
 5.96378
 5.74201
 5.7508
 2.28613
 2.41638
 2.18076
 2.2992
 6.94593
 6.67111
 8.46778
 8.40837
 8.37145
 8.38254
 8.04368
 8.01444
 7.90342
 7.84898
 3.44269
 3.41678
 3.67195
 3.58286
 4.08936
 4.18243
 4.01465
 4.01577
 4.2536
 4.48651
 4.27515
 4.3181
 8.00946
 7.80698
 7.89007
 7.99516
 10.2501
 10.3392
 10.296
 10.2511
 1.83871
 1.6158
 1.82469
 1.72123
 8.82388
 8.81198
 8.7917
 8.70663
 6.12619
 5.98629
 5.94767
 6.09455
 7.6359
 7.3797
 7.55816
 7.46549
 6.14058
 6.35656
 6.1658
 5.35908
 5.12922
 5.3493
 5.07951
 6.63738
 6.50696
 6.60057
 6.74331
 4.66424
 4.57987
 4.42186
 4.70732
 4.65461
 4.73005
 4.64169
 4.96257
 11.1711
 10.9845
 11.1599
 9.32457
 9.17661
 9.1004
 9.15994
 6.09884
 6.22705
 6.17377
 6.18717
 3.71071
 3.4884
 3.61176
 3.47563
 8.2315
 8.42659
 8.23415
 8.14886
 8.05392
 8.04051
 5.66968
 5.77092
 5.63993
 5.63488
 6.22626
 6.05534
 5.99675
 5.97162
 0.581931
 0.627128
 0.736811
 0.51626
 9.69714
 9.64394
 9.74003
 9.91105
 4.43548
 4.37367
 7.43683
 7.26542
 7.2465
 7.41849
 4.84936
 4.72833
 4.74962
 4.69878
 5.80676
 5.76709
 5.64092
 5.71112
 7.25852
 7.24952
 7.09277
 7.37066
 5.14699
 4.96757
 5.02259
 4.9893
 8.7391
 8.67371
 8.69153
 8.57532
 9.16648
 9.29049
 9.14707
 9.21735
 3.74256
 3.65685
 3.4997
 3.20721
 6.19013
 6.09237
 5.95048
 10.4451
 10.5079
 10.3969
 3.36996
 3.23799
 3.20932
 3.13899
 3.07964
 3.14444
 3.25071
 3.27257
 6.54887
 6.50652
 6.46046
 6.371
 2.73798
 2.60511
 2.64885
 2.6354
 2.18788
 1.93435
 2.14949
 1.89769
 7.18941
 7.10829
 6.97412
 7.14859
 3.91883
 3.81843
 3.73538
 3.75606
 0.7311
 0.674989
 0.857935
 0.63045
 4.24975
 4.237
 4.35474
 4.06302
 6.02408
 6.27691
 6.16838
 6.34769
 3.49827
 3.39444
 3.5509
 3.60698
 4.82125
 4.86982
 4.72532
 5.48238
 5.31651
 9.95908
 9.93537
 9.99123
 10.0383
 5.55444
 5.36536
 5.41744
 5.44565
 10.1598
 10.1256
 10.1016
 10.0935
 10.0058
 10.0367
 9.88527
 9.84656
 5.85794
 5.76611
 5.75213
 5.91537
 7.47853
 7.47896
 7.62265
 7.41055
 5.20808
 5.00103
 5.05621
 5.0786
 6.41953
 6.55236
 9.37452
 9.45246
 9.41603
 9.29386
 2.00643
 1.92403
 1.82128
 1.97464
 7.37493
 7.49449
 7.2305
 7.34503
 3.32526
 3.40375
 3.56449
 3.42523
 9.33919
 9.45117
 9.33847
 9.39861
 2.96491
 2.63932
 2.73692
 2.69022
 5.50292
 5.75236
 5.55358
 5.57951
 8.16036
 8.32178
 8.43984
 8.34823
 1.05183
 1.14401
 1.12369
 1.26196
 7.88047
 7.69194
 7.8395
 7.88208
 7.12393
 7.36336
 7.19556
 7.30354
 1.92527
 1.88565
 2.07848
 1.86221
 6.55053
 6.80462
 6.72617
 6.73192
 3.49937
 3.34746
 3.44863
 3.51835
 3.58471
 3.73646
 3.67333
 7.05368
 7.34454
 7.21929
 7.26455
 3.67054
 3.49083
 3.61697
 3.54805
 8.86583
 8.69974
 8.72015
 8.8697
 3.13844
 3.00665
 3.01994
 3.10917
 3.23663
 3.31209
 3.19554
 3.27728
 8.55703
 8.59272
 8.31156
 8.46052
 8.45158
 8.50975
 8.35733
 8.57653
 12.3068
 12.2737
 12.3746
 12.3475
 4.13921
 4.37206
 4.34394
 9.91818
 9.72892
 9.72338
 9.81125
 2.32512
 2.50803
 2.4621
 2.43291
 8.60277
 3.37145
 3.58889
 3.53176
 3.37271
 3.36118
 3.54551
 3.53356
 11.3831
 11.5208
 11.4802
 11.4159
 11.5735
 11.5695
 11.5958
 11.6335
 2.3802
 2.57054
 2.40615
 2.26775
 8.42831
 8.49802
 8.34986
 8.52632
 4.89189
 4.98749
 4.76921
 7.70432
 7.84482
 7.71528
 7.93695
 7.05835
 7.04819
 7.11554
 3.35446
 3.43621
 3.135
 5.75129
 5.61941
 5.59504
 5.72734
 7.64813
 7.81888
 7.82618
 7.70088
 8.60349
 8.54996
 8.63044
 8.56552
 4.91034
 4.78136
 4.76233
 9.3922
 9.3196
 9.52907
 9.53408
 8.46673
 8.18245
 8.37706
 7.19324
 6.91919
 6.97529
 7.08742
 8.62464
 8.47345
 8.48251
 8.53704
 8.54088
 8.34292
 8.30614
 8.3559
 3.20961
 3.3583
 3.33591
 3.37339
 6.87274
 7.02551
 6.91482
 6.82064
 7.91427
 7.944
 6.02753
 6.15501
 6.06975
 6.25112
 2.56338
 2.50248
 2.42594
 2.47911
 2.5106
 12.4518
 12.4868
 12.501
 12.453
 3.89667
 3.67986
 3.80573
 1.66919
 1.72041
 1.83255
 1.70948
 4.35388
 4.63017
 4.57094
 4.61677
 8.64538
 8.58571
 8.50278
 8.65411
 7.01957
 7.14505
 7.18952
 7.18228
 1.49529
 1.50068
 1.5616
 1.60302
 4.12337
 4.27667
 4.40233
 4.25065
 9.48017
 9.60043
 9.60977
 9.41639
 7.2661
 7.22889
 7.18944
 7.45592
 7.52015
 7.43838
 7.3464
 7.48612
 12.4729
 12.4921
 12.4915
 12.4643
 8.87919
 8.91189
 8.95858
 8.81806
 4.15438
 3.90255
 4.16367
 4.03522
 5.58814
 5.60594
 5.42619
 5.6642
 6.77708
 6.66393
 6.51758
 6.72056
 4.67091
 4.46622
 4.53159
 4.53782
 5.48654
 5.48225
 5.31896
 5.50249
 4.51641
 4.51987
 4.66793
 4.29365
 0.993653
 1.33629
 1.23717
 0.90489
 3.84327
 3.95265
 3.99768
 4.26907
 4.61981
 4.74913
 4.87852
 4.67038
 4.95017
 6.09705
 6.10499
 6.22366
 5.92443
 2.39196
 2.47198
 2.51837
 2.51095
 6.924
 7.02765
 6.85765
 6.92217
 5.7449
 5.661
 5.56198
 5.85784
 6.37881
 6.57027
 6.43779
 6.28504
 7.58254
 7.81938
 7.64058
 7.79138
 10.7476
 10.6831
 10.5237
 10.7576
 0.733043
 1.04971
 5.1662
 5.2793
 5.29455
 12.0016
 11.9987
 12.0079
 8.20943
 8.32448
 8.24968
 8.38185
 9.97671
 9.95547
 10.1521
 10.1617
 8.90339
 8.97976
 8.86848
 9.06803
 2.15696
 2.45198
 2.3186
 2.29327
 6.1419
 6.36272
 6.27544
 6.39163
 4.81736
 4.59608
 4.6122
 4.4269
 5.52994
 5.57814
 5.71492
 5.83035
 4.54345
 4.46647
 4.62824
 4.57887
 6.7163
 6.71182
 3.44799
 3.89506
 3.48244
 3.85949
 4.3651
 4.49545
 4.59196
 4.22142
 8.25645
 8.44259
 8.23128
 8.41447
 8.30061
 8.25337
 8.25809
 8.23901
 5.8867
 5.86393
 5.93768
 5.80754
 5.9748
 5.86808
 5.74586
 5.61412
 8.95644
 9.15388
 9.20874
 8.91087
 4.53007
 4.67392
 4.74334
 4.76863
 1.19487
 1.31407
 1.22035
 1.29249
 3.27841
 3.39297
 3.37473
 3.46921
 0.97891
 0.874781
 1.06786
 0.826442
 3.02107
 2.80769
 2.86583
 2.85316
 6.21291
 5.97778
 6.18457
 6.12845
 4.8221
 4.95515
 6.62388
 6.40018
 6.67942
 6.55588
 8.34354
 8.19559
 8.21501
 8.15689
 4.03196
 3.76056
 3.74958
 3.95209
 6.69238
 6.73886
 6.6854
 6.88554
 7.15741
 7.29337
 7.34002
 7.26243
 8.58816
 8.58409
 8.50799
 8.37648
 7.98571
 8.0046
 8.08604
 7.84194
 8.43831
 8.33937
 8.31173
 8.38664
 10.6373
 10.6139
 10.7066
 10.6759
 4.19787
 4.12631
 4.34428
 4.17103
 4.99808
 4.94354
 10.3189
 10.2759
 10.2913
 10.4325
 7.7538
 7.69437
 5.18134
 5.33388
 5.15214
 3.44985
 3.40087
 8.8875
 8.91257
 8.9853
 8.80364
 10.4662
 10.3847
 10.3926
 10.3543
 9.116
 9.03029
 8.94098
 8.90913
 7.77947
 7.66567
 7.62368
 7.59167
 5.49784
 5.73209
 5.73895
 5.72083
 4.79642
 4.881
 4.90805
 4.94381
 7.85789
 7.70014
 7.68548
 7.73066
 5.80419
 5.82354
 5.73548
 6.01145
 6.24678
 6.37592
 6.41662
 6.32099
 6.06364
 5.92982
 5.83951
 5.93226
 5.88716
 6.1583
 5.87632
 6.62979
 6.7667
 6.48592
 6.60464
 7.4375
 7.36317
 7.55446
 7.46467
 8.45325
 8.32426
 8.53523
 8.3313
 2.36955
 2.43743
 2.30791
 2.17689
 6.88749
 6.88998
 6.71045
 6.72125
 9.17766
 9.18042
 9.39655
 9.22704
 9.47964
 9.4647
 9.50651
 9.55463
 9.10069
 9.20197
 9.19489
 9.12823
 8.47781
 8.49337
 8.31258
 8.27928
 8.49918
 8.59759
 8.63974
 8.57214
 2.81756
 2.69221
 2.69083
 2.64398
 7.07456
 7.07862
 7.1149
 6.94093
 4.40099
 4.24199
 4.40054
 4.48039
 8.41897
 8.22671
 8.46
 8.31549
 2.175
 2.09528
 2.11097
 1.91359
 1.84007
 1.87963
 1.6628
 4.4519
 4.83844
 4.70915
 4.69471
 8.18012
 8.10303
 8.27398
 8.13868
 1.3089
 1.59294
 1.53248
 7.30123
 7.43778
 7.34257
 7.56092
 3.05618
 3.02236
 3.48368
 3.41259
 3.23411
 3.47197
 7.58154
 7.68735
 7.6203
 9.2503
 9.19302
 9.36412
 9.30656
 8.38964
 8.47767
 8.32304
 8.31342
 6.33326
 6.12904
 6.38554
 1.91835
 2.30059
 2.26721
 4.47933
 4.71086
 4.78362
 4.65537
 1.90756
 1.96552
 2.23076
 1.72145
 7.17941
 6.99138
 6.90282
 7.01899
 2.85065
 2.79907
 2.69332
 3.00822
 6.18674
 6.14269
 6.27385
 6.3617
 8.01837
 8.17639
 8.09328
 1.48251
 1.67222
 1.56594
 1.2724
 5.05757
 5.70833
 5.48131
 5.55585
 5.66357
 5.34459
 5.32399
 5.47246
 8.10984
 8.20508
 8.19258
 8.19909
 8.20454
 8.00225
 7.07763
 7.25568
 7.2651
 7.29994
 7.09252
 6.88243
 7.0443
 6.92092
 4.61998
 1.27343
 1.5883
 1.64565
 1.44125
 11.077
 11.2174
 11.1383
 11.1522
 7.78414
 7.88655
 8.15271
 8.20714
 8.13018
 8.09064
 8.22383
 8.20575
 8.41833
 8.33915
 4.33427
 4.57995
 4.55279
 4.42558
 4.16645
 4.06453
 4.30742
 4.13287
 7.83536
 7.97396
 4.81571
 4.79172
 4.53763
 4.70447
 4.73012
 4.51158
 4.714
 5.78044
 5.91853
 6.02067
 6.08277
 6.85498
 7.02006
 6.86916
 7.0301
 4.30986
 4.03209
 4.06459
 4.28121
 3.62989
 3.56572
 3.43428
 3.63384
 3.91605
 3.69708
 3.86186
 4.2022
 4.13352
 4.17781
 4.34916
 7.1208
 7.07123
 7.04898
 7.18925
 9.90055
 9.93384
 9.84514
 9.82983
 7.55411
 7.57586
 7.66179
 7.61914
 3.61218
 3.8229
 3.96589
 3.77301
 4.85678
 4.93774
 4.95185
 4.77281
 7.49382
 7.39835
 7.33723
 7.31779
 4.90733
 5.11075
 4.98094
 4.91852
 5.94157
 5.87554
 6.14851
 5.86951
 5.96323
 5.77771
 5.84805
 5.78272
 5.00887
 4.8771
 4.89276
 2.59133
 2.52729
 2.64589
 2.60157
 7.61447
 7.445
 7.52411
 7.50451
 6.62271
 6.44004
 6.46419
 6.50816
 9.71275
 9.80051
 9.78426
 9.65541
 8.56649
 8.44695
 8.46533
 8.54533
 8.36807
 8.61496
 8.49885
 8.64599
 8.66108
 8.57279
 8.59449
 8.53269
 5.99251
 6.09738
 6.05748
 9.25042
 9.28133
 9.20924
 9.18101
 8.83513
 8.77541
 8.66447
 8.81417
 1.4426
 1.66047
 1.67403
 1.52318
 5.8953
 6.00288
 6.09647
 6.17112
 3.64902
 3.63044
 3.73812
 3.83101
 5.54901
 5.45948
 5.58759
 5.70739
 5.06148
 4.9065
 5.06057
 5.01137
 8.11011
 8.24784
 8.17939
 8.37091
 6.43106
 6.0844
 6.35365
 6.31629
 3.52863
 3.3849
 3.54299
 3.47715
 5.44565
 5.52066
 5.25929
 5.30733
 8.70756
 8.78569
 8.61817
 8.55958
 2.56235
 2.48849
 2.53197
 2.45489
 7.36905
 7.5226
 8.86503
 6.43588
 6.35046
 6.22421
 6.47777
 6.91004
 6.74514
 6.93876
 6.97674
 10.3511
 10.3743
 10.2329
 7.64428
 7.80252
 7.84014
 7.93608
 5.48563
 5.17514
 5.30492
 5.13578
 6.20465
 6.06078
 6.14594
 6.20901
 2.74188
 2.64496
 2.62401
 2.68669
 8.5065
 8.25089
 8.4284
 8.19074
 8.19921
 8.24567
 8.03675
 10.0494
 10.2468
 10.1427
 10.0611
 8.57869
 8.39464
 8.52216
 5.57644
 5.19771
 5.51631
 8.68806
 8.70683
 8.83556
 8.77158
 6.85612
 6.69024
 6.65007
 6.66403
 12.4538
 12.4586
 12.4522
 12.3726
 7.11106
 7.17292
 7.16615
 9.20978
 9.23851
 9.21122
 9.20981
 7.11005
 7.1936
 7.34209
 7.20365
 8.7948
 8.65885
 8.66838
 8.60158
 4.63166
 4.54712
 4.67166
 4.49702
 4.11879
 4.28613
 4.14317
 4.05185
 1.84679
 1.84912
 1.73971
 1.99809
 5.78706
 6.02794
 5.83724
 5.77168
 8.85791
 9.02009
 8.87231
 8.96366
 7.97888
 8.04495
 9.77206
 9.7696
 9.72138
 9.72501
 6.73584
 6.66463
 7.6247
 7.36551
 7.41949
 8.33936
 8.24288
 8.16763
 8.25622
 2.22777
 2.13517
 2.43991
 2.39868
 2.56614
 2.62368
 2.70925
 2.60334
 8.13637
 8.0731
 8.17178
 8.31061
 9.25942
 9.2163
 5.55748
 5.48948
 5.54464
 5.35856
 8.30492
 8.37025
 8.2386
 8.25403
 7.36538
 7.57737
 7.21801
 0.785983
 0.706528
 0.907787
 6.29068
 6.04955
 6.14148
 6.13318
 3.06076
 2.80477
 3.10517
 3.21797
 5.96913
 5.79552
 5.75541
 5.98731
 4.34836
 4.1886
 4.15508
 4.4551
 8.91456
 8.77525
 8.89402
 8.95768
 8.29199
 8.08722
 8.3542
 8.14703
 5.92126
 6.11048
 5.75242
 5.99122
 7.54345
 7.35729
 7.30711
 7.5602
 8.8936
 8.83494
 8.77997
 8.63806
 6.82899
 6.74577
 6.63719
 6.54502
 4.93687
 4.90304
 5.0355
 6.08323
 5.88959
 6.02276
 5.91333
 11.8126
 11.69
 11.6196
 11.702
 9.25626
 9.25839
 9.22901
 9.24587
 7.66094
 7.67009
 7.67492
 7.5086
 10.4587
 10.3366
 10.5196
 10.4087
 2.96749
 2.98364
 3.15495
 1.60339
 1.76704
 1.96088
 1.79105
 3.98568
 3.62801
 3.76687
 3.76475
 6.15436
 4.9967
 4.75546
 4.67908
 4.85439
 6.43202
 6.29322
 6.51957
 6.51968
 8.98441
 9.13266
 9.05011
 8.18669
 8.14278
 8.09514
 8.3194
 11.7784
 11.9057
 11.7945
 11.9544
 10.1961
 10.2045
 10.1476
 10.1778
 7.74566
 7.74862
 7.64175
 7.54153
 1.40511
 1.71264
 1.61229
 1.64012
 11.4531
 11.4392
 11.3206
 11.3536
 4.57978
 4.39018
 4.71099
 4.49606
 6.12937
 6.11575
 5.93792
 6.09842
 8.09067
 8.36726
 8.35766
 6.63821
 6.83301
 6.86507
 6.8545
 1.76166
 1.69686
 1.63716
 8.87572
 8.63616
 8.6012
 7.10374
 7.03879
 6.84198
 6.88195
 7.76596
 7.81114
 7.85632
 7.89596
 7.60874
 7.64272
 7.44957
 7.41164
 9.18463
 9.27734
 9.27102
 9.11231
 6.69479
 6.57043
 6.75142
 6.55816
 2.0877
 2.42251
 2.41206
 2.58125
 2.83534
 2.90015
 2.91763
 2.72078
 9.45688
 9.43573
 9.41637
 9.45378
 3.20087
 3.11512
 3.1365
 3.37768
 2.37992
 2.09193
 2.17514
 2.44657
 3.20054
 3.21317
 3.45888
 3.43175
 5.17703
 5.21797
 5.05831
 5.14198
 6.35904
 6.49327
 6.29549
 7.73623
 7.98706
 7.91087
 7.86028
 4.12718
 4.2635
 4.38849
 4.11486
 4.03394
 3.94561
 3.83961
 3.90447
 0.700221
 0.696621
 1.02271
 0.824004
 10.3034
 10.2077
 10.2358
 10.2133
 9.72561
 9.79255
 9.75941
 9.65962
 9.1202
 9.14988
 8.95749
 9.15791
 7.58514
 7.81574
 7.65766
 7.66932
 7.39974
 7.38071
 7.38852
 2.27123
 2.12005
 1.90568
 2.03758
 3.8257
 3.91588
 4.02931
 4.0307
 6.69567
 6.82531
 6.88014
 6.77603
 2.71121
 2.57593
 5.64843
 5.64319
 5.64927
 5.82533
 2.91289
 2.81441
 2.55624
 2.76858
 5.93798
 5.69325
 5.9887
 5.66758
 7.78145
 7.67534
 7.91609
 7.82858
 9.64982
 9.75168
 9.6651
 9.54911
 11.9011
 11.7789
 11.952
 11.8452
 3.15203
 3.23532
 3.26814
 3.11356
 2.4296
 2.40633
 2.38421
 2.24034
 7.10017
 7.30956
 7.17792
 7.28313
 6.27491
 6.37482
 6.40331
 6.26735
 8.41819
 8.57196
 8.31114
 5.29427
 5.44463
 5.42651
 5.50795
 8.47332
 8.50663
 8.39576
 8.39722
 6.55095
 6.72314
 6.86736
 6.75519
 5.05661
 5.16112
 5.10517
 5.03026
 6.06847
 6.13046
 6.19507
 3.09453
 3.30246
 3.23072
 3.23511
 5.25335
 5.01704
 10.5524
 10.3445
 10.5728
 10.4793
 4.24333
 4.37941
 4.29142
 8.08653
 8.03417
 8.03492
 8.08289
 5.39823
 5.42819
 5.49079
 6.40607
 6.58445
 6.38777
 6.50771
 5.36144
 5.58001
 5.24778
 5.43544
 5.17673
 4.95613
 11.2958
 11.2931
 11.3878
 11.2927
 11.6692
 11.8101
 11.8699
 11.7374
 6.25344
 6.4743
 6.38643
 6.48044
 5.51513
 5.63248
 5.5249
 5.67063
 11.1959
 11.221
 11.1859
 11.0859
 8.19206
 8.37119
 9.20656
 9.17546
 9.12096
 8.98871
 5.13507
 5.20969
 4.94444
 5.09607
 5.64645
 5.58489
 5.41027
 5.7255
 5.28245
 5.50224
 5.55253
 5.49944
 7.79173
 7.78228
 7.62563
 7.79319
 8.75984
 8.79091
 8.93437
 8.74223
 9.92125
 9.764
 9.77904
 9.91183
 8.73519
 8.74205
 8.73673
 8.49337
 4.17514
 4.32534
 4.1256
 4.24705
 6.25532
 6.67861
 6.46847
 10.4135
 10.3354
 10.2308
 4.82569
 4.51276
 4.68248
 4.69057
 4.58947
 4.95826
 4.76947
 4.69964
 7.03817
 7.15577
 7.21883
 6.82795
 6.76501
 6.60108
 6.75402
 8.83924
 8.93362
 8.97022
 8.96941
 3.56282
 3.6385
 3.47578
 3.56165
 9.16953
 9.20339
 9.19361
 9.13364
 9.23393
 9.32176
 9.24041
 1.5614
 1.27515
 1.14674
 1.36011
 3.3188
 3.17445
 8.0465
 8.11721
 7.95929
 8.01062
 6.42581
 6.22545
 6.42402
 6.7819
 6.87586
 6.83067
 6.99408
 8.88288
 8.75516
 8.82456
 3.76142
 3.62613
 3.92302
 3.82788
 8.86584
 8.65553
 8.80439
 8.83715
 4.53208
 4.7144
 4.79482
 4.70743
 9.10989
 9.03378
 8.69654
 8.86865
 8.73828
 8.81189
 8.1519
 8.23494
 8.19251
 8.14151
 10.1775
 10.2279
 10.3608
 10.2617
 4.1316
 3.91048
 7.66737
 7.56268
 7.54247
 7.55893
 1.79359
 1.887
 1.82934
 1.73482
 7.72466
 7.81843
 7.60628
 7.47904
 3.76136
 3.54403
 3.47939
 3.47098
 2.57577
 2.33109
 2.72093
 2.39108
 4.5544
 4.77113
 2.48085
 2.28499
 2.3509
 2.42298
 8.85898
 8.88414
 8.89021
 8.74042
 2.53308
 2.45704
 2.43266
 2.54746
 1.51403
 1.25072
 1.29013
 1.47253
 5.53029
 5.51966
 5.33865
 5.39632
 6.63911
 6.71356
 6.50841
 6.41761
 2.77177
 3.04762
 2.87721
 2.76276
 10.3957
 10.24
 10.3326
 10.433
 2.89313
 2.59985
 7.63724
 7.52307
 7.50009
 7.34121
 3.08221
 3.17789
 3.37828
 3.35298
 8.80907
 8.65821
 8.68482
 8.69263
 7.26704
 7.52028
 7.43127
 7.30039
 8.47427
 8.52238
 8.32498
 8.82437
 8.90981
 8.8185
 8.96611
 9.15858
 9.02786
 9.06684
 9.00181
 5.49234
 5.62025
 5.68135
 3.30179
 3.27801
 3.09005
 3.11721
 6.03039
 6.13222
 6.20164
 8.80709
 8.92275
 8.83845
 6.3649
 6.09189
 6.32761
 6.16704
 5.32088
 5.36145
 5.30131
 5.07189
 6.89881
 6.69466
 6.66579
 6.74295
 7.15605
 7.24465
 7.29308
 7.39712
 7.49592
 7.51862
 7.20916
 7.11869
 7.00684
 7.29802
 3.19399
 3.29214
 3.20491
 3.37359
 4.6513
 4.78891
 4.66991
 4.58519
 6.79859
 6.73377
 6.82498
 6.56043
 8.8303
 8.94099
 8.85523
 5.9993
 6.11837
 6.00073
 5.97067
 7.92712
 8.14076
 8.06109
 8.15783
 10.911
 10.8681
 10.9395
 10.981
 7.41981
 7.51207
 7.46177
 7.47666
 2.97164
 3.01732
 2.80817
 2.88715
 7.47998
 7.26998
 7.38573
 7.48918
 9.05654
 9.06562
 9.00137
 8.94474
 8.84066
 8.93202
 8.925
 6.74194
 6.70873
 6.75345
 5.1919
 7.55579
 7.81858
 7.663
 7.669
 2.61414
 2.66765
 2.52898
 3.00487
 2.95715
 2.86058
 7.5461
 7.37276
 7.50258
 7.3984
 1.40999
 1.32078
 1.25709
 1.23467
 8.74277
 5.70999
 5.88082
 5.74478
 5.80521
 8.64461
 8.57872
 8.60207
 8.56836
 2.67835
 2.56008
 2.8697
 2.68089
 4.8905
 4.59368
 4.71273
 4.82529
 3.9958
 3.87399
 4.12318
 4.07171
 9.15192
 9.10299
 9.03691
 9.1522
 7.92834
 7.78334
 7.94005
 7.93475
 6.01546
 6.12985
 5.96312
 6.15446
 7.68857
 7.87051
 7.61908
 7.79768
 5.03146
 4.95128
 4.76269
 4.80947
 8.63833
 8.7048
 8.54569
 8.55199
 8.00832
 7.92292
 7.78237
 7.87367
 5.59339
 5.57266
 5.6059
 5.36401
 2.4758
 2.22432
 2.36847
 2.21491
 9.11629
 9.08435
 8.95141
 9.00965
 10.0771
 10.2482
 10.0677
 10.0844
 2.55279
 2.36604
 2.45019
 2.38673
 10.0308
 10.1599
 9.83974
 9.90474
 9.92949
 9.78828
 6.3945
 6.29231
 6.45833
 6.57971
 7.93976
 7.83766
 7.84092
 8.00458
 0.827443
 0.738938
 0.758693
 0.901376
 2.73502
 2.75584
 2.4846
 4.91208
 4.93091
 4.76017
 4.99722
 8.889
 8.84573
 9.0019
 8.79662
 8.0587
 8.08941
 8.14649
 8.21316
 8.10863
 7.99206
 4.90198
 4.58042
 4.68302
 4.81583
 5.22924
 5.22438
 5.39765
 5.18113
 4.62142
 4.64164
 4.84274
 4.62789
 1.63948
 1.59937
 1.99152
 1.51201
 4.19435
 4.18453
 4.38955
 7.33236
 6.04043
 6.08637
 6.02874
 6.1754
 5.95995
 6.16849
 6.10659
 6.05417
 3.50606
 3.61502
 3.6295
 3.74265
 4.21686
 4.34357
 4.33518
 4.14065
 5.54677
 5.71741
 5.72015
 7.63803
 7.74438
 7.59013
 7.84628
 6.11081
 5.80267
 5.98909
 5.94635
 7.48476
 7.37721
 7.57171
 11.388
 11.3902
 11.4711
 11.329
 3.33385
 2.9952
 3.13006
 3.22766
 3.52027
 3.16082
 3.35578
 11.2897
 5.90501
 5.8578
 5.93016
 5.69107
 5.60221
 5.56074
 9.80097
 9.76707
 9.78387
 9.73437
 9.07256
 9.02262
 8.87859
 9.08893
 8.24357
 8.1542
 8.17903
 8.3468
 8.517
 8.43927
 8.33771
 8.51547
 8.53446
 8.39807
 7.25543
 7.38402
 7.43548
 7.45278
 7.11251
 6.93537
 0.563241
 0.551537
 8.78247
 8.53731
 8.79548
 8.64015
 6.7978
 6.85332
 6.73373
 6.93352
 9.19318
 9.15088
 9.3935
 9.31836
 3.12599
 2.99343
 3.34074
 3.20009
 3.53999
 3.71478
 3.54991
 3.73154
 5.06999
 4.93007
 4.89997
 4.99689
 6.08125
 6.01551
 5.74902
 5.8692
 6.25837
 6.36295
 8.82021
 4.44322
 4.22759
 4.2737
 4.22797
 1.74938
 1.79572
 1.47893
 1.85616
 3.38079
 3.14719
 3.42778
 3.33229
 12.4449
 12.4459
 12.4265
 12.3877
 1.9274
 1.88654
 1.97856
 1.96836
 8.32293
 8.31829
 8.47441
 8.23316
 7.63845
 7.82673
 7.75203
 7.88739
 4.74902
 4.72325
 4.61421
 4.57613
 4.73853
 4.78883
 4.89096
 4.84097
 8.85286
 8.60212
 8.73041
 8.67047
 2.23046
 2.14015
 2.25472
 2.22151
 3.06903
 2.94374
 3.00428
 2.87404
 4.40981
 4.37183
 4.22547
 4.22259
 2.76807
 2.9263
 2.85001
 2.76761
 7.95419
 7.78555
 7.78629
 7.72094
 8.84531
 8.80967
 8.76589
 8.71651
 3.27221
 3.43596
 3.50531
 3.45385
 6.95366
 6.97436
 7.03856
 7.19128
 6.67543
 6.76219
 6.79938
 6.68952
 11.703
 11.6373
 11.5743
 11.63
 2.05412
 2.00714
 2.65637
 2.61355
 2.80414
 2.49755
 9.44356
 9.58796
 9.63558
 9.4119
 7.90374
 8.11914
 8.12176
 8.20175
 2.99719
 3.13868
 2.89921
 2.85227
 7.27562
 7.21844
 7.3203
 7.13601
 7.45445
 7.39991
 7.59793
 7.58324
 1.75085
 1.69837
 1.81687
 1.87323
 6.08736
 6.13806
 6.07853
 6.00147
 6.51997
 6.45822
 6.50633
 6.63326
 3.98784
 3.88027
 3.81859
 3.93471
 5.01095
 5.07067
 5.13266
 5.24668
 7.16772
 7.1398
 7.36538
 7.89729
 7.75989
 7.85078
 7.61083
 9.75398
 9.80647
 9.8361
 9.6154
 7.62599
 7.52099
 7.48759
 7.45532
 6.28281
 6.39515
 6.30211
 6.44253
 1.58786
 1.51635
 1.54752
 1.81329
 7.62266
 7.31936
 7.48122
 7.48404
 9.32911
 9.32884
 9.44061
 9.5236
 4.50717
 4.32003
 4.4127
 4.56297
 5.35558
 5.3855
 5.48238
 6.16216
 5.90565
 5.87597
 5.80892
 9.86813
 9.86835
 9.86
 9.75247
 5.87637
 6.05243
 5.97887
 6.12493
 2.37315
 2.34839
 2.35507
 2.3179
 6.0746
 6.06506
 6.02365
 5.9435
 9.20341
 9.29656
 9.23905
 9.18479
 8.61573
 8.50504
 8.63129
 8.76025
 0.435085
 0.505215
 0.417662
 0.4094
 7.98566
 7.94881
 7.97435
 8.18879
 5.42663
 5.72642
 5.63976
 5.56494
 0.692284
 0.670608
 0.822879
 0.825471
 2.63646
 2.35133
 2.50236
 4.49534
 4.51585
 4.28124
 4.21453
 3.06505
 3.0494
 2.77984
 3.13966
 11.031
 10.9411
 10.8521
 10.8851
 8.4585
 8.29139
 8.52395
 2.01752
 1.78383
 1.82839
 1.79783
 5.52057
 5.57268
 5.37614
 5.63871
 3.88634
 3.93983
 3.68717
 4.0693
 9.04824
 9.06436
 9.19276
 9.26284
 7.32218
 7.12704
 7.35335
 7.20334
 4.98499
 5.29286
 5.19518
 9.68708
 9.63067
 9.55261
 9.56536
 8.70276
 8.92373
 8.82759
 8.88644
 7.48968
 1.99369
 1.87593
 1.95467
 1.79798
 10.7675
 10.7662
 10.8778
 10.8858
 4.02939
 3.69614
 3.86608
 3.65184
 5.29641
 5.43487
 5.36604
 5.56827
 11.4592
 3.45836
 3.62138
 3.36193
 2.10574
 1.83011
 1.99199
 1.9668
 6.76542
 6.72391
 6.45597
 6.65341
 5.03398
 5.04193
 4.88348
 5.15177
 8.36549
 8.52658
 6.42631
 6.51516
 6.50933
 6.31273
 8.36931
 8.46761
 8.55561
 8.42054
 7.77164
 7.84572
 7.60329
 7.60767
 4.58826
 4.72332
 4.58578
 4.52523
 10.2995
 10.3094
 10.3093
 10.1448
 8.89072
 8.98116
 8.91652
 9.02717
 10.0546
 9.93974
 9.32773
 9.33237
 9.31418
 9.32066
 9.48512
 9.58912
 9.42113
 9.56016
 1.81597
 1.90413
 2.09725
 2.09457
 5.58551
 5.5858
 5.66661
 5.37984
 7.33806
 7.09895
 7.25685
 7.23498
 6.04932
 6.11961
 6.16481
 5.98914
 1.7696
 1.80115
 9.75163
 9.82616
 9.80945
 9.74841
 1.81691
 1.7487
 1.92244
 10.6029
 10.6518
 10.6083
 10.6788
 2.31135
 2.53843
 2.36539
 2.52173
 7.63306
 7.7567
 7.58075
 7.76144
 6.88375
 6.85104
 6.93651
 1.88678
 2.00904
 1.9673
 1.84871
 5.74246
 5.92027
 5.71316
 5.87152
 6.76087
 6.67396
 6.51012
 6.67902
 7.55799
 7.65152
 7.15487
 7.4538
 7.23159
 7.35279
 5.33747
 5.54162
 5.44719
 1.61782
 1.93621
 1.96735
 1.72146
 6.97308
 6.85428
 6.99028
 6.94555
 7.26976
 7.36911
 7.90911
 8.07707
 8.11942
 7.97122
 10.465
 10.4442
 10.3166
 5.82042
 5.77918
 6.02121
 6.02784
 1.96458
 1.95345
 1.93118
 10.0368
 10.13
 10.0353
 6.87982
 7.01223
 6.92195
 7.08698
 4.85555
 4.85657
 5.0872
 5.00646
 10.9234
 10.9736
 10.9347
 10.9121
 3.16417
 3.10137
 3.22554
 3.2568
 4.72941
 4.87637
 4.85093
 4.92143
 3.35276
 3.28927
 3.42922
 2.06462
 2.01722
 1.71481
 1.89917
 6.23571
 6.45409
 6.26198
 6.2374
 2.48997
 2.54883
 2.61866
 2.65816
 7.65962
 7.71763
 7.60353
 7.79674
 1.71215
 5.20326
 6.52161
 6.60432
 6.43654
 6.65696
 5.31247
 5.35771
 5.52593
 5.55482
 4.2484
 4.1922
 4.31478
 4.49104
 5.31764
 5.40231
 5.18337
 5.27783
 3.90251
 4.03772
 3.85617
 3.88806
 6.50981
 6.62217
 6.54581
 6.39369
 6.74831
 6.68499
 6.65201
 6.57197
 7.31909
 7.35941
 7.42313
 7.21208
 6.60056
 6.6085
 6.76949
 9.05667
 9.02626
 9.0564
 8.9393
 6.36816
 4.89197
 4.64184
 4.6227
 4.75664
 2.09003
 2.07197
 2.32896
 7.79435
 8.0358
 7.93512
 8.00811
 6.10338
 5.87256
 5.93531
 5.23746
 5.26435
 5.40333
 5.42216
 4.81833
 4.74909
 4.55311
 4.50115
 2.8512
 2.73966
 2.60794
 2.78286
 8.46665
 8.50111
 8.39509
 8.64124
 5.94596
 6.07313
 6.11298
 6.17904
 6.63038
 6.73652
 6.85196
 6.64904
 6.83418
 6.95012
 6.97223
 7.0913
 6.46132
 6.53074
 6.42346
 6.62042
 4.20778
 4.54893
 4.15677
 4.39153
 6.79439
 7.07959
 6.97183
 6.9378
 9.79294
 9.7882
 9.79477
 9.73889
 9.92459
 9.82706
 9.84642
 6.45208
 6.42274
 6.26434
 6.24164
 6.35528
 6.27833
 6.20784
 6.15004
 6.64712
 6.80216
 6.54453
 6.54585
 2.27868
 2.25168
 2.52293
 2.4878
 4.19169
 4.38971
 4.40074
 4.17787
 8.06586
 7.96223
 7.98602
 7.94269
 8.94149
 8.76862
 8.79478
 9.01255
 3.03986
 3.09138
 3.21638
 3.02998
 10.7127
 10.7982
 10.77
 10.6365
 7.47638
 7.30518
 7.40289
 7.42408
 9.29958
 9.198
 9.21496
 8.53938
 8.4433
 8.42464
 8.30433
 4.5506
 4.60944
 4.45125
 4.75832
 8.45732
 8.68296
 8.59862
 8.53581
 9.81832
 9.5277
 9.72394
 10.9013
 10.7798
 10.7051
 10.7557
 1.49312
 1.41969
 1.3139
 1.13975
 8.30746
 8.41548
 8.32565
 8.26522
 5.52746
 5.79056
 5.74353
 5.57743
 2.49751
 2.64246
 2.81227
 2.66642
 3.66546
 3.39789
 3.75869
 3.60094
 8.16254
 8.13356
 8.24471
 8.17332
 9.4011
 9.5548
 9.68037
 9.51702
 5.93853
 5.82124
 6.01307
 5.90886
 9.34453
 9.14932
 7.13974
 7.40014
 7.34783
 7.21019
 6.92272
 6.93811
 7.04231
 6.86622
 7.13821
 7.12248
 7.21191
 9.0134
 8.95942
 9.0129
 5.4288
 5.42378
 5.3603
 5.30207
 5.74609
 5.76976
 5.91012
 5.59273
 8.15003
 7.95924
 8.04449
 8.13234
 4.10321
 3.88349
 4.18549
 4.08504
 6.51056
 6.73708
 6.61435
 6.43839
 9.1979
 9.19909
 9.23105
 9.20415
 7.50206
 7.38039
 7.49566
 5.6516
 5.65626
 5.82559
 5.67608
 6.30341
 6.19491
 6.07597
 1.5156
 1.60233
 1.65208
 1.70402
 10.0997
 10.1684
 10.0854
 10.2788
 7.71792
 7.54107
 7.56508
 7.67601
 7.81477
 7.85412
 7.99649
 7.80944
 1.3243
 1.3981
 1.14771
 0.982363
 3.96842
 3.85888
 3.87926
 8.38963
 8.42454
 8.49102
 8.4085
 3.6968
 3.9376
 3.83528
 8.30252
 8.29118
 8.41013
 8.37575
 11.8916
 11.8098
 11.8795
 11.8088
 2.51986
 2.44154
 2.28817
 2.55752
 8.98586
 9.03255
 9.1022
 9.23123
 1.81949
 1.88712
 1.91993
 1.86364
 8.60677
 8.41684
 8.56189
 8.48204
 11.8356
 11.9819
 11.8599
 11.8596
 9.66373
 9.81509
 9.68569
 9.61161
 8.92613
 8.80877
 8.7065
 8.95285
 6.48555
 6.74575
 8.96997
 8.94019
 9.18155
 9.14625
 5.46906
 5.56868
 5.63007
 5.73761
 6.7078
 6.70477
 6.80386
 6.56044
 2.6379
 2.90037
 2.46126
 2.41801
 3.09862
 3.21372
 3.05326
 2.98978
 3.57001
 3.7182
 3.59692
 3.76096
 2.93692
 2.89299
 2.84379
 2.98362
 4.78373
 4.84394
 4.65656
 4.80349
 3.48062
 3.2597
 3.32436
 3.42299
 9.95662
 10.1417
 10.1654
 9.93739
 2.79882
 2.67158
 2.72752
 2.75831
 7.2242
 7.36232
 7.4467
 7.37366
 3.97875
 4.30649
 4.2155
 3.06442
 2.86789
 2.88302
 2.95545
 8.908
 9.07999
 9.09605
 9.03225
 9.72088
 9.76997
 9.84473
 9.80493
 4.411
 4.44746
 4.56188
 4.25449
 6.97511
 6.99885
 7.04064
 7.14466
 4.81197
 4.94954
 4.82655
 4.85673
 4.84909
 4.8518
 4.48327
 7.43397
 7.48345
 7.62801
 4.93812
 4.86219
 5.98105
 6.22473
 1.61859
 1.48944
 1.49853
 1.60324
 6.16362
 6.08175
 6.18603
 5.97745
 4.93343
 5.02952
 4.77458
 5.02476
 5.6798
 5.57228
 5.66156
 5.49485
 3.51385
 3.6652
 3.56297
 3.68995
 3.71398
 7.01828
 6.99091
 7.1682
 7.17359
 9.25382
 9.25349
 9.25094
 9.23864
 4.88647
 5.08637
 4.88093
 5.00005
 4.80027
 4.91511
 4.97149
 4.75294
 11.5701
 11.4872
 11.4406
 11.3465
 6.44748
 6.29157
 6.37293
 6.48312
 6.53915
 6.69619
 6.76146
 6.60647
 5.0756
 5.22106
 8.96797
 8.92631
 8.86018
 8.94862
 7.77891
 7.683
 7.73873
 7.83749
 8.72193
 8.79197
 8.85159
 8.8363
 7.97125
 7.85406
 7.87767
 7.99936
 8.65468
 8.66813
 8.73958
 8.63581
 3.9226
 4.01425
 3.94001
 3.80719
 2.77373
 2.79392
 3.00333
 2.87015
 8.2198
 8.29308
 8.38702
 8.21092
 6.45839
 6.62236
 6.47449
 6.54211
 3.57308
 3.81399
 3.6392
 3.75416
 7.17286
 7.26189
 7.28077
 7.07167
 8.2381
 8.12213
 9.54913
 9.48337
 9.44525
 9.56422
 6.8192
 6.87875
 6.9739
 7.05094
 3.41822
 3.51501
 3.50734
 3.26146
 2.09447
 2.23907
 2.19191
 2.06829
 11.1995
 11.1932
 7.17182
 7.02425
 6.96611
 6.9239
 7.42892
 7.67451
 7.51736
 7.51066
 7.64855
 7.70299
 8.57502
 8.48669
 8.51317
 8.43109
 6.73577
 6.5736
 6.49997
 9.9218
 9.82799
 9.82042
 9.74715
 2.93635
 2.77679
 3.07718
 2.9115
 2.28122
 2.29245
 2.28472
 1.38383
 1.55666
 1.73349
 1.57517
 5.80184
 5.51843
 5.62734
 5.58751
 6.48326
 6.26031
 6.574
 6.37749
 3.99674
 3.69589
 3.58382
 3.76848
 5.04577
 5.06956
 4.88433
 5.05376
 5.41316
 5.2368
 5.32824
 6.1821
 6.14839
 6.24786
 6.02294
 4.5137
 4.13911
 4.27184
 4.47474
 7.09748
 7.18033
 7.08043
 7.05353
 6.32085
 6.37137
 6.17158
 6.42915
 5.0091
 5.0541
 5.14907
 4.96376
 6.46758
 6.59648
 6.65013
 6.4483
 11.788
 11.8262
 11.7003
 11.7034
 8.47872
 8.54441
 8.54238
 8.65328
 4.5352
 4.53112
 4.31631
 4.29151
 8.49399
 8.46012
 8.65277
 8.71292
 8.93577
 9.14047
 8.92955
 8.80064
 3.20038
 3.23295
 3.09269
 3.36908
 3.41913
 3.63428
 3.43613
 3.48566
 2.71389
 2.90366
 2.70172
 2.65968
 4.06072
 4.07163
 3.88591
 3.95849
 7.28195
 7.30846
 7.42378
 7.3076
 8.44949
 8.50636
 8.37714
 8.53392
 4.82368
 5.11821
 4.80905
 5.04469
 8.37228
 8.32175
 8.30172
 8.31003
 9.52453
 9.48633
 9.44357
 9.3705
 6.66242
 6.52056
 6.63429
 6.49644
 7.61747
 7.72514
 7.84998
 7.46909
 7.41676
 7.20581
 7.38139
 9.36755
 9.45603
 9.58758
 9.4621
 8.26582
 8.29007
 8.36165
 8.3167
 4.69256
 4.56908
 4.67351
 4.58384
 6.24184
 6.0839
 6.05418
 1.37453
 1.58412
 1.55906
 1.43265
 2.29715
 2.10916
 1.96104
 2.16951
 7.66003
 7.53382
 7.72764
 7.5374
 5.81521
 5.67301
 9.08174
 9.09222
 9.25153
 9.0283
 6.19686
 6.36277
 6.45347
 6.308
 2.63941
 2.57871
 2.78306
 2.61078
 8.40327
 8.36967
 8.30797
 7.17315
 7.14328
 7.10359
 7.32016
 7.55827
 7.32353
 7.35975
 7.41492
 6.57866
 6.39191
 6.37038
 6.61845
 6.73384
 6.6312
 6.50738
 6.65435
 6.15044
 6.03786
 6.171
 5.99716
 6.9196
 6.79145
 3.86261
 3.9625
 3.63314
 3.89504
 6.77299
 6.9453
 6.88408
 6.77539
 5.37819
 5.66071
 5.55471
 6.84338
 6.67523
 6.78297
 6.68734
 5.47481
 5.56918
 5.6665
 5.52592
 8.52858
 8.68798
 8.56665
 8.76584
 7.04758
 7.07795
 6.88368
 5.82591
 5.80509
 5.57146
 5.93557
 6.75883
 6.78586
 6.66131
 8.72999
 8.67461
 8.82106
 5.23484
 5.25757
 5.25951
 5.46611
 6.47478
 6.3421
 6.32337
 11.2207
 11.1833
 11.1252
 11.3389
 5.07152
 5.20564
 5.29905
 5.05435
 7.48227
 7.68607
 7.66095
 7.70569
 3.67276
 3.67726
 3.60401
 3.46873
 3.28707
 3.42626
 3.18319
 3.21949
 8.87763
 8.67205
 8.92146
 8.88343
 5.97662
 6.11368
 6.207
 7.89241
 8.06896
 7.94986
 7.95241
 2.99857
 3.31057
 3.14249
 6.38417
 6.23185
 6.34062
 6.16727
 4.79811
 4.72016
 4.72087
 4.76015
 2.69299
 2.60161
 2.54651
 2.71597
 12.2546
 12.3513
 12.3269
 12.2541
 8.10128
 8.07059
 7.97195
 8.11361
 5.96173
 5.64346
 5.76254
 5.69104
 9.55278
 9.671
 9.69967
 6.45995
 6.30091
 6.35485
 6.49611
 2.2585
 5.0454
 5.17372
 5.4087
 5.21139
 3.42885
 3.4354
 3.38818
 3.30988
 4.07702
 4.16638
 4.20436
 4.06849
 5.93343
 6.00201
 6.22367
 6.43933
 6.44337
 6.42475
 10.9234
 10.7991
 10.9139
 10.837
 7.82391
 7.89381
 7.96064
 8.06568
 8.04734
 7.92676
 8.03535
 2.30764
 1.91579
 2.30944
 2.32498
 6.58655
 6.60179
 6.3878
 6.40386
 5.85225
 5.93026
 6.07722
 5.95221
 3.13008
 3.26338
 3.02772
 3.268
 6.34136
 6.38587
 6.19055
 6.36695
 10.0212
 9.96688
 10.103
 10.0561
 6.77734
 6.84059
 6.7385
 6.8088
 8.14865
 8.14345
 8.11815
 8.00976
 8.4618
 8.58445
 8.55764
 8.49491
 9.35713
 9.30523
 9.36373
 9.36407
 10.2925
 10.3573
 10.3867
 10.2064
 1.32953
 1.51921
 1.43082
 1.49048
 10.6736
 10.6227
 10.7481
 10.5441
 6.59762
 6.70855
 6.58435
 6.74973
 1.59352
 1.62626
 1.76064
 1.7339
 7.33437
 7.36211
 7.25995
 7.19829
 9.27012
 2.71639
 2.83916
 2.79644
 2.5845
 8.59246
 10.0882
 9.92242
 9.89592
 10.048
 5.67044
 5.44705
 3.95275
 4.19983
 3.92266
 4.16494
 3.27746
 3.30483
 3.16564
 3.18922
 1.19895
 1.41388
 1.19092
 3.91576
 3.67453
 3.6859
 3.70254
 7.20327
 1.96776
 4.85133
 4.92183
 4.98557
 2.29394
 2.1374
 2.10446
 2.18446
 7.26386
 7.26841
 7.28003
 7.39018
 8.07885
 8.0345
 8.1517
 8.22411
 4.90175
 5.03393
 4.97855
 4.70132
 2.187
 2.00899
 2.23756
 2.24165
 2.97496
 3.03248
 2.91083
 3.04843
 5.38125
 5.08637
 5.12214
 10.3077
 10.3954
 10.132
 10.3024
 12.138
 12.0056
 12.0774
 12.0103
 9.35589
 9.54008
 9.55996
 9.46275
 6.05571
 5.8975
 6.09048
 9.90361
 9.76738
 9.82192
 9.93502
 3.60596
 3.66694
 3.43087
 3.72692
 3.68078
 3.81278
 3.727
 8.52109
 8.58659
 4.62857
 4.452
 0.706938
 0.865472
 0.665125
 1.43492
 1.35907
 1.39241
 1.28312
 6.92987
 7.08577
 6.83217
 6.95528
 7.87482
 7.90921
 7.98964
 7.80376
 6.73296
 6.73944
 6.56443
 6.59507
 1.89204
 1.90794
 1.85542
 1.90998
 4.69405
 4.60067
 4.66437
 4.7863
 9.34506
 9.3542
 9.3461
 9.22811
 4.5782
 4.51703
 4.66192
 4.4433
 5.88577
 5.84296
 6.00798
 5.80379
 4.93327
 4.79153
 4.81584
 12.5029
 12.4711
 12.4545
 7.85201
 7.94077
 7.24089
 7.23593
 7.39117
 7.15409
 4.20702
 4.0007
 4.13961
 4.20498
 4.57445
 4.48601
 4.2484
 4.45199
 4.43631
 4.54165
 4.21819
 11.0488
 11.0585
 9.44459
 9.46283
 9.37563
 9.43197
 5.86162
 11.1554
 11.2822
 11.229
 11.2216
 8.19707
 8.00564
 8.15818
 8.18145
 7.05681
 7.13597
 10.2521
 10.0102
 10.0319
 10.1563
 1.3083
 1.06801
 1.16925
 1.25779
 2.10486
 2.04278
 2.14197
 1.85958
 8.75599
 8.47698
 8.6821
 8.53559
 7.88234
 7.97732
 7.66476
 7.73486
 7.85309
 7.95191
 7.85478
 4.3123
 4.2
 4.47153
 4.30558
 9.26777
 9.1722
 9.10322
 9.08079
 6.59854
 6.51902
 6.62538
 5.29424
 5.2572
 5.1662
 5.02114
 7.94766
 7.91603
 7.80441
 7.88006
 8.42105
 8.26284
 8.16797
 8.33744
 8.47804
 8.59098
 8.56152
 8.43351
 7.32939
 7.25861
 7.12527
 7.26622
 5.10352
 5.2458
 8.15833
 8.12401
 8.07581
 8.21562
 1.25673
 1.60787
 1.56357
 1.54163
 8.6922
 8.60813
 8.68949
 8.58796
 9.87101
 9.91125
 9.74635
 9.82985
 5.80068
 5.7507
 10.6332
 10.5952
 10.726
 10.5608
 7.58135
 7.47939
 7.65622
 2.38276
 2.46057
 2.31009
 2.28021
 10.4563
 10.5134
 10.4689
 8.51419
 8.52125
 8.37385
 8.42697
 10.1509
 8.55339
 8.62168
 8.59416
 8.75575
 6.38086
 6.49789
 6.36077
 6.38494
 7.07101
 7.03201
 6.93769
 7.08271
 2.09896
 1.84516
 6.14281
 6.04657
 6.0862
 6.14128
 8.63505
 8.81765
 8.60894
 8.82914
 7.77476
 7.43472
 7.61184
 7.76628
 2.75159
 2.91172
 2.89489
 2.88921
 7.07262
 7.00629
 6.83316
 6.8916
 5.8162
 3.3786
 3.24888
 3.43673
 7.71171
 7.67112
 7.83362
 7.60562
 4.69814
 4.7567
 4.65252
 4.89613
 7.42689
 7.54482
 7.54489
 7.35526
 2.09859
 2.32738
 2.36622
 2.24017
 0.764639
 0.654688
 0.82462
 8.50753
 8.39369
 8.24285
 8.35196
 5.4225
 5.32727
 5.55367
 5.47544
 4.74771
 4.69107
 4.5591
 4.47075
 7.91369
 7.9033
 8.43013
 8.50153
 8.55486
 8.3795
 7.37372
 7.11421
 5.53722
 5.47291
 5.5663
 5.63316
 5.15158
 5.07676
 4.93215
 5.15933
 7.1936
 7.1235
 6.98196
 7.06514
 5.72197
 5.70374
 5.69616
 2.96366
 3.21702
 3.27956
 3.16188
 3.99049
 4.05423
 3.92957
 7.23556
 6.97619
 7.23345
 7.10011
 8.28507
 8.48027
 8.57602
 8.36273
 4.73844
 4.95756
 4.94679
 4.79864
 7.06712
 7.08372
 7.26686
 9.28415
 9.3046
 9.27673
 9.30177
 7.93238
 7.95292
 7.87708
 7.81964
 3.82728
 3.86346
 4.01051
 1.37143
 1.61647
 1.58764
 4.919
 4.8244
 4.81363
 7.94333
 8.0956
 7.88468
 8.04203
 1.61278
 1.58418
 1.62802
 1.49335
 5.23105
 5.3343
 5.22775
 5.08875
 3.50908
 3.41262
 3.11704
 3.17651
 3.81477
 3.71124
 3.81772
 3.797
 9.75745
 9.86833
 9.87072
 7.31975
 7.27861
 7.39678
 7.26092
 3.59986
 3.49954
 3.68688
 3.68243
 6.84696
 6.76384
 6.73725
 6.54993
 4.55006
 4.54868
 4.59696
 4.81568
 2.4496
 2.31137
 9.37944
 9.26776
 9.28857
 9.21751
 4.19493
 4.30889
 4.03901
 4.2495
 7.35355
 7.4317
 7.4846
 7.30893
 4.93081
 5.16045
 1.76227
 1.77082
 1.94548
 1.67699
 3.52266
 3.27041
 3.6024
 3.16009
 1.40539
 1.39082
 1.22276
 1.10526
 4.34835
 4.3854
 4.2747
 4.88709
 4.63072
 4.68068
 4.74866
 4.59985
 4.74569
 4.68431
 4.89209
 8.19244
 8.14649
 8.29947
 8.34184
 10.0584
 10.1253
 9.96306
 6.44942
 6.42151
 6.41493
 3.03537
 3.23437
 3.11153
 3.28852
 7.16494
 7.05147
 6.90493
 7.0416
 8.68146
 8.86264
 8.82777
 8.6727
 6.39323
 6.56628
 6.65748
 6.65676
 7.46052
 7.23545
 7.44747
 1.7821
 1.69779
 1.9587
 1.95097
 9.21475
 9.16034
 8.87802
 8.79078
 8.77783
 4.5876
 4.51007
 4.70704
 4.39594
 6.62927
 6.44141
 6.43293
 6.52171
 8.91391
 8.8855
 8.76026
 8.88777
 5.82998
 6.14214
 6.13036
 5.9289
 7.69427
 7.81308
 7.60204
 7.61195
 2.80398
 2.74673
 2.45373
 7.9294
 7.95968
 7.81971
 7.83331
 5.90998
 5.77746
 8.98793
 8.80131
 8.85693
 8.95767
 8.75136
 8.8905
 8.82307
 8.88193
 2.51107
 2.64423
 8.51973
 8.37715
 8.45726
 8.57639
 6.37574
 6.55259
 6.45398
 6.37308
 7.44781
 9.90627
 10.0321
 9.99214
 5.75286
 5.78582
 5.72489
 5.88532
 2.48667
 2.46507
 2.61779
 2.37841
 9.71057
 9.69246
 9.63075
 9.75921
 8.7861
 8.66628
 8.8199
 8.79206
 4.8142
 4.71647
 4.70951
 9.54826
 9.53367
 9.45035
 9.41264
 1.33921
 1.55608
 1.41914
 1.29866
 9.33507
 9.23302
 9.19531
 9.3984
 5.13105
 5.33323
 5.18218
 4.97757
 7.40058
 7.29795
 7.33387
 7.44853
 8.87564
 8.81934
 8.84847
 7.60269
 7.4132
 7.61783
 7.462
 9.03657
 9.18109
 9.08609
 9.08608
 8.64768
 8.75002
 8.67394
 4.13531
 4.31474
 4.08784
 4.25118
 4.45496
 6.65645
 6.29481
 6.52664
 6.51893
 2.30768
 2.38664
 2.51143
 2.38496
 5.75596
 5.55435
 5.87012
 5.62954
 5.0735
 4.92933
 5.07698
 5.13415
 8.82201
 8.88854
 8.72309
 8.46832
 8.51369
 5.3283
 5.5625
 5.38906
 5.29829
 2.47884
 2.18775
 6.08279
 6.03291
 6.20309
 5.98894
 9.0328
 9.06943
 8.93488
 2.91546
 2.80277
 2.98635
 2.91317
 6.13963
 6.37403
 6.3017
 6.25666
 8.8954
 8.97975
 8.89501
 8.83428
 6.57574
 6.60451
 6.35113
 6.5284
 5.25161
 4.93278
 9.60346
 9.67583
 9.63715
 9.71894
 8.52874
 8.2828
 8.16788
 8.25247
 8.12712
 8.16538
 8.19551
 8.38176
 8.31798
 8.21954
 6.26568
 6.2697
 6.30956
 5.41146
 5.49069
 5.55941
 5.64513
 8.27543
 8.29444
 8.26284
 8.29067
 7.3901
 7.41382
 5.85319
 5.99491
 5.92611
 6.06574
 5.88445
 5.85809
 6.68513
 6.47925
 6.45524
 6.63217
 10.5778
 10.4219
 10.4505
 10.3752
 5.92744
 9.0384
 8.89693
 8.99685
 9.03067
 1.87049
 1.68394
 1.89476
 4.35295
 4.4185
 4.52962
 4.32274
 6.65208
 6.54842
 6.61481
 6.86898
 6.28567
 6.13882
 6.35059
 8.57217
 8.45337
 8.51847
 8.60399
 2.65161
 2.48884
 2.87451
 2.59792
 5.21693
 5.28087
 5.11651
 5.17261
 2.68135
 2.61344
 2.92103
 2.75749
 9.19282
 9.17056
 9.30823
 9.30019
 8.23597
 8.11612
 4.23936
 4.31823
 4.41852
 4.29715
 2.36634
 2.34491
 2.30621
 2.43586
 0.791765
 0.703394
 0.866422
 0.634442
 2.56754
 2.72229
 2.54666
 5.25022
 5.10752
 5.29494
 5.18245
 2.83747
 2.75342
 2.65827
 2.73305
 9.31184
 9.18319
 9.06759
 9.20952
 3.45428
 3.3215
 3.27788
 5.26458
 5.32126
 5.37244
 5.37163
 9.06181
 9.12712
 9.05937
 9.16832
 4.81493
 4.60758
 4.73655
 4.72061
 5.65975
 5.51608
 5.46055
 5.62881
 7.98194
 7.90239
 7.83532
 7.72442
 9.41908
 9.3927
 9.56557
 9.55425
 6.98949
 6.93437
 6.79106
 6.95653
 10.8597
 10.8204
 10.6485
 10.7275
 8.70559
 8.60891
 8.72209
 8.38224
 8.54156
 8.54342
 8.58249
 11.3841
 11.3296
 11.4721
 11.3269
 2.99607
 3.1441
 3.12823
 3.73969
 3.71342
 3.54437
 3.58519
 8.25319
 8.01419
 8.08992
 10.0194
 9.98499
 10.0553
 9.33898
 9.47861
 9.33646
 9.32581
 8.17394
 8.19598
 8.06243
 8.30459
 5.1517
 4.90352
 5.04044
 5.07194
 10.5345
 10.5331
 10.4333
 10.5777
 5.51606
 5.80514
 5.84225
 5.60635
 3.73381
 3.5768
 3.88363
 3.72798
 5.9122
 5.92259
 5.64885
 5.76115
 7.04967
 7.16143
 6.91319
 8.94896
 8.96345
 8.94888
 8.85777
 2.62547
 2.45324
 2.39525
 2.45439
 3.47798
 3.36156
 3.49368
 3.61464
 8.06509
 7.94001
 8.01891
 8.13613
 2.12504
 2.01642
 1.91561
 2.52491
 2.22402
 2.47274
 2.41418
 2.23282
 2.19653
 2.3721
 2.31087
 10.3594
 10.3957
 11.3927
 11.3693
 11.4483
 11.2848
 5.28925
 5.37109
 5.4976
 6.59223
 6.71717
 6.44926
 6.67245
 6.32724
 6.13653
 6.19794
 6.30343
 12.4073
 7.15129
 5.4952
 5.31876
 3.56098
 3.44009
 3.5014
 3.49811
 10.0258
 7.54649
 7.39733
 7.55038
 0.579404
 0.698829
 0.692366
 0.686994
 6.26124
 6.39339
 6.26327
 6.11285
 1.91262
 2.03902
 1.92432
 2.10276
 7.03933
 6.85413
 7.1697
 7.50513
 7.31374
 7.43184
 3.04929
 2.97519
 3.21895
 3.02583
 5.55019
 5.64054
 5.77057
 5.86628
 9.26746
 9.37267
 9.16623
 9.21024
 3.52265
 3.18639
 3.31391
 1.99201
 1.68033
 1.678
 1.97867
 3.59613
 3.6386
 3.80697
 3.6092
 8.26184
 8.28539
 8.01862
 8.29996
 7.92636
 8.03949
 8.01682
 8.02966
 2.87191
 2.71881
 2.73328
 2.70251
 7.19207
 7.18916
 7.34257
 4.07683
 4.04647
 4.13017
 4.23727
 8.94413
 8.80677
 9.02293
 9.00861
 5.36596
 5.275
 5.5231
 5.42108
 9.10219
 9.00053
 9.09591
 9.08403
 5.95723
 5.81249
 5.96072
 5.88893
 3.84785
 3.81299
 3.63171
 4.00028
 9.4008
 9.44533
 9.33554
 6.1243
 5.96653
 3.33065
 3.43236
 3.44272
 3.5734
 7.18275
 7.28396
 7.30164
 9.20847
 9.34591
 9.38312
 9.31455
 4.88536
 4.81072
 4.9102
 4.74169
 5.22376
 5.25127
 4.95347
 5.1743
 11.934
 11.9402
 11.816
 11.8937
 6.42391
 6.6138
 6.49423
 11.0654
 10.9602
 10.9245
 6.26982
 6.29375
 6.39089
 6.31717
 6.51174
 9.15132
 9.12355
 9.33943
 9.27257
 6.96552
 6.8146
 6.74123
 3.55059
 3.5503
 3.56123
 3.64312
 6.7243
 6.6394
 6.54584
 6.54881
 6.55389
 6.62272
 6.66194
 0.876407
 0.98319
 1.01574
 1.1717
 8.41633
 8.11584
 8.18887
 8.28681
 9.59344
 9.58621
 9.52724
 9.53846
 7.56545
 7.62455
 7.36417
 7.5399
 3.08056
 2.97255
 2.94391
 3.23164
 12.0124
 11.903
 11.9886
 11.8366
 4.17453
 4.38448
 4.24597
 4.23118
 9.58691
 9.6893
 9.62709
 9.64409
 3.43954
 3.87486
 3.76711
 3.57344
 3.95797
 4.07794
 4.1798
 4.04225
 4.1732
 4.06974
 8.22988
 8.32776
 8.33798
 8.25326
 2.64575
 2.63707
 2.64593
 4.18701
 4.4804
 4.34898
 4.13437
 8.50951
 8.34485
 8.45369
 8.60566
 7.57547
 7.64301
 7.43397
 12.5143
 12.5114
 12.5559
 12.5127
 6.51777
 6.76002
 6.51215
 2.66318
 2.52302
 2.69841
 2.75507
 3.7352
 3.87593
 2.87085
 2.66732
 2.51336
 2.80351
 4.45775
 4.43868
 9.66304
 9.61063
 9.78741
 9.51737
 3.97893
 4.02477
 4.00051
 4.22917
 6.24301
 6.13821
 7.7159
 7.59014
 7.62841
 7.69813
 3.86854
 3.77138
 3.69948
 3.77695
 8.13759
 8.41108
 8.398
 8.1946
 2.79703
 2.81977
 2.61996
 2.34389
 5.61401
 5.56363
 5.77423
 9.88957
 9.95696
 9.9745
 9.88291
 5.20994
 5.25168
 5.33811
 5.44166
 8.40357
 8.55173
 8.59416
 8.65663
 8.26389
 8.44551
 8.32155
 12.1279
 12.136
 12.1347
 12.0615
 9.39095
 9.16666
 9.11232
 9.31413
 3.68522
 3.79304
 3.59379
 3.80378
 6.60269
 6.55226
 6.72343
 7.40103
 8.9214
 8.84226
 8.89504
 8.78808
 7.33083
 7.46478
 7.34467
 7.28466
 4.60099
 4.32776
 4.29447
 4.5437
 8.97282
 8.97003
 8.70005
 10.069
 5.66716
 5.5866
 5.79601
 5.49829
 8.8601
 8.64783
 11.1996
 11.2975
 8.89594
 8.77849
 8.89851
 9.07165
 4.51385
 4.3497
 3.28534
 3.29672
 3.21444
 3.32921
 7.73364
 7.5907
 7.56882
 7.59964
 2.0224
 1.97881
 1.81574
 1.97367
 7.67412
 7.65255
 7.97468
 7.95504
 4.14839
 4.12208
 4.22291
 4.46962
 8.50466
 8.49608
 8.41891
 8.41071
 3.95861
 3.84018
 4.08482
 3.92861
 7.10242
 6.95809
 2.38333
 2.49601
 4.91891
 4.78079
 4.98292
 4.73252
 4.89659
 4.98571
 4.97401
 4.76727
 6.00089
 6.11546
 5.94655
 5.9393
 3.97693
 4.21888
 3.96073
 3.79532
 8.56072
 8.71446
 8.62249
 8.63166
 2.53081
 2.62437
 2.64768
 2.24881
 2.17396
 2.37859
 2.24183
 9.04361
 8.87325
 8.87671
 8.95274
 4.52534
 4.75538
 4.7234
 4.62535
 9.05154
 8.92125
 8.9079
 8.77738
 6.27311
 6.72382
 6.48571
 6.4819
 6.71219
 3.44578
 3.41399
 3.41112
 3.64762
 10.8364
 10.9368
 10.8668
 10.7474
 4.64251
 4.52645
 4.38588
 4.55916
 6.35742
 6.19402
 6.53121
 6.39839
 4.52394
 4.66655
 4.69442
 4.7032
 5.00315
 0.93213
 1.05726
 1.33187
 1.1905
 3.83943
 3.82897
 4.12788
 4.05226
 11.163
 11.097
 11.0015
 11.1832
 7.14051
 7.32827
 7.40617
 7.24313
 7.94511
 6.21013
 6.23259
 6.17559
 6.03504
 2.80251
 2.806
 3.00316
 3.10304
 3.44558
 3.46838
 3.25351
 2.82098
 3.26364
 3.05162
 3.14423
 11.9663
 11.9049
 4.10792
 4.13295
 4.1184
 8.07463
 8.08302
 8.12781
 7.94299
 4.35678
 4.45136
 4.32463
 4.49604
 5.99356
 4.82088
 5.01061
 4.81275
 4.86898
 2.27002
 2.61576
 2.51573
 2.29155
 4.85835
 4.71992
 4.46506
 4.81137
 7.20761
 7.14417
 7.37961
 7.01895
 9.097
 9.06793
 9.14411
 9.03561
 1.22109
 1.46806
 1.16069
 1.25313
 4.45794
 4.54307
 4.37738
 4.61281
 1.51484
 1.60888
 1.56851
 1.41046
 8.04103
 8.26712
 8.04122
 8.01167
 6.02563
 6.11874
 2.35137
 2.05978
 2.37405
 2.22114
 6.01756
 5.96681
 5.96961
 5.79273
 6.66121
 6.46087
 6.13051
 6.04515
 5.93025
 6.13104
 3.32122
 3.3492
 3.41819
 3.19797
 7.67846
 7.88077
 7.97091
 7.79155
 9.73922
 9.62289
 9.71808
 9.71746
 9.28127
 9.32959
 9.33555
 9.33809
 7.83867
 7.74689
 7.73644
 7.88625
 7.02914
 7.26072
 7.10132
 6.90268
 7.16144
 7.03687
 6.96375
 6.32556
 6.44655
 6.5087
 6.36416
 9.80616
 9.8413
 9.78014
 7.35604
 7.45539
 7.25238
 7.28907
 6.03524
 5.86653
 5.8847
 6.10572
 8.23192
 8.38713
 8.15531
 8.4029
 7.9043
 7.76275
 7.79832
 7.81233
 5.75398
 5.74663
 5.60785
 5.47867
 6.54967
 6.70169
 6.5633
 6.60624
 4.70885
 4.79709
 4.71308
 4.7852
 9.35274
 9.31133
 9.25858
 3.63639
 3.74223
 3.49513
 3.71873
 8.22542
 8.07589
 8.18474
 8.29688
 7.05571
 7.14875
 7.22857
 7.00062
 6.72225
 6.56877
 6.52212
 5.38241
 5.39501
 5.32567
 5.18361
 4.95404
 4.93168
 4.80671
 5.0329
 4.63254
 4.58625
 4.42889
 3.22536
 3.16604
 3.16609
 5.03954
 5.12501
 5.2535
 5.12228
 3.01991
 2.92109
 3.16998
 2.59937
 2.58797
 2.64454
 2.82166
 6.60284
 6.9265
 6.74325
 6.82338
 7.95704
 8.07411
 7.92467
 8.06064
 8.65127
 3.20158
 3.29343
 2.97243
 3.19879
 3.04275
 3.40752
 12.2108
 12.2723
 12.2024
 12.156
 4.0767
 4.24073
 7.01813
 7.18925
 6.98432
 1.50796
 1.30334
 5.3449
 5.62178
 5.54169
 5.49429
 7.1538
 7.06466
 7.06056
 4.03326
 3.67366
 3.88231
 3.76833
 7.98701
 7.94474
 8.06071
 7.88339
 11.414
 11.3033
 11.3306
 11.4481
 5.63746
 5.60209
 5.68707
 5.44568
 3.34051
 2.97705
 3.3255
 3.82389
 3.83786
 3.78595
 3.95656
 8.31702
 8.55148
 8.49968
 8.64492
 8.30646
 8.18399
 8.88222
 8.75841
 8.92717
 1.42742
 1.57327
 3.38363
 3.59501
 3.36292
 3.63075
 6.11018
 5.86078
 5.90116
 4.23621
 4.46286
 4.07117
 4.06956
 8.22611
 8.46441
 8.42056
 8.30533
 6.43204
 6.45096
 6.28568
 6.24785
 6.53195
 6.39538
 6.38477
 6.53783
 8.51518
 8.43782
 8.50408
 8.17254
 8.25842
 8.19061
 8.20829
 0.726217
 0.53615
 0.656045
 0.442604
 9.49404
 9.68063
 2.73506
 2.63258
 2.6685
 2.79381
 7.0163
 6.84679
 6.92183
 7.00536
 6.0557
 5.92788
 5.93093
 5.915
 9.31785
 9.19994
 6.23113
 6.35722
 6.36426
 6.47474
 7.02995
 7.09438
 7.14517
 6.97154
 3.4914
 3.52602
 3.59604
 3.47606
 6.70157
 6.5732
 6.54087
 6.78876
 8.0931
 8.08308
 5.37359
 5.36931
 5.47401
 5.32198
 4.48571
 4.56519
 4.40213
 6.09613
 5.90928
 5.97279
 5.87296
 8.76429
 8.68096
 8.80364
 8.59451
 11.597
 11.4768
 11.4935
 11.6103
 6.6321
 6.73743
 6.59998
 6.39591
 5.8409
 5.59325
 5.78353
 5.82953
 7.22592
 7.12924
 7.32081
 7.28164
 7.78113
 7.87969
 7.7589
 7.68046
 3.41807
 3.21539
 5.30988
 5.40527
 5.47732
 10.5791
 10.6365
 10.7109
 10.5573
 8.47812
 8.60874
 8.38713
 8.66459
 6.14761
 6.08686
 6.19921
 6.26576
 3.43989
 3.35337
 3.35985
 6.92822
 6.99806
 7.20078
 7.20804
 8.19008
 7.97329
 8.05083
 8.20137
 4.22478
 4.46094
 4.47545
 4.33388
 5.40021
 5.45784
 5.53012
 5.51509
 3.63529
 3.59924
 3.61722
 4.00637
 3.97528
 3.97786
 3.96737
 7.446
 7.4051
 7.53916
 7.61309
 6.77733
 6.8227
 6.66689
 11.4098
 11.3888
 11.41
 11.4889
 8.15062
 8.14075
 9.66969
 9.76873
 9.62272
 9.53202
 8.60864
 9.19976
 2.86286
 8.02343
 8.19753
 8.06345
 8.27376
 1.28432
 5.28172
 5.45325
 5.28354
 5.52562
 8.06913
 7.90619
 7.99317
 7.40404
 7.26104
 7.25703
 3.54502
 3.51916
 3.78844
 3.55505
 3.69855
 3.81849
 3.66372
 3.81327
 8.94397
 9.14245
 9.14925
 9.0062
 2.19535
 2.15453
 2.06471
 2.31686
 6.41698
 6.5819
 6.7227
 3.73616
 3.58257
 3.68177
 5.78735
 5.95585
 5.89218
 5.75425
 8.01471
 7.92575
 8.1289
 8.06324
 5.81765
 5.54649
 5.79732
 7.8352
 7.7821
 7.77383
 7.95762
 6.98964
 6.74676
 3.48184
 3.35054
 3.30154
 3.12405
 2.83016
 2.5705
 2.71487
 2.78126
 8.53903
 8.38159
 8.59695
 8.45768
 4.39593
 4.6684
 4.54107
 4.33586
 5.42307
 5.70823
 5.47459
 5.34303
 7.28356
 7.43302
 7.2048
 7.30493
 3.08648
 3.18307
 3.2512
 3.36
 6.90812
 7.07003
 6.80416
 6.87917
 6.42007
 6.55579
 6.55986
 6.27554
 6.88439
 6.99789
 6.84703
 6.8257
 8.41278
 8.24765
 8.69991
 8.58818
 8.47708
 8.66608
 9.88745
 10.0856
 9.94442
 9.89346
 5.31444
 5.32636
 5.35555
 5.14453
 5.56158
 5.74365
 5.73967
 2.14812
 2.10628
 2.06517
 2.08832
 1.40566
 1.29372
 1.49027
 2.54404
 2.44595
 2.74554
 5.81322
 5.5991
 5.45789
 5.73025
 4.72479
 4.5994
 4.47979
 4.82022
 3.59236
 3.4108
 3.55537
 3.38062
 7.8735
 8.04231
 8.0015
 7.89528
 9.59007
 9.47071
 9.39652
 9.40039
 1.40559
 1.37818
 1.56546
 1.19242
 8.22786
 8.28461
 8.35978
 8.19564
 6.01126
 6.01577
 5.91868
 6.06152
 1.21824
 1.28793
 1.5502
 1.06494
 5.14754
 5.34123
 5.08709
 5.15244
 7.15111
 7.23308
 7.159
 7.22397
 8.16954
 8.30442
 8.28389
 9.17698
 9.00902
 9.1113
 9.20411
 8.76905
 8.83519
 8.75346
 8.84915
 8.70591
 8.7949
 8.31653
 8.22005
 8.49562
 3.73994
 3.86319
 3.896
 3.92376
 2.43466
 2.57279
 2.5252
 2.55076
 4.9804
 5.04592
 5.0124
 5.27257
 6.75843
 2.91774
 2.83006
 2.85787
 2.99353
 9.22625
 9.23525
 9.24434
 9.27395
 1.83291
 1.70279
 1.87654
 1.5926
 7.43955
 7.57721
 7.33455
 4.56305
 9.09752
 9.1124
 9.21925
 8.52588
 8.61236
 8.70873
 8.45966
 6.17141
 6.201
 6.44745
 6.27732
 4.19406
 4.18668
 4.33747
 4.04803
 6.76936
 4.63297
 4.72712
 4.76642
 6.69302
 6.73079
 6.68648
 6.50632
 7.85253
 7.80467
 7.93611
 7.93813
 7.37173
 7.58254
 7.42798
 7.40065
 4.53907
 8.37214
 8.34759
 8.27162
 3.85289
 3.98606
 3.80181
 3.9301
 3.20533
 3.27823
 3.03278
 3.33889
 2.44689
 2.32479
 2.47319
 7.86346
 7.85266
 7.97026
 7.84552
 9.38693
 9.4846
 9.39613
 3.50816
 3.53974
 3.12086
 3.20271
 3.30369
 3.31162
 6.74326
 6.71682
 6.59713
 1.76469
 1.83348
 1.65972
 1.85374
 3.38124
 3.45338
 3.36694
 3.28647
 5.17768
 5.14814
 5.05277
 5.00929
 6.01803
 5.96188
 6.07385
 6.2211
 8.22344
 8.24917
 8.29431
 8.16737
 3.20901
 3.20056
 3.30627
 3.03943
 7.75078
 7.70164
 7.91239
 7.39464
 7.24945
 7.22319
 7.18236
 2.45877
 2.50238
 2.22363
 2.3675
 4.6626
 4.63796
 4.7081
 4.77781
 1.65103
 1.80122
 1.96863
 1.75837
 7.4182
 7.30291
 7.23338
 7.2562
 6.06563
 6.00146
 6.2091
 5.86349
 3.11834
 3.14894
 3.01539
 3.09488
 6.18023
 6.0432
 6.23889
 6.20327
 1.67852
 1.43107
 1.63828
 7.93121
 7.98889
 8.01829
 7.99279
 5.66813
 5.6733
 5.7315
 5.85435
 5.2683
 5.07182
 5.22929
 5.19744
 6.40854
 6.51341
 6.23939
 6.43883
 3.26853
 3.27535
 3.02692
 3.1813
 6.66462
 6.85578
 6.7345
 6.79548
 5.41449
 5.46438
 5.44026
 5.57606
 9.31461
 9.30598
 9.33505
 9.31372
 3.86164
 3.82165
 3.98427
 4.07817
 9.34509
 9.34795
 9.35053
 8.26144
 8.33932
 8.3378
 8.24439
 8.80956
 8.73205
 8.45479
 8.6778
 4.13748
 4.21581
 4.08306
 3.95513
 4.82131
 4.56474
 4.772
 4.73022
 7.45561
 7.6119
 7.59492
 7.69337
 1.05062
 1.19432
 1.35578
 11.3378
 11.3642
 5.41018
 5.24573
 5.51041
 5.42703
 10.1747
 10.3026
 10.4471
 10.3184
 4.85222
 4.81955
 4.60143
 4.69986
 7.28606
 7.77235
 7.83746
 7.87955
 7.97441
 4.17092
 4.12278
 4.08374
 4.00647
 2.99638
 3.09055
 2.87661
 3.05123
 9.30805
 9.30804
 4.53003
 4.43549
 4.14028
 4.46308
 5.64911
 5.97998
 5.61433
 5.79179
 8.10754
 8.10562
 8.21138
 7.89376
 6.67021
 6.83253
 6.86723
 6.65763
 3.4927
 3.72283
 3.2739
 2.3734
 2.43584
 2.41009
 2.4309
 1.2665
 1.26712
 1.19854
 7.66778
 7.76625
 7.73663
 7.63595
 2.52338
 2.67557
 2.74336
 2.77143
 8.90757
 9.03043
 8.98046
 8.94484
 4.98373
 5.01321
 4.94573
 5.17551
 5.83682
 5.61492
 5.787
 5.77811
 2.33519
 2.33357
 2.35009
 2.20737
 4.74007
 4.62718
 4.79383
 4.90973
 10.5084
 10.5806
 10.6173
 10.5178
 6.75348
 7.01019
 6.77615
 6.95468
 7.58445
 7.35955
 7.37038
 7.57941
 4.23767
 4.13492
 4.32953
 4.48412
 8.71254
 8.82216
 8.87144
 8.85851
 5.43927
 5.57493
 5.54916
 5.33276
 7.75628
 7.88167
 7.9103
 9.46511
 9.55207
 9.53165
 9.59755
 5.33386
 5.16032
 5.45683
 4.99595
 5.01879
 5.1262
 8.34889
 8.50102
 8.6088
 8.64635
 8.66007
 8.59031
 8.53214
 2.65035
 12.3405
 12.2775
 12.2941
 12.3933
 3.32675
 3.46942
 3.16861
 3.34647
 9.03657
 7.34205
 7.37599
 7.41528
 7.18979
 7.61399
 7.71939
 7.39652
 8.29553
 8.08426
 8.18348
 8.2518
 10.4737
 10.5041
 10.4157
 10.6039
 8.9147
 8.79617
 8.80562
 6.07942
 6.17516
 6.16665
 7.69438
 7.75486
 0.778321
 1.01684
 1.02752
 8.80537
 8.67155
 8.86941
 7.4111
 7.27975
 7.21151
 2.51428
 2.31936
 2.3376
 4.09001
 4.08052
 3.89037
 4.07167
 8.21299
 8.12682
 8.07158
 9.33966
 9.49108
 2.07489
 2.23226
 1.98675
 2.06813
 10.0368
 9.9903
 10.1498
 9.89049
 8.76854
 8.82242
 11.5862
 11.6869
 11.0203
 11.0409
 10.977
 7.39368
 7.29524
 7.47832
 2.20454
 2.42223
 2.53218
 4.61821
 4.59858
 4.41556
 8.1163
 8.01288
 7.8559
 7.76251
 7.91171
 2.98961
 9.42369
 9.42559
 9.36346
 9.35705
 7.55245
 7.25693
 7.46428
 7.452
 4.30396
 4.3439
 4.21041
 4.52776
 4.50152
 4.61842
 4.56289
 7.41724
 7.47615
 7.31984
 7.19481
 4.54685
 4.48682
 4.33136
 4.34106
 3.93756
 4.10189
 4.00107
 3.78235
 6.44879
 4.52632
 4.46453
 4.43491
 4.3676
 1.79864
 1.69165
 1.79999
 1.93076
 8.44786
 8.71742
 8.75752
 8.5599
 2.20924
 2.06735
 2.17521
 2.19653
 11.695
 11.6423
 11.7356
 2.1258
 2.2558
 1.92548
 2.01492
 8.39766
 8.4318
 8.58004
 8.56108
 3.83385
 4.02179
 3.88399
 3.74591
 8.757
 8.7468
 9.06613
 8.99581
 1.55075
 3.5363
 3.81235
 3.7016
 3.89479
 2.92757
 2.73789
 2.81783
 9.2649
 9.1903
 9.31433
 9.36914
 4.17243
 4.31839
 4.31358
 4.42105
 5.58738
 5.40721
 5.39291
 5.46781
 5.84315
 5.73457
 5.9872
 6.0013
 1.18534
 1.40872
 7.08545
 7.06734
 7.08841
 7.38637
 7.24667
 7.18452
 7.09945
 4.402
 4.53342
 4.21712
 4.18555
 4.44509
 4.35216
 4.35672
 4.19297
 5.30213
 5.27261
 5.13568
 5.35401
 8.36739
 8.36812
 7.97597
 8.08212
 8.09055
 7.40706
 7.28881
 7.28623
 7.26492
 9.57288
 9.69102
 9.66908
 9.67203
 7.53709
 7.65315
 7.79126
 10.4165
 10.4184
 10.2845
 7.53689
 7.55595
 7.7002
 7.43585
 8.35342
 8.15253
 8.40262
 6.68065
 4.37138
 4.44969
 4.21487
 7.14844
 7.19672
 7.08038
 6.98504
 8.86136
 8.85122
 8.48819
 8.67469
 6.42662
 6.30878
 6.2472
 6.24266
 3.62513
 3.75569
 0.994036
 1.1623
 1.27799
 0.973457
 4.31139
 4.37238
 4.21266
 4.49612
 7.0546
 7.08447
 7.10452
 7.00393
 1.63329
 1.61125
 1.25046
 1.76111
 2.0777
 1.98308
 1.93222
 6.21429
 6.44258
 6.51415
 6.30447
 9.14214
 9.18345
 9.06451
 6.97066
 6.98922
 6.78616
 6.97258
 9.251
 9.43263
 9.24383
 9.44145
 4.85017
 4.85579
 4.80088
 5.22201
 9.28502
 9.28182
 9.29581
 9.25049
 8.3026
 8.20514
 8.16402
 8.23818
 2.0986
 2.32234
 2.04635
 2.25828
 6.11554
 6.10822
 6.26645
 6.09854
 7.57278
 7.6731
 7.51863
 7.65019
 4.33872
 4.30641
 3.78049
 3.46646
 3.56803
 3.59721
 7.23954
 7.05281
 7.10492
 6.88475
 6.82899
 6.71561
 6.78964
 6.80896
 9.03324
 8.93596
 9.06485
 7.31297
 7.43179
 7.52389
 12.055
 12.1736
 12.076
 12.1391
 8.19807
 8.13058
 9.27264
 9.2017
 9.26404
 9.39674
 5.6169
 5.79723
 5.63578
 5.84806
 10.4178
 10.2651
 10.1959
 10.3343
 8.63153
 8.67353
 8.83138
 4.86709
 4.81528
 4.84333
 4.9352
 8.56805
 8.43697
 8.6214
 8.80537
 8.79217
 8.93857
 8.90808
 7.44159
 7.53325
 7.50998
 7.33672
 3.94094
 3.45138
 11.0967
 11.0393
 8.27739
 8.40487
 6.95582
 7.10488
 7.0428
 7.07162
 5.02861
 4.88487
 5.02382
 4.77878
 6.49878
 6.4823
 6.38644
 6.35442
 9.22812
 9.46408
 9.27568
 9.36102
 5.67205
 5.88784
 5.77425
 9.09719
 9.13945
 9.07561
 9.08216
 2.7137
 2.70585
 2.54816
 2.81321
 5.03948
 5.04465
 5.04103
 5.22444
 8.90817
 8.80749
 8.95613
 6.90337
 7.1
 6.92415
 6.83709
 9.34255
 9.36076
 9.30442
 8.63348
 8.47621
 8.52642
 8.61734
 8.76462
 8.79484
 8.64632
 8.74452
 7.1043
 7.2465
 7.2855
 7.344
 1.97179
 2.07307
 2.20117
 2.15774
 5.41756
 5.20097
 5.29863
 5.24386
 7.09932
 7.31452
 7.1574
 6.13851
 6.22512
 6.21879
 2.90434
 3.16402
 2.92507
 3.08683
 5.2951
 5.25551
 5.45088
 5.17803
 7.2715
 7.13898
 7.08734
 7.09549
 9.53327
 9.49903
 8.9463
 9.03822
 8.86541
 8.86188
 11.3351
 11.3757
 11.4903
 11.3332
 4.29609
 4.26519
 4.25555
 4.35354
 8.47832
 8.64385
 8.59519
 8.60757
 6.47327
 6.64603
 6.53529
 6.736
 9.7719
 9.83936
 9.81203
 9.86739
 5.98144
 6.07617
 6.17361
 6.15859
 6.90825
 4.44042
 4.55862
 4.67066
 4.61081
 7.20322
 7.39705
 7.43402
 7.25108
 7.26291
 7.1726
 7.05679
 7.11194
 7.71347
 7.86778
 7.8112
 7.90959
 8.84317
 8.99921
 8.75381
 3.44422
 3.39814
 3.33948
 3.70428
 7.31003
 7.36523
 7.36605
 7.42607
 3.63922
 3.55851
 3.41032
 4.91639
 5.05611
 4.93237
 5.0236
 4.00198
 3.70474
 3.86578
 3.68492
 8.9478
 8.81709
 8.97469
 12.408
 12.353
 12.3381
 4.59774
 4.35872
 4.42181
 5.93385
 5.62587
 5.78122
 5.59632
 7.56032
 7.49072
 7.41475
 7.55178
 7.0677
 7.00417
 7.2323
 7.17985
 10.7054
 10.6092
 10.8309
 10.6009
 6.41742
 6.50504
 6.52429
 6.54525
 5.58322
 5.57109
 5.42208
 5.64465
 8.53182
 8.52312
 8.14015
 8.43831
 8.29009
 8.27002
 4.77104
 4.92382
 4.81717
 4.82709
 8.69042
 8.52412
 5.42921
 5.51779
 9.16367
 12.1697
 12.1949
 12.1739
 12.0851
 9.77044
 9.62639
 1.47319
 1.22339
 1.42564
 9.42321
 9.29341
 9.17304
 9.30081
 4.53707
 4.52177
 8.31854
 8.35541
 8.33336
 8.32234
 7.80243
 7.52153
 7.63136
 4.38919
 4.29998
 4.35658
 4.14686
 5.23465
 5.04724
 5.21098
 5.14822
 3.32662
 3.31501
 3.10108
 7.14037
 7.2952
 7.12519
 7.36744
 6.63856
 3.19695
 3.54151
 3.28005
 3.36299
 9.33194
 9.36992
 9.28382
 9.22078
 6.24253
 6.39654
 6.19429
 6.36359
 4.2168
 4.51222
 4.30036
 4.45795
 11.5935
 11.5632
 11.5242
 11.5113
 8.87901
 1.62749
 7.43563
 7.19135
 7.35006
 7.51118
 6.21114
 6.0545
 6.26448
 6.32347
 8.35007
 8.55289
 8.44517
 8.39354
 6.06191
 6.15152
 6.07489
 6.03709
 9.03838
 9.00467
 8.86534
 9.06665
 8.94241
 8.84607
 8.95444
 7.06944
 6.91159
 7.15914
 7.05862
 4.12235
 3.9531
 4.3289
 0.917835
 0.689123
 0.885577
 1.00126
 10.82
 10.9496
 10.9678
 6.80043
 6.80528
 6.97612
 6.90694
 7.08333
 6.84521
 2.56104
 2.59129
 2.63165
 2.41236
 4.62994
 4.77389
 4.71237
 4.8614
 8.85011
 8.62159
 8.78597
 10.0657
 7.25917
 7.45815
 7.38853
 7.26981
 6.83416
 6.72364
 6.75426
 4.93472
 5.03535
 5.01048
 4.87295
 4.27926
 4.49574
 4.3371
 4.45019
 7.35963
 7.47426
 4.60168
 4.62296
 4.5555
 4.41572
 5.94802
 6.00346
 5.96201
 5.79947
 2.12812
 2.00617
 5.44081
 5.6124
 5.45093
 5.53183
 4.68097
 4.58628
 4.5472
 4.45612
 5.01095
 4.89263
 5.01052
 5.00664
 6.72013
 6.62159
 7.17649
 7.06273
 7.19569
 7.29584
 7.78929
 7.93701
 7.86722
 7.83118
 5.9187
 5.79749
 5.79154
 5.90265
 8.99204
 8.87844
 8.79757
 8.72882
 8.38366
 8.41265
 8.47326
 8.41748
 11.1119
 11.0347
 11.0474
 11.1743
 7.78958
 8.04129
 6.01736
 6.29235
 6.08493
 6.174
 7.39877
 7.43542
 7.35312
 7.24322
 6.32135
 6.20473
 6.12998
 6.26016
 7.10264
 7.0773
 4.37904
 4.45955
 1.56909
 1.52828
 1.50876
 1.4627
 9.32124
 7.21689
 7.23406
 7.17884
 7.06029
 6.51293
 6.67926
 6.62808
 6.60105
 8.08772
 8.18509
 8.22591
 8.35543
 4.7959
 5.03425
 4.81995
 5.02975
 6.1865
 6.3042
 6.36267
 6.19701
 9.05021
 9.10223
 8.98424
 9.1063
 9.17752
 7.53191
 7.353
 7.56672
 7.47451
 7.65338
 7.42238
 7.61326
 7.64458
 8.83792
 8.83259
 8.96581
 8.84096
 8.43663
 8.39016
 8.18886
 8.28135
 6.92632
 6.77264
 7.0071
 7.02032
 8.97587
 9.06466
 9.11666
 9.06338
 6.04948
 5.99002
 6.22664
 8.18969
 8.19197
 8.21786
 8.2459
 10.4068
 10.3173
 6.07902
 5.95492
 5.91345
 6.31699
 6.11177
 6.19623
 6.09882
 9.26939
 9.16044
 9.10371
 9.71044
 9.64112
 9.63756
 9.69258
 5.41375
 5.44737
 5.3104
 5.482
 6.19623
 6.42819
 6.18015
 3.92271
 4.2731
 4.11645
 6.74001
 6.87333
 6.84005
 3.34081
 3.36777
 3.30836
 11.2761
 11.3659
 11.3633
 11.284
 2.09287
 2.01414
 2.1303
 1.99432
 7.87611
 8.01653
 5.87929
 6.0326
 8.79875
 8.78557
 8.82224
 8.68369
 5.5782
 5.6499
 5.43901
 4.28754
 4.13499
 4.1682
 4.13845
 3.24475
 3.53842
 9.29846
 9.28099
 9.34647
 6.07358
 6.09621
 6.26131
 8.39438
 8.54275
 8.3739
 9.19879
 9.19714
 9.23894
 9.30055
 7.25189
 7.18153
 7.34673
 7.12066
 7.46111
 7.64166
 7.60056
 7.48135
 4.94425
 5
 5.02055
 4.81564
 4.41107
 4.56128
 4.47268
 4.69682
 7.58962
 7.57609
 7.45295
 5.45674
 5.51604
 5.62074
 4.84715
 4.68547
 4.79208
 4.74147
 0.47173
 0.593403
 0.415468
 6.66714
 6.70946
 6.71384
 4.83042
 4.71679
 4.95619
 6.84114
 6.74347
 6.95844
 7.93412
 8.11866
 8.07599
 9.29217
 9.23351
 9.26328
 9.23158
 6.72128
 7.03515
 6.85955
 6.9831
 8.2199
 8.27275
 8.38418
 8.91689
 8.75672
 5.06995
 5.18984
 4.9127
 5.09376
 5.04914
 4.88691
 5.13146
 5.24911
 8.79172
 8.63582
 8.55729
 8.50947
 8.96884
 9.12556
 9.03299
 9.13336
 9.97882
 10.053
 9.97386
 10.1044
 2.40036
 2.30615
 3.5704
 3.83275
 3.68685
 3.54219
 1.97628
 8.02623
 7.84918
 8.03042
 6.5324
 6.48121
 6.61594
 6.67391
 8.88811
 8.90328
 6.93926
 6.98135
 6.81839
 9.40765
 9.35114
 3.82944
 3.81358
 3.60693
 3.97785
 3.09034
 3.15024
 2.80425
 3.00407
 4.29865
 4.26504
 4.46558
 7.89827
 7.7793
 7.78796
 3.17448
 3.20387
 3.12813
 3.07874
 8.30677
 8.49943
 8.35326
 8.28189
 4.14242
 4.26671
 4.30814
 4.15148
 8.20773
 8.37774
 8.41391
 8.14102
 9.00437
 8.94436
 9.05765
 1.97612
 1.63408
 1.797
 1.88664
 9.23927
 9.18032
 9.20946
 7.30199
 7.24302
 7.06571
 7.17314
 2.14188
 1.93108
 2.04379
 8.21624
 8.33743
 8.17275
 8.2717
 5.29667
 2.60751
 2.48391
 2.91418
 2.66931
 9.50202
 9.46385
 9.3912
 9.47245
 4.99059
 5.27543
 5.05932
 4.9832
 6.7447
 6.68492
 6.91509
 8.98225
 9.07862
 8.96248
 9.25252
 5.27824
 5.33494
 5.18488
 8.45112
 8.51418
 11.1649
 11.2846
 11.1639
 11.0886
 9.84023
 10.1528
 10.167
 3.03484
 3.12928
 2.72036
 3.00622
 3.0565
 2.92942
 9.72274
 9.68213
 9.82639
 9.63912
 7.51869
 7.4442
 7.45921
 7.37424
 7.00615
 7.23152
 7.21821
 7.15618
 6.08025
 6.1484
 5.94514
 6.12703
 6.05017
 6.33095
 6.15245
 6.30599
 2.39007
 9.08003
 9.14306
 9.07068
 9.11729
 2.26799
 2.41519
 2.1832
 5.94254
 6.12844
 6.21518
 6.14037
 9.237
 9.09342
 9.04693
 6.28974
 6.43772
 6.3249
 6.44583
 6.78045
 5.00342
 4.94535
 4.73731
 4.81276
 8.309
 8.31469
 8.31166
 6.7866
 6.5016
 6.61494
 2.09471
 2.1835
 2.40078
 2.20925
 6.81808
 6.8591
 6.92339
 11.6514
 11.6088
 11.7303
 6.83098
 6.94798
 6.84408
 7.10458
 4.90413
 4.72402
 4.77757
 6.62367
 6.58371
 3.4102
 3.30908
 3.52208
 3.48838
 4.33783
 4.16582
 4.25812
 4.29109
 1.85442
 1.92265
 2.05471
 2.18815
 6.1736
 6.501
 6.26517
 6.20748
 4.60373
 4.64946
 4.72075
 4.79522
 3.41372
 3.26612
 3.12181
 8.52233
 8.42839
 8.66781
 8.57857
 6.99931
 6.83295
 7.80805
 7.92713
 7.79116
 7.8526
 5.09405
 5.11791
 5.12851
 5.00179
 6.85545
 6.6974
 6.74379
 6.9115
 5.27081
 5.37278
 5.1415
 5.35136
 6.67074
 6.62858
 6.4672
 6.46026
 6.90128
 7.03991
 7.03211
 3.54214
 3.68794
 3.58462
 2.67921
 2.6842
 2.7453
 2.42481
 3.37208
 3.38624
 3.24115
 4.63639
 4.36484
 4.58872
 10.8373
 10.8444
 10.948
 7.03917
 6.82944
 6.99389
 3.74006
 3.64718
 3.75206
 3.76689
 7.04503
 6.96606
 7.05906
 6.06378
 6.00615
 6.00835
 6.17278
 5.25241
 5.6339
 5.50418
 5.51718
 6.77587
 6.63958
 6.68102
 6.5587
 8.71727
 8.61949
 8.6995
 8.77485
 6.97914
 6.07524
 6.09178
 5.98888
 6.31676
 9.25414
 9.20552
 9.18694
 9.19464
 9.21401
 9.09551
 9.17462
 9.09893
 8.95375
 8.85981
 8.91716
 8.98735
 5.26872
 5.30565
 5.07231
 4.97196
 8.43707
 8.53286
 8.46933
 8.4477
 1.47722
 1.68843
 1.52248
 1.67979
 10.0573
 9.98636
 9.89011
 9.89934
 8.44667
 8.43042
 8.46616
 9.48636
 9.59108
 9.66335
 9.63788
 8.92602
 9.02524
 8.8303
 9.14369
 9.12132
 6.51618
 6.54494
 6.42562
 6.17351
 2.74994
 2.93481
 2.99643
 2.67587
 2.71634
 2.57891
 2.77986
 8.88202
 8.98577
 1.86092
 1.71696
 1.92124
 3.46603
 3.50821
 3.45648
 3.31851
 8.94963
 9.02404
 8.92993
 1.9912
 1.9036
 2.06475
 1.84998
 7.7527
 7.71636
 7.59951
 7.85387
 8.85298
 9.04379
 8.96064
 8.8227
 9.58935
 9.37044
 9.46004
 9.50446
 10.5251
 10.4764
 10.5984
 10.5955
 5.65162
 5.3309
 5.50111
 5.36514
 7.62607
 7.61884
 7.68527
 7.89757
 1.93023
 2.19006
 1.9491
 11.7445
 11.6108
 11.7011
 11.547
 9.87312
 9.73222
 9.81579
 9.69607
 2.10638
 1.81034
 1.96716
 1.98524
 6.75686
 6.72958
 6.58873
 3.26358
 2.98449
 2.94316
 8.67465
 8.68566
 8.87695
 1.85996
 2.07535
 2.09083
 1.95154
 3.34906
 3.433
 3.48201
 3.64804
 8.26118
 8.17439
 8.03972
 8.17319
 7.64666
 7.81385
 7.65651
 7.85284
 4.19345
 4.1872
 4.13043
 3.92545
 6.36119
 6.46242
 6.58016
 6.4998
 10.1592
 10.023
 10.0239
 10.0281
 3.23959
 3.64969
 3.38462
 3.48879
 1.6347
 6.44423
 6.39731
 6.2809
 6.28564
 2.70454
 2.57774
 2.6217
 2.40279
 9.22655
 9.22533
 9.20415
 9.20119
 1.98288
 1.81895
 2.05295
 2.13847
 6.88332
 6.92714
 7.58072
 7.66958
 7.55233
 7.49578
 4.25143
 4.45109
 4.4683
 4.46266
 6.0371
 5.83196
 5.86663
 7.66603
 7.69355
 7.62945
 4.26204
 4.28063
 4.50107
 4.50309
 4.53546
 4.63931
 4.44
 4.59182
 8.76366
 8.90112
 8.91462
 6.78195
 6.41368
 6.41402
 6.62448
 10.1847
 10.0815
 9.94383
 10.1351
 10.2508
 1.81381
 2.18683
 1.79786
 2.1079
 6.49491
 6.59658
 6.67235
 6.50416
 2.91807
 2.77558
 7.15997
 7.40692
 7.39499
 8.37848
 8.52631
 8.28178
 8.32417
 2.10053
 2.18112
 2.01484
 2.02068
 9.05625
 9.00585
 9.02748
 8.33855
 8.40174
 8.28026
 8.3883
 7.72588
 7.552
 7.68188
 7.88118
 5.00127
 4.6476
 4.85501
 4.77121
 8.56634
 8.35864
 8.47508
 8.49435
 4.34146
 5.71169
 5.4965
 5.43756
 5.74995
 2.74881
 2.67773
 2.89384
 2.22451
 2.31349
 2.32862
 2.48347
 5.60703
 5.51204
 5.74813
 5.63786
 1.26414
 1.27651
 1.27951
 1.50455
 7.79972
 5.8683
 6.11727
 6.12692
 5.93863
 6.45346
 6.71892
 6.60138
 6.5383
 10.5049
 10.3655
 10.3296
 10.4713
 6.90567
 6.86045
 6.79911
 7.0039
 7.34439
 7.31191
 7.25673
 7.18198
 7.17211
 7.14482
 7.01475
 3.11607
 3.31485
 3.39602
 7.29514
 7.4742
 7.44704
 7.33438
 3.17611
 2.88022
 3.04138
 6.67435
 6.79224
 6.4227
 6.30861
 6.363
 6.26148
 6.31518
 6.26118
 6.57969
 6.53807
 6.31381
 6.39173
 2.94862
 2.83672
 2.84535
 7.74148
 2.48868
 6.03036
 5.90536
 6.04727
 6.21585
 8.84046
 8.81417
 8.98185
 8.53666
 8.38552
 8.3211
 6.41248
 6.34791
 6.52529
 6.7727
 6.78144
 6.69608
 6.60496
 6.59028
 6.72657
 6.47311
 6.69322
 11.7855
 11.761
 11.8785
 4.21312
 4.43994
 4.22555
 6.90581
 6.85136
 3.57714
 3.86648
 3.78602
 3.86774
 5.77299
 5.61854
 5.76768
 10.3913
 10.3829
 10.5273
 10.4705
 7.25007
 7.45197
 7.29714
 7.38391
 8.70767
 8.78263
 8.85899
 8.90599
 5.07932
 5.34013
 5.20354
 5.09826
 7.98933
 8.11202
 8.01357
 8.19795
 10.1178
 10.1398
 10.1491
 7.70094
 7.7626
 7.85084
 7.81016
 5.0295
 4.81263
 4.88589
 4.88105
 6.69095
 6.50692
 6.48032
 6.58757
 8.5131
 8.59052
 8.50211
 7.51424
 7.64341
 7.58245
 7.61224
 8.57039
 8.73347
 8.54299
 8.68914
 9.22098
 9.03795
 9.05563
 9.25767
 2.23589
 2.11252
 2.18425
 2.12007
 8.97267
 8.85367
 8.89679
 8.85046
 8.58103
 8.68785
 8.52861
 8.54476
 5.50636
 5.25945
 5.3505
 5.21033
 7.70707
 7.75895
 7.5993
 7.66215
 0.716691
 0.629147
 0.650777
 0.610215
 7.2366
 7.31313
 7.15765
 9.20352
 9.30865
 9.26538
 9.13434
 9.03575
 9.10457
 9.05748
 9.10753
 8.8098
 9.03912
 4.87356
 5.05803
 4.89819
 5.15589
 1.14673
 1.28473
 1.19736
 1.22775
 7.45519
 7.6173
 7.52735
 7.62348
 8.81426
 8.90997
 8.92401
 5.20518
 5.40332
 5.4267
 5.24692
 7.07008
 7.10196
 7.00458
 6.88545
 8.39622
 8.39056
 8.40874
 8.27289
 9.27553
 9.05464
 9.1883
 3.97075
 3.76963
 3.68194
 3.92339
 3.64093
 3.64082
 3.8364
 7.4047
 7.40299
 7.2917
 7.2142
 7.28685
 7.37107
 7.17749
 8.40557
 8.25546
 8.18854
 8.22327
 5.26736
 5.32025
 5.45535
 8.84284
 8.84131
 9.00275
 6.48504
 6.29253
 6.37139
 3.57526
 3.82398
 3.68671
 4.92983
 4.978
 7.78055
 7.6684
 7.797
 7.66151
 7.60098
 7.67224
 6.93545
 7.14199
 8.24803
 9.43664
 9.41075
 9.53196
 3.0745
 3.10377
 3.40713
 7.42503
 7.29518
 7.34575
 7.45365
 8.30409
 6.64733
 6.51841
 5.16241
 5.10497
 5.2015
 5.02737
 6.69426
 6.83551
 6.6559
 7.31656
 7.22753
 7.47724
 7.28749
 7.70647
 7.41636
 7.2686
 7.39737
 7.4681
 7.1879
 3.10151
 3.29578
 3.34646
 3.20504
 2.98491
 2.832
 2.56125
 2.65231
 8.88924
 8.76016
 6.64414
 6.68814
 6.74361
 6.87607
 6.0861
 6.03723
 5.97229
 5.8951
 5.37072
 5.20375
 5.3843
 5.41611
 6.99066
 7.09142
 7.15489
 6.96585
 7.2589
 7.14579
 7.22829
 7.31182
 3.57645
 3.86608
 3.61154
 3.67731
 8.62615
 8.44592
 8.41999
 8.30309
 8.66459
 8.48649
 8.58252
 4.08696
 3.90461
 3.68466
 3.61056
 8.47138
 8.35451
 8.39594
 8.28205
 2.70042
 2.80021
 2.6502
 2.74428
 3.55479
 3.67073
 3.60291
 3.70981
 7.57594
 7.49024
 7.63966
 7.56253
 4.84099
 4.77483
 4.89599
 5.08192
 8.3356
 8.24733
 8.12589
 8.0834
 4.32628
 4.43803
 4.39442
 8.93501
 8.84014
 8.95781
 8.88637
 5.80728
 5.86979
 5.76097
 5.68848
 7.70254
 7.65408
 4.50787
 4.21373
 4.34868
 4.4298
 4.26342
 4.30335
 4.43117
 7.16192
 6.93203
 7.14
 3.96462
 3.97707
 3.89824
 3.72977
 10.0924
 10.0391
 9.94463
 9.99122
 8.33479
 8.27996
 8.14139
 8.10981
 5.65916
 5.90111
 5.86972
 5.63936
 2.88093
 2.83885
 2.98352
 2.83541
 3.44781
 3.26008
 3.22433
 3.40579
 2.64494
 2.65601
 2.60672
 3.00115
 2.9255
 7.95221
 7.84851
 7.96564
 7.81209
 8.7005
 8.64737
 8.87496
 8.73429
 8.13277
 8.12777
 7.77218
 7.59933
 7.7295
 7.7294
 7.32279
 7.30352
 7.11544
 7.30279
 8.7269
 8.72301
 8.84116
 6.34421
 6.45861
 6.42709
 6.49923
 0.69044
 0.757627
 0.931863
 7.89368
 7.92295
 7.86982
 7.72086
 3.62563
 3.88695
 3.72316
 3.65601
 5.00022
 4.76973
 4.84499
 6.59656
 6.69835
 6.51306
 4.93919
 4.72406
 4.9397
 3.57795
 3.74938
 5.11847
 5.09098
 5.08977
 8.28858
 8.22573
 8.18404
 8.36451
 2.68102
 2.54712
 2.6877
 2.75449
 5.75871
 5.53669
 5.66742
 10.6787
 10.8228
 10.8676
 10.6932
 9.02124
 9.09802
 6.0859
 7.73043
 7.51513
 7.65957
 7.72858
 6.48419
 6.29534
 6.30485
 4.52063
 4.47827
 4.63312
 4.51122
 2.57104
 2.45977
 6.80674
 6.87883
 6.8705
 6.98369
 9.18898
 9.30132
 9.31314
 9.146
 3.37997
 3.25633
 3.28626
 3.37571
 5.61049
 5.53057
 5.64401
 11.5224
 11.5784
 11.6808
 11.6812
 8.88633
 8.91381
 9.04517
 8.02511
 7.89943
 8.11427
 7.98093
 5.80375
 5.78297
 5.89581
 5.65685
 6.6782
 6.53708
 9.30274
 9.2574
 9.27204
 9.26598
 5.47763
 5.27663
 8.08428
 8.2736
 8.17335
 8.12123
 7.43752
 7.36571
 7.56443
 7.42871
 6.65732
 6.4788
 6.4022
 6.54592
 8.08399
 8.16331
 8.33704
 5.01173
 5.27583
 5.00763
 5.21413
 3.9631
 3.79145
 3.6245
 3.93313
 4.21296
 4.2287
 4.2091
 4.01645
 9.26019
 9.40712
 9.30209
 9.41535
 6.68692
 6.79955
 10.9839
 11.1195
 11.0618
 11.1926
 7.49686
 7.65333
 7.72673
 1.91969
 12.0739
 12.0397
 12.0407
 12.2145
 6.82406
 6.72713
 6.82669
 6.80808
 7.87855
 7.71984
 7.80681
 4.06923
 3.90045
 3.87249
 4.0886
 4.03933
 4.11288
 3.89436
 3.90325
 4.18196
 4.09087
 4.26129
 4.33554
 8.24039
 8.10583
 8.32767
 8.10853
 8.81207
 8.86537
 8.94613
 8.93211
 5.47156
 5.47884
 5.25268
 5.49209
 7.35206
 7.58403
 7.28674
 7.44098
 1.04156
 2.72355
 2.643
 5.85334
 5.86852
 7.23005
 7.36853
 7.33173
 2.5739
 2.25055
 2.45719
 2.51782
 6.932
 7.0087
 6.01107
 6.16132
 10.391
 10.262
 10.4139
 10.2753
 8.2657
 8.32513
 8.4397
 8.35775
 5.5301
 5.29805
 5.49522
 5.35657
 10.1084
 10.254
 10.1429
 10.0814
 1.41863
 1.50556
 1.29696
 1.48422
 2.83693
 3.0839
 2.38417
 2.53131
 2.7054
 2.37247
 3.9851
 3.81897
 7.63895
 7.55608
 7.66828
 11.8307
 11.7147
 11.8672
 11.8557
 9.9494
 9.85534
 9.82902
 9.95044
 2.74315
 2.57754
 2.74255
 2.85192
 4.72756
 4.44654
 4.60107
 6.31954
 6.48835
 6.60801
 6.41076
 8.06683
 7.87381
 8.03158
 8.09128
 3.36531
 3.16951
 3.3077
 2.69838
 6.47815
 6.26088
 8.12404
 8.06782
 5.14996
 4.93796
 5.20954
 5.13351
 8.7311
 8.91522
 8.67508
 8.93283
 9.00093
 9.15288
 9.099
 11.6673
 11.4695
 11.4976
 11.5623
 7.99154
 7.89987
 7.91442
 7.7732
 3.43791
 3.40693
 3.81924
 3.6398
 3.73589
 3.6398
 8.34158
 8.35001
 8.19746
 8.45145
 4.38372
 4.49998
 4.31569
 5.06784
 5.06439
 5.00831
 5.17008
 3.69535
 3.52413
 3.74063
 3.50098
 8.11563
 7.96313
 8.01537
 8.08598
 2.21488
 2.55603
 7.25633
 10.7385
 10.6842
 10.5997
 10.5501
 4.3741
 4.42844
 4.26276
 9.98826
 10.0799
 10.0103
 10.1273
 5.00066
 5.02187
 5.01938
 4.84056
 9.14041
 9.14661
 9.30412
 9.09658
 8.65757
 8.68
 8.54173
 8.51115
 5.33407
 5.18945
 5.171
 7.7532
 7.67605
 7.79527
 7.88864
 5.71185
 5.74571
 5.62414
 5.90307
 5.99776
 6.14472
 3.76206
 3.6935
 3.7173
 5.00419
 4.97673
 5.11675
 10.8637
 10.8446
 10.7224
 10.8231
 8.87799
 8.73393
 8.94749
 8.68485
 3.25426
 3.53348
 3.53682
 3.55174
 4.0307
 4.09435
 8.45669
 8.16352
 8.43466
 5.04861
 5.27704
 5.23609
 5.34278
 5.15704
 5.2111
 5.29053
 8.23746
 8.31675
 8.2188
 8.18404
 2.39205
 2.39022
 7.62481
 7.68685
 7.62135
 7.53042
 8.36166
 8.35007
 8.29476
 4.92388
 4.86516
 6.7642
 6.84165
 6.80578
 6.63989
 9.14702
 9.20508
 5.48905
 5.56912
 7.62337
 7.84562
 7.80692
 7.68268
 6.32577
 6.33101
 6.45549
 6.21358
 6.34938
 6.45976
 6.35781
 9.54608
 9.52422
 9.59221
 9.33653
 9.9989
 9.99587
 9.89579
 9.94183
 4.90434
 5.05071
 5.206
 5.08214
 3.09671
 3.06999
 3.21425
 3.21799
 5.99203
 5.8896
 6.04965
 6.62711
 6.72519
 6.8064
 6.73905
 6.64923
 4.22153
 4.17402
 7.98643
 7.83102
 7.97537
 8.01786
 8.62386
 3.082
 3.1195
 3.27531
 3.20171
 6.56426
 6.84762
 6.76682
 6.61357
 11.4851
 11.4026
 7.14189
 7.34879
 7.14995
 10.8855
 10.8478
 10.914
 10.7819
 5.63383
 5.77532
 5.65751
 5.72762
 9.15125
 8.99051
 8.95413
 8.29199
 8.15916
 2.04154
 2.07592
 2.08041
 2.47423
 2.47263
 2.58928
 8.87945
 8.66462
 8.29822
 8.30143
 11.1777
 11.2624
 11.2743
 11.2932
 3.10768
 3.3802
 3.04781
 8.68145
 8.65531
 8.57233
 8.77046
 8.42841
 8.49083
 8.3209
 8.49344
 4.93069
 4.86205
 4.77303
 4.88033
 5.70696
 5.32758
 5.50736
 5.06963
 5.03521
 5.25214
 5.04903
 4.28072
 4.48421
 4.10662
 4.58352
 9.25618
 9.24533
 8.81736
 8.80794
 8.74159
 5.82845
 5.91135
 6.08834
 6.00973
 8.55742
 8.56887
 8.39586
 8.45604
 4.70191
 4.8108
 4.77113
 4.65874
 9.20035
 9.03036
 3.17088
 3.30893
 3.25269
 3.40871
 4.73639
 5.03952
 4.90803
 4.68449
 8.04323
 8.02693
 8.07715
 7.93867
 3.56476
 3.33339
 7.2103
 7.16741
 7.10962
 7.07051
 10.0575
 10.033
 10.0502
 10.0215
 9.16782
 9.08536
 9.17405
 9.05577
 1.90128
 1.82797
 1.76728
 1.7911
 2.82228
 2.90862
 2.98026
 8.11488
 8.14087
 8.16476
 2.03759
 1.92495
 7.11337
 7.04574
 7.16201
 6.9394
 3.41198
 3.55043
 3.37256
 3.54721
 8.46429
 8.54656
 8.44186
 8.56781
 9.57244
 9.42772
 9.49251
 3.86297
 3.62232
 3.64034
 3.66537
 7.53329
 7.31784
 7.35491
 7.41089
 8.77579
 8.71749
 8.61564
 8.88264
 9.29727
 9.50778
 9.23997
 5.91959
 6.10166
 5.81639
 6.47286
 6.42891
 6.57548
 6.37526
 5.92695
 5.95414
 5.77314
 5.98969
 7.68447
 7.5262
 7.67817
 7.53603
 8.33591
 8.301
 8.21458
 8.40844
 8.89183
 9.02002
 5.22801
 4.97815
 5.24453
 5.24637
 6.32162
 6.55561
 6.36941
 6.47116
 6.21263
 6.46045
 6.49106
 6.57385
 6.27077
 6.40129
 10.7933
 10.7489
 10.6395
 10.7225
 2.75594
 2.55716
 2.77429
 7.41425
 7.42431
 7.46902
 7.57704
 6.93039
 7.06884
 6.9343
 9.04714
 8.94985
 9.10765
 9.06114
 8.65824
 8.79484
 8.69779
 8.73512
 7.51657
 7.47371
 7.33994
 8.46387
 8.54876
 4.74413
 4.85401
 4.61061
 1.66849
 1.64364
 1.80952
 1.69888
 8.67556
 8.84684
 8.83284
 8.65736
 6.92908
 6.78094
 6.72615
 6.89249
 4.21524
 4.16016
 4.35567
 4.34879
 8.55828
 8.49022
 8.60978
 8.3866
 8.14777
 8.05251
 8.001
 7.8716
 3.8547
 4.02247
 4.25198
 4.19596
 8.19634
 8.02365
 3.0843
 3.15829
 2.98212
 5.91404
 6.07523
 9.68644
 9.74869
 9.79126
 9.81763
 7.45393
 7.38125
 7.32846
 7.36645
 9.73986
 9.80044
 9.7329
 6.95621
 6.98534
 5.61366
 5.48498
 5.29612
 5.60009
 7.50161
 7.48863
 5.2557
 5.07194
 7.60069
 7.70041
 7.61142
 7.55482
 5.20153
 5.34315
 5.1226
 5.09019
 4.42344
 4.22083
 4.02742
 4.16316
 2.14252
 2.11953
 2.20322
 2.19366
 6.79615
 6.7093
 8.63027
 8.63338
 8.88469
 8.95699
 4.35425
 4.56823
 9.0434
 8.88861
 8.99836
 10.4873
 10.4627
 10.2559
 10.3458
 10.7266
 10.6085
 10.6753
 6.41418
 6.19929
 6.23216
 6.25834
 7.56596
 7.42124
 7.53752
 8.71713
 8.07866
 7.95428
 8.15034
 7.98658
 8.76734
 8.65213
 8.87601
 8.73448
 7.73922
 7.86419
 7.71139
 7.8526
 4.92259
 5.26941
 5.25206
 4.97
 2.12484
 2.20286
 2.1999
 2.03487
 7.2056
 7.26024
 7.02768
 7.09838
 3.86972
 3.97295
 3.63227
 3.69246
 8.09356
 4.8923
 5.16647
 5.03527
 5.07688
 9.56822
 9.65016
 9.57838
 9.56386
 4.86734
 4.67709
 4.66669
 7.88914
 3.03653
 3.02546
 3.1356
 2.77079
 2.54805
 2.55218
 2.53636
 2.3554
 2.57565
 2.41321
 2.3751
 6.5946
 6.62682
 6.57143
 6.78957
 2.50583
 2.49374
 2.41449
 2.41998
 8.75338
 8.86066
 8.89092
 8.92443
 5.37544
 5.45067
 5.42305
 5.61653
 7.26758
 7.06765
 7.10373
 7.24779
 10.2295
 10.1321
 10.2031
 5.61296
 6.904
 6.95339
 7.03424
 6.82162
 2.5722
 2.40031
 2.41067
 2.34339
 2.69324
 2.57251
 2.39343
 2.45475
 5.52641
 5.58231
 5.46556
 5.61543
 8.08526
 8.18526
 8.24009
 8.1761
 7.44893
 7.27074
 7.38623
 2.97569
 2.85248
 3.00558
 3.18372
 2.50677
 2.39573
 2.40186
 2.5707
 8.7913
 8.88335
 8.87848
 3.90699
 3.74819
 2.43775
 2.48728
 2.45268
 8.70089
 8.80755
 8.63637
 8.62414
 4.61995
 4.32043
 4.6605
 4.71128
 7.47136
 5.92917
 5.88622
 5.76326
 5.91533
 5.49763
 5.6469
 5.45754
 5.76222
 2.68785
 2.57965
 3.54371
 3.29249
 3.45936
 3.25749
 3.64929
 3.36754
 3.49292
 3.2722
 3.80553
 4.04483
 3.73808
 3.97677
 4.66486
 4.5006
 4.64838
 4.54357
 10.025
 9.8624
 2.73179
 2.65101
 2.52273
 9.26765
 9.29295
 9.25998
 8.34544
 8.54023
 8.58495
 8.39922
 4.54465
 4.65284
 4.4975
 4.33493
 7.11128
 7.27805
 7.20651
 7.19341
 1.57485
 1.73537
 1.5942
 1.43867
 6.01733
 6.05839
 5.92661
 5.97756
 3.76636
 3.60686
 3.80887
 5.24928
 5.24976
 6.06109
 6.34534
 6.1215
 6.12481
 6.42677
 6.65342
 6.49295
 6.61113
 8.98055
 8.92592
 8.90096
 5.36715
 5.21535
 5.28229
 5.13226
 7.62795
 7.56164
 7.43236
 3.17149
 3.22419
 2.95699
 3.2777
 2.40578
 5.77443
 6.04303
 6.05783
 5.89771
 5.30571
 5.17179
 5.14535
 5.2205
 5.44818
 5.54105
 5.61894
 11.7755
 11.8563
 11.7357
 11.7408
 8.43438
 8.29369
 9.13278
 9.25386
 6.98371
 7.26198
 7.17874
 7.06928
 12.4373
 12.3936
 1.8052
 1.74315
 1.66315
 1.51209
 4.58445
 4.23865
 8.93251
 8.95422
 8.86722
 8.87401
 6.91763
 6.90059
 6.76347
 6.81919
 3.62786
 3.43442
 3.50858
 3.73367
 8.20689
 8.26779
 8.13286
 8.19251
 7.14683
 7.29837
 7.0959
 7.18751
 3.48446
 3.39461
 3.37921
 3.18162
 7.181
 7.121
 7.12758
 7.33319
 2.18957
 2.34416
 2.3016
 2.36587
 5.45859
 5.3025
 5.35699
 8.39945
 8.40149
 8.61465
 8.43319
 5.7393
 5.88497
 5.7784
 5.91673
 6.28369
 6.42573
 7.79926
 7.55477
 7.51405
 5.31356
 5.34764
 5.1363
 5.09538
 2.01354
 2.0352
 1.87014
 1.88166
 3.05586
 2.89538
 2.75883
 3.07668
 8.60884
 8.63851
 8.76776
 8.72586
 9.2429
 9.25658
 9.28539
 9.26866
 8.91897
 9.11691
 8.98542
 9.05273
 9.45909
 9.4408
 9.49861
 6.52442
 6.55573
 6.52656
 6.77364
 3.93952
 3.8327
 4.605
 4.35153
 4.50487
 4.53434
 4.23094
 4.10579
 4.33183
 8.41728
 8.54243
 8.49502
 8.58823
 6.57734
 6.54259
 6.43017
 6.45549
 1.519
 1.49409
 1.43593
 1.35094
 6.21
 6.31084
 6.38527
 6.19064
 5.92518
 6.13477
 5.90328
 6.0985
 2.85528
 2.73749
 2.92369
 2.91178
 9.06369
 9.28868
 9.19372
 9.1193
 4.73383
 4.72181
 9.13832
 9.24596
 3.81788
 4.03425
 3.85466
 3.68464
 6.21567
 6.25122
 6.15315
 6.39184
 9.76271
 9.63005
 9.72797
 9.16492
 9.20679
 9.29969
 9.28166
 7.95239
 8.13239
 6.2108
 6.29154
 6.1647
 6.29053
 5.1167
 5.14277
 4.98914
 7.44413
 7.58809
 7.55376
 7.4126
 7.62652
 7.38139
 7.63552
 7.47543
 4.24089
 4.40992
 4.3335
 4.33765
 9.5332
 9.54395
 9.47078
 1.90235
 1.86518
 2.13413
 2.10534
 5.55921
 5.62297
 5.59523
 8.6476
 8.5945
 8.53828
 2.45161
 2.4687
 2.65527
 2.36923
 3.74523
 8.01545
 8.19851
 8.17503
 8.11076
 2.7339
 3.11222
 2.94079
 2.78697
 5.63845
 5.40576
 5.48294
 1.94662
 1.9045
 1.90344
 1.93126
 2.72882
 2.88772
 2.89381
 2.70291
 2.61852
 9.76693
 9.66749
 6.91536
 6.98013
 6.75358
 6.89747
 9.86384
 9.94898
 9.93988
 9.89714
 7.8461
 5.4771
 5.42353
 5.70182
 4.69853
 4.55176
 4.39762
 4.70792
 7.80802
 7.77915
 7.90442
 7.96285
 8.28934
 8.32473
 5.8
 5.67839
 5.70302
 8.15143
 8.24848
 8.14312
 8.04527
 8.34787
 8.34333
 8.26155
 8.22139
 2.44827
 2.37908
 7.76363
 7.63473
 7.75619
 7.77228
 9.53091
 9.2953
 9.54093
 9.35896
 8.43857
 8.40203
 8.09004
 8.35539
 9.42657
 9.51302
 9.41696
 4.02033
 4.21567
 4.02606
 4.756
 4.72979
 2.76914
 2.72044
 2.86923
 8.90896
 9.06902
 9.01632
 9.06263
 8.71328
 8.63404
 8.5759
 11.981
 11.8474
 11.9727
 12.05
 4.15107
 4.40884
 4.13531
 4.01125
 8.13861
 8.05941
 8.15934
 7.90564
 5.56857
 5.71247
 5.63489
 5.53774
 4.38109
 4.43771
 4.64267
 4.54168
 8.67157
 8.66505
 8.60517
 8.54232
 6.97056
 6.8184
 6.98797
 4.93142
 4.89115
 4.7615
 5.51534
 5.51396
 5.60717
 5.39786
 7.15163
 7.33646
 7.34902
 7.32578
 5.37952
 5.29024
 5.21233
 9.49502
 9.23557
 9.45371
 9.42503
 6.72852
 6.70969
 6.68609
 6.86195
 8.79836
 8.94199
 8.94395
 8.86851
 9.01686
 9.23188
 8.97562
 9.02734
 1.33256
 1.09231
 1.42959
 8.80172
 8.90877
 8.81535
 1.52525
 3.96415
 3.94322
 4.21211
 4.09637
 9.13804
 4.75974
 8.07297
 8.09108
 8.20076
 8.16819
 9.48661
 9.57469
 9.6432
 9.5655
 5.17849
 7.0666
 1.85329
 1.89513
 1.89593
 1.94169
 11.8547
 11.7488
 11.7868
 8.06365
 8.19264
 8.2179
 9.37935
 9.48386
 1.11187
 1.01172
 1.28001
 1.1924
 7.44175
 7.69348
 7.53463
 7.48246
 3.64188
 3.41845
 3.40309
 5.41917
 5.58139
 5.02938
 5.11445
 4.79645
 4.98623
 2.51941
 2.66251
 2.73005
 2.58894
 7.07808
 7.09659
 6.84306
 6.92842
 2.90841
 2.79263
 3.01593
 2.91304
 6.65147
 6.55886
 6.37052
 6.62122
 4.18809
 4.18145
 4.08424
 4.30513
 4.01213
 4.24125
 4.03312
 3.61939
 8.49896
 8.71641
 8.45189
 8.35987
 6.53418
 2.2968
 1.98133
 2.12188
 2.0734
 5.97613
 5.93072
 6.15626
 5.86389
 5.66357
 5.65435
 8.9724
 9.04936
 9.11207
 8.93254
 7.85109
 8.00764
 7.84843
 6.59926
 6.6336
 6.71557
 6.81782
 1.67244
 1.88511
 1.90845
 1.86267
 8.25418
 8.25899
 8.37693
 8.4122
 4.74543
 5.02245
 4.99686
 4.87797
 6.77873
 6.73631
 6.88591
 8.99794
 8.86881
 8.92806
 8.89714
 10.4247
 10.4076
 10.5721
 10.3532
 7.86323
 8.00983
 8.06738
 3.39947
 3.40107
 3.28408
 6.04778
 4.40895
 4.65153
 4.52738
 4.53098
 8.16309
 8.21064
 8.183
 8.1848
 2.94708
 2.64976
 2.79423
 2.88018
 6.18492
 6.44775
 5.22569
 5.34166
 5.29712
 5.18982
 4.98796
 5.04524
 5.37297
 10.624
 10.5492
 10.7399
 10.6043
 0.91433
 0.604801
 0.687569
 0.892612
 7.80859
 7.65838
 7.72777
 8.56606
 8.47511
 8.6873
 8.42685
 5.04914
 5.25702
 5.15959
 11.4175
 11.5393
 11.6033
 11.5001
 4.45453
 4.45649
 4.07758
 4.01337
 4.21304
 4.16926
 9.26919
 9.35438
 9.30927
 9.4059
 8.86958
 8.86596
 8.81422
 8.92697
 10.1004
 9.96962
 9.9077
 10.1018
 7.07559
 10.2338
 10.1458
 10.1704
 10.1004
 4.22018
 4.44008
 4.48726
 4.56791
 8.88978
 8.73868
 4.78503
 4.65281
 4.66119
 4.90134
 3.36972
 3.23993
 3.3577
 3.26862
 1.62173
 1.47609
 1.4949
 1.26624
 11.8419
 11.8883
 11.7354
 5.598
 5.39987
 5.46011
 5.50438
 3.88871
 3.83607
 4.04651
 3.92958
 10.665
 10.5501
 10.51
 10.6692
 5.70323
 4.18153
 4.09113
 4.0303
 4.2503
 2.67947
 2.5534
 2.68135
 7.11586
 7.05226
 7.07475
 6.9503
 1.91608
 1.61192
 1.51532
 1.66618
 5.90641
 5.82331
 5.92302
 5.94582
 5.73955
 8.34955
 8.54637
 8.30988
 6.13201
 6.33376
 6.25238
 6.04858
 6.35407
 6.28458
 6.23842
 6.45197
 7.78621
 7.99035
 7.93304
 9.408
 10.3357
 10.206
 10.4627
 5.24826
 5.06995
 5.15585
 4.41734
 4.34942
 4.46183
 8.51821
 8.34507
 8.4397
 8.20233
 4.77903
 4.90382
 2.96776
 3.05112
 3.15069
 3.04975
 2.34185
 2.40194
 2.40961
 3.16945
 3.01562
 5.37073
 5.22408
 5.35257
 3.47674
 3.71141
 3.55031
 8.84705
 11.4956
 11.557
 11.4468
 11.475
 5.75897
 5.70705
 5.87274
 5.82567
 11.1414
 11.1054
 10.9747
 11.1632
 4.56077
 4.57836
 4.43051
 6.49487
 6.58418
 6.71563
 6.75251
 8.24648
 8.13642
 8.40785
 8.31012
 5.8512
 5.80694
 5.62243
 4.34326
 4.22217
 6.87543
 6.67956
 6.8374
 6.77395
 7.71364
 7.59766
 7.67974
 8.80395
 8.80091
 8.79099
 5.47586
 5.45793
 5.29816
 5.55942
 4.18417
 3.98658
 4.14055
 4.01576
 0.880008
 1.00201
 0.808407
 0.99093
 6.27586
 6.27779
 0.800149
 0.927122
 1.01579
 5.09531
 9.26218
 9.14169
 9.02896
 9.08982
 8.25349
 8.13173
 8.22872
 8.1678
 5.27382
 5.41092
 5.32987
 2.99173
 2.81703
 9.35862
 9.3153
 9.44192
 9.27737
 4.38106
 4.46577
 9.30002
 9.36547
 5.89947
 5.92339
 6.01178
 9.6184
 9.72344
 9.56106
 8.14106
 8.16584
 8.24213
 8.20813
 2.83985
 2.84157
 2.72562
 2.8415
 7.46948
 7.45418
 7.43655
 7.02955
 7.26356
 7.129
 7.11703
 2.57325
 2.80636
 2.80754
 2.84549
 10.4597
 10.412
 10.5062
 6.5364
 6.7268
 6.63224
 4.0273
 3.91979
 4.87782
 4.93504
 5.11934
 5.09817
 10.7664
 10.665
 10.6894
 10.7401
 8.46455
 8.46192
 8.43253
 8.32052
 3.62821
 3.5467
 3.46208
 3.4212
 3.53064
 3.57683
 3.60943
 3.70531
 7.20004
 7.39149
 7.22505
 7.27148
 1.51401
 1.22571
 1.286
 1.4711
 8.75368
 8.6236
 8.80138
 10.7871
 10.8932
 10.8518
 5.94766
 5.87856
 4.88893
 4.84865
 5.00615
 4.89384
 3.075
 3.17497
 2.87479
 2.87387
 7.66574
 6.2699
 7.25488
 7.1056
 7.02891
 6.92191
 12.0141
 12.1713
 12.1441
 12.0015
 4.18176
 4.24864
 8.42879
 8.35833
 8.2542
 7.87097
 7.93893
 7.77119
 7.71529
 9.22868
