 -83.3799
 -83.6592
 -83.6239
 -83.7481
 -85.2044
 -85.2124
 -85.2167
 -85.2215
 -85.1
 -85.0763
 -85.1031
 -85.0876
 -85.1165
 -85.0833
 -85.1002
 -85.0776
 -85.3263
 -85.3293
 -85.3234
 -85.3218
 -85.3129
 -85.3092
 -85.3164
 -85.3105
 -82.1316
 -81.904
 -81.9778
 -82.0987
 -82.6707
 -82.7117
 -82.7197
 -82.6318
 -85.309
 -85.3067
 -85.3004
 -85.3053
 -85.3104
 -85.311
 -85.3096
 -85.3168
 -80.9859
 -80.7929
 -81.0763
 -81.1216
 -85.0386
 -85.048
 -85.0178
 -85.0336
 -84.0673
 -84.0762
 -83.9775
 -84.1593
 -85.2516
 -85.2353
 -85.2286
 -85.2413
 -84.9361
 -84.9115
 -84.9392
 -84.9673
 -82.8142
 -82.6545
 -82.9411
 -82.6797
 -85.2991
 -85.3022
 -85.297
 -85.3024
 -85.1162
 -85.0998
 -85.122
 -85.1085
 -84.9858
 -85.0073
 -85.0102
 -85.0347
 -85.2706
 -85.2728
 -85.2766
 -85.2797
 -82.2601
 -81.9271
 -82.2884
 -82.0453
 -85.3339
 -85.3356
 -85.3391
 -85.338
 -67.9141
 -67.2747
 -66.7489
 -67.9373
 -85.2237
 -85.2251
 -85.2098
 -85.2091
 -84.8934
 -84.8502
 -84.863
 -84.9007
 -85.0449
 -85.0581
 -85.0427
 -85.0336
 -84.6459
 -84.7292
 -84.7634
 -84.6495
 -82.6034
 -82.3883
 -82.6135
 -82.5176
 -84.055
 -84.0182
 -83.919
 -83.999
 -85.2414
 -85.2416
 -85.2327
 -85.2255
 -84.915
 -84.9593
 -84.8941
 -84.9242
 -84.0732
 -84.157
 -84.1662
 -84.072
 -85.1921
 -85.1779
 -85.1995
 -85.18
 -85.1997
 -85.1943
 -85.1906
 -85.1966
 -84.1758
 -84.1021
 -84.2106
 -84.018
 -83.1893
 -83.1428
 -83.1434
 -83.1694
 -85.1827
 -85.155
 -85.1818
 -85.1725
 -79.4958
 -79.8518
 -79.8113
 -80.1306
 -85.1879
 -85.1866
 -85.2109
 -85.2028
 -85.3404
 -85.3378
 -85.3393
 -85.3365
 -85.0879
 -85.0802
 -85.0933
 -85.0546
 -85.2289
 -85.2392
 -85.2332
 -85.2338
 -81.1462
 -81.0558
 -81.2525
 -80.8894
 -85.1546
 -85.1423
 -85.1481
 -85.1681
 -85.3048
 -85.3042
 -85.31
 -85.3085
 -83.7948
 -83.8993
 -83.8571
 -83.8091
 -85.1717
 -85.1925
 -85.1877
 -85.1842
 -82.7157
 -82.8884
 -82.6381
 -82.3823
 -84.3333
 -84.2622
 -84.2313
 -84.1807
 -84.9929
 -84.9635
 -84.9511
 -84.9391
 -82.3614
 -82.2963
 -82.1933
 -82.291
 -84.9644
 -84.9342
 -84.9278
 -84.959
 -84.4098
 -84.2636
 -84.3709
 -84.2081
 -85.0917
 -85.1055
 -85.0832
 -85.1068
 -83.9629
 -84.0682
 -84.0249
 -84.1617
 -85.043
 -85.0365
 -85.0649
 -85.0277
 -85.1803
 -85.1891
 -85.1942
 -85.1994
 -85.2173
 -85.2138
 -85.2214
 -85.1999
 -83.7331
 -83.7867
 -83.5345
 -83.8422
 -84.5078
 -84.4667
 -84.5077
 -84.5994
 -70.4847
 -69.4544
 -68.954
 -69.7661
 -84.0754
 -84.0748
 -83.9523
 -84.0416
 -84.9416
 -84.9818
 -84.9735
 -84.987
 -84.4644
 -84.4416
 -84.5733
 -84.3706
 -84.4863
 -84.5938
 -84.4636
 -84.574
 -82.7307
 -82.5836
 -82.7966
 -82.777
 -85.2825
 -85.2905
 -85.2909
 -85.281
 -85.3289
 -85.3305
 -85.3315
 -85.3323
 -85.0318
 -85.0647
 -84.999
 -85.0197
 -84.1006
 -84.0748
 -84.1815
 -84.0481
 -85.1697
 -85.1762
 -85.1871
 -85.1671
 -82.2118
 -81.7218
 -81.8747
 -81.8528
 -82.0914
 -81.8461
 -81.8138
 -82.1934
 -69.3321
 -68.6383
 -69.8659
 -69.6437
 -85.0887
 -85.1031
 -85.1009
 -85.1215
 -83.5421
 -83.7842
 -83.8194
 -83.5912
 -83.2625
 -83.0748
 -83.2304
 -83.4609
 -85.3318
 -85.335
 -85.3332
 -85.3357
 -83.2533
 -83.2195
 -83.0838
 -83.2557
 -83.4335
 -83.3238
 -83.1905
 -83.4089
 -83.7268
 -83.8418
 -83.7375
 -83.6144
 -84.6709
 -84.6443
 -84.7117
 -84.6899
 -83.5282
 -83.684
 -83.5856
 -83.6227
 -84.3057
 -84.3822
 -84.4075
 -84.3354
 -84.476
 -84.4578
 -84.4314
 -84.3844
 -82.9619
 -82.7393
 -83.063
 -82.8483
 -65.9308
 -65.4574
 -67.5131
 -67.5955
 -82.5093
 -82.6037
 -82.7305
 -82.6129
 -85.0796
 -85.0773
 -85.1004
 -85.0523
 -85.0947
 -85.0955
 -85.1183
 -85.1073
 -85.214
 -85.215
 -85.2064
 -85.2291
 -82.5632
 -82.5481
 -82.5853
 -82.6573
 -85.3343
 -85.3348
 -85.3325
 -85.3376
 -85.2165
 -85.2281
 -85.2175
 -85.2184
 -80.0899
 -80.0142
 -79.5852
 -79.7274
 -84.3397
 -84.3501
 -84.2902
 -84.4825
 -83.392
 -83.4875
 -83.2594
 -83.3446
 -83.4643
 -83.3668
 -83.3863
 -82.6364
 -82.6105
 -82.6033
 -82.5426
 -85.147
 -85.1366
 -85.1295
 -85.1575
 -84.6621
 -84.7561
 -84.7084
 -84.6509
 -85.1255
 -85.1441
 -85.1391
 -84.0693
 -83.8963
 -83.9929
 -83.9189
 -84.8509
 -84.8699
 -84.8604
 -84.81
 -85.2658
 -85.2629
 -85.2621
 -85.2734
 -82.2769
 -82.3524
 -82.7428
 -82.5841
 -82.9334
 -82.7622
 -82.6993
 -82.7999
 -85.1089
 -85.0823
 -85.0721
 -85.0804
 -85.1928
 -85.1839
 -85.2114
 -85.2089
 -80.9423
 -80.8413
 -80.6593
 -80.3341
 -82.7739
 -82.8208
 -83.1284
 -83.0383
 -84.4505
 -84.5582
 -84.6132
 -84.4825
 -85.3171
 -85.3216
 -85.3184
 -85.3197
 -85.0845
 -85.1103
 -85.1112
 -85.1043
 -84.8322
 -84.7334
 -84.8345
 -84.8254
 -73.484
 -72.1022
 -73.6396
 -73.4759
 -84.7299
 -84.647
 -84.735
 -84.7852
 -85.2594
 -85.253
 -85.2602
 -85.2448
 -83.535
 -83.243
 -83.6846
 -83.5516
 -83.3455
 -83.3866
 -83.1887
 -83.296
 -83.0638
 -82.8369
 -82.9081
 -82.9848
 -80.4673
 -80.4156
 -80.4002
 -80.5465
 -83.2107
 -82.9253
 -82.9265
 -82.9218
 -85.1242
 -85.1174
 -85.1216
 -85.1048
 -82.0157
 -82.0756
 -82.1973
 -82.2929
 -85.3152
 -85.3112
 -85.3124
 -85.3145
 -81.9481
 -81.5814
 -81.6398
 -81.9087
 -85.2641
 -85.2514
 -85.261
 -85.254
 -84.7022
 -84.6383
 -84.6347
 -84.6813
 -84.2118
 -84.2805
 -84.3445
 -84.2215
 -83.9178
 -83.9387
 -84.0804
 -83.9538
 -83.6511
 -83.643
 -83.5494
 -83.4692
 -85.3335
 -85.3357
 -85.3366
 -85.3366
 -83.8022
 -83.7534
 -83.7914
 -83.7609
 -85.3403
 -85.3383
 -85.3395
 -85.3367
 -85.1891
 -85.1921
 -85.2078
 -85.1968
 -76.9798
 -77.9432
 -77.7327
 -76.8524
 -85.3123
 -85.3107
 -85.316
 -85.3186
 -82.8095
 -83.1185
 -82.8831
 -82.667
 -75.3031
 -74.9052
 -74.7409
 -75.1325
 -85.2506
 -85.2496
 -85.2451
 -85.2514
 -85.3275
 -85.3305
 -85.3292
 -85.3289
 -84.9099
 -84.9419
 -84.9005
 -84.9105
 -85.229
 -85.2161
 -85.2334
 -85.2234
 -83.4732
 -83.2707
 -83.3664
 -83.3641
 -85.0207
 -85.0125
 -85.0284
 -85.0616
 -84.2164
 -84.1032
 -84.2107
 -84.219
 -82.7517
 -82.8316
 -82.7291
 -82.7167
 -81.2645
 -81.2089
 -81.216
 -81.4581
 -84.6466
 -84.609
 -84.6911
 -84.5859
 -84.8446
 -84.8613
 -84.8328
 -84.7986
 -83.3216
 -83.2652
 -83.3916
 -83.512
 -83.3186
 -83.1163
 -83.3375
 -83.2802
 -85.1374
 -85.1347
 -85.1127
 -85.1215
 -85.3137
 -85.3144
 -85.3184
 -85.3187
 -85.3046
 -85.2989
 -85.3055
 -85.3067
 -85.304
 -85.2954
 -85.2969
 -85.3005
 -85.134
 -85.1278
 -85.1429
 -85.1179
 -83.2808
 -83.0722
 -83.2395
 -83.1742
 -83.3474
 -83.4422
 -83.4865
 -83.5352
 -84.7887
 -84.7936
 -84.6613
 -84.6846
 -85.2134
 -85.2036
 -85.2289
 -85.2208
 -85.2071
 -85.1969
 -85.1998
 -85.211
 -85.0044
 -84.9714
 -84.9883
 -84.9929
 -85.0574
 -85.0788
 -85.0397
 -85.0534
 -81.1539
 -81.0905
 -81.2396
 -81.5674
 -59.0977
 -58.3732
 -59.2131
 -57.4629
 -83.6379
 -83.6125
 -83.3682
 -83.5039
 -64.7973
 -66.6548
 -66.114
 -83.7102
 -83.6812
 -83.7706
 -83.5292
 -85.2642
 -85.2586
 -85.262
 -85.2543
 -84.9544
 -84.9833
 -84.9846
 -85.0115
 -85.3164
 -85.3138
 -85.3205
 -85.3138
 -83.2906
 -83.326
 -83.1472
 -83.327
 -85.1782
 -85.1656
 -85.1861
 -85.1825
 -85.0098
 -85.0219
 -84.9742
 -84.98
 -85.3266
 -85.3285
 -85.3306
 -85.326
 -85.262
 -85.2618
 -85.2656
 -85.2749
 -83.6062
 -83.7841
 -83.6633
 -83.5977
 -85.1511
 -85.1469
 -85.1303
 -85.1434
 -85.2752
 -85.2601
 -85.2703
 -85.2612
 -74.9662
 -73.5405
 -74.4419
 -73.6855
 -84.9269
 -84.9534
 -84.9665
 -84.9695
 -85.2701
 -85.271
 -85.2801
 -85.2752
 -85.12
 -85.1421
 -85.1025
 -85.1501
 -85.2425
 -85.2312
 -85.2454
 -85.2411
 -83.2517
 -83.4214
 -83.5046
 -83.5608
 -85.2561
 -85.2762
 -85.2571
 -85.2731
 -84.5411
 -84.5979
 -84.4144
 -84.5146
 -84.7368
 -84.7694
 -84.8093
 -84.714
 -85.2562
 -85.2592
 -85.2492
 -85.2597
 -85.3414
 -85.3392
 -85.3397
 -85.3415
 -81.4158
 -81.6119
 -81.7286
 -81.8203
 -84.2255
 -84.2972
 -84.3688
 -84.2533
 -84.9984
 -84.9876
 -84.9563
 -84.9672
 -85.2672
 -85.2725
 -85.2723
 -85.2721
 -83.8596
 -83.77
 -83.7895
 -83.7938
 -81.7122
 -82.1235
 -82.2801
 -81.8064
 -85.1775
 -85.1779
 -85.1606
 -85.1569
 -85.0699
 -85.0959
 -85.0748
 -85.0814
 -85.3175
 -85.3196
 -85.3228
 -85.317
 -82.5478
 -82.8349
 -82.4738
 -82.7545
 -85.3289
 -85.3318
 -85.331
 -85.3289
 -84.0772
 -84.2661
 -84.2126
 -84.1521
 -60.2836
 -59.92
 -60.3308
 -60.8562
 -85.2946
 -85.3011
 -85.3025
 -85.3008
 -85.1587
 -85.1715
 -85.1506
 -85.1231
 -85.311
 -85.3106
 -85.3075
 -85.3059
 -84.8028
 -84.7382
 -84.8088
 -84.8205
 -84.6879
 -84.7481
 -84.7575
 -84.7112
 -85.2439
 -85.2311
 -85.2368
 -85.235
 -83.2786
 -83.3476
 -83.1938
 -83.3063
 -83.0351
 -83.161
 -83.1572
 -83.1073
 -70.627
 -69.9183
 -70.1624
 -69.7385
 -84.9636
 -84.9902
 -85.0045
 -85.0239
 -84.8589
 -84.8149
 -84.8909
 -84.8485
 -85.1402
 -85.1066
 -85.1193
 -85.1447
 -84.2245
 -84.3558
 -84.3653
 -84.1808
 -85.311
 -85.3094
 -85.3141
 -85.3073
 -85.3269
 -85.3328
 -85.3274
 -85.3254
 -85.1285
 -85.1464
 -85.1622
 -85.1608
 -52.1115
 -52.0184
 -52.2977
 -52.678
 -84.4538
 -84.3983
 -84.483
 -84.3636
 -84.562
 -84.5297
 -84.4492
 -84.5316
 -84.4921
 -84.4934
 -84.4119
 -84.4003
 -85.2418
 -85.2373
 -85.2501
 -85.2335
 -74.3571
 -75.2892
 -73.4572
 -74.2003
 -66.939
 -67.2266
 -65.6163
 -65.5911
 -85.2257
 -85.2151
 -85.2295
 -85.2156
 -83.9384
 -84.0994
 -83.8662
 -84.1081
 -84.4852
 -84.4856
 -84.518
 -84.522
 -85.1197
 -85.0935
 -85.0988
 -85.0666
 -83.1595
 -83.2526
 -83.3342
 -83.2377
 -85.2685
 -85.2547
 -85.2592
 -85.2645
 -84.2505
 -84.0023
 -84.1521
 -83.9756
 -83.9713
 -83.9184
 -83.7855
 -83.9501
 -81.7516
 -81.5178
 -81.9483
 -81.4061
 -84.5257
 -84.6533
 -84.5429
 -84.6413
 -85.2803
 -85.2853
 -85.2851
 -85.2784
 -85.1558
 -85.1805
 -85.1853
 -85.1643
 -82.89
 -82.8292
 -83.071
 -83.0689
 -83.8037
 -83.9886
 -83.9955
 -83.7979
 -85.3106
 -85.312
 -85.3146
 -85.315
 -85.2656
 -85.2599
 -85.2647
 -85.2589
 -84.5382
 -84.5065
 -84.4451
 -84.5006
 -82.5401
 -82.5753
 -82.5628
 -82.6374
 -77.7085
 -78.9965
 -78.876
 -78.0349
 -85.1476
 -85.1283
 -85.1143
 -85.1407
 -81.8408
 -81.4353
 -81.8221
 -80.8795
 -85.2847
 -85.2772
 -85.2755
 -85.2837
 -85.0511
 -85.0828
 -85.0592
 -85.027
 -85.2933
 -85.2918
 -85.2894
 -85.2894
 -85.188
 -85.172
 -85.1689
 -85.1775
 -84.5811
 -84.5496
 -84.5672
 -84.6304
 -83.3713
 -83.0972
 -83.1658
 -83.2742
 -78.821
 -79.8004
 -78.8515
 -79.061
 -80.9093
 -80.1804
 -80.9483
 -80.6895
 -83.1
 -82.761
 -82.6875
 -82.7488
 -84.7793
 -84.7997
 -84.7747
 -84.6857
 -84.8242
 -84.8024
 -84.8522
 -84.7636
 -84.8758
 -84.8234
 -84.9226
 -84.8681
 -85.1791
 -85.1659
 -85.1825
 -85.1805
 -73.6709
 -72.5321
 -72.5311
 -72.4308
 -85.003
 -85.0079
 -84.9908
 -85.0241
 -82.8585
 -82.5616
 -82.6788
 -82.7546
 -84.4473
 -84.5687
 -84.4892
 -84.5635
 -85.3241
 -85.3175
 -85.324
 -85.323
 -84.6576
 -84.6137
 -84.6111
 -84.5874
 -82.1657
 -82.0409
 -82.1174
 -81.761
 -84.3341
 -84.3475
 -84.4061
 -84.4609
 -83.4527
 -83.5543
 -83.5334
 -83.4134
 -84.5712
 -84.4821
 -84.6135
 -84.5589
 -74.3186
 -73.4646
 -73.8274
 -74.3824
 -84.5303
 -84.5276
 -84.6248
 -84.6295
 -85.1703
 -85.1653
 -85.1762
 -85.1704
 -85.0399
 -85.0428
 -85.06
 -85.0416
 -85.3037
 -85.2937
 -85.303
 -85.2974
 -83.7943
 -83.7538
 -83.8737
 -83.7885
 -83.2141
 -83.3768
 -83.2436
 -83.5727
 -85.2873
 -85.2799
 -85.2901
 -85.2889
 -83.4837
 -83.4785
 -83.6975
 -83.484
 -85.2846
 -85.2806
 -85.2874
 -85.2809
 -84.9184
 -84.9781
 -84.934
 -84.9507
 -84.7979
 -84.7044
 -84.7922
 -84.8203
 -83.4132
 -83.5659
 -83.5216
 -83.3926
 -84.6685
 -84.6473
 -84.6922
 -84.6172
 -85.29
 -85.2855
 -85.2905
 -85.2905
 -60.1307
 -60.2236
 -60.4503
 -59.1926
 -82.4876
 -82.457
 -82.4586
 -82.5022
 -82.1008
 -82.1098
 -82.0936
 -81.8998
 -83.9756
 -84.0166
 -83.9168
 -84.1002
 -84.4786
 -84.4041
 -84.4696
 -84.4216
 -83.8581
 -83.7944
 -83.7209
 -83.9066
 -85.3191
 -85.3159
 -85.3238
 -85.3138
 -83.2837
 -83.1794
 -83.221
 -83.4076
 -85.1447
 -85.1516
 -85.1618
 -85.1437
 -84.7352
 -85.2517
 -85.2386
 -85.2455
 -85.2466
 -85.0802
 -85.0966
 -85.1123
 -85.1072
 -81.1629
 -81.5597
 -81.6831
 -81.3938
 -84.1184
 -84.0534
 -84.1337
 -84.227
 -83.3759
 -83.1666
 -83.344
 -83.4601
 -85.2664
 -85.2603
 -85.2584
 -85.2591
 -84.5797
 -84.4237
 -84.5342
 -84.4813
 -85.2769
 -85.2805
 -85.2696
 -85.2669
 -85.178
 -85.1912
 -85.1675
 -85.1952
 -81.4502
 -81.6274
 -81.4878
 -81.8132
 -83.0035
 -82.7024
 -83.2032
 -83.0476
 -85.196
 -85.2065
 -85.2054
 -85.1941
 -84.6691
 -84.5554
 -84.6147
 -82.1387
 -81.9069
 -81.9877
 -82.279
 -85.135
 -85.0963
 -85.1197
 -85.0953
 -83.56
 -83.3714
 -83.3339
 -83.5534
 -84.715
 -84.596
 -84.6491
 -84.716
 -85.3013
 -85.3011
 -85.2943
 -85.3011
 -83.9245
 -83.8636
 -83.7999
 -83.9208
 -85.2577
 -85.2494
 -85.2586
 -85.2611
 -84.8387
 -84.8147
 -84.8493
 -84.7857
 -85.215
 -85.2077
 -85.1967
 -85.2047
 -85.297
 -85.2973
 -85.3028
 -85.2997
 -83.9769
 -83.9648
 -84.0462
 -84.0435
 -59.3628
 -61.5077
 -60.8697
 -62.0982
 -85.3164
 -85.312
 -85.3142
 -85.311
 -85.1102
 -85.1057
 -85.0783
 -85.0885
 -82.4605
 -82.4816
 -82.8865
 -82.5629
 -84.3735
 -84.4142
 -84.4674
 -84.3548
 -75.9749
 -76.2421
 -76.4152
 -75.4815
 -85.2841
 -85.2865
 -85.2956
 -85.2861
 -82.7344
 -82.6499
 -82.6966
 -82.7048
 -84.9178
 -84.9506
 -84.8945
 -84.9258
 -82.863
 -82.3562
 -82.7299
 -82.7911
 -85.329
 -85.328
 -85.3291
 -85.3223
 -85.3303
 -85.3303
 -85.327
 -85.3251
 -85.1615
 -85.1385
 -85.1383
 -85.1577
 -84.9556
 -84.973
 -84.9554
 -84.9344
 -84.9812
 -81.7689
 -81.893
 -81.3008
 -81.7472
 -82.7244
 -82.5988
 -82.5416
 -82.8576
 -85.1296
 -85.1524
 -85.1548
 -85.149
 -82.8443
 -82.9786
 -82.9813
 -82.8387
 -83.3431
 -83.3148
 -83.2695
 -83.4774
 -85.1553
 -85.1631
 -85.1522
 -85.1414
 -84.0933
 -84.2197
 -84.0873
 -84.2247
 -85.1536
 -85.1559
 -85.1653
 -85.1736
 -83.4831
 -83.4333
 -83.2557
 -83.5245
 -84.0385
 -84.1624
 -84.1448
 -84.1643
 -84.5743
 -84.6322
 -84.5283
 -84.6281
 -84.9801
 -85.018
 -84.9836
 -85.019
 -85.232
 -85.2258
 -85.2403
 -85.2433
 -84.8632
 -84.8483
 -84.819
 -84.8214
 -84.9064
 -84.9069
 -84.9403
 -84.9179
 -81.5597
 -81.5511
 -81.6902
 -81.7854
 -85.1314
 -85.1405
 -85.1436
 -85.143
 -84.8039
 -84.8237
 -84.8351
 -84.7882
 -84.9001
 -84.9089
 -84.8691
 -84.9042
 -84.2978
 -84.3419
 -84.1888
 -84.2679
 -82.1705
 -82.1529
 -82.2855
 -81.97
 -85.2208
 -85.2232
 -85.2329
 -85.2286
 -82.2732
 -82.0222
 -82.1266
 -82.4535
 -85.3258
 -85.3255
 -85.3292
 -85.3279
 -85.2692
 -85.2638
 -85.2754
 -85.273
 -85.2815
 -85.281
 -85.2803
 -85.2782
 -85.2519
 -85.2542
 -85.2504
 -85.2579
 -85.1682
 -85.1804
 -85.1598
 -85.1821
 -78.1916
 -77.7099
 -76.6783
 -84.9039
 -84.8394
 -84.8992
 -84.8698
 -85.2555
 -85.2529
 -85.2488
 -85.2576
 -84.2177
 -84.0785
 -84.1626
 -84.2004
 -83.6594
 -83.6627
 -83.6074
 -83.7051
 -85.2023
 -85.2037
 -85.2193
 -85.1889
 -84.5408
 -84.5083
 -84.5774
 -84.6091
 -83.8116
 -83.8179
 -83.8049
 -83.7424
 -85.3143
 -85.3188
 -85.0814
 -85.0703
 -85.0499
 -85.0431
 -84.6022
 -84.6103
 -84.5449
 -85.0027
 -85.0088
 -84.9938
 -84.971
 -78.8056
 -78.7764
 -79.4757
 -79.4204
 -85.2592
 -85.268
 -85.2662
 -85.2589
 -84.9975
 -84.9873
 -84.9663
 -84.9673
 -84.194
 -84.0656
 -84.116
 -84.212
 -84.8192
 -84.7483
 -84.7757
 -84.7928
 -82.7918
 -82.7418
 -82.7611
 -82.7455
 -81.696
 -82.1611
 -81.8381
 -81.9263
 -84.4381
 -84.5195
 -84.5212
 -84.4791
 -82.2138
 -82.1179
 -82.2238
 -82.4799
 -84.5288
 -84.4853
 -84.4996
 -84.4645
 -85.2695
 -85.2695
 -85.2599
 -85.258
 -82.9435
 -83.0445
 -83.1017
 -83.0279
 -70.3193
 -71.5988
 -69.9949
 -70.9783
 -85.0209
 -84.9616
 -85.0129
 -85.0002
 -84.3418
 -84.4118
 -84.3319
 -84.417
 -82.7052
 -82.6575
 -82.8319
 -82.7781
 -84.6598
 -84.5965
 -84.6702
 -84.6852
 -85.3156
 -85.3133
 -85.3169
 -85.3154
 -83.503
 -83.5045
 -83.427
 -83.531
 -85.0909
 -85.0593
 -85.0575
 -85.0582
 -84.3489
 -84.4184
 -84.3412
 -84.5
 -85.1784
 -85.1847
 -85.1803
 -85.197
 -85.2774
 -85.2744
 -85.2796
 -85.273
 -82.584
 -82.7804
 -82.6492
 -82.9932
 -83.8805
 -83.9694
 -83.9482
 -83.9318
 -84.9395
 -84.9351
 -84.8889
 -84.9082
 -82.5991
 -82.6485
 -82.6397
 -82.7059
 -60.9883
 -60.0865
 -60.2187
 -60.8472
 -84.7866
 -84.7236
 -84.752
 -84.7051
 -58.1487
 -57.9479
 -58.0238
 -59.1079
 -60.6736
 -62.37
 -61.8948
 -60.9885
 -79.0141
 -79.499
 -79.295
 -78.8006
 -85.1191
 -85.1003
 -85.0865
 -85.0701
 -85.1199
 -85.1292
 -85.1357
 -85.1464
 -85.1469
 -85.1373
 -85.1467
 -85.1234
 -85.0506
 -85.0152
 -85.0254
 -85.0521
 -76.1506
 -75.4661
 -76.1019
 -76.0269
 -83.0538
 -82.983
 -83.1684
 -83.0834
 -82.2874
 -82.0848
 -82.2445
 -81.9975
 -84.0984
 -84.2252
 -84.1098
 -84.2304
 -84.844
 -84.815
 -84.8514
 -84.8169
 -85.19
 -85.1819
 -85.1761
 -85.1879
 -83.11
 -83.3737
 -83.4969
 -83.2097
 -85.1259
 -84.7564
 -84.8142
 -84.8113
 -84.7819
 -85.3272
 -85.3294
 -85.3331
 -85.3305
 -84.5288
 -84.565
 -84.5997
 -84.5474
 -85.2915
 -85.3001
 -85.2936
 -82.9858
 -83.0553
 -83.1408
 -82.9569
 -65.35
 -66.6622
 -65.9342
 -66.5993
 -84.6657
 -84.6712
 -84.77
 -84.6215
 -84.2668
 -84.0687
 -84.1079
 -84.0945
 -82.4415
 -82.5645
 -82.7324
 -82.8406
 -82.7072
 -82.7875
 -82.6229
 -82.8258
 -78.2357
 -77.6744
 -78.09
 -78.1327
 -84.9881
 -84.9726
 -84.9832
 -85.0368
 -84.727
 -84.8051
 -84.6966
 -84.77
 -83.9212
 -83.7314
 -83.914
 -83.827
 -84.4644
 -84.4368
 -84.5658
 -85.1734
 -85.1692
 -85.1678
 -83.117
 -83.1665
 -82.8253
 -82.7602
 -80.5776
 -80.4762
 -80.4745
 -80.5589
 -83.437
 -83.5796
 -83.531
 -83.4056
 -79.9782
 -79.3901
 -80.1511
 -79.2169
 -85.2407
 -85.2523
 -85.2432
 -85.2485
 -85.1456
 -85.1593
 -85.1614
 -85.1745
 -82.7057
 -82.643
 -82.6753
 -82.6434
 -76.5347
 -75.3729
 -76.3778
 -76.6067
 -84.8249
 -84.7403
 -84.8196
 -84.7952
 -85.3123
 -85.3047
 -85.3121
 -85.3057
 -79.8012
 -79.7276
 -79.4688
 -79.7582
 -85.0886
 -85.0675
 -85.0573
 -85.0952
 -70.1809
 -69.2751
 -69.967
 -69.347
 -85.174
 -85.1774
 -85.1746
 -85.1902
 -84.1914
 -84.075
 -84.249
 -84.0506
 -85.2461
 -85.2475
 -85.2531
 -85.2558
 -82.91
 -82.9678
 -82.9818
 -83.1317
 -83.9454
 -83.8283
 -83.8358
 -83.8447
 -82.804
 -82.7339
 -83.0313
 -82.9639
 -83.5757
 -83.5301
 -83.7417
 -83.3697
 -84.8139
 -84.8556
 -84.8598
 -84.8074
 -84.4634
 -84.3929
 -84.4919
 -84.4901
 -85.2502
 -85.242
 -85.2311
 -85.2301
 -85.3224
 -85.3253
 -85.3189
 -85.3204
 -84.2443
 -84.2309
 -84.1494
 -84.2205
 -85.2663
 -85.2614
 -85.2613
 -85.2708
 -85.1544
 -85.1743
 -85.1888
 -85.1685
 -74.4108
 -74.028
 -72.9455
 -74.4619
 -81.736
 -82.2848
 -82.1508
 -82.0019
 -84.1794
 -84.1126
 -84.0804
 -84.0973
 -78.3433
 -77.9037
 -77.7975
 -77.263
 -84.8496
 -84.896
 -84.8927
 -84.8865
 -85.226
 -85.2491
 -85.2359
 -85.2374
 -78.7052
 -79.6638
 -78.7509
 -78.6806
 -84.4824
 -84.5536
 -84.5155
 -84.5203
 -83.6756
 -83.6798
 -83.6841
 -83.6032
 -60.963
 -62.0935
 -61.8103
 -60.7954
 -84.1453
 -84.1297
 -84.0964
 -84.2302
 -84.766
 -84.8099
 -84.8063
 -84.8118
 -85.1824
 -85.2031
 -85.1916
 -85.2046
 -83.6244
 -83.6739
 -83.7373
 -84.74
 -84.7248
 -84.6988
 -84.7386
 -83.8385
 -83.8982
 -84.0203
 -83.9085
 -85.1207
 -85.1006
 -85.1138
 -85.1162
 -85.101
 -85.1222
 -85.131
 -85.1136
 -85.2726
 -85.2637
 -85.2698
 -85.2629
 -82.9927
 -83.1041
 -83.202
 -83.0424
 -85.3016
 -85.3044
 -85.3073
 -85.3032
 -83.3948
 -83.5407
 -83.4321
 -83.3592
 -84.7222
 -84.798
 -84.7925
 -84.8344
 -84.863
 -84.809
 -84.8145
 -84.7952
 -59.4618
 -58.341
 -59.2387
 -59.3231
 -83.6364
 -83.5137
 -83.6388
 -83.6578
 -84.6103
 -84.6225
 -84.6752
 -84.7504
 -84.5605
 -84.5954
 -84.584
 -84.5097
 -85.3198
 -85.3203
 -85.3154
 -85.3215
 -83.387
 -83.5415
 -83.6272
 -83.4395
 -83.6859
 -83.5889
 -83.7261
 -83.5501
 -85.176
 -85.1881
 -85.174
 -85.1885
 -82.5902
 -82.533
 -82.3647
 -82.3298
 -82.5976
 -82.5248
 -82.6968
 -82.5296
 -85.0628
 -85.0229
 -85.0587
 -85.0489
 -85.1292
 -85.1234
 -85.1047
 -85.1248
 -84.8636
 -84.8601
 -84.9198
 -84.9114
 -83.5159
 -83.4421
 -85.0335
 -85.002
 -85.0513
 -85.0091
 -83.667
 -83.742
 -83.6897
 -83.6976
 -84.4008
 -84.4987
 -84.5247
 -84.4725
 -85.2914
 -85.2874
 -85.2833
 -85.2939
 -84.3313
 -84.36
 -84.4089
 -84.4246
 -85.2068
 -85.2204
 -85.2273
 -85.2027
 -82.8486
 -83.2903
 -83.1352
 -83.278
 -84.2325
 -84.1383
 -84.0976
 -84.1752
 -84.6165
 -84.715
 -84.6536
 -84.7146
 -83.1653
 -83.0055
 -82.934
 -83.0355
 -70.6272
 -70.5163
 -70.2282
 -69.3625
 -85.3213
 -85.3207
 -85.3202
 -85.3218
 -79.6936
 -79.4925
 -79.8195
 -79.4705
 -84.8734
 -84.899
 -84.8506
 -84.8577
 -70.2032
 -70.1154
 -71.3531
 -70.149
 -85.0149
 -85.0432
 -85.0149
 -85.0122
 -83.4552
 -83.4213
 -83.3779
 -83.3511
 -83.4936
 -83.5249
 -83.3711
 -83.4575
 -84.755
 -84.7889
 -84.6947
 -84.774
 -85.2483
 -85.2335
 -85.2427
 -85.2309
 -84.119
 -84.2645
 -84.2271
 -84.2632
 -82.68
 -82.6181
 -82.6851
 -82.755
 -85.2364
 -85.2515
 -85.2426
 -85.2538
 -82.9924
 -82.6034
 -83.0277
 -83.0141
 -84.0287
 -84.1557
 -84.1417
 -84.1992
 -85.1487
 -85.176
 -85.1746
 -85.1587
 -84.7647
 -84.8244
 -84.8236
 -84.8228
 -84.4405
 -84.3487
 -84.4359
 -84.4675
 -85.2872
 -85.2941
 -85.2967
 -85.2987
 -85.2678
 -85.2702
 -85.2712
 -85.2661
 -84.9465
 -84.9443
 -84.8893
 -84.9233
 -84.4932
 -84.5537
 -84.4852
 -84.638
 -83.7259
 -83.7845
 -83.8265
 -84.0217
 -82.1436
 -82.0945
 -81.9361
 -85.1871
 -85.2025
 -85.19
 -85.2094
 -68.7336
 -67.8844
 -67.0588
 -66.906
 -85.0701
 -85.0306
 -85.0509
 -85.0563
 -83.2346
 -83.0196
 -83.1268
 -83.1384
 -82.8948
 -82.7739
 -82.8107
 -82.8066
 -85.2517
 -85.2411
 -85.2447
 -85.2607
 -84.8397
 -84.7983
 -84.8641
 -84.8219
 -84.4405
 -84.4109
 -83.6508
 -84.3097
 -84.4169
 -84.3092
 -84.3662
 -70.9536
 -71.7242
 -85.0411
 -85.0592
 -85.0795
 -80.7947
 -81.1012
 -80.4613
 -80.8599
 -85.0335
 -84.9979
 -85.0048
 -85.0046
 -83.9652
 -84.1057
 -84.0749
 -84.0828
 -83.5693
 -83.7761
 -83.6488
 -83.6435
 -85.2946
 -85.2953
 -85.3044
 -85.2986
 -81.1648
 -81.4915
 -81.1157
 -81.5078
 -85.0571
 -85.0656
 -85.0631
 -85.0837
 -85.3011
 -85.3037
 -85.296
 -85.2972
 -84.7908
 -84.7303
 -84.8097
 -84.7602
 -85.0336
 -84.9969
 -85.0209
 -85.0121
 -84.6557
 -84.7366
 -84.6939
 -84.5794
 -85.3323
 -85.3262
 -85.3295
 -85.3237
 -85.3286
 -85.3277
 -85.3257
 -85.3239
 -85.3267
 -85.3253
 -85.3248
 -85.3267
 -84.4043
 -84.3024
 -84.3869
 -84.3835
 -84.9278
 -84.8864
 -84.8977
 -84.9301
 -84.4039
 -84.3849
 -84.3151
 -84.3698
 -84.3179
 -84.2517
 -84.4209
 -84.2779
 -85.1203
 -85.133
 -85.1374
 -85.1169
 -85.2478
 -85.2629
 -85.2596
 -85.2624
 -85.2281
 -85.2331
 -85.2176
 -85.2324
 -84.6597
 -84.7081
 -84.659
 -84.6868
 -84.5887
 -84.5676
 -84.5623
 -84.5216
 -83.4312
 -83.3146
 -83.3815
 -83.5491
 -85.1638
 -85.1812
 -85.1771
 -85.1606
 -78.02
 -77.9761
 -77.4737
 -78.6994
 -85.2263
 -85.2359
 -85.223
 -85.2184
 -84.905
 -84.9734
 -84.8969
 -84.956
 -84.8403
 -84.8952
 -84.8473
 -84.8479
 -81.0936
 -81.0333
 -80.687
 -80.3662
 -55.3609
 -56.0583
 -55.3459
 -55.4326
 -83.8728
 -83.9945
 -83.8719
 -83.9124
 -85.2163
 -85.1928
 -85.1973
 -85.2151
 -82.8902
 -82.743
 -82.8435
 -82.9768
 -84.8933
 -84.9093
 -84.8695
 -84.9338
 -84.9826
 -85.0181
 -85.0457
 -85.0305
 -85.1695
 -85.179
 -85.153
 -85.1645
 -77.007
 -76.2444
 -76.4232
 -76.8219
 -78.055
 -77.9943
 -77.7343
 -77.7063
 -85.2108
 -85.2324
 -85.2193
 -85.2245
 -85.1354
 -85.098
 -85.1091
 -85.1313
 -83.9019
 -83.9126
 -83.8446
 -83.8637
 -84.6637
 -84.6232
 -84.6863
 -84.7274
 -84.9183
 -84.936
 -84.9141
 -84.9178
 -83.6636
 -83.6212
 -83.7936
 -83.6244
 -85.064
 -85.0488
 -85.0424
 -85.0219
 -85.3463
 -85.3434
 -85.3455
 -85.3459
 -84.9613
 -84.9889
 -84.9969
 -85.0267
 -84.6753
 -84.725
 -84.6636
 -84.755
 -84.6712
 -84.6572
 -84.5863
 -84.6897
 -84.9005
 -84.9215
 -84.8975
 -84.8546
 -85.3107
 -85.3123
 -85.307
 -85.3111
 -85.2553
 -85.2465
 -85.2537
 -85.0433
 -85.0368
 -85.0662
 -85.0389
 -82.7131
 -82.6998
 -82.8202
 -82.67
 -84.1954
 -84.2203
 -84.1242
 -84.2331
 -85.2374
 -85.2211
 -85.2242
 -85.2203
 -83.446
 -83.4795
 -83.5307
 -83.597
 -84.0586
 -83.9292
 -83.9162
 -84.0757
 -84.1751
 -84.1457
 -83.9628
 -84.0767
 -85.1093
 -85.0936
 -85.0896
 -85.0803
 -84.9017
 -84.8519
 -84.9139
 -84.8137
 -85.0337
 -84.9595
 -84.9891
 -84.9965
 -83.0375
 -83.0583
 -83.1267
 -83.0332
 -84.2725
 -84.355
 -84.3799
 -84.2862
 -85.0791
 -85.0547
 -85.0807
 -85.0922
 -83.8504
 -83.9264
 -83.9871
 -83.7945
 -84.9322
 -84.951
 -84.964
 -84.9282
 -82.9344
 -82.8857
 -82.9779
 -82.8618
 -85.3066
 -85.3082
 -85.301
 -85.3065
 -83.2693
 -83.0976
 -83.3005
 -83.3824
 -82.8277
 -82.4295
 -82.6821
 -82.6794
 -85.1244
 -85.1172
 -85.1331
 -85.1417
 -83.4307
 -83.4804
 -83.5125
 -83.4765
 -85.0147
 -85.0098
 -85.0211
 -84.9842
 -80.525
 -80.6873
 -80.0592
 -80.2398
 -84.8287
 -84.8091
 -84.8265
 -84.8706
 -85.2781
 -85.2882
 -85.2775
 -85.2848
 -84.8286
 -84.765
 -84.7557
 -84.8251
 -85.1777
 -85.1878
 -85.1758
 -85.1781
 -84.9799
 -84.9568
 -84.9567
 -84.9979
 -84.9251
 -84.9524
 -84.9451
 -84.9856
 -85.3123
 -85.3114
 -85.3144
 -85.3036
 -82.9076
 -82.8232
 -82.7365
 -82.6812
 -82.9388
 -82.8634
 -82.6828
 -82.8497
 -85.2574
 -85.2537
 -85.25
 -85.2624
 -85.2932
 -85.2973
 -85.2913
 -83.6795
 -83.6499
 -83.631
 -83.7131
 -85.0899
 -85.1165
 -85.0803
 -85.0804
 -84.8403
 -84.8658
 -84.8032
 -84.8725
 -82.3714
 -82.5383
 -82.108
 -82.2877
 -85.1786
 -85.1918
 -85.1866
 -85.1832
 -84.6234
 -84.5189
 -84.5433
 -84.609
 -84.8035
 -84.752
 -84.7452
 -84.7554
 -85.1953
 -85.2091
 -85.206
 -85.203
 -82.3552
 -82.2989
 -82.3881
 -82.4749
 -83.5846
 -83.3632
 -83.4826
 -83.3869
 -85.3234
 -85.3187
 -85.3235
 -85.3212
 -83.0753
 -83.0553
 -83.0968
 -83.3066
 -82.6294
 -82.5684
 -82.5931
 -82.6095
 -84.6788
 -84.6934
 -84.6599
 -84.751
 -71.9403
 -72.4126
 -71.4077
 -73.1539
 -84.8075
 -84.8127
 -84.7758
 -84.8144
 -85.2146
 -85.2109
 -85.2058
 -85.202
 -85.2545
 -85.2459
 -85.2509
 -81.3303
 -81.3295
 -81.6334
 -81.4446
 -83.3505
 -83.5098
 -83.2834
 -83.4441
 -82.4804
 -82.4038
 -82.0598
 -82.1959
 -83.6078
 -83.4688
 -83.5656
 -83.5582
 -85.3258
 -85.3286
 -85.3305
 -85.3288
 -81.6993
 -81.7208
 -81.591
 -81.3587
 -83.0462
 -82.9061
 -83.0618
 -83.3296
 -85.2536
 -85.2625
 -85.2547
 -85.2512
 -84.0969
 -84.0866
 -84.17
 -83.1324
 -83.0204
 -83.2473
 -84.823
 -84.8361
 -84.7673
 -73.4101
 -74.8115
 -75.0069
 -73.8668
 -84.8525
 -84.8973
 -84.8835
 -84.9097
 -84.7825
 -84.8302
 -84.7373
 -84.7394
 -85.2552
 -85.2629
 -85.2548
 -85.2548
 -85.2894
 -85.2892
 -85.2991
 -85.2886
 -82.1356
 -81.6865
 -81.6696
 -82.3216
 -84.9207
 -84.9595
 -84.9752
 -84.9307
 -84.8283
 -84.8733
 -84.8873
 -84.8824
 -84.4479
 -84.5699
 -84.5078
 -84.5798
 -83.8558
 -83.892
 -83.9561
 -83.7082
 -84.9333
 -84.8702
 -84.932
 -84.9251
 -83.0389
 -83.0948
 -83.0292
 -83.1481
 -85.2877
 -85.2842
 -85.288
 -85.289
 -83.7484
 -83.6782
 -83.7452
 -83.8926
 -85.2493
 -85.2395
 -85.2473
 -85.2381
 -85.3003
 -85.2978
 -85.2897
 -85.2973
 -85.3104
 -85.3094
 -85.3075
 -85.306
 -83.3205
 -83.2144
 -85.1672
 -85.1588
 -85.1489
 -85.1608
 -82.6655
 -82.9982
 -82.8605
 -82.7471
 -85.1968
 -85.2192
 -85.2153
 -85.2186
 -85.2378
 -85.2367
 -85.2471
 -85.2363
 -83.4383
 -83.6469
 -83.617
 -83.565
 -84.9257
 -84.9242
 -84.9609
 -84.9519
 -83.6153
 -83.6069
 -83.7448
 -83.6202
 -84.2725
 -84.2329
 -84.2798
 -84.36
 -62.6958
 -64.664
 -62.1549
 -63.7273
 -85.2659
 -85.2604
 -85.2747
 -85.2667
 -83.6424
 -83.5746
 -83.7205
 -83.9069
 -81.2144
 -80.9501
 -80.9607
 -81.2906
 -84.4662
 -84.3988
 -84.5089
 -84.4872
 -80.6776
 -80.0498
 -79.7227
 -80.7815
 -84.473
 -84.3876
 -84.3079
 -84.4466
 -85.1392
 -85.1305
 -85.1545
 -85.1196
 -84.5129
 -84.4532
 -84.4573
 -84.4863
 -85.2607
 -85.2713
 -85.2631
 -84.4484
 -84.5287
 -84.4928
 -84.5501
 -63.0066
 -62.1533
 -62.2868
 -61.967
 -85.3289
 -85.3295
 -85.3315
 -85.3293
 -84.9319
 -84.9109
 -84.9414
 -84.8994
 -85.2166
 -85.2072
 -85.1918
 -85.2107
 -82.3138
 -82.5316
 -81.8944
 -82.1968
 -83.7581
 -83.9045
 -83.6925
 -83.8753
 -83.8202
 -84.0401
 -83.8693
 -84.0272
 -85.2977
 -85.2927
 -85.2997
 -85.3041
 -84.0769
 -83.9944
 -83.9004
 -83.9544
 -85.3203
 -85.3181
 -85.3216
 -85.3158
 -85.1088
 -85.0756
 -85.0799
 -85.112
 -83.0045
 -83.0459
 -83.0977
 -82.9784
 -71.0326
 -71.5706
 -72.6081
 -70.7845
 -84.2727
 -84.1088
 -84.2177
 -84.0433
 -84.5798
 -84.5967
 -84.6521
 -84.5903
 -85.1371
 -85.1461
 -85.1298
 -85.1171
 -64.2331
 -62.4041
 -64.5646
 -63.9668
 -84.3441
 -84.2847
 -84.398
 -84.347
 -85.3163
 -85.3109
 -85.3099
 -85.3106
 -85.2418
 -85.2495
 -85.2458
 -85.2412
 -85.2162
 -85.2241
 -85.2315
 -85.2177
 -85.1822
 -85.1748
 -85.1642
 -85.1744
 -85.2303
 -85.248
 -85.2404
 -85.2377
 -85.0275
 -85.0378
 -85.0278
 -85.0305
 -83.1076
 -83.5605
 -83.7167
 -83.7162
 -83.661
 -85.1258
 -85.1054
 -85.1127
 -85.0993
 -85.1131
 -85.1161
 -85.0789
 -85.0943
 -80.5774
 -80.6972
 -80.6729
 -80.5813
 -85.2783
 -85.2781
 -85.275
 -85.2796
 -85.2008
 -85.214
 -85.2294
 -85.2201
 -83.0913
 -83.2953
 -83.2814
 -83.0162
 -83.0353
 -82.9669
 -83.5399
 -83.638
 -83.5802
 -83.7193
 -82.8293
 -82.5286
 -82.1141
 -82.369
 -85.0961
 -85.1219
 -85.1128
 -85.1004
 -85.3263
 -85.3259
 -85.3257
 -85.3273
 -84.6986
 -84.6494
 -84.6888
 -84.6181
 -85.2921
 -85.2802
 -85.2729
 -85.2744
 -84.3953
 -84.4005
 -84.3336
 -84.4192
 -85.0705
 -85.0556
 -85.0333
 -85.0344
 -82.0911
 -81.9959
 -82.0051
 -81.5664
 -84.9446
 -84.9789
 -84.9214
 -84.9465
 -85.0167
 -85.0598
 -85.0728
 -85.0307
 -83.2775
 -83.2132
 -83.0768
 -83.1568
 -84.0612
 -83.9857
 -84.1985
 -84.0798
 -84.3948
 -84.3902
 -84.2951
 -84.2468
 -84.911
 -84.9454
 -84.9264
 -84.9354
 -78.7216
 -79.0926
 -79.2934
 -79.7459
 -84.9679
 -84.9321
 -84.9683
 -84.9795
 -84.0988
 -83.9513
 -84.1141
 -84.2209
 -85.1544
 -85.1452
 -85.1534
 -85.1339
 -85.2352
 -85.2262
 -85.2353
 -85.2264
 -85.3097
 -85.3078
 -85.3046
 -85.3077
 -85.2864
 -85.2906
 -85.2797
 -85.3277
 -85.327
 -85.33
 -85.33
 -85.2174
 -85.2082
 -85.1908
 -85.2045
 -84.5409
 -84.5209
 -84.5817
 -84.5708
 -85.287
 -85.2812
 -85.2767
 -85.2869
 -84.8355
 -84.8492
 -84.8137
 -84.8023
 -84.8946
 -84.9166
 -84.8993
 -85.3072
 -85.3106
 -85.3083
 -85.3071
 -85.2808
 -85.2755
 -85.2776
 -84.805
 -84.7698
 -84.8304
 -84.848
 -84.0364
 -84.1159
 -84.0306
 -84.2144
 -85.1277
 -85.1117
 -85.1045
 -85.0994
 -85.3029
 -85.3067
 -85.3055
 -85.3025
 -83.0671
 -83.0724
 -83.266
 -83.0143
 -84.5907
 -84.5751
 -84.4992
 -84.5029
 -84.665
 -84.7408
 -84.6216
 -84.6746
 -85.126
 -85.1056
 -85.1262
 -85.1351
 -83.428
 -83.2902
 -83.5755
 -83.326
 -82.4997
 -82.2963
 -82.5306
 -82.3355
 -84.7521
 -84.761
 -84.7444
 -84.8112
 -85.3109
 -85.3063
 -85.3061
 -85.3085
 -83.7939
 -83.6243
 -83.8092
 -83.7355
 -82.6575
 -82.8858
 -82.6503
 -82.8446
 -84.9894
 -84.93
 -84.9864
 -84.9853
 -83.4945
 -83.5177
 -83.4162
 -82.9916
 -83.1201
 -83.0817
 -84.951
 -84.9399
 -84.9899
 -84.9482
 -82.8904
 -82.8267
 -82.6482
 -82.8744
 -83.2133
 -83.0132
 -83.1494
 -83.1767
 -84.9825
 -85.0036
 -84.9715
 -82.4652
 -82.3845
 -85.2377
 -85.2405
 -85.2587
 -85.2594
 -85.1233
 -85.1576
 -85.1591
 -85.1412
 -79.0475
 -79.6492
 -78.5158
 -79.7712
 -73.6166
 -73.4548
 -72.763
 -73.6885
 -83.3314
 -82.9843
 -83.2338
 -83.2174
 -85.2922
 -85.2912
 -85.2944
 -85.2915
 -85.0294
 -85.0104
 -84.9877
 -85.0104
 -82.4539
 -82.4288
 -82.4159
 -82.4047
 -83.6361
 -83.6741
 -83.7243
 -83.9111
 -83.7663
 -83.7403
 -83.692
 -83.3984
 -83.5267
 -83.5479
 -83.5577
 -83.536
 -83.4212
 -83.6147
 -83.6297
 -82.7484
 -82.568
 -82.7396
 -82.4917
 -85.3204
 -85.3224
 -85.3215
 -85.3202
 -85.2879
 -85.2948
 -85.2871
 -84.7187
 -84.6726
 -84.7233
 -84.6328
 -83.3113
 -83.0313
 -83.339
 -83.2346
 -85.3311
 -85.3337
 -82.9708
 -82.8751
 -82.8953
 -82.7983
 -84.8287
 -84.9262
 -84.864
 -84.8912
 -85.0495
 -85.0417
 -82.8869
 -82.8331
 -83.1069
 -82.8851
 -85.3012
 -85.3033
 -85.2987
 -85.3072
 -85.3241
 -85.3213
 -85.3211
 -85.3265
 -84.4762
 -84.523
 -84.4683
 -79.542
 -79.9736
 -79.6794
 -82.9378
 -83.2013
 -82.9165
 -83.002
 -85.1787
 -85.162
 -85.1893
 -85.1597
 -83.7637
 -83.5423
 -83.6322
 -83.4279
 -83.7199
 -83.602
 -83.7842
 -83.5484
 -85.0996
 -85.0876
 -85.1084
 -85.132
 -65.1654
 -65.4057
 -64.5892
 -63.4369
 -85.1544
 -85.1647
 -85.1752
 -85.1689
 -85.1817
 -85.1796
 -85.1945
 -85.2021
 -82.5093
 -82.5026
 -82.1974
 -82.4328
 -85.2819
 -85.2839
 -85.2853
 -85.2791
 -62.6407
 -60.8159
 -61.5328
 -60.2022
 -85.307
 -85.2943
 -85.2951
 -85.2914
 -85.2312
 -85.2262
 -83.5194
 -83.6105
 -83.5491
 -83.693
 -82.2563
 -82.0254
 -82.1455
 -82.3414
 -85.2785
 -85.2843
 -85.282
 -85.2811
 -84.0387
 -84.0976
 -84.0894
 -83.9984
 -85.3064
 -85.3014
 -85.3055
 -83.482
 -83.3068
 -83.1874
 -81.9452
 -82.2093
 -82.2759
 -85.3121
 -85.3138
 -85.3118
 -85.3101
 -83.6321
 -83.5601
 -83.5677
 -83.5389
 -85.2818
 -85.2834
 -82.1658
 -82.2862
 -82.0868
 -82.1785
 -84.8118
 -84.8555
 -84.8703
 -84.7984
 -83.8668
 -83.7387
 -84.2728
 -84.4762
 -84.4298
 -84.3092
 -83.4487
 -83.4036
 -83.426
 -83.2578
 -85.3191
 -85.3264
 -85.3183
 -85.3215
 -82.7226
 -82.658
 -82.6928
 -85.2483
 -63.2396
 -63.3815
 -63.4275
 -62.7053
 -85.271
 -85.2708
 -85.2772
 -85.2604
 -83.8023
 -83.8106
 -84.0139
 -83.9817
 -85.1273
 -85.1252
 -85.1229
 -85.1209
 -83.4055
 -83.2915
 -83.2086
 -83.3844
 -85.0893
 -80.5333
 -80.4591
 -80.4457
 -80.5629
 -85.0464
 -85.0579
 -85.0423
 -85.0161
 -85.2157
 -85.2256
 -85.2255
 -85.207
 -85.2259
 -85.2117
 -85.2318
 -85.2739
 -85.2792
 -85.2793
 -85.276
 -82.3978
 -82.5018
 -82.7592
 -82.6529
 -85.2408
 -85.2397
 -85.2403
 -85.25
 -81.1386
 -81.0616
 -81.2019
 -80.7567
 -85.2264
 -85.2327
 -85.2397
 -85.2401
 -84.6921
 -84.6466
 -84.6347
 -84.603
 -85.1269
 -85.1423
 -85.1485
 -85.1547
 -84.7947
 -84.7702
 -84.7456
 -84.7247
 -85.3029
 -85.2926
 -84.9085
 -84.8605
 -84.8625
 -84.9036
 -79.9398
 -79.7227
 -80.3439
 -79.7027
 -80.6126
 -80.3969
 -81.1628
 -80.5285
 -84.8069
 -84.8591
 -84.8516
 -84.8657
 -85.1803
 -85.1823
 -85.1738
 -85.1971
 -85.1962
 -85.1852
 -85.1898
 -85.2036
 -85.3006
 -85.2914
 -85.2949
 -85.2908
 -85.2039
 -85.2242
 -85.2145
 -85.2057
 -80.4709
 -80.6574
 -80.8707
 -80.3499
 -82.6667
 -82.6734
 -82.6121
 -83.0095
 -85.3322
 -85.33
 -85.3293
 -85.3293
 -84.9515
 -84.9533
 -84.9592
 -85.0088
 -82.8854
 -83.137
 -82.8353
 -83.1674
 -67.8098
 -67.4721
 -69.2837
 -67.4015
 -85.2689
 -85.2742
 -85.2642
 -85.2833
 -83.373
 -83.3391
 -83.4111
 -83.5255
 -84.2539
 -84.3703
 -84.1729
 -84.2994
 -81.2957
 -81.1124
 -81.2359
 -81.4251
 -85.0756
 -85.0626
 -85.0774
 -85.0809
 -85.297
 -85.2975
 -85.2956
 -85.2975
 -84.993
 -84.9488
 -84.9589
 -84.9474
 -84.5087
 -84.4841
 -84.6059
 -84.5657
 -80.2451
 -80.4816
 -80.6832
 -79.8598
 -85.2907
 -85.1039
 -85.1225
 -85.0966
 -85.1143
 -84.1749
 -84.1204
 -83.9976
 -83.9914
 -85.1485
 -85.1624
 -85.1629
 -85.1705
 -82.8025
 -82.7955
 -82.6965
 -83.0318
 -85.0964
 -85.1061
 -85.0744
 -79.454
 -80.0447
 -79.5399
 -79.3078
 -85.2403
 -85.2167
 -85.2334
 -85.2249
 -82.7116
 -82.6887
 -82.8044
 -82.7256
 -85.3408
 -85.3393
 -85.34
 -85.3425
 -83.5396
 -83.574
 -83.5836
 -83.5741
 -72.4292
 -74.7712
 -74.6438
 -73.9638
 -78.7604
 -78.7172
 -79.3452
 -79.055
 -85.3319
 -85.3303
 -85.3279
 -85.3275
 -85.3084
 -85.3078
 -85.3128
 -85.3133
 -84.73
 -84.7939
 -84.7734
 -84.7887
 -83.5775
 -83.5716
 -83.6894
 -84.9071
 -84.9056
 -84.8286
 -84.8635
 -85.0994
 -85.0913
 -85.1096
 -85.1234
 -84.802
 -84.9067
 -84.8754
 -84.8705
 -84.7652
 -84.7945
 -84.8644
 -84.8227
 -85.32
 -85.315
 -85.3164
 -85.3143
 -83.0426
 -82.9897
 -83.2012
 -83.0441
 -78.7166
 -77.368
 -77.6276
 -85.167
 -85.1489
 -85.1655
 -85.1615
 -85.277
 -85.2839
 -85.2764
 -85.2746
 -83.1541
 -83.0514
 -83.2057
 -83.0472
 -83.0734
 -83.1452
 -82.918
 -85.2818
 -85.2776
 -85.2846
 -85.2716
 -84.5701
 -84.5656
 -84.6174
 -84.5533
 -83.0339
 -82.7879
 -82.9886
 -83.0304
 -84.233
 -84.1719
 -84.1857
 -84.2547
 -85.2422
 -85.2405
 -85.2291
 -85.2426
 -82.9027
 -83.2267
 -82.7303
 -83.1739
 -84.3363
 -84.1829
 -84.2659
 -84.2664
 -83.7819
 -83.8684
 -83.7835
 -85.313
 -85.3117
 -85.3071
 -85.3105
 -84.5066
 -84.5577
 -84.47
 -84.5565
 -85.3315
 -85.3308
 -85.3358
 -84.8455
 -84.8647
 -84.8659
 -84.8421
 -80.0586
 -80.4478
 -79.7351
 -79.9333
 -85.0283
 -85.0359
 -85.0578
 -85.0839
 -84.7342
 -84.8049
 -84.7094
 -83.2264
 -83.3337
 -83.4595
 -83.2392
 -82.6261
 -82.6764
 -82.5826
 -82.7038
 -83.2458
 -83.3254
 -83.4474
 -83.1668
 -71.4948
 -71.5331
 -73.0293
 -73.1508
 -83.9528
 -83.8975
 -83.8277
 -83.8432
 -83.8114
 -83.7488
 -83.9739
 -83.7032
 -85.2786
 -85.2715
 -85.2724
 -85.284
 -81.762
 -82.1738
 -82.0312
 -81.9515
 -85.1
 -85.0839
 -85.1067
 -85.1107
 -85.3035
 -85.3037
 -85.299
 -85.2966
 -85.3075
 -85.3009
 -85.3046
 -85.3085
 -85.2372
 -85.2467
 -85.2353
 -85.2453
 -85.3164
 -85.3218
 -85.3215
 -85.3117
 -85.291
 -85.2932
 -85.2922
 -85.3308
 -85.3227
 -85.3259
 -85.3254
 -81.4536
 -81.2487
 -81.3861
 -81.1578
 -84.188
 -84.1276
 -84.0325
 -84.1384
 -83.7007
 -83.8878
 -83.779
 -83.918
 -84.0954
 -84.0266
 -84.0067
 -83.9798
 -85.3011
 -85.2943
 -85.2972
 -85.2998
 -84.2891
 -84.2994
 -84.2141
 -84.1254
 -83.304
 -83.0509
 -83.0768
 -83.2541
 -85.0887
 -85.0804
 -85.1117
 -85.0804
 -83.2839
 -83.5295
 -83.2931
 -83.3453
 -85.1803
 -85.166
 -85.168
 -84.868
 -84.9215
 -84.9093
 -85.2726
 -85.2649
 -85.2728
 -85.2709
 -84.2364
 -84.2744
 -84.2011
 -84.1991
 -85.0606
 -85.0345
 -85.0394
 -85.0558
 -84.0523
 -83.8808
 -83.9738
 -84.0749
 -85.3331
 -85.3314
 -85.3155
 -85.3125
 -85.3097
 -85.3159
 -80.7972
 -80.722
 -80.7268
 -80.5503
 -85.0785
 -85.1024
 -85.1049
 -85.1222
 -83.1196
 -83.4417
 -83.2684
 -83.0332
 -58.1464
 -55.7941
 -57.8935
 -57.1519
 -83.5665
 -83.5122
 -83.4103
 -83.4947
 -85.1772
 -85.1599
 -85.1749
 -82.0445
 -81.9912
 -82.3094
 -82.2871
 -85.3004
 -85.2952
 -85.3037
 -85.2992
 -83.6644
 -83.7134
 -83.6564
 -83.7045
 -85.0722
 -85.0943
 -85.0765
 -85.0735
 -79.9399
 -80.299
 -79.6634
 -80.0796
 -67.901
 -67.372
 -68.5569
 -68.8249
 -83.228
 -83.3515
 -83.2101
 -83.1809
 -84.0746
 -84.0322
 -84.1179
 -84.9158
 -84.8562
 -84.9383
 -84.9125
 -82.4694
 -82.4585
 -82.0997
 -85.1717
 -85.1688
 -85.1741
 -85.1862
 -85.238
 -85.2555
 -85.2394
 -85.2544
 -85.149
 -85.1335
 -85.1498
 -85.1495
 -85.2991
 -85.2849
 -85.292
 -85.2924
 -85.2194
 -85.2029
 -85.2045
 -83.6463
 -83.7233
 -83.7433
 -83.7849
 -85.1971
 -85.1829
 -85.1242
 -85.0965
 -85.0868
 -85.1196
 -85.1782
 -85.1692
 -85.1695
 -85.1827
 -83.2105
 -83.349
 -83.2863
 -83.0443
 -83.4915
 -83.5989
 -83.4659
 -83.5716
 -58.9816
 -59.9242
 -60.1455
 -59.482
 -83.4151
 -83.5183
 -83.4147
 -83.5953
 -83.51
 -83.4871
 -83.5311
 -84.6266
 -84.6202
 -84.5807
 -84.5658
 -83.6658
 -83.8421
 -83.8353
 -83.7374
 -80.5924
 -80.8991
 -80.5933
 -80.4996
 -85.2264
 -85.2154
 -85.23
 -85.2131
 -84.7314
 -84.7779
 -84.7148
 -84.6779
 -85.3105
 -85.3113
 -85.3086
 -85.3109
 -84.9718
 -84.93
 -84.9693
 -84.9464
 -85.2861
 -85.2866
 -85.2869
 -70.6769
 -72.0406
 -71.3101
 -71.6672
 -85.1679
 -85.1889
 -85.1684
 -85.1714
 -84.348
 -84.2541
 -84.36
 -84.3136
 -82.7829
 -82.5911
 -83.9532
 -83.9649
 -84.0297
 -83.9954
 -84.3846
 -84.2746
 -84.3209
 -85.2793
 -85.2815
 -85.2772
 -85.2822
 -85.2739
 -85.2692
 -85.2618
 -85.269
 -82.9843
 -82.8831
 -83.0096
 -82.9267
 -84.6251
 -84.5839
 -83.4663
 -83.6547
 -83.5493
 -83.3802
 -85.196
 -85.1909
 -85.2099
 -85.2084
 -79.5442
 -79.2865
 -79.4612
 -79.4817
 -83.2082
 -83.3032
 -83.1524
 -83.1449
 -83.497
 -83.6418
 -83.7078
 -83.6429
 -84.8242
 -84.8048
 -84.8306
 -84.8886
 -85.1975
 -85.1924
 -85.1827
 -85.1858
 -85.2183
 -85.2006
 -85.191
 -85.2077
 -64.5606
 -64.2882
 -63.9478
 -63.3735
 -82.1686
 -82.4072
 -82.466
 -84.8994
 -84.8253
 -84.8671
 -84.9568
 -85.0021
 -84.965
 -84.987
 -85.2991
 -85.3023
 -85.2999
 -85.3047
 -84.5053
 -83.3718
 -83.344
 -83.1039
 -83.1998
 -85.08
 -85.0588
 -85.0305
 -85.0518
 -85.2228
 -85.2102
 -85.2151
 -85.2271
 -85.285
 -85.2874
 -83.0519
 -83.0069
 -82.906
 -82.8706
 -84.6729
 -84.7026
 -84.6749
 -84.7377
 -82.5416
 -82.5036
 -82.5492
 -82.5958
 -84.9526
 -84.0987
 -83.9779
 -84.1972
 -84.2566
 -83.846
 -83.9408
 -83.9785
 -83.9176
 -85.3022
 -85.2934
 -85.3141
 -85.3177
 -85.3165
 -85.3151
 -75.1501
 -74.7449
 -74.8758
 -75.3179
 -85.2104
 -85.215
 -85.1982
 -85.2225
 -85.0101
 -84.9517
 -84.9591
 -84.9994
 -67.2522
 -67.6757
 -67.7586
 -66.851
 -84.6452
 -84.6574
 -84.6836
 -84.6102
 -84.6295
 -84.5431
 -84.4991
 -84.5275
 -82.5262
 -82.1749
 -82.49
 -82.3808
 -85.3301
 -85.3324
 -85.3328
 -85.3321
 -84.4999
 -84.412
 -84.4449
 -83.4723
 -83.6598
 -83.6307
 -83.4916
 -85.3187
 -85.3266
 -85.3214
 -85.3227
 -83.5756
 -83.4769
 -83.295
 -83.7005
 -84.3332
 -84.4019
 -85.2465
 -85.2502
 -85.2579
 -85.2388
 -84.9102
 -84.904
 -84.9543
 -84.9325
 -85.3068
 -85.3021
 -85.3041
 -85.305
 -84.4975
 -84.6087
 -83.361
 -83.4461
 -83.4855
 -83.4561
 -83.6699
 -83.6653
 -83.7464
 -83.8109
 -85.2626
 -85.2605
 -85.2496
 -85.2525
 -85.2351
 -85.2323
 -85.2375
 -85.2407
 -85.2046
 -85.1807
 -85.2039
 -85.1903
 -83.87
 -84.0379
 -83.9654
 -83.8607
 -75.9245
 -75.4244
 -75.8924
 -76.0232
 -85.3121
 -85.3159
 -85.3111
 -85.3127
 -82.3183
 -82.3952
 -82.4429
 -82.6279
 -84.8537
 -84.8585
 -84.9054
 -84.831
 -83.9753
 -84.2088
 -84.0564
 -84.1412
 -84.8348
 -84.777
 -84.8063
 -85.0539
 -85.0887
 -85.0492
 -85.0766
 -84.7171
 -84.7748
 -84.7304
 -84.692
 -85.1526
 -85.158
 -85.176
 -85.1476
 -85.1495
 -85.1482
 -85.1564
 -85.1237
 -66.4654
 -68.7622
 -66.6697
 -79.8769
 -80.4979
 -80.5555
 -80.3443
 -84.7675
 -84.7198
 -84.7411
 -84.7399
 -85.262
 -85.2678
 -85.2624
 -85.2716
 -83.1143
 -82.8654
 -83.1008
 -83.5723
 -83.64
 -83.6318
 -85.0215
 -85.0111
 -85.038
 -85.0361
 -84.8127
 -84.8339
 -84.8738
 -84.8741
 -85.3424
 -85.3424
 -85.341
 -85.3425
 -78.5711
 -78.6538
 -78.3254
 -77.2905
 -85.1971
 -85.2091
 -84.1504
 -84.3021
 -84.2973
 -84.187
 -85.1293
 -85.1529
 -85.1478
 -85.152
 -84.9387
 -84.9565
 -84.9864
 -84.9545
 -84.3829
 -84.3617
 -84.4568
 -84.2908
 -85.1245
 -85.1449
 -85.1328
 -85.1413
 -83.0309
 -83.0859
 -83.099
 -83.2167
 -81.9349
 -81.8054
 -81.9737
 -81.8952
 -85.2323
 -85.236
 -85.2508
 -85.258
 -84.7822
 -84.821
 -84.8578
 -72.9764
 -72.7554
 -73.3528
 -85.2602
 -85.2694
 -85.2698
 -85.2718
 -85.2871
 -85.2848
 -85.28
 -85.2776
 -84.7241
 -84.749
 -84.783
 -84.7863
 -85.3018
 -85.3055
 -85.3061
 -85.3049
 -85.2985
 -85.3033
 -85.3003
 -85.3062
 -84.3295
 -84.3839
 -84.446
 -84.3669
 -85.19
 -85.1963
 -85.2056
 -85.2038
 -85.3399
 -85.3396
 -85.3392
 -85.3415
 -85.221
 -85.2168
 -85.2106
 -85.227
 -84.8376
 -84.7958
 -84.8111
 -84.7506
 -85.2593
 -85.2594
 -85.2534
 -85.2504
 -85.1629
 -85.1556
 -85.1736
 -84.9914
 -85.0237
 -75.6588
 -76.1052
 -75.4416
 -75.2265
 -84.9571
 -85.001
 -84.9768
 -84.9899
 -77.7328
 -77.9793
 -78.0872
 -78.2014
 -77.0809
 -76.7441
 -77.9053
 -77.7166
 -84.8556
 -84.896
 -84.8877
 -84.8546
 -84.1915
 -84.2017
 -84.0945
 -84.2153
 -85.0166
 -85.055
 -85.0415
 -85.0428
 -84.8083
 -84.7542
 -81.4614
 -81.309
 -81.3818
 -81.6218
 -85.3161
 -85.3189
 -85.3208
 -85.3197
 -84.2266
 -84.1838
 -84.3645
 -84.2742
 -85.2417
 -85.2347
 -85.2294
 -85.2396
 -81.3778
 -81.0471
 -81.3305
 -81.1153
 -85.2884
 -85.2954
 -85.2946
 -85.2944
 -84.9617
 -84.9321
 -84.9646
 -84.9764
 -83.1664
 -82.878
 -82.62
 -82.8492
 -85.3422
 -85.3417
 -85.3413
 -85.3401
 -83.9171
 -84.0356
 -83.9279
 -83.9288
 -84.2417
 -84.1307
 -84.245
 -84.0836
 -85.323
 -85.3239
 -85.32
 -85.3257
 -84.713
 -84.6058
 -84.6603
 -84.6626
 -85.2719
 -85.2771
 -85.2719
 -85.2711
 -85.2533
 -85.2447
 -85.2473
 -84.4325
 -84.295
 -84.3191
 -84.3659
 -85.2602
 -85.2667
 -85.2611
 -85.2649
 -82.9323
 -83.1088
 -83.0762
 -82.9426
 -85.288
 -85.2924
 -85.2918
 -85.2899
 -85.2824
 -85.2793
 -85.2827
 -85.2808
 -83.0387
 -82.9672
 -83.2555
 -83.0997
 -83.3354
 -83.3114
 -83.4564
 -83.2352
 -53.3402
 -53.585
 -52.8512
 -53.1436
 -85.1751
 -85.1595
 -85.1581
 -77.0746
 -77.9752
 -78.2612
 -77.5502
 -85.3135
 -85.3073
 -85.3094
 -85.3092
 -82.7406
 -85.2618
 -85.2496
 -85.2483
 -85.2552
 -85.2647
 -85.2509
 -85.2569
 -63.2577
 -62.21
 -62.8184
 -63.2407
 -60.2452
 -61.0491
 -60.3844
 -59.9887
 -85.3028
 -85.2954
 -85.3002
 -85.3053
 -83.3102
 -83.2417
 -83.3732
 -83.1993
 -85.154
 -85.1495
 -85.1657
 -84.0039
 -83.8879
 -83.9961
 -83.8438
 -84.4398
 -84.4406
 -84.4425
 -85.2484
 -85.2488
 -85.2586
 -85.0227
 -85.0517
 -85.049
 -85.0219
 -84.0679
 -83.9035
 -83.929
 -84.0386
 -83.2449
 -83.3234
 -83.2246
 -83.302
 -85.1636
 -85.178
 -85.1793
 -80.6612
 -81.0005
 -80.1781
 -80.103
 -83.0463
 -83.3457
 -83.0285
 -84.3057
 -84.4901
 -84.4134
 -84.4016
 -81.9584
 -82.239
 -82.3273
 -82.2047
 -83.2489
 -83.4249
 -83.4695
 -83.4062
 -85.2517
 -85.2424
 -85.2438
 -85.2426
 -84.5969
 -84.5223
 -84.5461
 -84.6189
 -83.4254
 -83.5258
 -84.7989
 -84.7782
 -84.7817
 -84.7289
 -85.2795
 -85.3219
 -85.323
 -85.3227
 -85.322
 -51.8176
 -51.6526
 -51.6281
 -51.8517
 -85.2317
 -85.2456
 -85.2378
 -85.335
 -85.3349
 -85.3326
 -85.3345
 -85.2131
 -85.1973
 -85.2089
 -85.201
 -83.1123
 -83.1655
 -83.2663
 -83.1293
 -84.5093
 -84.43
 -84.4403
 -84.3373
 -85.3372
 -85.3376
 -85.3373
 -85.3361
 -85.1705
 -85.1538
 -85.1466
 -85.161
 -80.2577
 -79.6972
 -79.6142
 -80.4736
 -84.3695
 -84.3461
 -84.3749
 -84.1807
 -84.2753
 -84.3295
 -84.3679
 -84.2699
 -51.9101
 -51.8066
 -51.7752
 -51.9781
 -82.9164
 -82.8779
 -82.843
 -82.9715
 -85.1935
 -85.2124
 -85.2021
 -85.2061
 -85.0219
 -85.0196
 -85.0536
 -85.0061
 -84.5547
 -84.5792
 -84.6609
 -84.6316
 -85.1648
 -85.1862
 -85.1826
 -85.1807
 -84.9813
 -85.0056
 -85.0216
 -84.9945
 -85.1738
 -85.1688
 -85.1605
 -85.19
 -85.3425
 -85.3386
 -85.3393
 -85.343
 -85.2206
 -85.2114
 -85.2074
 -85.1871
 -85.148
 -85.1272
 -85.1269
 -85.1523
 -85.1306
 -84.839
 -84.8325
 -84.7989
 -84.8916
 -85.3204
 -85.3193
 -85.318
 -85.3173
 -84.5872
 -84.5164
 -84.5918
 -84.5645
 -85.0082
 -85.0263
 -85.0417
 -84.9817
 -84.732
 -84.6512
 -84.7143
 -84.7756
 -83.9223
 -83.6788
 -83.8884
 -83.7435
 -70.2861
 -70.834
 -72.6296
 -70.6755
 -85.3449
 -85.3411
 -85.1253
 -85.1083
 -85.1084
 -55.4597
 -55.5787
 -55.6945
 -83.3796
 -83.2272
 -83.3223
 -83.1419
 -76.2937
 -76.7544
 -75.292
 -75.0358
 -81.8696
 -81.6804
 -81.9706
 -81.3518
 -85.3124
 -85.3027
 -85.3084
 -85.3072
 -84.9131
 -84.8605
 -84.8712
 -84.8545
 -85.1307
 -85.1594
 -85.1508
 -85.1697
 -85.0137
 -85.035
 -84.9822
 -84.9877
 -85.1958
 -85.198
 -85.1872
 -85.1882
 -84.6702
 -84.6536
 -85.2607
 -85.2355
 -85.2622
 -85.2412
 -85.178
 -85.1654
 -85.1562
 -85.1801
 -83.3789
 -83.1963
 -83.409
 -83.247
 -83.6321
 -83.6933
 -83.6865
 -83.696
 -85.005
 -85.0036
 -84.9921
 -85.0223
 -84.8806
 -84.8906
 -84.9255
 -84.9537
 -82.1399
 -81.7375
 -81.6804
 -82.1364
 -85.1414
 -85.1387
 -85.1332
 -85.1234
 -85.3366
 -85.3343
 -85.3353
 -85.3354
 -85.2772
 -85.2721
 -85.2744
 -85.2719
 -85.3423
 -85.3438
 -85.3419
 -85.3442
 -85.2916
 -85.2971
 -85.2949
 -85.296
 -84.8552
 -84.915
 -84.8492
 -84.8603
 -85.1629
 -85.1452
 -84.7122
 -84.7876
 -84.6932
 -84.7522
 -83.5158
 -83.6288
 -83.6469
 -83.6906
 -85.2316
 -85.24
 -85.2413
 -85.2291
 -84.6798
 -84.6437
 -84.6832
 -84.6015
 -84.3134
 -84.2328
 -84.2061
 -84.2553
 -83.0844
 -83.1149
 -83.2219
 -83.3053
 -83.6518
 -83.5365
 -83.5163
 -83.7658
 -82.8879
 -82.9891
 -83.1259
 -82.9667
 -72.9746
 -73.3766
 -72.7319
 -72.705
 -85.21
 -85.2154
 -85.1974
 -85.2112
 -85.1281
 -85.1392
 -73.771
 -74.8937
 -74.7263
 -73.3259
 -83.9653
 -83.9804
 -85.0912
 -85.0743
 -85.0921
 -85.2857
 -85.2844
 -82.8474
 -82.8333
 -82.7558
 -82.9319
 -74.2351
 -75.0753
 -75.0017
 -75.1377
 -81.9049
 -82.0171
 -82.2164
 -82.3128
 -83.8821
 -83.9034
 -83.9612
 -84.0202
 -85.0397
 -84.9944
 -84.9951
 -85.0018
 -85.0843
 -85.0712
 -85.0716
 -85.061
 -83.8061
 -83.9828
 -83.9735
 -83.9361
 -85.0429
 -85.0354
 -85.0507
 -85.0003
 -84.7362
 -84.6852
 -84.6772
 -84.7077
 -84.9097
 -84.9405
 -84.9682
 -84.9269
 -84.918
 -84.8734
 -84.9378
 -84.7019
 -84.6606
 -84.7649
 -84.7221
 -84.0377
 -84.0957
 -84.0054
 -83.9532
 -83.3233
 -83.46
 -83.2483
 -83.432
 -85.3144
 -85.3138
 -85.3165
 -85.3189
 -84.5699
 -84.5616
 -84.6339
 -84.6468
 -81.7278
 -81.651
 -81.4175
 -81.6536
 -80.6155
 -80.4045
 -80.4604
 -80.204
 -82.5939
 -82.5008
 -82.5014
 -82.5576
 -82.8606
 -82.8608
 -83.107
 -83.1227
 -83.3773
 -83.266
 -83.2122
 -83.2908
 -85.3146
 -85.3175
 -85.3164
 -85.3167
 -84.3328
 -84.3295
 -84.3055
 -84.4025
 -85.2074
 -85.2097
 -85.201
 -85.1968
 -83.2119
 -83.4419
 -83.115
 -83.3549
 -85.3203
 -85.3232
 -85.3225
 -85.3273
 -85.3279
 -85.3279
 -85.3299
 -85.1595
 -85.1165
 -85.1363
 -85.1384
 -83.7031
 -83.7522
 -83.5945
 -83.7001
 -85.3361
 -85.3323
 -85.3336
 -84.2555
 -84.1562
 -84.1824
 -84.0281
 -85.2921
 -85.2936
 -85.2804
 -85.2823
 -85.2907
 -85.2822
 -84.0379
 -83.9385
 -83.9893
 -79.9082
 -80.0787
 -79.4535
 -79.7405
 -82.9965
 -82.7438
 -82.9804
 -83.0515
 -84.8103
 -84.8678
 -84.8098
 -85.3175
 -85.309
 -85.3102
 -85.1801
 -85.1675
 -85.1552
 -85.1658
 -85.3198
 -85.3211
 -85.313
 -85.3258
 -84.4695
 -84.5608
 -84.603
 -84.5265
 -85.2743
 -85.2764
 -85.2814
 -85.2669
 -84.7914
 -84.8044
 -84.7565
 -84.7549
 -83.778
 -83.6624
 -83.7379
 -85.3333
 -85.329
 -85.3307
 -85.3365
 -85.1433
 -85.0327
 -85.0696
 -85.0672
 -85.0456
 -85.0225
 -85.0189
 -84.9957
 -83.5868
 -83.5249
 -83.5172
 -83.5064
 -83.5014
 -83.6751
 -84.5983
 -84.4989
 -84.4684
 -84.4241
 -84.2838
 -84.4004
 -84.294
 -84.3551
 -85.1659
 -85.3383
 -85.3337
 -85.3322
 -85.3357
 -65.8275
 -64.3072
 -65.7592
 -65.7782
 -84.1054
 -83.9801
 -83.7391
 -83.6828
 -83.7341
 -83.7673
 -83.5271
 -83.5475
 -83.3442
 -83.4302
 -85.1968
 -85.1787
 -85.186
 -85.1928
 -85.2133
 -85.2252
 -85.2074
 -85.2142
 -83.5263
 -83.3972
 -85.1363
 -85.1249
 -85.1546
 -85.1349
 -85.1807
 -85.1945
 -85.1791
 -84.9352
 -84.9172
 -84.8919
 -84.8686
 -84.5543
 -84.4669
 -84.5231
 -84.4771
 -85.2048
 -85.2206
 -85.2184
 -85.2106
 -85.2512
 -85.258
 -85.2619
 -85.2567
 -85.2131
 -85.2287
 -85.2132
 -85.2177
 -85.2245
 -85.2169
 -85.2032
 -84.5453
 -84.5748
 -84.5691
 -84.5088
 -78.7944
 -78.9275
 -79.2631
 -79.2437
 -84.233
 -84.2022
 -84.1465
 -84.1814
 -85.2418
 -85.232
 -85.2255
 -85.2379
 -85.1442
 -85.1434
 -85.1373
 -85.163
 -84.2095
 -84.2832
 -84.3142
 -84.3415
 -85.1495
 -85.1257
 -85.1358
 -85.1475
 -84.941
 -84.9598
 -84.8729
 -84.9457
 -84.9767
 -85.0157
 -85.0037
 -85.006
 -85.1403
 -85.1464
 -85.1513
 -85.3216
 -85.322
 -85.3203
 -85.3212
 -84.1838
 -84.2921
 -84.2326
 -84.273
 -84.7807
 -84.8478
 -84.8333
 -84.812
 -78.3022
 -77.6916
 -77.6439
 -78.3769
 -82.9838
 -83.1594
 -83.1282
 -83.0103
 -83.3851
 -82.9933
 -83.1459
 -82.9587
 -83.0709
 -83.1576
 -83.1371
 -83.2022
 -84.9037
 -84.8707
 -84.8853
 -82.3377
 -82.3048
 -82.4006
 -82.4191
 -82.3637
 -82.4952
 -82.7427
 -82.3997
 -85.3311
 -85.3287
 -85.3277
 -85.329
 -84.9468
 -84.914
 -84.9184
 -84.8966
 -85.2645
 -85.2669
 -85.2644
 -85.2541
 -85.0285
 -85.0471
 -85.0253
 -84.9961
 -85.1342
 -85.1528
 -85.1393
 -85.1445
 -83.424
 -83.2555
 -83.3724
 -83.1093
 -84.722
 -84.8349
 -84.7622
 -84.7579
 -85.2483
 -85.2525
 -85.2401
 -85.2427
 -85.0642
 -85.0553
 -85.0868
 -85.0733
 -82.4485
 -82.3953
 -82.7849
 -82.7953
 -85.3186
 -85.3205
 -85.3196
 -85.3207
 -84.1703
 -84.0555
 -82.4999
 -84.7518
 -84.7819
 -84.8023
 -84.7275
 -84.5451
 -84.5915
 -84.5024
 -84.5081
 -76.2816
 -76.1064
 -77.197
 -83.9912
 -83.8901
 -83.847
 -83.7744
 -85.0293
 -85.0817
 -85.0655
 -85.0821
 -84.7526
 -84.8226
 -84.7779
 -84.7679
 -85.2988
 -85.3015
 -85.3018
 -85.3005
 -83.2297
 -83.4722
 -83.3026
 -83.3157
 -83.3018
 -83.2434
 -83.5013
 -76.4645
 -75.2507
 -75.7512
 -76.6119
 -83.1053
 -83.3088
 -83.1982
 -84.97
 -85.0428
 -84.9768
 -83.1092
 -83.103
 -82.9515
 -83.0233
 -84.5141
 -84.5953
 -84.6255
 -84.5912
 -52.0201
 -52.0363
 -51.9705
 -52.385
 -84.4821
 -84.4347
 -84.4675
 -81.8132
 -81.7995
 -81.8296
 -81.8614
 -84.4898
 -84.428
 -84.3334
 -84.4342
 -83.0397
 -83.2114
 -83.2045
 -83.2577
 -85.1122
 -85.1197
 -85.1029
 -85.1268
 -85.186
 -85.1786
 -85.1934
 -85.1941
 -85.3285
 -85.3283
 -85.3297
 -85.3269
 -84.9822
 -84.9221
 -84.972
 -84.9892
 -82.8518
 -82.6995
 -82.8305
 -82.7412
 -83.4187
 -83.3418
 -80.503
 -80.4472
 -80.6898
 -80.6404
 -84.6851
 -84.7171
 -83.9709
 -84.1433
 -84.116
 -83.4737
 -83.5566
 -83.6383
 -83.5199
 -85.3067
 -85.3067
 -85.2991
 -85.3007
 -85.3011
 -85.2985
 -85.2949
 -85.2996
 -83.4906
 -83.5965
 -83.5055
 -83.2854
 -82.4222
 -82.4657
 -85.0412
 -85.0413
 -85.0326
 -85.0655
 -83.3917
 -83.2605
 -83.4733
 -83.4172
 -84.1264
 -83.9682
 -84.2644
 -85.3414
 -85.3424
 -85.3403
 -84.7995
 -84.8655
 -84.8232
 -84.8401
 -85.2763
 -85.2856
 -85.2743
 -85.2718
 -84.8638
 -84.9066
 -84.9111
 -84.873
 -85.1976
 -85.212
 -85.2155
 -85.1906
 -82.8285
 -82.9754
 -82.8583
 -82.7941
 -82.9822
 -83.2333
 -82.8982
 -83.1756
 -84.9068
 -84.8576
 -84.9282
 -84.8768
 -84.0108
 -84.164
 -84.2107
 -83.9902
 -82.4005
 -82.4973
 -82.5996
 -82.8495
 -84.5084
 -84.5821
 -84.609
 -84.6451
 -85.0585
 -85.0693
 -85.0509
 -84.8869
 -84.9276
 -84.9027
 -84.9318
 -57.4536
 -59.026
 -59.3394
 -58.4743
 -82.4906
 -82.4868
 -82.5121
 -82.5003
 -83.9902
 -83.9318
 -83.9917
 -84.113
 -73.5262
 -74.2575
 -72.7053
 -73.8627
 -85.2657
 -85.2612
 -85.2576
 -85.331
 -85.3293
 -85.3272
 -85.3291
 -85.2191
 -85.242
 -85.2319
 -85.2322
 -84.8729
 -85.0958
 -85.1128
 -85.1306
 -85.1144
 -84.7507
 -84.7936
 -84.7106
 -84.7256
 -81.2148
 -80.6309
 -81.0051
 -83.1895
 -83.2759
 -83.3108
 -83.0104
 -58.7815
 -57.37
 -58.6431
 -56.6242
 -75.9744
 -75.8959
 -76.4743
 -75.5642
 -83.8102
 -83.8138
 -83.9068
 -83.9993
 -85.3355
 -85.3306
 -85.3321
 -85.3306
 -62.1178
 -61.7051
 -63.3149
 -62.4568
 -85.1761
 -85.1859
 -85.1622
 -85.1754
 -84.9267
 -84.9292
 -84.9722
 -84.934
 -83.4662
 -83.116
 -83.0693
 -84.5537
 -84.4724
 -84.4199
 -84.4151
 -85.3337
 -85.3336
 -85.335
 -81.5547
 -82.0972
 -82.1985
 -84.6006
 -84.6607
 -84.739
 -84.7252
 -83.935
 -83.9063
 -83.8853
 -83.8252
 -84.1041
 -84.076
 -84.2134
 -84.2536
 -81.3618
 -81.1466
 -81.0948
 -81.543
 -84.5975
 -84.6506
 -84.57
 -84.6785
 -85.3066
 -85.295
 -85.2964
 -85.2913
 -85.2982
 -85.2947
 -85.2906
 -85.3003
 -80.9678
 -80.8861
 -81.131
 -80.8169
 -85.263
 -85.2625
 -85.2604
 -85.2538
 -85.3016
 -85.3075
 -85.3047
 -85.2983
 -85.2453
 -85.2482
 -85.234
 -85.2372
 -85.1206
 -85.1078
 -85.1289
 -85.1177
 -84.8018
 -84.7581
 -84.8377
 -83.8289
 -83.5884
 -83.7091
 -83.6928
 -85.2033
 -85.1926
 -85.1754
 -85.1896
 -85.2373
 -85.237
 -85.2457
 -85.242
 -85.3453
 -85.3449
 -85.3425
 -85.3436
 -76.6244
 -77.1737
 -76.9613
 -77.0754
 -80.6353
 -80.4982
 -80.5393
 -80.7184
 -81.4618
 -81.479
 -81.9827
 -81.461
 -83.8556
 -83.6773
 -83.8145
 -83.8253
 -84.2893
 -84.3105
 -84.3057
 -85.3067
 -85.3117
 -85.3171
 -85.3142
 -85.2487
 -85.2469
 -85.2425
 -85.2355
 -84.7447
 -84.6914
 -84.6737
 -84.7237
 -85.302
 -85.307
 -85.0396
 -85.047
 -85.0463
 -85.0106
 -85.3036
 -85.3066
 -85.3107
 -85.3052
 -84.9631
 -85.0114
 -84.9487
 -85.0198
 -83.7418
 -83.9145
 -83.6546
 -83.8286
 -79.5727
 -78.9643
 -79.4825
 -79.9103
 -57.2053
 -58.2883
 -56.4588
 -57.8581
 -85.2838
 -85.2791
 -85.2778
 -85.285
 -85.2836
 -85.2832
 -85.2855
 -85.29
 -84.4402
 -84.2988
 -84.4146
 -84.3636
 -84.8842
 -84.8568
 -84.8491
 -84.8931
 -83.2053
 -83.0387
 -83.3119
 -85.0062
 -84.9873
 -84.9865
 -84.9572
 -83.3578
 -83.3152
 -83.4113
 -83.4547
 -84.8165
 -84.7471
 -84.6981
 -84.7372
 -85.1334
 -85.1193
 -85.1308
 -85.1338
 -84.8988
 -84.878
 -84.8754
 -85.2504
 -85.2372
 -85.2445
 -85.245
 -85.056
 -85.0912
 -71.4481
 -72.7794
 -70.8115
 -71.7091
 -85.2204
 -85.214
 -85.2212
 -83.4466
 -83.4843
 -83.5317
 -83.3953
 -85.111
 -85.1156
 -85.1032
 -84.6739
 -84.6149
 -84.7052
 -84.6293
 -85.0592
 -85.0133
 -85.0702
 -85.0477
 -85.0467
 -85.0835
 -65.319
 -65.3518
 -64.576
 -65.0046
 -58.2191
 -57.0672
 -56.1964
 -57.5016
 -84.7962
 -84.7173
 -84.7431
 -84.708
 -85.0632
 -85.0428
 -85.0557
 -85.0247
 -65.3981
 -65.3914
 -65.3029
 -66.5111
 -83.4526
 -83.2617
 -80.9047
 -81.0692
 -81.074
 -81.3456
 -85.0787
 -85.0781
 -85.1133
 -85.0934
 -85.0281
 -85.0276
 -85.0594
 -85.0104
 -85.0393
 -85.0105
 -85.0075
 -85.004
 -84.0025
 -84.0417
 -84.1091
 -83.9988
 -82.5607
 -82.2893
 -82.1087
 -82.5716
 -76.3409
 -77.2856
 -77.1054
 -76.2074
 -82.9419
 -82.9721
 -82.9719
 -83.2714
 -85.214
 -85.2077
 -85.2229
 -85.2195
 -84.8021
 -84.6529
 -84.7415
 -75.3973
 -75.9665
 -76.7054
 -85.1444
 -85.1692
 -85.1611
 -85.1618
 -85.1571
 -85.1316
 -85.1407
 -85.1553
 -84.3955
 -84.3306
 -84.2917
 -84.6249
 -84.6652
 -84.7225
 -84.6446
 -82.9099
 -82.8053
 -82.7769
 -82.7873
 -85.2723
 -85.2694
 -85.276
 -85.2749
 -82.683
 -82.6513
 -82.6564
 -82.7064
 -81.9081
 -81.7647
 -81.9276
 -85.3209
 -85.3285
 -85.331
 -85.3265
 -85.2351
 -85.2441
 -83.7639
 -83.6665
 -83.8231
 -83.8178
 -84.7595
 -84.8272
 -84.7807
 -84.5905
 -84.5601
 -84.5765
 -84.4745
 -82.2274
 -82.5296
 -82.3429
 -85.259
 -85.2656
 -85.2521
 -85.254
 -82.1751
 -82.6042
 -82.2896
 -82.1811
 -85.1896
 -85.1766
 -85.1619
 -85.1635
 -82.7306
 -82.7984
 -82.6685
 -82.3995
 -82.5787
 -82.5021
 -83.6045
 -83.4891
 -83.5515
 -83.5871
 -76.6488
 -76.1129
 -75.2033
 -76.2208
 -85.2205
 -85.2328
 -84.1702
 -84.2404
 -84.2662
 -84.2528
 -85.3271
 -85.3257
 -85.3266
 -85.3286
 -83.9004
 -83.7397
 -83.8941
 -84.0567
 -85.2385
 -85.2501
 -85.252
 -85.2494
 -85.2962
 -85.3034
 -85.2932
 -85.2998
 -85.1786
 -85.155
 -85.3195
 -85.3233
 -85.3219
 -85.3201
 -82.3374
 -82.3709
 -82.1695
 -82.5289
 -85.3222
 -85.3228
 -85.3229
 -85.3219
 -85.3318
 -85.3363
 -85.3337
 -85.3314
 -84.943
 -84.9403
 -84.9825
 -84.9689
 -84.5757
 -84.5206
 -84.623
 -84.6684
 -85.2805
 -85.272
 -85.2791
 -85.2802
 -73.0014
 -74.0804
 -73.0437
 -72.9147
 -85.2745
 -85.2833
 -84.0956
 -84.1919
 -84.2193
 -84.3402
 -85.2845
 -85.2783
 -85.2731
 -85.2734
 -82.9497
 -83.1303
 -83.1029
 -83.0774
 -84.1467
 -83.9319
 -84.0217
 -84.1216
 -82.5816
 -82.5553
 -82.8932
 -82.8666
 -82.7725
 -82.8807
 -82.7273
 -82.348
 -82.5094
 -82.4327
 -82.5164
 -85.03
 -85.0001
 -84.9859
 -85.2704
 -85.2701
 -85.2794
 -85.2789
 -84.956
 -84.9312
 -84.8945
 -82.9463
 -82.8165
 -82.9339
 -84.7096
 -84.7824
 -84.712
 -84.7755
 -85.0953
 -85.0953
 -85.0895
 -85.121
 -84.452
 -84.537
 -84.5517
 -84.5282
 -84.501
 -84.47
 -84.4241
 -84.2312
 -84.1427
 -84.0941
 -84.211
 -84.3257
 -84.368
 -84.1798
 -85.2741
 -85.2745
 -85.2759
 -85.267
 -85.1077
 -85.0927
 -85.1123
 -85.1165
 -84.7074
 -84.6882
 -84.6443
 -84.759
 -81.5517
 -81.2383
 -81.6355
 -84.9654
 -84.9357
 -84.9566
 -84.973
 -83.5056
 -83.2546
 -83.4249
 -83.2677
 -68.2147
 -68.9968
 -68.151
 -67.7403
 -84.3478
 -84.2843
 -84.336
 -84.3246
 -85.2824
 -85.2797
 -85.2897
 -85.2867
 -84.1836
 -84.2836
 -84.2114
 -84.1456
 -82.6332
 -82.639
 -82.6807
 -82.7477
 -82.645
 -82.4868
 -82.518
 -84.5058
 -84.5205
 -84.4575
 -85.1075
 -84.1704
 -83.9134
 -84.0714
 -84.0567
 -85.301
 -85.3003
 -85.3035
 -85.2919
 -85.2932
 -85.296
 -84.0568
 -84.1666
 -84.0787
 -84.1461
 -85.3253
 -85.3282
 -85.33
 -85.3294
 -83.0872
 -85.0376
 -85.001
 -85.0279
 -85.0155
 -82.8251
 -82.9144
 -82.8847
 -82.913
 -85.2941
 -85.3001
 -85.2924
 -85.2955
 -85.0954
 -85.125
 -85.1216
 -85.0996
 -85.2272
 -85.2361
 -85.216
 -85.2235
 -82.3653
 -82.4475
 -82.4857
 -82.3728
 -83.8247
 -83.9402
 -83.8141
 -83.8493
 -84.9982
 -84.9668
 -84.9907
 -84.9466
 -83.7365
 -83.5396
 -83.773
 -83.6128
 -85.0818
 -85.0964
 -85.1197
 -85.1148
 -83.0972
 -83.0568
 -83.2451
 -83.2097
 -83.6066
 -83.607
 -83.769
 -83.7358
 -85.0072
 -85.0126
 -85.0173
 -85.0427
 -85.2866
 -85.2924
 -85.2892
 -85.2954
 -80.6522
 -81.0218
 -81.1234
 -81.251
 -76.3827
 -75.0718
 -76.4229
 -76.1728
 -85.3045
 -85.3114
 -85.3076
 -85.3059
 -78.2757
 -77.5774
 -77.2557
 -76.7051
 -76.3018
 -77.1464
 -84.7891
 -84.7964
 -84.747
 -84.7312
 -83.7344
 -83.8316
 -83.8248
 -83.7067
 -85.3448
 -85.3444
 -85.3449
 -85.3433
 -85.2959
 -85.2948
 -85.3017
 -85.077
 -85.0735
 -85.1024
 -85.075
 -82.8941
 -82.9345
 -82.7545
 -82.9953
 -83.6389
 -83.6048
 -83.5679
 -83.5419
 -83.6558
 -83.7254
 -85.0946
 -85.1386
 -85.1241
 -85.1068
 -85.0504
 -85.0445
 -85.0135
 -85.0559
 -85.1224
 -85.1113
 -85.0986
 -85.1195
 -85.33
 -85.3296
 -85.3239
 -85.3322
 -85.1823
 -85.1756
 -85.1627
 -84.2923
 -84.8553
 -84.8231
 -84.8302
 -84.794
 -84.9011
 -84.8331
 -84.8592
 -84.9124
 -85.2688
 -85.268
 -85.2651
 -85.2607
 -85.1879
 -85.1738
 -85.1797
 -85.1898
 -85.0679
 -85.041
 -85.0329
 -83.963
 -83.7504
 -83.9293
 -83.7418
 -84.8298
 -84.8992
 -84.8716
 -84.8515
 -84.2874
 -84.3724
 -84.2329
 -61.5308
 -61.3611
 -60.4538
 -61.9897
 -85.2685
 -85.2845
 -85.2774
 -85.2561
 -85.2395
 -85.2585
 -85.2482
 -63.917
 -84.9335
 -84.9316
 -84.9252
 -84.9704
 -85.0634
 -85.0662
 -80.1977
 -80.2005
 -80.1154
 -80.332
 -81.4986
 -81.6139
 -82.0665
 -81.508
 -83.1415
 -83.26
 -83.0819
 -83.4298
 -83.2603
 -83.3629
 -83.4077
 -83.2324
 -83.2188
 -83.3365
 -84.171
 -84.0135
 -83.9595
 -84.0229
 -84.3474
 -84.4764
 -85.3434
 -85.3424
 -82.3433
 -82.7448
 -82.2595
 -82.5397
 -84.5635
 -84.5327
 -84.6257
 -84.5114
 -80.1775
 -80.4588
 -79.666
 -79.7232
 -85.2821
 -85.2866
 -85.2768
 -85.2812
 -85.2251
 -85.2137
 -85.2228
 -85.2125
 -85.0737
 -85.1006
 -85.1012
 -85.0831
 -85.0027
 -85.0166
 -85.064
 -85.0509
 -84.7915
 -84.7705
 -82.393
 -85.1716
 -85.1862
 -85.1893
 -85.1886
 -85.3196
 -85.3168
 -85.3236
 -85.3162
 -85.2478
 -85.2573
 -85.2426
 -85.2487
 -52.0746
 -51.9957
 -52.1671
 -52.4269
 -85.3265
 -85.328
 -85.327
 -85.3272
 -83.3891
 -83.3678
 -83.2033
 -83.4589
 -84.08
 -83.8992
 -83.9759
 -83.8461
 -85.1675
 -85.17
 -85.1778
 -85.1845
 -85.1808
 -85.172
 -85.1642
 -85.17
 -82.8221
 -83.0663
 -82.924
 -83.019
 -85.326
 -85.327
 -85.3254
 -85.3262
 -85.2877
 -85.29
 -85.2891
 -85.2927
 -85.1528
 -85.1537
 -85.1683
 -85.1713
 -85.2784
 -85.2702
 -85.2776
 -85.2767
 -83.5488
 -83.7508
 -83.7605
 -83.7849
 -82.898
 -82.9181
 -83.0041
 -83.0105
 -85.2726
 -85.2692
 -85.2641
 -85.2663
 -84.5477
 -84.476
 -84.4913
 -84.3946
 -84.5337
 -84.4925
 -84.4685
 -84.5209
 -59.2214
 -60.3824
 -60.3489
 -60.5177
 -85.322
 -85.3234
 -85.2927
 -85.2921
 -85.2889
 -85.2968
 -81.0174
 -80.7557
 -80.6257
 -81.0677
 -83.8428
 -83.601
 -83.5843
 -83.5161
 -85.2886
 -85.2838
 -85.2942
 -85.2935
 -84.5047
 -84.5306
 -84.4758
 -84.5819
 -84.1009
 -84.1387
 -84.0002
 -84.0126
 -85.3272
 -85.3289
 -85.3266
 -85.3274
 -84.9415
 -84.9226
 -84.9382
 -84.957
 -84.8072
 -84.8241
 -84.814
 -84.7656
 -85.2396
 -85.2433
 -85.2466
 -85.2355
 -85.1016
 -85.084
 -85.0811
 -85.0633
 -84.4354
 -84.4301
 -84.3101
 -83.857
 -83.9947
 -83.9155
 -84.1392
 -78.2073
 -77.5596
 -77.7988
 -78.7307
 -84.0001
 -84.0673
 -84.0932
 -84.1124
 -84.9048
 -84.8727
 -84.89
 -84.8596
 -85.3168
 -85.3191
 -85.3191
 -85.3129
 -84.1404
 -84.3313
 -84.2384
 -84.1987
 -80.8605
 -80.7965
 -80.3967
 -80.0171
 -85.1383
 -85.1657
 -85.155
 -85.1435
 -85.0341
 -85.0168
 -85.0024
 -84.8693
 -84.9229
 -84.9492
 -84.9594
 -76.6628
 -76.3994
 -76.5101
 -77.1772
 -84.949
 -84.915
 -84.921
 -84.9084
 -85.3243
 -85.324
 -85.3245
 -85.3246
 -84.905
 -84.8744
 -84.9174
 -84.9001
 -82.134
 -81.9768
 -82.1118
 -82.1526
 -83.1585
 -83.3053
 -83.1693
 -82.9921
 -85.3428
 -85.3414
 -85.3426
 -85.3421
 -83.534
 -83.5968
 -83.5604
 -83.2396
 -85.0476
 -85.0063
 -85.0125
 -85.0353
 -85.3435
 -85.3445
 -85.3429
 -85.3416
 -85.2987
 -85.308
 -85.3021
 -85.1485
 -85.1544
 -85.1716
 -85.1785
 -85.2675
 -85.2732
 -85.2801
 -85.2648
 -69.3032
 -70.327
 -71.0301
 -70.6783
 -82.6842
 -82.9364
 -82.4356
 -85.3066
 -85.311
 -85.3096
 -85.3123
 -85.0458
 -85.0302
 -85.0641
 -85.0163
 -85.2086
 -85.2073
 -85.2234
 -85.1946
 -81.0178
 -80.9374
 -80.5719
 -80.5068
 -84.4761
 -84.6041
 -84.4709
 -84.5548
 -85.0803
 -85.0295
 -85.0572
 -80.8522
 -80.9425
 -81.0716
 -81.068
 -83.0482
 -82.2344
 -82.3767
 -82.2907
 -84.2367
 -85.309
 -85.3135
 -85.3088
 -85.313
 -70.6748
 -70.4545
 -69.3907
 -69.5843
 -85.23
 -85.2509
 -85.2416
 -85.2537
 -85.067
 -85.0455
 -85.0382
 -85.0068
 -62.6313
 -85.2544
 -85.2482
 -85.2603
 -85.309
 -85.3158
 -85.3104
 -85.3114
 -84.7055
 -84.6834
 -84.8034
 -84.7299
 -85.1521
 -85.1521
 -85.1684
 -85.1405
 -83.3543
 -83.1935
 -84.8069
 -84.7788
 -84.764
 -84.8223
 -83.3074
 -83.1626
 -83.0232
 -83.1677
 -83.8539
 -83.8077
 -84.0011
 -84.0179
 -85.1836
 -85.1688
 -85.1823
 -85.1832
 -73.7047
 -73.4842
 -73.3449
 -74.6257
 -82.9461
 -82.8613
 -82.9357
 -82.8244
 -76.1656
 -76.6298
 -82.1075
 -82.1543
 -82.1605
 -82.1093
 -81.404
 -81.109
 -81.4842
 -81.1918
 -85.3263
 -85.3238
 -85.32
 -85.3198
 -85.0047
 -84.9927
 -84.9774
 -85.026
 -84.3562
 -84.5149
 -84.4146
 -84.4325
 -84.799
 -84.7709
 -84.7534
 -84.8082
 -85.3144
 -85.313
 -80.7847
 -80.6385
 -80.6758
 -80.7819
 -85.3141
 -85.3147
 -85.3104
 -72.0067
 -71.9595
 -71.9171
 -71.455
 -85.2987
 -85.2874
 -85.2955
 -85.2926
 -83.8699
 -83.7636
 -83.917
 -83.7331
 -84.6423
 -84.6209
 -84.6015
 -85.3034
 -85.2991
 -85.3019
 -85.3046
 -85.0041
 -84.9617
 -84.9998
 -84.98
 -84.6189
 -84.6705
 -84.7011
 -84.6515
 -83.8874
 -83.8318
 -84.3162
 -84.0875
 -84.2193
 -84.1792
 -85.0686
 -85.0304
 -85.0538
 -85.3216
 -85.3168
 -85.3155
 -85.3223
 -84.6133
 -84.6585
 -84.6016
 -84.6387
 -84.4168
 -84.3439
 -83.7334
 -83.6003
 -83.5384
 -83.7429
 -75.3428
 -75.5382
 -76.5287
 -85.0333
 -85.0411
 -84.9921
 -84.9933
 -85.3238
 -85.3248
 -85.3242
 -75.8147
 -75.7865
 -75.861
 -84.4679
 -84.4223
 -84.4584
 -84.3709
 -85.125
 -85.1316
 -85.1059
 -85.1148
 -68.8999
 -68.1874
 -68.5504
 -69.0614
 -85.2823
 -85.2851
 -85.2818
 -85.28
 -85.1371
 -85.1307
 -85.1311
 -85.1127
 -85.2356
 -85.2379
 -85.231
 -85.3033
 -85.3057
 -85.3109
 -85.3056
 -84.8456
 -84.767
 -84.8336
 -84.8538
 -85.3162
 -85.3136
 -85.3137
 -85.3114
 -84.034
 -84.0201
 -84.1017
 -83.9413
 -85.3206
 -85.1145
 -84.776
 -84.7623
 -84.8146
 -84.7439
 -85.0548
 -85.0392
 -85.0277
 -85.0164
 -85.2006
 -85.2013
 -85.1904
 -85.1835
 -85.0854
 -85.0796
 -85.1047
 -85.0906
 -85.2007
 -85.1905
 -85.1993
 -85.2
 -84.7786
 -84.7379
 -84.7418
 -84.8023
 -84.6382
 -84.6405
 -84.6604
 -84.6962
 -84.4005
 -84.358
 -84.3311
 -84.4391
 -84.6384
 -84.63
 -84.5689
 -82.6917
 -82.7204
 -82.6984
 -82.8344
 -84.8614
 -85.1289
 -85.1477
 -85.1521
 -85.1523
 -85.3163
 -85.3167
 -85.3093
 -83.6624
 -83.3804
 -83.4484
 -83.3786
 -84.9159
 -84.9679
 -84.9463
 -85.0679
 -85.0452
 -85.0452
 -85.0224
 -85.1339
 -85.1489
 -85.1628
 -85.1716
 -85.2923
 -85.2956
 -85.3015
 -85.2948
 -83.2644
 -83.239
 -83.3437
 -83.09
 -84.8807
 -84.8555
 -84.8671
 -84.8171
 -84.71
 -84.697
 -84.6316
 -84.735
 -84.6533
 -84.626
 -84.5971
 -84.5459
 -84.8124
 -84.8001
 -84.8354
 -84.7637
 -85.1799
 -85.155
 -85.1883
 -85.1654
 -84.6217
 -84.5052
 -84.5504
 -84.5843
 -80.6869
 -80.6977
 -80.6766
 -80.7815
 -77.8604
 -78.2056
 -77.925
 -84.7989
 -84.8137
 -84.8515
 -84.8749
 -84.8355
 -84.8172
 -84.861
 -84.8932
 -84.6257
 -84.5634
 -84.6786
 -84.6587
 -85.3049
 -85.3067
 -85.2981
 -85.2984
 -85.206
 -85.1945
 -85.1875
 -85.1992
 -83.6601
 -83.7694
 -83.7279
 -83.7715
 -81.5949
 -82.1056
 -81.9533
 -81.3397
 -85.2921
 -85.2884
 -85.2841
 -85.2918
 -71.7864
 -70.3866
 -70.6864
 -72.1679
 -84.0753
 -84.1866
 -84.1248
 -84.1127
 -81.4316
 -81.5699
 -81.537
 -83.0221
 -83.1125
 -83.1649
 -83.3586
 -85.1735
 -85.1727
 -85.1869
 -85.1537
 -82.6671
 -82.4748
 -82.4562
 -82.6781
 -77.9326
 -79.4114
 -78.4566
 -68.8144
 -70.0064
 -70.5577
 -69.7277
 -85.3333
 -85.3348
 -85.3345
 -85.3381
 -83.5439
 -83.4224
 -83.5071
 -83.5918
 -84.9932
 -84.9423
 -84.9586
 -84.9746
 -85.2997
 -85.2987
 -85.2925
 -85.298
 -85.2551
 -85.2624
 -85.2515
 -85.2531
 -83.6186
 -83.6923
 -83.5566
 -83.6215
 -80.0553
 -79.4052
 -78.746
 -79.5467
 -84.9829
 -85.0037
 -84.9582
 -84.9792
 -80.8296
 -81.233
 -84.4318
 -84.2499
 -84.3038
 -84.387
 -84.4527
 -84.4459
 -84.3898
 -84.4815
 -84.2794
 -84.288
 -84.232
 -82.1939
 -82.2988
 -82.2036
 -84.9898
 -84.9929
 -85.0107
 -85.0159
 -84.9796
 -84.9717
 -84.9547
 -85.0097
 -83.6365
 -83.7897
 -83.7009
 -83.663
 -85.2108
 -85.2191
 -85.2043
 -85.2062
 -84.7627
 -84.6745
 -84.7192
 -84.7766
 -82.6107
 -82.607
 -82.581
 -82.6014
 -84.3228
 -84.4437
 -84.3459
 -85.0329
 -85.026
 -85.0003
 -85.015
 -84.8578
 -84.8987
 -84.9126
 -85.3297
 -85.3298
 -85.3278
 -85.3269
 -76.8511
 -76.2847
 -77.0156
 -75.6535
 -84.1218
 -84.219
 -84.229
 -84.136
 -83.8824
 -83.8558
 -83.741
 -83.9029
 -85.3308
 -85.3304
 -85.336
 -85.3386
 -85.2496
 -85.2551
 -85.2528
 -82.9535
 -83.0206
 -82.8089
 -83.0408
 -85.2151
 -85.2033
 -85.2075
 -83.5584
 -83.595
 -83.4694
 -83.5049
 -56.5103
 -57.168
 -56.9271
 -57.5199
 -85.3062
 -85.3075
 -85.3123
 -85.3039
 -82.2502
 -82.1626
 -82.0406
 -81.8561
 -85.3292
 -85.3288
 -85.328
 -85.3283
 -82.8501
 -83.0603
 -82.8744
 -83.0221
 -57.9599
 -56.3731
 -57.4157
 -57.6845
 -79.0349
 -78.6365
 -79.1068
 -79.1476
 -82.4215
 -82.5645
 -82.7344
 -82.3771
 -84.6804
 -84.6083
 -81.3864
 -81.5691
 -80.8304
 -80.8939
 -85.0729
 -85.0523
 -85.0458
 -85.0235
 -84.6524
 -84.6484
 -84.6454
 -84.7367
 -85.2997
 -85.2926
 -85.3029
 -85.3042
 -85.2777
 -85.2764
 -85.2853
 -85.2815
 -85.26
 -85.2467
 -85.2573
 -85.2515
 -85.2968
 -85.2977
 -85.3001
 -85.2945
 -85.1169
 -85.1201
 -85.1341
 -85.1224
 -85.266
 -85.274
 -85.2724
 -85.2708
 -77.7163
 -76.5628
 -76.4893
 -77.7106
 -85.2757
 -85.2809
 -85.2814
 -85.2801
 -84.3837
 -84.2923
 -84.2021
 -84.2465
 -85.2327
 -85.2136
 -85.2149
 -85.2839
 -85.289
 -85.2914
 -85.2892
 -82.2184
 -81.8847
 -81.8769
 -82.0294
 -79.6753
 -79.5666
 -79.3479
 -79.4293
 -85.1607
 -85.16
 -85.152
 -85.18
 -84.3135
 -84.3245
 -84.3266
 -84.2126
 -85.1453
 -85.1386
 -85.1439
 -85.1335
 -85.1312
 -85.129
 -85.1673
 -84.174
 -84.1416
 -84.05
 -85.1168
 -85.1345
 -84.9267
 -84.8703
 -85.319
 -85.3224
 -85.3226
 -85.319
 -84.8299
 -84.8357
 -84.7996
 -84.8597
 -85.0993
 -85.1036
 -85.1302
 -85.0996
 -85.0471
 -85.0601
 -85.0426
 -85.068
 -85.2683
 -85.2258
 -85.2268
 -85.2178
 -85.2149
 -84.554
 -84.5931
 -84.5042
 -84.508
 -81.7816
 -81.7828
 -81.7715
 -81.7598
 -85.0919
 -85.0749
 -85.1009
 -85.0895
 -85.1561
 -85.155
 -85.1418
 -85.1693
 -61.2543
 -62.3031
 -62.717
 -63.345
 -84.7712
 -84.8253
 -84.7994
 -84.7499
 -84.6603
 -84.6026
 -84.5695
 -84.62
 -85.1084
 -85.0924
 -82.7688
 -82.7996
 -82.868
 -82.7785
 -84.0186
 -84.0866
 -84.074
 -84.0079
 -83.0565
 -82.973
 -82.9363
 -82.9515
 -83.726
 -83.819
 -83.8085
 -83.6982
 -82.8084
 -82.7851
 -82.6849
 -82.8177
 -85.2584
 -85.2512
 -85.2513
 -85.2585
 -85.2736
 -85.2688
 -85.2613
 -85.2671
 -83.5956
 -83.5055
 -83.4078
 -83.5654
 -84.8082
 -84.7725
 -84.8111
 -84.766
 -85.2613
 -85.2532
 -85.2622
 -85.2579
 -84.5797
 -84.5057
 -84.5027
 -84.6247
 -83.4758
 -83.6262
 -80.7071
 -80.8966
 -80.9685
 -80.6306
 -84.7464
 -84.7249
 -84.6509
 -84.6293
 -85.2553
 -85.25
 -85.2502
 -85.2644
 -85.3221
 -85.3182
 -85.3194
 -85.3224
 -64.1885
 -63.9152
 -84.283
 -84.4063
 -84.387
 -84.4791
 -84.097
 -83.9186
 -84.0342
 -84.0456
 -84.0337
 -84.0314
 -83.0649
 -83.1132
 -83.1409
 -83.1483
 -84.6622
 -84.7124
 -84.7568
 -77.4818
 -78.009
 -78.0279
 -78.4404
 -85.2837
 -85.2894
 -85.2764
 -85.2847
 -85.3232
 -85.3229
 -85.3216
 -85.3322
 -85.3306
 -85.3257
 -85.3293
 -85.0142
 -85.0531
 -85.0527
 -85.0471
 -84.7738
 -84.8521
 -84.7572
 -84.8239
 -85.2132
 -85.2315
 -85.2352
 -85.2283
 -85.0711
 -85.0549
 -85.0841
 -85.0612
 -85.0401
 -85.0608
 -85.0408
 -84.9079
 -84.9136
 -84.8876
 -84.9497
 -85.188
 -85.2191
 -85.208
 -85.1908
 -84.5412
 -84.4609
 -84.5121
 -84.53
 -84.8258
 -84.8044
 -84.8818
 -84.8077
 -85.1471
 -85.1413
 -85.1286
 -85.1447
 -84.8001
 -84.7724
 -84.7565
 -84.815
 -58.4505
 -58.0193
 -59.7011
 -59.5581
 -83.3322
 -83.2624
 -83.2314
 -83.1378
 -85.1873
 -85.1826
 -85.2045
 -85.2069
 -82.6897
 -82.678
 -82.2659
 -82.1843
 -81.922
 -81.4768
 -81.9437
 -82.2148
 -85.2591
 -85.2551
 -85.2593
 -85.2484
 -85.2309
 -85.2165
 -85.2313
 -85.2257
 -85.2847
 -85.2771
 -85.2817
 -85.2872
 -85.1789
 -85.1813
 -85.1969
 -85.1865
 -84.3308
 -84.267
 -84.2206
 -84.258
 -83.4673
 -83.3991
 -83.5399
 -83.3553
 -85.1478
 -85.1145
 -85.153
 -85.1242
 -83.5146
 -83.5763
 -83.5869
 -83.5837
 -81.2862
 -81.3704
 -81.476
 -81.575
 -84.7559
 -84.8079
 -84.7612
 -84.8026
 -84.1035
 -84.0155
 -83.9277
 -84.203
 -84.2731
 -84.4165
 -84.324
 -80.9501
 -80.6855
 -80.3382
 -80.7019
 -83.554
 -83.5246
 -83.4791
 -83.481
 -85.1827
 -85.1928
 -85.1837
 -85.1862
 -84.8807
 -84.9216
 -84.9343
 -85.3377
 -85.3344
 -85.3352
 -85.3366
 -85.2995
 -85.3041
 -85.3085
 -85.3016
 -84.0397
 -84.153
 -83.9746
 -84.1381
 -84.8874
 -84.9244
 -81.0731
 -81.0231
 -80.5086
 -81.2629
 -84.8684
 -84.8019
 -84.7943
 -84.8502
 -85.273
 -85.2758
 -85.2683
 -85.2763
 -83.36
 -83.406
 -83.4353
 -84.4511
 -84.4951
 -84.4974
 -84.3635
 -84.0589
 -84.1956
 -84.2168
 -84.2055
 -84.7435
 -84.7983
 -84.8136
 -84.7482
 -84.5063
 -84.558
 -84.6144
 -84.5518
 -84.7823
 -84.7915
 -84.744
 -84.8288
 -84.4574
 -84.5186
 -85.2293
 -85.2166
 -85.2334
 -85.2249
 -84.4874
 -84.4175
 -84.4416
 -84.4975
 -85.0381
 -84.9982
 -85.0263
 -84.4815
 -84.5589
 -84.4929
 -84.5445
 -85.0775
 -85.0605
 -85.0422
 -85.0635
 -82.8618
 -82.635
 -82.8021
 -82.491
 -84.5919
 -84.5722
 -84.6741
 -84.9728
 -84.9861
 -85.0173
 -84.9502
 -84.7278
 -84.7072
 -84.7542
 -83.0147
 -83.0595
 -82.9152
 -85.0822
 -85.0755
 -85.0726
 -85.0386
 -84.6827
 -84.7225
 -84.7447
 -66.5867
 -67.076
 -67.4187
 -65.4018
 -85.0693
 -85.0483
 -85.0295
 -85.0728
 -84.1864
 -84.079
 -84.1017
 -84.039
 -85.2618
 -85.2617
 -85.266
 -85.2679
 -85.2825
 -85.2756
 -85.2863
 -85.2845
 -81.6811
 -82.1626
 -81.5029
 -81.6548
 -84.9739
 -84.9499
 -84.9154
 -83.6003
 -83.4395
 -83.58
 -83.5547
 -85.2645
 -85.2533
 -85.2609
 -84.8413
 -84.8924
 -84.8589
 -84.8956
 -85.1735
 -85.1815
 -85.1793
 -85.172
 -85.3032
 -85.3029
 -85.3081
 -85.3026
 -53.1665
 -52.586
 -52.6736
 -53.1206
 -83.7582
 -83.8036
 -83.8812
 -83.7378
 -84.8856
 -84.9605
 -84.9316
 -84.9586
 -79.9417
 -79.5525
 -79.1948
 -84.6869
 -84.7427
 -84.7343
 -84.6682
 -85.3089
 -85.1201
 -85.0959
 -85.0786
 -85.1068
 -85.2746
 -85.2745
 -85.2746
 -85.2786
 -85.2225
 -85.2215
 -85.2182
 -85.2309
 -84.9494
 -84.9385
 -84.8223
 -84.7589
 -84.7735
 -84.7556
 -67.354
 -68.8056
 -67.4629
 -68.125
 -84.0233
 -83.979
 -83.918
 -83.8142
 -83.7848
 -83.8998
 -83.8268
 -85.3172
 -85.322
 -85.3191
 -85.3169
 -84.7501
 -84.7497
 -84.8036
 -84.8143
 -84.8608
 -84.8381
 -84.7941
 -84.8296
 -85.2785
 -85.2708
 -85.2831
 -85.2722
 -84.7905
 -84.7745
 -84.848
 -84.822
 -76.5858
 -76.6437
 -75.7943
 -76.1088
 -84.6807
 -84.6613
 -84.7134
 -84.6816
 -83.6723
 -83.6897
 -83.7154
 -83.81
 -83.3181
 -83.157
 -83.1469
 -83.2347
 -81.8882
 -81.9924
 -81.877
 -81.8255
 -74.8435
 -74.5309
 -74.0648
 -75.4144
 -85.3247
 -85.3232
 -85.3238
 -85.3226
 -70.7696
 -71.1695
 -69.7849
 -71.3997
 -84.7705
 -84.7234
 -84.7662
 -84.7141
 -85.3215
 -85.3232
 -85.318
 -85.3201
 -84.3577
 -84.311
 -84.3865
 -84.3925
 -81.6795
 -85.2958
 -85.292
 -85.2936
 -85.3019
 -82.6793
 -76.1191
 -77.2509
 -77.2179
 -76.094
 -85.0058
 -85.0514
 -85.2253
 -85.2102
 -85.2329
 -85.2152
 -85.2502
 -85.2516
 -85.2584
 -85.2561
 -85.3331
 -85.3293
 -85.3349
 -85.2324
 -85.2469
 -85.2414
 -85.2383
 -84.3263
 -85.3171
 -85.1517
 -85.1504
 -85.1409
 -85.3237
 -85.3258
 -85.3267
 -85.3251
 -84.4382
 -84.4097
 -84.4311
 -84.348
 -83.5822
 -83.6662
 -83.4469
 -83.4403
 -85.1072
 -85.0967
 -85.1085
 -85.1394
 -85.3078
 -85.3104
 -85.3046
 -85.3017
 -85.2929
 -85.291
 -85.2937
 -85.2904
 -85.016
 -85.0665
 -85.0624
 -73.3177
 -72.4508
 -74.837
 -73.097
 -54.5732
 -56.0165
 -55.1962
 -55.6806
 -79.3291
 -78.592
 -78.2841
 -78.8025
 -84.8303
 -84.8799
 -84.8364
 -76.8745
 -77.4988
 -77.243
 -76.8533
 -85.2246
 -85.2201
 -85.2339
 -85.2592
 -85.2591
 -85.2539
 -85.259
 -82.6428
 -82.5479
 -85.1704
 -85.1687
 -85.345
 -85.3435
 -85.345
 -85.3273
 -85.3301
 -85.3291
 -85.3307
 -84.5063
 -84.4451
 -84.5664
 -84.5156
 -83.9547
 -83.9288
 -83.8572
 -84.0277
 -84.7187
 -84.7263
 -84.7951
 -84.762
 -85.3264
 -85.3258
 -85.3275
 -85.3262
 -85.1738
 -85.1864
 -85.1812
 -85.1693
 -81.5598
 -81.5132
 -81.5556
 -81.7314
 -85.1694
 -85.1786
 -85.1638
 -85.1823
 -84.9855
 -84.9974
 -84.9529
 -85.0019
 -85.1225
 -85.1314
 -85.1334
 -51.6764
 -51.8135
 -51.9283
 -83.7715
 -83.6704
 -84.4272
 -84.4221
 -84.3471
 -84.485
 -85.2286
 -85.242
 -85.232
 -85.228
 -85.1705
 -85.1774
 -85.1979
 -85.1913
 -85.1899
 -85.1815
 -85.209
 -68.3011
 -68.3566
 -81.5754
 -81.4975
 -81.6649
 -81.6036
 -84.9594
 -67.844
 -66.3961
 -66.8903
 -67.0637
 -83.6292
 -83.8024
 -83.7013
 -83.6716
 -84.5979
 -84.5366
 -75.3157
 -76.9846
 -76.8102
 -75.8805
 -85.3243
 -85.3285
 -85.328
 -85.3247
 -85.2994
 -85.3037
 -85.302
 -85.3068
 -82.339
 -82.8588
 -82.4606
 -82.7095
 -83.7954
 -83.7213
 -84.0044
 -83.9637
 -83.8953
 -83.8453
 -83.9013
 -85.2029
 -85.2161
 -85.1908
 -85.2029
 -81.3411
 -81.6897
 -81.8509
 -81.8699
 -84.7099
 -84.7024
 -84.6988
 -85.118
 -85.1278
 -85.1336
 -85.1535
 -83.8214
 -83.8627
 -83.9264
 -83.8857
 -83.0345
 -83.2084
 -83.3525
 -83.1275
 -83.387
 -83.2792
 -83.3173
 -83.4502
 -84.2775
 -84.2827
 -84.4179
 -84.344
 -85.0619
 -85.047
 -83.6695
 -83.6848
 -83.7055
 -83.5758
 -85.3309
 -85.324
 -85.326
 -85.3261
 -83.0963
 -83.2053
 -83.1202
 -83.2281
 -79.498
 -79.2706
 -79.8203
 -79.6659
 -84.9836
 -84.9641
 -73.0845
 -73.0171
 -72.302
 -73.2585
 -84.0345
 -84.18
 -83.9685
 -85.3171
 -85.3176
 -85.3203
 -85.3196
 -74.461
 -73.7481
 -74.1321
 -83.2145
 -83.1794
 -83.3287
 -83.2661
 -75.0115
 -82.9619
 -82.851
 -82.9166
 -82.6944
 -84.749
 -84.7019
 -84.7636
 -84.7733
 -84.3486
 -84.3688
 -84.4191
 -84.3431
 -85.3206
 -85.3255
 -84.9249
 -84.9566
 -84.946
 -84.9267
 -82.4019
 -81.9669
 -82.4555
 -81.9478
 -83.9528
 -84.1855
 -84.0535
 -83.9843
 -85.2921
 -85.2889
 -85.2886
 -85.2908
 -84.4894
 -84.5536
 -84.6216
 -84.5761
 -84.9993
 -85.2564
 -85.2571
 -85.25
 -83.939
 -83.9866
 -83.8334
 -84.001
 -85.1672
 -85.1589
 -85.1651
 -85.1501
 -84.0954
 -83.9388
 -84.0206
 -84.1178
 -85.3178
 -85.3146
 -85.3118
 -85.3172
 -85.3411
 -85.3422
 -85.3403
 -83.3031
 -83.3796
 -83.529
 -83.4475
 -85.0729
 -85.0702
 -85.0414
 -85.0595
 -85.1286
 -85.1404
 -85.1481
 -85.1542
 -83.58
 -83.6369
 -82.8461
 -82.7785
 -82.684
 -82.9526
 -84.2935
 -84.4619
 -84.9389
 -84.9623
 -84.9399
 -84.9237
 -85.0323
 -85.0415
 -85.0689
 -85.0385
 -84.2115
 -84.3329
 -84.3879
 -84.3018
 -84.894
 -84.893
 -84.8952
 -85.2718
 -85.265
 -85.2602
 -85.2666
 -85.2173
 -85.2113
 -85.2178
 -84.3108
 -84.414
 -84.2321
 -84.375
 -83.0871
 -82.7716
 -82.6428
 -83.0184
 -85.1519
 -85.1233
 -85.1281
 -85.1421
 -84.4479
 -84.4291
 -84.3039
 -82.4319
 -82.4101
 -82.4335
 -82.4175
 -83.7886
 -83.7884
 -83.8359
 -83.8727
 -85.2467
 -85.2374
 -85.2349
 -85.3333
 -85.3288
 -85.3305
 -85.1281
 -85.1391
 -85.1436
 -83.7908
 -83.6582
 -83.8455
 -83.7438
 -85.336
 -85.337
 -85.336
 -85.3377
 -85.1082
 -85.0898
 -85.1005
 -85.1195
 -85.2608
 -85.2645
 -85.2724
 -85.2739
 -85.2497
 -85.2565
 -85.2517
 -85.2528
 -78.2628
 -77.2534
 -77.577
 -84.214
 -84.2437
 -84.1743
 -84.2497
 -85.267
 -85.2693
 -85.2623
 -85.2627
 -84.612
 -84.6392
 -84.6349
 -84.7059
 -85.1668
 -85.1683
 -85.1681
 -85.1503
 -85.2849
 -85.2911
 -81.4647
 -81.6814
 -81.6456
 -81.7866
 -85.1982
 -85.1854
 -85.2118
 -85.1957
 -84.3434
 -84.3235
 -84.2685
 -84.3809
 -85.1336
 -85.0955
 -85.326
 -85.3258
 -85.3209
 -85.3262
 -85.253
 -85.2659
 -85.2482
 -85.2677
 -85.3353
 -85.3367
 -85.34
 -85.3402
 -85.2103
 -85.2122
 -85.2186
 -85.1319
 -85.1545
 -85.1586
 -85.1442
 -85.1449
 -85.1361
 -85.1454
 -85.1204
 -83.5718
 -83.6081
 -83.4933
 -83.4381
 -76.8913
 -76.5722
 -77.4648
 -84.769
 -84.7612
 -84.7775
 -85.2691
 -85.2595
 -85.2644
 -85.2574
 -84.3007
 -84.3648
 -84.4439
 -84.3681
 -82.6899
 -82.2918
 -82.392
 -82.7402
 -84.8223
 -84.7742
 -84.7235
 -84.744
 -83.9846
 -84.1845
 -84.0026
 -85.3284
 -85.3298
 -85.3239
 -85.3231
 -81.7802
 -81.8478
 -82.8955
 -82.9992
 -83.009
 -85.1872
 -85.1939
 -85.1756
 -85.2038
 -84.7482
 -84.8359
 -84.802
 -84.8191
 -82.4415
 -82.4932
 -82.6584
 -82.4811
 -84.9017
 -84.8006
 -84.8242
 -84.8618
 -84.0002
 -83.8785
 -84.0784
 -84.0774
 -85.2883
 -85.2925
 -85.3024
 -83.8437
 -83.8516
 -83.9279
 -83.9245
 -84.8804
 -84.9176
 -82.1567
 -82.3999
 -82.2501
 -82.1984
 -82.5868
 -82.3445
 -82.4897
 -82.3833
 -85.2914
 -85.2898
 -82.9241
 -83.1329
 -82.9902
 -82.7894
 -84.8311
 -84.7831
 -84.8039
 -84.8413
 -84.2075
 -79.1498
 -78.4333
 -78.6856
 -84.9938
 -84.9815
 -84.9808
 -84.954
 -85.3046
 -85.3052
 -85.3024
 -85.308
 -77.9875
 -78.4765
 -78.399
 -77.6324
 -82.9671
 -83.0779
 -82.9162
 -82.9615
 -85.097
 -85.099
 -85.0995
 -78.9443
 -78.7509
 -79.3593
 -79.3586
 -85.3331
 -85.3296
 -85.3302
 -85.334
 -81.4064
 -81.5545
 -81.6189
 -81.2631
 -85.1011
 -85.0764
 -85.0921
 -85.1104
 -84.3025
 -84.3857
 -84.3476
 -84.2762
 -82.3245
 -82.4094
 -82.3197
 -84.0278
 -84.1476
 -84.0332
 -84.132
 -82.7244
 -82.5824
 -82.6835
 -82.682
 -82.7658
 -82.6078
 -82.6306
 -85.2259
 -85.2103
 -85.228
 -85.1911
 -85.179
 -84.6579
 -84.7747
 -84.6894
 -84.6978
 -85.316
 -85.3141
 -85.3102
 -85.3139
 -84.9989
 -85.0408
 -84.9717
 -85.026
 -85.0513
 -85.0726
 -85.0483
 -85.0486
 -82.9506
 -82.8824
 -83.0507
 -82.9681
 -82.8601
 -85.106
 -85.0672
 -85.0937
 -85.1108
 -85.3126
 -85.3193
 -84.8431
 -84.8619
 -84.7973
 -84.8663
 -82.537
 -82.5089
 -82.6241
 -85.2845
 -85.2912
 -85.2823
 -85.2856
 -84.8825
 -84.798
 -84.8383
 -84.8459
 -82.8921
 -82.8149
 -82.9083
 -82.9649
 -84.6909
 -84.6895
 -84.7817
 -84.7118
 -85.0634
 -85.108
 -80.999
 -80.8585
 -80.9246
 -80.7782
 -82.5792
 -83.0369
 -83.2029
 -83.1364
 -83.2967
 -83.2176
 -82.9531
 -82.6361
 -82.6318
 -82.8298
 -84.8757
 -84.847
 -84.8535
 -84.9819
 -84.9712
 -84.949
 -84.9382
 -83.6571
 -83.6276
 -83.6575
 -83.6419
 -84.3956
 -84.3571
 -84.9162
 -84.892
 -84.9115
 -84.8894
 -84.9363
 -84.9307
 -84.7235
 -84.7704
 -84.7942
 -84.723
 -71.7037
 -73.337
 -73.0547
 -73.5408
 -84.9033
 -82.7525
 -82.8854
 -82.7856
 -82.7518
 -85.3298
 -85.3325
 -85.3291
 -85.1898
 -85.1891
 -85.1727
 -85.1898
 -84.6318
 -84.6346
 -84.5957
 -84.4974
 -84.9171
 -84.9489
 -84.8879
 -83.2614
 -83.3839
 -83.3423
 -83.2506
 -85.2869
 -85.2928
 -85.2837
 -85.2893
 -85.1274
 -85.1165
 -85.135
 -85.1255
 -85.2878
 -85.2916
 -85.2787
 -85.286
 -80.9293
 -80.8518
 -80.6728
 -80.7061
 -83.449
 -83.5691
 -85.2296
 -85.2239
 -85.2185
 -85.2275
 -85.3083
 -85.3072
 -85.3089
 -85.3063
 -85.3424
 -85.3442
 -85.3405
 -85.3442
 -85.3006
 -85.2946
 -85.2992
 -85.0967
 -85.1226
 -85.0936
 -85.1131
 -85.3148
 -85.3175
 -85.3172
 -85.3171
 -81.6302
 -81.8426
 -82.1089
 -81.812
 -85.2627
 -85.2718
 -85.2724
 -85.1108
 -85.1022
 -85.0937
 -85.0906
 -82.6763
 -82.6161
 -82.6757
 -82.5759
 -85.0997
 -85.1199
 -85.1149
 -85.1132
 -84.9913
 -85.0189
 -85.0336
 -84.9903
 -83.3364
 -83.3378
 -83.5844
 -83.6343
 -81.1473
 -81.2035
 -80.8508
 -80.8537
 -84.3669
 -84.3837
 -84.4595
 -84.3778
 -69.1054
 -68.9996
 -71.2418
 -69.7764
 -82.6881
 -82.8412
 -82.6654
 -83.1593
 -82.9529
 -82.9157
 -82.8484
 -63.2869
 -63.422
 -62.1601
 -64.1838
 -85.2916
 -85.287
 -85.2885
 -85.2393
 -85.2444
 -85.2527
 -85.2521
 -83.2411
 -83.5585
 -83.4582
 -77.425
 -77.8572
 -77.3866
 -80.6638
 -80.4588
 -80.7526
 -80.8316
 -83.5642
 -83.5489
 -83.6575
 -83.4474
 -85.1158
 -85.1527
 -85.1344
 -85.133
 -72.1581
 -71.7419
 -72.2712
 -71.1437
 -85.05
 -84.9924
 -84.9898
 -85.04
 -85.241
 -85.2428
 -85.2311
 -85.2402
 -84.9727
 -84.9648
 -85.0279
 -84.99
 -84.5734
 -84.4995
 -84.6183
 -82.8638
 -82.8499
 -82.8711
 -82.9518
 -85.2945
 -85.2988
 -85.3018
 -85.2975
 -85.266
 -85.2701
 -85.2635
 -85.2556
 -83.3253
 -83.4575
 -83.3613
 -83.2508
 -85.3026
 -85.307
 -85.3095
 -85.3125
 -85.3202
 -85.3158
 -85.3151
 -85.3177
 -85.3172
 -85.313
 -85.3149
 -75.8959
 -75.7109
 -63.6038
 -64.0273
 -63.3532
 -64.8528
 -85.0168
 -85
 -84.9733
 -84.6295
 -84.595
 -84.6864
 -84.593
 -84.8387
 -84.8964
 -84.883
 -84.8497
 -52.2227
 -84.3915
 -84.9911
 -85.0233
 -85.2689
 -85.2729
 -85.2722
 -85.2701
 -77.5863
 -84.0295
 -84.1256
 -84.0289
 -85.3462
 -85.3449
 -85.3451
 -85.3448
 -84.8444
 -84.8101
 -84.8567
 -84.9026
 -85.308
 -85.3056
 -85.3111
 -85.3029
 -84.5495
 -84.6372
 -84.4481
 -84.2477
 -84.3896
 -84.2964
 -85.2989
 -85.298
 -85.2923
 -85.2999
 -85.0616
 -85.0342
 -85.0065
 -85.0064
 -81.8149
 -81.6074
 -81.9687
 -81.9288
 -85.2448
 -85.2614
 -85.2544
 -85.316
 -85.3224
 -85.3225
 -85.3158
 -85.2575
 -85.2533
 -85.2489
 -85.2525
 -83.3783
 -83.3804
 -83.7129
 -83.3642
 -83.7829
 -83.6889
 -83.7038
 -83.7163
 -85.2954
 -85.2991
 -85.2991
 -85.299
 -84.3177
 -84.3927
 -84.2568
 -85.2325
 -85.2312
 -85.2296
 -85.2209
 -82.1625
 -82.4066
 -82.0304
 -82.1055
 -85.0766
 -85.0953
 -85.0509
 -85.0717
 -82.1823
 -82.3768
 -82.1985
 -82.1621
 -84.9102
 -84.9079
 -84.8553
 -84.9134
 -85.2422
 -85.2398
 -85.2498
 -85.2366
 -81.58
 -81.4797
 -81.688
 -84.8004
 -84.8512
 -85.2845
 -85.2827
 -85.2795
 -85.2764
 -84.3025
 -84.2315
 -84.208
 -81.689
 -81.4761
 -81.3769
 -81.4978
 -85.1565
 -85.1636
 -85.1573
 -85.1712
 -85.0591
 -85.0592
 -85.1012
 -85.0708
 -56.5769
 -56.6928
 -57.9768
 -56.8847
 -84.8408
 -84.7637
 -84.8016
 -69.0437
 -70.175
 -70.6034
 -84.8101
 -84.7905
 -84.7481
 -84.8212
 -84.7514
 -80.4196
 -80.7285
 -79.9058
 -80.3411
 -84.5577
 -84.6536
 -84.6543
 -85.2708
 -85.2712
 -85.2723
 -85.2668
 -84.5793
 -84.6179
 -84.666
 -84.6617
 -84.7506
 -84.7341
 -84.7326
 -85.3402
 -85.3395
 -85.3384
 -85.3366
 -82.7041
 -83.1509
 -83.0668
 -82.989
 -80.7026
 -80.7391
 -80.8853
 -80.9129
 -84.1888
 -84.1648
 -84.3129
 -84.1955
 -85.2855
 -85.2838
 -85.2884
 -85.2793
 -55.9255
 -56.9026
 -55.7485
 -57.2934
 -85.2449
 -85.2313
 -85.2368
 -85.2378
 -80.2252
 -79.9613
 -80.3404
 -80.1992
 -85.2643
 -85.2406
 -85.2502
 -85.2609
 -85.1874
 -85.184
 -85.1728
 -85.1793
 -85.2462
 -85.2496
 -83.5261
 -83.3732
 -83.346
 -83.4793
 -85.2973
 -85.2988
 -85.2985
 -85.192
 -85.1739
 -85.1772
 -85.1955
 -83.2654
 -83.4202
 -83.3164
 -83.1783
 -83.9661
 -83.9317
 -84.0577
 -51.7118
 -51.75
 -51.4281
 -51.7023
 -84.666
 -84.6204
 -84.7217
 -85.3026
 -85.3065
 -85.2993
 -85.2976
 -85.2309
 -85.2203
 -85.2831
 -85.2925
 -85.2939
 -85.2887
 -85.1402
 -85.1407
 -78.9951
 -78.8349
 -78.3626
 -79.2391
 -85.2225
 -85.2235
 -85.2236
 -85.2118
 -84.7829
 -84.7932
 -84.0498
 -84.1112
 -84.0628
 -84.0372
 -85.2727
 -85.2782
 -85.2779
 -85.2773
 -83.5779
 -83.2261
 -83.2659
 -83.5136
 -85.2949
 -85.2956
 -85.302
 -85.3067
 -84.9431
 -84.9449
 -84.9163
 -79.7111
 -79.5042
 -79.3619
 -79.6477
 -85.1037
 -85.1052
 -85.096
 -85.0759
 -82.6975
 -82.4292
 -82.482
 -82.2832
 -83.0898
 -82.7647
 -82.9999
 -54.7151
 -54.5213
 -54.8572
 -55.3797
 -81.1495
 -81.5258
 -81.6357
 -81.2774
 -85.2134
 -85.2117
 -85.2246
 -85.2098
 -84.7978
 -84.827
 -84.7509
 -84.1165
 -82.6683
 -82.7941
 -82.7206
 -82.8118
 -84.3776
 -84.2782
 -84.3711
 -84.415
 -85.1907
 -85.2124
 -85.2136
 -85.1909
 -81.9491
 -81.9831
 -82.5074
 -77.986
 -84.9323
 -84.9394
 -84.902
 -84.9655
 -82.7789
 -82.9995
 -66.0566
 -64.8586
 -82.4658
 -82.6625
 -82.5023
 -82.2464
 -85.1758
 -85.1874
 -85.2827
 -85.2818
 -85.2837
 -85.2807
 -84.1235
 -84.2397
 -84.2209
 -84.2477
 -85.3236
 -85.3252
 -85.3276
 -85.3258
 -83.7958
 -83.8582
 -83.539
 -83.5076
 -85.229
 -85.2326
 -85.2201
 -85.2126
 -83.317
 -83.327
 -83.4165
 -83.3994
 -85.2067
 -85.2112
 -85.1939
 -85.2035
 -84.3256
 -84.4698
 -85.3067
 -85.3048
 -85.169
 -85.1864
 -85.1647
 -85.1886
 -85.1536
 -85.1423
 -85.1461
 -85.168
 -84.9006
 -84.881
 -84.9234
 -84.912
 -85.209
 -85.1993
 -85.2208
 -85.2209
 -83.2127
 -83.0424
 -83.1332
 -83.1207
 -85.302
 -85.2998
 -85.3001
 -85.3055
 -85.3107
 -85.3057
 -85.3088
 -82.1456
 -82.3835
 -82.3749
 -82.2361
 -85.1281
 -85.1107
 -85.1101
 -85.1274
 -81.2021
 -81.6237
 -81.6461
 -82.0009
 -84.8919
 -84.5997
 -84.6905
 -84.6967
 -84.6294
 -85.254
 -85.2535
 -85.2509
 -85.2425
 -70.5035
 -69.3735
 -69.9534
 -71.3262
 -85.1238
 -85.1336
 -85.1427
 -85.125
 -84.7718
 -84.8084
 -84.6959
 -84.7371
 -85.2132
 -85.2032
 -85.2005
 -85.1966
 -85.0889
 -85.3407
 -85.3407
 -85.3363
 -85.3376
 -85.2274
 -85.2329
 -85.2187
 -85.2186
 -64.7225
 -65.0677
 -66.0403
 -64.6132
 -84.396
 -84.2979
 -84.249
 -84.325
 -83.6589
 -84.7779
 -84.8089
 -84.817
 -84.8573
 -85.2927
 -85.294
 -85.2864
 -85.2836
 -85.261
 -85.2561
 -85.2699
 -85.2908
 -85.2789
 -85.2838
 -85.2822
 -55.9641
 -56.2962
 -85.2203
 -85.2117
 -85.2057
 -83.4093
 -83.4099
 -83.344
 -83.5434
 -85.1768
 -85.1695
 -85.1722
 -85.1565
 -84.9016
 -85.1506
 -85.1279
 -85.1504
 -85.1483
 -85.2978
 -85.2838
 -85.29
 -85.2966
 -85.1405
 -85.1564
 -85.1715
 -85.1432
 -84.3038
 -84.3615
 -84.1877
 -84.4304
 -82.619
 -82.6546
 -82.5691
 -82.6805
 -85.3357
 -85.3321
 -85.3354
 -85.3348
 -85.1851
 -85.1804
 -85.1877
 -85.1705
 -85.3329
 -85.3315
 -85.3319
 -85.3338
 -83.5298
 -83.2485
 -83.5483
 -83.5803
 -84.8055
 -84.7812
 -85.3028
 -85.3106
 -85.3035
 -85.3064
 -84.8617
 -84.8598
 -84.8544
 -84.9073
 -84.6859
 -84.7388
 -84.9112
 -84.8912
 -84.951
 -84.9033
 -85.2674
 -85.2698
 -85.2658
 -85.2768
 -83.9798
 -83.8216
 -83.7507
 -83.8962
 -77.4025
 -77.8468
 -77.3425
 -77.2849
 -81.7211
 -81.5931
 -81.6406
 -81.5355
 -83.7681
 -83.9011
 -83.93
 -83.796
 -84.3779
 -84.2554
 -84.3242
 -84.6299
 -84.5092
 -84.584
 -84.5954
 -84.8634
 -84.8436
 -84.8102
 -84.8716
 -77.4203
 -77.5904
 -77.7556
 -84.2907
 -84.1216
 -84.2937
 -84.2466
 -84.9447
 -84.9936
 -84.983
 -84.9297
 -83.2144
 -82.9179
 -83.2461
 -82.9576
 -83.9506
 -84.0531
 -84.0461
 -84.0249
 -84.9614
 -84.9504
 -84.9777
 -85.0058
 -84.8684
 -84.8126
 -84.8644
 -84.8532
 -85.1725
 -85.1641
 -85.1659
 -85.1556
 -81.3177
 -81.4214
 -81.5065
 -85.2509
 -85.2438
 -85.2567
 -85.2492
 -83.2446
 -83.4382
 -83.2522
 -83.1169
 -84.491
 -84.4814
 -84.4163
 -84.5328
 -84.59
 -84.6749
 -84.6752
 -84.989
 -84.9992
 -85.0063
 -85.0251
 -85.1422
 -85.1411
 -85.1579
 -85.1288
 -85.1533
 -85.168
 -85.1743
 -85.2787
 -85.2788
 -85.2832
 -85.1512
 -85.1416
 -85.1273
 -85.1317
 -85.2657
 -85.2667
 -85.2582
 -85.2997
 -85.3
 -85.2995
 -85.2947
 -84.6329
 -84.473
 -84.587
 -84.5248
 -83.4761
 -83.3682
 -83.6097
 -83.4345
 -83.0238
 -85.2734
 -85.2715
 -85.2837
 -85.2633
 -85.27
 -85.254
 -53.8848
 -53.5003
 -53.9518
 -54.5684
 -85.2234
 -85.2122
 -84.4055
 -84.416
 -84.5259
 -85.3314
 -85.3338
 -85.0315
 -84.9913
 -85.0083
 -85.0251
 -84.3054
 -84.3554
 -84.3574
 -85.2316
 -85.2508
 -85.2443
 -85.2469
 -83.7148
 -83.7572
 -83.6442
 -83.8607
 -61.272
 -62.3448
 -62.0546
 -60.7698
 -85.0109
 -85.0165
 -85.0119
 -85.0426
 -85.2601
 -85.2771
 -85.264
 -85.2452
 -85.2407
 -85.2464
 -85.238
 -83.1175
 -82.8391
 -82.7941
 -82.7042
 -83.6149
 -83.7067
 -81.8258
 -82.1173
 -81.6944
 -85.3239
 -85.3201
 -85.246
 -85.2327
 -85.2436
 -85.2367
 -84.8744
 -84.9224
 -84.9033
 -85.2218
 -85.207
 -85.2335
 -85.2286
 -83.2401
 -82.8242
 -82.8925
 -83.0975
 -84.6942
 -84.6738
 -84.7477
 -84.7583
 -84.7296
 -84.7684
 -84.7925
 -84.7407
 -82.6675
 -82.7578
 -82.4775
 -83.6314
 -83.4847
 -83.6193
 -83.5734
 -85.3406
 -85.3419
 -85.3412
 -85.3437
 -79.9461
 -79.1901
 -85.2938
 -85.3007
 -85.2988
 -85.2956
 -84.5576
 -84.6426
 -84.6076
 -84.5585
 -84.9627
 -84.9908
 -84.9867
 -84.9993
 -81.7834
 -81.9236
 -84.7349
 -84.6922
 -84.6932
 -84.6396
 -84.3989
 -84.3579
 -84.3189
 -84.4392
 -85.2691
 -85.2694
 -85.2661
 -85.2722
 -84.5968
 -84.6782
 -84.6709
 -84.5968
 -83.6851
 -83.7184
 -85.0931
 -85.0945
 -85.0769
 -85.0966
 -85.1839
 -85.1826
 -85.195
 -84.8396
 -84.8919
 -84.8725
 -84.9054
 -82.6178
 -82.7838
 -82.5513
 -82.8837
 -61.2028
 -62.6716
 -62.3536
 -60.9015
 -84.713
 -84.6798
 -84.7553
 -84.8119
 -84.9803
 -85.0168
 -84.9783
 -84.9885
 -84.281
 -84.3398
 -84.2267
 -84.2509
 -83.4494
 -83.3709
 -83.529
 -83.5913
 -85.2742
 -85.2784
 -85.0819
 -85.0609
 -85.0519
 -72.7777
 -72.284
 -71.6148
 -73.1429
 -83.0143
 -82.8185
 -83.0568
 -82.6801
 -84.898
 -84.8986
 -84.8876
 -84.855
 -85.2758
 -85.278
 -85.2767
 -84.5476
 -84.4871
 -84.3895
 -84.3997
 -83.5301
 -83.7235
 -83.6546
 -83.5255
 -85.1942
 -85.1701
 -85.1708
 -85.1838
 -84.976
 -84.9696
 -84.9507
 -84.9499
 -85.2149
 -85.2168
 -85.2125
 -85.2343
 -85.2354
 -85.2385
 -85.2333
 -84.2257
 -84.2788
 -84.1406
 -84.1369
 -84.6502
 -84.5961
 -84.667
 -64.3538
 -64.7246
 -64.6396
 -63.731
 -83.7529
 -83.7782
 -79.5515
 -79.183
 -79.8038
 -80.183
 -82.7784
 -81.9666
 -85.276
 -83.7365
 -83.58
 -83.6798
 -83.5149
 -85.3369
 -85.07
 -85.0563
 -85.0659
 -85.0318
 -83.6713
 -83.7553
 -83.6961
 -84.2515
 -84.3612
 -84.3562
 -85.2394
 -85.2439
 -85.2334
 -85.2444
 -85.2596
 -85.2552
 -85.2605
 -85.2533
 -82.2537
 -81.8533
 -81.8684
 -82.1218
 -85.3118
 -85.3117
 -85.3167
 -85.3093
 -84.7441
 -84.6807
 -84.607
 -85.2574
 -85.2616
 -85.2623
 -84.892
 -84.8634
 -84.8745
 -84.9013
 -83.7347
 -83.8194
 -83.6554
 -83.6863
 -85.0107
 -85.054
 -85.0024
 -83.9619
 -84.0428
 -84.0249
 -83.8984
 -84.5338
 -84.6409
 -85.2565
 -85.2647
 -85.2653
 -85.2738
 -85.2796
 -85.2875
 -85.2815
 -85.2814
 -82.2551
 -82.5183
 -82.2454
 -82.5881
 -85.1738
 -85.1526
 -85.1722
 -85.1796
 -85.0647
 -85.0132
 -85.0509
 -85.0808
 -84.4231
 -84.3085
 -84.4668
 -84.385
 -85.2598
 -85.2539
 -85.2505
 -85.2437
 -84.6039
 -84.4995
 -84.6531
 -84.5793
 -84.7589
 -84.7343
 -84.7293
 -84.8161
 -84.4567
 -84.3974
 -84.476
 -84.4848
 -82.9656
 -83.2359
 -81.9523
 -82.1837
 -82.3508
 -81.9777
 -78.2919
 -77.3088
 -78.2513
 -78.4698
 -85.077
 -85.0725
 -85.0515
 -85.0926
 -84.9597
 -84.9434
 -84.9164
 -85.3249
 -85.3255
 -85.3249
 -85.3247
 -85.3203
 -85.3249
 -85.3184
 -85.2887
 -85.2933
 -85.2844
 -84.9556
 -85.0009
 -85.011
 -84.9613
 -85.1391
 -85.1435
 -85.1524
 -85.1241
 -85.264
 -85.2705
 -85.2679
 -85.2727
 -83.7705
 -83.6173
 -83.6548
 -83.7292
 -80.3239
 -80.658
 -80.9203
 -80.9193
 -85.332
 -85.3339
 -85.3275
 -85.3356
 -83.3242
 -83.2746
 -83.1379
 -83.3315
 -84.8164
 -84.805
 -84.8322
 -84.7945
 -85.3339
 -85.3351
 -85.3296
 -85.3383
 -85.0222
 -84.988
 -85.0387
 -85.0261
 -84.4847
 -84.4524
 -84.5071
 -84.4542
 -83.5379
 -83.4072
 -83.4374
 -81.8737
 -82.2073
 -82.0058
 -81.8116
 -83.0663
 -83.0235
 -83.1085
 -82.9949
 -82.2051
 -82.3576
 -83.1409
 -83.2958
 -82.8644
 -85.2062
 -85.1945
 -85.1951
 -85.1942
 -85.3224
 -85.3212
 -85.3213
 -85.3214
 -85.1366
 -85.1224
 -85.1368
 -85.1008
 -84.529
 -85.2586
 -85.2631
 -85.2636
 -85.2543
 -82.5165
 -82.5117
 -82.4985
 -82.4748
 -85.3166
 -85.3174
 -85.316
 -85.3211
 -83.9849
 -83.9752
 -84.1258
 -85.1849
 -81.5887
 -81.5119
 -81.2069
 -83.1712
 -82.9941
 -82.8193
 -83.2351
 -84.8242
 -84.8267
 -84.7422
 -84.8221
 -85.2022
 -85.1999
 -85.1916
 -85.2146
 -84.5081
 -85.1878
 -85.1773
 -85.1786
 -84.5994
 -84.6099
 -84.6132
 -84.685
 -84.0105
 -84.0439
 -83.9489
 -83.9335
 -84.2574
 -84.1332
 -84.2204
 -84.2666
 -85.1954
 -83.4502
 -83.5049
 -83.548
 -85.205
 -85.1938
 -85.2102
 -85.2003
 -85.271
 -85.2679
 -85.278
 -85.2642
 -85.3116
 -85.3143
 -85.3108
 -83.9054
 -83.9165
 -83.8353
 -83.8998
 -80.8678
 -80.6302
 -80.8696
 -85.2257
 -85.2297
 -85.2499
 -85.2467
 -85.2438
 -85.2409
 -84.6249
 -84.6729
 -84.7033
 -85.3228
 -85.3227
 -85.3264
 -85.3231
 -85.2742
 -85.2732
 -85.277
 -85.2776
 -85.0866
 -85.1083
 -85.114
 -85.1219
 -84.9254
 -84.9396
 -84.8949
 -84.8629
 -83.5599
 -83.5683
 -83.5018
 -83.608
 -85.254
 -85.2521
 -85.2461
 -85.2568
 -83.9899
 -84.0384
 -83.8459
 -84.3601
 -84.4409
 -84.4704
 -84.4762
 -85.317
 -85.3147
 -85.3212
 -85.3194
 -85.1802
 -85.1812
 -85.1812
 -85.1693
 -85.3278
 -85.325
 -85.3205
 -85.327
 -84.1583
 -84.2101
 -84.2627
 -84.2484
 -84.8825
 -84.8805
 -84.8435
 -84.9207
 -85.2982
 -85.2964
 -85.3014
 -85.2991
 -84.7778
 -84.806
 -84.7219
 -84.7401
 -85.3293
 -85.3314
 -85.3291
 -83.7293
 -83.6666
 -83.6727
 -83.6978
 -85.0026
 -85.0034
 -84.9757
 -84.9622
 -85.0494
 -85.0633
 -85.0433
 -85.0586
 -84.6706
 -84.6578
 -84.7485
 -84.6682
 -85.2754
 -85.2763
 -85.2838
 -85.2765
 -84.7426
 -84.6569
 -84.7142
 -84.6969
 -85.0713
 -85.0631
 -85.0584
 -85.0528
 -82.3916
 -82.3947
 -82.3704
 -82.3883
 -85.2475
 -85.2481
 -85.2418
 -85.2348
 -81.7582
 -81.7356
 -81.7329
 -83.6762
 -83.5874
 -83.5834
 -83.6849
 -82.4163
 -82.6012
 -83.0667
 -82.6525
 -85.1797
 -85.1845
 -85.1918
 -85.1974
 -85.11
 -85.1311
 -85.1074
 -85.1224
 -83.8741
 -83.7258
 -83.7817
 -83.6659
 -85.341
 -85.3393
 -85.3371
 -64.9122
 -64.5694
 -85.0571
 -85.0712
 -85.0383
 -85.0626
 -75.0164
 -73.7143
 -72.339
 -73.3027
 -85.1084
 -85.122
 -85.1382
 -85.1201
 -84.3889
 -84.0823
 -84.0104
 -83.9881
 -83.9016
 -85.2256
 -85.2234
 -85.2276
 -85.2326
 -85.3026
 -85.2971
 -85.3054
 -85.3009
 -82.3931
 -82.3851
 -85.1772
 -85.1872
 -85.2088
 -85.1849
 -84.9409
 -84.8594
 -84.9619
 -84.916
 -83.2757
 -83.2411
 -83.1701
 -83.4945
 -84.7477
 -84.6689
 -84.6577
 -84.7428
 -85.2566
 -85.2457
 -85.2702
 -85.3247
 -85.3234
 -85.3235
 -85.3232
 -85.3313
 -85.3314
 -85.3335
 -84.1161
 -84.0545
 -84.0597
 -84.1607
 -85.2887
 -85.2882
 -85.2831
 -85.2843
 -82.8371
 -82.707
 -82.7591
 -82.7812
 -85.1263
 -85.1003
 -85.1272
 -85.0886
 -84.9928
 -85.0348
 -84.9991
 -84.995
 -85.3224
 -85.3229
 -85.322
 -85.3246
 -85.1554
 -85.1597
 -85.1553
 -85.1411
 -70.9829
 -70.2731
 -70.2152
 -71.15
 -84.4981
 -84.3313
 -84.4705
 -84.4253
 -84.0507
 -84.127
 -84.1871
 -83.9802
 -85.21
 -85.21
 -85.1985
 -85.1949
 -83.0291
 -82.9163
 -82.8873
 -82.8799
 -85.0416
 -85.0178
 -84.9966
 -85.0381
 -83.7137
 -83.6714
 -83.5545
 -79.2435
 -79.0559
 -78.6557
 -78.8877
 -84.9973
 -85.0348
 -84.9979
 -85.0736
 -85.0772
 -85.072
 -83.4042
 -83.2913
 -83.1615
 -82.6065
 -82.606
 -82.6906
 -82.8004
 -85.2852
 -52.7383
 -53.1604
 -52.8903
 -52.2575
 -85.2729
 -85.2701
 -85.2782
 -85.272
 -81.7169
 -84.2747
 -84.2475
 -84.2521
 -84.3458
 -84.0896
 -83.9695
 -84.2573
 -82.6549
 -83.0307
 -82.8535
 -82.8034
 -73.3915
 -73.3936
 -74.1811
 -72.3922
 -82.7562
 -82.8874
 -82.8496
 -84.942
 -84.9206
 -84.9154
 -84.1558
 -84.1055
 -85.3446
 -85.3413
 -85.3411
 -82.4224
 -82.7072
 -82.3456
 -84.0725
 -84.1549
 -84.2107
 -85.2854
 -85.2917
 -85.2928
 -85.2221
 -85.2227
 -85.2311
 -85.2262
 -83.3327
 -83.3734
 -83.4719
 -81.4995
 -81.1895
 -85.313
 -85.3117
 -85.3171
 -85.3153
 -76.4107
 -76.632
 -75.3977
 -77.1809
 -82.2581
 -82.164
 -60.8874
 -59.9587
 -68.3946
 -68.2058
 -68.5217
 -84.2405
 -84.3447
 -84.2173
 -85.3069
 -85.3025
 -85.2954
 -85.1666
 -85.1615
 -85.1749
 -83.6217
 -83.4692
 -83.6102
 -83.7047
 -83.5713
 -85.2877
 -81.6408
 -81.6332
 -81.7461
 -81.7457
 -84.1492
 -84.3394
 -84.1725
 -84.2506
 -85.2155
 -85.2183
 -85.2268
 -85.12
 -85.1274
 -85.1136
 -85.1164
 -84.2347
 -84.2026
 -84.3172
 -84.4079
 -85.2013
 -85.2024
 -85.2194
 -85.2176
 -85.2256
 -85.2201
 -85.2265
 -85.2359
 -84.7614
 -85.1749
 -85.1935
 -85.1888
 -85.195
 -85.3273
 -85.3293
 -85.3263
 -85.3251
 -82.8825
 -82.4428
 -82.3243
 -82.6161
 -85.318
 -85.3241
 -85.3226
 -85.3214
 -59.2384
 -60.4035
 -59.2355
 -85.3005
 -85.2968
 -85.3046
 -85.3051
 -82.9912
 -82.9355
 -82.7041
 -82.7061
 -85.2588
 -85.2491
 -85.2577
 -85.2638
 -82.4074
 -82.433
 -81.7441
 -81.9037
 -85.3219
 -85.2429
 -85.2324
 -85.2401
 -85.2294
 -85.2964
 -85.2998
 -85.3004
 -81.4009
 -81.5588
 -81.3455
 -81.2433
 -85.1728
 -85.1674
 -85.1588
 -85.1495
 -85.0301
 -85.0691
 -85.0688
 -85.0511
 -84.963
 -84.9814
 -84.9482
 -84.9335
 -85.341
 -85.3379
 -84.3959
 -84.3893
 -84.3621
 -84.3097
 -84.4066
 -84.4542
 -84.4618
 -85.1862
 -85.1716
 -85.1942
 -85.2028
 -85.1525
 -85.1548
 -85.1524
 -85.1709
 -85.0343
 -85.0544
 -85.057
 -85.0185
 -83.3336
 -83.2639
 -83.8681
 -83.788
 -83.7734
 -84.1345
 -84.2164
 -84.2051
 -84.2112
 -80.1051
 -79.6329
 -79.9443
 -79.8391
 -84.1786
 -83.9988
 -83.9097
 -72.9007
 -72.9927
 -73.8462
 -84.123
 -84.1246
 -84.0054
 -84.2093
 -83.0709
 -83.285
 -82.9134
 -84.7455
 -85.2058
 -85.1928
 -85.2142
 -84.4621
 -84.4665
 -84.5326
 -84.5634
 -82.1834
 -82.1635
 -82.8275
 -82.5411
 -84.8661
 -84.9132
 -84.9219
 -84.9179
 -85.2303
 -85.2229
 -85.3392
 -85.3371
 -85.3357
 -85.339
 -85.1917
 -85.2003
 -85.2049
 -85.1868
 -84.5692
 -84.5575
 -84.5461
 -84.607
 -85.3228
 -85.3236
 -85.3297
 -85.3199
 -85.3273
 -85.3282
 -85.3299
 -84.8836
 -84.8205
 -84.7873
 -84.849
 -82.5929
 -82.5482
 -82.6677
 -84.3638
 -84.377
 -84.4745
 -84.3621
 -80.2401
 -79.8643
 -80.5299
 -79.7044
 -85.1096
 -85.1156
 -85.122
 -85.0598
 -82.4668
 -82.4673
 -82.4567
 -82.4974
 -83.543
 -83.6075
 -83.653
 -83.6095
 -85.3036
 -85.2973
 -85.3075
 -85.299
 -84.7635
 -84.7733
 -84.7176
 -84.7769
 -84.0777
 -84.0169
 -84.1101
 -84.0159
 -85.2379
 -85.2364
 -85.2159
 -85.2336
 -85.2245
 -85.2219
 -84.2764
 -84.4114
 -84.361
 -84.5084
 -84.5401
 -84.5944
 -84.575
 -84.5826
 -82.5292
 -82.6841
 -82.513
 -84.1267
 -84.0471
 -83.9714
 -55.5666
 -54.7295
 -55.6585
 -55.0627
 -83.6479
 -83.6799
 -81.1817
 -81.3566
 -81.1772
 -80.7156
 -84.9258
 -84.8727
 -84.9183
 -84.8681
 -73.9421
 -75.3443
 -75.6511
 -74.7687
 -83.1185
 -83.0848
 -82.9302
 -85.1647
 -85.1664
 -85.1612
 -85.1525
 -82.6774
 -82.8997
 -82.5933
 -81.4987
 -81.5647
 -81.0575
 -81.3186
 -83.9415
 -83.9012
 -83.8981
 -84.0382
 -85.2188
 -85.2401
 -68.5516
 -69.2575
 -83.4475
 -83.3366
 -84.6275
 -84.5484
 -84.5839
 -84.5591
 -85.1214
 -85.1445
 -85.1269
 -85.1481
 -84.6488
 -84.6674
 -84.6984
 -84.7044
 -80.5367
 -79.7064
 -80.1735
 -80.2352
 -85.0087
 -84.9718
 -84.9818
 -82.6235
 -82.4674
 -82.5417
 -82.5086
 -85.2933
 -85.2895
 -85.297
 -85.2868
 -85.1574
 -85.1597
 -85.1657
 -85.1413
 -82.8802
 -82.9746
 -82.8225
 -84.5453
 -84.4325
 -84.5353
 -84.5629
 -81.2366
 -81.038
 -81.1916
 -82.634
 -82.9562
 -82.8536
 -82.7237
 -83.0635
 -83.0258
 -83.2019
 -83.0778
 -84.6028
 -84.5156
 -84.5141
 -84.4659
 -85.329
 -85.3274
 -85.3256
 -85.3264
 -85.0653
 -85.0935
 -85.0734
 -85.0988
 -84.437
 -84.3036
 -84.3925
 -84.8917
 -84.8715
 -84.8592
 -85.2865
 -85.2729
 -85.2859
 -85.2773
 -85.0508
 -85.0402
 -85.0264
 -85.0626
 -84.4073
 -84.4999
 -84.4705
 -84.5189
 -80.3052
 -80.261
 -82.8796
 -82.7991
 -82.9621
 -82.9581
 -64.2903
 -63.7337
 -62.2026
 -63.7576
 -85.2135
 -85.2119
 -85.2158
 -85.2048
 -83.0545
 -82.8619
 -82.8942
 -82.8775
 -84.6959
 -84.653
 -84.6764
 -84.5946
 -79.06
 -78.6886
 -78.85
 -78.7063
 -84.9113
 -84.9012
 -84.8836
 -84.875
 -84.4659
 -85.1702
 -85.1815
 -85.1487
 -85.1532
 -84.3856
 -84.244
 -84.2262
 -84.3205
 -84.1556
 -84.2387
 -84.3284
 -84.2644
 -83.8283
 -83.6569
 -83.6757
 -83.6697
 -82.4586
 -82.2068
 -82.6068
 -85.2495
 -85.2504
 -85.2515
 -85.2322
 -84.238
 -84.2121
 -84.214
 -84.172
 -85.2364
 -85.2391
 -85.2496
 -85.1593
 -85.14
 -85.1522
 -85.1501
 -85.217
 -85.2392
 -85.2283
 -85.2399
 -80.9286
 -81.3155
 -80.8336
 -52.2475
 -52.628
 -52.7264
 -85.1453
 -85.1631
 -85.1659
 -84.9189
 -84.9871
 -84.9605
 -85.0087
 -84.0773
 -84.1075
 -84.1542
 -84.0066
 -84.451
 -84.4508
 -84.326
 -84.359
 -70.7231
 -71.4863
 -69.41
 -71.7052
 -84.6589
 -84.6294
 -84.6145
 -84.6118
 -85.0534
 -85.0673
 -85.0715
 -85.0226
 -82.9065
 -82.9948
 -83.5174
 -83.2388
 -83.3789
 -83.4029
 -85.1718
 -85.158
 -85.1702
 -85.1634
 -83.0559
 -83.21
 -85.085
 -85.07
 -80.838
 -54.1199
 -53.9855
 -54.1533
 -55.0202
 -78.3808
 -79.0899
 -85.3334
 -85.3377
 -85.3341
 -79.872
 -80.361
 -80.8014
 -80.3729
 -85.1954
 -85.1887
 -83.6012
 -83.5575
 -83.5785
 -83.6
 -83.8816
 -84.1291
 -84.0641
 -85.1756
 -85.194
 -85.1825
 -85.1983
 -85.0754
 -85.1066
 -85.0874
 -85.0955
 -85.2704
 -85.2729
 -85.2819
 -84.4743
 -84.3767
 -84.489
 -84.3641
 -84.7321
 -85.2667
 -85.257
 -85.2657
 -85.2648
 -81.6528
 -81.6248
 -81.6835
 -81.8098
 -84.8846
 -84.82
 -84.8422
 -84.7873
 -85.212
 -85.196
 -85.2082
 -85.1953
 -59.539
 -60.049
 -60.5622
 -60.9465
 -82.7866
 -85.3211
 -84.1918
 -84.3139
 -84.2211
 -84.1157
 -84.8153
 -84.8382
 -84.7786
 -84.7755
 -82.9845
 -82.7067
 -82.8491
 -82.9392
 -84.9435
 -84.9257
 -84.9482
 -84.9559
 -82.7066
 -82.7343
 -82.8741
 -82.1363
 -82.309
 -82.47
 -82.3089
 -84.3687
 -84.4275
 -84.2745
 -84.3708
 -85.2104
 -85.2155
 -85.1915
 -85.3368
 -85.34
 -85.337
 -85.3369
 -70.1109
 -69.2793
 -68.8334
 -84.6806
 -84.6938
 -84.4411
 -84.4706
 -84.39
 -84.5209
 -85.3078
 -85.3045
 -85.3086
 -85.3083
 -85.1504
 -85.1344
 -85.149
 -85.1328
 -82.3855
 -82.7448
 -82.5251
 -77.1488
 -84.3615
 -84.2764
 -84.2962
 -84.3813
 -84.5403
 -84.5678
 -84.547
 -85.1507
 -85.142
 -85.1384
 -85.1569
 -85.2297
 -85.2117
 -85.2239
 -85.2168
 -84.2113
 -84.1633
 -85.1808
 -85.1782
 -85.1921
 -85.2034
 -84.9782
 -84.9658
 -84.9675
 -85.0045
 -85.3254
 -85.3266
 -84.9975
 -84.9688
 -85.0169
 -84.9944
 -85.1835
 -85.191
 -85.1977
 -85.199
 -85.161
 -85.1735
 -85.1573
 -85.1626
 -84.683
 -84.7062
 -84.4544
 -84.5018
 -84.422
 -84.3681
 -83.7544
 -83.6322
 -83.7153
 -83.7094
 -84.9368
 -84.9585
 -84.9694
 -84.9246
 -82.2558
 -82.4652
 -82.5442
 -82.6482
 -82.9786
 -82.9425
 -82.8521
 -82.9515
 -67.0722
 -67.4165
 -67.1696
 -65.9151
 -83.7325
 -83.5185
 -84.8571
 -84.795
 -84.8533
 -84.8156
 -84.2071
 -84.1563
 -84.2703
 -84.3216
 -84.7619
 -84.7906
 -84.802
 -84.7889
 -84.5107
 -84.5001
 -85.1565
 -85.1431
 -85.3336
 -85.3348
 -85.3343
 -85.3362
 -80.4942
 -84.4553
 -84.4559
 -84.487
 -84.5443
 -84.8502
 -84.7842
 -84.7973
 -84.7865
 -83.4521
 -83.3403
 -83.2788
 -83.1394
 -85.1066
 -85.0798
 -85.1135
 -85.0895
 -84.7585
 -84.7163
 -84.6917
 -84.7503
 -82.6832
 -82.6352
 -82.756
 -82.4304
 -82.3594
 -84.0122
 -84.2011
 -84.0493
 -84.1951
 -84.0633
 -84.2719
 -84.0761
 -84.0233
 -82.5045
 -82.4989
 -82.3119
 -82.4766
 -83.0655
 -83.168
 -83.4274
 -83.3366
 -84.4184
 -84.482
 -84.3286
 -84.3205
 -82.8356
 -82.7485
 -82.6996
 -82.7565
 -84.9192
 -84.9431
 -84.8777
 -83.7478
 -83.7408
 -83.7333
 -83.6862
 -75.8167
 -76.5286
 -84.8894
 -84.9171
 -84.935
 -84.8903
 -84.9502
 -84.9221
 -84.9439
 -81.4468
 -81.6578
 -81.8132
 -80.5868
 -80.7735
 -80.7812
 -80.5516
 -85.0735
 -85.0739
 -85.0805
 -85.0408
 -84.8189
 -84.7378
 -84.8266
 -85.2454
 -85.234
 -85.238
 -84.5675
 -84.4953
 -84.5126
 -85.2658
 -85.2688
 -85.2656
 -62.7289
 -61.8066
 -62.1834
 -62.7641
 -85.3269
 -85.3275
 -85.3261
 -85.3275
 -83.8333
 -83.7145
 -84.9684
 -84.8988
 -82.1581
 -82.2327
 -82.2247
 -82.472
 -85.0037
 -85.0051
 -85.04
 -85.1675
 -85.1819
 -85.182
 -85.1853
 -85.2569
 -85.2441
 -81.7806
 -81.8075
 -81.7502
 -84.9043
 -84.8864
 -84.8454
 -83.4849
 -83.2794
 -83.4631
 -81.2725
 -81.3166
 -81.1403
 -80.9208
 -84.3632
 -84.3855
 -84.2951
 -84.4119
 -84.2199
 -84.0849
 -84.1492
 -84.1929
 -85.0724
 -85.057
 -85.0624
 -85.0907
 -85.1807
 -85.176
 -85.181
 -85.1651
 -84.028
 -83.9462
 -84.1271
 -85.0735
 -85.0709
 -85.0515
 -85.1685
 -85.1803
 -85.1656
 -85.1645
 -85.3407
 -85.339
 -85.3422
 -84.7208
 -84.7196
 -84.7152
 -85.1206
 -85.1305
 -85.1002
 -84.6158
 -84.672
 -84.5722
 -83.6318
 -83.4384
 -83.4551
 -81.8502
 -82.0511
 -81.9116
 -81.9148
 -84.5603
 -84.6555
 -84.7326
 -84.6729
 -83.2546
 -83.1401
 -82.9505
 -82.3364
 -82.5565
 -85.1409
 -85.1274
 -85.1598
 -85.1393
 -85.1415
 -85.1509
 -85.1402
 -85.1188
 -82.5402
 -82.7583
 -82.8659
 -82.9629
 -82.5286
 -82.36
 -82.4088
 -82.3176
 -78.4624
 -78.1597
 -78.5267
 -77.9704
 -85.2917
 -85.2954
 -85.2516
 -85.2409
 -85.2445
 -85.2513
 -85.3189
 -83.5883
 -83.7371
 -83.5193
 -84.7771
 -84.8033
 -84.7462
 -84.7454
 -82.7939
 -82.7303
 -84.5546
 -84.5604
 -84.5901
 -81.2712
 -81.4153
 -85.2311
 -85.2345
 -85.2437
 -85.2274
 -85.268
 -85.2674
 -85.2781
 -85.2761
 -85.2059
 -85.2068
 -85.1888
 -83.7865
 -83.89
 -83.8762
 -85.2485
 -85.2498
 -85.2535
 -85.2575
 -83.3203
 -83.0307
 -83.252
 -83.3392
 -85.2237
 -85.215
 -85.2164
 -85.2244
 -83.2642
 -82.9608
 -82.8831
 -83.3508
 -81.4591
 -81.6462
 -81.2733
 -85.3224
 -85.3293
 -85.3249
 -85.3249
 -82.5569
 -82.6064
 -82.5865
 -84.3932
 -84.4532
 -84.4748
 -84.4405
 -85.3021
 -85.3085
 -85.3052
 -83.046
 -82.8374
 -82.9398
 -82.7857
 -85.0379
 -85.2904
 -85.293
 -85.281
 -85.2896
 -81.4034
 -81.4752
 -81.6142
 -81.486
 -85.1603
 -85.1279
 -85.1516
 -85.1618
 -84.7703
 -84.8
 -84.684
 -81.4589
 -81.1104
 -81.5098
 -80.5959
 -85.1014
 -85.1048
 -85.1135
 -83.008
 -82.9552
 -64.2325
 -63.1569
 -64.7542
 -65.1916
 -78.2087
 -76.8616
 -76.6225
 -85.2528
 -85.2475
 -85.2796
 -85.2682
 -85.2699
 -85.2725
 -79.883
 -80.1855
 -79.4561
 -80.2179
 -84.2433
 -84.3083
 -84.3123
 -84.3136
 -84.5444
 -84.4281
 -84.4449
 -84.4956
 -84.8058
 -84.7943
 -84.8472
 -84.7821
 -84.8938
 -84.8124
 -84.8739
 -84.8386
 -85.3052
 -82.664
 -82.603
 -82.6773
 -82.6167
 -85.3125
 -85.3101
 -85.3157
 -84.9629
 -84.9095
 -84.8973
 -84.9149
 -81.6858
 -81.9851
 -82.0417
 -84.745
 -84.6926
 -84.7425
 -84.6798
 -84.6372
 -85.0678
 -85.08
 -85.0975
 -85.0937
 -83.5213
 -83.5466
 -83.5182
 -84.6595
 -84.7834
 -84.7645
 -85.3117
 -85.3086
 -85.3049
 -85.3086
 -84.5215
 -84.4529
 -84.4608
 -60.2907
 -61.0571
 -59.5292
 -84.5301
 -84.4709
 -84.503
 -84.3993
 -85.0984
 -85.1128
 -85.1193
 -84.712
 -84.7002
 -85.2726
 -85.2738
 -85.2678
 -85.2675
 -85.2155
 -85.2249
 -85.2165
 -85.2182
 -85.3296
 -85.3289
 -85.3263
 -85.325
 -84.9065
 -84.8094
 -84.8823
 -84.9048
 -85.1441
 -85.1474
 -85.1351
 -85.1167
 -85.2734
 -85.2784
 -85.2822
 -83.3565
 -83.4631
 -83.1924
 -83.2736
 -84.387
 -84.4791
 -84.0049
 -83.9222
 -84.0425
 -83.979
 -85.1275
 -85.1173
 -85.1261
 -85.1347
 -84.5371
 -84.6214
 -84.5724
 -84.5301
 -85.1346
 -85.125
 -85.1571
 -85.1325
 -84.6869
 -84.7159
 -84.7399
 -84.7649
 -84.6495
 -84.575
 -84.5963
 -85.2575
 -85.251
 -85.2587
 -85.3005
 -85.2984
 -85.2969
 -85.3078
 -85.297
 -85.2958
 -85.3004
 -85.1813
 -85.1954
 -85.181
 -69.0541
 -68.2793
 -67.6428
 -84.383
 -84.4893
 -84.4029
 -85.2534
 -85.2589
 -85.2557
 -85.2522
 -84.3727
 -84.4159
 -84.3668
 -84.9051
 -84.9444
 -84.9065
 -84.8917
 -85.0191
 -84.9376
 -84.9767
 -84.9604
 -84.6597
 -84.7079
 -84.7062
 -84.7568
 -82.8938
 -83.0338
 -82.9193
 -82.8521
 -84.4111
 -84.9071
 -84.9132
 -84.9371
 -84.8496
 -82.4974
 -82.5384
 -82.5637
 -82.5534
 -81.546
 -81.7884
 -81.6095
 -81.738
 -82.5045
 -82.4721
 -82.568
 -82.3305
 -85.0555
 -85.0683
 -85.085
 -85.0988
 -83.2936
 -83.1567
 -83.2462
 -83.301
 -85.3167
 -85.3114
 -85.3169
 -85.3124
 -76.4694
 -76.8146
 -77.4365
 -77.2501
 -82.8673
 -82.8819
 -82.8519
 -81.0663
 -80.8949
 -80.8135
 -80.8177
 -81.9445
 -81.784
 -82.1269
 -82.7087
 -82.7296
 -84.7719
 -84.761
 -84.7901
 -84.884
 -85.3069
 -85.3007
 -85.2978
 -85.3016
 -85.3004
 -85.3035
 -85.2988
 -82.8623
 -82.7518
 -85.3119
 -85.3159
 -85.3105
 -85.2592
 -85.2564
 -85.2568
 -85.2675
 -81.9911
 -81.8817
 -81.9744
 -85.3278
 -85.3285
 -85.326
 -85.3303
 -83.7913
 -83.8376
 -83.9316
 -83.7218
 -82.595
 -82.26
 -82.3556
 -82.5955
 -81.0039
 -81.4362
 -81.2556
 -81.1727
 -73.3558
 -73.431
 -72.7852
 -72.7412
 -84.9868
 -85.0481
 -85.031
 -85.0256
 -84.0023
 -84.026
 -83.9601
 -83.8115
 -85.3223
 -85.3202
 -85.3225
 -58.0897
 -59.5549
 -58.7433
 -60.1891
 -78.3433
 -79.109
 -78.5786
 -79.252
 -85.3249
 -85.3292
 -85.3273
 -85.3267
 -84.7229
 -84.7328
 -84.7911
 -85.2853
 -85.2943
 -85.2965
 -82.3984
 -82.3341
 -81.9455
 -85.3223
 -85.3216
 -85.3194
 -85.3207
 -85.2419
 -85.2337
 -85.2297
 -85.2239
 -83.4735
 -83.5759
 -83.6847
 -83.5452
 -84.0478
 -83.9116
 -84.0082
 -83.8281
 -85.2222
 -85.2223
 -85.22
 -85.2336
 -84.8493
 -84.8223
 -84.7759
 -84.8074
 -74.7885
 -75.7413
 -75.9382
 -75.4744
 -85.2669
 -85.2508
 -85.2612
 -85.2555
 -85.3282
 -84.6567
 -84.6771
 -84.7228
 -84.7178
 -85.2948
 -85.2993
 -85.2963
 -85.3037
 -82.5889
 -82.5965
 -82.6068
 -82.6227
 -85.3144
 -85.3177
 -85.3116
 -85.3099
 -84.5899
 -84.5542
 -84.0845
 -84.0203
 -84.1343
 -84.1478
 -85.194
 -85.1775
 -85.1746
 -85.1797
 -84.8799
 -84.9215
 -84.8958
 -83.963
 -83.9475
 -83.99
 -85.213
 -85.207
 -85.1941
 -85.1987
 -85.1244
 -85.1132
 -85.1339
 -85.1143
 -82.7675
 -82.678
 -82.6054
 -84.6336
 -84.7859
 -84.7932
 -84.6993
 -77.346
 -76.4372
 -77.3625
 -76.1672
 -75.3239
 -85.3204
 -85.3085
 -85.3203
 -85.314
 -84.7767
 -84.7321
 -84.7081
 -84.7738
 -85.2649
 -85.271
 -84.4051
 -84.2553
 -84.2923
 -83.3613
 -83.2069
 -83.4388
 -83.3947
 -85.3182
 -85.3152
 -85.321
 -85.3199
 -82.7776
 -82.8135
 -82.8031
 -83.5323
 -83.4903
 -83.6232
 -83.5039
 -83.9682
 -84.1385
 -83.9994
 -83.8229
 -85.1129
 -85.1431
 -85.1112
 -85.1261
 -83.188
 -83.4048
 -83.2994
 -83.2577
 -85.1739
 -85.0295
 -85.0651
 -85.0737
 -85.0123
 -85.2973
 -85.2996
 -85.291
 -85.3114
 -85.31
 -85.3093
 -85.3057
 -85.0421
 -85.0649
 -85.0293
 -85.0504
 -85.331
 -85.33
 -85.329
 -85.3247
 -84.0194
 -84.8943
 -84.8236
 -84.8394
 -84.8823
 -84.7731
 -84.6613
 -84.7313
 -84.7293
 -73.6405
 -74.7922
 -75.1454
 -73.9947
 -84.4439
 -84.4665
 -84.4966
 -84.3921
 -84.3986
 -84.3946
 -84.4238
 -84.4904
 -84.5012
 -84.5054
 -84.5913
 -85.2814
 -85.2762
 -85.2733
 -84.4065
 -84.2635
 -84.3038
 -84.3392
 -85.2589
 -85.2695
 -85.2652
 -84.6218
 -84.5385
 -84.8368
 -84.8743
 -84.8579
 -84.7535
 -84.7243
 -84.7408
 -84.7561
 -84.7676
 -84.8418
 -84.8197
 -85.2947
 -85.2967
 -85.2968
 -84.0102
 -85.3111
 -84.8546
 -84.8833
 -84.8351
 -84.8062
 -81.5642
 -81.4557
 -81.135
 -82.4526
 -82.6888
 -82.8836
 -84.8036
 -84.8328
 -84.7593
 -84.5329
 -84.5363
 -84.5555
 -84.6042
 -84.7712
 -84.7164
 -84.8187
 -84.7384
 -59.417
 -59.8141
 -58.4647
 -85.2086
 -85.1957
 -85.2033
 -84.637
 -84.6504
 -85.2273
 -85.2168
 -85.2231
 -85.2119
 -84.9104
 -84.9467
 -84.9037
 -73.4745
 -74.2999
 -72.8086
 -73.2306
 -84.3274
 -84.2336
 -84.3556
 -84.1401
 -83.0088
 -82.938
 -82.8574
 -82.8176
 -85.1001
 -85.0628
 -85.0876
 -85.1007
 -83.8084
 -83.6057
 -83.7868
 -83.5415
 -76.9639
 -76.8514
 -76.9818
 -83.9288
 -83.8901
 -83.8194
 -83.8618
 -85.0892
 -85.1167
 -85.1005
 -85.1118
 -84.7176
 -84.7946
 -84.7892
 -84.7562
 -83.3409
 -83.2755
 -83.3738
 -84.2771
 -84.183
 -84.2194
 -84.2139
 -82.7064
 -82.4324
 -82.7154
 -82.5103
 -80.6171
 -81.1011
 -80.7873
 -80.3644
 -85.3227
 -85.3238
 -85.3215
 -85.3234
 -82.7991
 -82.9332
 -82.8968
 -82.9383
 -83.2211
 -83.0979
 -83.2496
 -83.2649
 -85.0724
 -85.0936
 -85.0981
 -85.1116
 -83.6393
 -83.6597
 -83.8066
 -83.6912
 -85.3401
 -85.3398
 -85.3398
 -85.3414
 -84.5318
 -84.4926
 -84.5754
 -82.0208
 -81.8263
 -81.8844
 -82.1591
 -82.7291
 -82.6601
 -82.6997
 -82.6509
 -82.4279
 -81.9287
 -85.1662
 -85.1397
 -85.1603
 -85.1328
 -85.3421
 -85.3409
 -85.3419
 -85.3413
 -84.1757
 -84.0686
 -84.1124
 -84.0499
 -82.9847
 -82.8988
 -82.8828
 -85.095
 -85.0643
 -85.071
 -85.0874
 -84.4075
 -84.4396
 -84.3949
 -84.5386
 -83.3396
 -83.3941
 -83.3271
 -83.4678
 -81.7659
 -82.1291
 -81.9247
 -85.2042
 -85.2203
 -85.2264
 -85.2069
 -85.2731
 -85.2674
 -85.2633
 -84.1388
 -84.051
 -84.1505
 -84.2692
 -84.2677
 -84.2536
 -84.3585
 -83.2001
 -83.4537
 -83.5693
 -83.4158
 -85.0708
 -85.0439
 -85.0368
 -82.4345
 -82.3864
 -82.1801
 -84.6931
 -84.7452
 -84.74
 -85.2648
 -85.2561
 -85.2669
 -85.1183
 -85.1174
 -83.9282
 -84.0026
 -83.8647
 -83.9712
 -84.0144
 -83.9606
 -84.6071
 -84.5101
 -83.2701
 -81.4554
 -81.4811
 -81.2437
 -85.2619
 -85.2624
 -85.2477
 -84.1008
 -84.211
 -84.1757
 -84.1105
 -83.5844
 -84.6832
 -84.7087
 -85.1013
 -85.1165
 -85.0921
 -85.1204
 -84.6516
 -84.623
 -84.6896
 -84.1677
 -84.2276
 -84.0625
 -84.1473
 -83.8955
 -84.0981
 -84.3978
 -84.2981
 -84.2205
 -84.4148
 -85.2881
 -85.2803
 -85.2789
 -85.2858
 -85.2974
 -85.3007
 -85.3047
 -85.3054
 -82.4721
 -82.6508
 -84.5639
 -84.6183
 -84.5632
 -84.4789
 -84.9437
 -84.954
 -84.9784
 -84.9913
 -85.0013
 -85.031
 -85.0098
 -84.9971
 -84.6134
 -84.5449
 -84.523
 -84.6116
 -84.4098
 -84.4845
 -84.4317
 -84.4055
 -85.2637
 -85.2508
 -85.2648
 -85.2636
 -82.3599
 -82.5996
 -82.7974
 -82.896
 -82.7014
 -82.9333
 -82.8288
 -85.2064
 -85.2173
 -85.2321
 -85.2403
 -83.32
 -83.4539
 -83.3888
 -83.4883
 -85.3162
 -85.3123
 -85.3155
 -85.3149
 -85.2796
 -85.2756
 -85.2794
 -85.2721
 -84.053
 -84.1156
 -84.0137
 -84.0659
 -85.1332
 -85.142
 -85.1364
 -85.1122
 -83.4517
 -83.5287
 -83.6534
 -83.6808
 -85.2168
 -85.207
 -85.2086
 -82.8049
 -82.9199
 -82.775
 -82.8411
 -85.0103
 -84.9893
 -85.0164
 -85.0298
 -83.9034
 -83.9342
 -85.1866
 -85.2152
 -85.2022
 -85.2019
 -85.2327
 -85.2293
 -85.2188
 -84.494
 -84.6081
 -84.5167
 -85.2384
 -85.2406
 -85.246
 -85.2508
 -77.7899
 -77.904
 -78.4338
 -78.3801
 -83.287
 -83.3849
 -83.4679
 -83.5654
 -84.9865
 -84.934
 -84.9414
 -84.9829
 -85.2868
 -85.2907
 -85.2848
 -85.2926
 -85.2713
 -85.2789
 -85.2789
 -85.2742
 -85.2776
 -85.2732
 -85.2783
 -85.2874
 -85.291
 -83.5294
 -83.6127
 -83.5011
 -83.6558
 -82.7067
 -82.7527
 -82.4341
 -82.6749
 -83.6405
 -83.6407
 -83.9721
 -84.1125
 -84.0152
 -83.9603
 -84.3099
 -84.2925
 -84.4009
 -84.29
 -83.1443
 -83.1483
 -83.0042
 -84.6999
 -84.6584
 -84.664
 -84.6474
 -85.3438
 -85.343
 -85.3406
 -83.5657
 -83.492
 -83.5728
 -83.7594
 -85.2141
 -85.1931
 -85.2044
 -85.2098
 -85.0963
 -85.1175
 -85.1037
 -84.6072
 -84.5669
 -84.6335
 -85.144
 -85.1656
 -85.1495
 -85.2612
 -85.2572
 -85.1155
 -85.1154
 -85.1122
 -83.4463
 -83.5133
 -83.5391
 -83.3665
 -85.3027
 -85.3065
 -85.3039
 -85.3019
 -85.0265
 -85.0486
 -85.0417
 -70.5794
 -69.0066
 -68.4052
 -70.1857
 -81.3309
 -81.1573
 -84.8742
 -83.9961
 -84.1929
 -84.0593
 -83.9951
 -84.7988
 -84.8652
 -84.8642
 -85.2161
 -85.2151
 -85.2051
 -85.2186
 -85.322
 -85.3229
 -84.6673
 -84.6479
 -84.6503
 -84.5916
 -80.6797
 -80.0983
 -80.1386
 -80.4662
 -85.2791
 -85.2832
 -85.2835
 -85.2801
 -84.9306
 -84.9499
 -84.9182
 -60.7915
 -59.9471
 -59.2314
 -59.3354
 -82.7899
 -82.7465
 -82.6277
 -83.6205
 -83.7714
 -83.4973
 -83.6599
 -84.9926
 -85.0008
 -84.9865
 -85.0289
 -84.6384
 -84.685
 -82.4422
 -82.4839
 -82.4701
 -82.4781
 -84.9722
 -85.0065
 -83.7758
 -83.5018
 -83.5516
 -83.6505
 -84.1572
 -84.1986
 -84.0729
 -84.167
 -84.7077
 -84.781
 -84.7826
 -84.7359
 -83.3663
 -83.2538
 -83.0166
 -85.0758
 -85.0527
 -85.0852
 -85.0504
 -85.2093
 -85.2224
 -85.232
 -85.2163
 -85.1859
 -85.1911
 -85.1962
 -85.2012
 -80.0003
 -79.5803
 -79.7209
 -79.2676
 -84.741
 -84.6903
 -66.7936
 -65.7848
 -65.7928
 -64.7597
 -84.2014
 -84.1034
 -84.0252
 -85.3094
 -55.2704
 -55.7397
 -55.855
 -54.2473
 -84.4568
 -84.4777
 -84.4336
 -84.4328
 -83.921
 -84.0507
 -83.9409
 -85.1854
 -85.2021
 -85.1977
 -85.1871
 -85.1947
 -85.1877
 -85.2068
 -85.2078
 -85.1623
 -85.1755
 -85.1597
 -85.1506
 -83.5421
 -83.6625
 -83.4705
 -83.6435
 -82.3394
 -82.2482
 -81.9985
 -82.0769
 -85.026
 -85.035
 -85.0616
 -85.0292
 -84.2246
 -84.0313
 -84.2932
 -84.1969
 -85.3389
 -85.2893
 -85.289
 -84.9446
 -84.9487
 -84.2021
 -84.111
 -84.1418
 -85.2969
 -85.3053
 -85.3011
 -85.2982
 -84.3878
 -84.3512
 -84.9814
 -84.9469
 -73.2817
 -74.5203
 -73.3284
 -74.5857
 -83.5074
 -83.433
 -83.3174
 -83.3804
 -84.9602
 -85.0075
 -84.9771
 -84.9859
 -75.0558
 -74.2439
 -74.9939
 -75.3482
 -85.3228
 -85.3212
 -85.3262
 -85.3236
 -85.2943
 -85.288
 -85.3121
 -85.3077
 -85.302
 -85.3131
 -85.2254
 -85.2354
 -83.9664
 -83.9981
 -83.8788
 -56.6404
 -57.8348
 -56.3003
 -56.5623
 -76.4163
 -76.9863
 -77.171
 -76.5659
 -85.2994
 -85.3035
 -85.2992
 -85.2968
 -85.1264
 -85.148
 -85.1304
 -84.8255
 -84.762
 -84.7241
 -84.7779
 -83.676
 -83.9178
 -83.7005
 -83.6534
 -85.2498
 -85.2577
 -85.2596
 -85.3006
 -84.7035
 -84.7885
 -83.2402
 -83.3099
 -85.1024
 -85.1372
 -85.1028
 -85.1147
 -82.2975
 -81.9693
 -82.395
 -81.965
 -82.418
 -82.1969
 -82.2779
 -59.03
 -60.856
 -60.3138
 -60.0962
 -83.5418
 -83.6496
 -83.6597
 -83.7774
 -85.2688
 -85.2703
 -85.2476
 -85.2546
 -85.2539
 -85.2543
 -83.3774
 -83.3548
 -83.5154
 -83.2997
 -85.2008
 -85.1926
 -85.2067
 -85.1276
 -85.133
 -85.1322
 -85.1113
 -85.252
 -85.2534
 -85.2433
 -85.2579
 -83.743
 -83.8931
 -83.841
 -83.7572
 -85.3133
 -85.3068
 -84.4042
 -70.9012
 -71.6885
 -72.1362
 -72.8259
 -85.1864
 -85.1872
 -85.1975
 -76.9599
 -76.3002
 -76.3066
 -76.0016
 -85.0675
 -85.0638
 -85.0527
 -85.079
 -82.0894
 -82.0781
 -81.8262
 -82.1328
 -83.127
 -83.0607
 -83.2028
 -83.2141
 -85.0529
 -85.0699
 -85.065
 -84.0208
 -84.0539
 -84.0037
 -83.9095
 -85.059
 -85.0432
 -85.0673
 -85.016
 -84.8872
 -84.8762
 -85.2023
 -85.2075
 -85.2082
 -85.1223
 -85.1256
 -85.0958
 -71.281
 -71.482
 -72.5993
 -71.5572
 -82.5036
 -82.6969
 -82.3896
 -82.7691
 -85.2489
 -85.2335
 -85.2392
 -85.2377
 -85.2461
 -85.2457
 -83.1285
 -83.5211
 -83.1707
 -85.1314
 -85.1086
 -85.1206
 -85.103
 -85.1251
 -85.1226
 -85.1108
 -83.6291
 -83.5493
 -83.6528
 -83.6679
 -85.2934
 -85.2962
 -84.0662
 -84.0202
 -84.0646
 -84.1627
 -83.5103
 -83.5302
 -83.5942
 -85.1567
 -85.1634
 -84.6141
 -84.5526
 -84.6523
 -84.6801
 -82.5912
 -82.5398
 -85.0584
 -85.0598
 -84.1066
 -83.8683
 -83.8824
 -84.0263
 -84.7222
 -84.7157
 -84.6866
 -84.7698
 -84.7167
 -84.6829
 -84.7286
 -78.9249
 -78.7925
 -78.6357
 -79.6903
 -76.1926
 -76.3185
 -76.86
 -76.8951
 -85.0797
 -85.0565
 -85.0269
 -85.0551
 -85.2593
 -85.26
 -85.2521
 -85.2515
