 -84.4483
 -84.5751
 -84.5597
 -84.6167
 -85.2913
 -85.2953
 -85.2985
 -85.3014
 -85.2335
 -85.2215
 -85.2351
 -85.2269
 -85.2426
 -85.2262
 -85.2334
 -85.2225
 -85.3655
 -85.368
 -85.3632
 -85.3619
 -85.3567
 -85.3536
 -85.3593
 -85.3548
 -83.8935
 -83.7927
 -83.8252
 -83.8779
 -84.1495
 -84.1672
 -84.171
 -84.133
 -85.3547
 -85.353
 -85.3484
 -85.3522
 -85.3547
 -85.3552
 -85.3541
 -85.3596
 -83.3708
 -83.285
 -83.4104
 -83.4307
 -85.2052
 -85.2098
 -85.1948
 -85.2028
 -84.7607
 -84.7647
 -84.721
 -84.8015
 -85.3154
 -85.3056
 -85.3015
 -85.3091
 -85.154
 -85.1426
 -85.1557
 -85.1691
 -84.1925
 -84.1225
 -84.25
 -84.1342
 -85.3454
 -85.3478
 -85.3442
 -85.3483
 -85.2444
 -85.2359
 -85.2474
 -85.2402
 -85.1769
 -85.1872
 -85.1885
 -85.2002
 -85.3299
 -85.3308
 -85.3335
 -85.336
 -83.9412
 -83.7914
 -83.9542
 -83.8443
 -85.3724
 -85.3736
 -85.3764
 -85.3757
 -76.1259
 -75.7323
 -75.3442
 -76.1165
 -85.2982
 -85.2994
 -85.2906
 -85.2901
 -85.1332
 -85.1131
 -85.1193
 -85.1368
 -85.2057
 -85.2119
 -85.2044
 -85.1999
 -85.0197
 -85.0576
 -85.0734
 -85.0213
 -84.0904
 -83.9925
 -84.0943
 -84.0467
 -84.7578
 -84.7413
 -84.6979
 -84.7336
 -85.3088
 -85.3088
 -85.3037
 -85.2993
 -85.1439
 -85.1653
 -85.1341
 -85.1482
 -84.7629
 -84.8003
 -84.8043
 -84.7625
 -85.281
 -85.2728
 -85.2847
 -85.2742
 -85.2893
 -85.286
 -85.2842
 -85.2873
 -84.8098
 -84.7771
 -84.8253
 -84.7399
 -84.3695
 -84.3482
 -84.3488
 -84.3607
 -85.275
 -85.2602
 -85.2744
 -85.2695
 -82.5385
 -82.7199
 -82.6884
 -82.861
 -85.2799
 -85.2794
 -85.2932
 -85.2887
 -85.378
 -85.3757
 -85.3772
 -85.3748
 -85.2264
 -85.2227
 -85.2292
 -85.21
 -85.3017
 -85.3078
 -85.3044
 -85.3043
 -83.4115
 -83.3669
 -83.4509
 -83.2923
 -85.2612
 -85.2547
 -85.2577
 -85.2685
 -85.3526
 -85.3518
 -85.356
 -85.3546
 -84.6416
 -84.6882
 -84.6691
 -84.6474
 -85.2703
 -85.2819
 -85.2792
 -85.2776
 -84.1329
 -84.2095
 -84.0909
 -83.9732
 -84.88
 -84.8484
 -84.8347
 -84.8123
 -85.1802
 -85.1661
 -85.1603
 -85.1547
 -83.9668
 -83.9391
 -83.8909
 -83.93
 -85.1684
 -85.1537
 -85.1509
 -85.1657
 -84.9132
 -84.8472
 -84.8952
 -84.822
 -85.2282
 -85.2353
 -85.2244
 -85.2359
 -84.7132
 -84.7604
 -84.741
 -84.8022
 -85.2068
 -85.2036
 -85.2178
 -85.1989
 -85.2772
 -85.2814
 -85.2847
 -85.288
 -85.2961
 -85.2937
 -85.2981
 -85.2858
 -84.6077
 -84.6333
 -84.519
 -84.6573
 -84.9564
 -84.9377
 -84.9569
 -84.9985
 -77.706
 -77.0418
 -76.7941
 -77.2753
 -84.7649
 -84.7647
 -84.7104
 -84.7499
 -85.1557
 -85.1751
 -85.1708
 -85.1773
 -84.9371
 -84.9269
 -84.9866
 -84.8948
 -84.9485
 -84.9969
 -84.9382
 -84.9879
 -84.1645
 -84.0977
 -84.1937
 -84.1841
 -85.3367
 -85.3422
 -85.343
 -85.3358
 -85.3669
 -85.3682
 -85.3692
 -85.3698
 -85.1987
 -85.215
 -85.1831
 -85.193
 -84.7749
 -84.7634
 -84.811
 -84.7513
 -85.2717
 -85.2755
 -85.2814
 -85.2704
 -83.9199
 -83.6989
 -83.7672
 -83.7578
 -83.8566
 -83.7446
 -83.7317
 -83.9074
 -77.1018
 -76.6473
 -77.4115
 -77.2994
 -85.2276
 -85.2355
 -85.2338
 -85.2445
 -84.5112
 -84.6251
 -84.6407
 -84.5355
 -84.3908
 -84.3045
 -84.3726
 -84.4836
 -85.3701
 -85.3729
 -85.3716
 -85.3734
 -84.4071
 -84.3927
 -84.3336
 -84.4085
 -84.4725
 -84.4232
 -84.3626
 -84.4614
 -84.6112
 -84.6618
 -84.6159
 -84.5618
 -85.0312
 -85.0192
 -85.05
 -85.0399
 -84.5243
 -84.5927
 -84.5501
 -84.5658
 -84.8673
 -84.9014
 -84.9127
 -84.8806
 -84.9432
 -84.9351
 -84.9233
 -84.9023
 -84.2646
 -84.1654
 -84.3102
 -84.2145
 -74.8809
 -74.5257
 -75.9508
 -76.0256
 -84.062
 -84.1037
 -84.1604
 -84.1081
 -85.2241
 -85.2223
 -85.2342
 -85.2101
 -85.2314
 -85.2312
 -85.2429
 -85.2367
 -85.2939
 -85.2937
 -85.2892
 -85.3018
 -84.1044
 -84.0978
 -84.1135
 -84.1448
 -85.3733
 -85.3735
 -85.3715
 -85.3758
 -85.2943
 -85.3011
 -85.2947
 -85.2955
 -82.8702
 -82.8267
 -82.6264
 -82.7062
 -84.8814
 -84.8866
 -84.8593
 -84.946
 -84.4644
 -84.5063
 -84.4066
 -84.4439
 -84.4959
 -84.4533
 -84.4618
 -84.1361
 -84.125
 -84.1221
 -84.0959
 -85.2581
 -85.2524
 -85.2483
 -85.2634
 -85.0276
 -85.0702
 -85.0485
 -85.0224
 -85.2464
 -85.2564
 -85.253
 -84.7606
 -84.6833
 -84.7263
 -84.6927
 -85.1137
 -85.1227
 -85.1183
 -85.0949
 -85.3259
 -85.3226
 -85.3223
 -85.3305
 -83.9418
 -83.9768
 -84.1579
 -84.0842
 -84.246
 -84.1679
 -84.1406
 -84.1855
 -85.2372
 -85.2236
 -85.2187
 -85.223
 -85.282
 -85.2771
 -85.2923
 -85.2907
 -83.2911
 -83.2339
 -83.1497
 -82.994
 -84.1727
 -84.1938
 -84.3324
 -84.2918
 -84.9302
 -84.9795
 -85.0043
 -84.945
 -85.3591
 -85.3623
 -85.3601
 -85.361
 -85.226
 -85.2392
 -85.24
 -85.2362
 -85.1051
 -85.0595
 -85.106
 -85.102
 -79.5374
 -78.8048
 -79.6347
 -79.5506
 -85.0587
 -85.0211
 -85.0612
 -85.0842
 -85.3228
 -85.3181
 -85.3233
 -85.3136
 -84.5191
 -84.3863
 -84.5874
 -84.5266
 -84.4454
 -84.4634
 -84.376
 -84.4233
 -84.3097
 -84.2083
 -84.2403
 -84.2753
 -83.1347
 -83.1102
 -83.1022
 -83.169
 -84.3695
 -84.2413
 -84.241
 -84.239
 -85.2449
 -85.2416
 -85.2437
 -85.2351
 -83.8403
 -83.8664
 -83.922
 -83.9648
 -85.356
 -85.3527
 -85.3541
 -85.3556
 -83.7931
 -83.6274
 -83.6527
 -83.7762
 -85.3246
 -85.3161
 -85.3232
 -85.3183
 -85.0446
 -85.0152
 -85.0137
 -85.0355
 -84.8232
 -84.8537
 -84.8829
 -84.8273
 -84.6958
 -84.7052
 -84.7675
 -84.7118
 -84.5804
 -84.5768
 -84.536
 -84.5
 -85.3717
 -85.3738
 -85.3745
 -85.3745
 -84.6479
 -84.627
 -84.6429
 -84.6301
 -85.3779
 -85.376
 -85.3772
 -85.3746
 -85.2813
 -85.2822
 -85.2915
 -85.2849
 -81.3865
 -81.8787
 -81.7635
 -81.3219
 -85.3582
 -85.3571
 -85.3609
 -85.3627
 -84.1889
 -84.3314
 -84.223
 -84.1235
 -80.4979
 -80.3066
 -80.2247
 -80.4075
 -85.3152
 -85.3144
 -85.3116
 -85.3153
 -85.3669
 -85.3695
 -85.3681
 -85.3676
 -85.1423
 -85.1572
 -85.1379
 -85.1422
 -85.3028
 -85.295
 -85.3053
 -85.2989
 -84.5031
 -84.4142
 -84.456
 -84.4553
 -85.1952
 -85.1909
 -85.1988
 -85.2151
 -84.8261
 -84.7746
 -84.8227
 -84.8266
 -84.1867
 -84.2211
 -84.1769
 -84.1717
 -83.5028
 -83.4781
 -83.4818
 -83.5894
 -85.0204
 -85.0036
 -85.0409
 -84.993
 -85.1114
 -85.1191
 -85.1059
 -85.0902
 -84.4251
 -84.3992
 -84.4556
 -84.5116
 -84.4339
 -84.3456
 -84.4426
 -84.417
 -85.2526
 -85.2518
 -85.2406
 -85.2444
 -85.3572
 -85.357
 -85.3607
 -85.361
 -85.3509
 -85.347
 -85.3515
 -85.3523
 -85.3498
 -85.3437
 -85.3449
 -85.3474
 -85.2527
 -85.2491
 -85.2575
 -85.2445
 -84.4161
 -84.3253
 -84.3984
 -84.3698
 -84.4431
 -84.4846
 -84.5038
 -84.5256
 -85.0865
 -85.0885
 -85.0281
 -85.0387
 -85.2921
 -85.2866
 -85.3011
 -85.2964
 -85.2888
 -85.2832
 -85.285
 -85.2914
 -85.186
 -85.1702
 -85.1784
 -85.1807
 -85.2133
 -85.2243
 -85.2049
 -85.2115
 -83.4312
 -83.4024
 -83.469
 -83.6195
 -69.3413
 -68.6888
 -69.4185
 -67.7889
 -84.5617
 -84.5504
 -84.4378
 -84.5001
 -74.0801
 -75.3938
 -75.0147
 -84.5972
 -84.5826
 -84.6238
 -84.5123
 -85.3272
 -85.3234
 -85.3258
 -85.3211
 -85.1623
 -85.1759
 -85.1767
 -85.1898
 -85.3584
 -85.3565
 -85.3615
 -85.3564
 -84.4217
 -84.4375
 -84.3592
 -84.4382
 -85.2734
 -85.2672
 -85.2789
 -85.2767
 -85.1887
 -85.194
 -85.1713
 -85.1746
 -85.367
 -85.3687
 -85.3702
 -85.3659
 -85.3221
 -85.3217
 -85.3241
 -85.3302
 -84.5492
 -84.6293
 -84.5748
 -84.5456
 -85.2614
 -85.2592
 -85.2501
 -85.2579
 -85.3303
 -85.3207
 -85.327
 -85.3215
 -80.2664
 -79.4982
 -80.0138
 -79.5777
 -85.1496
 -85.162
 -85.1684
 -85.1699
 -85.3278
 -85.3286
 -85.3337
 -85.3301
 -85.2431
 -85.2544
 -85.2341
 -85.2588
 -85.3134
 -85.3063
 -85.315
 -85.3128
 -84.3926
 -84.4686
 -84.5053
 -84.532
 -85.3187
 -85.3315
 -85.3192
 -85.3294
 -84.9715
 -84.9974
 -84.9138
 -84.9595
 -85.0611
 -85.0763
 -85.0948
 -85.0509
 -85.3187
 -85.3198
 -85.3138
 -85.3211
 -85.3785
 -85.3766
 -85.3769
 -85.3784
 -83.5658
 -83.6544
 -83.7057
 -83.7473
 -84.8317
 -84.8637
 -84.8956
 -84.844
 -85.1853
 -85.1797
 -85.1648
 -85.1702
 -85.324
 -85.3276
 -85.3273
 -85.3274
 -84.6716
 -84.6319
 -84.6398
 -84.6419
 -83.6821
 -83.8715
 -83.944
 -83.726
 -85.2748
 -85.2751
 -85.2652
 -85.2636
 -85.2209
 -85.2341
 -85.2231
 -85.2267
 -85.3608
 -85.3628
 -85.3654
 -85.3605
 -84.0703
 -84.2006
 -84.0363
 -84.1642
 -85.3673
 -85.3699
 -85.3693
 -85.3675
 -84.7626
 -84.8487
 -84.8255
 -84.798
 -70.4112
 -70.0864
 -70.4283
 -70.8914
 -85.344
 -85.3484
 -85.3494
 -85.3481
 -85.2634
 -85.2702
 -85.259
 -85.2446
 -85.3531
 -85.353
 -85.3506
 -85.3495
 -85.0915
 -85.0616
 -85.0941
 -85.0995
 -85.0393
 -85.0668
 -85.071
 -85.05
 -85.3104
 -85.3025
 -85.3055
 -85.305
 -84.415
 -84.4452
 -84.3783
 -84.4272
 -84.3105
 -84.3658
 -84.364
 -84.3425
 -77.9398
 -77.513
 -77.6796
 -77.4203
 -85.1675
 -85.1803
 -85.1875
 -85.1968
 -85.1178
 -85.0974
 -85.1329
 -85.1129
 -85.2527
 -85.2352
 -85.2424
 -85.2551
 -84.8313
 -84.8896
 -84.8939
 -84.8118
 -85.3563
 -85.3554
 -85.3587
 -85.353
 -85.3661
 -85.3712
 -85.3666
 -85.3651
 -85.2488
 -85.2574
 -85.2664
 -85.2658
 -62.2411
 -62.1422
 -62.4481
 -62.8589
 -84.9323
 -84.9074
 -84.9457
 -84.8918
 -84.9826
 -84.968
 -84.9318
 -84.9689
 -84.9508
 -84.9514
 -84.9148
 -84.9095
 -85.3103
 -85.3074
 -85.3155
 -85.3053
 -80.0345
 -80.5095
 -79.5473
 -79.9542
 -75.4283
 -75.668
 -74.5073
 -74.5482
 -85.3038
 -85.2976
 -85.3056
 -85.2973
 -84.701
 -84.773
 -84.6688
 -84.7775
 -84.9478
 -84.9479
 -84.9625
 -84.9642
 -85.2449
 -85.2321
 -85.2341
 -85.2182
 -84.3627
 -84.4032
 -84.4388
 -84.3968
 -85.3253
 -85.317
 -85.3196
 -85.3232
 -84.8427
 -84.7314
 -84.799
 -84.7195
 -84.7156
 -84.6913
 -84.6312
 -84.7061
 -83.6821
 -83.5763
 -83.7831
 -83.5293
 -84.9658
 -85.0236
 -84.9734
 -85.0182
 -85.3341
 -85.3373
 -85.3373
 -85.3328
 -85.263
 -85.2763
 -85.2792
 -85.2677
 -84.2271
 -84.1993
 -84.3089
 -84.3085
 -84.642
 -84.7249
 -84.7281
 -84.6395
 -85.3536
 -85.3548
 -85.357
 -85.3568
 -85.3231
 -85.3192
 -85.3222
 -85.3189
 -84.9714
 -84.9572
 -84.9295
 -84.9544
 -84.0956
 -84.1106
 -84.1054
 -84.1375
 -81.7163
 -82.3557
 -82.3022
 -81.8857
 -85.2573
 -85.2471
 -85.2399
 -85.2535
 -83.7203
 -83.5278
 -83.7111
 -83.2603
 -85.3376
 -85.3322
 -85.3314
 -85.337
 -85.2092
 -85.2256
 -85.2138
 -85.198
 -85.3396
 -85.3385
 -85.3367
 -85.3371
 -85.2796
 -85.2705
 -85.2691
 -85.274
 -84.9905
 -84.9765
 -84.9841
 -85.0129
 -84.4549
 -84.3351
 -84.3652
 -84.4122
 -82.2442
 -82.7205
 -82.2445
 -82.3736
 -83.2653
 -82.9116
 -83.2837
 -83.1495
 -84.3153
 -84.1575
 -84.1226
 -84.1474
 -85.0809
 -85.0901
 -85.0788
 -85.0381
 -85.1015
 -85.0922
 -85.1144
 -85.0743
 -85.1252
 -85.1009
 -85.1468
 -85.1213
 -85.2722
 -85.2652
 -85.2742
 -85.273
 -79.5899
 -78.9753
 -78.9254
 -78.8707
 -85.1851
 -85.1876
 -85.1793
 -85.1955
 -84.2124
 -84.078
 -84.1308
 -84.1654
 -84.9294
 -84.9846
 -84.9481
 -84.9824
 -85.3639
 -85.3585
 -85.3636
 -85.3627
 -85.0257
 -85.0057
 -85.0047
 -84.9938
 -83.8963
 -83.8399
 -83.8741
 -83.7131
 -84.8789
 -84.8853
 -84.9113
 -84.9361
 -84.4916
 -84.5367
 -84.5271
 -84.4749
 -84.9852
 -84.9453
 -85.0047
 -84.9805
 -79.9552
 -79.5002
 -79.6852
 -79.9591
 -84.9677
 -84.966
 -85.0103
 -85.0127
 -85.2689
 -85.266
 -85.2722
 -85.2686
 -85.2056
 -85.2071
 -85.2155
 -85.2066
 -85.3504
 -85.3429
 -85.3497
 -85.3458
 -84.6429
 -84.6247
 -84.6771
 -84.6398
 -84.3737
 -84.4482
 -84.3873
 -84.5371
 -85.3417
 -85.3361
 -85.3431
 -85.3422
 -84.4967
 -84.4948
 -84.5934
 -84.4967
 -85.3359
 -85.3333
 -85.3381
 -85.3334
 -85.1458
 -85.1743
 -85.1533
 -85.1616
 -85.0892
 -85.0464
 -85.0866
 -85.0993
 -84.4735
 -84.5405
 -84.5211
 -84.4646
 -85.0307
 -85.021
 -85.041
 -85.0067
 -85.3395
 -85.3366
 -85.34
 -85.34
 -70.3236
 -70.3882
 -70.57
 -69.4816
 -84.0734
 -84.0602
 -84.061
 -84.0796
 -83.8804
 -83.8839
 -83.8774
 -83.7902
 -84.7207
 -84.7388
 -84.6947
 -84.7758
 -84.945
 -84.9118
 -84.941
 -84.9196
 -84.6656
 -84.6376
 -84.6038
 -84.6882
 -85.3617
 -85.3594
 -85.3656
 -85.3579
 -84.4159
 -84.3701
 -84.3883
 -84.47
 -85.2547
 -85.2581
 -85.2633
 -85.2535
 -85.0607
 -85.3163
 -85.3082
 -85.3121
 -85.3125
 -85.223
 -85.2314
 -85.2395
 -85.2366
 -83.4318
 -83.6222
 -83.6807
 -83.5423
 -84.7838
 -84.7547
 -84.7907
 -84.832
 -84.4367
 -84.3401
 -84.4227
 -84.4792
 -85.3265
 -85.3219
 -85.3212
 -85.3217
 -84.9901
 -84.9201
 -84.9695
 -84.9456
 -85.3334
 -85.3355
 -85.3284
 -85.3272
 -85.2742
 -85.2812
 -85.269
 -85.2837
 -83.585
 -83.6641
 -83.6009
 -83.7461
 -84.2699
 -84.1298
 -84.3628
 -84.2915
 -85.2807
 -85.2866
 -85.2861
 -85.2798
 -85.0302
 -84.9789
 -85.005
 -83.8797
 -83.7708
 -83.8065
 -83.9448
 -85.2508
 -85.231
 -85.243
 -85.2306
 -84.529
 -84.4447
 -84.4257
 -84.528
 -85.051
 -84.9965
 -85.0208
 -85.0511
 -85.3481
 -85.3479
 -85.3426
 -85.3477
 -84.699
 -84.6721
 -84.6442
 -84.6973
 -85.3194
 -85.3137
 -85.3196
 -85.3214
 -85.1084
 -85.0971
 -85.1132
 -85.0837
 -85.2951
 -85.2908
 -85.2844
 -85.289
 -85.3445
 -85.3447
 -85.349
 -85.3467
 -84.7221
 -84.717
 -84.7525
 -84.7514
 -69.5583
 -71.4169
 -70.8145
 -71.8891
 -85.3617
 -85.3586
 -85.3599
 -85.358
 -85.2391
 -85.2363
 -85.2231
 -85.2285
 -84.0317
 -84.0423
 -84.224
 -84.0784
 -84.8972
 -84.915
 -84.9393
 -84.8887
 -80.8186
 -80.9556
 -81.0599
 -80.5776
 -85.3371
 -85.3391
 -85.3454
 -85.3392
 -84.1825
 -84.1463
 -84.1665
 -84.1698
 -85.1464
 -85.1622
 -85.1354
 -85.1503
 -84.2131
 -83.9824
 -84.1527
 -84.1803
 -85.3701
 -85.3692
 -85.37
 -85.3649
 -85.3699
 -85.3698
 -85.3671
 -85.3655
 -85.2672
 -85.255
 -85.2544
 -85.2658
 -85.1641
 -85.1723
 -85.1638
 -85.1533
 -85.1759
 -83.6717
 -83.7351
 -83.4442
 -83.668
 -84.1405
 -84.0817
 -84.057
 -84.204
 -85.249
 -85.261
 -85.2622
 -85.2595
 -84.2269
 -84.2848
 -84.2863
 -84.2245
 -84.4351
 -84.4222
 -84.4023
 -84.4964
 -85.2632
 -85.2674
 -85.2621
 -85.2555
 -84.7732
 -84.8292
 -84.7706
 -84.8314
 -85.2611
 -85.2623
 -85.2669
 -85.2719
 -84.4909
 -84.4664
 -84.3855
 -84.5119
 -84.7484
 -84.8032
 -84.7955
 -84.8042
 -84.9879
 -85.014
 -84.9671
 -85.0121
 -85.1752
 -85.1937
 -85.1772
 -85.1946
 -85.3048
 -85.3011
 -85.3102
 -85.3115
 -85.1207
 -85.1137
 -85.1
 -85.1012
 -85.1405
 -85.1411
 -85.1566
 -85.1462
 -83.6402
 -83.6361
 -83.6982
 -83.7406
 -85.2486
 -85.2531
 -85.2551
 -85.2545
 -85.0926
 -85.1015
 -85.107
 -85.0853
 -85.1367
 -85.1406
 -85.1221
 -85.1384
 -84.8643
 -84.8841
 -84.8155
 -84.8511
 -83.9085
 -83.9008
 -83.9614
 -83.8205
 -85.2967
 -85.2979
 -85.3036
 -85.3013
 -83.9504
 -83.8375
 -83.8838
 -84.0321
 -85.3658
 -85.3656
 -85.369
 -85.3675
 -85.3252
 -85.3213
 -85.3291
 -85.3272
 -85.332
 -85.3319
 -85.3315
 -85.33
 -85.3179
 -85.3184
 -85.3164
 -85.3217
 -85.27
 -85.2762
 -85.2652
 -85.2771
 -82.0023
 -81.7603
 -81.2411
 -85.1391
 -85.1089
 -85.1369
 -85.1233
 -85.3169
 -85.3151
 -85.3126
 -85.3179
 -84.828
 -84.7663
 -84.8036
 -84.8204
 -84.585
 -84.5859
 -84.5622
 -84.6049
 -85.2863
 -85.2872
 -85.2959
 -85.2788
 -84.9733
 -84.9587
 -84.99
 -85.0041
 -84.6522
 -84.6551
 -84.6499
 -84.6217
 -85.3587
 -85.3625
 -85.2244
 -85.2191
 -85.2086
 -85.2055
 -85.0004
 -85.004
 -84.9746
 -85.1851
 -85.1881
 -85.181
 -85.1699
 -82.2503
 -82.247
 -82.5852
 -82.5567
 -85.3201
 -85.3256
 -85.3246
 -85.3196
 -85.1826
 -85.1777
 -85.1676
 -85.1682
 -84.8166
 -84.759
 -84.7819
 -84.8241
 -85.0999
 -85.0671
 -85.0798
 -85.0877
 -84.2012
 -84.1813
 -84.183
 -84.1797
 -83.6951
 -83.9036
 -83.759
 -83.7994
 -84.9264
 -84.963
 -84.9638
 -84.9448
 -83.9028
 -83.8545
 -83.9096
 -84.0268
 -84.9669
 -84.9473
 -84.9537
 -84.9379
 -85.327
 -85.3267
 -85.3204
 -85.3192
 -84.2695
 -84.3131
 -84.338
 -84.3059
 -77.7214
 -78.468
 -77.4737
 -78.0697
 -85.1954
 -85.1665
 -85.191
 -85.1857
 -84.8837
 -84.915
 -84.8792
 -84.9172
 -84.1633
 -84.1419
 -84.2178
 -84.1945
 -85.0265
 -84.9979
 -85.0313
 -85.0381
 -85.3562
 -85.3544
 -85.3572
 -85.3561
 -84.5162
 -84.5169
 -84.4829
 -84.5289
 -85.2275
 -85.2121
 -85.2113
 -85.2114
 -84.8858
 -84.916
 -84.8814
 -84.9533
 -85.2739
 -85.2778
 -85.2755
 -85.2845
 -85.3311
 -85.3293
 -85.3327
 -85.3282
 -84.0903
 -84.1777
 -84.119
 -84.2737
 -84.6807
 -84.7195
 -84.7103
 -84.7034
 -85.1567
 -85.1545
 -85.1324
 -85.1418
 -84.115
 -84.1358
 -84.132
 -84.1613
 -71.0635
 -70.3042
 -70.4139
 -70.9625
 -85.0841
 -85.0548
 -85.0678
 -85.0462
 -68.5254
 -68.3457
 -68.4055
 -69.4165
 -70.7813
 -72.2059
 -71.7981
 -71.0406
 -82.3589
 -82.596
 -82.4901
 -82.2538
 -85.2428
 -85.2333
 -85.2262
 -85.2182
 -85.2427
 -85.2479
 -85.251
 -85.2569
 -85.2572
 -85.2518
 -85.2569
 -85.2447
 -85.2091
 -85.1918
 -85.1968
 -85.2101
 -80.9187
 -80.5789
 -80.8993
 -80.8842
 -84.3181
 -84.2875
 -84.3684
 -84.3311
 -83.9342
 -83.8468
 -83.9239
 -83.7978
 -84.7752
 -84.8314
 -84.7802
 -84.8338
 -85.1116
 -85.098
 -85.1151
 -85.0989
 -85.2794
 -85.2753
 -85.2718
 -85.2785
 -84.3194
 -84.4411
 -84.498
 -84.3628
 -85.2461
 -85.0703
 -85.0966
 -85.0954
 -85.0819
 -85.3679
 -85.3694
 -85.3727
 -85.3705
 -84.9673
 -84.9835
 -84.9993
 -84.9756
 -85.3413
 -85.3473
 -85.3427
 -84.289
 -84.3192
 -84.3568
 -84.2764
 -74.5182
 -75.4281
 -74.9084
 -75.3641
 -85.0285
 -85.0309
 -85.0764
 -85.0082
 -84.8495
 -84.7603
 -84.7785
 -84.7719
 -84.0283
 -84.0822
 -84.1586
 -84.2074
 -84.1457
 -84.1819
 -84.1085
 -84.1996
 -81.9931
 -81.7378
 -81.9338
 -81.9551
 -85.1788
 -85.1715
 -85.1771
 -85.2031
 -85.0565
 -85.0923
 -85.0426
 -85.0763
 -84.6924
 -84.6048
 -84.6885
 -84.649
 -84.9361
 -84.9248
 -84.9827
 -85.2739
 -85.2711
 -85.2702
 -84.3283
 -84.3506
 -84.1942
 -84.1645
 -83.1919
 -83.147
 -83.1458
 -83.1831
 -84.4759
 -84.5395
 -84.5176
 -84.4617
 -82.8625
 -82.5783
 -82.9404
 -82.494
 -85.3077
 -85.3152
 -85.3095
 -85.3124
 -85.2598
 -85.2668
 -85.2682
 -85.2753
 -84.1669
 -84.14
 -84.1538
 -84.1402
 -81.0441
 -80.4625
 -80.9975
 -81.1079
 -85.1024
 -85.0632
 -85.0998
 -85.0883
 -85.3566
 -85.3513
 -85.357
 -85.3521
 -82.7974
 -82.7604
 -82.6393
 -82.7761
 -85.2286
 -85.2177
 -85.2128
 -85.2319
 -77.6857
 -77.1224
 -77.5423
 -77.1623
 -85.272
 -85.2744
 -85.272
 -85.2816
 -84.8132
 -84.7609
 -84.839
 -84.749
 -85.3102
 -85.311
 -85.3151
 -85.3163
 -84.2566
 -84.2817
 -84.2876
 -84.3529
 -84.7062
 -84.6543
 -84.6579
 -84.6618
 -84.1644
 -84.134
 -84.2734
 -84.2386
 -84.539
 -84.5191
 -84.6141
 -84.4459
 -85.0969
 -85.1164
 -85.1182
 -85.0939
 -84.9375
 -84.9055
 -84.9501
 -84.9494
 -85.3141
 -85.3089
 -85.3026
 -85.3024
 -85.3639
 -85.3664
 -85.3609
 -85.3617
 -84.8393
 -84.8335
 -84.7973
 -84.8287
 -85.3251
 -85.322
 -85.3216
 -85.3281
 -85.2611
 -85.2723
 -85.2799
 -85.2691
 -80.0007
 -79.8116
 -79.2279
 -80.0449
 -83.6937
 -83.9459
 -83.8846
 -83.8166
 -84.811
 -84.7813
 -84.7671
 -84.7745
 -82.0279
 -81.8182
 -81.7691
 -81.4985
 -85.1142
 -85.1362
 -85.1346
 -85.1314
 -85.3001
 -85.3139
 -85.3062
 -85.307
 -82.1933
 -82.6631
 -82.2154
 -82.1801
 -84.9463
 -84.9784
 -84.9613
 -84.9634
 -84.5901
 -84.5924
 -84.5944
 -84.5584
 -70.9982
 -71.9405
 -71.6756
 -70.8341
 -84.7959
 -84.789
 -84.7743
 -84.8337
 -85.0747
 -85.0948
 -85.0932
 -85.0958
 -85.2747
 -85.2859
 -85.2794
 -85.2872
 -84.5695
 -84.5917
 -84.62
 -85.0628
 -85.0558
 -85.044
 -85.062
 -84.6558
 -84.6831
 -84.7384
 -84.6882
 -85.2432
 -85.2325
 -85.2397
 -85.2404
 -85.2341
 -85.2455
 -85.2491
 -85.2408
 -85.3306
 -85.3251
 -85.3288
 -85.3238
 -84.283
 -84.3342
 -84.3773
 -84.3069
 -85.3506
 -85.3525
 -85.3546
 -85.3516
 -84.4656
 -84.5293
 -84.4817
 -84.4499
 -85.0548
 -85.0893
 -85.087
 -85.106
 -85.1191
 -85.0944
 -85.0968
 -85.088
 -69.7183
 -68.6958
 -69.5083
 -69.5887
 -84.5664
 -84.5111
 -84.5671
 -84.5756
 -85.0038
 -85.0095
 -85.0333
 -85.0677
 -84.9816
 -84.9974
 -84.9922
 -84.9588
 -85.3637
 -85.3638
 -85.3601
 -85.3643
 -84.4624
 -84.53
 -84.5675
 -84.4852
 -84.5925
 -84.5497
 -84.6102
 -84.5327
 -85.2722
 -85.2792
 -85.2715
 -85.2791
 -84.0896
 -84.0641
 -83.9874
 -83.972
 -84.1005
 -84.0672
 -84.1448
 -84.0697
 -85.2155
 -85.1956
 -85.2135
 -85.208
 -85.2475
 -85.2447
 -85.235
 -85.2454
 -85.1197
 -85.1182
 -85.1463
 -85.1421
 -84.5191
 -84.4863
 -85.1999
 -85.1851
 -85.2088
 -85.1886
 -84.5881
 -84.621
 -84.5985
 -84.6015
 -84.9103
 -84.9541
 -84.9658
 -84.9424
 -85.3415
 -85.3387
 -85.336
 -85.3431
 -84.8791
 -84.8918
 -84.9137
 -84.9206
 -85.2893
 -85.2967
 -85.3007
 -85.2868
 -84.1926
 -84.3989
 -84.3264
 -84.3928
 -84.8343
 -84.7929
 -84.7741
 -84.8087
 -85.0068
 -85.0516
 -85.0235
 -85.0516
 -84.3675
 -84.2977
 -84.2664
 -84.3107
 -77.8666
 -77.7525
 -77.6106
 -77.0737
 -85.3607
 -85.3603
 -85.3596
 -85.3609
 -82.7332
 -82.6332
 -82.7914
 -82.6258
 -85.1256
 -85.1377
 -85.1148
 -85.1181
 -77.5783
 -77.5047
 -78.2828
 -77.5852
 -85.191
 -85.2049
 -85.1912
 -85.1899
 -84.4916
 -84.4761
 -84.4571
 -84.4442
 -84.5086
 -84.5223
 -84.455
 -84.4928
 -85.07
 -85.0858
 -85.042
 -85.0788
 -85.3138
 -85.305
 -85.3107
 -85.3035
 -84.7833
 -84.8482
 -84.8314
 -84.8476
 -84.1558
 -84.1292
 -84.1579
 -84.188
 -85.3074
 -85.3169
 -85.3114
 -85.3184
 -84.2572
 -84.0666
 -84.2693
 -84.2615
 -84.7409
 -84.7979
 -84.7919
 -84.8174
 -85.2593
 -85.2747
 -85.2734
 -85.2651
 -85.0743
 -85.1019
 -85.1016
 -85.1012
 -84.9265
 -84.8846
 -84.924
 -84.9385
 -85.3391
 -85.3436
 -85.3455
 -85.3468
 -85.3246
 -85.3263
 -85.3267
 -85.3234
 -85.1584
 -85.1575
 -85.1316
 -85.1474
 -84.9513
 -84.9783
 -84.9478
 -85.0163
 -84.6015
 -84.6281
 -84.6477
 -84.7365
 -83.8989
 -83.8762
 -83.8058
 -85.2801
 -85.2882
 -85.2819
 -85.2924
 -76.6266
 -76.0895
 -75.5792
 -75.4391
 -85.2205
 -85.2007
 -85.2109
 -85.2131
 -84.3984
 -84.3048
 -84.3513
 -84.3563
 -84.2495
 -84.1984
 -84.2139
 -84.2132
 -85.3177
 -85.3109
 -85.3138
 -85.3236
 -85.1082
 -85.0893
 -85.1197
 -85.1002
 -84.9274
 -84.9141
 -84.5809
 -84.8691
 -84.917
 -84.8684
 -84.8942
 -78.084
 -78.5128
 -85.2053
 -85.2141
 -85.2241
 -83.2227
 -83.3706
 -83.0667
 -83.2601
 -85.2025
 -85.1849
 -85.1884
 -85.1884
 -84.7119
 -84.775
 -84.7611
 -84.765
 -84.5418
 -84.6328
 -84.5767
 -84.5744
 -85.3427
 -85.3431
 -85.3496
 -85.3455
 -83.4339
 -83.584
 -83.4119
 -83.5904
 -85.2117
 -85.2157
 -85.2147
 -85.2249
 -85.3485
 -85.3503
 -85.3446
 -85.3454
 -85.0861
 -85.0585
 -85.0947
 -85.0721
 -85.2011
 -85.1828
 -85.1943
 -85.1902
 -85.0246
 -85.0613
 -85.0421
 -84.9904
 -85.3711
 -85.3657
 -85.3691
 -85.3642
 -85.3674
 -85.3669
 -85.3652
 -85.3635
 -85.3651
 -85.3638
 -85.3634
 -85.3652
 -84.9115
 -84.866
 -84.9037
 -84.9022
 -85.1502
 -85.1306
 -85.136
 -85.1512
 -84.9114
 -84.903
 -84.8719
 -84.8964
 -84.8723
 -84.8423
 -84.9186
 -84.8544
 -85.2436
 -85.2499
 -85.2522
 -85.2413
 -85.313
 -85.3222
 -85.32
 -85.3221
 -85.3034
 -85.3064
 -85.2974
 -85.3068
 -85.0263
 -85.0486
 -85.0261
 -85.0388
 -84.9941
 -84.9846
 -84.9822
 -84.9638
 -84.4836
 -84.4318
 -84.4611
 -84.5348
 -85.2674
 -85.2769
 -85.2749
 -85.2654
 -81.8187
 -81.7895
 -81.5561
 -82.1858
 -85.2996
 -85.3052
 -85.2977
 -85.2951
 -85.1391
 -85.171
 -85.1351
 -85.1628
 -85.1093
 -85.1344
 -85.1125
 -85.1124
 -83.3677
 -83.3385
 -83.1689
 -83.019
 -65.7205
 -66.4232
 -65.7191
 -65.8074
 -84.6766
 -84.73
 -84.676
 -84.6943
 -85.2951
 -85.2821
 -85.2852
 -85.2944
 -84.247
 -84.1833
 -84.2266
 -84.2847
 -85.1344
 -85.1421
 -85.1231
 -85.1534
 -85.176
 -85.1931
 -85.2068
 -85.1994
 -85.2691
 -85.2742
 -85.2601
 -85.2661
 -81.362
 -80.9578
 -81.0658
 -81.2462
 -81.9244
 -81.8891
 -81.7646
 -81.7532
 -85.2919
 -85.3045
 -85.2974
 -85.2998
 -85.2508
 -85.2318
 -85.2366
 -85.2481
 -84.6916
 -84.696
 -84.6664
 -84.6748
 -85.0281
 -85.0098
 -85.0385
 -85.0572
 -85.1447
 -85.1531
 -85.1428
 -85.1444
 -84.5792
 -84.5616
 -84.6368
 -84.5621
 -85.2151
 -85.2074
 -85.2048
 -85.1945
 -85.3826
 -85.38
 -85.3819
 -85.3822
 -85.166
 -85.1797
 -85.1832
 -85.1975
 -85.0337
 -85.056
 -85.028
 -85.07
 -85.0314
 -85.025
 -84.9929
 -85.0399
 -85.1367
 -85.1467
 -85.1355
 -85.1154
 -85.3553
 -85.3564
 -85.3526
 -85.3556
 -85.3166
 -85.3111
 -85.3155
 -85.205
 -85.202
 -85.2162
 -85.2029
 -84.1704
 -84.1647
 -84.2169
 -84.1518
 -84.8181
 -84.8292
 -84.7865
 -84.8349
 -85.3073
 -85.2974
 -85.2987
 -85.2971
 -84.4908
 -84.505
 -84.5276
 -84.5569
 -84.7557
 -84.6974
 -84.6913
 -84.7638
 -84.8071
 -84.7944
 -84.7119
 -84.7624
 -85.2378
 -85.2296
 -85.2275
 -85.2232
 -85.1374
 -85.1141
 -85.143
 -85.0965
 -85.2006
 -85.1648
 -85.179
 -85.1826
 -84.3095
 -84.3162
 -84.3473
 -84.3055
 -84.8532
 -84.8899
 -84.901
 -84.8592
 -85.223
 -85.2109
 -85.224
 -85.2301
 -84.6618
 -84.6958
 -84.7226
 -84.6368
 -85.1528
 -85.1622
 -85.1682
 -85.1513
 -84.2668
 -84.2458
 -84.2855
 -84.2354
 -85.3512
 -85.3525
 -85.3473
 -85.3512
 -84.4077
 -84.3305
 -84.4214
 -84.4579
 -84.2043
 -84.0261
 -84.1389
 -84.1375
 -85.2476
 -85.2443
 -85.2527
 -85.2571
 -84.4832
 -84.5054
 -84.5196
 -84.5036
 -85.1911
 -85.1884
 -85.194
 -85.1761
 -83.0981
 -83.1794
 -82.8806
 -82.9715
 -85.1038
 -85.0948
 -85.1028
 -85.1233
 -85.333
 -85.3404
 -85.3331
 -85.338
 -85.1037
 -85.0744
 -85.07
 -85.102
 -85.2728
 -85.2782
 -85.2719
 -85.2729
 -85.1747
 -85.1637
 -85.1639
 -85.1834
 -85.1492
 -85.162
 -85.1589
 -85.1783
 -85.3562
 -85.3557
 -85.3578
 -85.3502
 -84.2447
 -84.2088
 -84.1702
 -84.1444
 -84.2526
 -84.2195
 -84.1384
 -84.2127
 -85.3198
 -85.318
 -85.3153
 -85.3235
 -85.3412
 -85.3441
 -85.3401
 -84.5908
 -84.5786
 -84.5699
 -84.6057
 -85.2262
 -85.2397
 -85.2219
 -85.2217
 -85.1101
 -85.122
 -85.0928
 -85.1253
 -83.9606
 -84.0348
 -83.8327
 -83.915
 -85.2737
 -85.2808
 -85.278
 -85.2765
 -85.0101
 -84.9631
 -84.9741
 -85.0037
 -85.092
 -85.0683
 -85.0652
 -85.0699
 -85.2828
 -85.2905
 -85.2891
 -85.2873
 -84.0065
 -83.9831
 -84.0217
 -84.0593
 -84.5365
 -84.4358
 -84.4926
 -84.4454
 -85.3629
 -85.359
 -85.3628
 -85.361
 -84.3285
 -84.3201
 -84.338
 -84.4291
 -84.1362
 -84.1099
 -84.1206
 -84.1276
 -85.0341
 -85.041
 -85.0256
 -85.0674
 -78.6839
 -78.9461
 -78.3767
 -79.3593
 -85.0936
 -85.0956
 -85.0787
 -85.0966
 -85.2934
 -85.2911
 -85.2882
 -85.2861
 -85.3171
 -85.3119
 -85.3149
 -83.515
 -83.5124
 -83.6591
 -83.5696
 -84.4436
 -84.5135
 -84.4139
 -84.4839
 -84.0206
 -83.9854
 -83.816
 -83.8895
 -84.556
 -84.4929
 -84.5377
 -84.5344
 -85.3657
 -85.3679
 -85.3694
 -85.3681
 -83.6713
 -83.681
 -83.6232
 -83.5143
 -84.2888
 -84.2274
 -84.2984
 -84.4213
 -85.316
 -85.3216
 -85.3167
 -85.3145
 -84.7723
 -84.7679
 -84.8047
 -84.3161
 -84.2692
 -84.3761
 -85.1025
 -85.1081
 -85.0765
 -79.4597
 -80.2097
 -80.3182
 -79.704
 -85.1144
 -85.1351
 -85.1286
 -85.1409
 -85.083
 -85.1046
 -85.0622
 -85.0633
 -85.3191
 -85.3239
 -85.3184
 -85.3182
 -85.3403
 -85.3399
 -85.3472
 -85.3396
 -83.8481
 -83.6276
 -83.6205
 -83.9342
 -85.1467
 -85.1651
 -85.1724
 -85.1518
 -85.1044
 -85.1255
 -85.1322
 -85.1298
 -84.9281
 -84.9838
 -84.9549
 -84.9885
 -84.664
 -84.6796
 -84.7092
 -84.5968
 -85.1523
 -85.123
 -85.1515
 -85.1487
 -84.3105
 -84.3348
 -84.3063
 -84.3579
 -85.3379
 -85.3355
 -85.3381
 -85.3389
 -84.619
 -84.5869
 -84.6165
 -84.6838
 -85.3144
 -85.3083
 -85.3129
 -85.3085
 -85.3475
 -85.3455
 -85.3402
 -85.3455
 -85.3521
 -85.3512
 -85.35
 -85.3488
 -84.4332
 -84.387
 -85.2667
 -85.2624
 -85.257
 -85.2632
 -84.1216
 -84.2741
 -84.2107
 -84.1594
 -85.2841
 -85.2971
 -85.2945
 -85.2965
 -85.3087
 -85.3071
 -85.3139
 -85.307
 -84.458
 -84.5582
 -84.542
 -84.52
 -85.1484
 -85.1477
 -85.1652
 -85.1608
 -84.5647
 -84.5605
 -84.6218
 -84.5666
 -84.8509
 -84.8324
 -84.8539
 -84.8898
 -72.4491
 -73.912
 -71.9866
 -73.1797
 -85.3265
 -85.3229
 -85.3321
 -85.3266
 -84.5671
 -84.5385
 -84.6032
 -84.6891
 -83.4604
 -83.34
 -83.3442
 -83.4942
 -84.9393
 -84.909
 -84.9587
 -84.9484
 -83.1491
 -82.8534
 -82.6845
 -83.2059
 -84.9422
 -84.904
 -84.8681
 -84.9304
 -85.2532
 -85.2489
 -85.2614
 -85.2432
 -84.96
 -84.9332
 -84.935
 -84.9481
 -85.322
 -85.3296
 -85.3233
 -84.9298
 -84.9662
 -84.951
 -84.9765
 -72.728
 -72.0322
 -72.1509
 -71.8808
 -85.3682
 -85.3688
 -85.3703
 -85.3684
 -85.1508
 -85.1409
 -85.1552
 -85.1356
 -85.2939
 -85.2886
 -85.2799
 -85.2906
 -83.961
 -84.0607
 -83.7665
 -83.9066
 -84.62
 -84.6858
 -84.5914
 -84.6737
 -84.6431
 -84.7431
 -84.6635
 -84.7371
 -85.3452
 -85.3418
 -85.3468
 -85.3498
 -84.7672
 -84.7312
 -84.6894
 -84.7135
 -85.3624
 -85.3608
 -85.3634
 -85.3589
 -85.2382
 -85.2215
 -85.2235
 -85.2398
 -84.2894
 -84.3067
 -84.3291
 -84.2769
 -78.117
 -78.4529
 -79.0341
 -77.9778
 -84.8495
 -84.7747
 -84.8243
 -84.7449
 -84.9904
 -84.9981
 -85.0232
 -84.9951
 -85.2534
 -85.2577
 -85.2494
 -85.2424
 -73.5793
 -72.1476
 -73.8138
 -73.404
 -84.8847
 -84.8583
 -84.9087
 -84.8859
 -85.3588
 -85.3551
 -85.3543
 -85.3549
 -85.3087
 -85.3136
 -85.3113
 -85.3086
 -85.2965
 -85.3004
 -85.3051
 -85.2967
 -85.2792
 -85.2745
 -85.2691
 -85.2745
 -85.3033
 -85.3139
 -85.3092
 -85.3077
 -85.1969
 -85.202
 -85.1972
 -85.1984
 -84.3155
 -84.5379
 -84.6066
 -84.6063
 -84.5821
 -85.2449
 -85.2341
 -85.2379
 -85.2316
 -85.239
 -85.2407
 -85.2219
 -85.2291
 -83.1937
 -83.2466
 -83.2363
 -83.1961
 -85.331
 -85.3309
 -85.3287
 -85.3318
 -85.2862
 -85.2934
 -85.3026
 -85.2972
 -84.3366
 -84.425
 -84.4193
 -84.2825
 -84.2917
 -84.2601
 -84.5316
 -84.5746
 -84.5489
 -84.6106
 -84.1958
 -84.0582
 -83.8679
 -83.9851
 -85.231
 -85.2443
 -85.2397
 -85.2329
 -85.365
 -85.3649
 -85.3644
 -85.3658
 -85.044
 -85.0217
 -85.0396
 -85.0075
 -85.3421
 -85.3338
 -85.3293
 -85.33
 -84.9073
 -84.9097
 -84.8798
 -84.918
 -85.2191
 -85.2112
 -85.2004
 -85.2011
 -83.8178
 -83.7702
 -83.7788
 -83.561
 -85.1574
 -85.1739
 -85.1464
 -85.1586
 -85.1913
 -85.2125
 -85.219
 -85.198
 -84.4149
 -84.387
 -84.3276
 -84.3626
 -84.7573
 -84.7236
 -84.8184
 -84.765
 -84.906
 -84.9042
 -84.8613
 -84.8398
 -85.1423
 -85.1585
 -85.1495
 -85.1538
 -82.1613
 -82.3648
 -82.4617
 -82.6779
 -85.1705
 -85.1532
 -85.1703
 -85.1761
 -84.7741
 -84.7079
 -84.7809
 -84.829
 -85.2604
 -85.2557
 -85.2598
 -85.2498
 -85.3096
 -85.3039
 -85.3094
 -85.3045
 -85.353
 -85.3512
 -85.3493
 -85.3514
 -85.3387
 -85.3417
 -85.3339
 -85.3671
 -85.3671
 -85.3694
 -85.3698
 -85.2967
 -85.2908
 -85.2811
 -85.2894
 -84.9726
 -84.9636
 -84.9911
 -84.9861
 -85.3407
 -85.3367
 -85.3334
 -85.3402
 -85.1067
 -85.1129
 -85.0966
 -85.0914
 -85.135
 -85.1454
 -85.1373
 -85.3493
 -85.3521
 -85.3503
 -85.3494
 -85.3337
 -85.3299
 -85.3314
 -85.0928
 -85.077
 -85.1051
 -85.1132
 -84.7445
 -84.7807
 -84.7423
 -84.825
 -85.2469
 -85.2386
 -85.235
 -85.2324
 -85.3482
 -85.3512
 -85.3498
 -85.3477
 -84.2897
 -84.2956
 -84.3883
 -84.2712
 -84.9952
 -84.9882
 -84.954
 -84.9557
 -85.0288
 -85.0634
 -85.0085
 -85.0331
 -85.2477
 -85.2367
 -85.2473
 -85.2515
 -84.4722
 -84.4107
 -84.5394
 -84.4268
 -84.0444
 -83.9517
 -84.0587
 -83.9641
 -85.0686
 -85.0727
 -85.0652
 -85.0956
 -85.3569
 -85.3537
 -85.3535
 -85.3549
 -84.6405
 -84.5659
 -84.6473
 -84.6148
 -84.1251
 -84.2271
 -84.1232
 -84.209
 -85.1799
 -85.1515
 -85.1787
 -85.1777
 -84.5024
 -84.5118
 -84.4668
 -84.2899
 -84.3456
 -84.3289
 -85.1611
 -85.1554
 -85.1795
 -85.1595
 -84.2334
 -84.205
 -84.1249
 -84.2262
 -84.3902
 -84.3029
 -84.362
 -84.3742
 -85.1773
 -85.1873
 -85.172
 -83.998
 -83.9583
 -85.3097
 -85.3111
 -85.3225
 -85.323
 -85.2447
 -85.2624
 -85.2632
 -85.2542
 -82.359
 -82.6543
 -82.0961
 -82.7137
 -79.6075
 -79.478
 -79.1412
 -79.6254
 -84.4235
 -84.2666
 -84.3802
 -84.3718
 -85.3402
 -85.3397
 -85.342
 -85.3399
 -85.2006
 -85.1911
 -85.1802
 -85.1911
 -84.0564
 -84.0458
 -84.04
 -84.0355
 -84.5729
 -84.5902
 -84.6118
 -84.6898
 -84.6248
 -84.6115
 -84.5895
 -84.4698
 -84.5264
 -84.5357
 -84.5401
 -84.5313
 -84.4808
 -84.566
 -84.5725
 -84.1706
 -84.0912
 -84.1675
 -84.0518
 -85.3598
 -85.3617
 -85.3607
 -85.3598
 -85.3403
 -85.3451
 -85.3391
 -85.0529
 -85.0319
 -85.055
 -85.0139
 -84.4171
 -84.2894
 -84.4299
 -84.3815
 -85.3697
 -85.3718
 -84.2829
 -84.2415
 -84.2501
 -84.2082
 -85.1036
 -85.1491
 -85.12
 -85.133
 -85.208
 -85.204
 -84.2218
 -84.1954
 -84.323
 -84.2224
 -85.3481
 -85.3501
 -85.3463
 -85.3529
 -85.3641
 -85.3616
 -85.362
 -85.3666
 -84.9437
 -84.9648
 -84.9402
 -82.6703
 -82.8749
 -82.7344
 -84.2452
 -84.3646
 -84.2356
 -84.2749
 -85.2745
 -85.2653
 -85.2806
 -85.2645
 -84.6167
 -84.5121
 -84.5581
 -84.4616
 -84.5968
 -84.5422
 -84.6261
 -84.5189
 -85.2324
 -85.2266
 -85.2369
 -85.2493
 -74.2983
 -74.4269
 -73.8699
 -72.9866
 -85.2618
 -85.267
 -85.2732
 -85.2699
 -85.2758
 -85.2746
 -85.2826
 -85.287
 -84.0615
 -84.0585
 -83.9227
 -84.0273
 -85.3342
 -85.3358
 -85.3368
 -85.3323
 -72.4
 -70.8786
 -71.4796
 -70.3601
 -85.3515
 -85.3423
 -85.3429
 -85.3407
 -85.3047
 -85.3009
 -84.5098
 -84.5503
 -84.5225
 -84.5872
 -83.9483
 -83.8452
 -83.8981
 -83.9862
 -85.3314
 -85.3355
 -85.334
 -85.3331
 -84.7484
 -84.7745
 -84.7708
 -84.7305
 -85.3544
 -85.351
 -85.3537
 -84.4934
 -84.4142
 -84.3576
 -83.8091
 -83.9265
 -83.9567
 -85.3538
 -85.3553
 -85.3538
 -85.3525
 -84.5725
 -84.541
 -84.5445
 -84.5314
 -85.3337
 -85.3347
 -83.9184
 -83.9701
 -83.8807
 -83.9231
 -85.0958
 -85.116
 -85.1227
 -85.0899
 -84.6719
 -84.6133
 -84.8516
 -84.9431
 -84.9218
 -84.8674
 -84.4763
 -84.4559
 -84.4661
 -84.3905
 -85.3612
 -85.3666
 -85.3605
 -85.3628
 -84.1764
 -84.1485
 -84.1634
 -85.3123
 -72.8572
 -73.0071
 -73.0263
 -72.4575
 -85.3276
 -85.328
 -85.3319
 -85.321
 -84.6447
 -84.6478
 -84.7379
 -84.7235
 -85.2491
 -85.2473
 -85.2465
 -85.2459
 -84.4574
 -84.4062
 -84.3684
 -84.4483
 -85.2277
 -83.1697
 -83.1365
 -83.1298
 -83.1829
 -85.2079
 -85.2131
 -85.2055
 -85.1925
 -85.2963
 -85.3017
 -85.3025
 -85.291
 -85.3008
 -85.2925
 -85.3041
 -85.3299
 -85.3339
 -85.3332
 -85.3316
 -84.0025
 -84.0499
 -84.1664
 -84.1188
 -85.3127
 -85.3122
 -85.3123
 -85.3184
 -83.4176
 -83.3821
 -83.4491
 -83.2419
 -85.3042
 -85.3082
 -85.312
 -85.3122
 -85.0404
 -85.0195
 -85.0144
 -84.9998
 -85.248
 -85.2561
 -85.2594
 -85.2627
 -85.0887
 -85.0774
 -85.066
 -85.0564
 -85.3494
 -85.3422
 -85.1403
 -85.1182
 -85.1189
 -85.1378
 -82.8497
 -82.7394
 -83.0406
 -82.7339
 -83.125
 -83.0199
 -83.3915
 -83.0843
 -85.0944
 -85.1187
 -85.1153
 -85.1219
 -85.2748
 -85.2758
 -85.2714
 -85.2842
 -85.2847
 -85.2783
 -85.2812
 -85.2887
 -85.3462
 -85.3398
 -85.3421
 -85.3389
 -85.2886
 -85.2998
 -85.2943
 -85.2892
 -83.06
 -83.1612
 -83.2569
 -83.0146
 -84.123
 -84.1259
 -84.0984
 -84.2797
 -85.3706
 -85.3686
 -85.3679
 -85.3679
 -85.161
 -85.1623
 -85.1647
 -85.1888
 -84.2128
 -84.3275
 -84.1867
 -84.3455
 -76.0128
 -75.7894
 -76.9605
 -75.7931
 -85.327
 -85.3304
 -85.3239
 -85.3363
 -84.4546
 -84.4378
 -84.4706
 -84.5213
 -84.84
 -84.8932
 -84.8028
 -84.8609
 -83.511
 -83.4265
 -83.4837
 -83.5672
 -85.2206
 -85.214
 -85.2213
 -85.223
 -85.3447
 -85.345
 -85.3435
 -85.3449
 -85.1809
 -85.1595
 -85.1645
 -85.159
 -84.9576
 -84.9457
 -85.0012
 -84.9832
 -82.9816
 -83.0929
 -83.1884
 -82.795
 -85.3412
 -85.2359
 -85.2455
 -85.2319
 -85.2416
 -84.803
 -84.7786
 -84.7221
 -84.7172
 -85.2601
 -85.2676
 -85.2675
 -85.2724
 -84.1684
 -84.1743
 -84.1184
 -84.2811
 -85.2296
 -85.2348
 -85.2189
 -82.5943
 -82.8685
 -82.6328
 -82.51
 -85.3092
 -85.2951
 -85.3049
 -85.2999
 -84.1691
 -84.1594
 -84.2092
 -84.1752
 -85.3782
 -85.377
 -85.3776
 -85.3797
 -84.5324
 -84.5476
 -84.5518
 -84.5477
 -78.9104
 -80.1533
 -80.1085
 -79.7613
 -82.2434
 -82.2241
 -82.5308
 -82.3764
 -85.3704
 -85.369
 -85.3673
 -85.3667
 -85.3534
 -85.3528
 -85.3562
 -85.3566
 -85.058
 -85.0872
 -85.0778
 -85.0849
 -84.5397
 -84.5382
 -84.5914
 -85.1394
 -85.1391
 -85.1035
 -85.1196
 -85.2334
 -85.2289
 -85.2392
 -85.2454
 -85.0919
 -85.1409
 -85.1262
 -85.1238
 -85.0747
 -85.0881
 -85.1206
 -85.1012
 -85.3634
 -85.3599
 -85.3606
 -85.3591
 -84.3137
 -84.2906
 -84.3823
 -84.3143
 -82.1993
 -81.5072
 -81.6602
 -85.2685
 -85.259
 -85.2671
 -85.2645
 -85.3301
 -85.335
 -85.3303
 -85.329
 -84.3451
 -84.2986
 -84.3689
 -84.3102
 -84.3213
 -84.3527
 -84.2535
 -85.3351
 -85.3321
 -85.337
 -85.3284
 -84.9859
 -84.984
 -85.0073
 -84.9783
 -84.2994
 -84.1887
 -84.2788
 -84.2982
 -84.8353
 -84.8083
 -84.8144
 -84.8448
 -85.3105
 -85.3094
 -85.3028
 -85.3104
 -84.2172
 -84.3694
 -84.1375
 -84.3433
 -84.8802
 -84.8117
 -84.8493
 -84.8487
 -84.633
 -84.6705
 -84.633
 -85.3552
 -85.3543
 -85.3509
 -85.3529
 -84.9551
 -84.9793
 -84.9388
 -84.9782
 -85.3703
 -85.3696
 -85.3742
 -85.1109
 -85.1201
 -85.1204
 -85.1095
 -82.8755
 -83.0581
 -82.7148
 -82.8111
 -85.1967
 -85.2005
 -85.2114
 -85.2241
 -85.0604
 -85.0928
 -85.0489
 -84.3744
 -84.4251
 -84.4801
 -84.3749
 -84.1324
 -84.1543
 -84.1138
 -84.1658
 -84.3884
 -84.4242
 -84.4783
 -84.35
 -78.3754
 -78.3897
 -79.2405
 -79.3057
 -84.7067
 -84.6816
 -84.6504
 -84.6576
 -84.643
 -84.615
 -84.7162
 -84.5946
 -85.3345
 -85.3289
 -85.3298
 -85.338
 -83.707
 -83.8957
 -83.8305
 -83.7945
 -85.2328
 -85.2248
 -85.2362
 -85.2385
 -85.3525
 -85.3529
 -85.3497
 -85.3478
 -85.3549
 -85.3497
 -85.3525
 -85.3549
 -85.306
 -85.3116
 -85.3051
 -85.3105
 -85.3596
 -85.3641
 -85.3638
 -85.3562
 -85.3412
 -85.3426
 -85.3419
 -85.3702
 -85.364
 -85.3663
 -85.366
 -83.5887
 -83.495
 -83.5571
 -83.4541
 -84.8116
 -84.7862
 -84.7423
 -84.7906
 -84.5863
 -84.6717
 -84.624
 -84.6854
 -84.7722
 -84.741
 -84.7326
 -84.7205
 -85.348
 -85.3434
 -85.3458
 -85.3475
 -84.859
 -84.8637
 -84.8257
 -84.785
 -84.4175
 -84.3022
 -84.3167
 -84.3971
 -85.2301
 -85.2259
 -85.2418
 -85.2254
 -84.3938
 -84.5091
 -84.3986
 -84.4178
 -85.2752
 -85.2675
 -85.2681
 -85.1217
 -85.1467
 -85.1412
 -85.3299
 -85.3245
 -85.3286
 -85.328
 -84.8366
 -84.8536
 -84.8211
 -84.8203
 -85.214
 -85.2011
 -85.2036
 -85.2122
 -84.7555
 -84.6796
 -84.7207
 -84.7654
 -85.3715
 -85.3699
 -85.3582
 -85.356
 -85.3541
 -85.3588
 -83.2795
 -83.247
 -83.2495
 -83.1699
 -85.2225
 -85.2345
 -85.2359
 -85.2446
 -84.3202
 -84.471
 -84.3928
 -84.2813
 -68.4803
 -66.1635
 -68.2354
 -67.5248
 -84.5425
 -84.5188
 -84.4744
 -84.5112
 -85.2729
 -85.2635
 -85.2716
 -83.853
 -83.8274
 -83.9703
 -83.9621
 -85.3502
 -85.3462
 -85.3522
 -85.3485
 -84.5882
 -84.6097
 -84.5844
 -84.6055
 -85.2186
 -85.23
 -85.2213
 -85.2194
 -82.7945
 -82.9789
 -82.6699
 -82.8695
 -76.2244
 -75.8349
 -76.6491
 -76.8026
 -84.3941
 -84.4482
 -84.3859
 -84.3735
 -84.764
 -84.7456
 -84.7834
 -85.1445
 -85.1166
 -85.1547
 -85.1426
 -84.0252
 -84.0222
 -83.8571
 -85.2717
 -85.2697
 -85.2732
 -85.2798
 -85.3067
 -85.3174
 -85.3076
 -85.3167
 -85.2587
 -85.2502
 -85.2589
 -85.2589
 -85.348
 -85.3378
 -85.3425
 -85.3431
 -85.2966
 -85.2877
 -85.2893
 -84.5705
 -84.6046
 -84.614
 -84.6323
 -85.2843
 -85.2764
 -85.245
 -85.2309
 -85.2261
 -85.2421
 -85.2731
 -85.2684
 -85.2687
 -85.2758
 -84.3743
 -84.438
 -84.4093
 -84.2978
 -84.5114
 -84.5586
 -84.4999
 -84.5463
 -69.327
 -70.1704
 -70.3502
 -69.7728
 -84.4733
 -84.5187
 -84.4732
 -84.5431
 -84.5044
 -84.4944
 -84.5142
 -85.0116
 -85.0085
 -84.9906
 -84.9839
 -84.5763
 -84.656
 -84.6527
 -84.6088
 -83.1573
 -83.3024
 -83.1563
 -83.1108
 -85.3019
 -85.2947
 -85.3032
 -85.294
 -85.0591
 -85.0801
 -85.0516
 -85.0349
 -85.3524
 -85.353
 -85.351
 -85.353
 -85.1702
 -85.1502
 -85.1688
 -85.1577
 -85.3401
 -85.3411
 -85.3406
 -77.9476
 -78.7388
 -78.3117
 -78.5205
 -85.2674
 -85.2794
 -85.268
 -85.2696
 -84.885
 -84.8428
 -84.8901
 -84.8695
 -84.1791
 -84.0918
 -84.713
 -84.7177
 -84.7463
 -84.731
 -84.9026
 -84.8536
 -84.8743
 -85.3338
 -85.3354
 -85.332
 -85.3354
 -85.3324
 -85.3292
 -85.3244
 -85.3284
 -84.2856
 -84.2381
 -84.2952
 -84.2582
 -85.0107
 -84.9921
 -84.4915
 -84.5759
 -84.5292
 -84.4511
 -85.2844
 -85.281
 -85.2922
 -85.2915
 -82.6047
 -82.4571
 -82.5649
 -82.5523
 -84.3834
 -84.4258
 -84.3594
 -84.3557
 -84.5098
 -84.5734
 -84.6022
 -84.5738
 -85.1021
 -85.0931
 -85.1051
 -85.1319
 -85.2835
 -85.2808
 -85.2755
 -85.277
 -85.296
 -85.2861
 -85.2805
 -85.29
 -73.9567
 -73.7394
 -73.4987
 -73.0562
 -83.9094
 -84.0161
 -84.0425
 -85.1371
 -85.1022
 -85.1218
 -85.1638
 -85.1854
 -85.1674
 -85.1786
 -85.346
 -85.3485
 -85.3466
 -85.3503
 -84.9567
 -84.4463
 -84.4335
 -84.3247
 -84.3679
 -85.2234
 -85.2129
 -85.1991
 -85.2092
 -85.2995
 -85.2919
 -85.2945
 -85.3019
 -85.3338
 -85.3354
 -84.3178
 -84.2982
 -84.2541
 -84.2386
 -85.0325
 -85.0459
 -85.0332
 -85.0623
 -84.0965
 -84.0802
 -84.0998
 -84.1199
 -85.1622
 -84.7705
 -84.7155
 -84.8155
 -84.8426
 -84.6651
 -84.707
 -84.7232
 -84.6969
 -85.3484
 -85.3421
 -85.3563
 -85.3591
 -85.3588
 -85.3573
 -80.39
 -80.2028
 -80.2548
 -80.4881
 -85.2918
 -85.2943
 -85.2845
 -85.2985
 -85.1885
 -85.1608
 -85.1647
 -85.1839
 -75.85
 -76.1175
 -76.1854
 -75.5845
 -85.0197
 -85.0254
 -85.0372
 -85.0039
 -85.0128
 -84.9737
 -84.954
 -84.9668
 -84.0538
 -83.8894
 -84.0314
 -83.9818
 -85.3688
 -85.3709
 -85.3713
 -85.371
 -84.9546
 -84.9152
 -84.9298
 -84.4883
 -84.5734
 -84.5597
 -84.4972
 -85.3606
 -85.3665
 -85.3626
 -85.3636
 -84.5365
 -84.4917
 -84.4087
 -84.5941
 -84.8795
 -84.9102
 -85.313
 -85.315
 -85.3199
 -85.3082
 -85.1419
 -85.1392
 -85.1631
 -85.1529
 -85.3524
 -85.3491
 -85.3515
 -85.3513
 -84.9531
 -85.0033
 -84.4522
 -84.49
 -84.5075
 -84.4944
 -84.5848
 -84.5825
 -84.6177
 -84.6464
 -85.3223
 -85.3212
 -85.3142
 -85.3161
 -85.3049
 -85.303
 -85.3065
 -85.3082
 -85.288
 -85.2749
 -85.2876
 -85.2806
 -84.6741
 -84.7483
 -84.7162
 -84.67
 -80.8482
 -80.5994
 -80.8428
 -80.9031
 -85.3575
 -85.3608
 -85.3571
 -85.3585
 -83.9527
 -83.9918
 -84.012
 -84.0988
 -85.1149
 -85.1175
 -85.1392
 -85.1046
 -84.7136
 -84.8204
 -84.7506
 -84.7898
 -85.1062
 -85.0795
 -85.093
 -85.2106
 -85.228
 -85.2085
 -85.2227
 -85.0525
 -85.0788
 -85.0586
 -85.0409
 -85.2608
 -85.2638
 -85.2733
 -85.258
 -85.2594
 -85.2584
 -85.2628
 -85.2455
 -75.2535
 -76.7643
 -75.389
 -82.7504
 -83.0554
 -83.071
 -82.9667
 -85.0758
 -85.0536
 -85.0636
 -85.063
 -85.3206
 -85.3247
 -85.3212
 -85.3269
 -84.3268
 -84.2147
 -84.3204
 -84.5431
 -84.5727
 -84.5683
 -85.1943
 -85.1891
 -85.2021
 -85.2013
 -85.0965
 -85.1067
 -85.1251
 -85.1253
 -85.3801
 -85.38
 -85.3788
 -85.3804
 -82.1296
 -82.1474
 -82.0022
 -81.479
 -85.2836
 -85.29
 -84.7961
 -84.865
 -84.8625
 -84.8129
 -85.2489
 -85.2604
 -85.258
 -85.2604
 -85.156
 -85.1643
 -85.1785
 -85.1635
 -84.902
 -84.8925
 -84.935
 -84.8607
 -85.2451
 -85.2557
 -85.2497
 -85.2539
 -84.3071
 -84.3311
 -84.3366
 -84.3878
 -83.8027
 -83.7483
 -83.8209
 -83.7871
 -85.3047
 -85.3071
 -85.3157
 -85.3213
 -85.0821
 -85.0998
 -85.1173
 -79.2217
 -79.1161
 -79.4224
 -85.3226
 -85.328
 -85.3285
 -85.3298
 -85.3378
 -85.3362
 -85.3331
 -85.3316
 -85.056
 -85.0673
 -85.0829
 -85.0844
 -85.3474
 -85.3501
 -85.3503
 -85.3496
 -85.3484
 -85.3525
 -85.3495
 -85.3542
 -84.8781
 -84.9022
 -84.9302
 -84.8946
 -85.2836
 -85.2874
 -85.2924
 -85.2914
 -85.3781
 -85.3781
 -85.3773
 -85.3794
 -85.2969
 -85.2948
 -85.2911
 -85.3008
 -85.1084
 -85.0887
 -85.0959
 -85.0679
 -85.3204
 -85.3208
 -85.3168
 -85.315
 -85.2652
 -85.2614
 -85.2708
 -85.1809
 -85.1968
 -80.5567
 -80.8144
 -80.4415
 -80.3429
 -85.165
 -85.1862
 -85.1748
 -85.1807
 -81.7743
 -81.8999
 -81.9526
 -82.013
 -81.4106
 -81.232
 -81.8249
 -81.7098
 -85.117
 -85.1359
 -85.1322
 -85.1164
 -84.8171
 -84.8216
 -84.7742
 -84.8276
 -85.1943
 -85.2133
 -85.2067
 -85.2072
 -85.0941
 -85.0694
 -83.5871
 -83.5199
 -83.552
 -83.6589
 -85.3591
 -85.3612
 -85.3626
 -85.3614
 -84.8307
 -84.8122
 -84.8931
 -84.8525
 -85.3126
 -85.3086
 -85.3049
 -85.3109
 -83.5297
 -83.3738
 -83.5069
 -83.4031
 -85.3389
 -85.3443
 -85.3434
 -85.3435
 -85.1675
 -85.1529
 -85.1686
 -85.174
 -84.3364
 -84.2001
 -84.0756
 -84.188
 -85.3789
 -85.3783
 -85.3782
 -85.3771
 -84.6949
 -84.7474
 -84.6997
 -84.7001
 -84.835
 -84.786
 -84.8372
 -84.7634
 -85.3638
 -85.3646
 -85.3615
 -85.3659
 -85.0509
 -85.0022
 -85.0271
 -85.0281
 -85.3273
 -85.3309
 -85.3276
 -85.3268
 -85.3168
 -85.3116
 -85.3132
 -84.9237
 -84.8624
 -84.8726
 -84.8943
 -85.3202
 -85.3245
 -85.3209
 -85.3233
 -84.2677
 -84.3442
 -84.33
 -84.2722
 -85.3378
 -85.3408
 -85.3405
 -85.339
 -85.3344
 -85.3323
 -85.3347
 -85.3332
 -84.3045
 -84.2719
 -84.3987
 -84.3303
 -84.4399
 -84.4293
 -84.4927
 -84.396
 -63.5951
 -63.8592
 -63.0675
 -63.389
 -85.2751
 -85.266
 -85.2656
 -81.3735
 -81.8128
 -81.9679
 -81.6019
 -85.3565
 -85.3521
 -85.3535
 -85.3534
 -84.1573
 -85.3222
 -85.3147
 -85.3143
 -85.3189
 -85.3238
 -85.3155
 -85.3187
 -72.9066
 -72.1063
 -72.5973
 -72.9172
 -70.3663
 -71.0882
 -70.507
 -70.1649
 -85.3496
 -85.3445
 -85.348
 -85.3515
 -84.4286
 -84.3987
 -84.4562
 -84.3804
 -85.2604
 -85.2577
 -85.2667
 -84.7342
 -84.6831
 -84.7308
 -84.6638
 -84.9273
 -84.9278
 -84.9288
 -85.3156
 -85.3152
 -85.3222
 -85.1943
 -85.2084
 -85.2072
 -85.194
 -84.7611
 -84.6873
 -84.6988
 -84.748
 -84.4027
 -84.4368
 -84.394
 -84.4275
 -85.2651
 -85.2727
 -85.2735
 -83.1696
 -83.3353
 -82.9416
 -82.9019
 -84.296
 -84.4289
 -84.2826
 -84.8664
 -84.9498
 -84.9143
 -84.91
 -83.76
 -83.89
 -83.9379
 -83.8801
 -84.4036
 -84.4802
 -84.4992
 -84.4715
 -85.3187
 -85.313
 -85.3141
 -85.3132
 -84.9979
 -84.9644
 -84.9748
 -85.0078
 -84.4549
 -84.507
 -85.0904
 -85.0808
 -85.0824
 -85.058
 -85.3364
 -85.3608
 -85.3617
 -85.3614
 -85.3608
 -61.9113
 -61.73
 -61.7038
 -61.9504
 -85.3046
 -85.3129
 -85.3077
 -85.3723
 -85.372
 -85.3701
 -85.3719
 -85.2923
 -85.2829
 -85.2889
 -85.2847
 -84.3421
 -84.3655
 -84.4092
 -84.3494
 -84.9591
 -84.9235
 -84.9281
 -84.8813
 -85.3744
 -85.3746
 -85.3742
 -85.3733
 -85.2729
 -85.264
 -85.2598
 -85.2676
 -82.9566
 -82.6698
 -82.6269
 -83.0503
 -84.8963
 -84.8855
 -84.8983
 -84.8113
 -84.8537
 -84.8778
 -84.8951
 -84.8514
 -62.0189
 -61.9052
 -61.8686
 -62.0952
 -84.2606
 -84.2438
 -84.229
 -84.2845
 -85.2836
 -85.2945
 -85.2877
 -85.2904
 -85.1947
 -85.1936
 -85.2104
 -85.1874
 -84.9787
 -84.9897
 -85.027
 -85.0139
 -85.2675
 -85.2791
 -85.2765
 -85.2759
 -85.1764
 -85.1875
 -85.196
 -85.1822
 -85.2721
 -85.2695
 -85.2648
 -85.281
 -85.3792
 -85.3755
 -85.3762
 -85.3796
 -85.2989
 -85.2935
 -85.2914
 -85.2797
 -85.2586
 -85.2479
 -85.247
 -85.2602
 -85.2489
 -85.1084
 -85.1057
 -85.0897
 -85.1331
 -85.3605
 -85.3595
 -85.3585
 -85.3581
 -84.9935
 -84.9617
 -84.9957
 -84.9834
 -85.1881
 -85.1966
 -85.2041
 -85.1753
 -85.0588
 -85.0216
 -85.0504
 -85.0787
 -84.6896
 -84.5779
 -84.6742
 -84.6076
 -77.6649
 -77.9859
 -79.0328
 -77.9348
 -85.3813
 -85.3779
 -85.2454
 -85.2367
 -85.2368
 -65.7973
 -65.9257
 -66.0561
 -84.4471
 -84.3778
 -84.4209
 -84.339
 -80.9333
 -81.2052
 -80.4454
 -80.2877
 -83.7354
 -83.6465
 -83.7834
 -83.4881
 -85.3562
 -85.3492
 -85.3532
 -85.3526
 -85.1427
 -85.1181
 -85.1232
 -85.1153
 -85.2494
 -85.2644
 -85.2603
 -85.2704
 -85.1915
 -85.2009
 -85.1762
 -85.1778
 -85.2827
 -85.2842
 -85.278
 -85.2787
 -85.0313
 -85.0238
 -85.3212
 -85.3057
 -85.3219
 -85.309
 -85.2749
 -85.2681
 -85.263
 -85.2769
 -84.4553
 -84.3755
 -84.4691
 -84.3981
 -84.574
 -84.6011
 -84.5981
 -84.6023
 -85.1859
 -85.1853
 -85.1797
 -85.1942
 -85.1284
 -85.1332
 -85.1496
 -85.1631
 -83.8883
 -83.7074
 -83.6816
 -83.8865
 -85.2566
 -85.2543
 -85.2513
 -85.2465
 -85.3746
 -85.3728
 -85.3737
 -85.3736
 -85.3311
 -85.3278
 -85.3292
 -85.3273
 -85.3791
 -85.3804
 -85.3786
 -85.3807
 -85.3405
 -85.3446
 -85.3431
 -85.3438
 -85.1159
 -85.1438
 -85.1132
 -85.1184
 -85.2653
 -85.2558
 -85.0503
 -85.0849
 -85.0417
 -85.0685
 -84.5189
 -84.5685
 -84.5764
 -84.5957
 -85.3033
 -85.309
 -85.3097
 -85.3025
 -85.0356
 -85.0192
 -85.0372
 -85
 -84.8715
 -84.8358
 -84.824
 -84.8459
 -84.3252
 -84.3382
 -84.3857
 -84.422
 -84.5737
 -84.5209
 -84.5126
 -84.6243
 -84.2165
 -84.2607
 -84.327
 -84.253
 -79.2961
 -79.5183
 -79.1673
 -79.1432
 -85.2916
 -85.2948
 -85.2846
 -85.2924
 -85.2475
 -85.2528
 -79.6187
 -80.2688
 -80.1768
 -79.4122
 -84.7161
 -84.7228
 -85.2292
 -85.2206
 -85.2298
 -85.3348
 -85.3343
 -84.2283
 -84.2221
 -84.1888
 -84.2648
 -79.8994
 -80.3597
 -80.3142
 -80.373
 -83.7818
 -83.8324
 -83.9219
 -83.9657
 -84.6761
 -84.6843
 -84.7102
 -84.7374
 -85.203
 -85.1813
 -85.1814
 -85.1847
 -85.2281
 -85.2215
 -85.2216
 -85.2164
 -84.6404
 -84.7207
 -84.7161
 -84.6993
 -85.2036
 -85.2002
 -85.2074
 -85.1832
 -85.0617
 -85.0383
 -85.0348
 -85.0487
 -85.1407
 -85.1554
 -85.1685
 -85.1492
 -85.1458
 -85.1244
 -85.1548
 -85.0451
 -85.0261
 -85.0738
 -85.0543
 -84.7419
 -84.7685
 -84.7291
 -84.7018
 -84.437
 -84.497
 -84.4044
 -84.4843
 -85.3567
 -85.356
 -85.3583
 -85.3603
 -84.9861
 -84.9823
 -85.015
 -85.021
 -83.7001
 -83.6634
 -83.5659
 -83.6691
 -83.1739
 -83.0685
 -83.0996
 -82.9771
 -84.1173
 -84.0773
 -84.0773
 -84.1016
 -84.2069
 -84.2094
 -84.3188
 -84.3237
 -84.4607
 -84.4123
 -84.3883
 -84.4233
 -85.3549
 -85.3573
 -85.3565
 -85.3569
 -84.8793
 -84.8779
 -84.8672
 -84.9104
 -85.2889
 -85.2906
 -85.2855
 -85.2831
 -84.3739
 -84.4784
 -84.33
 -84.4386
 -85.3608
 -85.363
 -85.3624
 -85.3663
 -85.3668
 -85.3667
 -85.3687
 -85.2653
 -85.2425
 -85.2524
 -85.2535
 -84.6019
 -84.6236
 -84.5544
 -84.6006
 -85.3741
 -85.3708
 -85.3717
 -84.8419
 -84.7973
 -84.8085
 -84.7394
 -85.3404
 -85.3414
 -85.3321
 -85.3336
 -85.3391
 -85.3331
 -84.7454
 -84.7002
 -84.7232
 -82.7616
 -82.84
 -82.5393
 -82.6821
 -84.2668
 -84.1461
 -84.2547
 -84.2895
 -85.0948
 -85.1214
 -85.0945
 -85.3601
 -85.3535
 -85.3544
 -85.2751
 -85.2678
 -85.2615
 -85.2673
 -85.3617
 -85.3625
 -85.3564
 -85.3661
 -84.9408
 -84.9818
 -85.0009
 -84.9664
 -85.332
 -85.3336
 -85.3368
 -85.3274
 -85.0871
 -85.093
 -85.0709
 -85.07
 -84.6365
 -84.586
 -84.6192
 -85.3718
 -85.3685
 -85.3699
 -85.3744
 -85.2544
 -85.1994
 -85.2176
 -85.2161
 -85.2056
 -85.1961
 -85.1946
 -85.1831
 -84.5492
 -84.5225
 -84.5194
 -84.5149
 -84.5127
 -84.5891
 -84.9991
 -84.9546
 -84.9406
 -84.9207
 -84.8556
 -84.9081
 -84.8602
 -84.8873
 -85.2676
 -85.3754
 -85.3714
 -85.3702
 -85.3731
 -74.7236
 -73.6354
 -74.7241
 -74.7462
 -84.7761
 -84.7194
 -84.621
 -84.5961
 -84.6185
 -84.6331
 -84.5249
 -84.5337
 -84.4446
 -84.4828
 -85.2841
 -85.274
 -85.2776
 -85.2817
 -85.2936
 -85.3
 -85.2896
 -85.2941
 -84.5114
 -84.4534
 -85.2526
 -85.2473
 -85.263
 -85.2526
 -85.274
 -85.282
 -85.2733
 -85.154
 -85.1453
 -85.1333
 -85.1225
 -84.9788
 -84.9397
 -84.9648
 -84.9442
 -85.2883
 -85.2977
 -85.2964
 -85.2914
 -85.3152
 -85.3191
 -85.322
 -85.3181
 -85.2945
 -85.3036
 -85.2951
 -85.2954
 -85.2991
 -85.2953
 -85.2875
 -84.9745
 -84.9877
 -84.9852
 -84.9581
 -82.261
 -82.332
 -82.4993
 -82.4869
 -84.8343
 -84.8205
 -84.7957
 -84.8111
 -85.3106
 -85.3046
 -85.3005
 -85.3078
 -85.2552
 -85.2545
 -85.2515
 -85.2648
 -84.8238
 -84.8565
 -84.8709
 -84.8829
 -85.2579
 -85.2454
 -85.251
 -85.2568
 -85.1559
 -85.1648
 -85.1241
 -85.1583
 -85.1726
 -85.1913
 -85.1855
 -85.1867
 -85.2533
 -85.2569
 -85.2593
 -85.3604
 -85.3608
 -85.3593
 -85.36
 -84.8127
 -84.861
 -84.8345
 -84.8524
 -85.0812
 -85.1121
 -85.1054
 -85.0956
 -81.9807
 -81.6692
 -81.6289
 -81.9975
 -84.2719
 -84.352
 -84.3372
 -84.2845
 -84.4583
 -84.2801
 -84.349
 -84.2654
 -84.3247
 -84.3626
 -84.3537
 -84.3817
 -85.1387
 -85.1231
 -85.1301
 -84.0023
 -83.9877
 -84.0299
 -84.0374
 -83.9738
 -84.0371
 -84.1511
 -83.9969
 -85.3702
 -85.368
 -85.3673
 -85.3687
 -85.1591
 -85.1437
 -85.1453
 -85.1352
 -85.3226
 -85.3238
 -85.3219
 -85.3161
 -85.1976
 -85.2066
 -85.1959
 -85.1818
 -85.25
 -85.2598
 -85.2525
 -85.2553
 -84.4677
 -84.3917
 -84.4456
 -84.3268
 -85.0543
 -85.1067
 -85.0727
 -85.0709
 -85.3148
 -85.3178
 -85.3106
 -85.3123
 -85.2153
 -85.2107
 -85.2267
 -85.2201
 -84.015
 -83.994
 -84.1763
 -84.1775
 -85.3585
 -85.36
 -85.3592
 -85.3602
 -84.8063
 -84.7554
 -84.0569
 -85.0686
 -85.0824
 -85.0919
 -85.0574
 -84.9743
 -84.9953
 -84.955
 -84.9576
 -81.0344
 -80.9444
 -81.5008
 -84.728
 -84.6834
 -84.6643
 -84.6325
 -85.1984
 -85.2245
 -85.2162
 -85.225
 -85.0688
 -85.1014
 -85.0807
 -85.076
 -85.3458
 -85.3478
 -85.348
 -85.347
 -84.3938
 -84.4996
 -84.4258
 -84.4182
 -84.4118
 -84.3865
 -84.5021
 -81.0824
 -80.4758
 -80.7141
 -81.1714
 -84.3373
 -84.4272
 -84.3791
 -85.1707
 -85.2062
 -85.174
 -84.3411
 -84.3383
 -84.2727
 -84.3038
 -84.96
 -84.9967
 -85.0104
 -84.9946
 -62.1419
 -62.1622
 -62.0852
 -62.5386
 -84.9463
 -84.9251
 -84.9397
 -83.7449
 -83.7408
 -83.7536
 -83.7694
 -84.9496
 -84.9213
 -84.8796
 -84.9246
 -84.3143
 -84.3892
 -84.3862
 -84.4094
 -85.2423
 -85.2463
 -85.2376
 -85.25
 -85.2803
 -85.2756
 -85.2836
 -85.2847
 -85.3671
 -85.367
 -85.3682
 -85.3656
 -85.1751
 -85.1465
 -85.1702
 -85.1784
 -84.2292
 -84.1632
 -84.2198
 -84.1815
 -84.4533
 -84.4187
 -83.1504
 -83.123
 -83.2381
 -83.2131
 -85.0377
 -85.0524
 -84.7179
 -84.7944
 -84.7822
 -84.4998
 -84.5361
 -84.5721
 -84.5201
 -85.3527
 -85.353
 -85.3472
 -85.3483
 -85.3487
 -85.347
 -85.3445
 -85.3475
 -84.5006
 -84.5485
 -84.5081
 -84.4085
 -84.0424
 -84.0613
 -85.2041
 -85.2044
 -85.2001
 -85.2163
 -84.4578
 -84.3973
 -84.4949
 -84.469
 -84.7829
 -84.7104
 -84.8456
 -85.3789
 -85.3797
 -85.3779
 -85.0905
 -85.1211
 -85.1015
 -85.1092
 -85.3317
 -85.338
 -85.3304
 -85.3285
 -85.1207
 -85.1406
 -85.1429
 -85.1247
 -85.2846
 -85.2927
 -85.2944
 -85.2806
 -84.221
 -84.2843
 -84.2336
 -84.2061
 -84.2658
 -84.3791
 -84.2276
 -84.3532
 -85.1405
 -85.1174
 -85.1508
 -85.1265
 -84.7317
 -84.8005
 -84.8221
 -84.7224
 -84.006
 -84.0503
 -84.0958
 -84.2096
 -84.9561
 -84.9903
 -85.0021
 -85.0187
 -85.2152
 -85.2204
 -85.2111
 -85.1308
 -85.15
 -85.1382
 -85.1519
 -67.7894
 -69.2769
 -69.533
 -68.7388
 -84.0745
 -84.0728
 -84.0837
 -84.0788
 -84.7256
 -84.699
 -84.7265
 -84.7807
 -79.5633
 -79.9332
 -79.087
 -79.7395
 -85.3268
 -85.3245
 -85.3215
 -85.3696
 -85.3678
 -85.3659
 -85.3676
 -85.2969
 -85.3104
 -85.3044
 -85.3046
 -85.1242
 -85.2315
 -85.2411
 -85.2499
 -85.2411
 -85.0683
 -85.0879
 -85.05
 -85.057
 -83.4158
 -83.131
 -83.3159
 -84.3599
 -84.3998
 -84.4154
 -84.2783
 -69.0687
 -67.7257
 -68.9251
 -67.001
 -80.854
 -80.8111
 -81.1144
 -80.6139
 -84.64
 -84.6426
 -84.683
 -84.7247
 -85.3733
 -85.3693
 -85.3705
 -85.3696
 -71.9569
 -71.5791
 -72.8772
 -72.1668
 -85.2729
 -85.2787
 -85.2655
 -85.273
 -85.1488
 -85.1501
 -85.1703
 -85.1522
 -84.4883
 -84.3283
 -84.307
 -84.9771
 -84.9404
 -84.9163
 -84.914
 -85.3711
 -85.3712
 -85.3723
 -83.5658
 -83.8228
 -83.8719
 -84.9999
 -85.0268
 -85.0623
 -85.0561
 -84.7051
 -84.6927
 -84.6838
 -84.6567
 -84.7741
 -84.7607
 -84.8234
 -84.8418
 -83.4998
 -83.4027
 -83.3737
 -83.5855
 -84.9966
 -85.021
 -84.9841
 -85.0338
 -85.3529
 -85.3449
 -85.3456
 -85.342
 -85.3455
 -85.3434
 -85.3409
 -85.3473
 -83.3464
 -83.3054
 -83.4233
 -83.2718
 -85.3239
 -85.3241
 -85.323
 -85.3181
 -85.3489
 -85.3537
 -85.3517
 -85.3468
 -85.3154
 -85.3166
 -85.308
 -85.3098
 -85.243
 -85.2368
 -85.2476
 -85.2418
 -85.0913
 -85.0713
 -85.1077
 -84.6504
 -84.5431
 -84.598
 -84.5888
 -85.2885
 -85.2825
 -85.2733
 -85.2819
 -85.3064
 -85.3066
 -85.3116
 -85.3094
 -85.3818
 -85.3814
 -85.3791
 -85.3802
 -81.2314
 -81.5027
 -81.3956
 -81.4536
 -83.212
 -83.15
 -83.1673
 -83.247
 -83.5621
 -83.5686
 -83.8051
 -83.5624
 -84.6632
 -84.5838
 -84.6451
 -84.6501
 -84.8593
 -84.8692
 -84.867
 -85.3524
 -85.3559
 -85.36
 -85.3577
 -85.3136
 -85.3123
 -85.3092
 -85.3057
 -85.0642
 -85.0398
 -85.0315
 -85.0544
 -85.3481
 -85.3517
 -85.203
 -85.2065
 -85.2061
 -85.1888
 -85.3476
 -85.3498
 -85.3533
 -85.3492
 -85.1663
 -85.1894
 -85.1595
 -85.1935
 -84.6068
 -84.6876
 -84.5688
 -84.6504
 -82.6446
 -82.3419
 -82.6001
 -82.8017
 -67.5757
 -68.6112
 -66.8285
 -68.2074
 -85.336
 -85.3328
 -85.3321
 -85.3369
 -85.3394
 -85.3394
 -85.3406
 -85.3438
 -84.9261
 -84.8624
 -84.9148
 -84.8925
 -85.1291
 -85.1163
 -85.1127
 -85.1331
 -84.3787
 -84.3057
 -84.4256
 -85.1892
 -85.1798
 -85.1796
 -85.1655
 -84.4502
 -84.4319
 -84.4737
 -84.4925
 -85.098
 -85.0663
 -85.0444
 -85.0621
 -85.2498
 -85.2426
 -85.2483
 -85.2501
 -85.1362
 -85.1264
 -85.125
 -85.3185
 -85.3106
 -85.3147
 -85.3149
 -85.2122
 -85.2301
 -78.3122
 -79.0193
 -77.9022
 -78.4249
 -85.2965
 -85.2927
 -85.2967
 -84.4753
 -84.4909
 -84.5144
 -84.4498
 -85.237
 -85.2391
 -85.2329
 -85.0322
 -85.0053
 -85.0467
 -85.0118
 -85.2129
 -85.1905
 -85.2186
 -85.2071
 -85.2081
 -85.2266
 -74.4746
 -74.4981
 -73.9251
 -74.2409
 -68.4545
 -67.4001
 -66.5156
 -67.7858
 -85.0884
 -85.0526
 -85.0641
 -85.0478
 -85.2142
 -85.2041
 -85.2109
 -85.196
 -74.5014
 -74.5076
 -74.4117
 -75.2666
 -84.4885
 -84.4042
 -83.2945
 -83.3754
 -83.3702
 -83.4928
 -85.2236
 -85.2229
 -85.2407
 -85.2308
 -85.1975
 -85.1976
 -85.2132
 -85.189
 -85.2042
 -85.1898
 -85.1882
 -85.1868
 -84.7327
 -84.75
 -84.78
 -84.731
 -84.0722
 -83.9402
 -83.8601
 -84.0761
 -80.9437
 -81.4259
 -81.323
 -80.8581
 -84.2653
 -84.2792
 -84.2787
 -84.4112
 -85.2934
 -85.2892
 -85.298
 -85.2956
 -85.0915
 -85.0231
 -85.0636
 -80.5824
 -80.8547
 -81.2465
 -85.2563
 -85.27
 -85.265
 -85.2653
 -85.2634
 -85.2492
 -85.2545
 -85.2619
 -84.9078
 -84.879
 -84.8615
 -85.01
 -85.0285
 -85.0543
 -85.0187
 -84.2556
 -84.2105
 -84.1983
 -84.2025
 -85.3269
 -85.325
 -85.3294
 -85.3284
 -84.161
 -84.1473
 -84.1494
 -84.1709
 -83.7935
 -83.7294
 -83.8029
 -85.364
 -85.3697
 -85.3716
 -85.3681
 -85.3096
 -85.3149
 -84.6227
 -84.5778
 -84.6475
 -84.646
 -85.0715
 -85.1028
 -85.0811
 -84.9953
 -84.9818
 -84.9888
 -84.9427
 -83.9048
 -84.0485
 -83.9592
 -85.3195
 -85.3237
 -85.3151
 -85.3166
 -83.8854
 -84.0856
 -83.9381
 -83.8863
 -85.2794
 -85.272
 -85.2645
 -85.2658
 -84.1803
 -84.2095
 -84.1312
 -84.0104
 -84.09
 -84.0566
 -84.5551
 -84.5025
 -84.5309
 -84.5467
 -81.2102
 -80.9324
 -80.4692
 -80.9963
 -85.297
 -85.3044
 -84.8072
 -84.8385
 -84.8499
 -84.844
 -85.3668
 -85.3656
 -85.3662
 -85.3681
 -84.6845
 -84.6113
 -84.6802
 -84.7539
 -85.3082
 -85.3154
 -85.3167
 -85.3154
 -85.345
 -85.3503
 -85.3427
 -85.3479
 -85.2742
 -85.2616
 -85.3593
 -85.3624
 -85.3613
 -85.3598
 -83.9707
 -83.9871
 -83.8876
 -84.0564
 -85.3609
 -85.3614
 -85.3616
 -85.3606
 -85.3707
 -85.3744
 -85.3726
 -85.3705
 -85.1586
 -85.1574
 -85.1777
 -85.1712
 -84.9879
 -84.9629
 -85.0097
 -85.0304
 -85.3355
 -85.3294
 -85.3341
 -85.3354
 -79.1989
 -79.7633
 -79.1767
 -79.1673
 -85.3317
 -85.338
 -84.7724
 -84.816
 -84.8281
 -84.8826
 -85.3362
 -85.3323
 -85.3284
 -85.3287
 -84.2701
 -84.3485
 -84.3368
 -84.3256
 -84.7896
 -84.6911
 -84.7326
 -84.7782
 -84.0579
 -84.0484
 -84.206
 -84.2354
 -84.1943
 -84.2414
 -84.175
 -84.0021
 -84.0729
 -84.0384
 -84.0745
 -85.1988
 -85.1843
 -85.1776
 -85.3281
 -85.328
 -85.3336
 -85.3335
 -85.1626
 -85.1509
 -85.1342
 -84.2716
 -84.2152
 -84.2664
 -85.0494
 -85.083
 -85.0505
 -85.0798
 -85.2303
 -85.23
 -85.2276
 -85.2437
 -84.9328
 -84.9709
 -84.9776
 -84.9671
 -84.9551
 -84.9412
 -84.9207
 -84.8336
 -84.794
 -84.7718
 -84.822
 -84.8739
 -84.8933
 -84.8077
 -85.3303
 -85.3299
 -85.3313
 -85.3255
 -85.2399
 -85.2319
 -85.2419
 -85.2444
 -85.0481
 -85.0396
 -85.0196
 -85.0718
 -83.5585
 -83.4062
 -83.6066
 -85.1672
 -85.1532
 -85.1631
 -85.1708
 -84.5036
 -84.3905
 -84.4686
 -84.397
 -76.3833
 -76.9009
 -76.3654
 -76.0935
 -84.886
 -84.8577
 -84.8807
 -84.8757
 -85.3364
 -85.3346
 -85.341
 -85.339
 -84.8133
 -84.8577
 -84.8256
 -84.7964
 -84.1339
 -84.1366
 -84.1546
 -84.1833
 -84.1238
 -84.0527
 -84.068
 -84.9562
 -84.9628
 -84.9338
 -85.2367
 -84.8062
 -84.6902
 -84.7613
 -84.7546
 -85.3476
 -85.347
 -85.3495
 -85.3408
 -85.3417
 -85.3437
 -84.7569
 -84.8056
 -84.7669
 -84.7967
 -85.3673
 -85.3695
 -85.3708
 -85.3705
 -84.335
 -85.2015
 -85.1837
 -85.1967
 -85.1908
 -84.2043
 -84.2443
 -84.231
 -84.2436
 -85.3435
 -85.3475
 -85.3417
 -85.3443
 -85.2328
 -85.2486
 -85.2462
 -85.2351
 -85.3016
 -85.3069
 -85.2954
 -85.2993
 -84.0103
 -84.048
 -84.0626
 -84.0144
 -84.655
 -84.7058
 -84.6501
 -84.6658
 -85.1819
 -85.1671
 -85.1787
 -85.1579
 -84.6076
 -84.5185
 -84.6235
 -84.5515
 -85.2252
 -85.2324
 -85.2447
 -85.242
 -84.3354
 -84.318
 -84.4008
 -84.3851
 -84.5536
 -84.5527
 -84.6256
 -84.6113
 -85.1881
 -85.1906
 -85.1927
 -85.2055
 -85.3405
 -85.3451
 -85.3425
 -85.3466
 -83.128
 -83.321
 -83.3529
 -83.43
 -81.0274
 -80.3537
 -81.052
 -80.9218
 -85.3501
 -85.355
 -85.3524
 -85.3517
 -82.0267
 -81.6778
 -81.447
 -81.1567
 -80.9319
 -81.3588
 -85.0856
 -85.089
 -85.0663
 -85.0591
 -84.6147
 -84.6573
 -84.6543
 -84.6023
 -85.3812
 -85.3811
 -85.3814
 -85.38
 -85.3442
 -85.3435
 -85.3486
 -85.2239
 -85.2222
 -85.2366
 -85.2224
 -84.2492
 -84.2667
 -84.1885
 -84.2932
 -84.5725
 -84.5576
 -84.5413
 -84.5298
 -84.5797
 -84.6103
 -85.2322
 -85.2549
 -85.2474
 -85.2384
 -85.2099
 -85.2071
 -85.1919
 -85.2126
 -85.2469
 -85.2417
 -85.2344
 -85.2455
 -85.3688
 -85.3688
 -85.3637
 -85.3707
 -85.2775
 -85.2745
 -85.2669
 -84.8615
 -85.1165
 -85.1016
 -85.105
 -85.0881
 -85.1379
 -85.1061
 -85.1181
 -85.1427
 -85.3256
 -85.3246
 -85.3231
 -85.32
 -85.2804
 -85.2729
 -85.2758
 -85.2819
 -85.2165
 -85.2033
 -85.1994
 -84.7104
 -84.61
 -84.6928
 -84.6092
 -85.1048
 -85.1375
 -85.1242
 -85.1152
 -84.8592
 -84.8971
 -84.8349
 -71.3774
 -71.2165
 -70.4523
 -71.7242
 -85.3265
 -85.3368
 -85.3321
 -85.3205
 -85.3103
 -85.3222
 -85.3158
 -73.3712
 -85.1528
 -85.1521
 -85.149
 -85.1706
 -85.2142
 -85.2156
 -83.0026
 -83.0015
 -82.9609
 -83.0628
 -83.5597
 -83.6104
 -83.8241
 -83.5564
 -84.3322
 -84.3857
 -84.2992
 -84.4806
 -84.4066
 -84.4513
 -84.4721
 -84.396
 -84.39
 -84.4414
 -84.8017
 -84.728
 -84.7032
 -84.7345
 -84.8828
 -84.9418
 -85.3808
 -85.3802
 -83.9729
 -84.1578
 -83.9341
 -84.0632
 -84.9814
 -84.9674
 -85.0099
 -84.9577
 -82.8793
 -83.0261
 -82.6484
 -82.6592
 -85.3346
 -85.3377
 -85.3307
 -85.3337
 -85.3033
 -85.2965
 -85.3021
 -85.2959
 -85.2216
 -85.235
 -85.2355
 -85.2264
 -85.1841
 -85.1906
 -85.2136
 -85.2071
 -85.0863
 -85.0766
 -84.0025
 -85.2712
 -85.2795
 -85.2808
 -85.2807
 -85.3622
 -85.3604
 -85.3657
 -85.3598
 -85.3151
 -85.3217
 -85.3123
 -85.316
 -62.1999
 -62.1101
 -62.301
 -62.5858
 -85.3659
 -85.3669
 -85.366
 -85.3661
 -84.4612
 -84.45
 -84.378
 -84.4906
 -84.7659
 -84.6845
 -84.7193
 -84.6612
 -85.2675
 -85.2687
 -85.2734
 -85.2767
 -85.2743
 -85.2697
 -85.2654
 -85.2685
 -84.2143
 -84.3204
 -84.2582
 -84.2999
 -85.3644
 -85.3653
 -85.3639
 -85.3646
 -85.338
 -85.34
 -85.3391
 -85.3418
 -85.2628
 -85.2634
 -85.2713
 -85.2728
 -85.3348
 -85.3296
 -85.3338
 -85.3338
 -84.5244
 -84.616
 -84.6206
 -84.6307
 -84.2491
 -84.258
 -84.2958
 -84.298
 -85.3287
 -85.3262
 -85.3231
 -85.3244
 -84.9756
 -84.9427
 -84.9502
 -84.9067
 -84.9688
 -84.9504
 -84.9394
 -84.9632
 -69.4708
 -70.5272
 -70.4581
 -70.6483
 -85.3625
 -85.3634
 -85.3426
 -85.3425
 -85.3398
 -85.3456
 -83.3761
 -83.2595
 -83.1994
 -83.3987
 -84.6573
 -84.5488
 -84.5406
 -84.5103
 -85.3389
 -85.3356
 -85.3426
 -85.3423
 -84.9575
 -84.969
 -84.945
 -84.9924
 -84.7765
 -84.7934
 -84.7321
 -84.7377
 -85.367
 -85.3681
 -85.3663
 -85.3666
 -85.1559
 -85.1471
 -85.1544
 -85.1633
 -85.0934
 -85.1012
 -85.0965
 -85.0743
 -85.3079
 -85.3101
 -85.3122
 -85.3058
 -85.2351
 -85.2266
 -85.2248
 -85.2158
 -84.924
 -84.9218
 -84.8672
 -84.664
 -84.7259
 -84.6902
 -84.7911
 -81.953
 -81.6092
 -81.7542
 -82.1973
 -84.7321
 -84.7621
 -84.7733
 -84.7818
 -85.1382
 -85.1234
 -85.1314
 -85.1171
 -85.3614
 -85.363
 -85.3628
 -85.358
 -84.7926
 -84.8781
 -84.8365
 -84.8187
 -83.2645
 -83.2327
 -83.0402
 -82.8595
 -85.2549
 -85.269
 -85.2632
 -85.2569
 -85.2015
 -85.1933
 -85.186
 -85.1222
 -85.1476
 -85.1598
 -85.1647
 -81.1146
 -80.9574
 -81.0188
 -81.3612
 -85.1601
 -85.144
 -85.1469
 -85.1407
 -85.3627
 -85.3626
 -85.363
 -85.3631
 -85.1393
 -85.1254
 -85.1451
 -85.1376
 -83.9014
 -83.8305
 -83.8923
 -83.9087
 -84.3632
 -84.4277
 -84.3682
 -84.2901
 -85.3807
 -85.3797
 -85.3806
 -85.3803
 -84.5113
 -84.5404
 -84.5227
 -84.3745
 -85.2075
 -85.187
 -85.1903
 -85.2011
 -85.3806
 -85.3814
 -85.38
 -85.3791
 -85.3464
 -85.3529
 -85.3488
 -85.26
 -85.2623
 -85.2724
 -85.2761
 -85.3271
 -85.3302
 -85.3354
 -85.3253
 -77.1831
 -77.8009
 -78.2011
 -78.0012
 -84.1097
 -84.2261
 -83.9874
 -85.3536
 -85.3573
 -85.3563
 -85.3578
 -85.2061
 -85.1986
 -85.2152
 -85.1919
 -85.2929
 -85.2916
 -85.3013
 -85.2848
 -83.3286
 -83.2875
 -83.1169
 -83.0957
 -84.9446
 -85.0022
 -84.9427
 -84.9798
 -85.225
 -85.1997
 -85.213
 -83.317
 -83.3569
 -83.4139
 -83.4129
 -84.3156
 -83.9342
 -83.9971
 -83.9593
 -84.8364
 -85.3552
 -85.3582
 -85.3553
 -85.3584
 -77.944
 -77.7955
 -77.1626
 -77.2907
 -85.3027
 -85.3153
 -85.3098
 -85.3168
 -85.2174
 -85.2068
 -85.2038
 -85.1882
 -72.4316
 -85.3181
 -85.314
 -85.3217
 -85.3542
 -85.3594
 -85.3556
 -85.3562
 -85.0471
 -85.0373
 -85.092
 -85.0582
 -85.2592
 -85.2592
 -85.2677
 -85.2531
 -84.4459
 -84.3761
 -85.0936
 -85.0807
 -85.074
 -85.1009
 -84.4237
 -84.3584
 -84.2957
 -84.3599
 -84.6657
 -84.6454
 -84.7312
 -84.7393
 -85.2764
 -85.2685
 -85.2758
 -85.2766
 -79.5652
 -79.436
 -79.3459
 -80.0336
 -84.2739
 -84.2375
 -84.2694
 -84.2218
 -80.9174
 -81.1299
 -83.8952
 -83.918
 -83.9201
 -83.8958
 -83.5653
 -83.4304
 -83.6001
 -83.4678
 -85.3663
 -85.3644
 -85.3614
 -85.3612
 -85.1865
 -85.181
 -85.1736
 -85.1973
 -84.8899
 -84.9613
 -84.9155
 -84.9241
 -85.0906
 -85.0776
 -85.0695
 -85.0949
 -85.3596
 -85.3586
 -83.2896
 -83.2244
 -83.2413
 -83.2884
 -85.3585
 -85.3596
 -85.3561
 -78.7094
 -78.6986
 -78.651
 -78.3982
 -85.348
 -85.3405
 -85.3458
 -85.3435
 -84.6693
 -84.6212
 -84.6903
 -84.6069
 -85.0186
 -85.009
 -85.0003
 -85.3527
 -85.3498
 -85.3515
 -85.3535
 -85.186
 -85.1658
 -85.1841
 -85.1744
 -85.0079
 -85.0314
 -85.0453
 -85.0226
 -84.6774
 -84.6527
 -84.8711
 -84.7677
 -84.8261
 -84.8094
 -85.2176
 -85.1989
 -85.2103
 -85.3642
 -85.36
 -85.3591
 -85.3642
 -85.0053
 -85.0258
 -85
 -85.0166
 -84.917
 -84.8844
 -84.6091
 -84.5503
 -84.5224
 -84.6146
 -80.5556
 -80.6526
 -81.163
 -85.199
 -85.2031
 -85.1796
 -85.18
 -85.3642
 -85.3648
 -85.3646
 -80.6991
 -80.7322
 -80.7259
 -84.9402
 -84.9196
 -84.9358
 -84.8968
 -85.2468
 -85.2499
 -85.2365
 -85.2411
 -76.854
 -76.3937
 -76.6259
 -76.9669
 -85.3346
 -85.3365
 -85.334
 -85.3329
 -85.2536
 -85.2496
 -85.2499
 -85.2408
 -85.3096
 -85.3111
 -85.3069
 -85.3517
 -85.3531
 -85.3576
 -85.3539
 -85.1118
 -85.0757
 -85.1065
 -85.1156
 -85.3575
 -85.3557
 -85.3554
 -85.3539
 -84.7464
 -84.7404
 -84.7765
 -84.7055
 -85.3632
 -85.2401
 -85.0793
 -85.0729
 -85.097
 -85.0645
 -85.2114
 -85.204
 -85.1978
 -85.1924
 -85.2866
 -85.2872
 -85.2812
 -85.2768
 -85.2258
 -85.2226
 -85.2355
 -85.2284
 -85.2889
 -85.2831
 -85.2886
 -85.2887
 -85.0807
 -85.0621
 -85.064
 -85.0916
 -85.0168
 -85.0178
 -85.0268
 -85.0431
 -84.9096
 -84.8907
 -84.8786
 -84.927
 -85.0169
 -85.0131
 -84.9854
 -84.1613
 -84.1738
 -84.1642
 -84.2231
 -85.1184
 -85.2477
 -85.258
 -85.2602
 -85.2597
 -85.3589
 -85.3593
 -85.3538
 -84.5727
 -84.4428
 -84.4743
 -84.4416
 -85.1441
 -85.1688
 -85.1585
 -85.2179
 -85.2073
 -85.2065
 -85.196
 -85.2509
 -85.2583
 -85.2662
 -85.2708
 -85.3423
 -85.3447
 -85.3486
 -85.3439
 -84.4089
 -84.398
 -84.4435
 -84.3331
 -85.1286
 -85.1165
 -85.1217
 -85.0989
 -85.0498
 -85.0438
 -85.0143
 -85.0611
 -85.0236
 -85.0111
 -84.9982
 -84.975
 -85.0961
 -85.0903
 -85.1066
 -85.0737
 -85.277
 -85.2627
 -85.2813
 -85.2689
 -85.0091
 -84.9565
 -84.9769
 -84.9921
 -83.2454
 -83.2499
 -83.2404
 -83.2873
 -81.8185
 -81.9827
 -81.835
 -85.0896
 -85.0963
 -85.1138
 -85.1247
 -85.107
 -85.0989
 -85.1189
 -85.1338
 -85.0106
 -84.9825
 -85.0347
 -85.0256
 -85.3513
 -85.3525
 -85.3463
 -85.3467
 -85.2891
 -85.2824
 -85.2788
 -85.2859
 -84.5836
 -84.6319
 -84.6132
 -84.6326
 -83.5955
 -83.8412
 -83.7641
 -83.4706
 -85.3411
 -85.3385
 -85.3356
 -85.3409
 -78.6059
 -77.7599
 -77.9326
 -78.7957
 -84.7654
 -84.8145
 -84.7873
 -84.782
 -83.5691
 -83.6305
 -83.6155
 -84.29
 -84.3295
 -84.3539
 -84.4417
 -85.272
 -85.2713
 -85.279
 -85.2613
 -84.1097
 -84.0306
 -84.0147
 -84.1208
 -81.8137
 -82.5436
 -82.0737
 -76.7917
 -77.5156
 -77.8305
 -77.3026
 -85.3717
 -85.3729
 -85.3729
 -85.3758
 -84.5298
 -84.4764
 -84.5136
 -84.5509
 -85.1817
 -85.1572
 -85.1648
 -85.1729
 -85.3471
 -85.3459
 -85.3416
 -85.3453
 -85.3175
 -85.3225
 -85.3151
 -85.3166
 -84.5574
 -84.5913
 -84.5309
 -84.5597
 -82.8594
 -82.5434
 -82.218
 -82.6108
 -85.1754
 -85.1854
 -85.1637
 -85.1738
 -83.2735
 -83.4563
 -84.9241
 -84.8423
 -84.8664
 -84.9041
 -84.9335
 -84.9304
 -84.9054
 -84.9464
 -84.8548
 -84.8587
 -84.8337
 -83.9195
 -83.9681
 -83.9247
 -85.1805
 -85.182
 -85.1906
 -85.1933
 -85.1748
 -85.171
 -85.1627
 -85.1893
 -84.5714
 -84.6388
 -84.5997
 -84.583
 -85.2924
 -85.2978
 -85.2887
 -85.2902
 -85.0734
 -85.0333
 -85.0537
 -85.0798
 -84.1286
 -84.1269
 -84.1157
 -84.1244
 -84.8757
 -84.9302
 -84.8864
 -85.1997
 -85.1965
 -85.1839
 -85.1914
 -85.1171
 -85.136
 -85.1428
 -85.3692
 -85.369
 -85.3676
 -85.3668
 -81.2895
 -80.9984
 -81.3809
 -80.6925
 -84.7858
 -84.8291
 -84.8335
 -84.7922
 -84.6806
 -84.669
 -84.6185
 -84.6895
 -85.3706
 -85.3702
 -85.3745
 -85.3767
 -85.3128
 -85.3162
 -85.3149
 -84.2456
 -84.2811
 -84.18
 -84.2901
 -85.2972
 -85.2898
 -85.2926
 -84.5389
 -84.5549
 -84.5002
 -84.5156
 -66.8573
 -67.4891
 -67.2856
 -67.8569
 -85.3516
 -85.3526
 -85.3559
 -85.3499
 -83.9449
 -83.9058
 -83.8512
 -83.7699
 -85.368
 -85.3674
 -85.3668
 -85.3673
 -84.2158
 -84.3094
 -84.2261
 -84.2931
 -68.3055
 -66.7558
 -67.7718
 -68.0426
 -82.3865
 -82.206
 -82.4272
 -82.434
 -84.0238
 -84.0874
 -84.1637
 -84.0038
 -85.0359
 -85.0032
 -83.4923
 -83.5838
 -83.2309
 -83.257
 -85.219
 -85.2086
 -85.2054
 -85.1948
 -85.0231
 -85.0213
 -85.0201
 -85.0614
 -85.3466
 -85.3416
 -85.3494
 -85.3502
 -85.333
 -85.3317
 -85.3373
 -85.3354
 -85.3205
 -85.3128
 -85.3189
 -85.315
 -85.3442
 -85.3449
 -85.3464
 -85.3427
 -85.2432
 -85.2444
 -85.2522
 -85.2458
 -85.3241
 -85.3294
 -85.3283
 -85.327
 -81.748
 -81.1666
 -81.135
 -81.7412
 -85.3332
 -85.3367
 -85.3366
 -85.3357
 -84.9022
 -84.861
 -84.8202
 -84.8402
 -85.3038
 -85.2927
 -85.2935
 -85.3359
 -85.3397
 -85.341
 -85.3393
 -83.9209
 -83.7697
 -83.7668
 -83.8353
 -82.729
 -82.6785
 -82.5765
 -82.6144
 -85.2661
 -85.2656
 -85.2609
 -85.2763
 -84.8664
 -84.8722
 -84.8736
 -84.8207
 -85.2566
 -85.2527
 -85.2558
 -85.2508
 -85.2497
 -85.2486
 -85.2688
 -84.8065
 -84.7917
 -84.7512
 -85.2418
 -85.2505
 -85.1496
 -85.1231
 -85.3628
 -85.3654
 -85.3652
 -85.3627
 -85.1045
 -85.1074
 -85.0906
 -85.1187
 -85.2341
 -85.2353
 -85.2494
 -85.2336
 -85.2058
 -85.2123
 -85.2038
 -85.2163
 -85.3251
 -85.3024
 -85.3036
 -85.2983
 -85.2967
 -84.9789
 -84.9964
 -84.9564
 -84.9581
 -83.7328
 -83.7336
 -83.7275
 -83.7205
 -85.2312
 -85.2222
 -85.2355
 -85.2294
 -85.2619
 -85.2606
 -85.254
 -85.2684
 -71.2848
 -72.1648
 -72.469
 -72.9185
 -85.0771
 -85.1021
 -85.0898
 -85.0673
 -85.0268
 -85.0006
 -84.9857
 -85.0085
 -85.2376
 -85.2293
 -84.1928
 -84.2059
 -84.2356
 -84.1971
 -84.7408
 -84.7708
 -84.7652
 -84.736
 -84.32
 -84.284
 -84.2682
 -84.2745
 -84.6118
 -84.6526
 -84.6483
 -84.5993
 -84.1965
 -84.1858
 -84.1409
 -84.2004
 -85.3178
 -85.3136
 -85.3142
 -85.3188
 -85.332
 -85.3296
 -85.3245
 -85.3282
 -84.5565
 -84.5167
 -84.4737
 -84.5427
 -85.0943
 -85.0778
 -85.0956
 -85.0752
 -85.3211
 -85.3157
 -85.3212
 -85.3185
 -84.9903
 -84.9571
 -84.9555
 -85.0106
 -84.4918
 -84.56
 -83.2119
 -83.3034
 -83.3367
 -83.1761
 -85.0659
 -85.0561
 -85.0227
 -85.0132
 -85.3188
 -85.3158
 -85.3162
 -85.3245
 -85.3627
 -85.3597
 -85.3606
 -85.363
 -73.5139
 -73.2821
 -84.8552
 -84.9111
 -84.9016
 -84.9441
 -84.7738
 -84.6947
 -84.7461
 -84.7509
 -84.7428
 -84.7426
 -84.3165
 -84.336
 -84.3493
 -84.3513
 -85.0268
 -85.0496
 -85.0699
 -81.6104
 -81.8626
 -81.878
 -82.0856
 -85.3368
 -85.3406
 -85.3322
 -85.3376
 -85.3627
 -85.3624
 -85.3617
 -85.3713
 -85.3698
 -85.3661
 -85.3688
 -85.1903
 -85.2097
 -85.2089
 -85.2065
 -85.0783
 -85.1145
 -85.0705
 -85.1013
 -85.2942
 -85.305
 -85.3075
 -85.3029
 -85.2205
 -85.2128
 -85.2275
 -85.2158
 -85.204
 -85.2147
 -85.2048
 -85.1404
 -85.143
 -85.1312
 -85.1603
 -85.2789
 -85.2964
 -85.29
 -85.2804
 -84.9728
 -84.9369
 -84.9599
 -84.9679
 -85.1021
 -85.0923
 -85.128
 -85.0937
 -85.2567
 -85.2537
 -85.2472
 -85.2558
 -85.0905
 -85.0776
 -85.0703
 -85.0972
 -68.767
 -68.3594
 -69.9203
 -69.7903
 -84.4381
 -84.4076
 -84.3943
 -84.3535
 -85.2784
 -85.2762
 -85.288
 -85.2893
 -84.1267
 -84.1208
 -83.9284
 -83.8917
 -83.7788
 -83.5732
 -83.7891
 -83.9138
 -85.3219
 -85.3198
 -85.3228
 -85.3155
 -85.307
 -85.2985
 -85.3069
 -85.3039
 -85.3384
 -85.3332
 -85.3367
 -85.3399
 -85.2774
 -85.2785
 -85.2872
 -85.2818
 -84.8769
 -84.8476
 -84.8276
 -84.8432
 -84.5014
 -84.4713
 -84.5333
 -84.4523
 -85.2577
 -85.2404
 -85.2602
 -85.2452
 -84.5213
 -84.5487
 -84.5532
 -84.5518
 -83.5138
 -83.5518
 -83.5991
 -83.6426
 -85.0699
 -85.0937
 -85.0724
 -85.0914
 -84.7775
 -84.7384
 -84.6997
 -84.8202
 -84.852
 -84.9167
 -84.8754
 -83.3302
 -83.2084
 -83.0495
 -83.219
 -84.5351
 -84.5222
 -84.5023
 -84.5032
 -85.2755
 -85.2811
 -85.2761
 -85.2777
 -85.1275
 -85.1466
 -85.1525
 -85.3747
 -85.3719
 -85.3725
 -85.3738
 -85.3481
 -85.3519
 -85.355
 -85.3502
 -84.7476
 -84.7988
 -84.7183
 -84.7915
 -85.1321
 -85.1495
 -83.3507
 -83.3278
 -83.0796
 -83.4406
 -85.1221
 -85.0915
 -85.088
 -85.1137
 -85.3326
 -85.3345
 -85.3294
 -85.3345
 -84.4508
 -84.4711
 -84.4834
 -84.933
 -84.9528
 -84.9539
 -84.8938
 -84.7559
 -84.8166
 -84.8267
 -84.8219
 -85.0646
 -85.0897
 -85.0968
 -85.0666
 -84.9566
 -84.9801
 -85.0057
 -84.9772
 -85.0826
 -85.087
 -85.065
 -85.1043
 -84.9354
 -84.963
 -85.3031
 -85.2961
 -85.3065
 -85.3007
 -84.9485
 -84.9173
 -84.928
 -84.9531
 -85.2032
 -85.1835
 -85.1969
 -84.9456
 -84.9806
 -84.9507
 -84.974
 -85.2214
 -85.213
 -85.204
 -85.2146
 -84.2146
 -84.1134
 -84.1882
 -84.0486
 -84.9947
 -84.9854
 -85.0318
 -85.1709
 -85.177
 -85.1925
 -85.1602
 -85.0573
 -85.0479
 -85.0694
 -84.3004
 -84.32
 -84.2574
 -85.2245
 -85.2212
 -85.2197
 -85.2031
 -85.037
 -85.0553
 -85.0654
 -75.3879
 -75.7331
 -75.9487
 -74.5773
 -85.2194
 -85.2088
 -85.1995
 -85.221
 -84.8145
 -84.7668
 -84.7769
 -84.7491
 -85.321
 -85.321
 -85.3236
 -85.3253
 -85.3348
 -85.3301
 -85.3374
 -85.336
 -83.6414
 -83.8714
 -83.5588
 -83.6311
 -85.1711
 -85.1596
 -85.1436
 -84.5493
 -84.4776
 -84.5407
 -84.5291
 -85.326
 -85.3184
 -85.3232
 -85.1091
 -85.1329
 -85.1173
 -85.1346
 -85.2703
 -85.2746
 -85.2736
 -85.2698
 -85.3489
 -85.3491
 -85.3524
 -85.3485
 -63.3825
 -62.756
 -62.8497
 -63.33
 -84.6249
 -84.6448
 -84.6792
 -84.6159
 -85.1305
 -85.1661
 -85.1524
 -85.165
 -82.8299
 -82.6465
 -82.4665
 -85.0397
 -85.0652
 -85.0615
 -85.0312
 -85.3537
 -85.2436
 -85.2314
 -85.2221
 -85.2364
 -85.3291
 -85.3291
 -85.3294
 -85.3319
 -85.2979
 -85.297
 -85.295
 -85.3023
 -85.1602
 -85.1548
 -85.1011
 -85.0718
 -85.0784
 -85.0703
 -75.7427
 -76.6871
 -75.7737
 -76.2001
 -84.742
 -84.7224
 -84.6954
 -84.6508
 -84.638
 -84.6885
 -84.6563
 -85.3583
 -85.3628
 -85.3595
 -85.3581
 -85.0674
 -85.0672
 -85.0921
 -85.0969
 -85.1196
 -85.1089
 -85.0884
 -85.105
 -85.3329
 -85.328
 -85.3359
 -85.3288
 -85.0859
 -85.0786
 -85.1125
 -85.1004
 -81.1453
 -81.1559
 -80.7282
 -80.8882
 -85.0357
 -85.0268
 -85.0505
 -85.036
 -84.5852
 -84.5927
 -84.6043
 -84.6461
 -84.4319
 -84.3602
 -84.3551
 -84.3939
 -83.791
 -83.8386
 -83.786
 -83.7616
 -80.2056
 -80.0545
 -79.7571
 -80.4727
 -85.367
 -85.3652
 -85.366
 -85.365
 -77.9604
 -78.183
 -77.3477
 -78.2714
 -85.0766
 -85.0551
 -85.0747
 -85.0508
 -85.364
 -85.3649
 -85.3613
 -85.3627
 -84.891
 -84.8701
 -84.9038
 -84.9064
 -83.6828
 -85.3444
 -85.3418
 -85.3428
 -85.3486
 -84.1223
 -80.9079
 -81.4819
 -81.4528
 -80.8762
 -85.1864
 -85.2086
 -85.3005
 -85.2915
 -85.3047
 -85.2944
 -85.3174
 -85.318
 -85.3223
 -85.3209
 -85.3724
 -85.3694
 -85.3737
 -85.3046
 -85.3134
 -85.3105
 -85.3088
 -84.8768
 -85.3599
 -85.2596
 -85.2586
 -85.2537
 -85.3626
 -85.3645
 -85.3652
 -85.3639
 -84.9266
 -84.9139
 -84.9234
 -84.8862
 -84.5429
 -84.5807
 -84.4818
 -84.4791
 -85.2379
 -85.232
 -85.2378
 -85.2541
 -85.3537
 -85.3559
 -85.3516
 -85.35
 -85.3415
 -85.3402
 -85.3421
 -85.3397
 -85.1925
 -85.2177
 -85.2156
 -79.342
 -78.8534
 -80.1698
 -79.1871
 -64.894
 -66.3762
 -65.5475
 -66.0324
 -82.4513
 -82.0935
 -81.9222
 -82.1852
 -85.1051
 -85.1282
 -85.1077
 -81.2702
 -81.5719
 -81.4454
 -81.2673
 -85.3024
 -85.2999
 -85.3081
 -85.3194
 -85.3196
 -85.3162
 -85.3193
 -84.1118
 -84.0688
 -85.2691
 -85.2694
 -85.3816
 -85.3802
 -85.3816
 -85.3683
 -85.3702
 -85.3695
 -85.3708
 -84.9569
 -84.9296
 -84.9841
 -84.9612
 -84.7106
 -84.699
 -84.6674
 -84.7429
 -85.0529
 -85.0565
 -85.0879
 -85.0729
 -85.366
 -85.3656
 -85.3667
 -85.3658
 -85.2711
 -85.2778
 -85.2748
 -85.2684
 -83.6363
 -83.6148
 -83.6344
 -83.7115
 -85.2693
 -85.2742
 -85.2663
 -85.2762
 -85.1767
 -85.1824
 -85.1613
 -85.1846
 -85.2454
 -85.2506
 -85.2513
 -61.7589
 -61.9097
 -62.0377
 -84.6247
 -84.5787
 -84.9208
 -84.9187
 -84.8844
 -84.9468
 -85.3012
 -85.3092
 -85.3029
 -85.3009
 -85.2699
 -85.2735
 -85.2848
 -85.2806
 -85.28
 -85.2753
 -85.2906
 -76.5144
 -76.5592
 -83.6468
 -83.6113
 -83.6862
 -83.6591
 -85.165
 -76.2602
 -75.2869
 -75.619
 -75.7163
 -84.5688
 -84.6449
 -84.6004
 -84.5873
 -84.9985
 -84.9702
 -80.4483
 -81.3134
 -81.2056
 -80.7214
 -85.3668
 -85.3702
 -85.3695
 -85.3673
 -85.3494
 -85.3519
 -85.3505
 -85.3547
 -83.9714
 -84.2102
 -84.0276
 -84.1414
 -84.6374
 -84.6048
 -84.7313
 -84.7133
 -84.6883
 -84.6668
 -84.6911
 -85.2874
 -85.2944
 -85.2805
 -85.2874
 -83.5023
 -83.6684
 -83.7433
 -83.7507
 -85.049
 -85.0453
 -85.0439
 -85.2409
 -85.2458
 -85.2489
 -85.2593
 -84.6559
 -84.6744
 -84.7019
 -84.6844
 -84.2939
 -84.3709
 -84.436
 -84.3352
 -84.4641
 -84.4175
 -84.4338
 -84.4917
 -84.8536
 -84.8554
 -84.9167
 -84.8838
 -85.2157
 -85.208
 -84.5897
 -84.5962
 -84.605
 -84.5481
 -85.3708
 -85.3652
 -85.3666
 -85.3667
 -84.3361
 -84.3833
 -84.3464
 -84.3933
 -82.6594
 -82.5474
 -82.8067
 -82.7402
 -85.176
 -85.1673
 -79.3645
 -79.3115
 -78.9331
 -79.4464
 -84.7443
 -84.8103
 -84.7144
 -85.3586
 -85.3584
 -85.3608
 -85.3605
 -80.09
 -79.7028
 -79.911
 -84.3859
 -84.3706
 -84.4358
 -84.4085
 -80.2829
 -84.2662
 -84.2161
 -84.2459
 -84.1463
 -85.0663
 -85.0446
 -85.0731
 -85.0773
 -84.8864
 -84.8955
 -84.9179
 -84.8841
 -85.3618
 -85.3657
 -85.1481
 -85.1627
 -85.1578
 -85.1489
 -83.9823
 -83.7759
 -84.0077
 -83.7672
 -84.7116
 -84.8143
 -84.7558
 -84.7256
 -85.3418
 -85.3393
 -85.3392
 -85.3405
 -84.9498
 -84.9787
 -85.0092
 -84.9887
 -85.1833
 -85.3195
 -85.3206
 -85.3158
 -84.7037
 -84.7249
 -84.6572
 -84.7312
 -85.2678
 -85.2635
 -85.267
 -85.2586
 -84.7702
 -84.6992
 -84.7364
 -84.7807
 -85.3596
 -85.3568
 -85.3549
 -85.3587
 -85.3788
 -85.3798
 -85.3781
 -84.4272
 -84.4605
 -84.5256
 -84.4902
 -85.219
 -85.2183
 -85.2038
 -85.2126
 -85.249
 -85.2549
 -85.2594
 -85.2628
 -84.5402
 -84.5662
 -84.2044
 -84.1743
 -84.1306
 -84.2534
 -84.8619
 -84.9375
 -85.1567
 -85.1679
 -85.1571
 -85.1494
 -85.2018
 -85.2066
 -85.2202
 -85.2046
 -84.8196
 -84.8768
 -84.9012
 -84.861
 -85.1353
 -85.1348
 -85.1359
 -85.3298
 -85.3248
 -85.322
 -85.3259
 -85.2963
 -85.2929
 -85.2969
 -84.869
 -84.9155
 -84.8333
 -84.8982
 -84.3139
 -84.1693
 -84.1105
 -84.283
 -85.2605
 -85.2456
 -85.2479
 -85.2553
 -84.9309
 -84.9223
 -84.8655
 -84.0478
 -84.0383
 -84.0484
 -84.0417
 -84.6402
 -84.6404
 -84.6611
 -84.6771
 -85.3119
 -85.3067
 -85.3047
 -85.372
 -85.3684
 -85.3695
 -85.2479
 -85.2537
 -85.2559
 -84.6398
 -84.5815
 -84.6638
 -84.6191
 -85.3731
 -85.3739
 -85.3731
 -85.3746
 -85.237
 -85.2279
 -85.2333
 -85.243
 -85.3209
 -85.3233
 -85.3292
 -85.3296
 -85.3139
 -85.318
 -85.3149
 -85.3156
 -81.9877
 -81.4621
 -81.6449
 -84.8273
 -84.8406
 -84.81
 -84.8431
 -85.3242
 -85.3259
 -85.3212
 -85.3215
 -85.0051
 -85.0174
 -85.0153
 -85.0476
 -85.2684
 -85.2692
 -85.2689
 -85.2591
 -85.3399
 -85.3439
 -83.5889
 -83.6858
 -83.669
 -83.7322
 -85.2867
 -85.2797
 -85.2943
 -85.2849
 -84.882
 -84.8729
 -84.8474
 -84.8987
 -85.251
 -85.2318
 -85.3662
 -85.3661
 -85.3624
 -85.3667
 -85.3171
 -85.3251
 -85.3141
 -85.3267
 -85.3733
 -85.3743
 -85.3771
 -85.3774
 -85.2909
 -85.2917
 -85.2955
 -85.2502
 -85.2626
 -85.2642
 -85.2569
 -85.2576
 -85.2525
 -85.2574
 -85.2444
 -84.5446
 -84.5605
 -84.5104
 -84.4864
 -81.3198
 -81.1654
 -81.6063
 -85.0769
 -85.0732
 -85.0808
 -85.3283
 -85.3222
 -85.3255
 -85.3208
 -84.8652
 -84.8937
 -84.9291
 -84.8952
 -84.1215
 -83.9333
 -83.9783
 -84.1458
 -85.1004
 -85.0782
 -85.0552
 -85.0644
 -84.7199
 -84.811
 -84.7285
 -85.368
 -85.369
 -85.3645
 -85.364
 -83.7323
 -83.7618
 -84.2486
 -84.2934
 -84.2975
 -85.2786
 -85.282
 -85.2722
 -85.2878
 -85.0668
 -85.1068
 -85.0915
 -85.099
 -84.0325
 -84.0557
 -84.1296
 -84.0502
 -85.1381
 -85.0909
 -85.1018
 -85.1197
 -84.7267
 -84.671
 -84.763
 -84.7615
 -85.3395
 -85.3421
 -85.3491
 -84.6659
 -84.6699
 -84.7028
 -84.7015
 -85.1285
 -85.1459
 -83.8969
 -84.0023
 -83.9324
 -83.915
 -84.0916
 -83.9827
 -84.0506
 -84.0014
 -85.3428
 -85.3412
 -84.2378
 -84.3338
 -84.2656
 -84.175
 -85.1047
 -85.0824
 -85.0921
 -85.1092
 -84.8217
 -82.4817
 -82.1228
 -82.251
 -85.1807
 -85.175
 -85.1749
 -85.162
 -85.3502
 -85.3506
 -85.3483
 -85.3526
 -81.8112
 -82.0789
 -82.0137
 -81.6261
 -84.2795
 -84.3276
 -84.2576
 -84.277
 -85.2338
 -85.2354
 -85.2357
 -82.2937
 -82.1789
 -82.4951
 -82.4827
 -85.3721
 -85.3692
 -85.37
 -85.3728
 -83.5596
 -83.6251
 -83.6543
 -83.4952
 -85.234
 -85.2214
 -85.2295
 -85.2391
 -84.8662
 -84.9033
 -84.8864
 -84.8542
 -83.9686
 -84.0068
 -83.9665
 -84.7437
 -84.7968
 -84.7461
 -84.7899
 -84.1763
 -84.1151
 -84.1587
 -84.1581
 -84.1649
 -84.0949
 -84.0999
 -85.3
 -85.2913
 -85.3013
 -85.2819
 -85.2749
 -85.0256
 -85.0789
 -85.0398
 -85.0436
 -85.3582
 -85.3567
 -85.3539
 -85.3565
 -85.1835
 -85.2038
 -85.1708
 -85.1968
 -85.2111
 -85.2219
 -85.2097
 -85.2095
 -84.2745
 -84.245
 -84.3176
 -84.2603
 -84.211
 -85.2354
 -85.2164
 -85.2291
 -85.2381
 -85.355
 -85.3603
 -85.1113
 -85.1201
 -85.0902
 -85.1222
 -84.0856
 -84.0745
 -84.1235
 -85.3375
 -85.3419
 -85.3361
 -85.3384
 -85.1292
 -85.0901
 -85.1085
 -85.1122
 -84.2484
 -84.2151
 -84.2553
 -84.2797
 -85.0397
 -85.0391
 -85.0814
 -85.0495
 -85.2153
 -85.2381
 -83.3807
 -83.3188
 -83.3475
 -83.2832
 -84.0615
 -84.2766
 -84.366
 -84.3366
 -84.4093
 -84.3728
 -84.2312
 -84.0823
 -84.0739
 -84.1687
 -85.1253
 -85.1124
 -85.1151
 -85.1772
 -85.1719
 -85.1614
 -85.156
 -84.585
 -84.5718
 -84.5851
 -84.5783
 -84.9079
 -84.8909
 -85.1456
 -85.1341
 -85.1425
 -85.132
 -85.1541
 -85.1515
 -85.0554
 -85.0771
 -85.0879
 -85.0554
 -78.497
 -79.4051
 -79.2507
 -79.5225
 -85.1394
 -84.1896
 -84.2469
 -84.2037
 -84.1891
 -85.3679
 -85.3703
 -85.3673
 -85.2802
 -85.2794
 -85.2708
 -85.2804
 -85.0142
 -85.015
 -84.997
 -84.9528
 -85.1438
 -85.1589
 -85.1302
 -84.4096
 -84.4628
 -84.4446
 -84.405
 -85.3395
 -85.3436
 -85.3365
 -85.3411
 -85.2462
 -85.2407
 -85.2503
 -85.2454
 -85.3401
 -85.3426
 -85.334
 -85.3388
 -83.3032
 -83.2613
 -83.1868
 -83.2031
 -84.4888
 -84.5416
 -85.3011
 -85.2978
 -85.2946
 -85.2998
 -85.3532
 -85.3525
 -85.3536
 -85.3517
 -85.3796
 -85.381
 -85.3782
 -85.3811
 -85.3477
 -85.3436
 -85.3469
 -85.2311
 -85.2442
 -85.2294
 -85.2393
 -85.3551
 -85.3572
 -85.3572
 -85.3569
 -83.6654
 -83.7597
 -83.8797
 -83.7459
 -85.3224
 -85.3281
 -85.3285
 -85.2381
 -85.2337
 -85.2295
 -85.228
 -84.1546
 -84.1288
 -84.1543
 -84.1115
 -85.2352
 -85.2461
 -85.2428
 -85.2421
 -85.1806
 -85.1939
 -85.201
 -85.1803
 -84.4177
 -84.414
 -84.5344
 -84.554
 -83.4358
 -83.4613
 -83.3035
 -83.3039
 -84.8931
 -84.9005
 -84.9347
 -84.898
 -76.9517
 -76.8733
 -78.2407
 -77.3395
 -84.1394
 -84.2074
 -84.1282
 -84.3512
 -84.2594
 -84.2416
 -84.2117
 -72.922
 -72.9939
 -72.0135
 -73.6188
 -85.3406
 -85.3373
 -85.3382
 -85.3095
 -85.312
 -85.3174
 -85.3169
 -84.3807
 -84.5257
 -84.4799
 -81.6095
 -81.8304
 -81.594
 -83.1879
 -83.101
 -83.2326
 -83.2731
 -84.5416
 -84.5347
 -84.5821
 -84.4904
 -85.2406
 -85.2596
 -85.2502
 -85.2493
 -78.7615
 -78.4873
 -78.7551
 -78.1286
 -85.2078
 -85.18
 -85.1789
 -85.2031
 -85.3096
 -85.3114
 -85.3037
 -85.3093
 -85.1708
 -85.1672
 -85.1973
 -85.1796
 -84.9873
 -84.954
 -85.0076
 -84.2384
 -84.2325
 -84.2415
 -84.2763
 -85.3438
 -85.347
 -85.349
 -85.3462
 -85.3243
 -85.3274
 -85.323
 -85.3184
 -84.4221
 -84.4813
 -84.438
 -84.3886
 -85.3514
 -85.3541
 -85.3562
 -85.3546
 -85.3605
 -85.3568
 -85.3566
 -85.3594
 -85.3593
 -85.356
 -85.3575
 -80.8464
 -80.7461
 -73.1509
 -73.4952
 -72.9941
 -74.0665
 -85.1939
 -85.1857
 -85.1729
 -85.0128
 -84.9972
 -85.0387
 -84.9962
 -85.1083
 -85.1349
 -85.1288
 -85.1134
 -62.3591
 -84.9051
 -85.1808
 -85.1966
 -85.3254
 -85.3281
 -85.3274
 -85.3263
 -81.6957
 -84.7452
 -84.7875
 -84.7452
 -85.3825
 -85.3814
 -85.3815
 -85.3814
 -85.1109
 -85.095
 -85.1163
 -85.1377
 -85.3549
 -85.3529
 -85.3567
 -85.3512
 -84.9769
 -85.0164
 -84.931
 -84.8403
 -84.9042
 -84.862
 -85.3446
 -85.3445
 -85.34
 -85.3454
 -85.2131
 -85.1999
 -85.1867
 -85.1861
 -83.7513
 -83.6567
 -83.8197
 -83.8028
 -85.3125
 -85.3231
 -85.3189
 -85.3591
 -85.3641
 -85.3643
 -85.3591
 -85.319
 -85.3165
 -85.3135
 -85.3162
 -84.4504
 -84.4519
 -84.6013
 -84.4445
 -84.6375
 -84.5961
 -84.6026
 -84.6086
 -85.3434
 -85.3462
 -85.3461
 -85.3462
 -84.8708
 -84.9052
 -84.844
 -85.3035
 -85.303
 -85.3018
 -85.2968
 -83.9016
 -84.0114
 -83.8421
 -83.8767
 -85.2216
 -85.2306
 -85.2088
 -85.2189
 -83.9166
 -84.0047
 -83.9257
 -83.9074
 -85.1422
 -85.1418
 -85.1171
 -85.144
 -85.3098
 -85.3087
 -85.3148
 -85.3062
 -83.6478
 -83.6026
 -83.6958
 -85.0912
 -85.1149
 -85.3351
 -85.3335
 -85.3318
 -85.3292
 -84.8639
 -84.832
 -84.821
 -83.6847
 -83.5897
 -83.5448
 -83.5995
 -85.2618
 -85.2656
 -85.262
 -85.2696
 -85.2136
 -85.2133
 -85.2347
 -85.2192
 -66.9432
 -67.0708
 -68.3082
 -67.243
 -85.1091
 -85.0739
 -85.0912
 -77.0253
 -77.702
 -77.9671
 -85.0953
 -85.0867
 -85.067
 -85.1003
 -85.0683
 -83.0047
 -83.1697
 -82.7683
 -82.9908
 -84.9807
 -85.0238
 -85.0242
 -85.3263
 -85.3265
 -85.327
 -85.3237
 -84.988
 -85.0059
 -85.0279
 -85.0258
 -85.0673
 -85.0598
 -85.0592
 -85.3778
 -85.3771
 -85.3762
 -85.3746
 -84.1292
 -84.333
 -84.2953
 -84.2635
 -83.2117
 -83.2326
 -83.2991
 -83.3127
 -84.8156
 -84.8049
 -84.8708
 -84.8186
 -85.3363
 -85.3361
 -85.3386
 -85.3322
 -66.3018
 -67.2801
 -66.1135
 -67.652
 -85.3092
 -85.3011
 -85.3048
 -85.3053
 -82.9676
 -82.8433
 -83.0321
 -82.9609
 -85.3232
 -85.3085
 -85.3141
 -85.3207
 -85.2822
 -85.2797
 -85.2737
 -85.2777
 -85.3099
 -85.3122
 -84.5195
 -84.4498
 -84.4369
 -84.4981
 -85.346
 -85.3469
 -85.3467
 -85.2826
 -85.2721
 -85.2745
 -85.2846
 -84.4117
 -84.4788
 -84.4336
 -84.3737
 -84.7139
 -84.6988
 -84.7543
 -61.8053
 -61.8463
 -61.4891
 -61.7913
 -85.0283
 -85.0081
 -85.0541
 -85.3487
 -85.3517
 -85.3468
 -85.3456
 -85.3045
 -85.2984
 -85.3364
 -85.3426
 -85.3443
 -85.3398
 -85.2564
 -85.2569
 -82.3621
 -82.2652
 -82.0521
 -82.4597
 -85.299
 -85.2993
 -85.2995
 -85.2924
 -85.0829
 -85.0878
 -84.7537
 -84.7809
 -84.7594
 -84.7481
 -85.3257
 -85.3292
 -85.3294
 -85.3287
 -84.5401
 -84.3807
 -84.3985
 -84.5108
 -85.3434
 -85.3438
 -85.3483
 -85.3524
 -85.1583
 -85.1593
 -85.1453
 -82.7702
 -82.6731
 -82.6032
 -82.7376
 -85.235
 -85.2355
 -85.2307
 -85.2208
 -84.1247
 -84.0012
 -84.0332
 -83.9374
 -84.3134
 -84.1632
 -84.2727
 -65.0502
 -64.8422
 -65.2038
 -65.737
 -83.4375
 -83.6053
 -83.6555
 -83.4942
 -85.2965
 -85.2948
 -85.3024
 -85.2939
 -85.0894
 -85.1026
 -85.068
 -84.7806
 -84.1438
 -84.1991
 -84.1674
 -84.2063
 -84.8973
 -84.8526
 -84.8951
 -84.9148
 -85.2799
 -85.2924
 -85.2932
 -85.2805
 -83.7925
 -83.8086
 -84.0506
 -81.8894
 -85.1531
 -85.1567
 -85.1387
 -85.1691
 -84.195
 -84.2908
 -74.9246
 -74.1052
 -84.0462
 -84.1345
 -84.0639
 -83.9494
 -85.2728
 -85.2794
 -85.3343
 -85.3337
 -85.3352
 -85.333
 -84.7871
 -84.839
 -84.83
 -84.8427
 -85.3637
 -85.3649
 -85.3669
 -85.3652
 -84.6352
 -84.664
 -84.5203
 -84.5054
 -85.3014
 -85.3033
 -85.2963
 -85.2912
 -84.4303
 -84.4345
 -84.4738
 -84.4664
 -85.2913
 -85.2942
 -85.2842
 -85.29
 -84.8745
 -84.9408
 -85.352
 -85.3504
 -85.268
 -85.2773
 -85.2656
 -85.2785
 -85.2601
 -85.2546
 -85.2565
 -85.2682
 -85.1375
 -85.1283
 -85.1482
 -85.1429
 -85.2917
 -85.2854
 -85.2975
 -85.2987
 -84.3839
 -84.3096
 -84.3489
 -84.3438
 -85.3488
 -85.3474
 -85.3474
 -85.352
 -85.3553
 -85.3516
 -85.3539
 -83.8977
 -84.0011
 -83.998
 -83.9355
 -85.2504
 -85.2406
 -85.2406
 -85.2492
 -83.4076
 -83.611
 -83.6214
 -83.79
 -85.1326
 -84.999
 -85.0404
 -85.0431
 -85.0123
 -85.3179
 -85.3178
 -85.3165
 -85.3109
 -77.8573
 -77.1729
 -77.5019
 -78.3236
 -85.2476
 -85.253
 -85.2582
 -85.2487
 -85.0772
 -85.0944
 -85.0425
 -85.0616
 -85.2916
 -85.2857
 -85.2842
 -85.2824
 -85.2289
 -85.3781
 -85.3777
 -85.3741
 -85.3753
 -85.3021
 -85.305
 -85.2962
 -85.2965
 -73.9336
 -74.1531
 -74.8333
 -73.8665
 -84.9079
 -84.8643
 -84.8426
 -84.8762
 -84.5713
 -85.0808
 -85.095
 -85.0989
 -85.1177
 -85.342
 -85.3427
 -85.3376
 -85.3355
 -85.3225
 -85.3199
 -85.3282
 -85.3406
 -85.3321
 -85.3358
 -85.3343
 -66.3226
 -66.6376
 -85.2967
 -85.2922
 -85.2894
 -84.4638
 -84.464
 -84.435
 -84.5235
 -85.2739
 -85.2698
 -85.2719
 -85.2634
 -85.1377
 -85.2594
 -85.2476
 -85.2594
 -85.2579
 -85.3479
 -85.3385
 -85.3423
 -85.3471
 -85.2541
 -85.2624
 -85.271
 -85.2557
 -84.8642
 -84.89
 -84.8113
 -84.9211
 -84.128
 -84.1435
 -84.1066
 -84.1546
 -85.374
 -85.3708
 -85.374
 -85.3732
 -85.2779
 -85.2752
 -85.2796
 -85.27
 -85.3713
 -85.3701
 -85.3705
 -85.3723
 -84.5186
 -84.391
 -84.5271
 -84.542
 -85.0937
 -85.0824
 -85.3498
 -85.3556
 -85.3501
 -85.3524
 -85.1195
 -85.1186
 -85.1162
 -85.1411
 -85.0384
 -85.0626
 -85.142
 -85.1332
 -85.1609
 -85.1384
 -85.3265
 -85.3276
 -85.3251
 -85.3322
 -84.7235
 -84.654
 -84.6224
 -84.6864
 -81.4895
 -81.6952
 -81.4396
 -81.4081
 -83.7058
 -83.6471
 -83.6702
 -83.6204
 -84.6214
 -84.6829
 -84.6964
 -84.6363
 -84.8995
 -84.8448
 -84.8755
 -85.0118
 -84.9567
 -84.9907
 -84.9962
 -85.1193
 -85.1099
 -85.0945
 -85.1228
 -81.5295
 -81.6398
 -81.7112
 -84.86
 -84.7818
 -84.8601
 -84.8384
 -85.1577
 -85.1805
 -85.1757
 -85.1506
 -84.3729
 -84.2373
 -84.3866
 -84.2561
 -84.7091
 -84.7546
 -84.7515
 -84.7421
 -85.1663
 -85.1612
 -85.1743
 -85.1878
 -85.1215
 -85.096
 -85.1196
 -85.1145
 -85.2701
 -85.2655
 -85.2668
 -85.2615
 -83.513
 -83.56
 -83.5977
 -85.3155
 -85.3112
 -85.3192
 -85.3141
 -84.3853
 -84.4735
 -84.3882
 -84.3268
 -84.9505
 -84.9466
 -84.9173
 -84.9694
 -84.9946
 -85.0334
 -85.0334
 -85.1807
 -85.1853
 -85.189
 -85.1984
 -85.2541
 -85.2536
 -85.2623
 -85.2473
 -85.261
 -85.2683
 -85.2723
 -85.3321
 -85.3326
 -85.3349
 -85.2581
 -85.253
 -85.2456
 -85.2484
 -85.3265
 -85.3277
 -85.3219
 -85.347
 -85.3472
 -85.3467
 -85.3431
 -85.0138
 -84.9408
 -84.9928
 -84.9645
 -84.4893
 -84.4398
 -84.5506
 -84.4708
 -84.3
 -85.3296
 -85.3281
 -85.3362
 -85.3242
 -85.3286
 -85.3182
 -64.1682
 -63.7566
 -64.2394
 -64.8881
 -85.2989
 -85.2924
 -84.9116
 -84.9165
 -84.9663
 -85.3702
 -85.3725
 -85.2004
 -85.1805
 -85.1886
 -85.1966
 -84.8676
 -84.8897
 -84.8907
 -85.303
 -85.3149
 -85.3104
 -85.3124
 -84.6024
 -84.6217
 -84.5707
 -84.6681
 -71.1738
 -72.0225
 -71.802
 -70.7423
 -85.1895
 -85.1922
 -85.1898
 -85.2051
 -85.3217
 -85.3326
 -85.3238
 -85.3114
 -85.3089
 -85.3122
 -85.307
 -84.3305
 -84.2051
 -84.1835
 -84.1444
 -84.5664
 -84.6067
 -83.7108
 -83.8472
 -83.6476
 -85.3663
 -85.3632
 -85.3142
 -85.3063
 -85.3132
 -85.308
 -85.1249
 -85.1478
 -85.1388
 -85.2975
 -85.2889
 -85.3046
 -85.3019
 -84.3771
 -84.1833
 -84.2153
 -84.3115
 -85.0416
 -85.0322
 -85.0662
 -85.0711
 -85.0584
 -85.0761
 -85.0871
 -85.0634
 -84.1103
 -84.1502
 -84.0121
 -84.5682
 -84.5009
 -84.5628
 -84.5415
 -85.3785
 -85.3798
 -85.3791
 -85.3812
 -82.8181
 -82.4537
 -85.3433
 -85.3477
 -85.3465
 -85.344
 -84.9795
 -85.018
 -85.002
 -84.9797
 -85.1653
 -85.1788
 -85.177
 -85.1827
 -83.7396
 -83.8007
 -85.0611
 -85.0414
 -85.0419
 -85.0174
 -84.9064
 -84.8887
 -84.8702
 -84.9252
 -85.3259
 -85.3258
 -85.3237
 -85.3276
 -84.998
 -85.0349
 -85.0316
 -84.998
 -84.5954
 -84.6105
 -85.2292
 -85.2299
 -85.2211
 -85.2311
 -85.277
 -85.276
 -85.283
 -85.1086
 -85.1333
 -85.1243
 -85.1396
 -84.1052
 -84.1801
 -84.0745
 -84.2248
 -71.2189
 -72.4148
 -72.1642
 -70.9643
 -85.0506
 -85.0356
 -85.0701
 -85.0958
 -85.1747
 -85.1926
 -85.174
 -85.1786
 -84.8572
 -84.8832
 -84.8329
 -84.8437
 -84.4643
 -84.4299
 -84.5036
 -84.5309
 -85.3288
 -85.3321
 -85.2238
 -85.2137
 -85.2089
 -79.1206
 -78.8338
 -78.4714
 -79.3309
 -84.2836
 -84.1942
 -84.3025
 -84.1316
 -85.1358
 -85.1364
 -85.131
 -85.1159
 -85.3296
 -85.3313
 -85.3305
 -84.976
 -84.9486
 -84.9052
 -84.9099
 -84.5255
 -84.6108
 -84.5799
 -84.5237
 -85.2834
 -85.2704
 -85.2707
 -85.2776
 -85.1746
 -85.1714
 -85.1623
 -85.162
 -85.2975
 -85.2987
 -85.2965
 -85.3049
 -85.3055
 -85.3072
 -85.3045
 -84.8321
 -84.8559
 -84.794
 -84.7924
 -85.023
 -84.9984
 -85.0305
 -73.781
 -74.0554
 -74.0163
 -73.3195
 -84.6272
 -84.6384
 -82.6175
 -82.4456
 -82.7453
 -82.9309
 -84.1762
 -83.8207
 -85.3329
 -84.6151
 -84.5463
 -84.5902
 -84.5178
 -85.3746
 -85.2188
 -85.2116
 -85.2168
 -85.1999
 -84.5821
 -84.6197
 -84.5933
 -84.8419
 -84.8912
 -84.8885
 -85.3101
 -85.3125
 -85.3054
 -85.3125
 -85.3198
 -85.3168
 -85.3203
 -85.3158
 -83.938
 -83.7574
 -83.7642
 -83.8783
 -85.3561
 -85.3561
 -85.3594
 -85.354
 -85.0643
 -85.0354
 -85.0016
 -85.318
 -85.3209
 -85.3209
 -85.1336
 -85.1197
 -85.1251
 -85.138
 -84.6131
 -84.6508
 -84.5782
 -84.5919
 -85.1882
 -85.2094
 -85.1844
 -84.7147
 -84.7505
 -84.7426
 -84.6866
 -84.9696
 -85.018
 -85.319
 -85.3241
 -85.3248
 -85.3301
 -85.3346
 -85.3403
 -85.3363
 -85.3358
 -83.8992
 -84.0214
 -83.9009
 -84.0655
 -85.2726
 -85.2608
 -85.2709
 -85.2759
 -85.215
 -85.1898
 -85.2084
 -85.223
 -84.9203
 -84.8688
 -84.9397
 -84.9034
 -85.3238
 -85.3202
 -85.3181
 -85.314
 -85.0014
 -84.9543
 -85.0235
 -84.9901
 -85.0717
 -85.0604
 -85.0581
 -85.098
 -84.9352
 -84.9086
 -84.9437
 -84.9478
 -84.2579
 -84.3816
 -83.7698
 -83.8776
 -83.9521
 -83.7792
 -82.0211
 -81.5411
 -82.0098
 -82.1147
 -85.2212
 -85.2191
 -85.2092
 -85.2292
 -85.166
 -85.1579
 -85.1454
 -85.364
 -85.3645
 -85.3643
 -85.3641
 -85.3641
 -85.3672
 -85.3626
 -85.3411
 -85.344
 -85.3377
 -85.1633
 -85.185
 -85.1903
 -85.1662
 -85.2543
 -85.2571
 -85.2621
 -85.2466
 -85.3223
 -85.3267
 -85.3246
 -85.3279
 -84.6297
 -84.5616
 -84.5784
 -84.6106
 -83.029
 -83.1903
 -83.3106
 -83.3119
 -85.3712
 -85.3725
 -85.3678
 -85.3742
 -84.4285
 -84.4066
 -84.3444
 -84.4312
 -85.0989
 -85.0936
 -85.1062
 -85.0886
 -85.3731
 -85.3736
 -85.3693
 -85.3763
 -85.1972
 -85.1803
 -85.2052
 -85.1989
 -84.9466
 -84.9319
 -84.9564
 -84.9327
 -84.5287
 -84.4713
 -84.4851
 -83.7693
 -83.9191
 -83.829
 -83.742
 -84.3253
 -84.307
 -84.3436
 -84.2948
 -83.891
 -83.9745
 -84.3383
 -84.4093
 -84.212
 -85.2927
 -85.2862
 -85.2864
 -85.2856
 -85.3613
 -85.36
 -85.3602
 -85.3602
 -85.2515
 -85.2444
 -85.2517
 -85.2334
 -84.9669
 -85.3238
 -85.3266
 -85.3267
 -85.3212
 -84.0859
 -84.084
 -84.0781
 -84.068
 -85.3601
 -85.3612
 -85.3596
 -85.3638
 -84.72
 -84.7174
 -84.7842
 -85.2773
 -83.6042
 -83.5678
 -83.4229
 -84.3571
 -84.2759
 -84.1953
 -84.3853
 -85.1015
 -85.1027
 -85.0638
 -85.1007
 -85.2884
 -85.2873
 -85.2822
 -85.2953
 -84.9579
 -85.2783
 -85.2726
 -85.2731
 -84.9993
 -85.0041
 -85.0055
 -85.0381
 -84.737
 -84.7516
 -84.7099
 -84.703
 -84.8456
 -84.7905
 -84.8292
 -84.8498
 -85.2824
 -84.4926
 -84.5171
 -84.5357
 -85.2916
 -85.2854
 -85.2946
 -85.289
 -85.3284
 -85.3264
 -85.3331
 -85.324
 -85.3549
 -85.357
 -85.3543
 -84.6927
 -84.6978
 -84.6622
 -84.6899
 -83.2919
 -83.1841
 -83.295
 -85.3037
 -85.3054
 -85.3181
 -85.3159
 -85.3138
 -85.3124
 -85.0107
 -85.0324
 -85.0462
 -85.3642
 -85.364
 -85.3668
 -85.3641
 -85.3291
 -85.3282
 -85.3307
 -85.3315
 -85.2276
 -85.2374
 -85.2409
 -85.2449
 -85.1481
 -85.1549
 -85.1339
 -85.1189
 -84.5395
 -84.5437
 -84.5139
 -84.5606
 -85.3194
 -85.3187
 -85.3149
 -85.322
 -84.7233
 -84.7449
 -84.6584
 -84.8913
 -84.9275
 -84.9407
 -84.9434
 -85.3579
 -85.3563
 -85.3614
 -85.3597
 -85.2738
 -85.2744
 -85.274
 -85.2679
 -85.3676
 -85.3654
 -85.3619
 -85.3669
 -84.8015
 -84.8246
 -84.848
 -84.8416
 -85.129
 -85.1283
 -85.1108
 -85.1471
 -85.3438
 -85.3426
 -85.3462
 -85.3445
 -85.0801
 -85.0934
 -85.0543
 -85.0628
 -85.3684
 -85.3705
 -85.3684
 -84.6124
 -84.5844
 -84.588
 -84.5993
 -85.1854
 -85.1858
 -85.1727
 -85.1662
 -85.2092
 -85.2167
 -85.2065
 -85.2137
 -85.0312
 -85.0254
 -85.0671
 -85.0301
 -85.3303
 -85.3307
 -85.336
 -85.3312
 -85.0644
 -85.0255
 -85.0515
 -85.0435
 -85.2187
 -85.2147
 -85.2126
 -85.2094
 -84.0299
 -84.0311
 -84.0206
 -84.0283
 -85.313
 -85.3135
 -85.3092
 -85.3051
 -83.7279
 -83.7169
 -83.7154
 -84.5937
 -84.5544
 -84.5526
 -84.5975
 -84.0097
 -84.0943
 -84.3081
 -84.1172
 -85.2773
 -85.279
 -85.2834
 -85.2869
 -85.2399
 -85.2515
 -85.239
 -85.2462
 -84.6682
 -84.6012
 -84.627
 -84.5744
 -85.3779
 -85.3764
 -85.3745
 -74.1933
 -73.9511
 -85.2119
 -85.2192
 -85.2027
 -85.2144
 -80.2942
 -79.585
 -78.8155
 -79.3246
 -85.2389
 -85.2455
 -85.2546
 -85.2455
 -84.9033
 -84.7679
 -84.7362
 -84.7262
 -84.688
 -85.3
 -85.2992
 -85.3015
 -85.3046
 -85.347
 -85.3432
 -85.3491
 -85.3457
 -84.0303
 -84.0266
 -85.2731
 -85.2785
 -85.2908
 -85.2774
 -85.1569
 -85.1183
 -85.1666
 -85.1448
 -84.3995
 -84.383
 -84.3522
 -84.4976
 -85.0661
 -85.0305
 -85.0255
 -85.064
 -85.3189
 -85.3121
 -85.3274
 -85.3631
 -85.3621
 -85.3622
 -85.3619
 -85.3711
 -85.3711
 -85.3727
 -84.7788
 -84.7512
 -84.7521
 -84.7983
 -85.3413
 -85.3401
 -85.337
 -85.3375
 -84.2235
 -84.1676
 -84.1899
 -84.1996
 -85.2465
 -85.2342
 -85.2471
 -85.2278
 -85.1799
 -85.2002
 -85.183
 -85.1812
 -85.3616
 -85.362
 -85.3614
 -85.3635
 -85.2621
 -85.2647
 -85.2617
 -85.2543
 -77.9595
 -77.5367
 -77.5319
 -78.0812
 -84.9522
 -84.8757
 -84.9393
 -84.9198
 -84.7514
 -84.7835
 -84.8117
 -84.7182
 -85.2913
 -85.2918
 -85.2851
 -85.2826
 -84.3072
 -84.2581
 -84.2459
 -84.2425
 -85.2043
 -85.1927
 -85.1831
 -85.2032
 -84.5978
 -84.5794
 -84.5256
 -82.4356
 -82.3584
 -82.1262
 -82.2785
 -85.1848
 -85.203
 -85.1845
 -85.2219
 -85.2234
 -85.2203
 -84.4696
 -84.4203
 -84.3638
 -84.0985
 -84.0986
 -84.1363
 -84.1866
 -85.3387
 -62.9274
 -63.3837
 -63.0877
 -62.3986
 -85.3286
 -85.3265
 -85.3323
 -85.328
 -83.6681
 -84.8535
 -84.8414
 -84.8436
 -84.8851
 -84.77
 -84.7159
 -84.8455
 -84.0916
 -84.2686
 -84.1846
 -84.1651
 -79.4578
 -79.4783
 -79.8981
 -78.9115
 -84.1861
 -84.2431
 -84.2262
 -85.1561
 -85.146
 -85.1436
 -84.8013
 -84.7791
 -85.3811
 -85.3782
 -85.3781
 -84.0149
 -84.1441
 -83.9797
 -84.7612
 -84.7977
 -84.8228
 -85.3396
 -85.3441
 -85.3445
 -85.2982
 -85.2986
 -85.3038
 -85.3004
 -84.4305
 -84.448
 -84.4926
 -83.5995
 -83.4616
 -85.3572
 -85.3557
 -85.3599
 -85.3585
 -81.0103
 -81.0975
 -80.4496
 -81.38
 -83.9201
 -83.8782
 -70.9696
 -70.1743
 -76.5606
 -76.446
 -76.6357
 -84.8378
 -84.8845
 -84.8276
 -85.3529
 -85.3493
 -85.3448
 -85.2678
 -85.2654
 -85.2729
 -84.5658
 -84.4908
 -84.5538
 -84.5959
 -84.5363
 -85.3381
 -83.6767
 -83.6733
 -83.7236
 -83.7232
 -84.7964
 -84.881
 -84.8061
 -84.8421
 -85.2935
 -85.2949
 -85.2999
 -85.2465
 -85.2502
 -85.2429
 -85.2445
 -84.8338
 -84.8194
 -84.871
 -84.9122
 -85.2852
 -85.286
 -85.2955
 -85.2945
 -85.3007
 -85.297
 -85.3008
 -85.3068
 -85.0723
 -85.2727
 -85.2819
 -85.2799
 -85.2834
 -85.3668
 -85.3684
 -85.3661
 -85.3649
 -84.2223
 -84.0226
 -83.9682
 -84.1003
 -85.3598
 -85.3641
 -85.3627
 -85.3619
 -69.4735
 -70.5519
 -69.4967
 -85.3498
 -85.347
 -85.3531
 -85.3528
 -84.2695
 -84.2443
 -84.1388
 -84.1394
 -85.319
 -85.3128
 -85.318
 -85.3221
 -84.0023
 -84.0142
 -83.6958
 -83.7693
 -85.3643
 -85.3117
 -85.3048
 -85.3093
 -85.3028
 -85.3435
 -85.3462
 -85.3462
 -83.5519
 -83.6237
 -83.5278
 -83.4826
 -85.2737
 -85.27
 -85.266
 -85.2609
 -85.1989
 -85.2179
 -85.2179
 -85.2092
 -85.1667
 -85.1755
 -85.1594
 -85.1526
 -85.3777
 -85.3748
 -84.9077
 -84.9047
 -84.8926
 -84.8687
 -84.9121
 -84.9336
 -84.9361
 -85.2784
 -85.2704
 -85.2833
 -85.2878
 -85.2618
 -85.2635
 -85.2623
 -85.2722
 -85.2017
 -85.2112
 -85.2131
 -85.1942
 -84.4357
 -84.4034
 -84.6738
 -84.6384
 -84.632
 -84.7911
 -84.8275
 -84.8226
 -84.8253
 -82.9007
 -82.67
 -82.8327
 -82.7768
 -84.8098
 -84.7277
 -84.6888
 -79.1393
 -79.2066
 -79.6336
 -84.7835
 -84.784
 -84.7295
 -84.8221
 -84.3081
 -84.4049
 -84.2357
 -85.065
 -85.2882
 -85.2813
 -85.2932
 -84.9375
 -84.94
 -84.9696
 -84.9831
 -83.8999
 -83.8908
 -84.1965
 -84.0649
 -85.1204
 -85.1421
 -85.1462
 -85.1444
 -85.305
 -85.3005
 -85.3768
 -85.375
 -85.3737
 -85.3768
 -85.2812
 -85.2852
 -85.2882
 -85.2778
 -84.9842
 -84.9784
 -84.9734
 -85.0011
 -85.3646
 -85.3652
 -85.3702
 -85.3624
 -85.366
 -85.3668
 -85.3681
 -85.1289
 -85.0995
 -85.0843
 -85.1128
 -84.118
 -84.0989
 -84.1501
 -84.8917
 -84.8978
 -84.9421
 -84.8912
 -82.9384
 -82.7741
 -83.0897
 -82.6898
 -85.2394
 -85.2421
 -85.2455
 -85.2138
 -84.0644
 -84.0645
 -84.06
 -84.0776
 -84.5335
 -84.5615
 -84.5817
 -84.5628
 -85.3519
 -85.3473
 -85.3543
 -85.3486
 -85.074
 -85.0785
 -85.0528
 -85.0803
 -84.767
 -84.7402
 -84.7809
 -84.7393
 -85.3048
 -85.3041
 -85.2969
 -85.3077
 -85.3027
 -85.3012
 -84.8506
 -84.9124
 -84.8894
 -84.9566
 -84.9722
 -84.9968
 -84.9879
 -84.9915
 -84.0827
 -84.1508
 -84.0768
 -84.7849
 -84.7495
 -84.7155
 -65.9553
 -65.0916
 -66.0607
 -65.4411
 -84.5801
 -84.5937
 -83.4202
 -83.4942
 -83.4137
 -83.1904
 -85.1503
 -85.1251
 -85.1468
 -85.123
 -79.7696
 -80.509
 -80.6655
 -80.2138
 -84.3471
 -84.3323
 -84.2656
 -85.2658
 -85.267
 -85.2642
 -85.2596
 -84.126
 -84.2276
 -84.0876
 -83.5379
 -83.5684
 -83.3211
 -83.456
 -84.6938
 -84.6766
 -84.6743
 -84.7385
 -85.2967
 -85.3107
 -76.7108
 -77.1473
 -84.4896
 -84.4414
 -85.0116
 -84.9759
 -84.9919
 -84.9808
 -85.2442
 -85.256
 -85.2468
 -85.2582
 -85.0219
 -85.0303
 -85.0444
 -85.0472
 -83.0853
 -82.6897
 -82.9005
 -82.9513
 -85.1883
 -85.1705
 -85.1755
 -84.1269
 -84.0528
 -84.0858
 -84.0693
 -85.3434
 -85.3411
 -85.3461
 -85.3393
 -85.2611
 -85.2622
 -85.2652
 -85.2525
 -84.2431
 -84.2842
 -84.218
 -84.9742
 -84.9231
 -84.9696
 -84.9823
 -83.4689
 -83.3725
 -83.4438
 -84.0939
 -84.244
 -84.1966
 -84.1382
 -84.3232
 -84.3068
 -84.3839
 -84.3293
 -85.0012
 -84.9622
 -84.9619
 -84.9401
 -85.3672
 -85.3658
 -85.3642
 -85.3649
 -85.2157
 -85.2302
 -85.2204
 -85.2322
 -84.9251
 -84.8648
 -84.9053
 -85.1329
 -85.1234
 -85.1179
 -85.3389
 -85.3305
 -85.3385
 -85.3332
 -85.2095
 -85.2048
 -85.1975
 -85.2156
 -84.9134
 -84.955
 -84.9417
 -84.9636
 -83.0251
 -83.0003
 -84.2448
 -84.2105
 -84.28
 -84.2777
 -73.6803
 -73.256
 -72.0443
 -73.2735
 -85.2931
 -85.2925
 -85.2943
 -85.2884
 -84.308
 -84.2218
 -84.236
 -84.2284
 -85.0429
 -85.0233
 -85.034
 -84.9967
 -82.4223
 -82.2391
 -82.3193
 -82.2514
 -85.1424
 -85.1375
 -85.1291
 -85.1252
 -84.9394
 -85.2706
 -85.2752
 -85.259
 -85.2615
 -84.9032
 -84.8395
 -84.8313
 -84.8737
 -84.7969
 -84.8346
 -84.8753
 -84.846
 -84.6469
 -84.5684
 -84.576
 -84.576
 -84.0375
 -83.9244
 -84.1037
 -85.3157
 -85.3164
 -85.3174
 -85.3054
 -84.8382
 -84.8271
 -84.8278
 -84.8092
 -85.308
 -85.3099
 -85.3161
 -85.2629
 -85.2529
 -85.2594
 -85.258
 -85.2966
 -85.3091
 -85.303
 -85.3099
 -83.2551
 -83.4406
 -83.2067
 -62.3908
 -62.8088
 -62.9171
 -85.2576
 -85.2679
 -85.2685
 -85.1456
 -85.1782
 -85.1654
 -85.1884
 -84.7641
 -84.7771
 -84.7981
 -84.7315
 -84.9316
 -84.9309
 -84.875
 -84.8898
 -77.9264
 -78.3726
 -77.1343
 -78.4928
 -85.0262
 -85.0128
 -85.006
 -85.0048
 -85.2092
 -85.2158
 -85.2187
 -85.195
 -84.2271
 -84.2685
 -84.5183
 -84.3964
 -84.4578
 -84.4681
 -85.2697
 -85.2623
 -85.2688
 -85.2653
 -84.3181
 -84.3851
 -85.2252
 -85.2177
 -83.239
 -64.4116
 -64.2717
 -64.4524
 -65.3593
 -82.0401
 -82.3864
 -85.3717
 -85.3753
 -85.3724
 -82.7636
 -83.0013
 -83.2141
 -83.007
 -85.2822
 -85.2788
 -84.5601
 -84.5408
 -84.55
 -84.5596
 -84.6749
 -84.7865
 -84.7576
 -85.2733
 -85.2826
 -85.2766
 -85.2857
 -85.2215
 -85.237
 -85.2267
 -85.2311
 -85.3273
 -85.3288
 -85.3348
 -84.9433
 -84.8997
 -84.9498
 -84.894
 -85.0596
 -85.3259
 -85.319
 -85.3249
 -85.324
 -83.6754
 -83.664
 -83.6868
 -83.7443
 -85.1295
 -85.0997
 -85.1102
 -85.0848
 -85.2925
 -85.2831
 -85.2902
 -85.283
 -69.689
 -70.1541
 -70.5922
 -70.9456
 -84.196
 -85.3639
 -84.8166
 -84.8709
 -84.8296
 -84.7828
 -85.0979
 -85.1088
 -85.081
 -85.0795
 -84.2677
 -84.1409
 -84.2058
 -84.2473
 -85.1569
 -85.1484
 -85.1589
 -85.1627
 -84.168
 -84.18
 -84.2404
 -83.8946
 -83.97
 -84.0438
 -83.9715
 -84.8942
 -84.9202
 -84.8513
 -84.8952
 -85.2919
 -85.2954
 -85.2814
 -85.3756
 -85.3783
 -85.3759
 -85.3754
 -77.6109
 -77.1221
 -76.8277
 -85.0358
 -85.0417
 -84.9271
 -84.9405
 -84.9044
 -84.9633
 -85.3518
 -85.3497
 -85.3519
 -85.3526
 -85.26
 -85.2516
 -85.259
 -85.2504
 -84.0031
 -84.1641
 -84.0665
 -81.4725
 -84.8924
 -84.8545
 -84.8634
 -84.9013
 -84.9724
 -84.9847
 -84.9754
 -85.2586
 -85.2539
 -85.2523
 -85.2619
 -85.3016
 -85.2913
 -85.2984
 -85.2942
 -84.8255
 -84.8044
 -85.2744
 -85.273
 -85.2803
 -85.2866
 -85.1733
 -85.1674
 -85.1683
 -85.1859
 -85.3641
 -85.3653
 -85.1843
 -85.1701
 -85.193
 -85.1823
 -85.2759
 -85.28
 -85.2836
 -85.2847
 -85.2631
 -85.2697
 -85.2613
 -85.264
 -85.0371
 -85.0477
 -84.934
 -84.955
 -84.9191
 -84.895
 -84.6196
 -84.5656
 -84.6031
 -84.5993
 -85.1543
 -85.165
 -85.1698
 -85.1489
 -83.9478
 -84.0416
 -84.0777
 -84.1237
 -84.2655
 -84.249
 -84.2076
 -84.2533
 -75.6753
 -75.8483
 -75.6935
 -74.8516
 -84.6087
 -84.5137
 -85.1176
 -85.0885
 -85.1156
 -85.0982
 -84.8232
 -84.8001
 -84.8522
 -84.8747
 -85.0733
 -85.0867
 -85.0921
 -85.0858
 -84.9593
 -84.9545
 -85.2646
 -85.2578
 -85.3719
 -85.3728
 -85.3725
 -85.3739
 -83.0918
 -84.9336
 -84.9337
 -84.9478
 -84.9737
 -85.1131
 -85.083
 -85.089
 -85.0841
 -84.4813
 -84.4311
 -84.404
 -84.3416
 -85.2384
 -85.2244
 -85.2413
 -85.2288
 -85.072
 -85.0525
 -85.0413
 -85.0683
 -84.1569
 -84.1362
 -84.1881
 -84.0386
 -84.0091
 -84.7336
 -84.8195
 -84.7517
 -84.8168
 -84.7575
 -84.8517
 -84.7631
 -84.74
 -84.0604
 -84.0575
 -83.9741
 -84.0473
 -84.3015
 -84.3494
 -84.4677
 -84.427
 -84.915
 -84.9438
 -84.8731
 -84.8694
 -84.2259
 -84.1885
 -84.1673
 -84.1918
 -85.1452
 -85.1564
 -85.1259
 -84.6254
 -84.6223
 -84.619
 -84.5981
 -80.7981
 -81.1624
 -85.1323
 -85.1452
 -85.1535
 -85.1317
 -85.1597
 -85.1467
 -85.1569
 -83.5703
 -83.6655
 -83.7361
 -83.1878
 -83.2728
 -83.274
 -83.1692
 -85.2195
 -85.2195
 -85.2234
 -85.2042
 -85.0992
 -85.0614
 -85.1025
 -85.3112
 -85.3033
 -85.3062
 -84.9832
 -84.9499
 -84.9577
 -85.3252
 -85.3267
 -85.3253
 -72.338
 -71.6152
 -71.9514
 -72.3735
 -85.3654
 -85.3661
 -85.3647
 -85.3662
 -84.6555
 -84.6024
 -85.1689
 -85.1366
 -83.8874
 -83.9251
 -83.9237
 -84.0344
 -85.1862
 -85.1865
 -85.2037
 -85.2706
 -85.2785
 -85.2784
 -85.2801
 -85.3205
 -85.3122
 -83.7371
 -83.7483
 -83.7248
 -85.1388
 -85.1306
 -85.1115
 -84.5091
 -84.4185
 -84.4991
 -83.4393
 -83.4679
 -83.3834
 -83.2688
 -84.8931
 -84.903
 -84.8627
 -84.9148
 -84.8285
 -84.7684
 -84.797
 -84.8163
 -85.2217
 -85.2142
 -85.2165
 -85.2308
 -85.2758
 -85.2727
 -85.2757
 -85.2667
 -84.7412
 -84.7028
 -84.7854
 -85.2195
 -85.2181
 -85.2085
 -85.2674
 -85.274
 -85.2662
 -85.2661
 -85.3793
 -85.3781
 -85.3803
 -85.0544
 -85.0536
 -85.0517
 -85.2447
 -85.2501
 -85.2344
 -85.0058
 -85.0314
 -84.986
 -84.5615
 -84.4753
 -84.4813
 -83.7601
 -83.8549
 -83.7884
 -83.7877
 -84.9808
 -85.0245
 -85.0594
 -85.0323
 -84.3866
 -84.3338
 -84.2456
 -83.9812
 -84.077
 -85.2531
 -85.246
 -85.263
 -85.2525
 -85.2534
 -85.2589
 -85.2524
 -85.2416
 -84.0739
 -84.1725
 -84.2208
 -84.2638
 -84.0797
 -84.0066
 -84.0252
 -83.986
 -82.1427
 -81.9962
 -82.1737
 -81.9047
 -85.3436
 -85.3461
 -85.3161
 -85.3092
 -85.3118
 -85.3161
 -85.3611
 -84.5455
 -84.6117
 -84.5138
 -85.08
 -85.0919
 -85.0659
 -85.0653
 -84.2008
 -84.1721
 -84.9787
 -84.9814
 -84.9952
 -83.4921
 -83.5584
 -85.3042
 -85.306
 -85.3118
 -85.3015
 -85.3272
 -85.3265
 -85.3341
 -85.3319
 -85.2892
 -85.2904
 -85.2804
 -84.6371
 -84.683
 -84.6766
 -85.3172
 -85.3176
 -85.3199
 -85.3223
 -84.4249
 -84.2948
 -84.3942
 -84.4334
 -85.2987
 -85.2936
 -85.2942
 -85.299
 -84.3877
 -84.2458
 -84.2087
 -84.4264
 -83.5333
 -83.6236
 -83.4435
 -85.3629
 -85.3685
 -85.3651
 -85.3648
 -84.1049
 -84.1261
 -84.1177
 -84.9067
 -84.9338
 -84.9427
 -84.9276
 -85.3504
 -85.355
 -85.3526
 -84.2811
 -84.1835
 -84.2236
 -84.151
 -85.2037
 -85.3416
 -85.3437
 -85.3349
 -85.3408
 -83.5677
 -83.5995
 -83.6616
 -83.6049
 -85.2631
 -85.2461
 -85.2583
 -85.2638
 -85.0764
 -85.0901
 -85.0369
 -83.5324
 -83.3548
 -83.5495
 -83.1114
 -85.2331
 -85.2344
 -85.2393
 -84.2858
 -84.2628
 -73.5122
 -72.7208
 -73.9462
 -74.2274
 -81.9674
 -81.2726
 -81.1451
 -85.3201
 -85.3169
 -85.3354
 -85.3277
 -85.3283
 -85.3304
 -82.8143
 -82.9573
 -82.6043
 -82.9749
 -84.8403
 -84.8692
 -84.8709
 -84.8716
 -84.9746
 -84.9224
 -84.9299
 -84.9526
 -85.0938
 -85.0884
 -85.1131
 -85.0829
 -85.1342
 -85.0963
 -85.1248
 -85.1083
 -85.3514
 -84.149
 -84.1228
 -84.1546
 -84.1287
 -85.3561
 -85.3542
 -85.3584
 -85.1658
 -85.1409
 -85.1351
 -85.1431
 -83.688
 -83.8225
 -83.8474
 -85.0651
 -85.041
 -85.0639
 -85.0351
 -85.0156
 -85.2192
 -85.2252
 -85.2347
 -85.2324
 -84.5231
 -84.5347
 -84.5219
 -85.0266
 -85.083
 -85.0742
 -85.3561
 -85.3538
 -85.3507
 -85.3537
 -84.9637
 -84.9322
 -84.9362
 -70.4411
 -71.0812
 -69.7327
 -84.968
 -84.9414
 -84.9557
 -84.9094
 -85.2339
 -85.2419
 -85.2444
 -85.0504
 -85.045
 -85.3281
 -85.3293
 -85.325
 -85.325
 -85.2936
 -85.2993
 -85.2945
 -85.2953
 -85.3679
 -85.3672
 -85.365
 -85.3638
 -85.1395
 -85.0947
 -85.1282
 -85.1389
 -85.258
 -85.259
 -85.2528
 -85.2437
 -85.3285
 -85.332
 -85.3347
 -84.4527
 -84.4993
 -84.3807
 -84.4161
 -84.9024
 -84.944
 -84.7333
 -84.6966
 -84.7499
 -84.7217
 -85.2467
 -85.2417
 -85.2459
 -85.2506
 -84.9709
 -85.0089
 -84.9867
 -84.9677
 -85.249
 -85.244
 -85.2605
 -85.2477
 -85.039
 -85.0521
 -85.0632
 -85.0745
 -85.0218
 -84.9881
 -84.9977
 -85.3192
 -85.3152
 -85.3198
 -85.3475
 -85.346
 -85.345
 -85.3527
 -85.3419
 -85.3411
 -85.3445
 -85.275
 -85.2834
 -85.2752
 -76.9159
 -76.364
 -75.9893
 -84.9023
 -84.9499
 -84.9112
 -85.3162
 -85.3196
 -85.3174
 -85.3154
 -84.8975
 -84.9168
 -84.8949
 -85.1391
 -85.1573
 -85.1404
 -85.1327
 -85.1949
 -85.1555
 -85.174
 -85.1666
 -85.0261
 -85.0482
 -85.0471
 -85.0702
 -84.2427
 -84.3052
 -84.2543
 -84.2252
 -84.9145
 -85.1399
 -85.1426
 -85.1538
 -85.113
 -84.0775
 -84.0951
 -84.1059
 -84.1015
 -83.6019
 -83.7114
 -83.6292
 -83.6873
 -84.0599
 -84.0379
 -84.0872
 -83.9749
 -85.2118
 -85.2174
 -85.2266
 -85.2337
 -84.4185
 -84.3571
 -84.3971
 -84.4223
 -85.362
 -85.3581
 -85.3619
 -85.3586
 -81.0696
 -81.2315
 -81.5487
 -81.449
 -84.2157
 -84.222
 -84.2088
 -83.4062
 -83.3303
 -83.2949
 -83.2958
 -83.7935
 -83.7201
 -83.8763
 -84.1716
 -84.1805
 -85.0774
 -85.0725
 -85.0858
 -85.1291
 -85.3507
 -85.3463
 -85.3443
 -85.3478
 -85.347
 -85.3493
 -85.3457
 -84.2345
 -84.1871
 -85.3575
 -85.3607
 -85.3564
 -85.3204
 -85.3188
 -85.3192
 -85.3256
 -83.817
 -83.768
 -83.8091
 -85.3665
 -85.3673
 -85.365
 -85.3686
 -84.6358
 -84.6571
 -84.6986
 -84.6055
 -84.103
 -83.9524
 -83.9949
 -84.1025
 -83.3816
 -83.5734
 -83.4935
 -83.4561
 -79.4909
 -79.5115
 -79.1768
 -79.1545
 -85.1784
 -85.208
 -85.1993
 -85.1976
 -84.7324
 -84.7429
 -84.7138
 -84.6483
 -85.3629
 -85.3606
 -85.363
 -68.3826
 -69.7449
 -68.996
 -70.2635
 -82.0449
 -82.4175
 -82.1595
 -82.4903
 -85.3641
 -85.368
 -85.3662
 -85.3657
 -85.055
 -85.0597
 -85.0861
 -85.3363
 -85.3426
 -85.344
 -83.9924
 -83.961
 -83.7802
 -85.3633
 -85.3621
 -85.3606
 -85.3621
 -85.3126
 -85.3081
 -85.3059
 -85.3018
 -84.5016
 -84.547
 -84.5944
 -84.5326
 -84.7501
 -84.6887
 -84.7318
 -84.6503
 -85.2975
 -85.2976
 -85.2967
 -85.3047
 -85.1129
 -85.1005
 -85.0792
 -85.0936
 -80.1498
 -80.6462
 -80.7642
 -80.4847
 -85.3257
 -85.3152
 -85.322
 -85.3185
 -85.3678
 -85.0252
 -85.0345
 -85.0556
 -85.0531
 -85.3436
 -85.3468
 -85.3448
 -85.35
 -84.1192
 -84.1227
 -84.1269
 -84.134
 -85.3582
 -85.3607
 -85.3562
 -85.3548
 -84.9939
 -84.9775
 -84.7689
 -84.7405
 -84.7911
 -84.797
 -85.283
 -85.2737
 -85.2725
 -85.2747
 -85.1279
 -85.1476
 -85.1357
 -84.7158
 -84.7087
 -84.7277
 -85.2927
 -85.2896
 -85.2821
 -85.2843
 -85.2486
 -85.2427
 -85.2536
 -85.2435
 -84.1841
 -84.1465
 -84.1136
 -85.0139
 -85.0836
 -85.0869
 -85.0439
 -81.56
 -81.058
 -81.5299
 -80.9429
 -80.4911
 -85.3625
 -85.3538
 -85.3625
 -85.3575
 -85.0794
 -85.0587
 -85.0481
 -85.0779
 -85.3269
 -85.3308
 -84.9121
 -84.845
 -84.8618
 -84.4508
 -84.3835
 -84.4846
 -84.4655
 -85.3603
 -85.3583
 -85.3623
 -85.3617
 -84.2014
 -84.2168
 -84.2124
 -84.527
 -84.5088
 -84.5668
 -84.5145
 -84.7156
 -84.7928
 -84.7299
 -84.6506
 -85.2398
 -85.2562
 -85.2399
 -85.2475
 -84.3768
 -84.4717
 -84.4258
 -84.4071
 -85.2731
 -85.1977
 -85.2152
 -85.2196
 -85.1896
 -85.3456
 -85.3472
 -85.3413
 -85.3553
 -85.354
 -85.3536
 -85.3509
 -85.2042
 -85.2153
 -85.1976
 -85.2079
 -85.3711
 -85.3704
 -85.3699
 -85.3664
 -84.7398
 -85.135
 -85.1019
 -85.109
 -85.1293
 -85.0783
 -85.0273
 -85.0593
 -85.0583
 -79.6137
 -80.2227
 -80.4109
 -79.7843
 -84.9292
 -84.9395
 -84.953
 -84.9062
 -84.9087
 -84.9071
 -84.9202
 -84.95
 -84.9553
 -84.9573
 -84.9958
 -85.3343
 -85.3305
 -85.3285
 -84.9125
 -84.8483
 -84.8663
 -84.8823
 -85.322
 -85.3293
 -85.3261
 -85.009
 -84.9707
 -85.107
 -85.1244
 -85.1168
 -85.0695
 -85.0562
 -85.0638
 -85.0701
 -85.0754
 -85.1095
 -85.0993
 -85.3424
 -85.344
 -85.3441
 -84.7327
 -85.3545
 -85.1159
 -85.1295
 -85.1069
 -85.0932
 -83.5787
 -83.5173
 -83.3719
 -83.9989
 -84.107
 -84.2025
 -85.092
 -85.1054
 -85.0716
 -84.9693
 -84.9708
 -84.9795
 -85.0016
 -85.0771
 -85.052
 -85.0989
 -85.0621
 -69.7019
 -70.0429
 -68.8421
 -85.2908
 -85.2831
 -85.288
 -85.0166
 -85.0227
 -85.3039
 -85.2967
 -85.3003
 -85.2944
 -85.1424
 -85.1598
 -85.1394
 -79.4839
 -79.9718
 -79.1546
 -79.3822
 -84.8766
 -84.8351
 -84.8898
 -84.7931
 -84.2976
 -84.2668
 -84.2321
 -84.2147
 -85.2334
 -85.2147
 -85.2271
 -85.2337
 -84.6436
 -84.5502
 -84.6338
 -84.5223
 -81.3811
 -81.3269
 -81.3945
 -84.7012
 -84.6844
 -84.6533
 -84.6721
 -85.2289
 -85.2431
 -85.235
 -85.2404
 -85.0531
 -85.0881
 -85.0857
 -85.0706
 -84.4443
 -84.416
 -84.4585
 -84.8548
 -84.813
 -84.8289
 -84.8266
 -84.1444
 -84.0206
 -84.1475
 -84.0555
 -83.1285
 -83.3544
 -83.1882
 -83.0001
 -85.3623
 -85.3635
 -85.3618
 -85.3632
 -84.2078
 -84.2656
 -84.25
 -84.268
 -84.3897
 -84.3362
 -84.4022
 -84.4088
 -85.2186
 -85.2298
 -85.2315
 -85.2385
 -84.5522
 -84.565
 -84.6318
 -84.5766
 -85.3783
 -85.3784
 -85.3784
 -85.3795
 -84.97
 -84.9525
 -84.9891
 -83.8464
 -83.7586
 -83.7843
 -83.9084
 -84.1776
 -84.148
 -84.1651
 -84.1442
 -84.0163
 -83.7844
 -85.2666
 -85.2529
 -85.2638
 -85.2494
 -85.3787
 -85.3774
 -85.3784
 -85.3778
 -84.81
 -84.7627
 -84.782
 -84.7544
 -84.2904
 -84.2534
 -84.2465
 -85.2307
 -85.2154
 -85.2185
 -85.227
 -84.9115
 -84.9267
 -84.9049
 -84.9712
 -84.4331
 -84.4591
 -84.4257
 -84.4882
 -83.7283
 -83.8902
 -83.7993
 -85.2903
 -85.2995
 -85.3031
 -85.2919
 -85.3271
 -85.3243
 -85.3209
 -84.7888
 -84.7465
 -84.7923
 -84.8477
 -84.8481
 -84.8425
 -84.8895
 -84.3661
 -84.4825
 -84.5358
 -84.4635
 -85.2191
 -85.2063
 -85.2023
 -84.0233
 -83.9989
 -83.9104
 -85.0407
 -85.0646
 -85.0624
 -85.3235
 -85.3174
 -85.3237
 -85.2434
 -85.2426
 -84.7008
 -84.7336
 -84.6727
 -84.7194
 -84.7388
 -84.7148
 -85.0032
 -84.9595
 -84.3995
 -83.5899
 -83.6006
 -83.4948
 -85.3243
 -85.3243
 -85.3148
 -84.7725
 -84.8221
 -84.8061
 -84.7773
 -84.5522
 -85.0373
 -85.0489
 -85.2334
 -85.2408
 -85.2288
 -85.243
 -85.0216
 -85.0091
 -85.0391
 -84.8036
 -84.8304
 -84.7567
 -84.7936
 -84.6827
 -84.773
 -84.9083
 -84.8633
 -84.8281
 -84.9158
 -85.3384
 -85.3331
 -85.3321
 -85.3368
 -85.3436
 -85.3462
 -85.3497
 -85.3498
 -84.0456
 -84.1254
 -84.9819
 -85.0073
 -84.9821
 -84.9439
 -85.157
 -85.1619
 -85.1733
 -85.1796
 -85.1864
 -85.201
 -85.1903
 -85.1842
 -85.0051
 -84.9743
 -84.9646
 -85.0045
 -84.9137
 -84.9472
 -84.9235
 -84.9116
 -85.3223
 -85.3142
 -85.323
 -85.3222
 -83.9712
 -84.0768
 -84.175
 -84.2142
 -84.1474
 -84.2512
 -84.2053
 -85.2902
 -85.2967
 -85.3055
 -85.31
 -84.4336
 -84.4919
 -84.4636
 -84.5071
 -85.3566
 -85.3537
 -85.3563
 -85.3557
 -85.3311
 -85.3283
 -85.3307
 -85.3262
 -84.7562
 -84.7837
 -84.7387
 -84.7621
 -85.2506
 -85.2551
 -85.2518
 -85.2393
 -84.4934
 -84.5268
 -84.5818
 -84.5935
 -85.2943
 -85.2888
 -85.2899
 -84.2099
 -84.2598
 -84.1968
 -84.2254
 -85.1886
 -85.1786
 -85.1916
 -85.1981
 -84.6888
 -84.702
 -85.2782
 -85.2938
 -85.2866
 -85.286
 -85.3025
 -85.3006
 -85.2946
 -84.9516
 -85.0028
 -84.9619
 -85.3071
 -85.3083
 -85.3115
 -85.3148
 -81.7625
 -81.8127
 -82.0777
 -82.0554
 -84.4118
 -84.4559
 -84.4918
 -84.5358
 -85.1782
 -85.1532
 -85.1566
 -85.1766
 -85.3388
 -85.3411
 -85.3371
 -85.3422
 -85.3272
 -85.3323
 -85.3324
 -85.329
 -85.335
 -85.3327
 -85.3355
 -85.3386
 -85.341
 -84.5174
 -84.5546
 -84.5049
 -84.5736
 -84.1511
 -84.1713
 -84.0287
 -84.1372
 -84.5752
 -84.5751
 -84.7168
 -84.7803
 -84.7364
 -84.7119
 -84.8693
 -84.8615
 -84.9099
 -84.8604
 -84.3601
 -84.3618
 -84.299
 -85.0451
 -85.0261
 -85.0286
 -85.0211
 -85.3807
 -85.38
 -85.378
 -84.5229
 -84.4872
 -84.5252
 -84.612
 -85.2972
 -85.2853
 -85.2919
 -85.2949
 -85.2324
 -85.2438
 -85.2369
 -85.0028
 -84.9846
 -85.0147
 -85.255
 -85.2665
 -85.2576
 -85.3211
 -85.3182
 -85.241
 -85.2411
 -85.2395
 -84.4874
 -84.5178
 -84.528
 -84.4527
 -85.3481
 -85.3509
 -85.3488
 -85.3473
 -85.1961
 -85.2073
 -85.2034
 -77.81
 -76.8303
 -76.4502
 -77.5503
 -83.4683
 -83.3904
 -85.125
 -84.7286
 -84.8171
 -84.7569
 -84.7285
 -85.0898
 -85.1203
 -85.1198
 -85.2926
 -85.2923
 -85.2865
 -85.294
 -85.3607
 -85.3616
 -85.0296
 -85.0208
 -85.0219
 -84.9954
 -83.1546
 -82.8644
 -82.8886
 -83.0312
 -85.3317
 -85.3345
 -85.3345
 -85.3322
 -85.1527
 -85.1619
 -85.1468
 -70.82
 -70.0686
 -69.4654
 -69.5625
 -84.201
 -84.1819
 -84.1307
 -84.557
 -84.6256
 -84.5013
 -84.5751
 -85.1804
 -85.1843
 -85.1773
 -85.1979
 -85.0168
 -85.038
 -84.0535
 -84.0713
 -84.0655
 -84.0689
 -85.1724
 -85.1892
 -84.6306
 -84.5064
 -84.5273
 -84.5728
 -84.8027
 -84.8208
 -84.7655
 -84.8071
 -85.0481
 -85.0813
 -85.0821
 -85.0607
 -84.4399
 -84.3886
 -84.2804
 -85.2227
 -85.2105
 -85.2271
 -85.2098
 -85.2922
 -85.2998
 -85.3058
 -85.2957
 -85.2796
 -85.2821
 -85.2846
 -85.2883
 -82.8065
 -82.6114
 -82.6621
 -82.4442
 -85.0628
 -85.0397
 -75.3872
 -74.7369
 -74.6895
 -73.994
 -84.8212
 -84.7773
 -84.7424
 -85.356
 -65.6411
 -66.131
 -66.2478
 -64.5795
 -84.9339
 -84.9428
 -84.9229
 -84.9224
 -84.6957
 -84.7534
 -84.7046
 -85.2805
 -85.2895
 -85.2877
 -85.281
 -85.2853
 -85.2815
 -85.2922
 -85.2927
 -85.2688
 -85.2757
 -85.2671
 -85.2622
 -84.5317
 -84.5843
 -84.5006
 -84.576
 -83.963
 -83.924
 -83.8014
 -83.8435
 -85.1972
 -85.2014
 -85.2148
 -85.1986
 -84.8288
 -84.7401
 -84.8595
 -84.816
 -85.3766
 -85.3404
 -85.3407
 -85.1581
 -85.1599
 -84.8191
 -84.7789
 -84.7926
 -85.3453
 -85.3516
 -85.3482
 -85.3463
 -84.9027
 -84.8861
 -85.1744
 -85.1581
 -79.3393
 -80.0255
 -79.3947
 -80.0849
 -84.5132
 -84.4807
 -84.4297
 -84.4572
 -85.1665
 -85.1895
 -85.1745
 -85.1793
 -80.2788
 -79.8738
 -80.2646
 -80.4391
 -85.3654
 -85.3641
 -85.3679
 -85.3657
 -85.3428
 -85.3382
 -85.3558
 -85.3526
 -85.3485
 -85.3565
 -85.3004
 -85.3063
 -84.7148
 -84.7286
 -84.6748
 -66.947
 -68.0998
 -66.617
 -66.8952
 -81.0251
 -81.3141
 -81.4032
 -81.11
 -85.3462
 -85.3493
 -85.3461
 -85.3443
 -85.2481
 -85.2602
 -85.2509
 -85.1022
 -85.0731
 -85.0559
 -85.0804
 -84.5814
 -84.6905
 -84.5908
 -84.5692
 -85.3165
 -85.3217
 -85.3218
 -85.3476
 -85.0457
 -85.0847
 -84.3834
 -84.4149
 -85.2346
 -85.2523
 -85.2345
 -85.2404
 -83.9545
 -83.8056
 -83.9983
 -83.8039
 -84.0271
 -83.9284
 -83.9656
 -69.2591
 -70.8358
 -70.3522
 -70.2108
 -84.519
 -84.567
 -84.5734
 -84.6244
 -85.3259
 -85.3269
 -85.3128
 -85.3174
 -85.3165
 -85.3172
 -84.4568
 -84.447
 -84.5172
 -84.423
 -85.286
 -85.2813
 -85.2893
 -85.2467
 -85.2493
 -85.2493
 -85.2385
 -85.3154
 -85.317
 -85.3105
 -85.3195
 -84.6176
 -84.6839
 -84.6609
 -84.6239
 -85.3564
 -85.3511
 -84.9115
 -78.0507
 -78.5279
 -78.7481
 -79.1597
 -85.279
 -85.2791
 -85.285
 -81.3408
 -81.0021
 -80.9763
 -80.8527
 -85.2189
 -85.2171
 -85.212
 -85.2253
 -83.8756
 -83.8705
 -83.7587
 -83.8946
 -84.3481
 -84.3183
 -84.3802
 -84.3833
 -85.2104
 -85.219
 -85.2168
 -84.741
 -84.7557
 -84.7334
 -84.6918
 -85.2114
 -85.2039
 -85.2156
 -85.1906
 -85.132
 -85.1264
 -85.2908
 -85.2937
 -85.2939
 -85.2443
 -85.246
 -85.2313
 -78.3543
 -78.475
 -79.1031
 -78.5165
 -84.0603
 -84.1466
 -84.0091
 -84.1791
 -85.3165
 -85.3071
 -85.3098
 -85.3089
 -85.3109
 -85.3103
 -84.338
 -84.5149
 -84.3574
 -85.2488
 -85.2369
 -85.2428
 -85.2339
 -85.2453
 -85.2438
 -85.2379
 -84.568
 -84.533
 -84.5785
 -84.5851
 -85.3445
 -85.3459
 -84.7591
 -84.7389
 -84.7584
 -84.8028
 -84.5192
 -84.528
 -84.5564
 -85.2616
 -85.2651
 -85.0057
 -84.9776
 -85.0233
 -85.0358
 -84.1179
 -84.0958
 -85.2123
 -85.2126
 -84.7761
 -84.6674
 -84.673
 -84.7399
 -85.0552
 -85.0524
 -85.0388
 -85.0768
 -85.0525
 -85.0369
 -85.0578
 -82.2724
 -82.1902
 -82.1267
 -82.6388
 -80.8912
 -80.9652
 -81.2332
 -81.2737
 -85.2255
 -85.2138
 -85.1992
 -85.213
 -85.323
 -85.3236
 -85.3188
