 -85.8132
 -85.815
 -85.8146
 -85.8155
 -85.8418
 -85.842
 -85.8427
 -85.8431
 -85.8352
 -85.8343
 -85.8354
 -85.8346
 -85.8364
 -85.8354
 -85.8352
 -85.8347
 -85.8521
 -85.8527
 -85.8516
 -85.8513
 -85.8506
 -85.85
 -85.8512
 -85.8502
 -85.807
 -85.806
 -85.8063
 -85.807
 -85.8085
 -85.8089
 -85.8089
 -85.8083
 -85.8505
 -85.8502
 -85.8493
 -85.8501
 -85.8503
 -85.8504
 -85.8502
 -85.8513
 -85.8032
 -85.8025
 -85.8035
 -85.8037
 -85.8347
 -85.8348
 -85.8338
 -85.8345
 -85.8187
 -85.8186
 -85.8177
 -85.8195
 -85.8436
 -85.8422
 -85.8417
 -85.8427
 -85.8303
 -85.8299
 -85.8306
 -85.8314
 -85.8104
 -85.8096
 -85.8111
 -85.8097
 -85.8482
 -85.8487
 -85.848
 -85.8489
 -85.8375
 -85.8368
 -85.8377
 -85.8371
 -85.831
 -85.8314
 -85.8315
 -85.8322
 -85.8466
 -85.8466
 -85.8471
 -85.8477
 -85.8081
 -85.8067
 -85.8081
 -85.8072
 -85.8537
 -85.8539
 -85.8546
 -85.8544
 -85.7872
 -85.7865
 -85.7861
 -85.7873
 -85.841
 -85.8414
 -85.8403
 -85.8402
 -85.829
 -85.8282
 -85.829
 -85.8295
 -85.8329
 -85.8331
 -85.8326
 -85.8323
 -85.8243
 -85.8256
 -85.8262
 -85.8244
 -85.8098
 -85.8089
 -85.81
 -85.8097
 -85.8183
 -85.818
 -85.817
 -85.8177
 -85.8425
 -85.8424
 -85.8418
 -85.8412
 -85.8296
 -85.8311
 -85.8291
 -85.8298
 -85.8189
 -85.8198
 -85.8198
 -85.8189
 -85.8392
 -85.8382
 -85.8394
 -85.8384
 -85.8418
 -85.8414
 -85.8413
 -85.8415
 -85.8192
 -85.8183
 -85.8195
 -85.8176
 -85.812
 -85.8118
 -85.8116
 -85.8117
 -85.8382
 -85.8367
 -85.838
 -85.8377
 -85.8025
 -85.8031
 -85.8032
 -85.8037
 -85.8397
 -85.8397
 -85.8414
 -85.8408
 -85.8552
 -85.8546
 -85.855
 -85.8544
 -85.834
 -85.8338
 -85.8343
 -85.8328
 -85.8417
 -85.8426
 -85.8421
 -85.8419
 -85.8051
 -85.8049
 -85.8058
 -85.8043
 -85.8376
 -85.837
 -85.8372
 -85.8383
 -85.8503
 -85.8501
 -85.8509
 -85.8506
 -85.816
 -85.8169
 -85.8165
 -85.8161
 -85.8383
 -85.8397
 -85.8393
 -85.8393
 -85.8109
 -85.812
 -85.811
 -85.8098
 -85.8203
 -85.8195
 -85.8192
 -85.8187
 -85.8313
 -85.8304
 -85.8301
 -85.8295
 -85.8092
 -85.8088
 -85.8084
 -85.8092
 -85.8321
 -85.8311
 -85.8311
 -85.8319
 -85.8215
 -85.8201
 -85.8214
 -85.8196
 -85.8341
 -85.8347
 -85.8341
 -85.8348
 -85.8175
 -85.8185
 -85.8179
 -85.8193
 -85.8343
 -85.8341
 -85.8351
 -85.8335
 -85.84
 -85.8401
 -85.8407
 -85.8412
 -85.8414
 -85.841
 -85.8415
 -85.84
 -85.8161
 -85.8162
 -85.8146
 -85.8167
 -85.8236
 -85.823
 -85.8233
 -85.8246
 -85.7896
 -85.7887
 -85.788
 -85.7889
 -85.8182
 -85.818
 -85.817
 -85.8179
 -85.8297
 -85.8311
 -85.8306
 -85.8308
 -85.8222
 -85.822
 -85.8235
 -85.8211
 -85.8215
 -85.8229
 -85.8214
 -85.8227
 -85.8096
 -85.8089
 -85.81
 -85.8099
 -85.8474
 -85.8484
 -85.8487
 -85.8473
 -85.8522
 -85.8525
 -85.8527
 -85.853
 -85.8321
 -85.8334
 -85.8312
 -85.8319
 -85.8185
 -85.8182
 -85.8192
 -85.8179
 -85.8395
 -85.8399
 -85.8405
 -85.8394
 -85.808
 -85.806
 -85.8067
 -85.8066
 -85.8077
 -85.8067
 -85.8065
 -85.8078
 -85.7878
 -85.7871
 -85.7883
 -85.7881
 -85.8347
 -85.8358
 -85.8352
 -85.8363
 -85.8154
 -85.8167
 -85.817
 -85.8155
 -85.8131
 -85.8122
 -85.8133
 -85.8141
 -85.8531
 -85.8538
 -85.8535
 -85.8539
 -85.8117
 -85.8113
 -85.8105
 -85.8116
 -85.8136
 -85.813
 -85.8122
 -85.8135
 -85.8154
 -85.8163
 -85.8154
 -85.8145
 -85.8258
 -85.8255
 -85.8266
 -85.8264
 -85.8141
 -85.8153
 -85.8145
 -85.8148
 -85.82
 -85.8208
 -85.8211
 -85.8204
 -85.8235
 -85.8232
 -85.8228
 -85.8223
 -85.8112
 -85.81
 -85.8117
 -85.8103
 -85.7845
 -85.7842
 -85.786
 -85.786
 -85.8089
 -85.8093
 -85.81
 -85.8094
 -85.8352
 -85.8346
 -85.8357
 -85.8339
 -85.8355
 -85.8352
 -85.8362
 -85.8352
 -85.8411
 -85.8407
 -85.8404
 -85.8417
 -85.8076
 -85.8075
 -85.8077
 -85.8081
 -85.8541
 -85.8541
 -85.8536
 -85.8546
 -85.8406
 -85.8415
 -85.8406
 -85.8408
 -85.8033
 -85.8033
 -85.8022
 -85.8022
 -85.8206
 -85.8205
 -85.8201
 -85.8221
 -85.8131
 -85.8137
 -85.8122
 -85.8128
 -85.8134
 -85.8128
 -85.8129
 -85.8082
 -85.808
 -85.808
 -85.8076
 -85.8376
 -85.8369
 -85.8364
 -85.838
 -85.8244
 -85.826
 -85.8253
 -85.8245
 -85.8363
 -85.8373
 -85.8365
 -85.8182
 -85.8167
 -85.8176
 -85.817
 -85.8278
 -85.8285
 -85.8282
 -85.827
 -85.8459
 -85.8449
 -85.8449
 -85.8465
 -85.8082
 -85.8084
 -85.81
 -85.8093
 -85.8115
 -85.8106
 -85.8101
 -85.8108
 -85.8351
 -85.834
 -85.8337
 -85.8341
 -85.8397
 -85.8391
 -85.8408
 -85.8406
 -85.805
 -85.805
 -85.8045
 -85.8036
 -85.8107
 -85.811
 -85.8128
 -85.8123
 -85.8227
 -85.8241
 -85.8248
 -85.8229
 -85.8506
 -85.8513
 -85.8509
 -85.8511
 -85.8348
 -85.8359
 -85.8362
 -85.8357
 -85.828
 -85.8262
 -85.8279
 -85.8279
 -85.7916
 -85.79
 -85.7918
 -85.7916
 -85.8258
 -85.8247
 -85.8262
 -85.8269
 -85.8456
 -85.8446
 -85.8456
 -85.8441
 -85.8146
 -85.8128
 -85.8154
 -85.8148
 -85.8121
 -85.8123
 -85.8111
 -85.8118
 -85.8117
 -85.8105
 -85.8107
 -85.8111
 -85.8015
 -85.8014
 -85.8014
 -85.8019
 -85.8132
 -85.8115
 -85.8116
 -85.8116
 -85.8356
 -85.8354
 -85.8356
 -85.8348
 -85.8066
 -85.8071
 -85.8075
 -85.8078
 -85.8499
 -85.8492
 -85.8496
 -85.8499
 -85.8074
 -85.8059
 -85.8061
 -85.8072
 -85.8454
 -85.8441
 -85.8454
 -85.8446
 -85.8253
 -85.8243
 -85.8243
 -85.825
 -85.8205
 -85.8215
 -85.822
 -85.8208
 -85.8168
 -85.8169
 -85.8183
 -85.8172
 -85.8146
 -85.8146
 -85.8138
 -85.8134
 -85.8536
 -85.8541
 -85.8543
 -85.8543
 -85.8157
 -85.8151
 -85.8157
 -85.8152
 -85.8552
 -85.8547
 -85.855
 -85.8543
 -85.8401
 -85.8399
 -85.8412
 -85.8402
 -85.796
 -85.7975
 -85.7972
 -85.7958
 -85.8513
 -85.8511
 -85.8518
 -85.8521
 -85.8105
 -85.8119
 -85.8107
 -85.8097
 -85.7948
 -85.7941
 -85.7938
 -85.7947
 -85.8438
 -85.8436
 -85.8431
 -85.8436
 -85.8524
 -85.8531
 -85.8526
 -85.8525
 -85.8309
 -85.8313
 -85.8307
 -85.8304
 -85.8422
 -85.8411
 -85.8425
 -85.8414
 -85.8131
 -85.8118
 -85.8125
 -85.8123
 -85.8335
 -85.833
 -85.8335
 -85.8346
 -85.82
 -85.8193
 -85.8204
 -85.8204
 -85.8089
 -85.8094
 -85.8087
 -85.8086
 -85.8038
 -85.8037
 -85.8036
 -85.8046
 -85.8247
 -85.8243
 -85.8254
 -85.8239
 -85.828
 -85.828
 -85.8277
 -85.8269
 -85.8124
 -85.8122
 -85.8131
 -85.8135
 -85.8124
 -85.811
 -85.8124
 -85.8122
 -85.8368
 -85.8371
 -85.8361
 -85.8361
 -85.8508
 -85.8506
 -85.8515
 -85.8516
 -85.8495
 -85.8488
 -85.8496
 -85.8499
 -85.8491
 -85.848
 -85.8482
 -85.8487
 -85.8378
 -85.8373
 -85.8382
 -85.8371
 -85.8123
 -85.8109
 -85.812
 -85.8116
 -85.8128
 -85.8135
 -85.8138
 -85.8141
 -85.8276
 -85.8272
 -85.8255
 -85.8255
 -85.8402
 -85.8396
 -85.8413
 -85.8407
 -85.8399
 -85.8393
 -85.8396
 -85.8404
 -85.8316
 -85.8306
 -85.8312
 -85.8314
 -85.8346
 -85.8355
 -85.8342
 -85.8345
 -85.8045
 -85.8043
 -85.8048
 -85.8059
 -85.7785
 -85.7777
 -85.7787
 -85.777
 -85.8151
 -85.8149
 -85.8136
 -85.8143
 -85.7834
 -85.7851
 -85.7847
 -85.8151
 -85.815
 -85.8157
 -85.8142
 -85.8466
 -85.846
 -85.8464
 -85.8457
 -85.8304
 -85.8311
 -85.8313
 -85.8322
 -85.8507
 -85.8503
 -85.8513
 -85.8502
 -85.8121
 -85.8123
 -85.8111
 -85.8122
 -85.8386
 -85.8383
 -85.8398
 -85.8395
 -85.8318
 -85.8318
 -85.8304
 -85.831
 -85.8528
 -85.8531
 -85.8534
 -85.8524
 -85.8446
 -85.8444
 -85.8448
 -85.8458
 -85.8152
 -85.8164
 -85.8156
 -85.8151
 -85.8384
 -85.8382
 -85.8372
 -85.8383
 -85.8459
 -85.8444
 -85.8453
 -85.8446
 -85.7947
 -85.7929
 -85.7938
 -85.7931
 -85.8298
 -85.8304
 -85.8309
 -85.8311
 -85.8458
 -85.846
 -85.8466
 -85.8458
 -85.8359
 -85.8369
 -85.8351
 -85.8373
 -85.8445
 -85.8434
 -85.8447
 -85.8445
 -85.8128
 -85.8139
 -85.8145
 -85.8145
 -85.8443
 -85.8463
 -85.8443
 -85.8459
 -85.8235
 -85.8242
 -85.8221
 -85.8233
 -85.8263
 -85.827
 -85.8277
 -85.8261
 -85.8442
 -85.8441
 -85.8433
 -85.8446
 -85.8551
 -85.8547
 -85.8547
 -85.8551
 -85.8046
 -85.8053
 -85.8058
 -85.8062
 -85.8193
 -85.8202
 -85.8209
 -85.8196
 -85.8333
 -85.8327
 -85.8321
 -85.8324
 -85.8444
 -85.8451
 -85.8449
 -85.8451
 -85.8162
 -85.8153
 -85.8156
 -85.8157
 -85.8064
 -85.8078
 -85.8084
 -85.8067
 -85.8393
 -85.8393
 -85.8381
 -85.8381
 -85.8358
 -85.8368
 -85.8358
 -85.8362
 -85.8516
 -85.8522
 -85.8528
 -85.8516
 -85.8095
 -85.8109
 -85.8092
 -85.8103
 -85.8523
 -85.853
 -85.8529
 -85.8524
 -85.8184
 -85.8199
 -85.8191
 -85.8186
 -85.7797
 -85.7794
 -85.7799
 -85.7804
 -85.8484
 -85.849
 -85.8494
 -85.8491
 -85.8377
 -85.8383
 -85.8371
 -85.8359
 -85.8492
 -85.8492
 -85.8487
 -85.8486
 -85.8275
 -85.8261
 -85.8271
 -85.8277
 -85.8248
 -85.8256
 -85.8258
 -85.8251
 -85.8429
 -85.8416
 -85.842
 -85.842
 -85.8122
 -85.8126
 -85.8116
 -85.8124
 -85.8103
 -85.811
 -85.8111
 -85.8106
 -85.789
 -85.7883
 -85.7883
 -85.7879
 -85.8317
 -85.8325
 -85.833
 -85.8335
 -85.8284
 -85.8277
 -85.8295
 -85.8283
 -85.8361
 -85.8344
 -85.8355
 -85.8364
 -85.8196
 -85.8211
 -85.8212
 -85.8192
 -85.8509
 -85.8507
 -85.8514
 -85.8501
 -85.8524
 -85.8535
 -85.8524
 -85.8522
 -85.8368
 -85.8373
 -85.8384
 -85.8384
 -85.7707
 -85.7706
 -85.771
 -85.7717
 -85.8232
 -85.8225
 -85.8235
 -85.8219
 -85.8242
 -85.8238
 -85.8225
 -85.8238
 -85.8233
 -85.8235
 -85.8221
 -85.8222
 -85.8433
 -85.8428
 -85.8441
 -85.8426
 -85.7928
 -85.7942
 -85.7918
 -85.7927
 -85.7864
 -85.7865
 -85.7851
 -85.7849
 -85.8434
 -85.8426
 -85.8434
 -85.8423
 -85.8173
 -85.8187
 -85.8167
 -85.8186
 -85.8221
 -85.822
 -85.8224
 -85.8225
 -85.8369
 -85.8361
 -85.8359
 -85.8348
 -85.8112
 -85.8118
 -85.8123
 -85.8117
 -85.8449
 -85.8438
 -85.8441
 -85.8447
 -85.8198
 -85.8175
 -85.8188
 -85.8171
 -85.8177
 -85.8176
 -85.8165
 -85.8175
 -85.8066
 -85.8057
 -85.8071
 -85.8054
 -85.823
 -85.8246
 -85.8235
 -85.8248
 -85.8465
 -85.8471
 -85.8471
 -85.8463
 -85.8382
 -85.8395
 -85.8399
 -85.8388
 -85.8108
 -85.8106
 -85.8117
 -85.8116
 -85.8157
 -85.8172
 -85.8172
 -85.8157
 -85.8497
 -85.85
 -85.8505
 -85.8504
 -85.8444
 -85.8437
 -85.8442
 -85.8438
 -85.8243
 -85.8238
 -85.823
 -85.8238
 -85.8073
 -85.8075
 -85.8075
 -85.8079
 -85.7982
 -85.8003
 -85.7999
 -85.7984
 -85.837
 -85.8359
 -85.8353
 -85.8365
 -85.8073
 -85.806
 -85.8072
 -85.8046
 -85.8475
 -85.8464
 -85.8464
 -85.8473
 -85.8337
 -85.8352
 -85.8343
 -85.8333
 -85.8465
 -85.8463
 -85.8459
 -85.8462
 -85.8395
 -85.8384
 -85.8383
 -85.8389
 -85.824
 -85.8234
 -85.8239
 -85.8248
 -85.813
 -85.8112
 -85.8116
 -85.8124
 -85.8002
 -85.8022
 -85.8004
 -85.8005
 -85.8048
 -85.803
 -85.805
 -85.8045
 -85.8123
 -85.8108
 -85.8105
 -85.8111
 -85.8264
 -85.8268
 -85.8266
 -85.8247
 -85.8268
 -85.827
 -85.8274
 -85.826
 -85.8281
 -85.827
 -85.829
 -85.8278
 -85.8375
 -85.8368
 -85.8378
 -85.8376
 -85.7929
 -85.7914
 -85.7918
 -85.7917
 -85.8314
 -85.8317
 -85.8311
 -85.8322
 -85.8105
 -85.8092
 -85.8097
 -85.8101
 -85.8218
 -85.8233
 -85.8223
 -85.8232
 -85.8517
 -85.8505
 -85.8516
 -85.8514
 -85.8257
 -85.825
 -85.825
 -85.8245
 -85.8078
 -85.8073
 -85.8076
 -85.8062
 -85.8212
 -85.8211
 -85.8219
 -85.8226
 -85.8135
 -85.8142
 -85.8141
 -85.8131
 -85.8243
 -85.8229
 -85.8246
 -85.8236
 -85.7938
 -85.7927
 -85.7932
 -85.7941
 -85.8224
 -85.8225
 -85.8236
 -85.8237
 -85.838
 -85.8376
 -85.8384
 -85.8378
 -85.8345
 -85.8346
 -85.8351
 -85.8346
 -85.8496
 -85.8481
 -85.8494
 -85.8487
 -85.816
 -85.8157
 -85.8168
 -85.816
 -85.8126
 -85.8135
 -85.8126
 -85.8148
 -85.8488
 -85.8476
 -85.8489
 -85.8487
 -85.8137
 -85.8136
 -85.815
 -85.8138
 -85.8465
 -85.8462
 -85.847
 -85.8461
 -85.83
 -85.8317
 -85.8306
 -85.8313
 -85.8266
 -85.8248
 -85.8265
 -85.8269
 -85.8129
 -85.814
 -85.8138
 -85.8128
 -85.825
 -85.8249
 -85.8261
 -85.8247
 -85.847
 -85.8465
 -85.8471
 -85.8471
 -85.7791
 -85.7793
 -85.7797
 -85.7782
 -85.8069
 -85.8067
 -85.8067
 -85.807
 -85.8068
 -85.807
 -85.8068
 -85.806
 -85.8174
 -85.8179
 -85.8169
 -85.8185
 -85.8219
 -85.8209
 -85.8217
 -85.8211
 -85.8162
 -85.8156
 -85.8152
 -85.8165
 -85.8519
 -85.8515
 -85.8527
 -85.8512
 -85.8122
 -85.8115
 -85.8117
 -85.8131
 -85.8362
 -85.8363
 -85.8368
 -85.8357
 -85.8265
 -85.8441
 -85.8429
 -85.8433
 -85.8432
 -85.8341
 -85.8349
 -85.8356
 -85.8351
 -85.8039
 -85.8048
 -85.8052
 -85.8045
 -85.8187
 -85.8181
 -85.819
 -85.8198
 -85.8143
 -85.813
 -85.8139
 -85.8143
 -85.8458
 -85.845
 -85.845
 -85.8451
 -85.8231
 -85.8212
 -85.8225
 -85.822
 -85.8471
 -85.8474
 -85.8462
 -85.8461
 -85.839
 -85.8397
 -85.8386
 -85.84
 -85.8046
 -85.8053
 -85.8048
 -85.8061
 -85.8118
 -85.8104
 -85.8128
 -85.8119
 -85.838
 -85.8388
 -85.8388
 -85.8381
 -85.8251
 -85.8236
 -85.8249
 -85.8073
 -85.8066
 -85.807
 -85.8079
 -85.8366
 -85.8348
 -85.836
 -85.8349
 -85.8145
 -85.8131
 -85.8132
 -85.8141
 -85.8255
 -85.8236
 -85.8245
 -85.8255
 -85.8489
 -85.8489
 -85.8477
 -85.8488
 -85.8171
 -85.8166
 -85.816
 -85.817
 -85.8443
 -85.8431
 -85.8441
 -85.8445
 -85.8278
 -85.8272
 -85.8279
 -85.8266
 -85.8415
 -85.8409
 -85.8401
 -85.8406
 -85.8481
 -85.8481
 -85.849
 -85.8485
 -85.8178
 -85.8177
 -85.8186
 -85.8185
 -85.7789
 -85.781
 -85.7806
 -85.7816
 -85.8524
 -85.8519
 -85.8519
 -85.8517
 -85.8358
 -85.8353
 -85.8346
 -85.8352
 -85.8092
 -85.8092
 -85.8112
 -85.8096
 -85.8212
 -85.822
 -85.8224
 -85.8211
 -85.7957
 -85.7961
 -85.7962
 -85.7949
 -85.8473
 -85.8478
 -85.8489
 -85.8479
 -85.8082
 -85.8076
 -85.8079
 -85.8081
 -85.8308
 -85.8318
 -85.8302
 -85.8311
 -85.8109
 -85.8086
 -85.8104
 -85.8105
 -85.8537
 -85.8535
 -85.8537
 -85.8527
 -85.8533
 -85.8532
 -85.8527
 -85.8523
 -85.839
 -85.8379
 -85.8377
 -85.8392
 -85.8319
 -85.8324
 -85.8319
 -85.831
 -85.8323
 -85.8076
 -85.8078
 -85.8062
 -85.8073
 -85.8104
 -85.8098
 -85.8095
 -85.8108
 -85.8368
 -85.8379
 -85.838
 -85.8379
 -85.8094
 -85.8102
 -85.8102
 -85.8094
 -85.8131
 -85.8129
 -85.8127
 -85.8139
 -85.8385
 -85.8389
 -85.8386
 -85.8376
 -85.8187
 -85.8201
 -85.8187
 -85.8201
 -85.8376
 -85.8377
 -85.8379
 -85.8387
 -85.8142
 -85.814
 -85.813
 -85.8142
 -85.8177
 -85.8187
 -85.8187
 -85.8189
 -85.8237
 -85.8247
 -85.8231
 -85.8245
 -85.8316
 -85.8329
 -85.8321
 -85.8333
 -85.8426
 -85.8421
 -85.8435
 -85.8435
 -85.8298
 -85.8295
 -85.8288
 -85.8289
 -85.83
 -85.8304
 -85.8309
 -85.8305
 -85.8044
 -85.8044
 -85.805
 -85.8055
 -85.836
 -85.8363
 -85.8367
 -85.8364
 -85.8269
 -85.8272
 -85.8277
 -85.8268
 -85.829
 -85.829
 -85.8282
 -85.8289
 -85.8196
 -85.8199
 -85.8185
 -85.8194
 -85.8073
 -85.8072
 -85.8079
 -85.8064
 -85.8412
 -85.8411
 -85.8418
 -85.8418
 -85.8078
 -85.8069
 -85.8073
 -85.8086
 -85.8524
 -85.8523
 -85.8532
 -85.8528
 -85.8447
 -85.8439
 -85.8453
 -85.8448
 -85.8454
 -85.8454
 -85.8454
 -85.845
 -85.8447
 -85.8445
 -85.8443
 -85.8453
 -85.839
 -85.8395
 -85.8384
 -85.8395
 -85.7979
 -85.7971
 -85.7955
 -85.8297
 -85.8281
 -85.8295
 -85.829
 -85.8435
 -85.8431
 -85.8427
 -85.8435
 -85.8191
 -85.8178
 -85.8186
 -85.8189
 -85.8144
 -85.8146
 -85.814
 -85.8148
 -85.8398
 -85.84
 -85.8409
 -85.8389
 -85.8232
 -85.8228
 -85.8235
 -85.8244
 -85.8156
 -85.8156
 -85.8153
 -85.815
 -85.8513
 -85.8522
 -85.8347
 -85.8344
 -85.8334
 -85.8333
 -85.8241
 -85.824
 -85.8232
 -85.8315
 -85.8318
 -85.8315
 -85.8306
 -85.8001
 -85.7998
 -85.8012
 -85.8011
 -85.8443
 -85.8451
 -85.845
 -85.8441
 -85.8313
 -85.831
 -85.8303
 -85.8304
 -85.8189
 -85.8178
 -85.8184
 -85.8194
 -85.8286
 -85.8273
 -85.8277
 -85.8282
 -85.8089
 -85.8085
 -85.809
 -85.8088
 -85.8053
 -85.8072
 -85.8058
 -85.8062
 -85.8227
 -85.8237
 -85.824
 -85.8233
 -85.8083
 -85.8081
 -85.8082
 -85.8093
 -85.8242
 -85.8236
 -85.8239
 -85.8234
 -85.8455
 -85.8454
 -85.8443
 -85.8442
 -85.8101
 -85.8107
 -85.8111
 -85.8105
 -85.789
 -85.7903
 -85.789
 -85.79
 -85.8332
 -85.8311
 -85.8326
 -85.8327
 -85.8214
 -85.8223
 -85.8212
 -85.8223
 -85.8088
 -85.8086
 -85.8096
 -85.8093
 -85.8246
 -85.8238
 -85.825
 -85.8251
 -85.8497
 -85.8493
 -85.8499
 -85.8497
 -85.8133
 -85.8133
 -85.8127
 -85.8133
 -85.8339
 -85.8329
 -85.8329
 -85.8327
 -85.8209
 -85.8221
 -85.8212
 -85.823
 -85.8387
 -85.8393
 -85.8391
 -85.8401
 -85.8457
 -85.8455
 -85.846
 -85.8452
 -85.8095
 -85.8104
 -85.8098
 -85.8116
 -85.8168
 -85.8176
 -85.8174
 -85.8172
 -85.8314
 -85.8313
 -85.8298
 -85.8307
 -85.8083
 -85.8087
 -85.8086
 -85.8089
 -85.78
 -85.7789
 -85.7791
 -85.7797
 -85.8283
 -85.8272
 -85.8273
 -85.827
 -85.7771
 -85.7768
 -85.7772
 -85.7782
 -85.7795
 -85.7811
 -85.7809
 -85.7801
 -85.8004
 -85.8014
 -85.8011
 -85.8
 -85.8358
 -85.835
 -85.8343
 -85.8338
 -85.8354
 -85.8361
 -85.8363
 -85.837
 -85.8371
 -85.8363
 -85.837
 -85.8357
 -85.8336
 -85.8324
 -85.8327
 -85.8338
 -85.7954
 -85.7944
 -85.7952
 -85.7949
 -85.8106
 -85.8101
 -85.8113
 -85.8108
 -85.809
 -85.8077
 -85.8081
 -85.8079
 -85.819
 -85.8203
 -85.8191
 -85.8204
 -85.8296
 -85.8289
 -85.8297
 -85.8291
 -85.8389
 -85.8386
 -85.8381
 -85.839
 -85.8118
 -85.8133
 -85.8137
 -85.8124
 -85.836
 -85.8254
 -85.8262
 -85.8264
 -85.8258
 -85.853
 -85.8533
 -85.8541
 -85.8536
 -85.8228
 -85.8231
 -85.8238
 -85.823
 -85.8476
 -85.8487
 -85.8478
 -85.8099
 -85.8105
 -85.8109
 -85.8097
 -85.7838
 -85.785
 -85.7844
 -85.7851
 -85.8253
 -85.8253
 -85.8268
 -85.8246
 -85.8195
 -85.8178
 -85.818
 -85.818
 -85.8085
 -85.8092
 -85.81
 -85.8104
 -85.8101
 -85.8105
 -85.8096
 -85.8107
 -85.799
 -85.7976
 -85.7986
 -85.7985
 -85.8316
 -85.8314
 -85.832
 -85.8336
 -85.8255
 -85.8268
 -85.8251
 -85.8262
 -85.8164
 -85.8154
 -85.8165
 -85.816
 -85.823
 -85.8222
 -85.8243
 -85.8399
 -85.8393
 -85.8392
 -85.8122
 -85.8124
 -85.8108
 -85.8105
 -85.8016
 -85.8012
 -85.8012
 -85.8015
 -85.8144
 -85.8153
 -85.8151
 -85.8142
 -85.8014
 -85.8002
 -85.8018
 -85.7997
 -85.8421
 -85.8434
 -85.8424
 -85.8428
 -85.8388
 -85.8394
 -85.8396
 -85.8403
 -85.8085
 -85.8082
 -85.8083
 -85.8082
 -85.7969
 -85.7951
 -85.7964
 -85.7968
 -85.8285
 -85.8269
 -85.8283
 -85.8277
 -85.8508
 -85.8499
 -85.851
 -85.85
 -85.8007
 -85.8006
 -85.8
 -85.8007
 -85.8353
 -85.8343
 -85.8341
 -85.8356
 -85.7884
 -85.7876
 -85.7885
 -85.7878
 -85.8387
 -85.8392
 -85.8385
 -85.84
 -85.8198
 -85.8188
 -85.8204
 -85.8184
 -85.8423
 -85.8424
 -85.8432
 -85.8432
 -85.8096
 -85.81
 -85.8102
 -85.8111
 -85.8176
 -85.8166
 -85.8167
 -85.8167
 -85.812
 -85.8115
 -85.8129
 -85.8128
 -85.8144
 -85.8139
 -85.8154
 -85.8133
 -85.8284
 -85.8292
 -85.829
 -85.8279
 -85.8224
 -85.8215
 -85.8227
 -85.8227
 -85.8432
 -85.8424
 -85.8417
 -85.8419
 -85.8522
 -85.8528
 -85.8515
 -85.8515
 -85.8207
 -85.8206
 -85.8197
 -85.8204
 -85.8452
 -85.8448
 -85.8446
 -85.8458
 -85.8375
 -85.8389
 -85.8396
 -85.8386
 -85.7938
 -85.7931
 -85.7918
 -85.7936
 -85.8066
 -85.8087
 -85.8082
 -85.8076
 -85.8195
 -85.8187
 -85.8184
 -85.8188
 -85.7992
 -85.7984
 -85.7981
 -85.7974
 -85.8293
 -85.8306
 -85.8304
 -85.83
 -85.8415
 -85.8434
 -85.8424
 -85.8425
 -85.8001
 -85.802
 -85.8001
 -85.8001
 -85.8233
 -85.8243
 -85.8236
 -85.8238
 -85.815
 -85.815
 -85.815
 -85.8144
 -85.7802
 -85.7812
 -85.7813
 -85.7802
 -85.8185
 -85.8183
 -85.8181
 -85.8193
 -85.8261
 -85.8269
 -85.8268
 -85.827
 -85.8382
 -85.8394
 -85.8387
 -85.8396
 -85.8141
 -85.8144
 -85.8147
 -85.8259
 -85.8257
 -85.8253
 -85.8258
 -85.8167
 -85.8166
 -85.8182
 -85.8172
 -85.8357
 -85.8346
 -85.8354
 -85.8352
 -85.8353
 -85.8365
 -85.8364
 -85.836
 -85.8465
 -85.8457
 -85.8463
 -85.8453
 -85.811
 -85.8112
 -85.812
 -85.811
 -85.85
 -85.8503
 -85.8507
 -85.8502
 -85.813
 -85.8141
 -85.8132
 -85.8127
 -85.8253
 -85.8267
 -85.8265
 -85.8273
 -85.8276
 -85.8264
 -85.8266
 -85.826
 -85.7784
 -85.7773
 -85.7783
 -85.7782
 -85.8158
 -85.815
 -85.8158
 -85.816
 -85.8243
 -85.8242
 -85.8253
 -85.8266
 -85.8235
 -85.824
 -85.824
 -85.8227
 -85.8526
 -85.8526
 -85.8518
 -85.8525
 -85.8129
 -85.8141
 -85.8147
 -85.8133
 -85.8149
 -85.8142
 -85.8153
 -85.8139
 -85.8383
 -85.8393
 -85.8384
 -85.8391
 -85.8096
 -85.8093
 -85.8086
 -85.8084
 -85.809
 -85.8087
 -85.8094
 -85.8086
 -85.8344
 -85.8329
 -85.8343
 -85.8336
 -85.8358
 -85.8357
 -85.8348
 -85.8358
 -85.8282
 -85.8283
 -85.8298
 -85.8294
 -85.814
 -85.8134
 -85.8323
 -85.8314
 -85.8329
 -85.8317
 -85.8146
 -85.8153
 -85.8147
 -85.8149
 -85.8212
 -85.8225
 -85.8229
 -85.8223
 -85.8478
 -85.8474
 -85.8469
 -85.8481
 -85.8214
 -85.8218
 -85.8224
 -85.8226
 -85.8402
 -85.8409
 -85.8414
 -85.8398
 -85.8114
 -85.8135
 -85.8128
 -85.8134
 -85.8193
 -85.8183
 -85.818
 -85.8187
 -85.8242
 -85.8262
 -85.8251
 -85.8255
 -85.811
 -85.8101
 -85.8096
 -85.8104
 -85.7895
 -85.7898
 -85.7892
 -85.7884
 -85.851
 -85.8509
 -85.8506
 -85.851
 -85.801
 -85.8007
 -85.8013
 -85.8005
 -85.83
 -85.8306
 -85.8294
 -85.8294
 -85.7893
 -85.7893
 -85.7903
 -85.7889
 -85.8318
 -85.8328
 -85.832
 -85.8319
 -85.8133
 -85.8131
 -85.8128
 -85.8129
 -85.8133
 -85.8136
 -85.8125
 -85.8131
 -85.8275
 -85.828
 -85.8266
 -85.8276
 -85.8435
 -85.8423
 -85.8432
 -85.8421
 -85.8185
 -85.8201
 -85.8198
 -85.82
 -85.8083
 -85.808
 -85.8084
 -85.8088
 -85.8429
 -85.8443
 -85.8436
 -85.8446
 -85.8123
 -85.8111
 -85.8128
 -85.8129
 -85.8186
 -85.8198
 -85.8194
 -85.8202
 -85.8378
 -85.8397
 -85.8393
 -85.8386
 -85.8268
 -85.828
 -85.8282
 -85.8282
 -85.8227
 -85.8219
 -85.8228
 -85.8233
 -85.8477
 -85.8484
 -85.8488
 -85.8491
 -85.8445
 -85.8448
 -85.8448
 -85.8443
 -85.8301
 -85.8302
 -85.8288
 -85.8295
 -85.8227
 -85.8234
 -85.8223
 -85.8246
 -85.8159
 -85.8164
 -85.8165
 -85.8182
 -85.8071
 -85.807
 -85.8062
 -85.8399
 -85.8406
 -85.8402
 -85.8412
 -85.7881
 -85.7872
 -85.7862
 -85.7863
 -85.8354
 -85.834
 -85.8347
 -85.8346
 -85.8116
 -85.8103
 -85.811
 -85.8111
 -85.8095
 -85.8086
 -85.8089
 -85.8088
 -85.8448
 -85.8437
 -85.8443
 -85.8457
 -85.8277
 -85.8269
 -85.8281
 -85.8272
 -85.823
 -85.8226
 -85.8145
 -85.8209
 -85.8222
 -85.8207
 -85.8215
 -85.7896
 -85.7906
 -85.8341
 -85.8346
 -85.8351
 -85.8041
 -85.8048
 -85.8031
 -85.8041
 -85.8344
 -85.8331
 -85.8335
 -85.8335
 -85.8185
 -85.8197
 -85.8194
 -85.8193
 -85.814
 -85.8157
 -85.8147
 -85.8148
 -85.8477
 -85.8477
 -85.8489
 -85.8481
 -85.8045
 -85.8056
 -85.8044
 -85.8057
 -85.8333
 -85.8335
 -85.8336
 -85.8343
 -85.8493
 -85.8495
 -85.8484
 -85.8485
 -85.8266
 -85.8254
 -85.8267
 -85.8258
 -85.8332
 -85.8317
 -85.8323
 -85.8322
 -85.8244
 -85.8255
 -85.8247
 -85.8229
 -85.8535
 -85.8523
 -85.8531
 -85.852
 -85.8526
 -85.8525
 -85.8521
 -85.8516
 -85.8517
 -85.8514
 -85.8512
 -85.8518
 -85.8213
 -85.8202
 -85.8213
 -85.8212
 -85.8301
 -85.8289
 -85.8293
 -85.8301
 -85.8221
 -85.8219
 -85.8211
 -85.8217
 -85.8201
 -85.8197
 -85.8214
 -85.8197
 -85.8359
 -85.8363
 -85.8365
 -85.8354
 -85.8432
 -85.8446
 -85.8442
 -85.8447
 -85.8427
 -85.8431
 -85.842
 -85.8435
 -85.8261
 -85.8268
 -85.8259
 -85.8266
 -85.8236
 -85.8235
 -85.8233
 -85.8227
 -85.813
 -85.8123
 -85.8127
 -85.8139
 -85.8386
 -85.8396
 -85.8395
 -85.8383
 -85.7994
 -85.7994
 -85.7983
 -85.8001
 -85.8411
 -85.8418
 -85.8409
 -85.8407
 -85.8289
 -85.8307
 -85.8288
 -85.8303
 -85.8279
 -85.8286
 -85.8281
 -85.8274
 -85.8049
 -85.8048
 -85.8041
 -85.8031
 -85.7747
 -85.7755
 -85.7744
 -85.7746
 -85.8168
 -85.8179
 -85.8168
 -85.8171
 -85.841
 -85.8397
 -85.8402
 -85.841
 -85.8096
 -85.8087
 -85.8094
 -85.81
 -85.8298
 -85.8304
 -85.8291
 -85.8306
 -85.8316
 -85.8325
 -85.8336
 -85.8331
 -85.8382
 -85.8387
 -85.8372
 -85.8378
 -85.7971
 -85.7961
 -85.7962
 -85.7971
 -85.7982
 -85.7982
 -85.7977
 -85.7976
 -85.8409
 -85.8425
 -85.8418
 -85.8418
 -85.8363
 -85.8346
 -85.8346
 -85.8357
 -85.8164
 -85.8166
 -85.8159
 -85.8161
 -85.8248
 -85.8243
 -85.8253
 -85.826
 -85.8287
 -85.8293
 -85.8289
 -85.8286
 -85.8155
 -85.8149
 -85.8165
 -85.8151
 -85.8335
 -85.8328
 -85.8329
 -85.8321
 -85.8563
 -85.8555
 -85.856
 -85.8562
 -85.8308
 -85.8321
 -85.832
 -85.8329
 -85.8251
 -85.8255
 -85.8246
 -85.8263
 -85.8251
 -85.8249
 -85.8239
 -85.8251
 -85.8289
 -85.8295
 -85.8289
 -85.8279
 -85.8505
 -85.8507
 -85.85
 -85.8505
 -85.8434
 -85.8425
 -85.8431
 -85.8328
 -85.8328
 -85.8336
 -85.8327
 -85.8083
 -85.8082
 -85.8091
 -85.8082
 -85.8199
 -85.82
 -85.819
 -85.8203
 -85.8429
 -85.8414
 -85.8414
 -85.8415
 -85.8131
 -85.8134
 -85.8137
 -85.8142
 -85.8181
 -85.8171
 -85.817
 -85.8183
 -85.8196
 -85.8191
 -85.8176
 -85.8188
 -85.8354
 -85.8347
 -85.8344
 -85.8343
 -85.829
 -85.828
 -85.8292
 -85.827
 -85.8329
 -85.8308
 -85.8316
 -85.8319
 -85.8104
 -85.8108
 -85.811
 -85.8105
 -85.8196
 -85.8204
 -85.8207
 -85.8196
 -85.8344
 -85.8336
 -85.8346
 -85.8353
 -85.8172
 -85.8178
 -85.8184
 -85.8167
 -85.8307
 -85.8317
 -85.8318
 -85.8311
 -85.8098
 -85.8095
 -85.8101
 -85.8094
 -85.8493
 -85.8495
 -85.8485
 -85.8493
 -85.8124
 -85.8115
 -85.8127
 -85.8132
 -85.8106
 -85.8086
 -85.8098
 -85.8098
 -85.8372
 -85.8372
 -85.838
 -85.8383
 -85.8126
 -85.8129
 -85.8131
 -85.813
 -85.8321
 -85.8317
 -85.8322
 -85.831
 -85.8038
 -85.8041
 -85.8025
 -85.8029
 -85.8279
 -85.8275
 -85.8278
 -85.8288
 -85.8467
 -85.848
 -85.8468
 -85.8476
 -85.8285
 -85.8269
 -85.8269
 -85.8279
 -85.8381
 -85.8387
 -85.8382
 -85.8381
 -85.8315
 -85.831
 -85.8313
 -85.8321
 -85.8308
 -85.8313
 -85.8314
 -85.8324
 -85.8504
 -85.8505
 -85.8509
 -85.8494
 -85.8103
 -85.8098
 -85.8092
 -85.8091
 -85.8112
 -85.8107
 -85.8097
 -85.8106
 -85.8446
 -85.8445
 -85.8439
 -85.8453
 -85.8474
 -85.8479
 -85.8472
 -85.8153
 -85.8149
 -85.8148
 -85.8155
 -85.8333
 -85.8345
 -85.8332
 -85.8331
 -85.8295
 -85.8299
 -85.8286
 -85.8301
 -85.8097
 -85.8107
 -85.8088
 -85.8097
 -85.8385
 -85.8393
 -85.839
 -85.8389
 -85.824
 -85.8226
 -85.8229
 -85.824
 -85.8279
 -85.8266
 -85.8268
 -85.8265
 -85.8395
 -85.8404
 -85.8404
 -85.8402
 -85.807
 -85.8067
 -85.8072
 -85.8076
 -85.8151
 -85.8137
 -85.8141
 -85.814
 -85.8516
 -85.8507
 -85.8515
 -85.8511
 -85.8107
 -85.8106
 -85.8109
 -85.8122
 -85.8076
 -85.8072
 -85.8074
 -85.8075
 -85.8247
 -85.8251
 -85.8245
 -85.8261
 -85.7904
 -85.7908
 -85.7898
 -85.7917
 -85.8269
 -85.8271
 -85.8265
 -85.827
 -85.8406
 -85.8402
 -85.8398
 -85.8396
 -85.8439
 -85.8432
 -85.8435
 -85.8047
 -85.8047
 -85.8054
 -85.8048
 -85.8128
 -85.814
 -85.8124
 -85.8136
 -85.81
 -85.8096
 -85.8088
 -85.8087
 -85.8146
 -85.8136
 -85.8143
 -85.814
 -85.8521
 -85.8526
 -85.853
 -85.8527
 -85.8062
 -85.8063
 -85.8059
 -85.8051
 -85.8124
 -85.8116
 -85.8123
 -85.8137
 -85.8434
 -85.8441
 -85.8434
 -85.8431
 -85.8184
 -85.8182
 -85.819
 -85.8136
 -85.8125
 -85.8136
 -85.8286
 -85.8281
 -85.827
 -85.7924
 -85.7941
 -85.7943
 -85.793
 -85.8274
 -85.8283
 -85.8278
 -85.8287
 -85.8266
 -85.8274
 -85.8257
 -85.8259
 -85.8447
 -85.8454
 -85.8444
 -85.8443
 -85.8478
 -85.8476
 -85.849
 -85.8476
 -85.8088
 -85.8076
 -85.8076
 -85.8098
 -85.8295
 -85.8307
 -85.8308
 -85.8302
 -85.8291
 -85.83
 -85.8305
 -85.8302
 -85.8231
 -85.8247
 -85.8239
 -85.825
 -85.8169
 -85.8173
 -85.8176
 -85.8159
 -85.8297
 -85.8284
 -85.8294
 -85.8297
 -85.8105
 -85.8108
 -85.8104
 -85.8111
 -85.8467
 -85.8464
 -85.8468
 -85.847
 -85.8149
 -85.8145
 -85.8151
 -85.8159
 -85.8437
 -85.8427
 -85.8433
 -85.8432
 -85.8489
 -85.8485
 -85.8477
 -85.8486
 -85.849
 -85.8488
 -85.8486
 -85.8484
 -85.8126
 -85.8119
 -85.8373
 -85.837
 -85.8363
 -85.8369
 -85.8101
 -85.8116
 -85.8109
 -85.8104
 -85.8398
 -85.8415
 -85.8411
 -85.8413
 -85.8433
 -85.8427
 -85.8439
 -85.8428
 -85.8153
 -85.8164
 -85.8164
 -85.8159
 -85.8294
 -85.8295
 -85.8304
 -85.8301
 -85.8145
 -85.8145
 -85.8155
 -85.8146
 -85.8207
 -85.8206
 -85.8208
 -85.8219
 -85.7818
 -85.7837
 -85.7813
 -85.783
 -85.846
 -85.8455
 -85.8469
 -85.8459
 -85.8151
 -85.8142
 -85.8154
 -85.8163
 -85.8047
 -85.8038
 -85.8038
 -85.805
 -85.8224
 -85.8218
 -85.823
 -85.8232
 -85.8044
 -85.8026
 -85.8021
 -85.8044
 -85.8219
 -85.8207
 -85.8201
 -85.8214
 -85.8368
 -85.8364
 -85.8376
 -85.8359
 -85.8239
 -85.8231
 -85.8231
 -85.8236
 -85.8449
 -85.8463
 -85.845
 -85.8225
 -85.8236
 -85.8224
 -85.8235
 -85.7817
 -85.781
 -85.781
 -85.7807
 -85.8528
 -85.853
 -85.8533
 -85.8528
 -85.8289
 -85.8286
 -85.8293
 -85.8283
 -85.8403
 -85.8397
 -85.8386
 -85.8399
 -85.8087
 -85.8097
 -85.8071
 -85.8082
 -85.8166
 -85.8176
 -85.8158
 -85.8171
 -85.8168
 -85.8186
 -85.8175
 -85.8186
 -85.8482
 -85.8476
 -85.8485
 -85.849
 -85.8186
 -85.8177
 -85.8169
 -85.8174
 -85.8518
 -85.8515
 -85.8521
 -85.8511
 -85.8358
 -85.8345
 -85.8346
 -85.8359
 -85.8107
 -85.811
 -85.8113
 -85.8107
 -85.7896
 -85.79
 -85.7912
 -85.7892
 -85.8209
 -85.8192
 -85.8202
 -85.8188
 -85.8246
 -85.8247
 -85.8257
 -85.8245
 -85.8374
 -85.8375
 -85.8368
 -85.836
 -85.7833
 -85.7818
 -85.7838
 -85.7831
 -85.8213
 -85.8205
 -85.8219
 -85.8214
 -85.8508
 -85.8502
 -85.8499
 -85.8501
 -85.8423
 -85.8431
 -85.8428
 -85.8424
 -85.8419
 -85.842
 -85.8428
 -85.8416
 -85.8406
 -85.8398
 -85.8394
 -85.8399
 -85.8422
 -85.8436
 -85.8429
 -85.8427
 -85.8321
 -85.8324
 -85.8322
 -85.8323
 -85.8119
 -85.814
 -85.8152
 -85.8152
 -85.8147
 -85.8353
 -85.834
 -85.8345
 -85.8342
 -85.8349
 -85.8352
 -85.8337
 -85.834
 -85.8015
 -85.802
 -85.802
 -85.8015
 -85.8456
 -85.8456
 -85.8451
 -85.8456
 -85.8399
 -85.8408
 -85.842
 -85.8412
 -85.8106
 -85.8121
 -85.8119
 -85.8121
 -85.8121
 -85.8118
 -85.8139
 -85.8146
 -85.8143
 -85.8152
 -85.8111
 -85.8098
 -85.8081
 -85.809
 -85.8347
 -85.8359
 -85.8355
 -85.8347
 -85.8517
 -85.8518
 -85.8515
 -85.8519
 -85.8254
 -85.8247
 -85.8254
 -85.8242
 -85.8481
 -85.8466
 -85.846
 -85.846
 -85.8217
 -85.8216
 -85.821
 -85.8221
 -85.8343
 -85.8335
 -85.8328
 -85.8329
 -85.8094
 -85.8091
 -85.809
 -85.8077
 -85.8299
 -85.831
 -85.8293
 -85.8302
 -85.8317
 -85.8332
 -85.8338
 -85.832
 -85.8123
 -85.8118
 -85.811
 -85.8114
 -85.8182
 -85.8175
 -85.8196
 -85.8186
 -85.8221
 -85.822
 -85.8209
 -85.8203
 -85.8298
 -85.8305
 -85.83
 -85.8304
 -85.8007
 -85.801
 -85.8014
 -85.8026
 -85.8323
 -85.8312
 -85.8319
 -85.8326
 -85.8183
 -85.817
 -85.8186
 -85.8194
 -85.8369
 -85.8366
 -85.8369
 -85.836
 -85.8443
 -85.8434
 -85.8441
 -85.8436
 -85.8494
 -85.849
 -85.8488
 -85.8491
 -85.8476
 -85.8482
 -85.8468
 -85.8526
 -85.8527
 -85.8532
 -85.8534
 -85.8417
 -85.8408
 -85.8397
 -85.8409
 -85.8242
 -85.824
 -85.8248
 -85.8247
 -85.8483
 -85.8476
 -85.847
 -85.8482
 -85.8274
 -85.8276
 -85.8269
 -85.8267
 -85.8302
 -85.8308
 -85.8304
 -85.8483
 -85.849
 -85.8486
 -85.8484
 -85.8463
 -85.8455
 -85.8458
 -85.8285
 -85.828
 -85.8291
 -85.8294
 -85.8177
 -85.8186
 -85.8177
 -85.8194
 -85.8359
 -85.8351
 -85.8348
 -85.8346
 -85.8487
 -85.8493
 -85.8489
 -85.8485
 -85.8129
 -85.8127
 -85.8134
 -85.8122
 -85.824
 -85.8237
 -85.8228
 -85.8227
 -85.8255
 -85.827
 -85.8252
 -85.8256
 -85.8369
 -85.8358
 -85.8366
 -85.8368
 -85.8134
 -85.8125
 -85.8142
 -85.8127
 -85.8089
 -85.808
 -85.8091
 -85.8086
 -85.8256
 -85.8256
 -85.8254
 -85.8266
 -85.8512
 -85.8506
 -85.8505
 -85.8507
 -85.8156
 -85.8143
 -85.8158
 -85.8151
 -85.8099
 -85.8108
 -85.8096
 -85.8108
 -85.8323
 -85.8307
 -85.8323
 -85.8321
 -85.8143
 -85.8147
 -85.814
 -85.8102
 -85.811
 -85.8107
 -85.8305
 -85.8299
 -85.8315
 -85.8303
 -85.8106
 -85.8102
 -85.8095
 -85.8106
 -85.8111
 -85.8099
 -85.8108
 -85.8109
 -85.8325
 -85.8329
 -85.8322
 -85.8107
 -85.8105
 -85.8437
 -85.8439
 -85.8455
 -85.8456
 -85.8358
 -85.8374
 -85.8374
 -85.8368
 -85.8006
 -85.8018
 -85.7997
 -85.8021
 -85.7925
 -85.7927
 -85.7915
 -85.7928
 -85.814
 -85.812
 -85.8133
 -85.8133
 -85.8471
 -85.847
 -85.8475
 -85.8471
 -85.8343
 -85.8335
 -85.8329
 -85.8335
 -85.807
 -85.8069
 -85.8067
 -85.8066
 -85.8147
 -85.8149
 -85.8154
 -85.8164
 -85.8153
 -85.8155
 -85.8152
 -85.8124
 -85.8133
 -85.8133
 -85.8134
 -85.8133
 -85.8125
 -85.8136
 -85.8139
 -85.8097
 -85.8086
 -85.8095
 -85.8085
 -85.8506
 -85.8511
 -85.8507
 -85.8507
 -85.848
 -85.8489
 -85.8477
 -85.8254
 -85.8246
 -85.8255
 -85.8241
 -85.8135
 -85.812
 -85.8137
 -85.8132
 -85.853
 -85.8535
 -85.8101
 -85.8094
 -85.8096
 -85.809
 -85.828
 -85.8301
 -85.8288
 -85.8295
 -85.833
 -85.8326
 -85.8106
 -85.8105
 -85.8117
 -85.8106
 -85.849
 -85.8495
 -85.8487
 -85.85
 -85.8519
 -85.8514
 -85.8515
 -85.8526
 -85.8224
 -85.823
 -85.8224
 -85.8003
 -85.8013
 -85.8007
 -85.8117
 -85.8132
 -85.8116
 -85.812
 -85.8391
 -85.8381
 -85.8398
 -85.8381
 -85.8167
 -85.8156
 -85.8157
 -85.8147
 -85.8159
 -85.8151
 -85.8163
 -85.8149
 -85.8348
 -85.8345
 -85.8352
 -85.8364
 -85.7842
 -85.7847
 -85.7837
 -85.7827
 -85.8378
 -85.8382
 -85.8391
 -85.8388
 -85.8388
 -85.8387
 -85.8395
 -85.84
 -85.8087
 -85.8088
 -85.8074
 -85.8084
 -85.8462
 -85.8467
 -85.8468
 -85.8459
 -85.7817
 -85.7801
 -85.7804
 -85.7793
 -85.8493
 -85.8476
 -85.8477
 -85.8474
 -85.8427
 -85.8419
 -85.8148
 -85.8156
 -85.8153
 -85.8162
 -85.8076
 -85.8066
 -85.8072
 -85.808
 -85.8457
 -85.8464
 -85.8463
 -85.846
 -85.8176
 -85.818
 -85.818
 -85.8172
 -85.8509
 -85.8503
 -85.8507
 -85.8139
 -85.8128
 -85.8124
 -85.8062
 -85.8074
 -85.8077
 -85.8495
 -85.8499
 -85.8496
 -85.8493
 -85.8144
 -85.8138
 -85.8138
 -85.8138
 -85.8461
 -85.8462
 -85.8064
 -85.8071
 -85.8062
 -85.8066
 -85.8267
 -85.8278
 -85.8279
 -85.8268
 -85.8159
 -85.8152
 -85.8201
 -85.8224
 -85.8221
 -85.8207
 -85.8148
 -85.8147
 -85.8148
 -85.8136
 -85.8515
 -85.8525
 -85.8513
 -85.8517
 -85.8083
 -85.8078
 -85.808
 -85.8428
 -85.7825
 -85.7823
 -85.7824
 -85.7818
 -85.8454
 -85.8457
 -85.8462
 -85.8444
 -85.8159
 -85.816
 -85.8177
 -85.8174
 -85.8373
 -85.8369
 -85.837
 -85.8372
 -85.8147
 -85.8139
 -85.8134
 -85.8145
 -85.8345
 -85.8015
 -85.8012
 -85.8012
 -85.8016
 -85.8343
 -85.8343
 -85.8339
 -85.833
 -85.8419
 -85.8424
 -85.8428
 -85.8411
 -85.8419
 -85.8408
 -85.8422
 -85.8459
 -85.8468
 -85.8464
 -85.8463
 -85.8088
 -85.8091
 -85.8104
 -85.8097
 -85.8445
 -85.8445
 -85.8444
 -85.8454
 -85.8046
 -85.8044
 -85.8047
 -85.8034
 -85.8434
 -85.844
 -85.8444
 -85.8445
 -85.8248
 -85.8241
 -85.8239
 -85.8236
 -85.837
 -85.8377
 -85.838
 -85.8383
 -85.8285
 -85.8279
 -85.8275
 -85.8271
 -85.8493
 -85.8479
 -85.8283
 -85.8271
 -85.8272
 -85.8281
 -85.8013
 -85.8008
 -85.8023
 -85.8008
 -85.804
 -85.8035
 -85.8055
 -85.8038
 -85.8284
 -85.8294
 -85.8296
 -85.8297
 -85.8387
 -85.8387
 -85.8384
 -85.8399
 -85.8403
 -85.8394
 -85.8399
 -85.8407
 -85.8482
 -85.847
 -85.8474
 -85.8467
 -85.8406
 -85.8419
 -85.8412
 -85.8405
 -85.804
 -85.8041
 -85.8049
 -85.8033
 -85.81
 -85.8101
 -85.8098
 -85.8116
 -85.8533
 -85.8528
 -85.8526
 -85.8527
 -85.8305
 -85.831
 -85.8307
 -85.8324
 -85.8116
 -85.813
 -85.8116
 -85.8128
 -85.7872
 -85.7869
 -85.7887
 -85.7865
 -85.8455
 -85.8461
 -85.845
 -85.847
 -85.813
 -85.8131
 -85.8134
 -85.8142
 -85.8206
 -85.8217
 -85.8199
 -85.8208
 -85.8043
 -85.8038
 -85.8041
 -85.8049
 -85.8338
 -85.8332
 -85.8338
 -85.8339
 -85.8481
 -85.8483
 -85.8479
 -85.8482
 -85.8315
 -85.8301
 -85.8305
 -85.8302
 -85.8224
 -85.8225
 -85.8238
 -85.8232
 -85.8021
 -85.8027
 -85.8033
 -85.8014
 -85.8479
 -85.8357
 -85.8365
 -85.8352
 -85.8363
 -85.8204
 -85.8198
 -85.8187
 -85.8191
 -85.8383
 -85.839
 -85.8389
 -85.8397
 -85.8116
 -85.8109
 -85.8111
 -85.8123
 -85.8336
 -85.8343
 -85.8329
 -85.8008
 -85.8024
 -85.8011
 -85.8009
 -85.843
 -85.8411
 -85.8423
 -85.8417
 -85.8086
 -85.8084
 -85.8091
 -85.8086
 -85.8552
 -85.8549
 -85.8551
 -85.8555
 -85.8132
 -85.8134
 -85.8136
 -85.8134
 -85.7913
 -85.7942
 -85.7939
 -85.793
 -85.7997
 -85.7996
 -85.8008
 -85.8005
 -85.8532
 -85.8528
 -85.8525
 -85.8522
 -85.8498
 -85.8496
 -85.8502
 -85.8503
 -85.8254
 -85.8265
 -85.8261
 -85.8265
 -85.8142
 -85.814
 -85.8148
 -85.8286
 -85.8286
 -85.827
 -85.8276
 -85.8355
 -85.835
 -85.8363
 -85.8363
 -85.8282
 -85.8304
 -85.8296
 -85.8294
 -85.8265
 -85.827
 -85.8287
 -85.8277
 -85.8524
 -85.8517
 -85.8518
 -85.8515
 -85.8106
 -85.8103
 -85.8116
 -85.8106
 -85.7999
 -85.7978
 -85.798
 -85.8384
 -85.8375
 -85.838
 -85.8376
 -85.8453
 -85.8462
 -85.8455
 -85.8453
 -85.8123
 -85.812
 -85.8126
 -85.8109
 -85.8111
 -85.8116
 -85.8102
 -85.8468
 -85.8462
 -85.8471
 -85.8457
 -85.8238
 -85.8236
 -85.8246
 -85.8237
 -85.8112
 -85.81
 -85.811
 -85.811
 -85.8204
 -85.8197
 -85.8198
 -85.8206
 -85.8431
 -85.843
 -85.8421
 -85.843
 -85.8118
 -85.8134
 -85.811
 -85.813
 -85.8215
 -85.8197
 -85.8203
 -85.8209
 -85.816
 -85.817
 -85.8162
 -85.8499
 -85.8497
 -85.8492
 -85.8493
 -85.8241
 -85.8243
 -85.8234
 -85.8247
 -85.8533
 -85.8531
 -85.8542
 -85.8278
 -85.8283
 -85.8282
 -85.8277
 -85.8021
 -85.8032
 -85.8015
 -85.802
 -85.8316
 -85.8319
 -85.8327
 -85.8336
 -85.826
 -85.8275
 -85.8256
 -85.8128
 -85.8132
 -85.8142
 -85.8134
 -85.8081
 -85.8084
 -85.8078
 -85.8086
 -85.8127
 -85.8132
 -85.814
 -85.8125
 -85.7903
 -85.7905
 -85.7921
 -85.7922
 -85.8183
 -85.818
 -85.8174
 -85.8174
 -85.816
 -85.8156
 -85.8173
 -85.8153
 -85.8472
 -85.846
 -85.8462
 -85.8477
 -85.8066
 -85.8081
 -85.8076
 -85.8073
 -85.8347
 -85.8342
 -85.835
 -85.8354
 -85.8506
 -85.8507
 -85.8502
 -85.8497
 -85.8509
 -85.8498
 -85.8504
 -85.8508
 -85.8421
 -85.8428
 -85.8421
 -85.8426
 -85.8515
 -85.8524
 -85.8524
 -85.8509
 -85.8477
 -85.8479
 -85.8478
 -85.8534
 -85.8521
 -85.8525
 -85.8525
 -85.8043
 -85.8037
 -85.8042
 -85.8033
 -85.8201
 -85.819
 -85.8185
 -85.8192
 -85.8163
 -85.8177
 -85.8167
 -85.8178
 -85.8183
 -85.8177
 -85.8175
 -85.8173
 -85.849
 -85.8482
 -85.8488
 -85.8491
 -85.8201
 -85.8202
 -85.8191
 -85.8186
 -85.8129
 -85.8115
 -85.8115
 -85.8125
 -85.8362
 -85.8359
 -85.8371
 -85.8356
 -85.8138
 -85.8151
 -85.8138
 -85.8145
 -85.839
 -85.8381
 -85.838
 -85.8283
 -85.8295
 -85.8295
 -85.8463
 -85.8453
 -85.8456
 -85.8457
 -85.8204
 -85.8209
 -85.82
 -85.82
 -85.8339
 -85.8329
 -85.8332
 -85.834
 -85.8177
 -85.8162
 -85.817
 -85.818
 -85.8536
 -85.8532
 -85.8508
 -85.8504
 -85.85
 -85.851
 -85.8027
 -85.8024
 -85.8025
 -85.8018
 -85.8344
 -85.8353
 -85.8355
 -85.8362
 -85.8126
 -85.8141
 -85.813
 -85.8121
 -85.7773
 -85.775
 -85.777
 -85.7763
 -85.8138
 -85.8134
 -85.8126
 -85.8133
 -85.8384
 -85.8373
 -85.8382
 -85.8068
 -85.8066
 -85.808
 -85.808
 -85.8501
 -85.8492
 -85.8504
 -85.8496
 -85.8141
 -85.8145
 -85.8141
 -85.8146
 -85.8337
 -85.8347
 -85.8341
 -85.8338
 -85.8027
 -85.8033
 -85.8019
 -85.8028
 -85.7864
 -85.7862
 -85.787
 -85.7875
 -85.8118
 -85.8126
 -85.8117
 -85.8114
 -85.8189
 -85.8185
 -85.8194
 -85.8295
 -85.8278
 -85.8298
 -85.829
 -85.809
 -85.809
 -85.8077
 -85.8391
 -85.8387
 -85.8393
 -85.84
 -85.8422
 -85.8438
 -85.8423
 -85.8436
 -85.8374
 -85.8364
 -85.8373
 -85.8374
 -85.8494
 -85.8475
 -85.8482
 -85.8485
 -85.8413
 -85.8404
 -85.8409
 -85.8156
 -85.8163
 -85.8162
 -85.8168
 -85.8399
 -85.839
 -85.8358
 -85.8346
 -85.8342
 -85.8353
 -85.8382
 -85.8378
 -85.8379
 -85.8386
 -85.8121
 -85.8127
 -85.8124
 -85.8113
 -85.813
 -85.8139
 -85.813
 -85.8139
 -85.7778
 -85.7786
 -85.7789
 -85.7783
 -85.8129
 -85.8137
 -85.8129
 -85.8159
 -85.8154
 -85.8151
 -85.8155
 -85.8256
 -85.8255
 -85.8249
 -85.8247
 -85.816
 -85.8172
 -85.8173
 -85.8165
 -85.8029
 -85.8036
 -85.8028
 -85.8026
 -85.8424
 -85.8412
 -85.8424
 -85.8414
 -85.8249
 -85.8258
 -85.8248
 -85.8241
 -85.849
 -85.8491
 -85.8487
 -85.8493
 -85.8307
 -85.8296
 -85.8306
 -85.83
 -85.8483
 -85.8487
 -85.8484
 -85.7888
 -85.7901
 -85.7895
 -85.7897
 -85.8377
 -85.8392
 -85.8378
 -85.838
 -85.822
 -85.8209
 -85.8222
 -85.8216
 -85.8102
 -85.8094
 -85.8173
 -85.8175
 -85.8181
 -85.8178
 -85.8214
 -85.8201
 -85.8205
 -85.8467
 -85.847
 -85.8463
 -85.8469
 -85.8471
 -85.8466
 -85.8458
 -85.8463
 -85.8104
 -85.81
 -85.8106
 -85.8102
 -85.824
 -85.8235
 -85.814
 -85.8152
 -85.8145
 -85.8134
 -85.8402
 -85.8396
 -85.8411
 -85.8411
 -85.8018
 -85.8017
 -85.8016
 -85.8021
 -85.8117
 -85.8121
 -85.8112
 -85.8111
 -85.8139
 -85.815
 -85.8155
 -85.815
 -85.8276
 -85.8273
 -85.8275
 -85.8291
 -85.8393
 -85.8391
 -85.8384
 -85.8385
 -85.8411
 -85.8402
 -85.8394
 -85.8405
 -85.7829
 -85.7826
 -85.7822
 -85.7817
 -85.8072
 -85.8082
 -85.8086
 -85.8297
 -85.8279
 -85.8289
 -85.8311
 -85.8322
 -85.8311
 -85.8323
 -85.8484
 -85.849
 -85.8485
 -85.8493
 -85.8238
 -85.8133
 -85.8132
 -85.8119
 -85.8123
 -85.8346
 -85.8339
 -85.8329
 -85.8335
 -85.842
 -85.8409
 -85.8411
 -85.8422
 -85.8455
 -85.8457
 -85.8104
 -85.81
 -85.8095
 -85.8094
 -85.8261
 -85.827
 -85.8266
 -85.8273
 -85.8074
 -85.8071
 -85.8074
 -85.8078
 -85.8314
 -85.8187
 -85.8179
 -85.8199
 -85.8204
 -85.8165
 -85.8173
 -85.8177
 -85.8171
 -85.8488
 -85.8476
 -85.8503
 -85.8509
 -85.851
 -85.8506
 -85.7949
 -85.7942
 -85.7945
 -85.7951
 -85.8408
 -85.841
 -85.8398
 -85.8415
 -85.8315
 -85.8301
 -85.8305
 -85.8317
 -85.7853
 -85.7858
 -85.7858
 -85.7849
 -85.8256
 -85.8257
 -85.8262
 -85.825
 -85.8248
 -85.8235
 -85.8228
 -85.823
 -85.8094
 -85.8081
 -85.8096
 -85.809
 -85.8529
 -85.8534
 -85.8536
 -85.8536
 -85.8233
 -85.8221
 -85.8223
 -85.8149
 -85.8162
 -85.8161
 -85.815
 -85.8511
 -85.8523
 -85.8515
 -85.8517
 -85.815
 -85.8142
 -85.8132
 -85.8154
 -85.8216
 -85.8225
 -85.8435
 -85.8436
 -85.8444
 -85.8427
 -85.8296
 -85.8296
 -85.831
 -85.8307
 -85.8499
 -85.8493
 -85.85
 -85.8497
 -85.8229
 -85.8247
 -85.8122
 -85.8126
 -85.813
 -85.8129
 -85.8151
 -85.8151
 -85.8158
 -85.8162
 -85.8447
 -85.8447
 -85.8436
 -85.8439
 -85.8419
 -85.8415
 -85.8422
 -85.8423
 -85.8402
 -85.8388
 -85.8402
 -85.8396
 -85.816
 -85.8175
 -85.8169
 -85.816
 -85.7951
 -85.7943
 -85.7948
 -85.7951
 -85.8512
 -85.852
 -85.8512
 -85.8516
 -85.8088
 -85.809
 -85.8092
 -85.8099
 -85.8286
 -85.8293
 -85.8298
 -85.8286
 -85.8177
 -85.8196
 -85.8183
 -85.819
 -85.8283
 -85.827
 -85.8281
 -85.8336
 -85.8349
 -85.8336
 -85.8349
 -85.8256
 -85.8266
 -85.8259
 -85.8251
 -85.8378
 -85.8382
 -85.839
 -85.8375
 -85.8376
 -85.8374
 -85.8378
 -85.8362
 -85.785
 -85.7871
 -85.7852
 -85.8029
 -85.8043
 -85.8047
 -85.8042
 -85.8281
 -85.8273
 -85.8276
 -85.8276
 -85.844
 -85.8448
 -85.8442
 -85.8451
 -85.8126
 -85.8112
 -85.8126
 -85.8144
 -85.815
 -85.815
 -85.8322
 -85.8317
 -85.8325
 -85.8326
 -85.8278
 -85.8287
 -85.8292
 -85.8293
 -85.8559
 -85.8558
 -85.8555
 -85.856
 -85.7997
 -85.8001
 -85.7993
 -85.7976
 -85.8395
 -85.8401
 -85.8194
 -85.8208
 -85.8207
 -85.8197
 -85.8369
 -85.8375
 -85.8374
 -85.8377
 -85.8306
 -85.8309
 -85.8317
 -85.831
 -85.8211
 -85.821
 -85.8221
 -85.8202
 -85.8357
 -85.8367
 -85.8362
 -85.8365
 -85.8105
 -85.8109
 -85.8109
 -85.8116
 -85.8064
 -85.8055
 -85.8065
 -85.806
 -85.8427
 -85.8431
 -85.8441
 -85.8452
 -85.8278
 -85.8285
 -85.8294
 -85.7922
 -85.7918
 -85.7927
 -85.8453
 -85.8459
 -85.8461
 -85.8463
 -85.8469
 -85.8466
 -85.8461
 -85.8459
 -85.8257
 -85.826
 -85.8264
 -85.8269
 -85.8486
 -85.8492
 -85.8491
 -85.849
 -85.8496
 -85.8506
 -85.8498
 -85.8508
 -85.8211
 -85.8216
 -85.8225
 -85.8214
 -85.8411
 -85.8416
 -85.8421
 -85.842
 -85.8554
 -85.8556
 -85.8551
 -85.8558
 -85.8409
 -85.8409
 -85.8403
 -85.8417
 -85.8289
 -85.8275
 -85.8281
 -85.8269
 -85.8445
 -85.8447
 -85.844
 -85.8438
 -85.8376
 -85.8373
 -85.8381
 -85.8325
 -85.8335
 -85.7962
 -85.7967
 -85.7959
 -85.7955
 -85.8318
 -85.833
 -85.8326
 -85.8326
 -85.7971
 -85.7974
 -85.7976
 -85.7977
 -85.797
 -85.7966
 -85.7984
 -85.7984
 -85.8298
 -85.8305
 -85.8304
 -85.8295
 -85.8192
 -85.8193
 -85.8183
 -85.8196
 -85.8339
 -85.8351
 -85.8347
 -85.8346
 -85.827
 -85.8261
 -85.8048
 -85.8042
 -85.8045
 -85.8053
 -85.8512
 -85.8516
 -85.8519
 -85.8515
 -85.8197
 -85.819
 -85.8209
 -85.82
 -85.8443
 -85.8439
 -85.8432
 -85.8439
 -85.8049
 -85.8038
 -85.8048
 -85.8043
 -85.8473
 -85.8484
 -85.8481
 -85.8483
 -85.832
 -85.8308
 -85.8319
 -85.8319
 -85.8132
 -85.8119
 -85.8109
 -85.8117
 -85.8552
 -85.855
 -85.855
 -85.8546
 -85.8167
 -85.8178
 -85.8169
 -85.8167
 -85.821
 -85.8194
 -85.8205
 -85.8196
 -85.8519
 -85.852
 -85.8513
 -85.8522
 -85.8256
 -85.8239
 -85.8245
 -85.8245
 -85.845
 -85.8457
 -85.8452
 -85.8449
 -85.844
 -85.8432
 -85.8435
 -85.822
 -85.8201
 -85.8208
 -85.8208
 -85.844
 -85.8449
 -85.8443
 -85.8446
 -85.8097
 -85.8107
 -85.8106
 -85.8096
 -85.8467
 -85.8473
 -85.8472
 -85.8469
 -85.8462
 -85.8459
 -85.8464
 -85.846
 -85.8112
 -85.8108
 -85.8128
 -85.8118
 -85.8125
 -85.8122
 -85.8132
 -85.8117
 -85.7722
 -85.7725
 -85.7715
 -85.7718
 -85.84
 -85.8389
 -85.839
 -85.7974
 -85.799
 -85.7993
 -85.7983
 -85.8502
 -85.8494
 -85.8496
 -85.8498
 -85.8103
 -85.8448
 -85.8437
 -85.8439
 -85.8446
 -85.8449
 -85.8439
 -85.8441
 -85.7822
 -85.781
 -85.7815
 -85.782
 -85.7797
 -85.78
 -85.7796
 -85.7792
 -85.8494
 -85.8486
 -85.8492
 -85.8499
 -85.8124
 -85.812
 -85.8129
 -85.8117
 -85.8372
 -85.8368
 -85.8379
 -85.8175
 -85.8166
 -85.8175
 -85.8161
 -85.8221
 -85.8222
 -85.822
 -85.8444
 -85.8441
 -85.8454
 -85.8316
 -85.8327
 -85.8327
 -85.8318
 -85.8181
 -85.8167
 -85.8168
 -85.8177
 -85.8116
 -85.8121
 -85.8115
 -85.812
 -85.8373
 -85.838
 -85.8381
 -85.8034
 -85.8043
 -85.8023
 -85.8021
 -85.8116
 -85.8136
 -85.812
 -85.8207
 -85.8228
 -85.8222
 -85.8216
 -85.8088
 -85.8099
 -85.8101
 -85.8096
 -85.8118
 -85.8131
 -85.8134
 -85.813
 -85.845
 -85.8443
 -85.8444
 -85.8443
 -85.8235
 -85.8226
 -85.8232
 -85.8239
 -85.815
 -85.8151
 -85.8286
 -85.8279
 -85.8283
 -85.8272
 -85.8479
 -85.8505
 -85.8508
 -85.8507
 -85.8505
 -85.7704
 -85.7702
 -85.77
 -85.7705
 -85.8425
 -85.8436
 -85.8429
 -85.8533
 -85.8531
 -85.8529
 -85.8532
 -85.8404
 -85.8391
 -85.8396
 -85.8392
 -85.8111
 -85.8115
 -85.8121
 -85.8111
 -85.8225
 -85.8217
 -85.8214
 -85.8212
 -85.8539
 -85.8539
 -85.8537
 -85.8535
 -85.84
 -85.8392
 -85.8386
 -85.8394
 -85.8027
 -85.8017
 -85.8016
 -85.8035
 -85.8209
 -85.8209
 -85.8212
 -85.8193
 -85.8196
 -85.8202
 -85.8208
 -85.8198
 -85.7704
 -85.7702
 -85.7702
 -85.7705
 -85.8095
 -85.8093
 -85.8091
 -85.81
 -85.8404
 -85.8417
 -85.8406
 -85.8411
 -85.8324
 -85.8323
 -85.8335
 -85.832
 -85.8239
 -85.8246
 -85.8257
 -85.8246
 -85.8384
 -85.8396
 -85.8391
 -85.8392
 -85.8326
 -85.8328
 -85.8337
 -85.8326
 -85.8388
 -85.8386
 -85.838
 -85.8398
 -85.8552
 -85.8543
 -85.8546
 -85.8554
 -85.8421
 -85.8415
 -85.8413
 -85.8398
 -85.8377
 -85.8368
 -85.8363
 -85.8375
 -85.8364
 -85.8286
 -85.8285
 -85.8277
 -85.8297
 -85.8508
 -85.8505
 -85.8503
 -85.8503
 -85.8236
 -85.8228
 -85.8239
 -85.8235
 -85.8318
 -85.8323
 -85.8328
 -85.831
 -85.8267
 -85.8254
 -85.8263
 -85.8274
 -85.8178
 -85.816
 -85.8175
 -85.8163
 -85.7891
 -85.7897
 -85.7915
 -85.7892
 -85.8558
 -85.855
 -85.8356
 -85.8349
 -85.8349
 -85.775
 -85.775
 -85.775
 -85.8137
 -85.8128
 -85.8133
 -85.8123
 -85.7965
 -85.7969
 -85.7949
 -85.7946
 -85.8073
 -85.8066
 -85.8076
 -85.8058
 -85.8506
 -85.8493
 -85.85
 -85.85
 -85.8292
 -85.8279
 -85.8283
 -85.8277
 -85.8368
 -85.8381
 -85.8379
 -85.839
 -85.8325
 -85.8326
 -85.8315
 -85.831
 -85.8392
 -85.8396
 -85.8387
 -85.8389
 -85.8249
 -85.8248
 -85.8446
 -85.8423
 -85.8446
 -85.8427
 -85.8393
 -85.8386
 -85.838
 -85.8398
 -85.8133
 -85.812
 -85.8135
 -85.8122
 -85.8137
 -85.814
 -85.814
 -85.8142
 -85.8312
 -85.8313
 -85.8309
 -85.8317
 -85.8293
 -85.8298
 -85.8306
 -85.8313
 -85.8076
 -85.806
 -85.8058
 -85.8077
 -85.838
 -85.8374
 -85.8371
 -85.8368
 -85.8544
 -85.854
 -85.8543
 -85.8541
 -85.8459
 -85.8453
 -85.8455
 -85.8451
 -85.8553
 -85.8556
 -85.8551
 -85.8557
 -85.8473
 -85.8481
 -85.8478
 -85.8479
 -85.8281
 -85.8296
 -85.8281
 -85.8285
 -85.8377
 -85.8368
 -85.8256
 -85.827
 -85.8253
 -85.8262
 -85.8135
 -85.8144
 -85.8144
 -85.8148
 -85.8419
 -85.843
 -85.843
 -85.8421
 -85.8251
 -85.8246
 -85.8252
 -85.8239
 -85.8212
 -85.8203
 -85.8199
 -85.8205
 -85.8112
 -85.8114
 -85.812
 -85.8127
 -85.8152
 -85.8148
 -85.8144
 -85.8162
 -85.8112
 -85.8119
 -85.8123
 -85.8116
 -85.7913
 -85.7917
 -85.7908
 -85.791
 -85.8407
 -85.8411
 -85.8399
 -85.8408
 -85.8362
 -85.8365
 -85.7933
 -85.7942
 -85.794
 -85.7925
 -85.8172
 -85.8175
 -85.835
 -85.8342
 -85.835
 -85.8459
 -85.8459
 -85.8094
 -85.8093
 -85.8089
 -85.81
 -85.7931
 -85.794
 -85.794
 -85.7942
 -85.8066
 -85.8071
 -85.8079
 -85.8082
 -85.8169
 -85.8176
 -85.818
 -85.8182
 -85.8329
 -85.8316
 -85.8315
 -85.8317
 -85.8363
 -85.8358
 -85.8357
 -85.8354
 -85.8164
 -85.8177
 -85.8177
 -85.8174
 -85.8319
 -85.8318
 -85.8323
 -85.8306
 -85.8273
 -85.8264
 -85.8262
 -85.8268
 -85.8293
 -85.8302
 -85.8308
 -85.8302
 -85.8301
 -85.8287
 -85.8303
 -85.8254
 -85.8247
 -85.8264
 -85.8257
 -85.8188
 -85.8193
 -85.818
 -85.8185
 -85.8123
 -85.8133
 -85.8118
 -85.8131
 -85.8504
 -85.8502
 -85.8507
 -85.8511
 -85.8233
 -85.8232
 -85.8244
 -85.8244
 -85.806
 -85.8059
 -85.8045
 -85.8056
 -85.8028
 -85.8028
 -85.8025
 -85.8021
 -85.808
 -85.8073
 -85.8074
 -85.8077
 -85.811
 -85.811
 -85.8123
 -85.8125
 -85.8121
 -85.8115
 -85.8111
 -85.8117
 -85.8494
 -85.8499
 -85.8498
 -85.8499
 -85.8216
 -85.8216
 -85.8213
 -85.8225
 -85.84
 -85.8405
 -85.8398
 -85.8394
 -85.8122
 -85.8135
 -85.8117
 -85.813
 -85.8512
 -85.8517
 -85.8515
 -85.8522
 -85.8524
 -85.8523
 -85.8529
 -85.8385
 -85.8363
 -85.8371
 -85.8372
 -85.8147
 -85.8152
 -85.814
 -85.8148
 -85.8542
 -85.8533
 -85.8535
 -85.8204
 -85.8194
 -85.8201
 -85.8184
 -85.8471
 -85.8473
 -85.8457
 -85.846
 -85.8469
 -85.8458
 -85.8184
 -85.8175
 -85.8179
 -85.8033
 -85.8037
 -85.8023
 -85.8029
 -85.8117
 -85.8108
 -85.812
 -85.8122
 -85.8273
 -85.8286
 -85.8271
 -85.8513
 -85.8499
 -85.8502
 -85.839
 -85.8379
 -85.8374
 -85.8381
 -85.8517
 -85.8517
 -85.8506
 -85.8525
 -85.822
 -85.8232
 -85.8238
 -85.8228
 -85.8469
 -85.8471
 -85.8477
 -85.8462
 -85.8278
 -85.8281
 -85.8272
 -85.8268
 -85.8155
 -85.8145
 -85.8151
 -85.8535
 -85.8528
 -85.8531
 -85.8541
 -85.8364
 -85.8322
 -85.8335
 -85.8332
 -85.8325
 -85.8335
 -85.8335
 -85.8326
 -85.8146
 -85.814
 -85.8139
 -85.8139
 -85.8138
 -85.8152
 -85.8229
 -85.8216
 -85.8214
 -85.8211
 -85.8213
 -85.8227
 -85.8215
 -85.8223
 -85.8382
 -85.8544
 -85.8534
 -85.8532
 -85.8539
 -85.7851
 -85.7836
 -85.7847
 -85.7847
 -85.8178
 -85.8169
 -85.8148
 -85.8144
 -85.8149
 -85.8152
 -85.8138
 -85.8139
 -85.8125
 -85.8131
 -85.8398
 -85.8386
 -85.8389
 -85.8395
 -85.8409
 -85.8416
 -85.8402
 -85.841
 -85.8154
 -85.8144
 -85.837
 -85.837
 -85.8384
 -85.8375
 -85.8382
 -85.8393
 -85.8382
 -85.8306
 -85.8299
 -85.8293
 -85.8288
 -85.8235
 -85.8224
 -85.8233
 -85.8224
 -85.8402
 -85.8415
 -85.8413
 -85.8405
 -85.8437
 -85.8441
 -85.8447
 -85.8438
 -85.8416
 -85.8427
 -85.8418
 -85.8409
 -85.8412
 -85.841
 -85.8401
 -85.8227
 -85.8231
 -85.8231
 -85.8222
 -85.7993
 -85.7993
 -85.8
 -85.8001
 -85.8194
 -85.8191
 -85.8186
 -85.8189
 -85.8434
 -85.8425
 -85.8419
 -85.8429
 -85.8367
 -85.8364
 -85.8362
 -85.8374
 -85.8191
 -85.8199
 -85.8202
 -85.8204
 -85.8368
 -85.8356
 -85.8363
 -85.8367
 -85.83
 -85.8304
 -85.8285
 -85.8303
 -85.8306
 -85.8318
 -85.8314
 -85.8316
 -85.8365
 -85.837
 -85.8371
 -85.8504
 -85.8505
 -85.8501
 -85.8503
 -85.8189
 -85.82
 -85.8194
 -85.8197
 -85.8262
 -85.8275
 -85.8272
 -85.8269
 -85.7994
 -85.7985
 -85.7986
 -85.7999
 -85.811
 -85.8118
 -85.8118
 -85.811
 -85.8127
 -85.8107
 -85.8116
 -85.8105
 -85.8109
 -85.8114
 -85.8112
 -85.8117
 -85.8296
 -85.8288
 -85.8291
 -85.8069
 -85.8067
 -85.8072
 -85.8074
 -85.8087
 -85.8091
 -85.8101
 -85.8086
 -85.8534
 -85.8528
 -85.8527
 -85.8531
 -85.8304
 -85.8297
 -85.8295
 -85.8289
 -85.8444
 -85.8445
 -85.8441
 -85.8434
 -85.8326
 -85.8331
 -85.8323
 -85.8316
 -85.8362
 -85.8371
 -85.8363
 -85.8365
 -85.8141
 -85.813
 -85.8136
 -85.8121
 -85.8261
 -85.8284
 -85.8268
 -85.8269
 -85.844
 -85.8446
 -85.8437
 -85.844
 -85.8336
 -85.8333
 -85.8346
 -85.8342
 -85.8092
 -85.8088
 -85.8103
 -85.8106
 -85.8503
 -85.8506
 -85.8504
 -85.8507
 -85.8195
 -85.8185
 -85.8085
 -85.8265
 -85.8271
 -85.8278
 -85.8261
 -85.8233
 -85.8242
 -85.8229
 -85.8229
 -85.795
 -85.7948
 -85.7963
 -85.8178
 -85.8168
 -85.8164
 -85.8158
 -85.8327
 -85.8346
 -85.8339
 -85.8348
 -85.8275
 -85.8285
 -85.8279
 -85.8276
 -85.8484
 -85.8488
 -85.8489
 -85.8486
 -85.8119
 -85.8135
 -85.8124
 -85.8134
 -85.8133
 -85.813
 -85.8145
 -85.7963
 -85.7945
 -85.7954
 -85.7963
 -85.8113
 -85.8126
 -85.8117
 -85.8318
 -85.8342
 -85.8322
 -85.8109
 -85.8108
 -85.8099
 -85.8104
 -85.8233
 -85.8245
 -85.8248
 -85.8246
 -85.7705
 -85.7705
 -85.7705
 -85.7712
 -85.8223
 -85.8218
 -85.822
 -85.8058
 -85.8056
 -85.8058
 -85.8059
 -85.822
 -85.8214
 -85.8203
 -85.8213
 -85.8101
 -85.8111
 -85.811
 -85.8115
 -85.8373
 -85.8377
 -85.837
 -85.838
 -85.8403
 -85.8396
 -85.8403
 -85.8407
 -85.8524
 -85.8524
 -85.8527
 -85.852
 -85.831
 -85.8295
 -85.8308
 -85.8312
 -85.8096
 -85.8086
 -85.8095
 -85.8089
 -85.8147
 -85.8141
 -85.8016
 -85.8015
 -85.8021
 -85.802
 -85.8247
 -85.8252
 -85.8178
 -85.8195
 -85.8192
 -85.8134
 -85.814
 -85.8145
 -85.8138
 -85.85
 -85.8502
 -85.849
 -85.8492
 -85.8491
 -85.8488
 -85.8484
 -85.8489
 -85.8141
 -85.8146
 -85.8139
 -85.8127
 -85.8068
 -85.8071
 -85.8329
 -85.8331
 -85.8328
 -85.8339
 -85.8129
 -85.8124
 -85.8135
 -85.8133
 -85.8195
 -85.8179
 -85.8206
 -85.8555
 -85.8557
 -85.8552
 -85.8275
 -85.829
 -85.8283
 -85.8284
 -85.8464
 -85.8474
 -85.8461
 -85.8458
 -85.8293
 -85.8303
 -85.8306
 -85.8292
 -85.8399
 -85.8408
 -85.8409
 -85.8393
 -85.8093
 -85.8102
 -85.8095
 -85.809
 -85.812
 -85.8135
 -85.8115
 -85.813
 -85.8299
 -85.8287
 -85.8307
 -85.8293
 -85.8183
 -85.8197
 -85.8201
 -85.8182
 -85.8085
 -85.8089
 -85.8094
 -85.8105
 -85.8235
 -85.8241
 -85.8248
 -85.8255
 -85.8354
 -85.8356
 -85.8348
 -85.8291
 -85.8301
 -85.8295
 -85.8301
 -85.777
 -85.7784
 -85.7789
 -85.7781
 -85.8071
 -85.807
 -85.8073
 -85.8071
 -85.8177
 -85.8174
 -85.8176
 -85.8188
 -85.7923
 -85.7934
 -85.7915
 -85.7927
 -85.8462
 -85.846
 -85.8453
 -85.853
 -85.8525
 -85.8521
 -85.8525
 -85.8415
 -85.8433
 -85.8425
 -85.8426
 -85.8287
 -85.8353
 -85.8366
 -85.8371
 -85.8362
 -85.8263
 -85.8272
 -85.8256
 -85.8257
 -85.806
 -85.8046
 -85.8054
 -85.813
 -85.8135
 -85.8138
 -85.812
 -85.7778
 -85.7764
 -85.7777
 -85.7758
 -85.7953
 -85.7952
 -85.7959
 -85.7951
 -85.8168
 -85.8168
 -85.8175
 -85.8183
 -85.8539
 -85.853
 -85.8533
 -85.853
 -85.7813
 -85.7812
 -85.7826
 -85.782
 -85.8386
 -85.8395
 -85.8379
 -85.8388
 -85.8291
 -85.8293
 -85.8304
 -85.8293
 -85.8142
 -85.8121
 -85.812
 -85.8246
 -85.8232
 -85.8229
 -85.8229
 -85.8531
 -85.8533
 -85.8535
 -85.807
 -85.8091
 -85.8094
 -85.8228
 -85.8236
 -85.8248
 -85.8246
 -85.8171
 -85.8169
 -85.8166
 -85.8162
 -85.8186
 -85.8184
 -85.8197
 -85.82
 -85.8056
 -85.8048
 -85.8048
 -85.8062
 -85.8247
 -85.8255
 -85.8242
 -85.8257
 -85.8503
 -85.8489
 -85.8489
 -85.8483
 -85.8482
 -85.8479
 -85.8476
 -85.8485
 -85.8035
 -85.8036
 -85.8039
 -85.8033
 -85.8454
 -85.8456
 -85.8455
 -85.8445
 -85.8493
 -85.8503
 -85.85
 -85.849
 -85.8449
 -85.8449
 -85.8437
 -85.8439
 -85.8355
 -85.8352
 -85.8361
 -85.8356
 -85.8271
 -85.8262
 -85.8276
 -85.8169
 -85.8151
 -85.8157
 -85.816
 -85.8408
 -85.8401
 -85.8392
 -85.8405
 -85.8421
 -85.8424
 -85.843
 -85.8427
 -85.856
 -85.8559
 -85.8552
 -85.8555
 -85.7954
 -85.7963
 -85.796
 -85.7962
 -85.802
 -85.8015
 -85.8017
 -85.8023
 -85.8058
 -85.8056
 -85.8073
 -85.8056
 -85.8176
 -85.816
 -85.8172
 -85.8171
 -85.8198
 -85.82
 -85.8199
 -85.8499
 -85.8505
 -85.8514
 -85.8509
 -85.8433
 -85.8429
 -85.8424
 -85.8422
 -85.8257
 -85.8248
 -85.8245
 -85.8252
 -85.8487
 -85.8493
 -85.8326
 -85.8327
 -85.8327
 -85.8316
 -85.8483
 -85.8487
 -85.8496
 -85.8488
 -85.8305
 -85.8319
 -85.8301
 -85.8321
 -85.8165
 -85.8175
 -85.8155
 -85.8164
 -85.801
 -85.7999
 -85.8008
 -85.8019
 -85.7763
 -85.7776
 -85.7756
 -85.7769
 -85.8467
 -85.8462
 -85.8461
 -85.8469
 -85.8484
 -85.8485
 -85.8487
 -85.8493
 -85.8219
 -85.8203
 -85.8214
 -85.8207
 -85.8285
 -85.8279
 -85.8277
 -85.8286
 -85.8121
 -85.8111
 -85.8129
 -85.8334
 -85.8326
 -85.8327
 -85.832
 -85.8124
 -85.8122
 -85.8129
 -85.813
 -85.8266
 -85.8253
 -85.8245
 -85.8252
 -85.8362
 -85.8356
 -85.836
 -85.8363
 -85.8294
 -85.829
 -85.8285
 -85.8453
 -85.8443
 -85.8447
 -85.8447
 -85.8343
 -85.8357
 -85.7907
 -85.7925
 -85.7902
 -85.7912
 -85.8409
 -85.8403
 -85.8408
 -85.8141
 -85.8144
 -85.8145
 -85.814
 -85.8343
 -85.8344
 -85.8339
 -85.8263
 -85.8251
 -85.8265
 -85.8256
 -85.8337
 -85.8322
 -85.8342
 -85.8332
 -85.8343
 -85.8356
 -85.7838
 -85.7838
 -85.7829
 -85.7836
 -85.778
 -85.7767
 -85.7759
 -85.7773
 -85.8275
 -85.8261
 -85.8266
 -85.826
 -85.8332
 -85.8324
 -85.8331
 -85.8322
 -85.7842
 -85.7841
 -85.7843
 -85.7853
 -85.8138
 -85.8125
 -85.8045
 -85.8048
 -85.8051
 -85.8061
 -85.8348
 -85.8346
 -85.8361
 -85.8353
 -85.8324
 -85.8326
 -85.8337
 -85.8319
 -85.8337
 -85.8325
 -85.8323
 -85.8324
 -85.8174
 -85.8176
 -85.8184
 -85.8174
 -85.8093
 -85.8087
 -85.8076
 -85.8094
 -85.797
 -85.7984
 -85.7982
 -85.7969
 -85.8102
 -85.8102
 -85.8102
 -85.812
 -85.8409
 -85.8402
 -85.8413
 -85.8408
 -85.8276
 -85.8248
 -85.8263
 -85.7938
 -85.7948
 -85.7957
 -85.8371
 -85.8387
 -85.8379
 -85.8379
 -85.838
 -85.8363
 -85.8371
 -85.8376
 -85.8221
 -85.8213
 -85.8208
 -85.8241
 -85.8246
 -85.8257
 -85.8245
 -85.8099
 -85.8092
 -85.809
 -85.809
 -85.8448
 -85.8445
 -85.8453
 -85.8449
 -85.8078
 -85.8076
 -85.8077
 -85.808
 -85.806
 -85.8054
 -85.806
 -85.8524
 -85.8536
 -85.854
 -85.8533
 -85.8442
 -85.8449
 -85.8155
 -85.8149
 -85.8161
 -85.8159
 -85.8266
 -85.828
 -85.8268
 -85.8242
 -85.8237
 -85.8239
 -85.8227
 -85.8084
 -85.8095
 -85.8089
 -85.8439
 -85.8446
 -85.8433
 -85.8436
 -85.808
 -85.8098
 -85.8086
 -85.8082
 -85.8391
 -85.8381
 -85.8375
 -85.8379
 -85.8082
 -85.8087
 -85.8097
 -85.8084
 -85.8093
 -85.8088
 -85.8143
 -85.8136
 -85.8139
 -85.8143
 -85.7959
 -85.7953
 -85.794
 -85.7952
 -85.8411
 -85.8422
 -85.8186
 -85.8193
 -85.8196
 -85.8195
 -85.8525
 -85.8522
 -85.8524
 -85.8527
 -85.817
 -85.816
 -85.8174
 -85.8185
 -85.8429
 -85.8439
 -85.8442
 -85.8441
 -85.8486
 -85.8496
 -85.8481
 -85.8492
 -85.8388
 -85.8375
 -85.8504
 -85.8511
 -85.8508
 -85.8506
 -85.8087
 -85.8086
 -85.8082
 -85.8096
 -85.8505
 -85.8507
 -85.8508
 -85.8504
 -85.8534
 -85.8543
 -85.8539
 -85.8534
 -85.8318
 -85.8318
 -85.8329
 -85.8326
 -85.8244
 -85.8237
 -85.8252
 -85.8259
 -85.8472
 -85.8461
 -85.8469
 -85.8473
 -85.7923
 -85.7938
 -85.7927
 -85.7921
 -85.8466
 -85.8479
 -85.8183
 -85.8192
 -85.8192
 -85.8205
 -85.8467
 -85.8462
 -85.8453
 -85.8454
 -85.8101
 -85.8112
 -85.811
 -85.8109
 -85.82
 -85.8181
 -85.8188
 -85.8198
 -85.8108
 -85.8104
 -85.8121
 -85.8097
 -85.8091
 -85.8097
 -85.8087
 -85.8072
 -85.8081
 -85.8078
 -85.8082
 -85.8328
 -85.8319
 -85.8316
 -85.8456
 -85.8457
 -85.8465
 -85.8465
 -85.83
 -85.8293
 -85.8288
 -85.8099
 -85.8091
 -85.8097
 -85.8266
 -85.8282
 -85.8268
 -85.8278
 -85.8345
 -85.8343
 -85.8344
 -85.8358
 -85.8229
 -85.8242
 -85.8244
 -85.824
 -85.8223
 -85.8217
 -85.8213
 -85.8197
 -85.8189
 -85.8186
 -85.8203
 -85.8211
 -85.8218
 -85.8198
 -85.8461
 -85.8457
 -85.8461
 -85.8452
 -85.8371
 -85.8363
 -85.837
 -85.8375
 -85.8246
 -85.8249
 -85.8242
 -85.8261
 -85.8073
 -85.8064
 -85.8072
 -85.8304
 -85.8296
 -85.8302
 -85.8305
 -85.8148
 -85.8133
 -85.8141
 -85.8132
 -85.787
 -85.7876
 -85.7868
 -85.7864
 -85.8204
 -85.8197
 -85.8202
 -85.8201
 -85.8471
 -85.8469
 -85.8479
 -85.8475
 -85.8192
 -85.8205
 -85.8197
 -85.819
 -85.8083
 -85.8083
 -85.8086
 -85.809
 -85.8092
 -85.8086
 -85.8088
 -85.8238
 -85.824
 -85.8235
 -85.8352
 -85.8188
 -85.8167
 -85.8181
 -85.818
 -85.8488
 -85.8487
 -85.8492
 -85.8473
 -85.8475
 -85.8479
 -85.8184
 -85.8196
 -85.8188
 -85.8195
 -85.8531
 -85.8535
 -85.8537
 -85.8537
 -85.8105
 -85.8322
 -85.8309
 -85.8317
 -85.8315
 -85.8101
 -85.8105
 -85.8104
 -85.8107
 -85.8483
 -85.8489
 -85.8477
 -85.8484
 -85.836
 -85.8376
 -85.8371
 -85.8363
 -85.842
 -85.8427
 -85.8413
 -85.8416
 -85.8072
 -85.8077
 -85.808
 -85.8073
 -85.816
 -85.817
 -85.8159
 -85.8161
 -85.8304
 -85.8295
 -85.8305
 -85.8292
 -85.8167
 -85.8153
 -85.8172
 -85.8158
 -85.8352
 -85.8357
 -85.8368
 -85.8365
 -85.811
 -85.8105
 -85.8116
 -85.8116
 -85.815
 -85.8153
 -85.8164
 -85.816
 -85.8322
 -85.8323
 -85.8324
 -85.8335
 -85.8484
 -85.8494
 -85.8488
 -85.8494
 -85.8048
 -85.8053
 -85.8062
 -85.806
 -85.7962
 -85.7944
 -85.7962
 -85.7959
 -85.8493
 -85.8501
 -85.8497
 -85.8497
 -85.7981
 -85.7969
 -85.798
 -85.7972
 -85.7968
 -85.7981
 -85.827
 -85.8274
 -85.8264
 -85.8259
 -85.8157
 -85.8164
 -85.8164
 -85.8153
 -85.8558
 -85.8559
 -85.8559
 -85.8556
 -85.8482
 -85.8481
 -85.8492
 -85.8356
 -85.8355
 -85.8365
 -85.8353
 -85.8094
 -85.8097
 -85.8086
 -85.81
 -85.8149
 -85.8146
 -85.8143
 -85.814
 -85.8148
 -85.8154
 -85.836
 -85.8379
 -85.8373
 -85.8365
 -85.834
 -85.8339
 -85.8328
 -85.8342
 -85.8374
 -85.8372
 -85.8362
 -85.8373
 -85.853
 -85.853
 -85.8518
 -85.8534
 -85.8399
 -85.8398
 -85.8388
 -85.8203
 -85.8288
 -85.8284
 -85.8287
 -85.8279
 -85.8296
 -85.8282
 -85.8286
 -85.8293
 -85.845
 -85.8447
 -85.8445
 -85.844
 -85.8399
 -85.8392
 -85.8394
 -85.8403
 -85.8333
 -85.8323
 -85.8322
 -85.8176
 -85.8166
 -85.8178
 -85.816
 -85.8285
 -85.8303
 -85.8293
 -85.8293
 -85.8199
 -85.8207
 -85.8193
 -85.7813
 -85.7811
 -85.7803
 -85.7818
 -85.8454
 -85.847
 -85.8462
 -85.8452
 -85.8437
 -85.8455
 -85.8445
 -85.7829
 -85.8301
 -85.8303
 -85.83
 -85.8313
 -85.833
 -85.8332
 -85.8012
 -85.8012
 -85.8011
 -85.8016
 -85.806
 -85.8065
 -85.808
 -85.8061
 -85.8126
 -85.8134
 -85.813
 -85.8132
 -85.812
 -85.8127
 -85.813
 -85.8119
 -85.8117
 -85.8126
 -85.8202
 -85.8191
 -85.8186
 -85.8187
 -85.8215
 -85.8227
 -85.8561
 -85.8559
 -85.8086
 -85.8105
 -85.8085
 -85.8097
 -85.8243
 -85.8239
 -85.8248
 -85.8233
 -85.8039
 -85.8044
 -85.8023
 -85.8028
 -85.8465
 -85.8471
 -85.8457
 -85.8463
 -85.8433
 -85.8424
 -85.8432
 -85.8423
 -85.8353
 -85.8362
 -85.8363
 -85.8357
 -85.8305
 -85.8308
 -85.8325
 -85.8319
 -85.8273
 -85.8268
 -85.8087
 -85.8389
 -85.8399
 -85.8398
 -85.8399
 -85.8518
 -85.8516
 -85.8527
 -85.8514
 -85.8443
 -85.8455
 -85.844
 -85.8446
 -85.7706
 -85.7706
 -85.7709
 -85.7712
 -85.8521
 -85.8523
 -85.852
 -85.8521
 -85.813
 -85.8131
 -85.812
 -85.8136
 -85.818
 -85.8166
 -85.8172
 -85.8161
 -85.8377
 -85.8379
 -85.8385
 -85.8387
 -85.8383
 -85.8379
 -85.8374
 -85.8377
 -85.8096
 -85.8111
 -85.8102
 -85.8107
 -85.8516
 -85.8519
 -85.8515
 -85.8516
 -85.8469
 -85.8474
 -85.8472
 -85.8477
 -85.8388
 -85.8389
 -85.8397
 -85.8398
 -85.8474
 -85.8466
 -85.8471
 -85.8473
 -85.815
 -85.8162
 -85.8163
 -85.8166
 -85.8095
 -85.8098
 -85.8101
 -85.8104
 -85.8457
 -85.8451
 -85.8447
 -85.8449
 -85.8229
 -85.8226
 -85.8223
 -85.8212
 -85.8243
 -85.8237
 -85.8235
 -85.8242
 -85.7785
 -85.7794
 -85.7797
 -85.7795
 -85.8516
 -85.8518
 -85.8482
 -85.8482
 -85.8477
 -85.8488
 -85.8038
 -85.8028
 -85.8025
 -85.8039
 -85.8163
 -85.8147
 -85.8145
 -85.8141
 -85.8472
 -85.8465
 -85.8477
 -85.8478
 -85.8216
 -85.8219
 -85.8214
 -85.8227
 -85.8191
 -85.8194
 -85.8181
 -85.8182
 -85.8526
 -85.8528
 -85.8524
 -85.8523
 -85.8297
 -85.8293
 -85.8297
 -85.8302
 -85.8269
 -85.8272
 -85.827
 -85.8261
 -85.8424
 -85.8427
 -85.8431
 -85.8423
 -85.8359
 -85.8355
 -85.8352
 -85.8344
 -85.8219
 -85.8218
 -85.8204
 -85.8165
 -85.8175
 -85.8168
 -85.8187
 -85.7992
 -85.7984
 -85.7984
 -85.8003
 -85.8179
 -85.8187
 -85.8189
 -85.8191
 -85.8286
 -85.8279
 -85.8284
 -85.8276
 -85.8521
 -85.8524
 -85.8523
 -85.8513
 -85.8187
 -85.8207
 -85.8196
 -85.8194
 -85.8039
 -85.8039
 -85.8028
 -85.8021
 -85.838
 -85.8391
 -85.8386
 -85.8378
 -85.8337
 -85.8334
 -85.8328
 -85.8285
 -85.83
 -85.8303
 -85.8307
 -85.7974
 -85.7972
 -85.7973
 -85.7984
 -85.8305
 -85.8296
 -85.8298
 -85.8292
 -85.851
 -85.851
 -85.8512
 -85.8512
 -85.8292
 -85.8292
 -85.8296
 -85.8299
 -85.8066
 -85.8059
 -85.8065
 -85.8068
 -85.8112
 -85.8119
 -85.811
 -85.8101
 -85.8561
 -85.8559
 -85.8562
 -85.8561
 -85.8148
 -85.8151
 -85.8149
 -85.8132
 -85.8334
 -85.8318
 -85.8322
 -85.8328
 -85.8558
 -85.856
 -85.8556
 -85.8555
 -85.8487
 -85.8499
 -85.8491
 -85.8383
 -85.8382
 -85.8395
 -85.8399
 -85.846
 -85.8462
 -85.8473
 -85.8457
 -85.7872
 -85.7882
 -85.789
 -85.7887
 -85.8109
 -85.8123
 -85.8102
 -85.8504
 -85.8513
 -85.8511
 -85.8513
 -85.8328
 -85.8324
 -85.8336
 -85.832
 -85.8417
 -85.8414
 -85.8427
 -85.8407
 -85.8054
 -85.8053
 -85.8043
 -85.8038
 -85.8212
 -85.8228
 -85.8211
 -85.8221
 -85.8354
 -85.8336
 -85.8342
 -85.8025
 -85.8028
 -85.8033
 -85.8033
 -85.8106
 -85.808
 -85.8086
 -85.8082
 -85.8196
 -85.8508
 -85.8513
 -85.8509
 -85.8515
 -85.7891
 -85.789
 -85.7879
 -85.788
 -85.8419
 -85.8436
 -85.8429
 -85.8438
 -85.8341
 -85.8334
 -85.8335
 -85.8324
 -85.7815
 -85.8444
 -85.8437
 -85.8449
 -85.8505
 -85.8515
 -85.8508
 -85.8509
 -85.8249
 -85.8248
 -85.8267
 -85.8255
 -85.8368
 -85.8368
 -85.8376
 -85.8363
 -85.8128
 -85.8118
 -85.8271
 -85.8266
 -85.8264
 -85.8276
 -85.8126
 -85.8118
 -85.8112
 -85.8121
 -85.8167
 -85.8163
 -85.818
 -85.818
 -85.8389
 -85.8381
 -85.8389
 -85.839
 -85.7933
 -85.7931
 -85.7931
 -85.7947
 -85.8097
 -85.8091
 -85.8096
 -85.8089
 -85.7961
 -85.797
 -85.8059
 -85.806
 -85.8062
 -85.806
 -85.8041
 -85.8033
 -85.8045
 -85.8035
 -85.8524
 -85.8519
 -85.8513
 -85.8513
 -85.832
 -85.8319
 -85.8314
 -85.8331
 -85.8207
 -85.8225
 -85.8216
 -85.8215
 -85.8285
 -85.828
 -85.8277
 -85.8288
 -85.8516
 -85.8514
 -85.8021
 -85.8015
 -85.8017
 -85.8021
 -85.8514
 -85.8516
 -85.8509
 -85.7909
 -85.7906
 -85.7908
 -85.7902
 -85.8495
 -85.8483
 -85.8491
 -85.8486
 -85.8174
 -85.8166
 -85.8177
 -85.8164
 -85.8242
 -85.8241
 -85.8237
 -85.8507
 -85.8502
 -85.8504
 -85.8509
 -85.8316
 -85.8305
 -85.8317
 -85.8309
 -85.8244
 -85.8251
 -85.8259
 -85.8249
 -85.8178
 -85.8172
 -85.8211
 -85.8188
 -85.8203
 -85.8197
 -85.8339
 -85.8326
 -85.8333
 -85.8524
 -85.8515
 -85.8513
 -85.8523
 -85.8237
 -85.8244
 -85.8236
 -85.824
 -85.8213
 -85.8205
 -85.8159
 -85.8146
 -85.8143
 -85.8155
 -85.7938
 -85.794
 -85.7953
 -85.8317
 -85.8321
 -85.8305
 -85.8305
 -85.8519
 -85.852
 -85.852
 -85.7959
 -85.7954
 -85.796
 -85.8231
 -85.8222
 -85.8228
 -85.8217
 -85.8366
 -85.8367
 -85.8355
 -85.8359
 -85.7876
 -85.7869
 -85.7873
 -85.7877
 -85.8465
 -85.8467
 -85.8462
 -85.8461
 -85.8375
 -85.8368
 -85.8369
 -85.8364
 -85.8441
 -85.8444
 -85.8437
 -85.8502
 -85.8504
 -85.8515
 -85.8508
 -85.8281
 -85.8267
 -85.828
 -85.8282
 -85.8502
 -85.8499
 -85.8497
 -85.8495
 -85.8179
 -85.8177
 -85.8184
 -85.817
 -85.8521
 -85.8353
 -85.8266
 -85.8262
 -85.8272
 -85.8258
 -85.8338
 -85.8334
 -85.8327
 -85.8324
 -85.8403
 -85.8405
 -85.8398
 -85.8391
 -85.8345
 -85.8341
 -85.8353
 -85.8347
 -85.8414
 -85.8407
 -85.8416
 -85.8415
 -85.8266
 -85.8258
 -85.8261
 -85.8272
 -85.8246
 -85.8248
 -85.8251
 -85.8256
 -85.8211
 -85.8207
 -85.8204
 -85.8217
 -85.8251
 -85.8251
 -85.824
 -85.8083
 -85.8085
 -85.8082
 -85.809
 -85.8279
 -85.8362
 -85.8375
 -85.8377
 -85.8372
 -85.8511
 -85.8511
 -85.8501
 -85.8159
 -85.8141
 -85.8147
 -85.8142
 -85.8293
 -85.8307
 -85.8302
 -85.8342
 -85.8338
 -85.8333
 -85.8329
 -85.8368
 -85.8374
 -85.8383
 -85.8386
 -85.8479
 -85.8484
 -85.8491
 -85.8482
 -85.8121
 -85.812
 -85.8126
 -85.811
 -85.8293
 -85.8286
 -85.8285
 -85.8279
 -85.8254
 -85.8249
 -85.824
 -85.8254
 -85.8244
 -85.8238
 -85.8235
 -85.8227
 -85.8271
 -85.8267
 -85.8274
 -85.8261
 -85.8399
 -85.8382
 -85.8403
 -85.839
 -85.8243
 -85.8226
 -85.8232
 -85.8236
 -85.8018
 -85.8018
 -85.8018
 -85.8022
 -85.7982
 -85.7989
 -85.7986
 -85.8269
 -85.8271
 -85.828
 -85.8284
 -85.8274
 -85.8277
 -85.8282
 -85.8288
 -85.8249
 -85.8238
 -85.8256
 -85.8256
 -85.8498
 -85.85
 -85.8488
 -85.8489
 -85.8405
 -85.8396
 -85.8393
 -85.8404
 -85.815
 -85.8157
 -85.8155
 -85.8158
 -85.8067
 -85.8083
 -85.808
 -85.806
 -85.8474
 -85.8469
 -85.8464
 -85.8473
 -85.7901
 -85.789
 -85.7893
 -85.7908
 -85.8188
 -85.82
 -85.8193
 -85.8192
 -85.805
 -85.8055
 -85.8054
 -85.8111
 -85.8119
 -85.812
 -85.813
 -85.8387
 -85.8385
 -85.8393
 -85.8375
 -85.8109
 -85.8096
 -85.8099
 -85.8106
 -85.7986
 -85.8013
 -85.7996
 -85.7875
 -85.7888
 -85.7894
 -85.7887
 -85.8536
 -85.8538
 -85.854
 -85.8546
 -85.8138
 -85.813
 -85.8135
 -85.8141
 -85.8322
 -85.8307
 -85.831
 -85.8318
 -85.8489
 -85.8486
 -85.8478
 -85.8484
 -85.8439
 -85.8448
 -85.8435
 -85.8439
 -85.8148
 -85.815
 -85.8142
 -85.8147
 -85.8026
 -85.8012
 -85.7999
 -85.8015
 -85.8308
 -85.8314
 -85.8302
 -85.8308
 -85.8038
 -85.8052
 -85.8217
 -85.8196
 -85.8201
 -85.8212
 -85.8228
 -85.8227
 -85.822
 -85.8232
 -85.8211
 -85.8212
 -85.8206
 -85.8075
 -85.8079
 -85.8075
 -85.8327
 -85.8328
 -85.8333
 -85.8335
 -85.8314
 -85.8312
 -85.8305
 -85.8323
 -85.8146
 -85.8158
 -85.8152
 -85.8147
 -85.841
 -85.8419
 -85.8405
 -85.8409
 -85.8264
 -85.8249
 -85.8257
 -85.8267
 -85.8074
 -85.8074
 -85.8072
 -85.8074
 -85.8197
 -85.8207
 -85.8198
 -85.8325
 -85.8323
 -85.8314
 -85.8321
 -85.8281
 -85.8289
 -85.8294
 -85.8532
 -85.8531
 -85.8528
 -85.8526
 -85.7965
 -85.7957
 -85.7967
 -85.7946
 -85.8182
 -85.8193
 -85.8192
 -85.8184
 -85.8167
 -85.8164
 -85.8154
 -85.8167
 -85.8536
 -85.8535
 -85.8545
 -85.855
 -85.8427
 -85.8433
 -85.8431
 -85.8116
 -85.8116
 -85.8109
 -85.8117
 -85.8424
 -85.8413
 -85.8418
 -85.8138
 -85.8139
 -85.8131
 -85.8133
 -85.776
 -85.7768
 -85.7763
 -85.777
 -85.8495
 -85.8497
 -85.8503
 -85.8492
 -85.8077
 -85.8073
 -85.8069
 -85.806
 -85.8526
 -85.8523
 -85.8522
 -85.8523
 -85.8105
 -85.8118
 -85.8108
 -85.8114
 -85.7771
 -85.7754
 -85.7767
 -85.7768
 -85.8004
 -85.7993
 -85.8003
 -85.8008
 -85.8082
 -85.809
 -85.8097
 -85.808
 -85.8258
 -85.8243
 -85.8065
 -85.8068
 -85.8046
 -85.8049
 -85.8335
 -85.8327
 -85.8324
 -85.8318
 -85.8247
 -85.8247
 -85.8242
 -85.8258
 -85.8486
 -85.8476
 -85.8493
 -85.8494
 -85.8466
 -85.8462
 -85.847
 -85.847
 -85.8443
 -85.8434
 -85.8441
 -85.8433
 -85.8479
 -85.8481
 -85.8484
 -85.8477
 -85.8367
 -85.8365
 -85.8374
 -85.8366
 -85.8448
 -85.8457
 -85.8455
 -85.8452
 -85.7978
 -85.7959
 -85.7958
 -85.7978
 -85.8472
 -85.8477
 -85.8477
 -85.8475
 -85.8211
 -85.8201
 -85.8195
 -85.82
 -85.842
 -85.8405
 -85.8407
 -85.8467
 -85.8475
 -85.8476
 -85.8472
 -85.808
 -85.8067
 -85.8066
 -85.8072
 -85.8008
 -85.8005
 -85.7999
 -85.8001
 -85.8387
 -85.8386
 -85.838
 -85.8397
 -85.822
 -85.8219
 -85.8216
 -85.8209
 -85.8371
 -85.8366
 -85.8371
 -85.8368
 -85.8367
 -85.8367
 -85.8386
 -85.8195
 -85.8191
 -85.8181
 -85.836
 -85.8365
 -85.8298
 -85.8282
 -85.8523
 -85.8527
 -85.8527
 -85.8522
 -85.8281
 -85.8286
 -85.8278
 -85.8292
 -85.8358
 -85.8355
 -85.8369
 -85.8355
 -85.8323
 -85.8328
 -85.8323
 -85.8332
 -85.8448
 -85.8427
 -85.8431
 -85.8424
 -85.8423
 -85.8231
 -85.8234
 -85.8222
 -85.8222
 -85.8055
 -85.8055
 -85.8055
 -85.8056
 -85.836
 -85.8351
 -85.8362
 -85.8356
 -85.8374
 -85.8368
 -85.8364
 -85.8377
 -85.7803
 -85.7813
 -85.7817
 -85.7824
 -85.8268
 -85.8278
 -85.8272
 -85.8265
 -85.8255
 -85.8245
 -85.824
 -85.8249
 -85.8355
 -85.8347
 -85.809
 -85.8092
 -85.8096
 -85.8091
 -85.8174
 -85.8181
 -85.8178
 -85.8172
 -85.8106
 -85.8101
 -85.8098
 -85.8099
 -85.8156
 -85.8164
 -85.8162
 -85.8153
 -85.81
 -85.8099
 -85.8095
 -85.8102
 -85.8432
 -85.8427
 -85.8429
 -85.8436
 -85.847
 -85.8468
 -85.8459
 -85.8465
 -85.8141
 -85.8135
 -85.8129
 -85.8141
 -85.8268
 -85.8258
 -85.8267
 -85.8261
 -85.8444
 -85.8433
 -85.8442
 -85.8437
 -85.8226
 -85.8218
 -85.8219
 -85.8234
 -85.8138
 -85.8148
 -85.8029
 -85.8035
 -85.8037
 -85.8028
 -85.8249
 -85.8245
 -85.8236
 -85.8231
 -85.8447
 -85.8442
 -85.8443
 -85.8455
 -85.8514
 -85.8508
 -85.8509
 -85.8515
 -85.7836
 -85.7834
 -85.8208
 -85.822
 -85.8222
 -85.8228
 -85.8191
 -85.8174
 -85.8185
 -85.8185
 -85.818
 -85.8178
 -85.8112
 -85.8117
 -85.8117
 -85.812
 -85.8248
 -85.8259
 -85.8264
 -85.7977
 -85.7986
 -85.7986
 -85.7993
 -85.8473
 -85.8479
 -85.8465
 -85.8474
 -85.8512
 -85.8512
 -85.8511
 -85.8536
 -85.8533
 -85.8525
 -85.853
 -85.8314
 -85.8331
 -85.8326
 -85.8327
 -85.8267
 -85.8282
 -85.8263
 -85.8276
 -85.8414
 -85.8428
 -85.8432
 -85.8425
 -85.835
 -85.8348
 -85.8359
 -85.8349
 -85.8334
 -85.8345
 -85.8339
 -85.8289
 -85.829
 -85.8285
 -85.83
 -85.8391
 -85.8412
 -85.8404
 -85.8393
 -85.8227
 -85.822
 -85.8226
 -85.8228
 -85.8275
 -85.8272
 -85.8286
 -85.8269
 -85.8367
 -85.8364
 -85.8358
 -85.8367
 -85.8269
 -85.8262
 -85.8259
 -85.8271
 -85.7776
 -85.7771
 -85.7787
 -85.7786
 -85.8124
 -85.8119
 -85.8118
 -85.8112
 -85.8391
 -85.839
 -85.8402
 -85.8404
 -85.8105
 -85.8107
 -85.809
 -85.8086
 -85.8074
 -85.8058
 -85.8074
 -85.8085
 -85.8452
 -85.845
 -85.8456
 -85.8443
 -85.8438
 -85.8427
 -85.8437
 -85.8434
 -85.8478
 -85.8469
 -85.8476
 -85.848
 -85.8404
 -85.8404
 -85.8414
 -85.8409
 -85.8207
 -85.8204
 -85.8196
 -85.8204
 -85.8126
 -85.8121
 -85.8131
 -85.812
 -85.8372
 -85.8355
 -85.8373
 -85.8359
 -85.813
 -85.8134
 -85.8136
 -85.8135
 -85.8037
 -85.8041
 -85.8044
 -85.8048
 -85.8259
 -85.8269
 -85.826
 -85.8269
 -85.8184
 -85.8176
 -85.8168
 -85.8193
 -85.8198
 -85.8213
 -85.8202
 -85.8039
 -85.8032
 -85.8021
 -85.8031
 -85.8139
 -85.8137
 -85.8133
 -85.8134
 -85.8384
 -85.8391
 -85.8385
 -85.8389
 -85.8282
 -85.8292
 -85.8294
 -85.8541
 -85.8535
 -85.8535
 -85.8539
 -85.8494
 -85.8502
 -85.8508
 -85.8499
 -85.8178
 -85.8187
 -85.8172
 -85.8187
 -85.8302
 -85.831
 -85.8054
 -85.8053
 -85.8038
 -85.8058
 -85.8282
 -85.8271
 -85.8266
 -85.8276
 -85.8474
 -85.8477
 -85.8468
 -85.8476
 -85.8127
 -85.8129
 -85.8133
 -85.8216
 -85.8219
 -85.8222
 -85.8206
 -85.8183
 -85.8198
 -85.8197
 -85.8195
 -85.826
 -85.8271
 -85.8274
 -85.826
 -85.8239
 -85.8246
 -85.8254
 -85.8245
 -85.8278
 -85.8284
 -85.8275
 -85.8287
 -85.8228
 -85.8237
 -85.8424
 -85.8417
 -85.8433
 -85.8422
 -85.8236
 -85.8225
 -85.8229
 -85.8236
 -85.8333
 -85.8318
 -85.8325
 -85.8233
 -85.8244
 -85.8236
 -85.8243
 -85.8338
 -85.8332
 -85.8325
 -85.8334
 -85.8109
 -85.8098
 -85.8106
 -85.8091
 -85.8233
 -85.823
 -85.8245
 -85.8308
 -85.831
 -85.8323
 -85.8301
 -85.8253
 -85.825
 -85.8259
 -85.8105
 -85.8108
 -85.8099
 -85.8345
 -85.8343
 -85.8341
 -85.8331
 -85.826
 -85.8268
 -85.827
 -85.7848
 -85.7852
 -85.7856
 -85.7836
 -85.835
 -85.8342
 -85.8336
 -85.8351
 -85.8193
 -85.8181
 -85.8183
 -85.8178
 -85.8442
 -85.8441
 -85.8445
 -85.8449
 -85.8463
 -85.8455
 -85.8468
 -85.8465
 -85.8071
 -85.8088
 -85.8067
 -85.807
 -85.8302
 -85.8294
 -85.8287
 -85.8154
 -85.8142
 -85.8151
 -85.815
 -85.846
 -85.8447
 -85.8454
 -85.8277
 -85.8287
 -85.828
 -85.829
 -85.8379
 -85.8384
 -85.8383
 -85.838
 -85.8489
 -85.8491
 -85.8495
 -85.8487
 -85.7724
 -85.7715
 -85.7718
 -85.7724
 -85.8153
 -85.8155
 -85.8162
 -85.8151
 -85.8294
 -85.8315
 -85.8307
 -85.8312
 -85.8019
 -85.8009
 -85.8004
 -85.826
 -85.8269
 -85.8268
 -85.8257
 -85.8501
 -85.836
 -85.8351
 -85.8339
 -85.8351
 -85.8453
 -85.8453
 -85.8454
 -85.8458
 -85.8413
 -85.841
 -85.8408
 -85.8416
 -85.8302
 -85.8298
 -85.8279
 -85.8266
 -85.8267
 -85.8266
 -85.7865
 -85.7879
 -85.7866
 -85.7874
 -85.8173
 -85.8169
 -85.8164
 -85.8156
 -85.8155
 -85.8164
 -85.8157
 -85.8506
 -85.8518
 -85.8508
 -85.8505
 -85.8261
 -85.826
 -85.8272
 -85.8273
 -85.8298
 -85.8293
 -85.8284
 -85.8292
 -85.8464
 -85.8456
 -85.8468
 -85.8457
 -85.8272
 -85.8268
 -85.8282
 -85.8272
 -85.7965
 -85.7969
 -85.7955
 -85.796
 -85.8249
 -85.8245
 -85.8253
 -85.8248
 -85.8148
 -85.8149
 -85.8151
 -85.8158
 -85.8123
 -85.8114
 -85.8115
 -85.812
 -85.8054
 -85.8058
 -85.8053
 -85.8053
 -85.7941
 -85.7936
 -85.7932
 -85.795
 -85.8532
 -85.8526
 -85.8528
 -85.8527
 -85.7896
 -85.7901
 -85.7887
 -85.7906
 -85.8263
 -85.8255
 -85.8263
 -85.8253
 -85.8525
 -85.8525
 -85.8519
 -85.8521
 -85.8207
 -85.8203
 -85.8211
 -85.8213
 -85.8053
 -85.8483
 -85.8478
 -85.848
 -85.849
 -85.8102
 -85.7958
 -85.7975
 -85.7976
 -85.796
 -85.8317
 -85.8332
 -85.8418
 -85.8406
 -85.8422
 -85.8409
 -85.8449
 -85.8449
 -85.8455
 -85.8453
 -85.854
 -85.8534
 -85.8543
 -85.8423
 -85.8436
 -85.8433
 -85.8432
 -85.8209
 -85.8514
 -85.8372
 -85.837
 -85.8365
 -85.8512
 -85.8516
 -85.8518
 -85.8514
 -85.8215
 -85.8214
 -85.8214
 -85.8205
 -85.8145
 -85.8149
 -85.8138
 -85.8134
 -85.8361
 -85.8354
 -85.8357
 -85.8373
 -85.8503
 -85.8509
 -85.85
 -85.8498
 -85.8475
 -85.8472
 -85.8476
 -85.8471
 -85.8331
 -85.8348
 -85.8347
 -85.7928
 -85.7919
 -85.7947
 -85.7928
 -85.7738
 -85.7753
 -85.7744
 -85.7751
 -85.8022
 -85.8006
 -85.8002
 -85.8012
 -85.8287
 -85.8297
 -85.8286
 -85.7975
 -85.7986
 -85.7982
 -85.7973
 -85.8429
 -85.8426
 -85.8438
 -85.8438
 -85.844
 -85.8433
 -85.8438
 -85.8103
 -85.8098
 -85.8381
 -85.8386
 -85.8561
 -85.8556
 -85.8559
 -85.8532
 -85.8536
 -85.8534
 -85.8537
 -85.8229
 -85.8221
 -85.8237
 -85.823
 -85.8169
 -85.8167
 -85.8161
 -85.8175
 -85.8253
 -85.8251
 -85.8264
 -85.8259
 -85.852
 -85.852
 -85.8522
 -85.852
 -85.8382
 -85.8388
 -85.8385
 -85.8378
 -85.805
 -85.8049
 -85.8049
 -85.8057
 -85.8383
 -85.8388
 -85.838
 -85.839
 -85.8307
 -85.831
 -85.8298
 -85.8312
 -85.8365
 -85.8373
 -85.8372
 -85.77
 -85.7703
 -85.7705
 -85.8163
 -85.8155
 -85.8216
 -85.8216
 -85.8207
 -85.8223
 -85.8414
 -85.8425
 -85.8416
 -85.8414
 -85.8385
 -85.8388
 -85.8401
 -85.8393
 -85.8393
 -85.8388
 -85.8405
 -85.7865
 -85.7865
 -85.8046
 -85.8044
 -85.8051
 -85.8047
 -85.8307
 -85.7858
 -85.7845
 -85.785
 -85.7852
 -85.8144
 -85.8157
 -85.8148
 -85.8146
 -85.8233
 -85.8227
 -85.7947
 -85.797
 -85.7969
 -85.7956
 -85.8532
 -85.854
 -85.8537
 -85.8533
 -85.85
 -85.8503
 -85.8499
 -85.851
 -85.8089
 -85.8111
 -85.8094
 -85.8105
 -85.816
 -85.8154
 -85.8176
 -85.8172
 -85.8167
 -85.8161
 -85.8167
 -85.8402
 -85.8409
 -85.8394
 -85.8402
 -85.805
 -85.806
 -85.8065
 -85.8066
 -85.8255
 -85.8258
 -85.8253
 -85.8348
 -85.8352
 -85.8356
 -85.8365
 -85.816
 -85.8163
 -85.8169
 -85.8165
 -85.8116
 -85.8127
 -85.8135
 -85.8122
 -85.8125
 -85.8118
 -85.812
 -85.8129
 -85.8203
 -85.8207
 -85.8218
 -85.8207
 -85.8347
 -85.834
 -85.8146
 -85.8148
 -85.8151
 -85.8141
 -85.8536
 -85.8524
 -85.8527
 -85.8527
 -85.8109
 -85.8115
 -85.811
 -85.8117
 -85.8
 -85.7995
 -85.8009
 -85.8003
 -85.831
 -85.831
 -85.7914
 -85.7915
 -85.7905
 -85.7918
 -85.8182
 -85.819
 -85.8176
 -85.8505
 -85.8504
 -85.8509
 -85.8509
 -85.7931
 -85.7924
 -85.7928
 -85.8119
 -85.8117
 -85.8127
 -85.8123
 -85.7948
 -85.8108
 -85.8103
 -85.8105
 -85.8094
 -85.8271
 -85.8263
 -85.8273
 -85.8271
 -85.8217
 -85.822
 -85.8226
 -85.8216
 -85.8514
 -85.8522
 -85.829
 -85.8297
 -85.8294
 -85.829
 -85.8095
 -85.808
 -85.8098
 -85.8078
 -85.8171
 -85.8193
 -85.8181
 -85.8173
 -85.848
 -85.8474
 -85.8474
 -85.8475
 -85.8223
 -85.8228
 -85.8239
 -85.8234
 -85.8312
 -85.8446
 -85.845
 -85.8442
 -85.8172
 -85.8176
 -85.8164
 -85.8179
 -85.838
 -85.8376
 -85.8381
 -85.8371
 -85.8189
 -85.8178
 -85.8182
 -85.8193
 -85.8511
 -85.8504
 -85.8501
 -85.8508
 -85.8555
 -85.8558
 -85.8553
 -85.8121
 -85.8127
 -85.8138
 -85.8131
 -85.8337
 -85.8341
 -85.8328
 -85.8333
 -85.837
 -85.8374
 -85.838
 -85.8384
 -85.8153
 -85.8155
 -85.8111
 -85.8105
 -85.8102
 -85.8114
 -85.82
 -85.8219
 -85.8318
 -85.8322
 -85.8316
 -85.8313
 -85.8342
 -85.8346
 -85.8355
 -85.8342
 -85.8206
 -85.8214
 -85.8223
 -85.8216
 -85.8306
 -85.8307
 -85.8307
 -85.8463
 -85.8453
 -85.845
 -85.8456
 -85.8416
 -85.8412
 -85.8417
 -85.8208
 -85.8223
 -85.8204
 -85.8216
 -85.8124
 -85.8109
 -85.8102
 -85.8119
 -85.8376
 -85.8362
 -85.8363
 -85.8371
 -85.8223
 -85.8221
 -85.8207
 -85.8068
 -85.8066
 -85.8068
 -85.8066
 -85.8159
 -85.8158
 -85.8163
 -85.8167
 -85.843
 -85.8426
 -85.842
 -85.8538
 -85.853
 -85.8532
 -85.8364
 -85.837
 -85.8371
 -85.8159
 -85.8148
 -85.8163
 -85.8154
 -85.8535
 -85.8536
 -85.8535
 -85.8539
 -85.8351
 -85.8344
 -85.835
 -85.8358
 -85.8444
 -85.8448
 -85.8459
 -85.8458
 -85.8432
 -85.8438
 -85.8433
 -85.8434
 -85.7991
 -85.7978
 -85.798
 -85.8201
 -85.8204
 -85.8196
 -85.8205
 -85.8445
 -85.8449
 -85.844
 -85.8441
 -85.824
 -85.8245
 -85.8245
 -85.8257
 -85.8384
 -85.8386
 -85.8384
 -85.8373
 -85.8484
 -85.8491
 -85.8048
 -85.8055
 -85.8055
 -85.806
 -85.8408
 -85.8401
 -85.8416
 -85.8405
 -85.8207
 -85.8203
 -85.8198
 -85.8211
 -85.8369
 -85.8355
 -85.8524
 -85.8524
 -85.8516
 -85.8526
 -85.8441
 -85.8453
 -85.8437
 -85.8458
 -85.8539
 -85.854
 -85.8546
 -85.8549
 -85.8402
 -85.8402
 -85.8407
 -85.8369
 -85.8383
 -85.8381
 -85.8376
 -85.8378
 -85.8371
 -85.8375
 -85.8363
 -85.8141
 -85.8143
 -85.8134
 -85.8131
 -85.7966
 -85.796
 -85.7976
 -85.8264
 -85.8264
 -85.8265
 -85.8461
 -85.8452
 -85.8458
 -85.845
 -85.8211
 -85.8219
 -85.8228
 -85.8219
 -85.81
 -85.8085
 -85.809
 -85.8102
 -85.8272
 -85.8261
 -85.8255
 -85.8255
 -85.8184
 -85.8201
 -85.8185
 -85.8526
 -85.8529
 -85.8519
 -85.8519
 -85.8059
 -85.8062
 -85.8096
 -85.8102
 -85.8103
 -85.839
 -85.8393
 -85.8383
 -85.8401
 -85.8257
 -85.8271
 -85.8269
 -85.8266
 -85.8083
 -85.8085
 -85.8094
 -85.8085
 -85.8299
 -85.8278
 -85.8281
 -85.8292
 -85.8178
 -85.817
 -85.8184
 -85.8185
 -85.8476
 -85.848
 -85.8493
 -85.8161
 -85.816
 -85.8169
 -85.8168
 -85.8297
 -85.8305
 -85.8075
 -85.8088
 -85.8084
 -85.8077
 -85.8092
 -85.8082
 -85.8088
 -85.8083
 -85.8485
 -85.848
 -85.8113
 -85.8123
 -85.8118
 -85.8107
 -85.8276
 -85.8265
 -85.827
 -85.8277
 -85.8194
 -85.7994
 -85.7983
 -85.7986
 -85.8312
 -85.8309
 -85.8311
 -85.8302
 -85.8493
 -85.8494
 -85.8489
 -85.8498
 -85.7993
 -85.7998
 -85.8
 -85.7987
 -85.8102
 -85.8109
 -85.8099
 -85.8102
 -85.8363
 -85.8367
 -85.8367
 -85.8009
 -85.8008
 -85.8018
 -85.8019
 -85.8538
 -85.8531
 -85.8534
 -85.8539
 -85.8047
 -85.8054
 -85.8057
 -85.8043
 -85.8352
 -85.8342
 -85.8349
 -85.8358
 -85.8201
 -85.8209
 -85.8205
 -85.8198
 -85.8084
 -85.8088
 -85.8084
 -85.8181
 -85.8193
 -85.818
 -85.8191
 -85.8085
 -85.8075
 -85.8081
 -85.8081
 -85.8105
 -85.8097
 -85.8101
 -85.8414
 -85.8405
 -85.8417
 -85.84
 -85.8391
 -85.8249
 -85.8272
 -85.8257
 -85.8258
 -85.8506
 -85.8502
 -85.8497
 -85.8502
 -85.8315
 -85.8328
 -85.8308
 -85.8324
 -85.8347
 -85.8355
 -85.8347
 -85.8344
 -85.8099
 -85.8095
 -85.8105
 -85.8113
 -85.8108
 -85.8346
 -85.8335
 -85.8342
 -85.835
 -85.85
 -85.851
 -85.8285
 -85.8289
 -85.8277
 -85.8291
 -85.8082
 -85.808
 -85.8087
 -85.8473
 -85.8479
 -85.847
 -85.8474
 -85.8289
 -85.8273
 -85.8279
 -85.8282
 -85.8096
 -85.809
 -85.8096
 -85.81
 -85.8255
 -85.8254
 -85.827
 -85.8259
 -85.8341
 -85.836
 -85.8032
 -85.8026
 -85.8029
 -85.8024
 -85.8103
 -85.8124
 -85.8131
 -85.8126
 -85.8135
 -85.8131
 -85.8127
 -85.8112
 -85.8115
 -85.8123
 -85.8281
 -85.8279
 -85.8277
 -85.8327
 -85.8322
 -85.8317
 -85.8312
 -85.8138
 -85.8137
 -85.814
 -85.8137
 -85.8208
 -85.8205
 -85.8302
 -85.8294
 -85.8299
 -85.8292
 -85.8303
 -85.8303
 -85.8256
 -85.8266
 -85.827
 -85.8257
 -85.7906
 -85.7924
 -85.7921
 -85.7927
 -85.8298
 -85.8085
 -85.8094
 -85.8088
 -85.8086
 -85.8526
 -85.8531
 -85.8524
 -85.8394
 -85.8392
 -85.8384
 -85.8396
 -85.8249
 -85.8254
 -85.8249
 -85.8233
 -85.8288
 -85.8296
 -85.8282
 -85.8118
 -85.8126
 -85.8122
 -85.8116
 -85.8479
 -85.8486
 -85.8471
 -85.8482
 -85.8355
 -85.8351
 -85.836
 -85.8356
 -85.8479
 -85.8483
 -85.8469
 -85.8477
 -85.8047
 -85.8047
 -85.8039
 -85.8039
 -85.8135
 -85.8144
 -85.8412
 -85.8408
 -85.8403
 -85.841
 -85.8499
 -85.8498
 -85.8499
 -85.8496
 -85.8554
 -85.8557
 -85.8552
 -85.8559
 -85.8489
 -85.8482
 -85.8488
 -85.8346
 -85.8356
 -85.8344
 -85.8352
 -85.8493
 -85.8497
 -85.8499
 -85.8497
 -85.8053
 -85.8063
 -85.8071
 -85.8061
 -85.8448
 -85.8456
 -85.8457
 -85.8351
 -85.8347
 -85.8344
 -85.8344
 -85.8083
 -85.8078
 -85.8083
 -85.8076
 -85.8363
 -85.8375
 -85.8369
 -85.8369
 -85.8317
 -85.8326
 -85.833
 -85.8318
 -85.8144
 -85.8148
 -85.8157
 -85.8163
 -85.8041
 -85.8043
 -85.8031
 -85.8032
 -85.8221
 -85.8225
 -85.8234
 -85.8223
 -85.7878
 -85.7879
 -85.7899
 -85.7887
 -85.8096
 -85.8104
 -85.8095
 -85.8121
 -85.811
 -85.8109
 -85.8106
 -85.7822
 -85.7826
 -85.7812
 -85.783
 -85.8473
 -85.8467
 -85.8468
 -85.8433
 -85.8434
 -85.8443
 -85.8442
 -85.8128
 -85.8147
 -85.8142
 -85.7972
 -85.7977
 -85.797
 -85.8036
 -85.8027
 -85.8038
 -85.8038
 -85.8142
 -85.814
 -85.8149
 -85.8132
 -85.8353
 -85.8369
 -85.8361
 -85.8359
 -85.7911
 -85.7909
 -85.7917
 -85.7904
 -85.8329
 -85.8311
 -85.831
 -85.8325
 -85.8431
 -85.8435
 -85.8423
 -85.843
 -85.8304
 -85.8304
 -85.8322
 -85.8314
 -85.8231
 -85.8222
 -85.8239
 -85.8091
 -85.8091
 -85.8091
 -85.8097
 -85.8484
 -85.8491
 -85.8494
 -85.849
 -85.8448
 -85.8455
 -85.8447
 -85.8442
 -85.814
 -85.8149
 -85.8143
 -85.8134
 -85.8502
 -85.8506
 -85.851
 -85.8499
 -85.8511
 -85.8503
 -85.8503
 -85.8508
 -85.8509
 -85.8501
 -85.8504
 -85.7945
 -85.7942
 -85.7825
 -85.7828
 -85.7821
 -85.7837
 -85.8335
 -85.833
 -85.8322
 -85.8251
 -85.8244
 -85.826
 -85.8245
 -85.8276
 -85.8289
 -85.8285
 -85.8277
 -85.771
 -85.8215
 -85.8324
 -85.8335
 -85.8447
 -85.8452
 -85.845
 -85.8449
 -85.7972
 -85.8184
 -85.8194
 -85.8183
 -85.8562
 -85.8558
 -85.8559
 -85.8558
 -85.8279
 -85.8271
 -85.828
 -85.829
 -85.851
 -85.8504
 -85.8511
 -85.8502
 -85.8229
 -85.8242
 -85.8218
 -85.8196
 -85.821
 -85.8201
 -85.8477
 -85.8479
 -85.847
 -85.8479
 -85.833
 -85.8323
 -85.8315
 -85.8311
 -85.8058
 -85.8049
 -85.8064
 -85.8062
 -85.8437
 -85.8454
 -85.8448
 -85.8512
 -85.8522
 -85.8522
 -85.8512
 -85.8441
 -85.8438
 -85.8432
 -85.8439
 -85.8131
 -85.813
 -85.8151
 -85.8129
 -85.8159
 -85.8151
 -85.8153
 -85.8153
 -85.8479
 -85.8485
 -85.8484
 -85.8484
 -85.8212
 -85.8214
 -85.8202
 -85.8419
 -85.8419
 -85.8416
 -85.841
 -85.8076
 -85.8087
 -85.8071
 -85.8073
 -85.8341
 -85.8346
 -85.8331
 -85.8338
 -85.8071
 -85.8079
 -85.8072
 -85.8071
 -85.8298
 -85.8304
 -85.8294
 -85.8301
 -85.8429
 -85.8429
 -85.8438
 -85.8422
 -85.8048
 -85.8044
 -85.8053
 -85.8282
 -85.8292
 -85.8462
 -85.8458
 -85.8456
 -85.845
 -85.821
 -85.8203
 -85.8201
 -85.8059
 -85.805
 -85.8047
 -85.8051
 -85.8372
 -85.8376
 -85.8371
 -85.838
 -85.8342
 -85.8341
 -85.8358
 -85.8345
 -85.7758
 -85.7758
 -85.7772
 -85.7763
 -85.8271
 -85.8258
 -85.8265
 -85.7869
 -85.788
 -85.7884
 -85.8276
 -85.8273
 -85.8265
 -85.8274
 -85.8261
 -85.8043
 -85.8048
 -85.8028
 -85.8036
 -85.8233
 -85.8245
 -85.8247
 -85.8449
 -85.8448
 -85.8449
 -85.8444
 -85.8243
 -85.8249
 -85.8256
 -85.8255
 -85.8261
 -85.8258
 -85.8257
 -85.8552
 -85.855
 -85.8548
 -85.8543
 -85.8109
 -85.8132
 -85.8127
 -85.812
 -85.8027
 -85.8027
 -85.8033
 -85.8032
 -85.819
 -85.8187
 -85.8204
 -85.8192
 -85.8468
 -85.8469
 -85.8473
 -85.8461
 -85.775
 -85.7761
 -85.775
 -85.7768
 -85.8419
 -85.8407
 -85.8414
 -85.8414
 -85.8023
 -85.8015
 -85.8022
 -85.802
 -85.8448
 -85.8427
 -85.8433
 -85.8443
 -85.841
 -85.8404
 -85.8399
 -85.8405
 -85.8421
 -85.8425
 -85.8136
 -85.8128
 -85.8126
 -85.8134
 -85.8487
 -85.8487
 -85.8487
 -85.8402
 -85.8388
 -85.8393
 -85.8404
 -85.8119
 -85.813
 -85.8123
 -85.8113
 -85.818
 -85.8176
 -85.8189
 -85.7701
 -85.7701
 -85.7697
 -85.77
 -85.8256
 -85.8242
 -85.8259
 -85.8488
 -85.8495
 -85.8487
 -85.8484
 -85.8427
 -85.8419
 -85.8473
 -85.8483
 -85.8487
 -85.8477
 -85.8383
 -85.8384
 -85.8003
 -85.8005
 -85.7992
 -85.8013
 -85.8417
 -85.8417
 -85.8418
 -85.8407
 -85.8275
 -85.828
 -85.8178
 -85.8185
 -85.8182
 -85.8178
 -85.8441
 -85.8446
 -85.8448
 -85.8446
 -85.8142
 -85.8123
 -85.8125
 -85.8139
 -85.8481
 -85.8481
 -85.8489
 -85.8499
 -85.8314
 -85.8316
 -85.8305
 -85.8001
 -85.7996
 -85.7993
 -85.8
 -85.8351
 -85.835
 -85.8346
 -85.8339
 -85.811
 -85.8098
 -85.8096
 -85.809
 -85.8123
 -85.8108
 -85.8119
 -85.7738
 -85.7737
 -85.7739
 -85.7745
 -85.8042
 -85.8056
 -85.806
 -85.8046
 -85.8425
 -85.842
 -85.843
 -85.8419
 -85.8261
 -85.8265
 -85.8253
 -85.8193
 -85.8089
 -85.8095
 -85.8091
 -85.8097
 -85.8212
 -85.8202
 -85.821
 -85.8215
 -85.8389
 -85.8405
 -85.8406
 -85.8392
 -85.8072
 -85.8073
 -85.8094
 -85.7976
 -85.8311
 -85.8315
 -85.8303
 -85.8321
 -85.8093
 -85.8107
 -85.7848
 -85.7835
 -85.8086
 -85.8095
 -85.8086
 -85.8074
 -85.8388
 -85.8396
 -85.8461
 -85.846
 -85.8463
 -85.8459
 -85.8178
 -85.8189
 -85.8189
 -85.8189
 -85.8517
 -85.8519
 -85.8525
 -85.8519
 -85.8168
 -85.8171
 -85.8148
 -85.8148
 -85.8415
 -85.8417
 -85.8409
 -85.84
 -85.8123
 -85.8124
 -85.8129
 -85.8129
 -85.8413
 -85.8418
 -85.8406
 -85.8413
 -85.8214
 -85.8227
 -85.8496
 -85.8493
 -85.8376
 -85.8385
 -85.8374
 -85.8387
 -85.837
 -85.8366
 -85.8367
 -85.8379
 -85.8295
 -85.8289
 -85.83
 -85.8298
 -85.8412
 -85.8402
 -85.8416
 -85.8422
 -85.8118
 -85.8107
 -85.8113
 -85.8112
 -85.8491
 -85.8489
 -85.8487
 -85.85
 -85.8505
 -85.8497
 -85.8502
 -85.8072
 -85.8084
 -85.8084
 -85.8079
 -85.8379
 -85.8367
 -85.8368
 -85.8374
 -85.8057
 -85.807
 -85.807
 -85.8082
 -85.8286
 -85.8244
 -85.826
 -85.826
 -85.8246
 -85.8444
 -85.8444
 -85.8443
 -85.8434
 -85.7888
 -85.7877
 -85.7884
 -85.7897
 -85.8373
 -85.8379
 -85.8386
 -85.8377
 -85.827
 -85.828
 -85.8258
 -85.8267
 -85.8401
 -85.8393
 -85.8391
 -85.839
 -85.8353
 -85.8551
 -85.8549
 -85.8541
 -85.8545
 -85.8423
 -85.8425
 -85.8412
 -85.8414
 -85.7841
 -85.7846
 -85.7856
 -85.7839
 -85.8216
 -85.8204
 -85.8198
 -85.8208
 -85.8153
 -85.8279
 -85.828
 -85.8283
 -85.8292
 -85.8479
 -85.848
 -85.8471
 -85.8467
 -85.8449
 -85.8448
 -85.8459
 -85.8477
 -85.8461
 -85.8468
 -85.8465
 -85.7755
 -85.7759
 -85.8412
 -85.8408
 -85.8407
 -85.8142
 -85.8141
 -85.8138
 -85.8151
 -85.8391
 -85.8387
 -85.8392
 -85.8382
 -85.8295
 -85.8373
 -85.8362
 -85.8373
 -85.837
 -85.8495
 -85.848
 -85.8485
 -85.8494
 -85.8369
 -85.8377
 -85.8388
 -85.8371
 -85.8208
 -85.8213
 -85.8195
 -85.8222
 -85.8081
 -85.8083
 -85.8078
 -85.8085
 -85.8542
 -85.8534
 -85.8543
 -85.854
 -85.8393
 -85.8389
 -85.8396
 -85.8384
 -85.8535
 -85.8532
 -85.8533
 -85.8538
 -85.8145
 -85.8128
 -85.8146
 -85.8148
 -85.8287
 -85.8281
 -85.8495
 -85.8506
 -85.8495
 -85.85
 -85.8291
 -85.8293
 -85.8293
 -85.8305
 -85.8252
 -85.8263
 -85.8289
 -85.8292
 -85.8302
 -85.8289
 -85.8455
 -85.8455
 -85.8452
 -85.8462
 -85.8176
 -85.8162
 -85.8156
 -85.8169
 -85.7986
 -85.7995
 -85.7986
 -85.7986
 -85.8056
 -85.8051
 -85.8051
 -85.805
 -85.8161
 -85.8169
 -85.8171
 -85.8159
 -85.8219
 -85.8204
 -85.8214
 -85.8241
 -85.8223
 -85.8233
 -85.8236
 -85.8281
 -85.8274
 -85.8269
 -85.828
 -85.7983
 -85.7981
 -85.7986
 -85.8201
 -85.8191
 -85.8206
 -85.8203
 -85.8299
 -85.831
 -85.8309
 -85.8295
 -85.8129
 -85.8115
 -85.8133
 -85.8116
 -85.8168
 -85.8177
 -85.8176
 -85.8175
 -85.831
 -85.8309
 -85.8317
 -85.8325
 -85.8274
 -85.8263
 -85.8272
 -85.8269
 -85.838
 -85.8375
 -85.8378
 -85.8374
 -85.8046
 -85.805
 -85.8053
 -85.8438
 -85.8433
 -85.8444
 -85.8436
 -85.8131
 -85.8143
 -85.8133
 -85.8125
 -85.8223
 -85.8218
 -85.8211
 -85.8227
 -85.8243
 -85.8254
 -85.8256
 -85.8329
 -85.8329
 -85.8333
 -85.834
 -85.8365
 -85.8366
 -85.8373
 -85.836
 -85.8377
 -85.8382
 -85.8389
 -85.846
 -85.8463
 -85.8464
 -85.8364
 -85.8359
 -85.8352
 -85.8358
 -85.846
 -85.8464
 -85.8453
 -85.8488
 -85.8488
 -85.8487
 -85.848
 -85.8248
 -85.8226
 -85.824
 -85.8233
 -85.8148
 -85.814
 -85.8153
 -85.8143
 -85.8108
 -85.846
 -85.8456
 -85.847
 -85.8455
 -85.8462
 -85.8445
 -85.7729
 -85.7724
 -85.773
 -85.7736
 -85.8415
 -85.8406
 -85.822
 -85.8215
 -85.8229
 -85.8533
 -85.854
 -85.8334
 -85.8319
 -85.8323
 -85.8327
 -85.8212
 -85.8218
 -85.8218
 -85.8419
 -85.8437
 -85.8428
 -85.8433
 -85.8154
 -85.8158
 -85.8149
 -85.8164
 -85.781
 -85.7821
 -85.7818
 -85.7805
 -85.8321
 -85.8323
 -85.832
 -85.8332
 -85.8449
 -85.8466
 -85.8451
 -85.843
 -85.8428
 -85.8432
 -85.8424
 -85.8122
 -85.8106
 -85.8107
 -85.8099
 -85.8136
 -85.8146
 -85.8074
 -85.8084
 -85.807
 -85.853
 -85.8523
 -85.8442
 -85.8432
 -85.8442
 -85.8431
 -85.8286
 -85.83
 -85.8296
 -85.8412
 -85.8401
 -85.8421
 -85.8418
 -85.813
 -85.811
 -85.8114
 -85.8124
 -85.8263
 -85.8261
 -85.8273
 -85.8276
 -85.826
 -85.8268
 -85.8271
 -85.8261
 -85.8105
 -85.8111
 -85.8103
 -85.8142
 -85.8134
 -85.814
 -85.8138
 -85.8555
 -85.856
 -85.8556
 -85.8563
 -85.802
 -85.8003
 -85.8482
 -85.8488
 -85.8487
 -85.8481
 -85.8231
 -85.8243
 -85.8237
 -85.8231
 -85.8302
 -85.831
 -85.831
 -85.8311
 -85.8054
 -85.8062
 -85.8273
 -85.8265
 -85.8265
 -85.8257
 -85.8221
 -85.8217
 -85.8213
 -85.8225
 -85.8449
 -85.8448
 -85.8445
 -85.8451
 -85.8244
 -85.8254
 -85.8255
 -85.8241
 -85.8149
 -85.815
 -85.8344
 -85.8344
 -85.8337
 -85.8346
 -85.8391
 -85.8389
 -85.8397
 -85.8286
 -85.8298
 -85.8294
 -85.83
 -85.8095
 -85.8102
 -85.8091
 -85.8108
 -85.7801
 -85.7814
 -85.7812
 -85.7798
 -85.8253
 -85.8247
 -85.8259
 -85.827
 -85.8311
 -85.8324
 -85.8312
 -85.8312
 -85.8208
 -85.8214
 -85.8201
 -85.8204
 -85.8156
 -85.8149
 -85.8158
 -85.8164
 -85.8454
 -85.8461
 -85.8343
 -85.8337
 -85.8332
 -85.7915
 -85.7909
 -85.7901
 -85.7918
 -85.8114
 -85.8105
 -85.8118
 -85.8099
 -85.829
 -85.8292
 -85.8287
 -85.8281
 -85.8454
 -85.8457
 -85.8456
 -85.8232
 -85.8226
 -85.8212
 -85.8212
 -85.814
 -85.8156
 -85.8149
 -85.8139
 -85.8402
 -85.8389
 -85.8388
 -85.8396
 -85.8327
 -85.8324
 -85.8319
 -85.832
 -85.8426
 -85.8428
 -85.8427
 -85.8421
 -85.8422
 -85.8423
 -85.8421
 -85.8195
 -85.8198
 -85.8187
 -85.8183
 -85.8244
 -85.8238
 -85.825
 -85.7828
 -85.7831
 -85.7829
 -85.7821
 -85.8148
 -85.8149
 -85.8011
 -85.8003
 -85.8016
 -85.8024
 -85.8103
 -85.8063
 -85.8469
 -85.8154
 -85.8143
 -85.815
 -85.8138
 -85.8541
 -85.8342
 -85.8335
 -85.8341
 -85.8328
 -85.8149
 -85.8158
 -85.8152
 -85.8199
 -85.821
 -85.821
 -85.8436
 -85.8438
 -85.8426
 -85.8437
 -85.844
 -85.8434
 -85.8441
 -85.8434
 -85.8081
 -85.8065
 -85.8065
 -85.8075
 -85.8506
 -85.8506
 -85.8512
 -85.8501
 -85.8264
 -85.8255
 -85.8244
 -85.8437
 -85.8443
 -85.844
 -85.8305
 -85.8294
 -85.8298
 -85.8307
 -85.8155
 -85.8162
 -85.8148
 -85.8151
 -85.8313
 -85.8329
 -85.8312
 -85.817
 -85.8176
 -85.8176
 -85.8164
 -85.823
 -85.8246
 -85.8444
 -85.8451
 -85.8453
 -85.8461
 -85.847
 -85.8481
 -85.8474
 -85.8472
 -85.8098
 -85.811
 -85.8095
 -85.8107
 -85.8391
 -85.8378
 -85.8386
 -85.8395
 -85.8334
 -85.8317
 -85.833
 -85.834
 -85.8211
 -85.82
 -85.8217
 -85.8208
 -85.8457
 -85.8452
 -85.845
 -85.8444
 -85.8234
 -85.8222
 -85.8242
 -85.8235
 -85.8267
 -85.826
 -85.826
 -85.8277
 -85.823
 -85.8222
 -85.8233
 -85.8234
 -85.8116
 -85.8129
 -85.8084
 -85.8093
 -85.8101
 -85.8086
 -85.7987
 -85.7968
 -85.7984
 -85.7988
 -85.8338
 -85.8337
 -85.8334
 -85.8347
 -85.8316
 -85.8307
 -85.8305
 -85.8515
 -85.8517
 -85.8517
 -85.8517
 -85.8528
 -85.8534
 -85.8525
 -85.8482
 -85.8487
 -85.8475
 -85.8307
 -85.832
 -85.8327
 -85.8311
 -85.8373
 -85.8379
 -85.8384
 -85.8367
 -85.8444
 -85.8452
 -85.8447
 -85.8454
 -85.8162
 -85.815
 -85.8153
 -85.8159
 -85.8023
 -85.8032
 -85.8039
 -85.8039
 -85.8536
 -85.8538
 -85.853
 -85.8544
 -85.8133
 -85.813
 -85.8123
 -85.8135
 -85.8288
 -85.8287
 -85.8293
 -85.8284
 -85.854
 -85.854
 -85.8531
 -85.8546
 -85.8342
 -85.833
 -85.8345
 -85.8341
 -85.8223
 -85.8217
 -85.8224
 -85.8218
 -85.8141
 -85.8132
 -85.8133
 -85.8063
 -85.8076
 -85.8068
 -85.8061
 -85.8105
 -85.8101
 -85.8107
 -85.81
 -85.809
 -85.8087
 -85.8124
 -85.8132
 -85.811
 -85.8421
 -85.8414
 -85.8413
 -85.8412
 -85.8508
 -85.8504
 -85.8505
 -85.8505
 -85.8364
 -85.8359
 -85.8364
 -85.835
 -85.8239
 -85.8462
 -85.8466
 -85.8465
 -85.8458
 -85.8072
 -85.8072
 -85.807
 -85.8069
 -85.8516
 -85.852
 -85.8514
 -85.8524
 -85.8185
 -85.8178
 -85.8194
 -85.839
 -85.8064
 -85.8063
 -85.8053
 -85.8116
 -85.8108
 -85.81
 -85.812
 -85.8282
 -85.8281
 -85.8264
 -85.8277
 -85.8408
 -85.8408
 -85.84
 -85.8416
 -85.8238
 -85.8388
 -85.8382
 -85.8381
 -85.8245
 -85.8243
 -85.8246
 -85.8258
 -85.8172
 -85.8175
 -85.8166
 -85.8165
 -85.82
 -85.8187
 -85.8196
 -85.82
 -85.8392
 -85.813
 -85.8133
 -85.8138
 -85.8417
 -85.841
 -85.8421
 -85.8414
 -85.8457
 -85.8455
 -85.8466
 -85.8451
 -85.85
 -85.8504
 -85.8499
 -85.8166
 -85.8167
 -85.8159
 -85.8166
 -85.8037
 -85.803
 -85.8037
 -85.8433
 -85.8433
 -85.8452
 -85.8449
 -85.8444
 -85.8444
 -85.8243
 -85.8247
 -85.8253
 -85.8522
 -85.8521
 -85.8527
 -85.852
 -85.8455
 -85.8452
 -85.8456
 -85.8459
 -85.8352
 -85.8353
 -85.8359
 -85.8362
 -85.8296
 -85.8299
 -85.8292
 -85.8282
 -85.814
 -85.8139
 -85.8135
 -85.8144
 -85.8451
 -85.8451
 -85.8445
 -85.8457
 -85.8174
 -85.8178
 -85.8162
 -85.8206
 -85.8216
 -85.8219
 -85.822
 -85.8503
 -85.8501
 -85.8511
 -85.8507
 -85.8383
 -85.8383
 -85.8382
 -85.8376
 -85.8527
 -85.8522
 -85.8515
 -85.8525
 -85.8193
 -85.8201
 -85.8206
 -85.8204
 -85.829
 -85.8293
 -85.8282
 -85.8301
 -85.8475
 -85.8473
 -85.848
 -85.8476
 -85.8279
 -85.8288
 -85.8273
 -85.8276
 -85.8529
 -85.8535
 -85.8529
 -85.8157
 -85.8152
 -85.8152
 -85.8154
 -85.8315
 -85.8316
 -85.831
 -85.8304
 -85.834
 -85.8349
 -85.834
 -85.8343
 -85.8262
 -85.8256
 -85.8274
 -85.826
 -85.8458
 -85.8459
 -85.8468
 -85.8461
 -85.8255
 -85.8242
 -85.8249
 -85.8246
 -85.8339
 -85.8335
 -85.8335
 -85.8331
 -85.8066
 -85.8066
 -85.8064
 -85.8066
 -85.8431
 -85.8433
 -85.8425
 -85.842
 -85.8052
 -85.8051
 -85.8052
 -85.8139
 -85.8134
 -85.8134
 -85.8141
 -85.8087
 -85.8094
 -85.8116
 -85.8097
 -85.8401
 -85.8399
 -85.8406
 -85.8411
 -85.8364
 -85.8377
 -85.8366
 -85.8369
 -85.8182
 -85.8171
 -85.8172
 -85.8164
 -85.855
 -85.8546
 -85.8541
 -85.7833
 -85.783
 -85.8335
 -85.8342
 -85.8329
 -85.8336
 -85.7947
 -85.7932
 -85.7917
 -85.793
 -85.8363
 -85.8366
 -85.8377
 -85.8371
 -85.8211
 -85.8179
 -85.8173
 -85.8171
 -85.8163
 -85.8414
 -85.8415
 -85.8418
 -85.8422
 -85.8481
 -85.8475
 -85.8486
 -85.8478
 -85.8066
 -85.8065
 -85.8386
 -85.8392
 -85.8407
 -85.8391
 -85.831
 -85.829
 -85.8314
 -85.8302
 -85.8135
 -85.8134
 -85.8128
 -85.815
 -85.8255
 -85.8243
 -85.8242
 -85.8255
 -85.8444
 -85.8433
 -85.8456
 -85.8512
 -85.8509
 -85.851
 -85.8508
 -85.8537
 -85.8538
 -85.8541
 -85.8184
 -85.8178
 -85.8179
 -85.8188
 -85.8483
 -85.8479
 -85.8475
 -85.8474
 -85.8094
 -85.8086
 -85.8089
 -85.8091
 -85.8361
 -85.8356
 -85.8362
 -85.8348
 -85.831
 -85.8323
 -85.8312
 -85.8312
 -85.8511
 -85.8511
 -85.851
 -85.8515
 -85.8377
 -85.8381
 -85.8375
 -85.8368
 -85.7906
 -85.7899
 -85.7897
 -85.7907
 -85.8236
 -85.8217
 -85.8234
 -85.8223
 -85.8181
 -85.8195
 -85.8196
 -85.8179
 -85.8407
 -85.8409
 -85.84
 -85.8395
 -85.8105
 -85.8098
 -85.8095
 -85.8096
 -85.833
 -85.8321
 -85.832
 -85.8333
 -85.8163
 -85.8158
 -85.8152
 -85.8016
 -85.8009
 -85.8007
 -85.8005
 -85.8329
 -85.834
 -85.8325
 -85.8353
 -85.8352
 -85.8347
 -85.8131
 -85.8122
 -85.8114
 -85.8096
 -85.8095
 -85.81
 -85.8104
 -85.8478
 -85.7716
 -85.7721
 -85.772
 -85.771
 -85.8456
 -85.8451
 -85.8462
 -85.8455
 -85.8065
 -85.8202
 -85.8199
 -85.8198
 -85.8211
 -85.8181
 -85.8173
 -85.8197
 -85.8115
 -85.8132
 -85.8124
 -85.8119
 -85.7925
 -85.7922
 -85.7932
 -85.7912
 -85.8092
 -85.8099
 -85.8098
 -85.8298
 -85.8292
 -85.8292
 -85.8184
 -85.818
 -85.8557
 -85.855
 -85.8549
 -85.8088
 -85.8099
 -85.8084
 -85.8191
 -85.82
 -85.8205
 -85.8482
 -85.849
 -85.849
 -85.8415
 -85.8415
 -85.8423
 -85.8416
 -85.8133
 -85.8138
 -85.8143
 -85.805
 -85.8039
 -85.8508
 -85.8504
 -85.8513
 -85.851
 -85.7964
 -85.797
 -85.7952
 -85.7979
 -85.8086
 -85.8082
 -85.78
 -85.7789
 -85.7868
 -85.7866
 -85.7871
 -85.8198
 -85.8208
 -85.8195
 -85.8501
 -85.8493
 -85.8486
 -85.8382
 -85.8381
 -85.839
 -85.8146
 -85.8146
 -85.8157
 -85.8164
 -85.8153
 -85.8472
 -85.8048
 -85.8047
 -85.8052
 -85.8052
 -85.8186
 -85.8207
 -85.8191
 -85.8194
 -85.8406
 -85.8405
 -85.8412
 -85.8378
 -85.838
 -85.8373
 -85.8376
 -85.8199
 -85.8194
 -85.8206
 -85.8216
 -85.8393
 -85.8395
 -85.8406
 -85.8404
 -85.8419
 -85.8413
 -85.8418
 -85.8427
 -85.8265
 -85.8388
 -85.8393
 -85.8394
 -85.8398
 -85.8525
 -85.8529
 -85.8524
 -85.8521
 -85.8111
 -85.8091
 -85.8087
 -85.8101
 -85.851
 -85.8518
 -85.8514
 -85.8513
 -85.7786
 -85.7794
 -85.7783
 -85.8499
 -85.8494
 -85.8507
 -85.8504
 -85.8118
 -85.8116
 -85.8104
 -85.8105
 -85.8438
 -85.8428
 -85.8436
 -85.8442
 -85.8088
 -85.8089
 -85.8064
 -85.807
 -85.8525
 -85.8437
 -85.8425
 -85.8431
 -85.8422
 -85.8478
 -85.8484
 -85.8483
 -85.805
 -85.8056
 -85.8047
 -85.8044
 -85.8398
 -85.8392
 -85.8391
 -85.8385
 -85.8326
 -85.8338
 -85.8339
 -85.8333
 -85.8308
 -85.8313
 -85.8302
 -85.8299
 -85.8548
 -85.8541
 -85.8218
 -85.8218
 -85.8216
 -85.82
 -85.821
 -85.8215
 -85.822
 -85.8393
 -85.8384
 -85.8401
 -85.8404
 -85.8383
 -85.8388
 -85.8387
 -85.8396
 -85.8335
 -85.8338
 -85.8344
 -85.8331
 -85.8126
 -85.8125
 -85.8161
 -85.8154
 -85.8153
 -85.8193
 -85.8202
 -85.8201
 -85.8203
 -85.8022
 -85.8011
 -85.8016
 -85.8015
 -85.8188
 -85.8177
 -85.8167
 -85.7921
 -85.7922
 -85.7934
 -85.8188
 -85.8188
 -85.8178
 -85.8196
 -85.812
 -85.8134
 -85.8114
 -85.8257
 -85.84
 -85.8394
 -85.8407
 -85.8217
 -85.8215
 -85.8224
 -85.823
 -85.8081
 -85.8081
 -85.8109
 -85.8095
 -85.8274
 -85.8284
 -85.8286
 -85.8286
 -85.843
 -85.8424
 -85.8549
 -85.8545
 -85.8541
 -85.8549
 -85.8397
 -85.8397
 -85.8403
 -85.8389
 -85.8232
 -85.823
 -85.8229
 -85.8236
 -85.8523
 -85.8525
 -85.8536
 -85.8519
 -85.852
 -85.8523
 -85.8525
 -85.8284
 -85.8273
 -85.8266
 -85.8279
 -85.8079
 -85.8075
 -85.8083
 -85.8219
 -85.8218
 -85.8232
 -85.8219
 -85.8036
 -85.8023
 -85.8039
 -85.8021
 -85.8363
 -85.8363
 -85.8366
 -85.8341
 -85.8068
 -85.8068
 -85.8068
 -85.8071
 -85.8135
 -85.8142
 -85.8145
 -85.814
 -85.8503
 -85.8494
 -85.8506
 -85.8496
 -85.828
 -85.8281
 -85.8271
 -85.8282
 -85.8185
 -85.8178
 -85.8188
 -85.8179
 -85.8411
 -85.8412
 -85.8421
 -85.8436
 -85.8431
 -85.8429
 -85.8206
 -85.822
 -85.8214
 -85.8231
 -85.8236
 -85.8244
 -85.8239
 -85.8239
 -85.8081
 -85.8088
 -85.8079
 -85.8197
 -85.8189
 -85.8182
 -85.7747
 -85.7736
 -85.7746
 -85.7739
 -85.8144
 -85.8148
 -85.8047
 -85.8054
 -85.8048
 -85.8036
 -85.8313
 -85.8301
 -85.8312
 -85.8299
 -85.7928
 -85.7945
 -85.795
 -85.7938
 -85.8111
 -85.8108
 -85.8098
 -85.8374
 -85.8377
 -85.8375
 -85.837
 -85.8104
 -85.8114
 -85.81
 -85.8074
 -85.8075
 -85.8062
 -85.8066
 -85.8186
 -85.8181
 -85.8182
 -85.8194
 -85.8416
 -85.8439
 -85.7865
 -85.7871
 -85.8134
 -85.8126
 -85.8239
 -85.8228
 -85.8233
 -85.823
 -85.836
 -85.837
 -85.8361
 -85.8373
 -85.8257
 -85.8259
 -85.8265
 -85.8267
 -85.8041
 -85.8021
 -85.8035
 -85.8031
 -85.8319
 -85.8308
 -85.8312
 -85.8081
 -85.8075
 -85.808
 -85.8079
 -85.8483
 -85.8481
 -85.8489
 -85.8477
 -85.8367
 -85.8367
 -85.8369
 -85.8357
 -85.8093
 -85.81
 -85.809
 -85.8232
 -85.8218
 -85.8231
 -85.8237
 -85.8044
 -85.8041
 -85.8046
 -85.8104
 -85.8117
 -85.8113
 -85.8106
 -85.8102
 -85.81
 -85.8111
 -85.8104
 -85.8228
 -85.8217
 -85.8215
 -85.821
 -85.8524
 -85.8521
 -85.8516
 -85.8518
 -85.8336
 -85.8349
 -85.8344
 -85.8347
 -85.8219
 -85.8205
 -85.8215
 -85.829
 -85.8285
 -85.8284
 -85.8475
 -85.8463
 -85.8474
 -85.8467
 -85.8338
 -85.8338
 -85.8329
 -85.8344
 -85.8209
 -85.822
 -85.8221
 -85.8222
 -85.8022
 -85.8024
 -85.8091
 -85.8086
 -85.8096
 -85.8096
 -85.783
 -85.7824
 -85.781
 -85.7827
 -85.8406
 -85.8407
 -85.8407
 -85.8402
 -85.8114
 -85.8102
 -85.8106
 -85.8105
 -85.826
 -85.825
 -85.8256
 -85.8242
 -85.7998
 -85.7992
 -85.7994
 -85.7991
 -85.8296
 -85.8292
 -85.8287
 -85.8287
 -85.823
 -85.839
 -85.8388
 -85.8377
 -85.838
 -85.8212
 -85.8197
 -85.8194
 -85.8207
 -85.82
 -85.8208
 -85.8216
 -85.8211
 -85.8171
 -85.8159
 -85.8162
 -85.8158
 -85.8086
 -85.8074
 -85.8093
 -85.8443
 -85.8444
 -85.8447
 -85.8429
 -85.8202
 -85.8199
 -85.8199
 -85.8194
 -85.8432
 -85.8436
 -85.8444
 -85.8372
 -85.8363
 -85.8369
 -85.8366
 -85.8417
 -85.8432
 -85.8425
 -85.8434
 -85.8059
 -85.8071
 -85.8057
 -85.7709
 -85.7714
 -85.7716
 -85.8378
 -85.8391
 -85.8389
 -85.8298
 -85.8317
 -85.8308
 -85.8321
 -85.8185
 -85.8189
 -85.8194
 -85.8183
 -85.822
 -85.8223
 -85.8208
 -85.8211
 -85.7894
 -85.7903
 -85.7881
 -85.7905
 -85.8261
 -85.8256
 -85.8254
 -85.8253
 -85.8327
 -85.833
 -85.8337
 -85.8322
 -85.8113
 -85.8115
 -85.8142
 -85.8122
 -85.8131
 -85.8133
 -85.8379
 -85.8371
 -85.8377
 -85.8376
 -85.8108
 -85.8117
 -85.834
 -85.8335
 -85.8046
 -85.7733
 -85.7731
 -85.7732
 -85.7741
 -85.7994
 -85.8008
 -85.8536
 -85.8543
 -85.8537
 -85.8024
 -85.8035
 -85.8045
 -85.8035
 -85.8392
 -85.8391
 -85.8135
 -85.8132
 -85.8134
 -85.8135
 -85.817
 -85.819
 -85.8183
 -85.8391
 -85.8398
 -85.8393
 -85.8405
 -85.8347
 -85.8358
 -85.8347
 -85.8352
 -85.8453
 -85.8455
 -85.8465
 -85.8221
 -85.821
 -85.8222
 -85.8207
 -85.8258
 -85.8455
 -85.8443
 -85.8453
 -85.8451
 -85.8052
 -85.8049
 -85.8055
 -85.8059
 -85.8284
 -85.8273
 -85.8283
 -85.8271
 -85.8407
 -85.8394
 -85.8404
 -85.8396
 -85.7792
 -85.7796
 -85.7802
 -85.7804
 -85.8094
 -85.8524
 -85.8194
 -85.8209
 -85.8199
 -85.8188
 -85.8278
 -85.8287
 -85.8274
 -85.8271
 -85.8117
 -85.8102
 -85.8111
 -85.8114
 -85.8299
 -85.8294
 -85.8299
 -85.8301
 -85.8086
 -85.8087
 -85.8096
 -85.8071
 -85.8079
 -85.8087
 -85.8079
 -85.8215
 -85.8226
 -85.8207
 -85.8217
 -85.8408
 -85.8415
 -85.8396
 -85.8549
 -85.8556
 -85.855
 -85.8547
 -85.7888
 -85.7877
 -85.7874
 -85.8248
 -85.8249
 -85.8224
 -85.823
 -85.8217
 -85.8235
 -85.8494
 -85.8492
 -85.8493
 -85.8498
 -85.8378
 -85.837
 -85.8376
 -85.8367
 -85.8084
 -85.8101
 -85.809
 -85.7968
 -85.821
 -85.8199
 -85.8202
 -85.8211
 -85.8236
 -85.8242
 -85.8239
 -85.8369
 -85.8364
 -85.8364
 -85.8372
 -85.8414
 -85.8401
 -85.841
 -85.8405
 -85.8198
 -85.8191
 -85.8384
 -85.8383
 -85.8389
 -85.8396
 -85.8307
 -85.8303
 -85.8305
 -85.8315
 -85.8517
 -85.852
 -85.833
 -85.8319
 -85.8331
 -85.8325
 -85.8385
 -85.839
 -85.8393
 -85.8396
 -85.8368
 -85.8375
 -85.8368
 -85.8369
 -85.8251
 -85.8256
 -85.8217
 -85.8224
 -85.8214
 -85.8207
 -85.8164
 -85.8154
 -85.816
 -85.8161
 -85.8304
 -85.8312
 -85.8312
 -85.8305
 -85.8076
 -85.8085
 -85.8091
 -85.8096
 -85.8116
 -85.8112
 -85.8108
 -85.8112
 -85.7856
 -85.7863
 -85.786
 -85.7847
 -85.8163
 -85.8146
 -85.829
 -85.8274
 -85.8288
 -85.8281
 -85.8196
 -85.8191
 -85.82
 -85.8207
 -85.827
 -85.8278
 -85.8282
 -85.8275
 -85.8225
 -85.8225
 -85.8388
 -85.8383
 -85.8534
 -85.8536
 -85.8536
 -85.8538
 -85.8034
 -85.8218
 -85.8218
 -85.8222
 -85.8229
 -85.8269
 -85.8257
 -85.826
 -85.8261
 -85.8143
 -85.8136
 -85.8132
 -85.8123
 -85.8365
 -85.8352
 -85.8364
 -85.8353
 -85.8277
 -85.8269
 -85.8265
 -85.8276
 -85.8084
 -85.8081
 -85.8089
 -85.8075
 -85.8071
 -85.8183
 -85.8198
 -85.8183
 -85.8194
 -85.818
 -85.8198
 -85.8184
 -85.8178
 -85.8088
 -85.8088
 -85.8079
 -85.8088
 -85.8117
 -85.8122
 -85.8137
 -85.8131
 -85.8226
 -85.8236
 -85.8219
 -85.8218
 -85.8089
 -85.8084
 -85.808
 -85.8083
 -85.8294
 -85.8299
 -85.8283
 -85.8146
 -85.8145
 -85.8143
 -85.8141
 -85.7944
 -85.7954
 -85.8289
 -85.8295
 -85.8299
 -85.828
 -85.8294
 -85.8288
 -85.8294
 -85.8052
 -85.806
 -85.8065
 -85.8021
 -85.8027
 -85.8026
 -85.8021
 -85.8337
 -85.8336
 -85.8342
 -85.833
 -85.828
 -85.8264
 -85.8281
 -85.8428
 -85.8413
 -85.8419
 -85.8242
 -85.8232
 -85.8235
 -85.8453
 -85.8454
 -85.8454
 -85.7824
 -85.7815
 -85.7817
 -85.7824
 -85.8518
 -85.852
 -85.8516
 -85.852
 -85.8162
 -85.8153
 -85.8306
 -85.8294
 -85.8082
 -85.8084
 -85.8083
 -85.8093
 -85.8323
 -85.832
 -85.8333
 -85.8395
 -85.8404
 -85.8402
 -85.8404
 -85.845
 -85.8437
 -85.8054
 -85.8055
 -85.8051
 -85.8293
 -85.8291
 -85.8281
 -85.813
 -85.8119
 -85.8131
 -85.8055
 -85.8054
 -85.8049
 -85.8046
 -85.8211
 -85.8214
 -85.8203
 -85.8218
 -85.8196
 -85.8183
 -85.8187
 -85.8193
 -85.8355
 -85.8351
 -85.835
 -85.8362
 -85.8392
 -85.8386
 -85.8391
 -85.838
 -85.818
 -85.8178
 -85.819
 -85.8337
 -85.8335
 -85.8328
 -85.8374
 -85.8383
 -85.8376
 -85.8378
 -85.856
 -85.8557
 -85.8561
 -85.8256
 -85.8253
 -85.8252
 -85.8366
 -85.8371
 -85.8358
 -85.824
 -85.8248
 -85.8234
 -85.8154
 -85.8141
 -85.8143
 -85.8057
 -85.8063
 -85.806
 -85.8062
 -85.8243
 -85.8239
 -85.8251
 -85.8242
 -85.813
 -85.8125
 -85.8116
 -85.8081
 -85.8092
 -85.8362
 -85.8355
 -85.8371
 -85.8362
 -85.8363
 -85.837
 -85.836
 -85.8351
 -85.8091
 -85.8102
 -85.8107
 -85.8111
 -85.8084
 -85.8074
 -85.8079
 -85.8072
 -85.7985
 -85.7979
 -85.7985
 -85.7975
 -85.8488
 -85.8492
 -85.8439
 -85.8428
 -85.8433
 -85.844
 -85.8515
 -85.8148
 -85.816
 -85.8146
 -85.8264
 -85.8269
 -85.8259
 -85.8257
 -85.8091
 -85.809
 -85.8231
 -85.823
 -85.8238
 -85.8042
 -85.8046
 -85.8424
 -85.8426
 -85.8435
 -85.8419
 -85.8459
 -85.8457
 -85.8471
 -85.8465
 -85.8404
 -85.8407
 -85.8396
 -85.816
 -85.8169
 -85.8168
 -85.8451
 -85.845
 -85.8454
 -85.8456
 -85.8128
 -85.8113
 -85.8124
 -85.813
 -85.8413
 -85.8406
 -85.8406
 -85.8413
 -85.8131
 -85.8117
 -85.8114
 -85.8137
 -85.8063
 -85.8068
 -85.8057
 -85.8517
 -85.8529
 -85.8522
 -85.852
 -85.8072
 -85.8077
 -85.8075
 -85.8209
 -85.8215
 -85.8224
 -85.8215
 -85.8499
 -85.8507
 -85.8503
 -85.8127
 -85.8117
 -85.8127
 -85.812
 -85.8335
 -85.8481
 -85.8486
 -85.8469
 -85.848
 -85.804
 -85.8044
 -85.8049
 -85.8043
 -85.8369
 -85.8352
 -85.8364
 -85.837
 -85.8258
 -85.8262
 -85.8245
 -85.8063
 -85.8056
 -85.8067
 -85.804
 -85.8347
 -85.8345
 -85.8352
 -85.8116
 -85.8112
 -85.7838
 -85.7826
 -85.7841
 -85.7846
 -85.799
 -85.7965
 -85.7962
 -85.8456
 -85.8451
 -85.8474
 -85.8462
 -85.846
 -85.8465
 -85.8011
 -85.8017
 -85.8002
 -85.8019
 -85.8195
 -85.8201
 -85.8201
 -85.8203
 -85.823
 -85.8215
 -85.8216
 -85.8222
 -85.8284
 -85.828
 -85.8293
 -85.8281
 -85.8292
 -85.8274
 -85.8286
 -85.8278
 -85.8498
 -85.8082
 -85.8078
 -85.8083
 -85.808
 -85.8504
 -85.8499
 -85.8508
 -85.8302
 -85.829
 -85.8286
 -85.8289
 -85.8055
 -85.8067
 -85.807
 -85.8273
 -85.8263
 -85.8271
 -85.8262
 -85.8244
 -85.8352
 -85.8356
 -85.8367
 -85.8363
 -85.8135
 -85.8134
 -85.8134
 -85.8247
 -85.8267
 -85.826
 -85.8506
 -85.8501
 -85.8494
 -85.8501
 -85.8236
 -85.823
 -85.8228
 -85.7793
 -85.7799
 -85.7785
 -85.8235
 -85.8227
 -85.8233
 -85.8217
 -85.8359
 -85.8369
 -85.8367
 -85.8256
 -85.8256
 -85.8453
 -85.8457
 -85.8448
 -85.8449
 -85.8405
 -85.8413
 -85.8408
 -85.8407
 -85.8527
 -85.8525
 -85.852
 -85.8516
 -85.8288
 -85.8266
 -85.8282
 -85.8287
 -85.8383
 -85.838
 -85.8376
 -85.8371
 -85.8453
 -85.846
 -85.8465
 -85.8121
 -85.8127
 -85.811
 -85.8117
 -85.8221
 -85.8233
 -85.8173
 -85.8166
 -85.8176
 -85.8171
 -85.836
 -85.8357
 -85.8359
 -85.8365
 -85.8235
 -85.8246
 -85.8242
 -85.8232
 -85.8354
 -85.8349
 -85.8364
 -85.8351
 -85.8252
 -85.8256
 -85.8263
 -85.8265
 -85.8242
 -85.8231
 -85.8234
 -85.8443
 -85.8436
 -85.8442
 -85.8487
 -85.8485
 -85.8483
 -85.8497
 -85.8468
 -85.8467
 -85.8474
 -85.8386
 -85.8398
 -85.8388
 -85.7878
 -85.7875
 -85.7865
 -85.822
 -85.8234
 -85.8223
 -85.8436
 -85.8441
 -85.8436
 -85.8435
 -85.8219
 -85.8224
 -85.8218
 -85.8291
 -85.8298
 -85.8295
 -85.8286
 -85.8335
 -85.8311
 -85.832
 -85.8318
 -85.8243
 -85.8252
 -85.8251
 -85.826
 -85.8102
 -85.8109
 -85.8103
 -85.8098
 -85.8224
 -85.8291
 -85.8291
 -85.8297
 -85.8276
 -85.8071
 -85.8074
 -85.8076
 -85.8075
 -85.8058
 -85.8067
 -85.806
 -85.8066
 -85.8085
 -85.8089
 -85.8088
 -85.8081
 -85.834
 -85.8339
 -85.8351
 -85.8357
 -85.8121
 -85.8114
 -85.8118
 -85.8121
 -85.8524
 -85.8516
 -85.8523
 -85.8517
 -85.7964
 -85.7971
 -85.798
 -85.7978
 -85.811
 -85.8111
 -85.8108
 -85.8037
 -85.8029
 -85.8026
 -85.8027
 -85.8073
 -85.8067
 -85.8081
 -85.808
 -85.8082
 -85.8263
 -85.8261
 -85.8268
 -85.8285
 -85.849
 -85.8482
 -85.8478
 -85.8488
 -85.8486
 -85.8491
 -85.8483
 -85.8095
 -85.8088
 -85.8512
 -85.8519
 -85.8511
 -85.8444
 -85.8443
 -85.8444
 -85.8452
 -85.8074
 -85.8069
 -85.8073
 -85.8521
 -85.8524
 -85.8517
 -85.8526
 -85.8167
 -85.817
 -85.8178
 -85.816
 -85.8088
 -85.8074
 -85.808
 -85.809
 -85.8033
 -85.8048
 -85.8042
 -85.8039
 -85.792
 -85.7923
 -85.7913
 -85.7913
 -85.8317
 -85.8336
 -85.8327
 -85.8332
 -85.8179
 -85.818
 -85.8175
 -85.8161
 -85.8517
 -85.8511
 -85.8517
 -85.7776
 -85.7791
 -85.7782
 -85.7797
 -85.7988
 -85.8001
 -85.7993
 -85.8005
 -85.8516
 -85.8526
 -85.8521
 -85.852
 -85.825
 -85.8251
 -85.8262
 -85.8465
 -85.8476
 -85.8479
 -85.8092
 -85.809
 -85.8075
 -85.8519
 -85.8514
 -85.8512
 -85.8516
 -85.8443
 -85.8438
 -85.8435
 -85.8428
 -85.8136
 -85.8143
 -85.8151
 -85.8141
 -85.8179
 -85.8167
 -85.8177
 -85.8163
 -85.841
 -85.841
 -85.8411
 -85.8422
 -85.8278
 -85.8272
 -85.8264
 -85.8269
 -85.7946
 -85.7959
 -85.796
 -85.7957
 -85.8454
 -85.8437
 -85.8448
 -85.8443
 -85.8528
 -85.826
 -85.8263
 -85.8271
 -85.827
 -85.8482
 -85.8488
 -85.8485
 -85.8494
 -85.8073
 -85.8073
 -85.8075
 -85.8075
 -85.851
 -85.8516
 -85.8507
 -85.8504
 -85.8237
 -85.8233
 -85.8184
 -85.8178
 -85.8187
 -85.819
 -85.8401
 -85.839
 -85.8389
 -85.839
 -85.8291
 -85.8303
 -85.83
 -85.8176
 -85.8174
 -85.8179
 -85.8406
 -85.8404
 -85.8394
 -85.8395
 -85.8378
 -85.8372
 -85.8383
 -85.8374
 -85.8097
 -85.809
 -85.8088
 -85.8244
 -85.8268
 -85.8269
 -85.8253
 -85.7966
 -85.7961
 -85.7975
 -85.7957
 -85.7945
 -85.8519
 -85.8503
 -85.8519
 -85.8508
 -85.8263
 -85.8257
 -85.8251
 -85.8263
 -85.8463
 -85.8469
 -85.8215
 -85.8197
 -85.8199
 -85.8128
 -85.8118
 -85.8134
 -85.8131
 -85.8512
 -85.8509
 -85.8516
 -85.8516
 -85.8086
 -85.8088
 -85.8087
 -85.8135
 -85.8132
 -85.8141
 -85.8133
 -85.8172
 -85.8186
 -85.8176
 -85.8161
 -85.8357
 -85.8375
 -85.8362
 -85.8368
 -85.8115
 -85.813
 -85.8122
 -85.812
 -85.8392
 -85.832
 -85.8333
 -85.8337
 -85.8317
 -85.8485
 -85.8488
 -85.8478
 -85.8504
 -85.8501
 -85.85
 -85.8494
 -85.8329
 -85.8336
 -85.8323
 -85.833
 -85.8538
 -85.8537
 -85.8536
 -85.8528
 -85.8174
 -85.83
 -85.8284
 -85.8284
 -85.8295
 -85.8265
 -85.8246
 -85.8256
 -85.8259
 -85.7923
 -85.7937
 -85.7942
 -85.7927
 -85.8228
 -85.8232
 -85.8236
 -85.8222
 -85.821
 -85.8211
 -85.8214
 -85.8221
 -85.8218
 -85.822
 -85.823
 -85.8465
 -85.8458
 -85.8454
 -85.8209
 -85.8195
 -85.8199
 -85.8204
 -85.8453
 -85.8466
 -85.846
 -85.8248
 -85.8239
 -85.8275
 -85.8283
 -85.8279
 -85.8272
 -85.8269
 -85.8272
 -85.8258
 -85.8261
 -85.8276
 -85.8271
 -85.8476
 -85.848
 -85.848
 -85.8176
 -85.8498
 -85.8291
 -85.8299
 -85.8289
 -85.8279
 -85.8072
 -85.8072
 -85.8059
 -85.81
 -85.8112
 -85.8118
 -85.8272
 -85.8277
 -85.8264
 -85.8238
 -85.8238
 -85.8243
 -85.825
 -85.8264
 -85.8254
 -85.8271
 -85.8256
 -85.7783
 -85.7786
 -85.7773
 -85.8406
 -85.8396
 -85.8404
 -85.8237
 -85.8241
 -85.8431
 -85.8418
 -85.8422
 -85.8417
 -85.8306
 -85.8316
 -85.8306
 -85.7927
 -85.7932
 -85.7915
 -85.7921
 -85.8207
 -85.8194
 -85.8205
 -85.8194
 -85.8106
 -85.8101
 -85.8096
 -85.8093
 -85.8352
 -85.8337
 -85.8347
 -85.8352
 -85.8158
 -85.8146
 -85.8156
 -85.814
 -85.7965
 -85.7962
 -85.7963
 -85.8174
 -85.817
 -85.8164
 -85.8167
 -85.8354
 -85.8366
 -85.836
 -85.8362
 -85.8251
 -85.8264
 -85.8265
 -85.8259
 -85.8123
 -85.8118
 -85.8124
 -85.8197
 -85.8187
 -85.8191
 -85.819
 -85.8102
 -85.809
 -85.8103
 -85.8093
 -85.8042
 -85.8057
 -85.8053
 -85.8038
 -85.8511
 -85.8515
 -85.8511
 -85.8515
 -85.809
 -85.8098
 -85.8096
 -85.8098
 -85.8117
 -85.8109
 -85.812
 -85.8119
 -85.8335
 -85.8348
 -85.8345
 -85.8353
 -85.8165
 -85.8163
 -85.8175
 -85.8169
 -85.8554
 -85.8556
 -85.8555
 -85.8557
 -85.822
 -85.8214
 -85.8224
 -85.8064
 -85.8056
 -85.8059
 -85.8069
 -85.8086
 -85.8082
 -85.8085
 -85.8081
 -85.8087
 -85.8069
 -85.8374
 -85.8363
 -85.8374
 -85.836
 -85.8551
 -85.8545
 -85.8548
 -85.8547
 -85.8192
 -85.8182
 -85.8187
 -85.818
 -85.81
 -85.8094
 -85.8093
 -85.8349
 -85.8337
 -85.8338
 -85.8346
 -85.8219
 -85.8218
 -85.8222
 -85.8233
 -85.8128
 -85.813
 -85.8127
 -85.8137
 -85.8055
 -85.8071
 -85.8062
 -85.8413
 -85.8424
 -85.8428
 -85.8415
 -85.8447
 -85.8445
 -85.8437
 -85.8194
 -85.8191
 -85.82
 -85.8207
 -85.8203
 -85.8198
 -85.8212
 -85.8122
 -85.8135
 -85.8142
 -85.8137
 -85.8344
 -85.8339
 -85.8332
 -85.8086
 -85.8086
 -85.8074
 -85.8259
 -85.8271
 -85.8267
 -85.8446
 -85.8435
 -85.8443
 -85.8364
 -85.8362
 -85.8169
 -85.8177
 -85.8167
 -85.8176
 -85.8181
 -85.8175
 -85.8234
 -85.822
 -85.8129
 -85.8045
 -85.8046
 -85.8037
 -85.8458
 -85.8457
 -85.8442
 -85.8194
 -85.8204
 -85.8201
 -85.8193
 -85.8136
 -85.8252
 -85.8258
 -85.8348
 -85.8352
 -85.8345
 -85.8356
 -85.825
 -85.824
 -85.8253
 -85.8197
 -85.8203
 -85.8186
 -85.8198
 -85.8172
 -85.8191
 -85.821
 -85.82
 -85.8193
 -85.8214
 -85.847
 -85.8461
 -85.8459
 -85.8466
 -85.8477
 -85.8483
 -85.8491
 -85.849
 -85.8084
 -85.8093
 -85.8245
 -85.8245
 -85.824
 -85.823
 -85.8298
 -85.8301
 -85.8306
 -85.831
 -85.833
 -85.834
 -85.833
 -85.8328
 -85.8236
 -85.8227
 -85.8224
 -85.8236
 -85.8214
 -85.8223
 -85.8216
 -85.8212
 -85.8445
 -85.8431
 -85.8445
 -85.8443
 -85.8095
 -85.8108
 -85.8113
 -85.8121
 -85.8099
 -85.8112
 -85.8106
 -85.8409
 -85.8418
 -85.843
 -85.8434
 -85.8123
 -85.8132
 -85.8128
 -85.8135
 -85.8498
 -85.8492
 -85.8498
 -85.8496
 -85.8453
 -85.8447
 -85.8451
 -85.8444
 -85.8183
 -85.8189
 -85.8179
 -85.8184
 -85.8367
 -85.8371
 -85.8367
 -85.8356
 -85.8132
 -85.8138
 -85.8147
 -85.8149
 -85.8405
 -85.8399
 -85.8401
 -85.8091
 -85.8097
 -85.809
 -85.8094
 -85.8316
 -85.8311
 -85.8318
 -85.8323
 -85.8173
 -85.8176
 -85.8391
 -85.8408
 -85.84
 -85.8398
 -85.8413
 -85.841
 -85.8403
 -85.8222
 -85.8237
 -85.8224
 -85.8423
 -85.8424
 -85.8428
 -85.8435
 -85.7975
 -85.7979
 -85.7988
 -85.7985
 -85.8128
 -85.8133
 -85.8141
 -85.8144
 -85.8317
 -85.8302
 -85.8304
 -85.8317
 -85.8475
 -85.8478
 -85.8471
 -85.848
 -85.8452
 -85.846
 -85.8461
 -85.8454
 -85.8476
 -85.8474
 -85.8477
 -85.8472
 -85.8476
 -85.815
 -85.8158
 -85.815
 -85.8161
 -85.8098
 -85.8102
 -85.8086
 -85.8096
 -85.8146
 -85.8147
 -85.8171
 -85.8183
 -85.8174
 -85.8172
 -85.8205
 -85.8204
 -85.8217
 -85.8204
 -85.8106
 -85.8107
 -85.8098
 -85.8266
 -85.8259
 -85.8261
 -85.8256
 -85.8558
 -85.8556
 -85.8551
 -85.8154
 -85.8151
 -85.8157
 -85.8168
 -85.8427
 -85.8413
 -85.8421
 -85.8424
 -85.8355
 -85.8367
 -85.8363
 -85.825
 -85.8243
 -85.8255
 -85.8366
 -85.8378
 -85.8366
 -85.8444
 -85.8437
 -85.8356
 -85.8357
 -85.8356
 -85.8134
 -85.8138
 -85.814
 -85.8129
 -85.8487
 -85.8493
 -85.8488
 -85.8485
 -85.8319
 -85.833
 -85.8324
 -85.7895
 -85.7879
 -85.7873
 -85.7891
 -85.806
 -85.8054
 -85.8289
 -85.8173
 -85.8189
 -85.8179
 -85.8173
 -85.8265
 -85.8279
 -85.8278
 -85.8398
 -85.8399
 -85.8391
 -85.8399
 -85.8504
 -85.8507
 -85.8247
 -85.8243
 -85.8244
 -85.8235
 -85.8044
 -85.8033
 -85.8032
 -85.8045
 -85.8456
 -85.8462
 -85.8461
 -85.8457
 -85.8314
 -85.8319
 -85.8312
 -85.7802
 -85.7794
 -85.7785
 -85.7786
 -85.8093
 -85.8091
 -85.8083
 -85.815
 -85.8159
 -85.8143
 -85.8152
 -85.8313
 -85.8315
 -85.831
 -85.8324
 -85.8248
 -85.8257
 -85.8067
 -85.807
 -85.8069
 -85.8069
 -85.8323
 -85.8334
 -85.8151
 -85.8135
 -85.8142
 -85.8147
 -85.8193
 -85.8198
 -85.8185
 -85.8194
 -85.8253
 -85.8265
 -85.8269
 -85.8259
 -85.814
 -85.8134
 -85.8121
 -85.8352
 -85.8339
 -85.8353
 -85.8341
 -85.8413
 -85.8423
 -85.8431
 -85.8415
 -85.84
 -85.8401
 -85.8402
 -85.841
 -85.8034
 -85.8022
 -85.8029
 -85.8019
 -85.826
 -85.8251
 -85.7859
 -85.7847
 -85.785
 -85.7839
 -85.8191
 -85.818
 -85.8174
 -85.851
 -85.7744
 -85.7749
 -85.7749
 -85.7731
 -85.8232
 -85.8238
 -85.8232
 -85.8232
 -85.8167
 -85.8179
 -85.8171
 -85.8405
 -85.8414
 -85.8415
 -85.8404
 -85.8409
 -85.8405
 -85.8417
 -85.8417
 -85.8397
 -85.8403
 -85.8394
 -85.8389
 -85.8138
 -85.8147
 -85.8133
 -85.8146
 -85.8088
 -85.8083
 -85.8076
 -85.8077
 -85.8328
 -85.833
 -85.8341
 -85.8329
 -85.8198
 -85.8182
 -85.8205
 -85.8195
 -85.8549
 -85.8478
 -85.848
 -85.8305
 -85.8305
 -85.8204
 -85.8195
 -85.8197
 -85.8486
 -85.8498
 -85.8491
 -85.8488
 -85.8224
 -85.822
 -85.8305
 -85.8295
 -85.7926
 -85.794
 -85.7925
 -85.7939
 -85.8138
 -85.8133
 -85.8125
 -85.813
 -85.8319
 -85.8333
 -85.8322
 -85.8329
 -85.7952
 -85.7939
 -85.795
 -85.7955
 -85.853
 -85.8526
 -85.8534
 -85.8528
 -85.8479
 -85.8469
 -85.8502
 -85.8496
 -85.8488
 -85.8503
 -85.8418
 -85.8426
 -85.8177
 -85.8182
 -85.8172
 -85.7764
 -85.7776
 -85.776
 -85.7763
 -85.7969
 -85.7978
 -85.798
 -85.797
 -85.8484
 -85.8491
 -85.8484
 -85.848
 -85.837
 -85.8385
 -85.8376
 -85.8275
 -85.8263
 -85.8256
 -85.8268
 -85.8151
 -85.8168
 -85.8155
 -85.8151
 -85.8446
 -85.8454
 -85.8451
 -85.8488
 -85.8259
 -85.8275
 -85.8135
 -85.8139
 -85.8353
 -85.8367
 -85.8351
 -85.8355
 -85.8087
 -85.8074
 -85.8092
 -85.8073
 -85.808
 -85.8069
 -85.8073
 -85.7785
 -85.7804
 -85.78
 -85.7796
 -85.8149
 -85.8157
 -85.8156
 -85.8166
 -85.8451
 -85.8452
 -85.8432
 -85.844
 -85.8436
 -85.8439
 -85.813
 -85.8128
 -85.8139
 -85.8124
 -85.8399
 -85.8393
 -85.8403
 -85.8358
 -85.8358
 -85.8361
 -85.8351
 -85.8436
 -85.8441
 -85.8431
 -85.8444
 -85.8152
 -85.8163
 -85.8159
 -85.8153
 -85.8505
 -85.8493
 -85.8213
 -85.7897
 -85.7903
 -85.7911
 -85.7917
 -85.8395
 -85.8394
 -85.8401
 -85.797
 -85.7961
 -85.7964
 -85.7956
 -85.8352
 -85.835
 -85.8349
 -85.836
 -85.8068
 -85.8067
 -85.8056
 -85.807
 -85.8111
 -85.8109
 -85.8118
 -85.8119
 -85.8338
 -85.8345
 -85.8345
 -85.8176
 -85.818
 -85.8174
 -85.8166
 -85.8326
 -85.8322
 -85.833
 -85.8313
 -85.8294
 -85.8287
 -85.842
 -85.8424
 -85.8423
 -85.8359
 -85.8361
 -85.8351
 -85.7891
 -85.7893
 -85.7906
 -85.7894
 -85.8085
 -85.8095
 -85.8081
 -85.8099
 -85.8447
 -85.8434
 -85.8436
 -85.8434
 -85.8425
 -85.8422
 -85.8117
 -85.8139
 -85.8119
 -85.8361
 -85.8349
 -85.8353
 -85.8346
 -85.8356
 -85.8354
 -85.8349
 -85.8143
 -85.8137
 -85.8145
 -85.8146
 -85.8488
 -85.849
 -85.818
 -85.8176
 -85.818
 -85.8188
 -85.813
 -85.8131
 -85.8135
 -85.837
 -85.8374
 -85.8244
 -85.8237
 -85.8244
 -85.8253
 -85.8077
 -85.8074
 -85.8333
 -85.8331
 -85.8185
 -85.8168
 -85.817
 -85.8179
 -85.8268
 -85.8268
 -85.826
 -85.8277
 -85.8267
 -85.8261
 -85.8268
 -85.8008
 -85.8009
 -85.8003
 -85.8027
 -85.7965
 -85.7965
 -85.7975
 -85.7973
 -85.8357
 -85.8349
 -85.8339
 -85.8347
 -85.8456
 -85.8457
 -85.845
