 24.6717
 24.5886
 24.6166
 24.5608
 23.1764
 23.1695
 23.1173
 23.0924
 23.5861
 23.6375
 23.5721
 23.6433
 23.5274
 23.5664
 23.6095
 23.6203
 22.6923
 22.6139
 22.7237
 22.7395
 22.7187
 22.7752
 22.6725
 22.7543
 24.9822
 25.0472
 25.027
 24.9805
 24.9517
 24.9265
 24.9268
 24.9707
 22.6754
 22.7057
 22.7689
 22.6975
 22.7385
 22.7298
 22.7544
 22.6523
 25.1819
 25.2253
 25.1594
 25.1481
 23.5406
 23.5375
 23.5908
 23.5537
 24.3588
 24.3715
 24.4158
 24.318
 23.1946
 23.2739
 23.3
 23.251
 23.8267
 23.8361
 23.8023
 23.7586
 24.7834
 24.8296
 24.752
 24.8286
 22.94
 22.8923
 22.9372
 22.8629
 23.3995
 23.4355
 23.384
 23.4246
 23.8384
 23.8289
 23.8198
 23.7857
 22.9006
 22.9091
 22.8766
 22.8212
 24.904
 24.9735
 24.9014
 24.9484
 22.5221
 22.5266
 22.4491
 22.4336
 25.6588
 25.6994
 25.6942
 25.6374
 23.3412
 23.3007
 23.3543
 23.3686
 23.9211
 23.9537
 23.8876
 23.8799
 23.7502
 23.7447
 23.7763
 23.7953
 24.1633
 24.1049
 24.0755
 24.1525
 24.792
 24.8372
 24.7807
 24.7837
 24.3921
 24.4088
 24.4652
 24.4294
 23.2594
 23.2717
 23.2889
 23.3351
 23.8776
 23.7787
 23.8926
 23.8621
 24.3491
 24.2972
 24.3044
 24.3458
 23.4727
 23.5361
 23.4731
 23.526
 23.1524
 23.1825
 23.1819
 23.1753
 24.364
 24.4286
 24.3589
 24.4521
 24.7295
 24.7347
 24.7483
 24.7457
 23.5171
 23.5897
 23.539
 23.539
 25.0318
 25.0099
 24.9926
 24.9887
 23.3492
 23.3392
 23.2368
 23.2615
 22.3094
 22.3888
 22.3281
 22.4042
 23.6901
 23.7109
 23.6816
 23.7539
 23.289
 23.2375
 23.2592
 23.2952
 24.9849
 24.9878
 24.9302
 25.0267
 23.454
 23.5068
 23.4846
 23.4278
 22.6673
 22.6916
 22.6319
 22.6689
 24.5148
 24.4642
 24.4876
 24.5118
 23.4582
 23.3684
 23.3929
 23.3753
 24.7069
 24.6466
 24.6855
 24.7457
 24.3634
 24.4
 24.4213
 24.437
 23.8275
 23.8706
 23.8795
 23.9304
 24.8115
 24.8394
 24.8581
 24.8002
 23.698
 23.7521
 23.7426
 23.7088
 24.2647
 24.3242
 24.2498
 24.3462
 23.6952
 23.6581
 23.6831
 23.6617
 24.433
 24.381
 24.4224
 24.3472
 23.5847
 23.5917
 23.5423
 23.6356
 23.2899
 23.2919
 23.2529
 23.2133
 23.2687
 23.3182
 23.2908
 23.3696
 24.4858
 24.5041
 24.5689
 24.4641
 24.1159
 24.146
 24.1475
 24.0738
 25.5701
 25.5951
 25.6358
 25.5914
 24.4269
 24.4447
 24.4967
 24.4351
 23.9132
 23.8277
 23.8721
 23.8632
 24.246
 24.2466
 24.1687
 24.2875
 24.3264
 24.267
 24.3274
 24.2729
 24.8581
 24.8937
 24.8397
 24.8449
 22.8778
 22.8048
 22.7675
 22.8806
 22.7183
 22.6967
 22.6624
 22.638
 23.7971
 23.7212
 23.8423
 23.8001
 24.4047
 24.4205
 24.3833
 24.4524
 23.3255
 23.3042
 23.268
 23.3303
 24.8873
 25.0057
 24.96
 24.9593
 24.907
 24.9598
 24.9805
 24.9078
 25.702
 25.7473
 25.6951
 25.7024
 23.6391
 23.5615
 23.6131
 23.5549
 24.5187
 24.4576
 24.4462
 24.5117
 24.6428
 24.6861
 24.6099
 24.6147
 22.592
 22.5138
 22.5417
 22.503
 24.7772
 24.8109
 24.8591
 24.7949
 24.6585
 24.6883
 24.7225
 24.6608
 24.5488
 24.5061
 24.5579
 24.6035
 24.0215
 24.031
 23.9823
 23.9876
 24.611
 24.5433
 24.5936
 24.5708
 24.3715
 24.3422
 24.3241
 24.3525
 24.1068
 24.1235
 24.1497
 24.1673
 24.7332
 24.808
 24.72
 24.8064
 25.8412
 25.8445
 25.7816
 25.7844
 24.8702
 24.8513
 24.8103
 24.8413
 23.5784
 23.6314
 23.5668
 23.6572
 23.5747
 23.6079
 23.5586
 23.6242
 23.2678
 23.3252
 23.3229
 23.2815
 25.0209
 25.0313
 25.0133
 24.9858
 22.4334
 22.4464
 22.5036
 22.3974
 23.3709
 23.3145
 23.3852
 23.3605
 25.0143
 25.0088
 25.0645
 25.083
 24.3438
 24.3514
 24.3667
 24.2779
 24.6714
 24.629
 24.7223
 24.6853
 24.6587
 24.6861
 24.6897
 24.985
 24.9941
 25.0003
 25.0286
 23.4528
 23.4931
 23.5354
 23.4346
 24.148
 24.0675
 24.0918
 24.1313
 23.5623
 23.4977
 23.5608
 24.4257
 24.506
 24.45
 24.4729
 24.0017
 23.9479
 23.9663
 24.034
 22.9629
 23.0696
 23.0607
 22.9332
 24.8962
 24.8909
 24.8155
 24.8443
 24.7068
 24.75
 24.7878
 24.7421
 23.6406
 23.7106
 23.7196
 23.6939
 23.3806
 23.4206
 23.3263
 23.331
 24.9752
 24.9545
 24.9808
 25.0226
 24.737
 24.7184
 24.6209
 24.6491
 24.1828
 24.1155
 24.0779
 24.1747
 22.783
 22.7416
 22.7637
 22.7471
 23.6085
 23.5433
 23.5143
 23.5478
 23.9396
 24.0296
 23.9625
 23.9396
 25.6048
 25.6777
 25.6075
 25.6097
 24.0775
 24.1166
 24.0435
 24.0114
 22.9666
 23.0432
 22.9677
 23.0583
 24.5738
 24.6623
 24.54
 24.5591
 24.7686
 24.7564
 24.8156
 24.7792
 24.7508
 24.8101
 24.8007
 24.7836
 25.2828
 25.2903
 25.2882
 25.2562
 24.5991
 24.6906
 24.6819
 24.6832
 23.6313
 23.6324
 23.622
 23.6726
 25.0134
 24.9851
 24.9661
 24.948
 22.8907
 22.9522
 22.8939
 22.8778
 24.909
 24.9811
 24.9788
 24.9132
 23.0031
 23.1001
 22.9899
 23.0526
 24.1406
 24.1878
 24.1853
 24.1518
 24.2489
 24.1873
 24.1732
 24.2261
 24.4862
 24.4863
 24.4061
 24.4644
 24.6087
 24.6087
 24.6659
 24.6734
 22.5163
 22.4406
 22.4205
 22.4321
 24.559
 24.6046
 24.5571
 24.5942
 22.3107
 22.3801
 22.3359
 22.4343
 23.3442
 23.3735
 23.2936
 23.3529
 25.4503
 25.3898
 25.3998
 25.4511
 22.6082
 22.617
 22.5717
 22.5482
 24.7847
 24.7279
 24.7846
 24.8354
 25.3938
 25.4418
 25.4643
 25.397
 23.1478
 23.1716
 23.2063
 23.1779
 22.648
 22.5609
 22.6271
 22.6649
 23.7605
 23.7552
 23.7744
 23.799
 23.2204
 23.2946
 23.2081
 23.2911
 24.7015
 24.772
 24.729
 24.7535
 23.6545
 23.6833
 23.6614
 23.609
 24.3088
 24.3153
 24.2688
 24.2644
 24.9373
 24.9042
 24.9514
 24.9536
 25.1592
 25.1679
 25.1802
 25.1178
 24.1043
 24.1239
 24.0685
 24.1449
 23.9452
 23.962
 23.9724
 24.0167
 24.7381
 24.745
 24.6919
 24.6922
 24.7189
 24.8087
 24.7317
 24.7359
 23.546
 23.5243
 23.5682
 23.5818
 22.6936
 22.7514
 22.6486
 22.628
 22.8282
 22.8626
 22.8124
 22.7889
 22.8657
 22.9359
 22.9176
 22.8793
 23.3765
 23.4133
 23.3515
 23.411
 24.715
 24.8015
 24.7388
 24.7612
 24.683
 24.6381
 24.6227
 24.6129
 23.9244
 23.9692
 24.0226
 24.0423
 23.398
 23.4302
 23.3486
 23.3961
 23.4124
 23.4453
 23.4159
 23.369
 23.7973
 23.8546
 23.809
 23.7966
 23.59
 23.5344
 23.5998
 23.5917
 25.063
 25.0722
 25.0387
 24.9827
 26.0363
 26.0814
 26.0267
 26.0932
 24.5632
 24.5708
 24.6325
 24.5959
 25.8838
 25.8216
 25.8331
 24.6034
 24.6169
 24.5755
 24.6367
 22.8698
 22.9138
 22.882
 22.9251
 23.8528
 23.8275
 23.8071
 23.7592
 22.7762
 22.8102
 22.7443
 22.8255
 24.7441
 24.7359
 24.8067
 24.7555
 23.4135
 23.4092
 23.3001
 23.3289
 23.7852
 23.8079
 23.873
 23.8198
 22.537
 22.4913
 22.4785
 22.608
 23.1452
 23.1614
 23.133
 23.0773
 24.5368
 24.4795
 24.5185
 24.538
 23.3767
 23.3826
 23.4433
 23.3637
 23.0368
 23.1328
 23.0872
 23.1157
 25.3781
 25.4468
 25.4346
 25.4417
 23.8675
 23.8468
 23.8057
 23.7976
 23.0096
 22.9857
 22.985
 23.0485
 23.5706
 23.5157
 23.611
 23.4783
 23.0051
 23.0775
 22.9999
 23.0013
 24.666
 24.6077
 24.5759
 24.5947
 23.1168
 23.0078
 23.1314
 23.0292
 24.1473
 24.1153
 24.2081
 24.1472
 24.0302
 24.0063
 23.9694
 24.0425
 23.1449
 23.1766
 23.2182
 23.1127
 22.3499
 22.4069
 22.4083
 22.3678
 25.0978
 25.0656
 25.0298
 25.0086
 24.3929
 24.3354
 24.308
 24.3788
 23.6169
 23.6614
 23.6831
 23.6658
 23.1921
 23.1427
 23.1638
 23.1332
 24.5378
 24.5984
 24.5694
 24.5609
 24.9587
 24.8991
 24.8672
 24.9472
 23.352
 23.3477
 23.4328
 23.4219
 23.481
 23.4292
 23.4863
 23.4599
 22.6011
 22.5357
 22.4799
 22.5936
 24.816
 24.7374
 24.8305
 24.7815
 22.6903
 22.6186
 22.6286
 22.6779
 24.4075
 24.3509
 24.4056
 24.4239
 25.9934
 26.0001
 25.9646
 25.9531
 22.8798
 22.8577
 22.8009
 22.8428
 23.4853
 23.4506
 23.5215
 23.5729
 22.9519
 22.9407
 22.9865
 22.9871
 23.9806
 24.0555
 24.0168
 23.9793
 24.129
 24.1035
 24.0907
 24.123
 23.2192
 23.2979
 23.2947
 23.264
 24.7259
 24.6972
 24.7581
 24.7129
 24.8625
 24.8314
 24.8207
 24.8575
 25.671
 25.6981
 25.7161
 25.728
 23.7336
 23.6975
 23.6665
 23.6451
 23.9245
 23.9464
 23.843
 23.9156
 23.6073
 23.709
 23.6249
 23.5864
 24.3562
 24.2711
 24.2612
 24.3676
 22.6424
 22.6395
 22.6014
 22.72
 22.6272
 22.5237
 22.6279
 22.642
 23.5416
 23.5162
 23.4658
 23.4589
 26.424
 26.4379
 26.4112
 26.3626
 24.1212
 24.1561
 24.1122
 24.193
 24.097
 24.1101
 24.1827
 24.1106
 24.128
 24.1098
 24.1924
 24.1853
 23.1498
 23.1775
 23.0926
 23.1832
 25.535
 25.4655
 25.5685
 25.5369
 25.6748
 25.6922
 25.7221
 25.7623
 23.0686
 23.1166
 23.073
 23.1452
 24.4568
 24.3802
 24.486
 24.3976
 24.272
 24.2861
 24.2609
 24.2577
 23.4376
 23.4621
 23.4921
 23.5451
 24.8039
 24.7682
 24.7465
 24.7795
 23.118
 23.1674
 23.1577
 23.1058
 24.3491
 24.4555
 24.408
 24.4918
 24.4267
 24.4254
 24.4809
 24.447
 24.9656
 25.0017
 24.9414
 25.0102
 24.1948
 24.1226
 24.1555
 24.1057
 23.0084
 22.9765
 22.985
 23.0274
 23.4128
 23.3467
 23.3206
 23.3806
 24.7848
 24.7908
 24.7384
 24.7447
 24.5678
 24.494
 24.4943
 24.5653
 22.8316
 22.8021
 22.7537
 22.7886
 23.1758
 23.2347
 23.2023
 23.2146
 24.0667
 24.0908
 24.1284
 24.0883
 25.0516
 25.0363
 25.0384
 25.0154
 25.2844
 25.201
 25.2249
 25.2835
 23.5176
 23.5928
 23.6201
 23.5636
 24.8992
 24.9567
 24.9
 25.0134
 22.8914
 22.9739
 22.9677
 22.8984
 23.6472
 23.559
 23.6078
 23.6582
 23.1517
 23.1757
 23.2028
 23.157
 23.3727
 23.4543
 23.4444
 23.3952
 24.1226
 24.16
 24.1169
 24.0768
 24.6656
 24.7725
 24.7498
 24.7002
 25.1892
 25.0984
 25.1718
 25.1729
 24.9842
 25.0621
 24.9786
 24.997
 24.682
 24.7448
 24.7552
 24.7098
 24.0495
 24.0257
 24.0201
 24.1343
 24.0604
 24.0044
 24.0327
 24.0756
 23.9978
 24.05
 23.9559
 24.0096
 23.5841
 23.6185
 23.5536
 23.5652
 25.4694
 25.5372
 25.491
 25.4955
 23.8337
 23.8135
 23.8428
 23.7761
 24.7973
 24.8587
 24.8297
 24.8162
 24.2817
 24.2039
 24.2595
 24.2181
 22.7035
 22.8202
 22.7241
 22.7617
 24.0141
 24.0444
 24.0462
 24.0765
 24.9068
 24.9401
 24.92
 24.9883
 24.2468
 24.2662
 24.2143
 24.1823
 24.6479
 24.6121
 24.6151
 24.6713
 24.0795
 24.1594
 24.0847
 24.1506
 25.4121
 25.4629
 25.4406
 25.3866
 24.2884
 24.2799
 24.238
 24.2293
 23.5087
 23.5276
 23.4754
 23.5324
 23.564
 23.557
 23.5332
 23.552
 22.7682
 22.8983
 22.7982
 22.8451
 24.5216
 24.5287
 24.4669
 24.5106
 24.6765
 24.6345
 24.6891
 24.5733
 22.7232
 22.8248
 22.7339
 22.7542
 24.6646
 24.6664
 24.604
 24.6614
 23.0429
 23.0639
 22.9892
 23.0747
 23.8226
 23.7337
 23.7849
 23.7406
 24.0646
 24.1552
 24.0695
 24.0545
 24.7066
 24.6398
 24.647
 24.7071
 24.0895
 24.0826
 24.0012
 24.077
 23.0311
 23.0458
 23.0192
 23.0128
 26.0596
 26.0312
 26.0081
 26.099
 25.0801
 25.0951
 25.0956
 25.075
 25.0064
 24.9883
 25.008
 25.0533
 24.444
 24.4138
 24.4774
 24.3912
 24.2908
 24.3419
 24.3047
 24.3342
 24.5308
 24.5732
 24.5874
 24.531
 22.5783
 22.6095
 22.4997
 22.6165
 24.7308
 24.7729
 24.7695
 24.6848
 23.6224
 23.6268
 23.6015
 23.6743
 23.9967
 23.107
 23.177
 23.1753
 23.1951
 23.6848
 23.6261
 23.579
 23.6278
 25.1296
 25.1003
 25.0887
 25.1138
 24.3872
 24.4133
 24.3628
 24.3244
 24.5606
 24.6296
 24.5883
 24.5918
 22.9722
 23.046
 23.0306
 23.0221
 24.2359
 24.3274
 24.2634
 24.2843
 22.8833
 22.8752
 22.946
 22.9375
 23.4077
 23.3687
 23.436
 23.3515
 25.1117
 25.0704
 25.0935
 25.0172
 24.707
 24.7707
 24.6633
 24.7117
 23.602
 23.557
 23.5468
 23.5918
 24.0744
 24.1501
 24.0577
 24.9717
 25.0008
 24.9688
 24.9469
 23.5176
 23.6363
 23.5522
 23.6057
 24.5975
 24.6806
 24.6595
 24.637
 24.1007
 24.1912
 24.1416
 24.0935
 22.8473
 22.8481
 22.9547
 22.8674
 24.4524
 24.4782
 24.5159
 24.465
 23.1397
 23.2341
 23.1645
 23.1341
 23.9779
 24.0271
 23.9827
 24.0562
 23.2405
 23.2843
 23.3421
 23.3026
 22.9339
 22.9332
 22.8508
 22.8896
 24.4034
 24.4135
 24.362
 24.3667
 25.9962
 25.9141
 25.913
 25.8762
 22.4566
 22.5009
 22.5106
 22.5133
 23.5599
 23.5986
 23.6138
 23.5706
 24.8152
 24.8218
 24.7056
 24.795
 24.2682
 24.2129
 24.2087
 24.2701
 25.3627
 25.3451
 25.3616
 25.4078
 22.9025
 22.8515
 22.7681
 22.8317
 25.0067
 25.0506
 25.0262
 25.0171
 23.7519
 23.6911
 23.7787
 23.7334
 24.7482
 24.8622
 24.7708
 24.7786
 22.4078
 22.4195
 22.4152
 22.4915
 22.5155
 22.5314
 22.5821
 22.6245
 23.3316
 23.3917
 23.4153
 23.3104
 23.7163
 23.6984
 23.7151
 23.7689
 23.7092
 24.8605
 24.852
 24.9176
 24.8763
 24.7822
 24.8066
 24.8292
 24.7673
 23.4918
 23.4339
 23.4297
 23.4204
 24.9006
 24.8447
 24.8478
 24.9037
 24.6548
 24.6825
 24.686
 24.6286
 23.3563
 23.3291
 23.3365
 23.4067
 24.3724
 24.2943
 24.3703
 24.2988
 23.4978
 23.4924
 23.4919
 23.4383
 24.6124
 24.6231
 24.6731
 24.6325
 24.4639
 24.4269
 24.4087
 24.403
 24.1598
 24.0946
 24.1806
 24.119
 23.7478
 23.6741
 23.7108
 23.6422
 23.1909
 23.2253
 23.1204
 23.1429
 23.7973
 23.8156
 23.8509
 23.8418
 23.826
 23.7852
 23.7756
 23.7857
 25.159
 25.16
 25.1205
 25.099
 23.6033
 23.6031
 23.5635
 23.594
 24.0232
 24.0116
 23.9738
 24.0186
 23.9331
 23.945
 23.9856
 23.9511
 24.397
 24.3859
 24.4471
 24.4039
 24.9567
 24.9662
 24.9281
 25.0203
 23.3072
 23.3352
 23.3032
 23.2698
 24.9332
 24.9782
 24.96
 24.8918
 22.6029
 22.6075
 22.5078
 22.5688
 23.1996
 23.2499
 23.1666
 23.1983
 23.1833
 23.1707
 23.1601
 23.1904
 23.0297
 23.0647
 23.0698
 22.9911
 23.4091
 23.3802
 23.4408
 23.3823
 25.3769
 25.4119
 25.472
 23.8531
 23.9429
 23.8675
 23.8744
 23.228
 23.2644
 23.2819
 23.2424
 24.4133
 24.4826
 24.4468
 24.4299
 24.6392
 24.6112
 24.6653
 24.6063
 23.3928
 23.3789
 23.3361
 23.4492
 24.165
 24.1847
 24.1657
 24.0994
 24.58
 24.5731
 24.6083
 24.6098
 22.6125
 22.5154
 23.6118
 23.6198
 23.6887
 23.6783
 24.1337
 24.1585
 24.1916
 23.8178
 23.7946
 23.8011
 23.8712
 25.194
 25.2266
 25.1567
 25.1657
 23.1406
 23.095
 23.0929
 23.1741
 23.8417
 23.8582
 23.8967
 23.8865
 24.4199
 24.4711
 24.4357
 24.3819
 23.8744
 23.9371
 23.9181
 23.8875
 24.9476
 24.9791
 24.9207
 24.9458
 25.0734
 24.9693
 25.0454
 25.0237
 24.1574
 24.1093
 24.0837
 24.1226
 24.8741
 24.8841
 24.8894
 24.8376
 24.0673
 24.1009
 24.0867
 24.1109
 23.0453
 23.0649
 23.1386
 23.1467
 24.8529
 24.8177
 24.7877
 24.8301
 25.6532
 25.5951
 25.6105
 25.582
 23.6359
 23.7567
 23.6899
 23.6506
 24.2329
 24.1881
 24.2472
 24.1903
 24.9258
 24.9386
 24.8728
 24.8883
 24.1349
 24.1662
 24.0994
 24.1107
 22.9359
 22.9603
 22.9206
 22.9323
 24.6953
 24.7022
 24.7349
 24.7085
 23.7266
 23.755
 23.7539
 23.7831
 24.2933
 24.2139
 24.2628
 24.1769
 23.4353
 23.3855
 23.3878
 23.3433
 23.1045
 23.103
 23.0693
 23.1336
 24.8149
 24.7653
 24.7987
 24.7089
 24.4727
 24.425
 24.4376
 24.4533
 23.7283
 23.7349
 23.819
 23.762
 24.956
 24.9313
 24.9405
 24.92
 26.0175
 26.0803
 26.0743
 26.0415
 23.8877
 23.9398
 23.9503
 23.9471
 26.1514
 26.1679
 26.1277
 26.0876
 26.0425
 25.9774
 25.9703
 25.9971
 25.1909
 25.1524
 25.1539
 25.2085
 23.5926
 23.6367
 23.6777
 23.6969
 23.6332
 23.5715
 23.5726
 23.5262
 23.5263
 23.587
 23.5421
 23.6129
 23.6708
 23.7389
 23.725
 23.6448
 25.4252
 25.4748
 25.439
 25.4618
 24.8312
 24.8664
 24.7953
 24.819
 24.8172
 24.9087
 24.9002
 24.8676
 24.3449
 24.276
 24.3415
 24.2669
 23.8029
 23.8426
 23.8024
 23.8286
 23.4485
 23.4493
 23.4805
 23.4213
 24.745
 24.6786
 24.6692
 24.7348
 23.5708
 24.163
 24.123
 24.1164
 24.1559
 22.5014
 22.4884
 22.4022
 22.4549
 24.2288
 24.231
 24.1806
 24.2261
 22.9505
 22.872
 22.9301
 24.8904
 24.8478
 24.83
 24.9036
 25.8947
 25.8408
 25.8513
 25.82
 24.0633
 24.0732
 24.0032
 24.1087
 24.404
 24.4789
 24.4679
 24.4739
 24.8949
 24.8449
 24.8121
 24.8016
 24.7864
 24.7615
 24.8204
 24.7566
 25.2395
 25.34
 25.2803
 25.2865
 23.758
 23.7653
 23.7181
 23.6333
 24.1009
 24.0388
 24.1122
 24.0672
 24.5641
 24.6079
 24.5613
 24.5779
 24.1618
 24.2148
 24.0882
 23.2811
 23.3229
 23.3366
 24.6825
 24.6781
 24.7518
 24.763
 25.2938
 25.3242
 25.3227
 25.2982
 24.5542
 24.5168
 24.5149
 24.569
 25.2082
 25.264
 25.1933
 25.2882
 23.3106
 23.2047
 23.282
 23.2642
 23.3271
 23.3042
 23.2825
 23.2448
 24.963
 24.9898
 24.9777
 24.988
 25.2987
 25.3795
 25.3315
 25.3093
 23.8804
 23.9634
 23.8964
 23.9326
 22.6906
 22.748
 22.6496
 22.7313
 25.2677
 25.2677
 25.3045
 25.2623
 23.5536
 23.621
 23.6216
 23.5406
 25.6916
 25.7248
 25.678
 25.7054
 23.4378
 23.3904
 23.4575
 23.3392
 24.3155
 24.3643
 24.2887
 24.3857
 23.3146
 23.3133
 23.2403
 23.2517
 24.8934
 24.8731
 24.8564
 24.7985
 24.4176
 24.469
 24.4589
 24.4675
 24.6269
 24.6497
 24.5896
 24.5877
 24.6112
 24.6422
 24.5706
 24.6576
 23.9
 23.86
 23.8709
 23.9262
 24.2035
 24.2585
 24.198
 24.2008
 23.2156
 23.2813
 23.3042
 23.2662
 22.5791
 22.5169
 22.6555
 22.6683
 24.2465
 24.2533
 24.3002
 24.2587
 23.0521
 23.0741
 23.1071
 23.0078
 23.4723
 23.3776
 23.3499
 23.3885
 25.4362
 25.4746
 25.531
 25.4542
 24.9423
 24.8374
 24.8554
 24.8901
 24.3258
 24.3716
 24.3888
 24.3588
 25.234
 25.2818
 25.2936
 25.3212
 23.8309
 23.7603
 23.771
 23.8043
 23.307
 23.192
 23.2554
 23.2368
 25.1949
 25.1153
 25.1891
 25.1957
 24.126
 24.075
 24.1143
 24.1018
 24.5743
 24.5854
 24.5838
 24.6157
 25.9817
 25.9404
 25.9138
 25.9662
 24.4452
 24.4564
 24.4579
 24.4054
 24.0947
 24.056
 24.0689
 24.0445
 23.5443
 23.4894
 23.5274
 23.4696
 24.6601
 24.6451
 24.6362
 24.0801
 24.0907
 24.1066
 24.0954
 24.4755
 24.5162
 24.3984
 24.4636
 23.6274
 23.6884
 23.6299
 23.6657
 23.5892
 23.5091
 23.5465
 23.5385
 22.9227
 22.9691
 22.9369
 23.0194
 24.7792
 24.7923
 24.7418
 24.7994
 22.6896
 22.6737
 22.6473
 22.675
 24.6731
 24.6195
 24.6681
 24.7
 24.1066
 24.0385
 24.0471
 24.0124
 24.0341
 24.1018
 24.0771
 24.1164
 26.0903
 26.1443
 26.0893
 26.1108
 24.4826
 24.5208
 24.4771
 24.4656
 24.1122
 24.1338
 24.0695
 23.9996
 24.1585
 24.1425
 24.1277
 24.2138
 22.4609
 22.4669
 22.5398
 22.499
 24.6792
 24.6132
 24.5752
 24.6601
 24.6
 24.6377
 24.567
 24.653
 23.4797
 23.4025
 23.4586
 23.4328
 24.8329
 24.8474
 24.8828
 24.8917
 24.8769
 24.89
 24.8525
 24.8987
 23.6207
 23.7021
 23.628
 23.6822
 23.6248
 23.6163
 23.6753
 23.6162
 23.967
 23.9578
 23.8643
 23.9037
 24.6168
 24.6472
 23.7821
 23.8299
 23.7544
 23.816
 24.6154
 24.5789
 24.6208
 24.5979
 24.2972
 24.2326
 24.2081
 24.2259
 22.9221
 22.9663
 22.9931
 22.9204
 24.2195
 24.201
 24.1698
 24.1568
 23.3769
 23.3362
 23.312
 23.3964
 24.7157
 24.619
 24.6525
 24.6266
 24.3996
 24.4582
 24.4644
 24.4416
 24.1387
 24.0205
 24.0784
 24.0809
 24.8305
 24.8826
 24.9027
 24.859
 25.6033
 25.5607
 25.6015
 25.6275
 22.8057
 22.8199
 22.8581
 22.8293
 25.2113
 25.2094
 25.1849
 25.2333
 23.7873
 23.7639
 23.8285
 23.8264
 25.5965
 25.5815
 25.5728
 25.6366
 23.8118
 23.7475
 23.7866
 23.7947
 24.6819
 24.6903
 24.7137
 24.6967
 24.6959
 24.6769
 24.7365
 24.7006
 23.9169
 23.8945
 23.9639
 23.9272
 23.1663
 23.231
 23.1687
 23.2449
 24.4137
 24.3205
 24.3353
 24.337
 24.9795
 25.0032
 24.976
 24.9443
 23.1706
 23.0757
 23.1191
 23.0524
 24.656
 24.6758
 24.6105
 24.5989
 24.3635
 24.3012
 24.323
 24.2821
 23.4369
 23.3087
 23.3418
 23.3787
 23.993
 23.9346
 23.914
 23.9127
 24.176
 24.1928
 24.1652
 24.128
 22.9051
 22.8678
 22.8235
 22.798
 23.19
 23.1571
 23.1691
 23.1992
 23.8786
 23.8631
 23.9455
 23.9157
 24.2024
 24.168
 24.2309
 24.1013
 24.5115
 24.4908
 24.4909
 24.4098
 24.9788
 24.9806
 25.0334
 23.3386
 23.3108
 23.3062
 23.2663
 25.611
 25.6462
 25.7148
 25.6853
 23.5132
 23.5914
 23.5496
 23.5713
 24.7708
 24.8514
 24.8062
 24.7997
 24.9129
 24.9791
 24.9556
 24.9656
 23.0224
 23.0889
 23.0561
 22.969
 24.0258
 24.0614
 24.0074
 24.0493
 24.127
 24.1484
 24.6265
 24.2648
 24.2019
 24.2831
 24.2372
 25.6226
 25.5683
 23.6262
 23.6054
 23.5864
 25.0497
 25.0275
 25.0989
 25.0546
 23.5614
 23.6317
 23.6095
 23.6038
 24.3425
 24.2847
 24.3014
 24.3115
 24.6386
 24.5476
 24.6009
 24.5887
 22.9954
 22.9951
 22.9134
 22.9694
 25.0577
 25.0009
 25.066
 24.9973
 23.7223
 23.7267
 23.6996
 23.6642
 22.7864
 22.7767
 22.8601
 22.8603
 24.0369
 24.1052
 24.0561
 24.0974
 23.6704
 23.7715
 23.7414
 23.7408
 24.1555
 24.1087
 24.1565
 24.2493
 22.496
 22.6313
 22.5153
 22.6283
 22.6285
 22.6163
 22.6551
 22.7228
 22.7633
 22.8056
 22.8149
 22.7583
 24.2933
 24.3448
 24.2836
 24.2929
 23.8371
 23.9221
 23.8877
 23.8539
 24.1959
 24.2023
 24.2477
 24.2124
 24.35
 24.3572
 24.2902
 24.3722
 23.572
 23.5559
 23.5475
 23.6244
 23.1904
 23.1215
 23.1586
 23.1066
 23.1458
 23.1192
 23.1831
 23.0798
 23.9819
 23.9515
 23.9987
 23.9541
 24.1835
 24.1788
 24.2032
 24.2324
 24.6975
 24.727
 24.7108
 24.6413
 23.3902
 23.3356
 23.3286
 23.4117
 25.1789
 25.1706
 25.2355
 25.1775
 23.3655
 23.3319
 23.3635
 23.3682
 23.9398
 23.8374
 23.9284
 23.8589
 23.9572
 23.9531
 23.9415
 24.0155
 25.0075
 25.0064
 25.0294
 25.0842
 26.2174
 26.1704
 26.2459
 26.2355
 24.4639
 24.4032
 24.4639
 24.4503
 23.3323
 23.3993
 23.361
 23.3285
 24.8928
 24.9538
 24.9072
 24.8707
 23.8212
 23.7834
 23.8639
 23.7897
 23.7714
 23.7256
 23.6653
 23.6847
 23.4616
 23.4274
 23.5226
 23.4972
 25.3218
 25.3438
 25.3544
 25.3007
 25.3075
 25.293
 25.325
 25.3394
 23.2891
 23.195
 23.2185
 23.2471
 23.5709
 23.6612
 23.6872
 23.6249
 24.5226
 24.5124
 24.5488
 24.5496
 24.1241
 24.1399
 24.082
 24.0521
 23.9788
 23.9598
 23.963
 24.005
 24.5123
 24.564
 24.4591
 24.5444
 23.691
 23.7418
 23.7109
 23.7629
 22.2129
 22.3182
 22.2438
 22.2277
 23.7902
 23.7022
 23.7161
 23.6761
 24.1228
 24.0976
 24.1392
 24.0654
 24.0949
 24.0968
 24.1492
 24.1021
 23.949
 23.9023
 23.9398
 23.9938
 22.7056
 22.705
 22.7651
 22.7159
 23.2316
 23.2953
 23.2608
 23.7132
 23.7041
 23.6775
 23.7195
 24.9831
 24.9934
 24.9279
 24.9928
 24.3005
 24.3037
 24.3504
 24.2799
 23.1653
 23.2554
 23.2928
 23.2497
 24.6959
 24.6678
 24.6597
 24.6317
 24.4281
 24.4675
 24.4721
 24.4082
 24.333
 24.3678
 24.4332
 24.3674
 23.5757
 23.6266
 23.6431
 23.6277
 23.9213
 23.9701
 23.9174
 24.0227
 23.7087
 23.8154
 23.7759
 23.7558
 24.8568
 24.8208
 24.8177
 24.8434
 24.3993
 24.3608
 24.347
 24.4064
 23.6306
 23.6752
 23.6172
 23.5588
 24.4146
 24.3905
 24.3542
 24.4422
 23.7815
 23.7118
 23.7169
 23.7464
 24.8841
 24.9076
 24.868
 24.918
 22.8718
 22.8554
 22.9276
 22.873
 24.7159
 24.7517
 24.6914
 24.6701
 24.7642
 24.8802
 24.809
 24.8086
 23.4307
 23.4241
 23.377
 23.3645
 24.7391
 24.7275
 24.7139
 24.7167
 23.7757
 23.8118
 23.7793
 23.8439
 25.0242
 25.0259
 25.0935
 25.083
 23.9414
 23.9736
 23.9619
 23.9002
 22.9505
 22.84
 22.9278
 22.8699
 23.8991
 23.99
 23.9878
 23.9504
 23.5076
 23.4821
 23.4998
 23.5124
 23.7781
 23.7999
 23.7753
 23.7507
 23.7788
 23.7635
 23.7368
 23.6932
 22.7609
 22.7379
 22.7134
 22.8229
 24.8255
 24.8598
 24.8983
 24.8984
 24.7435
 24.7723
 24.8307
 24.7775
 23.0781
 23.066
 23.1133
 23.0161
 22.9966
 22.9584
 23.0004
 24.5559
 24.5857
 24.5875
 24.5393
 23.804
 23.733
 23.7879
 23.7984
 23.8072
 23.7885
 23.8522
 23.7797
 24.7693
 24.7152
 24.8005
 24.7548
 23.4679
 23.4242
 23.4382
 23.4203
 24.1677
 24.2317
 24.2262
 24.1556
 23.9259
 23.9974
 23.9833
 24.0115
 23.4114
 23.3644
 23.3484
 23.3622
 25.0345
 25.0601
 25.0296
 24.9977
 24.5515
 24.6238
 24.6151
 24.6016
 22.7145
 22.8253
 22.741
 22.7686
 24.821
 24.8319
 24.8112
 24.7234
 25.036
 25.067
 25.0515
 25.0467
 24.1537
 24.1254
 24.1576
 24.0747
 25.6185
 25.6008
 25.6354
 25.5626
 24.0329
 24.0191
 24.0502
 24.0271
 23.3663
 23.4051
 23.4227
 23.4327
 23.1606
 23.202
 23.1853
 25.0774
 25.0693
 25.0578
 25.0785
 24.6857
 24.6172
 24.6982
 24.6317
 24.751
 24.7718
 24.7887
 24.8212
 24.607
 24.6575
 24.623
 24.6458
 22.6659
 22.6127
 22.5868
 22.6071
 24.9767
 24.969
 24.9926
 25.0289
 24.6369
 24.6873
 24.6462
 24.5837
 23.228
 23.198
 23.2342
 23.2636
 24.4139
 24.44
 24.3987
 24.5663
 24.6429
 24.5958
 23.8533
 23.925
 23.9679
 25.5032
 25.4409
 25.4303
 25.4805
 24.0244
 23.9942
 24.0275
 23.9694
 24.0224
 23.9942
 24.0809
 24.0566
 23.0472
 23.0094
 23.0818
 23.0958
 22.9001
 22.9301
 22.8068
 22.9189
 24.8115
 24.8544
 24.8607
 24.7678
 23.8834
 23.8079
 23.8157
 23.8154
 23.8371
 23.7896
 23.761
 23.7839
 24.1449
 24.0692
 24.1022
 24.0473
 24.4535
 24.4211
 24.4197
 24.4937
 23.8926
 23.9465
 23.9233
 23.877
 24.8372
 24.8225
 24.8515
 24.8056
 23.0388
 23.0639
 23.0333
 23.0129
 24.6364
 24.644
 24.6091
 24.5873
 23.1469
 23.2147
 23.1824
 23.1415
 22.8466
 22.8917
 22.9249
 22.8567
 22.9742
 23.0002
 22.9946
 23.013
 24.6997
 24.7424
 23.5603
 23.5672
 23.6176
 23.5886
 24.7844
 24.7107
 24.7472
 24.7717
 23.3722
 23.2618
 23.3024
 23.2781
 23.1228
 23.1957
 23.1028
 23.1845
 24.4807
 24.4481
 24.4343
 24.4677
 23.9332
 23.9336
 23.8797
 23.9119
 24.6027
 24.5968
 24.5544
 24.5963
 24.2672
 24.2609
 24.255
 24.1983
 25.9086
 25.8198
 25.9212
 25.8407
 22.9578
 22.9946
 22.9045
 22.9777
 24.5703
 24.6402
 24.5622
 24.5506
 25.0566
 25.1072
 25.1032
 25.0396
 24.2008
 24.2237
 24.1678
 24.1374
 25.0031
 25.0913
 25.0974
 25.0125
 24.2745
 24.3441
 24.3538
 24.3083
 23.5311
 23.5549
 23.477
 23.5747
 24.0868
 24.1279
 24.1296
 24.1031
 23.048
 22.9374
 23.0492
 24.1977
 24.1339
 24.2372
 24.1575
 25.9483
 25.9718
 25.9726
 26.0016
 22.587
 22.5575
 22.5343
 22.5949
 23.994
 23.998
 23.9618
 24.0064
 23.4054
 23.4516
 23.5021
 23.4374
 24.8488
 24.7951
 24.9244
 24.8684
 24.438
 24.3944
 24.4969
 24.4459
 24.4627
 24.3743
 24.4145
 24.3751
 22.9474
 22.9923
 22.934
 22.8948
 24.3777
 24.4276
 24.4614
 24.4442
 22.6111
 22.6335
 22.5928
 22.6718
 23.558
 23.626
 23.628
 23.5514
 24.8128
 24.7978
 24.7753
 24.8082
 25.6401
 25.6326
 25.5839
 25.6624
 24.2576
 24.3431
 24.2945
 24.3559
 24.0635
 24.0676
 24.0124
 24.0814
 23.4499
 23.4603
 23.4905
 23.5505
 25.8489
 25.8939
 25.819
 25.866
 24.2405
 24.2892
 24.2074
 24.2272
 22.7507
 22.7891
 22.8086
 22.7897
 23.2962
 23.2321
 23.256
 23.2772
 23.2273
 23.2487
 23.1825
 23.2659
 23.2291
 23.2868
 23.3001
 23.2743
 23.2376
 23.1546
 23.2086
 23.2122
 23.8083
 23.7833
 23.8122
 23.8124
 24.7583
 24.6447
 24.5825
 24.569
 24.6123
 23.6519
 23.739
 23.7088
 23.7008
 23.6685
 23.6479
 23.7285
 23.7245
 25.3007
 25.2675
 25.2676
 25.2996
 23.1135
 23.1172
 23.1512
 23.1213
 23.3918
 23.341
 23.279
 23.3218
 24.8395
 24.746
 24.765
 24.6627
 24.6643
 24.6787
 24.6387
 24.5983
 24.6106
 24.5735
 24.7114
 24.7788
 24.8628
 24.8166
 23.6539
 23.5858
 23.6022
 23.674
 22.7597
 22.7417
 22.7797
 22.7414
 24.0883
 24.1151
 24.0718
 24.1467
 22.8769
 22.9875
 23.0118
 23.0243
 24.2307
 24.2486
 24.2703
 24.2045
 23.6196
 23.68
 23.7157
 23.7056
 24.7392
 24.7489
 24.765
 24.8066
 23.91
 23.8322
 23.9331
 23.8689
 23.8003
 23.7306
 23.6928
 23.7984
 24.7151
 24.7438
 24.7973
 24.7717
 24.4096
 24.4483
 24.3332
 24.3683
 24.1978
 24.2065
 24.2539
 24.2923
 23.8458
 23.8217
 23.8476
 23.8143
 25.1278
 25.1304
 25.109
 25.0598
 23.6743
 23.7428
 23.711
 23.661
 24.4169
 24.4924
 24.405
 24.3758
 23.5663
 23.5761
 23.5662
 23.608
 23.0067
 23.0695
 23.0206
 23.0458
 22.8947
 22.9442
 22.9333
 22.9151
 22.8809
 22.8384
 22.9519
 22.6003
 22.5533
 22.5232
 22.4863
 23.217
 23.2907
 23.3546
 23.2642
 24.077
 24.09
 24.0462
 24.0561
 22.8104
 22.8493
 22.8887
 22.8197
 24.0247
 24.0241
 24.0592
 24.0666
 23.7992
 23.7647
 23.7815
 23.0565
 22.9864
 23.0257
 23.0303
 23.0371
 23.1139
 23.0815
 23.8789
 23.8882
 23.843
 23.8297
 24.4515
 24.4192
 24.4594
 24.38
 23.6022
 23.6539
 23.6717
 23.6804
 22.9206
 22.8733
 22.9109
 22.9386
 24.6127
 24.6379
 24.6175
 24.6716
 24.1312
 24.1527
 24.1932
 24.2112
 24.0318
 23.9381
 24.024
 24.0299
 23.4989
 23.5645
 23.5246
 23.5244
 24.6706
 24.7162
 24.635
 24.7029
 24.8785
 24.9318
 24.873
 24.8696
 24.1068
 24.1081
 24.1162
 24.0601
 22.6124
 22.6529
 22.6599
 22.6527
 24.5706
 24.6378
 24.5618
 24.6042
 24.8036
 24.7617
 24.8319
 24.7583
 23.7115
 23.7904
 23.7076
 23.7248
 24.5903
 24.552
 24.5899
 24.861
 24.8073
 24.8311
 23.8341
 23.887
 23.7883
 23.8625
 24.7803
 24.8125
 24.8485
 24.7825
 24.8314
 24.8988
 24.8379
 24.8468
 23.6674
 23.6524
 23.6816
 24.6826
 24.6897
 23.0933
 23.075
 22.9917
 22.9785
 23.6019
 23.5151
 23.5185
 23.5411
 25.1688
 25.1272
 25.204
 25.1086
 25.5083
 25.4681
 25.5493
 25.4843
 24.548
 24.6588
 24.5961
 24.5838
 23.029
 23.0312
 22.99
 23.0184
 23.5674
 23.6139
 23.6407
 23.6173
 25.0644
 25.0766
 25.0833
 25.0919
 24.5941
 24.593
 24.5557
 24.54
 24.5929
 24.57
 24.5824
 24.7501
 24.7076
 24.7027
 24.7056
 24.7068
 24.7554
 24.7045
 24.6797
 24.8487
 24.9227
 24.8703
 24.9117
 22.8757
 22.8015
 22.8605
 22.8467
 22.8342
 22.7738
 22.8783
 24.1244
 24.1665
 24.115
 24.1811
 24.6091
 24.6879
 24.5982
 24.6166
 22.5988
 22.5388
 24.8613
 24.9088
 24.8937
 24.9309
 23.9303
 23.8309
 23.8937
 23.8429
 23.746
 23.7718
 24.7911
 24.7974
 24.7421
 24.7863
 22.8312
 22.7774
 22.8569
 22.7346
 22.6629
 22.7173
 22.6722
 22.5683
 24.2223
 24.1962
 24.2151
 25.2812
 25.2276
 25.2498
 24.6678
 24.5898
 24.6743
 24.6585
 23.3778
 23.4402
 23.3347
 23.426
 24.4428
 24.4788
 24.5049
 24.5343
 24.5381
 24.571
 24.5177
 24.5791
 23.6368
 23.6299
 23.6114
 23.5349
 25.8139
 25.7547
 25.8159
 25.8619
 23.4732
 23.4661
 23.4019
 23.4088
 23.4518
 23.4584
 23.4052
 23.3875
 24.8832
 24.8742
 24.9624
 24.9002
 23.0645
 23.0148
 23.0071
 23.0779
 25.923
 25.9827
 25.996
 26.0365
 22.8784
 22.9961
 22.9972
 22.9895
 23.163
 23.2345
 24.5453
 24.5002
 24.5079
 24.4673
 24.9474
 25.0126
 24.9745
 24.9266
 23.1104
 23.0455
 23.0498
 23.0817
 24.4767
 24.4658
 24.4697
 24.5055
 22.5841
 22.6255
 22.601
 24.6384
 24.6956
 24.7056
 25.0304
 24.9577
 24.9381
 22.9277
 22.8821
 22.9079
 22.9364
 24.6294
 24.6706
 24.6745
 24.6611
 23.0794
 23.0721
 25.0576
 25.0087
 25.0562
 25.038
 24.0655
 23.9968
 24.0051
 24.0429
 24.581
 24.6005
 24.3384
 24.2267
 24.2318
 24.2947
 24.5071
 24.5127
 24.5071
 24.5744
 22.6554
 22.5976
 22.6999
 22.6753
 24.9932
 25.0256
 25.0122
 23.269
 25.8766
 25.9095
 25.9005
 25.9215
 23.0784
 23.0497
 23.0222
 23.1315
 24.5373
 24.5305
 24.43
 24.4585
 23.4312
 23.4709
 23.4579
 23.4385
 24.5141
 24.561
 24.5874
 24.5305
 23.6582
 25.2935
 25.3153
 25.3163
 25.2858
 23.6271
 23.6355
 23.6471
 23.6969
 23.1994
 23.1753
 23.1311
 23.2541
 23.2454
 23.3219
 23.2424
 23.0556
 22.9689
 23.038
 23.0167
 24.8573
 24.8398
 24.7691
 24.8078
 23.0019
 22.9999
 23.0129
 22.9494
 25.0449
 25.06
 25.0457
 25.1088
 23.064
 23.024
 23.0052
 23.0031
 24.158
 24.1911
 24.1991
 24.2124
 23.4752
 23.4388
 23.4161
 23.4016
 23.866
 23.8974
 23.9158
 23.932
 22.8277
 22.9187
 24.0283
 24.0855
 24.0705
 24.0301
 25.2204
 25.2453
 25.1716
 25.2432
 25.0364
 25.0609
 24.9799
 25.0501
 23.8785
 23.8295
 23.8141
 23.813
 23.4401
 23.4444
 23.4484
 23.3706
 23.3011
 23.3634
 23.3232
 23.2872
 22.9886
 23.0606
 23.0441
 23.0921
 23.312
 23.2335
 23.2783
 23.3136
 25.0012
 25.0192
 24.976
 25.0558
 24.7885
 24.7929
 24.8058
 24.7238
 22.5423
 22.6026
 22.6299
 22.6204
 23.8189
 23.778
 23.8036
 23.7088
 24.6937
 24.6147
 24.6806
 24.6511
 25.6447
 25.6505
 25.5875
 25.6944
 23.0545
 23.0233
 23.0801
 22.9642
 24.683
 24.6608
 24.6459
 24.6083
 24.291
 24.242
 24.3237
 24.2801
 25.115
 25.1276
 25.1187
 25.0702
 23.7126
 23.7506
 23.723
 23.7214
 22.9235
 22.9173
 22.9469
 22.9243
 23.7957
 23.8909
 23.8544
 23.8692
 24.2461
 24.2151
 24.1693
 24.2027
 25.1842
 25.1494
 25.1195
 25.2051
 22.8953
 23.5437
 23.4996
 23.5746
 23.4952
 24.2564
 24.2869
 24.3396
 24.3021
 23.3736
 23.3383
 23.3525
 23.2894
 24.6673
 24.7388
 24.6946
 24.6624
 23.7671
 23.7183
 23.7895
 25.2086
 25.1119
 25.1828
 25.1742
 23.1937
 23.3085
 23.2406
 23.2742
 24.9575
 24.9702
 24.9215
 24.9578
 22.3185
 22.3537
 22.3284
 22.2781
 24.7138
 24.7074
 24.6927
 24.7089
 25.5431
 25.4137
 25.4322
 25.4814
 25.2321
 25.2394
 25.193
 25.1792
 22.566
 22.6189
 22.6384
 22.671
 22.8261
 22.834
 22.8014
 22.7904
 24.1279
 24.076
 24.0967
 24.0639
 24.6317
 24.6613
 24.6232
 23.9634
 23.9698
 24.0476
 24.0205
 23.5788
 23.6179
 23.5311
 23.546
 23.8921
 23.7779
 23.8166
 23.8328
 24.0223
 24.0103
 23.9052
 23.954
 22.5192
 22.5704
 22.5725
 22.6004
 24.825
 24.8495
 24.7588
 24.824
 25.1965
 25.2821
 25.2805
 23.4177
 23.4543
 23.4559
 23.4979
 23.1585
 23.0977
 23.1297
 23.1429
 24.6848
 24.69
 24.6728
 24.7973
 24.7851
 24.7498
 24.84
 22.9787
 23.0179
 22.9447
 23.0464
 24.1424
 24.1589
 24.0952
 24.1378
 24.7608
 24.8273
 24.7751
 24.7843
 24.275
 24.3086
 24.3044
 24.2602
 23.2159
 23.2072
 23.2679
 23.2115
 24.6754
 24.5978
 24.7113
 24.6241
 24.2112
 24.3105
 24.2955
 24.242
 24.5162
 24.4397
 24.4931
 22.8579
 22.8715
 22.908
 22.9259
 24.0678
 24.0734
 24.1077
 24.0353
 22.5163
 22.5516
 22.4209
 23.9992
 23.9577
 23.983
 23.999
 25.1364
 25.0928
 25.1655
 25.1393
 23.8377
 23.8234
 23.7901
 23.7364
 24.0446
 23.9587
 24.0662
 24.6663
 24.6568
 24.5931
 24.6066
 24.9929
 24.9753
 25.0172
 24.9541
 24.6843
 24.6485
 24.6112
 24.6868
 25.5789
 25.5585
 25.5071
 25.499
 24.3465
 24.3574
 24.3831
 24.3944
 24.5429
 24.5671
 24.4891
 24.5816
 22.8802
 22.9843
 22.9629
 22.8502
 24.9522
 24.8765
 24.8961
 24.9182
 23.6713
 23.6915
 23.6553
 23.6224
 22.607
 22.5884
 22.6278
 22.666
 22.5943
 22.6961
 22.6491
 22.6318
 23.2754
 23.2382
 23.265
 23.2651
 22.6037
 22.5148
 22.5243
 22.6474
 22.9308
 22.9299
 22.9381
 22.4923
 22.6039
 22.5759
 22.5772
 25.1531
 25.1844
 25.1526
 25.2092
 24.2702
 24.3545
 24.362
 24.3423
 24.4785
 24.4124
 24.4632
 24.4104
 24.4396
 24.4759
 24.4748
 24.4907
 22.8494
 22.8917
 22.8313
 22.8183
 24.3475
 24.3435
 24.4053
 24.4103
 24.6663
 24.7326
 24.7416
 24.6867
 23.4732
 23.4903
 23.4285
 23.5168
 24.5874
 24.5382
 24.592
 24.5304
 23.4059
 23.4559
 23.4874
 23.9561
 23.8919
 23.8744
 22.9646
 23.0397
 23.0491
 23.0167
 24.2695
 24.2436
 24.2912
 24.29
 23.6517
 23.7081
 23.6871
 23.6325
 24.458
 24.534
 24.5013
 24.4379
 22.504
 22.5528
 22.7537
 22.7788
 22.8027
 22.7112
 25.1915
 25.2165
 25.2125
 25.2547
 23.6526
 23.6062
 23.5898
 23.5458
 24.6595
 24.6047
 24.6707
 24.6926
 26.1187
 26.2039
 26.1212
 26.1491
 24.6701
 24.6985
 24.7361
 24.6919
 23.4706
 23.535
 23.4723
 24.9878
 24.9977
 24.9163
 24.9197
 22.6427
 22.7199
 22.635
 22.7046
 24.6779
 24.647
 24.6679
 24.6338
 23.7242
 23.6604
 23.6781
 23.7179
 25.0705
 25.0639
 25.1197
 25.0746
 25.768
 25.7389
 25.7418
 25.709
 24.7604
 24.709
 24.7593
 24.779
 24.3392
 24.3648
 24.3169
 23.8728
 23.9796
 23.8815
 23.9249
 24.8627
 24.8563
 24.9101
 23.3558
 23.3861
 23.3377
 23.2981
 23.2822
 23.1947
 23.2876
 23.2141
 23.4851
 23.5605
 23.504
 23.4897
 22.74
 22.8912
 22.8453
 22.8171
 23.2823
 23.3074
 23.2483
 24.5019
 24.4551
 24.4709
 24.4352
 23.362
 23.4218
 23.6038
 23.6594
 23.6795
 23.6409
 23.4992
 23.5214
 23.5033
 23.4697
 24.7315
 24.707
 24.7198
 24.7704
 24.7243
 24.6726
 24.7163
 24.6624
 26.1489
 26.1088
 26.0898
 26.1205
 24.7095
 24.6573
 24.7096
 24.4554
 24.4782
 24.4945
 24.4709
 23.9988
 23.999
 24.0333
 24.0459
 24.4737
 24.4159
 24.4072
 24.4505
 25.1448
 25.1101
 25.1552
 25.1531
 23.1752
 23.2746
 23.2049
 23.2412
 24.1624
 24.1174
 24.1569
 24.2006
 22.977
 22.9808
 22.9992
 22.9469
 23.8941
 23.9421
 23.8943
 23.9324
 22.7841
 22.7391
 22.7762
 25.701
 25.6482
 25.6598
 25.6621
 23.5071
 23.4081
 23.4836
 23.4728
 24.1807
 24.2327
 24.1691
 24.1971
 24.8095
 24.8455
 24.4501
 24.434
 24.4018
 24.4161
 24.2572
 24.3269
 24.3157
 22.9417
 22.918
 22.9834
 22.9388
 22.8542
 22.8933
 22.9445
 22.9271
 24.841
 24.8579
 24.8217
 24.8484
 24.1799
 24.1949
 24.5987
 24.5398
 24.5786
 24.6293
 23.3137
 23.3736
 23.2668
 23.2597
 25.109
 25.0824
 25.1162
 25.0636
 24.765
 24.7518
 24.8029
 24.8101
 24.6208
 24.5552
 24.5263
 24.5594
 23.9533
 23.9603
 23.9718
 23.8743
 23.446
 23.4493
 23.4896
 23.5008
 23.3136
 23.3398
 23.3928
 23.3395
 25.9496
 25.9576
 25.9864
 26.0063
 24.9816
 24.9238
 24.8935
 23.8336
 23.945
 23.8789
 23.7896
 23.7437
 23.8047
 23.7172
 22.911
 22.8575
 22.8976
 22.8351
 24.0944
 24.6598
 24.6576
 24.716
 24.7077
 23.6047
 23.6375
 23.6904
 23.6678
 23.2195
 23.2952
 23.2932
 23.2108
 23.2212
 23.2183
 24.8556
 24.8877
 24.9114
 24.9182
 23.9793
 23.9235
 23.9405
 23.9212
 25.0404
 25.0662
 25.0487
 25.018
 23.7518
 24.3831
 24.4159
 24.3187
 24.2968
 24.4848
 24.4439
 24.4186
 24.4592
 22.9135
 22.9849
 22.7875
 22.738
 22.6974
 22.7554
 25.3667
 25.4221
 25.3858
 25.3674
 23.2975
 23.2918
 23.374
 23.2715
 23.8106
 23.8773
 23.8356
 23.7682
 25.857
 25.8356
 25.8405
 25.8829
 24.0225
 24.0234
 23.991
 24.0524
 24.0836
 24.152
 24.1911
 24.1912
 24.8378
 24.894
 24.8037
 24.8341
 22.5908
 22.515
 22.5082
 22.4888
 24.1334
 24.1989
 24.1971
 24.5156
 24.4559
 24.4501
 24.5092
 22.75
 22.6615
 22.7286
 22.7168
 24.5517
 24.5922
 24.6379
 24.5512
 24.2005
 24.1581
 23.1705
 23.1799
 23.1252
 23.2323
 23.8647
 23.8511
 23.7793
 23.777
 22.7523
 22.789
 22.6976
 22.7511
 24.1778
 24.0814
 24.7591
 24.7402
 24.7244
 24.7246
 24.5647
 24.5534
 24.5114
 24.4937
 23.1102
 23.0937
 23.1741
 23.1449
 23.309
 23.3475
 23.2793
 23.2893
 23.3341
 23.4044
 23.3416
 23.3402
 24.5659
 24.492
 24.5218
 24.5582
 25.4355
 25.4803
 25.4645
 25.444
 22.5988
 22.52
 22.5878
 22.5513
 24.8437
 24.8428
 24.8342
 24.805
 23.915
 23.8549
 23.8555
 23.8928
 24.4393
 24.3482
 24.4116
 24.3785
 23.9158
 23.9918
 23.9164
 23.6616
 23.5887
 23.6567
 23.5636
 24.0836
 24.0413
 24.0688
 24.1215
 23.4625
 23.4345
 23.3925
 23.4782
 23.4484
 23.4746
 23.447
 23.5477
 25.8235
 25.7448
 25.8198
 25.0417
 24.9855
 24.9449
 24.9688
 23.8742
 23.9163
 23.8984
 23.9046
 23.195
 23.1194
 23.16
 23.1196
 24.6328
 24.7138
 24.6349
 24.6091
 24.5677
 24.5622
 23.7734
 23.8121
 23.7716
 23.767
 23.9389
 23.8741
 23.8623
 23.8519
 22.1946
 22.2188
 22.2624
 22.1699
 25.2072
 25.1756
 25.2213
 25.2874
 23.3923
 23.3885
 24.3423
 24.2872
 24.277
 24.3404
 23.5149
 23.4859
 23.4899
 23.4721
 23.7915
 23.7829
 23.742
 23.7581
 24.2932
 24.2876
 24.2327
 24.3298
 23.6252
 23.5662
 23.5779
 23.5721
 24.8358
 24.8093
 24.8179
 24.7713
 25.0169
 25.0799
 25.0078
 25.0421
 23.1577
 23.1288
 23.0886
 22.9928
 23.924
 23.8956
 23.8467
 25.479
 25.5132
 25.4595
 23.0579
 23.0275
 23.0141
 22.987
 23.0131
 23.0392
 23.0641
 23.0665
 24.0699
 24.0586
 24.052
 24.0064
 22.9058
 22.862
 22.8801
 22.8718
 22.698
 22.6026
 22.6887
 22.5999
 24.2546
 24.2275
 24.178
 24.2431
 23.193
 23.1595
 23.1377
 23.1433
 22.2424
 22.2114
 22.2938
 22.1978
 23.3547
 23.3418
 23.3834
 23.2861
 23.8616
 23.9548
 23.9135
 23.9741
 23.1242
 23.0811
 23.1338
 23.15
 23.5194
 23.5327
 23.4933
 23.6988
 23.6448
 25.2677
 25.2677
 25.2802
 25.3047
 23.7074
 23.648
 23.6582
 23.6765
 25.4181
 25.4057
 25.3945
 25.3938
 25.3348
 25.3406
 25.287
 25.255
 23.7976
 23.7717
 23.7632
 23.8206
 24.3652
 24.3657
 24.4164
 24.3379
 23.5894
 23.5248
 23.5402
 23.5495
 24.027
 24.0691
 25.0874
 25.1198
 25.1049
 25.0546
 22.6639
 22.6385
 22.6047
 22.6665
 24.3409
 24.3949
 24.2984
 24.336
 23.0271
 23.0484
 23.1021
 23.0621
 25.0685
 25.1222
 25.0715
 25.0882
 22.9679
 22.8617
 22.8958
 22.8775
 23.6938
 23.7758
 23.7123
 23.7227
 24.6137
 24.6713
 24.7126
 24.681
 22.3836
 22.4235
 22.4133
 22.4716
 24.5125
 24.4417
 24.4953
 24.5129
 24.2269
 24.3251
 24.2633
 24.2881
 22.6667
 22.6539
 22.7181
 22.6517
 24.0663
 24.1577
 24.1372
 24.1404
 23.1498
 23.096
 23.1238
 23.1564
 23.1367
 23.1816
 23.1617
 24.2236
 24.3359
 24.2813
 24.3097
 23.1938
 23.1273
 23.1679
 23.1495
 24.9003
 24.8346
 24.8393
 24.9081
 23.0427
 22.9983
 23.0032
 23.0374
 23.0687
 23.092
 23.0501
 23.0822
 24.7585
 24.7713
 24.6563
 24.716
 24.7195
 24.7444
 24.6848
 24.7709
 26.3585
 26.3411
 26.3997
 26.3872
 23.2659
 23.3427
 23.33
 25.2927
 25.2088
 25.215
 25.2426
 22.8071
 22.8582
 22.8471
 22.8299
 24.7792
 23.0782
 23.1421
 23.1132
 23.0631
 23.079
 23.1215
 23.1368
 25.9166
 25.992
 25.9755
 25.943
 25.9849
 26.0017
 26.0038
 26.0254
 22.7831
 22.838
 22.784
 22.7438
 24.712
 24.7393
 24.6814
 24.7505
 23.5352
 23.5701
 23.4946
 24.4438
 24.4946
 24.4475
 24.5302
 24.2161
 24.211
 24.24
 23.0493
 23.0818
 22.9798
 23.821
 23.777
 23.7629
 23.8051
 24.4345
 24.4955
 24.5029
 24.4551
 24.783
 24.7635
 24.7947
 24.769
 23.5621
 23.5246
 23.5167
 25.0988
 25.068
 25.1494
 25.1536
 24.7408
 24.6172
 24.6872
 24.2707
 24.1744
 24.1859
 24.2407
 24.7639
 24.704
 24.7127
 24.7344
 24.7581
 24.6792
 24.6655
 24.6848
 23.0055
 23.0462
 23.0441
 23.0527
 24.1809
 24.2359
 24.1864
 24.1615
 24.5047
 24.5305
 23.8525
 23.8993
 23.8657
 23.9286
 22.7923
 22.9011
 22.8697
 22.8917
 22.9038
 26.4262
 26.4496
 26.4635
 26.4289
 23.2379
 23.1702
 23.2057
 22.6033
 22.634
 22.654
 22.6202
 23.3803
 23.4698
 23.4591
 23.4652
 24.7954
 24.7715
 24.7388
 24.7999
 24.2154
 24.2571
 24.2865
 24.2553
 22.5486
 22.561
 22.5861
 22.5936
 23.2568
 23.3032
 23.3465
 23.2983
 25.1218
 25.1624
 25.1675
 25.0936
 24.2991
 24.2776
 24.2671
 24.359
 24.3939
 24.3648
 24.328
 24.3759
 26.4508
 26.465
 26.4621
 26.4471
 24.9079
 24.9176
 24.9382
 24.8774
 23.2834
 23.2073
 23.2932
 23.2492
 23.7559
 23.7611
 23.7048
 23.7792
 24.1161
 24.0684
 24.0197
 24.1109
 23.4759
 23.4139
 23.4364
 23.4369
 23.6887
 23.6986
 23.6371
 23.7025
 23.4047
 23.4012
 23.4503
 23.3338
 22.3591
 22.4753
 22.4364
 22.3256
 23.2041
 23.2312
 23.2478
 23.3369
 23.4381
 23.4719
 23.5252
 23.4626
 23.5526
 23.8993
 23.8986
 23.9409
 23.8432
 22.8285
 22.8585
 22.8694
 22.8658
 24.1789
 24.2118
 24.1532
 24.1752
 23.8078
 23.7828
 23.7503
 23.8428
 23.991
 24.0561
 24.0144
 23.9637
 24.4042
 24.491
 24.4256
 24.4847
 25.6225
 25.5954
 25.5342
 25.6411
 22.2643
 22.3716
 23.6362
 23.6699
 23.6774
 26.1796
 26.1829
 26.1928
 24.6232
 24.665
 24.638
 24.6889
 25.3015
 25.3023
 25.3841
 25.3819
 24.9042
 24.9339
 24.8886
 24.9635
 22.7222
 22.811
 22.7759
 22.7612
 23.9285
 24.0053
 23.9703
 24.0175
 23.4994
 23.4319
 23.4296
 23.3712
 23.6972
 23.7317
 23.7605
 23.8217
 23.45
 23.4143
 23.4734
 23.4505
 24.1086
 24.1051
 23.1092
 23.2423
 23.1245
 23.2356
 23.3529
 23.3933
 23.4246
 23.2989
 24.6419
 24.7163
 24.6318
 24.7065
 24.7003
 24.6853
 24.6868
 24.6762
 23.8641
 23.8512
 23.8784
 23.8386
 23.8579
 23.8142
 23.7758
 23.7306
 24.9202
 25.0015
 25.0208
 24.9037
 23.392
 23.4463
 23.4695
 23.4737
 22.4075
 22.4451
 22.4058
 22.4424
 23.0653
 23.101
 23.1017
 23.1318
 22.3505
 22.3124
 22.3868
 22.292
 23.0052
 22.9321
 22.9503
 22.9469
 23.9527
 23.8694
 23.9368
 23.9163
 23.5135
 23.5521
 24.0769
 24.0023
 24.0971
 24.0572
 24.6853
 24.628
 24.6372
 24.6155
 23.2798
 23.1831
 23.182
 23.2416
 24.098
 24.1123
 24.0953
 24.165
 24.2348
 24.2835
 24.3
 24.2715
 24.7723
 24.7704
 24.741
 24.6904
 24.5554
 24.5445
 24.5876
 24.4929
 24.7396
 24.6926
 24.6944
 24.7191
 25.601
 25.5952
 25.6414
 25.6199
 23.3302
 23.3056
 23.3703
 23.3163
 23.5671
 23.5533
 25.4287
 25.4318
 25.4348
 25.4899
 24.4635
 24.4391
 23.6112
 23.6624
 23.6026
 23.1474
 23.1248
 24.9014
 24.9082
 24.9416
 24.8642
 25.5067
 25.4792
 25.4769
 25.4607
 24.9778
 24.9466
 24.9112
 24.899
 24.4797
 24.4174
 24.406
 24.402
 23.7277
 23.7999
 23.8041
 23.7978
 23.4592
 23.4861
 23.4962
 23.5053
 24.4946
 24.4447
 24.4332
 24.4473
 23.8524
 23.852
 23.8255
 23.9175
 23.9258
 23.9681
 23.9836
 23.9502
 23.9116
 23.8657
 23.838
 23.8606
 23.821
 23.9194
 23.824
 24.0829
 24.1305
 24.0371
 24.0757
 24.3479
 24.3203
 24.4073
 24.3477
 24.7257
 24.6744
 24.7597
 24.6755
 22.7918
 22.8126
 22.7719
 22.7313
 24.1929
 24.1919
 24.12
 24.1311
 25.0097
 25.0066
 25.1096
 25.0314
 25.137
 25.1162
 25.146
 25.1592
 24.993
 25.0425
 25.038
 25.0111
 24.7315
 24.7357
 24.669
 24.6555
 24.7737
 24.8105
 24.8269
 24.7986
 22.9929
 22.9539
 22.9459
 22.9254
 24.2033
 24.2042
 24.2165
 24.1558
 23.3923
 23.3239
 23.3769
 23.4128
 24.7248
 24.6561
 24.7386
 24.6867
 22.7293
 22.7049
 22.7108
 22.6749
 22.6482
 22.6643
 22.581
 23.378
 23.5011
 23.4639
 23.4566
 24.6268
 24.5942
 24.6596
 24.6083
 22.4632
 22.563
 22.5432
 24.307
 24.3589
 24.3105
 24.394
 23.0204
 23.0085
 23.1468
 23.1264
 23.0721
 23.1502
 24.3949
 24.4308
 24.4059
 24.9907
 24.9675
 25.0343
 25.0145
 24.7207
 24.7423
 24.6785
 24.6824
 23.9918
 23.9212
 24.0151
 22.6506
 22.7667
 22.7553
 23.4028
 23.4833
 23.5009
 23.4576
 22.6479
 22.6746
 22.7532
 22.5936
 24.2697
 24.204
 24.1729
 24.2116
 22.8985
 22.8882
 22.8574
 22.9472
 23.9152
 23.9009
 23.9434
 23.9793
 24.5645
 24.6322
 24.5991
 22.5296
 22.591
 22.5578
 22.4654
 23.5965
 23.7999
 23.7246
 23.7573
 23.7889
 23.6459
 23.6356
 23.6862
 24.5882
 24.6303
 24.6183
 24.6206
 24.6232
 24.5433
 24.2634
 24.3257
 24.3216
 24.3268
 24.2087
 24.134
 24.1881
 24.1435
 23.4411
 22.4502
 22.5578
 22.5683
 22.4972
 25.7524
 25.8201
 25.7983
 25.8046
 24.5053
 24.5359
 24.6309
 24.6519
 24.6163
 24.6002
 24.6336
 24.6297
 24.7109
 24.6829
 23.355
 23.4364
 23.4316
 23.3882
 23.3048
 23.2838
 23.3616
 23.2911
 24.4762
 24.535
 23.4979
 23.4795
 23.3995
 23.4509
 23.4885
 23.4177
 23.4819
 23.7892
 23.8397
 23.874
 23.8932
 24.1499
 24.2054
 24.1507
 24.2115
 23.3591
 23.2651
 23.2792
 23.3525
 23.1503
 23.1469
 23.0909
 23.1677
 23.2141
 23.1481
 23.1939
 23.3365
 23.3232
 23.3206
 23.3741
 24.2598
 24.2435
 24.2324
 24.2837
 25.2845
 25.3104
 25.2656
 25.2582
 24.3993
 24.4059
 24.437
 24.4212
 23.1348
 23.2004
 23.2445
 23.1872
 23.5314
 23.5714
 23.5724
 23.5213
 24.3996
 24.367
 24.341
 24.3384
 23.5586
 23.6229
 23.5756
 23.5613
 23.867
 23.8447
 23.9294
 23.8365
 23.8776
 23.8162
 23.841
 23.8141
 23.5777
 23.5261
 23.5361
 22.929
 22.9066
 22.9499
 22.9366
 24.4225
 24.3607
 24.3883
 24.3852
 24.0963
 24.0366
 24.0418
 24.054
 25.2037
 25.235
 25.221
 25.1705
 24.7837
 24.7455
 24.7444
 24.7823
 24.7206
 24.8125
 24.7644
 24.8214
 24.8038
 24.7715
 24.7809
 24.7525
 23.8821
 23.9148
 23.903
 25.0568
 25.0709
 25.0348
 25.022
 24.8752
 24.8525
 24.8145
 24.8762
 22.497
 22.5772
 22.5793
 22.5202
 23.8362
 23.8689
 23.9079
 23.9334
 23.1691
 23.1689
 23.2118
 23.2235
 23.7427
 23.7131
 23.7561
 23.7942
 23.5903
 23.544
 23.5966
 23.5843
 24.5893
 24.6398
 24.6164
 24.6874
 24.0181
 23.8992
 23.994
 23.9758
 23.0938
 23.0443
 23.0869
 23.0641
 23.7046
 23.7298
 23.6402
 23.6531
 24.8295
 24.8684
 24.8056
 24.7736
 22.8949
 22.8703
 22.8923
 22.858
 24.3201
 24.3735
 24.9081
 24.0104
 23.9824
 23.9353
 24.0233
 24.1706
 24.1087
 24.1773
 24.192
 25.4936
 25.5027
 25.4446
 24.4135
 24.474
 24.4873
 24.5242
 23.7142
 23.6148
 23.6593
 23.598
 23.9153
 23.8741
 23.8973
 23.9218
 22.9056
 22.8719
 22.8651
 22.887
 24.7431
 24.6449
 24.7148
 24.621
 24.625
 24.6383
 24.5642
 25.3485
 25.4353
 25.381
 25.3618
 24.7782
 24.7033
 24.7587
 23.7244
 23.6057
 23.7053
 24.8166
 24.8263
 24.8781
 24.8507
 24.1481
 24.0888
 24.0786
 24.0768
 26.4417
 26.4472
 26.4364
 26.383
 24.242
 24.261
 24.2627
 25.0405
 25.0555
 25.0414
 25.0411
 24.2698
 24.2973
 24.3509
 24.3042
 24.8834
 24.8327
 24.8374
 24.8038
 23.4129
 23.3843
 23.4228
 23.3689
 23.266
 23.3237
 23.2811
 23.247
 22.6586
 22.6562
 22.6181
 22.7109
 23.8193
 23.8995
 23.8379
 23.8176
 24.8832
 24.9537
 24.8901
 24.9303
 24.5485
 24.5727
 25.2794
 25.2765
 25.2538
 25.2565
 24.1416
 24.1161
 24.4085
 24.3113
 24.334
 24.6801
 24.6426
 24.616
 24.6463
 22.7251
 22.6883
 22.7925
 22.7796
 22.8523
 22.8662
 22.8938
 22.8645
 24.613
 24.5959
 24.6387
 24.6809
 25.0757
 25.0549
 23.7364
 23.7101
 23.7265
 23.669
 24.7001
 24.7203
 24.6718
 24.6717
 24.3274
 24.4087
 24.2817
 22.2637
 22.2367
 22.3155
 23.9576
 23.8759
 23.9032
 23.9042
 22.9741
 22.9007
 22.9919
 23.0259
 23.8455
 23.7927
 23.7779
 23.8551
 23.3809
 23.3321
 23.3257
 23.4135
 24.9083
 24.8501
 24.898
 24.9282
 24.658
 24.5741
 24.6827
 24.6007
 23.8361
 23.8985
 23.7755
 23.8565
 24.3875
 24.3211
 24.3047
 24.3919
 24.8931
 24.8755
 24.8488
 24.8029
 24.14
 24.1149
 24.0744
 24.0422
 23.502
 23.4945
 23.538
 23.8934
 23.8285
 23.8718
 23.838
 26.0984
 26.0441
 25.9975
 26.0351
 25.0689
 25.0741
 25.056
 25.0654
 24.4305
 24.429
 24.4402
 24.3758
 25.5228
 25.4642
 25.5371
 25.5032
 22.9267
 22.9246
 22.9835
 22.571
 22.6301
 22.6944
 22.6395
 23.2522
 23.1412
 23.1851
 23.1818
 23.9218
 23.5456
 23.4581
 23.4391
 23.4969
 24.0178
 23.9695
 24.0488
 24.0554
 24.913
 24.9618
 24.9374
 24.6143
 24.5981
 24.5765
 24.665
 26.1014
 26.1616
 26.107
 26.1801
 25.4176
 25.4166
 25.4001
 25.3895
 24.4594
 24.4601
 24.4225
 24.3874
 22.4984
 22.6044
 22.5662
 22.5818
 25.9378
 25.9141
 25.864
 25.8698
 23.4358
 23.3706
 23.474
 23.4025
 23.9468
 23.9371
 23.8821
 23.9356
 24.592
 24.7021
 24.6914
 24.0581
 24.1301
 24.135
 24.1305
 22.6318
 22.5958
 22.5807
 24.8776
 24.7833
 24.7717
 24.2767
 24.2612
 24.1909
 24.2047
 24.4592
 24.4766
 24.4956
 24.5084
 24.4136
 24.4252
 24.3575
 24.3448
 24.9892
 25.0301
 25.0171
 24.9557
 24.097
 24.0527
 24.1168
 24.0551
 22.6722
 22.7714
 22.7709
 22.8194
 22.9503
 22.9604
 22.9606
 22.9114
 25.1335
 25.1141
 25.1188
 25.1253
 23.0081
 22.9755
 22.9784
 23.0599
 22.7862
 22.6915
 22.7157
 22.8012
 22.9802
 22.9915
 23.0668
 23.0601
 23.6315
 23.6363
 23.5859
 23.6114
 23.9953
 24.0411
 23.9782
 24.4537
 24.5453
 24.5236
 24.497
 23.2576
 23.3008
 23.3333
 23.2435
 23.2943
 23.2554
 23.2264
 23.2448
 22.2475
 22.2523
 22.3704
 22.3024
 25.4855
 25.4434
 25.4538
 25.4425
 25.2525
 25.2858
 25.2707
 25.2264
 24.9796
 25.0017
 24.9275
 25.005
 24.3745
 24.4655
 24.4046
 24.413
 24.3723
 24.366
 24.3677
 22.7549
 22.7118
 22.6444
 22.6845
 23.2299
 23.2626
 23.2998
 23.2899
 24.1113
 24.1571
 24.1776
 24.1431
 22.9095
 22.8694
 23.7728
 23.7745
 23.779
 23.8339
 22.9819
 22.9519
 22.8606
 22.927
 23.8686
 23.7897
 23.8847
 23.7828
 24.4677
 24.4344
 24.5262
 24.505
 25.1972
 25.234
 25.204
 25.1495
 26.1637
 26.0948
 26.1805
 26.1365
 23.0365
 23.0602
 23.0678
 23.0246
 22.7472
 22.7355
 22.7324
 22.6856
 24.2544
 24.3288
 24.2871
 24.3292
 23.9741
 24.0072
 24.0178
 23.9748
 24.705
 24.7674
 24.6621
 23.6126
 23.6639
 23.6534
 23.6806
 24.7353
 24.7468
 24.7032
 24.7076
 24.0784
 24.1343
 24.1839
 24.1443
 23.5928
 23.6251
 23.6128
 23.5812
 23.8978
 23.9175
 23.9511
 22.9432
 23.0063
 22.9887
 22.9909
 23.63
 23.5529
 25.5321
 25.4292
 25.5273
 25.4894
 23.3522
 23.4029
 23.3767
 24.6093
 24.5843
 24.5926
 24.5987
 23.7236
 23.7396
 23.7574
 23.9808
 24.0473
 23.9806
 24.0155
 23.6691
 23.7376
 23.6281
 23.6953
 23.6056
 23.5361
 25.8859
 25.8867
 25.9364
 25.8786
 26.0124
 26.088
 26.1075
 26.0451
 23.9548
 24.025
 23.9958
 24.0289
 23.7466
 23.7861
 23.7437
 23.7843
 25.8368
 25.8485
 25.8202
 25.7843
 24.6162
 24.6867
 25.0101
 25.0008
 24.9668
 24.9149
 23.58
 23.6105
 23.522
 23.5678
 23.7674
 23.7398
 23.6858
 23.7908
 23.6296
 23.7045
 23.7225
 23.7014
 24.4796
 24.4779
 24.4184
 24.4802
 24.8559
 24.8509
 24.9214
 24.8443
 25.2604
 25.199
 25.1993
 25.2514
 24.847
 24.857
 24.8543
 24.7552
 23.2964
 23.3589
 23.2963
 23.3419
 23.9516
 24.0995
 24.0277
 25.5181
 25.4752
 25.4393
 23.5033
 23.4009
 23.4592
 23.4643
 23.4232
 23.5482
 23.4801
 23.4629
 24.1956
 24.2371
 24.2608
 24.167
 24.1494
 24.0886
 24.1379
 24.8727
 24.9146
 24.9298
 24.93
 23.1705
 23.1927
 23.1393
 23.1726
 25.0386
 25.0569
 25.0505
 25.0208
 25.0502
 25.0908
 25.0573
 22.5187
 22.4293
 22.3826
 22.4563
 23.0161
 22.9723
 24.5758
 24.6003
 24.5431
 24.567
 24.0127
 23.9442
 24.0182
 24.1171
 24.153
 24.1354
 24.1905
 24.8843
 24.8373
 24.8545
 23.2237
 23.1828
 23.2664
 23.2402
 24.8924
 24.8094
 24.8656
 24.8773
 23.417
 23.4811
 23.4978
 23.4572
 25.0087
 24.9714
 24.8212
 24.8948
 24.8418
 24.8718
 24.6367
 24.6693
 24.6547
 24.6289
 25.4194
 25.433
 25.492
 25.462
 23.3183
 23.2411
 24.4427
 24.4047
 24.3989
 24.4036
 22.6163
 22.648
 22.6246
 22.603
 24.4643
 24.4909
 24.4065
 24.3659
 23.1896
 23.1226
 23.1012
 23.0939
 22.8354
 22.7623
 22.8847
 22.7756
 23.424
 23.4916
 22.8777
 22.8194
 22.842
 22.855
 24.8673
 24.8771
 24.8749
 24.8195
 22.9119
 22.8815
 22.8704
 22.9175
 22.5462
 22.4492
 22.4539
 22.5253
 23.6931
 23.6873
 23.6314
 23.6474
 24.0765
 24.0992
 24.0273
 23.9987
 22.8834
 22.9723
 22.9206
 22.8781
 25.4735
 25.3937
 25.4284
 25.4921
 22.917
 22.8194
 24.4385
 24.3956
 24.3921
 24.3344
 23.0088
 23.0256
 23.1032
 23.0945
 24.8634
 24.8035
 24.8144
 24.8168
 24.2814
 24.3747
 24.3446
 24.2928
 24.7226
 24.7461
 24.6679
 24.8732
 24.9125
 24.8787
 24.9409
 25.0136
 24.954
 24.9717
 24.9415
 23.7251
 23.7644
 23.7832
 23.0767
 23.0673
 23.0083
 23.0252
 23.9013
 23.9355
 23.9473
 24.8773
 24.9235
 24.897
 23.9713
 23.8736
 23.9557
 23.9028
 23.6642
 23.6818
 23.6545
 23.5821
 24.1474
 24.0739
 24.0648
 24.0936
 24.2649
 24.2984
 24.3124
 24.3521
 24.3831
 24.3841
 24.2723
 24.2471
 24.2043
 24.3064
 23.0145
 23.0711
 23.0279
 23.0773
 23.4177
 23.4634
 23.4286
 23.3977
 24.1667
 24.1267
 24.1553
 24.0635
 24.8531
 24.8965
 24.8712
 23.8872
 23.926
 23.884
 23.8797
 24.5234
 24.6051
 24.5778
 24.6133
 25.7081
 25.7001
 25.7294
 25.7498
 24.3589
 24.3917
 24.3772
 24.3816
 22.9654
 22.9738
 22.9142
 22.9352
 24.3642
 24.2843
 24.3258
 24.3636
 24.9716
 24.975
 24.948
 24.9214
 24.8794
 24.9111
 24.9018
 24.0904
 24.0775
 24.0866
 23.6351
 24.4163
 24.5081
 24.4474
 24.4507
 22.8674
 22.8813
 22.8383
 22.9969
 22.9825
 22.9471
 24.3793
 24.3131
 24.3579
 24.3196
 22.468
 22.442
 22.4216
 22.4132
 24.8586
 23.8116
 23.8684
 23.8259
 23.8418
 24.8137
 24.79
 24.7972
 24.7785
 22.8657
 22.8383
 22.9401
 22.8699
 23.5053
 23.4048
 23.45
 23.4824
 23.2638
 23.2264
 23.2996
 23.2889
 25.0181
 24.9937
 24.9617
 25.0141
 24.5287
 24.475
 24.5338
 24.5335
 23.9196
 23.9555
 23.8906
 23.9535
 24.4247
 24.493
 24.3916
 24.4655
 23.5589
 23.5385
 23.4775
 23.4925
 24.8125
 24.8489
 24.7842
 24.7801
 24.5538
 24.5119
 24.4629
 24.5003
 23.7378
 23.7313
 23.7441
 23.6621
 22.7766
 22.6874
 22.7404
 22.6966
 24.9579
 24.96
 24.8888
 24.9302
 25.3621
 25.4304
 25.3569
 25.3619
 22.8367
 22.7891
 22.8105
 22.7745
 25.3569
 25.4113
 25.2455
 25.2708
 25.2699
 25.211
 24
 23.9607
 24.0178
 24.0628
 24.5217
 24.4861
 24.4866
 24.5508
 22.2946
 22.2579
 22.2665
 22.3252
 22.8985
 22.9044
 22.8179
 23.5028
 23.5077
 23.4572
 23.5338
 24.9228
 24.9024
 24.9651
 24.8845
 24.5687
 24.5788
 24.6017
 24.6293
 24.5919
 24.5471
 23.5182
 23.4199
 23.4501
 23.4868
 23.5977
 23.5935
 23.6516
 23.5831
 23.4136
 23.4146
 23.4858
 23.4145
 22.5717
 22.5556
 22.6835
 22.5335
 23.2824
 23.2749
 23.3421
 24.3131
 23.8769
 23.8852
 23.8622
 23.9147
 23.8471
 23.9157
 23.8993
 23.896
 23.1281
 23.1723
 23.1728
 23.2096
 23.3077
 23.3433
 23.3451
 23.2788
 23.7531
 23.811
 23.8047
 24.4405
 24.4625
 24.4091
 24.5176
 23.8942
 23.7877
 23.8568
 23.8323
 24.3766
 24.3405
 24.4084
 25.8782
 25.8764
 25.9125
 25.8449
 23.0843
 22.9888
 23.0231
 23.0139
 23.1012
 22.9919
 23.0519
 25.8747
 23.8378
 23.8198
 23.8446
 23.7645
 23.7762
 23.7576
 25.2815
 25.2672
 25.273
 25.2469
 24.965
 24.9452
 24.8925
 24.9727
 24.6573
 24.6201
 24.6106
 24.6795
 24.7452
 24.7164
 24.6781
 24.7459
 24.7536
 24.7
 24.2798
 24.3174
 24.3339
 24.3525
 24.2504
 24.1923
 22.1837
 22.185
 24.8672
 24.7616
 24.8603
 24.7991
 24.1276
 24.1441
 24.1143
 24.1808
 24.9748
 24.9644
 25.0688
 25.0233
 23.0176
 22.9788
 23.095
 23.05
 23.0826
 23.1371
 23.0835
 23.142
 23.5572
 23.5173
 23.5049
 23.5332
 23.9429
 23.9272
 23.8365
 23.8816
 23.9628
 24.0023
 24.8673
 23.3804
 23.3105
 23.3308
 23.3128
 22.5958
 22.6037
 22.5018
 22.6262
 23.0524
 22.9818
 23.0653
 23.0363
 26.4343
 26.4292
 26.4192
 26.3968
 22.6843
 22.673
 22.7109
 22.7052
 24.6738
 24.6698
 24.7298
 24.6408
 24.4486
 24.5147
 24.4887
 24.5389
 23.5099
 23.5021
 23.4607
 23.4569
 23.5083
 23.5181
 23.5546
 23.54
 24.8797
 24.7788
 24.8312
 24.8053
 22.7801
 22.742
 22.786
 22.7766
 23.0119
 22.9649
 22.9878
 22.9446
 23.3488
 23.3351
 23.2901
 23.2898
 22.8608
 22.9083
 22.8939
 22.8602
 24.5367
 24.4748
 24.4767
 24.4483
 24.9049
 24.8823
 24.8732
 24.8426
 23.0508
 23.1102
 23.1249
 23.1095
 24.2071
 24.1986
 24.2335
 24.2866
 24.0661
 24.0957
 24.1068
 24.069
 26.0619
 26.0403
 25.9897
 26.0359
 22.6938
 22.679
 22.8612
 22.8459
 22.9088
 22.8142
 25.1137
 25.1801
 25.2028
 25.1048
 24.5313
 24.6106
 24.6075
 24.6392
 22.9811
 23.0296
 22.9617
 22.9359
 24.3342
 24.312
 24.3475
 24.2816
 24.3401
 24.3198
 24.3929
 24.3864
 22.6002
 22.5874
 22.6272
 22.6601
 23.9172
 23.9301
 23.911
 23.8859
 24.0551
 24.0333
 24.052
 24.0927
 23.2843
 23.2465
 23.2251
 23.2482
 23.551
 23.5643
 23.5894
 23.6253
 24.2611
 24.2503
 24.3301
 24.5204
 24.4713
 24.5056
 24.422
 25.2244
 25.2323
 25.2575
 25.1567
 24.4059
 24.3637
 24.3529
 24.3409
 23.9829
 24.0212
 23.9848
 24.0379
 22.5164
 22.4979
 22.5118
 22.5975
 24.4193
 24.3121
 24.3688
 24.3694
 25.0732
 25.07
 25.1184
 25.1437
 23.385
 23.3338
 23.3621
 23.4112
 23.6549
 23.6581
 23.6918
 23.9392
 23.8456
 23.8451
 23.8192
 25.2401
 25.2353
 25.2304
 25.1877
 23.8303
 23.8889
 23.8621
 23.9175
 22.8457
 22.8409
 22.8334
 22.8261
 23.9037
 23.8806
 23.8856
 23.8352
 25.0299
 25.0733
 25.046
 25.0205
 24.8089
 24.7709
 24.822
 24.8696
 22.1286
 22.1511
 22.1136
 22.1099
 24.5602
 24.5486
 24.5568
 24.6338
 23.6888
 23.7907
 23.7574
 23.7388
 22.2411
 22.2297
 22.2884
 22.2864
 22.8851
 22.801
 22.8398
 23.3861
 23.3945
 23.3201
 23.2999
 22.9674
 22.9768
 22.8833
 22.9923
 25.7877
 25.749
 25.7022
 25.7207
 24.7228
 24.6561
 24.7402
 22.6586
 22.5732
 22.5877
 22.5885
 23.7309
 23.7456
 23.678
 23.7612
 23.206
 23.2201
 23.1439
 23.2588
 24.9309
 24.9372
 24.9845
 25.0187
 24.3532
 24.2889
 24.3687
 24.315
 23.533
 23.6294
 23.6041
 25.238
 25.2177
 25.1818
 25.1843
 24.8323
 24.8976
 24.8616
 24.8842
 24.3731
 22.6316
 22.5988
 22.6129
 22.5633
 25.654
 25.6509
 25.6986
 25.7056
 23.2829
 23.185
 23.2341
 23.1731
 23.6355
 23.6795
 23.6468
 23.7185
 25.9607
 23.0838
 23.1392
 23.0546
 22.6816
 22.5996
 22.653
 22.6406
 24.1509
 24.1219
 24.0311
 24.1073
 23.5984
 23.6033
 23.5532
 23.6359
 24.6877
 24.7501
 24.0148
 24.0446
 24.0405
 23.9734
 24.7059
 24.7435
 24.7708
 24.7147
 24.4652
 24.4935
 24.4035
 24.4044
 23.4412
 23.48
 23.4369
 23.4153
 25.417
 25.4134
 25.4124
 25.3438
 24.9035
 24.9443
 24.9146
 24.965
 25.3483
 25.2865
 25.0963
 25.0985
 25.0875
 25.09
 25.1564
 25.1979
 25.1261
 25.1882
 22.6283
 22.6646
 22.7165
 22.7209
 23.743
 23.7375
 23.7648
 23.6691
 24.332
 24.2508
 24.3003
 24.2961
 23.8616
 23.884
 23.8978
 23.8398
 22.5833
 22.5872
 25.2682
 25.305
 25.297
 25.2639
 22.5921
 22.5705
 22.622
 25.5559
 25.5867
 25.5573
 25.5923
 22.7203
 22.7855
 22.7384
 22.79
 24.4022
 24.4489
 24.3814
 24.4459
 24.1729
 24.1564
 24.1877
 22.5869
 22.6232
 22.6157
 22.5751
 23.7956
 23.8531
 23.7822
 23.8388
 24.1188
 24.0903
 24.0296
 24.0907
 24.3665
 24.4048
 24.2415
 24.3528
 24.2669
 24.3126
 23.6656
 23.7315
 23.7002
 22.5343
 22.6406
 22.6523
 22.5768
 24.2051
 24.1621
 24.2095
 24.1978
 24.3009
 24.3337
 24.5234
 24.5999
 24.6123
 24.5662
 25.5437
 25.5319
 25.4805
 23.8505
 23.8348
 23.9144
 23.9189
 22.6834
 22.6785
 22.6697
 25.3258
 25.3831
 25.3223
 24.1408
 24.1943
 24.1609
 24.2175
 23.505
 23.5094
 23.5836
 23.5581
 25.6997
 25.7197
 25.7011
 25.6956
 23.0337
 23.0173
 23.0617
 23.0689
 23.4613
 23.5192
 23.5095
 23.5232
 23.0276
 23.0069
 23.0511
 22.6593
 22.6493
 22.5394
 22.5976
 23.944
 24.0143
 23.9498
 23.9481
 22.8539
 22.8691
 22.9012
 22.9054
 24.4307
 24.4517
 24.4112
 24.4787
 22.5691
 23.6414
 24.0469
 24.0781
 24.0208
 24.0977
 23.6497
 23.6606
 23.7216
 23.7291
 23.3259
 23.3076
 23.3453
 23.4058
 23.6561
 23.6879
 23.6134
 23.643
 23.1976
 23.239
 23.1792
 23.1904
 24.0435
 24.0812
 24.0515
 24.0012
 24.1167
 24.0922
 24.0816
 24.056
 24.3194
 24.3298
 24.3537
 24.2781
 24.0549
 24.0569
 24.1139
 24.9871
 24.9722
 24.9901
 24.9434
 24.0071
 23.5315
 23.4344
 23.4301
 23.4926
 22.7074
 22.7032
 22.7816
 24.4756
 24.5667
 24.5258
 24.5557
 23.9141
 23.8369
 23.8538
 23.6115
 23.6082
 23.6679
 23.6632
 23.499
 23.4823
 23.416
 23.4054
 22.9301
 22.896
 22.8539
 22.9056
 24.7284
 24.7391
 24.6995
 24.7944
 23.8369
 23.8881
 23.9055
 23.919
 24.0811
 24.1252
 24.1609
 24.1016
 24.1548
 24.2014
 24.2039
 24.2477
 24.0307
 24.0576
 24.0219
 24.0855
 23.2992
 23.4019
 23.284
 23.3552
 24.1329
 24.2322
 24.1942
 24.1848
 25.2851
 25.2842
 25.2848
 25.2558
 25.2902
 25.2461
 25.2481
 24.0274
 24.0202
 23.9652
 23.9606
 24.005
 23.9596
 23.9463
 23.9339
 24.0761
 24.1329
 24.043
 24.0381
 22.7478
 22.7451
 22.8254
 22.8201
 23.3009
 23.3682
 23.3663
 23.2946
 24.5733
 24.5367
 24.5416
 24.5268
 24.9133
 24.848
 24.8512
 24.9363
 23.0094
 23.0238
 23.0616
 23.0059
 25.6305
 25.6523
 25.6377
 25.5855
 24.3456
 24.284
 24.3187
 24.3271
 25.058
 25.0192
 25.0236
 24.7765
 24.7258
 24.7255
 24.6894
 23.4172
 23.4464
 23.3947
 23.4859
 24.7096
 24.802
 24.764
 24.7438
 25.2547
 25.1404
 25.2175
 25.7064
 25.6425
 25.6076
 25.6192
 22.5178
 22.4962
 22.4516
 22.4017
 24.672
 24.7124
 24.6785
 24.6572
 23.7084
 23.7953
 23.7818
 23.7215
 22.818
 22.8671
 22.9162
 22.8749
 23.1724
 23.0827
 23.2036
 23.1462
 24.6055
 24.6
 24.6393
 24.6134
 25.0958
 25.1572
 25.2052
 25.1427
 23.8741
 23.8331
 23.8936
 23.8576
 25.0653
 24.986
 24.2648
 24.3585
 24.344
 24.289
 24.1553
 24.1608
 24.1968
 24.1352
 24.2246
 24.2186
 24.2494
 24.9475
 24.9234
 24.9462
 23.6663
 23.6651
 23.647
 23.6259
 23.7872
 23.7941
 23.8433
 23.7365
 24.6076
 24.5359
 24.5665
 24.603
 23.2869
 23.2112
 23.3109
 23.274
 24.041
 24.1166
 24.076
 24.0164
 25.0536
 25.0545
 25.0693
 25.0558
 24.4095
 24.3764
 24.4131
 23.7717
 23.7706
 23.83
 23.7704
 23.9769
 23.9448
 23.8993
 22.5127
 22.5549
 22.5618
 22.5846
 25.3731
 25.3962
 25.3692
 25.4486
 24.4606
 24.3946
 24.4056
 24.4444
 24.4806
 24.4967
 24.5498
 24.4813
 22.4441
 22.4727
 22.3871
 22.3273
 23.2851
 23.2453
 23.2536
 24.7079
 24.7333
 24.7489
 24.728
 23.1348
 23.2137
 23.1783
 24.6672
 24.6656
 24.7099
 24.6965
 26.1294
 26.0837
 26.1351
 26.0962
 22.8326
 22.8087
 22.7717
 22.8515
 24.9376
 24.9543
 24.9822
 25.0414
 22.6479
 22.6831
 22.6938
 22.674
 24.7861
 24.7051
 24.7621
 24.7358
 26.133
 26.2009
 26.1346
 26.1432
 25.1867
 25.2623
 25.2083
 25.1631
 24.9271
 24.8719
 24.8391
 24.9367
 24.0177
 24.1116
 24.9076
 24.9039
 24.9981
 24.9817
 23.7239
 23.7571
 23.779
 23.8122
 24.1137
 24.1124
 24.1576
 24.0718
 22.8709
 22.9526
 22.811
 22.7986
 22.9943
 23.0418
 23.0008
 22.9593
 23.1492
 23.1749
 23.1522
 23.2151
 22.9676
 22.9568
 22.9389
 22.9864
 23.4734
 23.4983
 23.4348
 23.4849
 23.1181
 23.0484
 23.0709
 23.107
 25.3139
 25.3924
 25.4046
 25.3045
 22.8623
 22.8278
 22.8419
 22.8535
 24.2948
 24.3478
 24.3649
 24.3354
 23.2696
 23.3712
 23.3403
 22.991
 22.9282
 22.9337
 22.9689
 24.9009
 24.9669
 24.9745
 24.9473
 25.2343
 25.2599
 25.298
 25.2772
 23.3434
 23.3562
 23.4008
 23.2964
 24.1675
 24.1794
 24.2012
 24.2297
 23.5029
 23.5519
 23.5057
 23.5042
 23.5028
 23.501
 23.3883
 24.3541
 24.3716
 24.4282
 23.5378
 23.5194
 23.8675
 23.956
 22.5295
 22.494
 22.4919
 22.5251
 23.9193
 23.887
 23.9212
 23.8498
 23.523
 23.5613
 23.4741
 23.5558
 23.7999
 23.7625
 23.7823
 23.7285
 23.141
 23.1372
 23.1024
 23.1444
 23.148
 24.2114
 24.2088
 24.2711
 24.274
 25.0635
 25.0636
 25.0618
 25.054
 23.4963
 23.5653
 23.4985
 23.5391
 23.5099
 23.5667
 23.573
 23.5091
 25.9917
 25.9591
 25.9325
 25.8848
 24.032
 23.9823
 24.0086
 24.0425
 24.0362
 24.092
 24.1126
 24.0565
 23.5775
 23.6252
 24.9311
 24.9134
 24.8847
 24.9225
 24.4763
 24.4396
 24.4644
 24.5016
 24.8315
 24.8609
 24.8869
 24.8783
 24.5348
 24.4901
 24.4993
 24.5465
 24.8161
 24.8212
 24.8493
 24.804
 23.2843
 23.3064
 23.2784
 23.238
 22.8623
 22.86
 22.9283
 22.8863
 24.6479
 24.6734
 24.7092
 24.6362
 24.0413
 24.1099
 24.054
 24.0665
 23.1454
 23.2296
 23.1758
 23.2149
 24.2987
 24.3215
 24.3241
 24.2548
 24.6488
 24.6062
 25.1651
 25.1389
 25.121
 25.1713
 24.1932
 24.2138
 24.232
 24.2684
 23.0732
 23.1056
 23.1083
 23.0282
 22.7408
 22.7868
 22.7765
 22.7248
 25.8096
 25.7998
 24.2556
 24.2072
 24.1783
 24.1739
 24.3313
 24.4234
 24.3635
 24.3646
 24.427
 24.455
 24.7669
 24.7305
 24.7428
 24.707
 24.1312
 24.0653
 24.0486
 25.2972
 25.2591
 25.2569
 25.2251
 22.9378
 22.8879
 22.9783
 22.9321
 22.7973
 22.7952
 22.7907
 22.4792
 22.5358
 22.5889
 22.547
 23.8384
 23.737
 23.7837
 23.7634
 24.0264
 23.9517
 24.0604
 23.9933
 23.2472
 23.1557
 23.1197
 23.1779
 23.5529
 23.5538
 23.4951
 23.5519
 23.6818
 23.6177
 23.6461
 23.9502
 23.9385
 23.9723
 23.899
 23.4273
 23.3154
 23.3541
 23.4166
 24.2454
 24.2669
 24.2318
 24.2245
 23.9878
 24.0033
 23.9414
 24.0335
 23.5865
 23.6006
 23.6285
 23.5626
 24.0301
 24.0801
 24.0995
 24.027
 26.1017
 26.1219
 26.0657
 26.0637
 24.7333
 24.7591
 24.7557
 24.8012
 23.4287
 23.4218
 23.3606
 23.3533
 24.7344
 24.7186
 24.7931
 24.8165
 24.9025
 24.9849
 24.8992
 24.8507
 22.9998
 23.0039
 22.9583
 23.0485
 23.0457
 23.112
 23.0527
 23.0637
 22.8412
 22.9038
 22.8337
 22.8288
 23.2361
 23.2412
 23.1831
 23.2023
 24.3148
 24.3073
 24.3612
 24.3072
 24.7581
 24.7801
 24.7275
 24.7851
 23.5207
 23.6135
 23.5202
 23.5911
 24.7259
 24.7076
 24.6969
 24.7031
 25.176
 25.1558
 25.1426
 25.1063
 24.1039
 24.0559
 24.0922
 24.0435
 24.4149
 24.4543
 24.4993
 24.3741
 24.3602
 24.2871
 24.3528
 25.0867
 25.1205
 25.1796
 25.1259
 24.6539
 24.6629
 24.6914
 24.6717
 23.4918
 23.4506
 23.4842
 23.447
 23.9771
 23.921
 23.9147
 22.4937
 22.5629
 22.566
 22.5162
 22.7309
 22.6734
 22.6325
 22.6935
 24.4523
 24.4078
 24.4763
 24.4073
 23.7885
 23.7436
 24.9606
 24.963
 25.0275
 24.9414
 23.9573
 24.0038
 24.0481
 24.0022
 22.8082
 22.7927
 22.8575
 22.8049
 24.7157
 24.7038
 24.6728
 24.2819
 24.2804
 24.2546
 24.334
 24.4033
 24.3112
 24.3312
 24.3546
 24.0646
 24.0005
 23.9945
 24.0814
 24.0862
 24.0521
 24.0106
 24.0611
 23.9008
 23.8575
 23.9005
 23.8495
 24.1554
 24.1102
 23.1879
 23.2078
 23.1013
 23.1909
 24.0994
 24.1627
 24.1393
 24.1023
 23.6651
 23.7601
 23.7311
 24.1313
 24.0727
 24.1067
 24.0746
 23.7271
 23.7568
 23.7884
 23.7397
 24.7456
 24.8066
 24.7603
 24.8361
 24.2365
 24.2466
 24.1804
 23.8289
 23.8273
 23.7384
 23.8656
 24.1379
 24.1444
 24.1008
 24.8314
 24.8114
 24.8709
 23.6496
 23.6546
 23.6532
 23.7199
 24.0085
 23.9616
 23.9588
 25.8555
 25.8462
 25.815
 25.9185
 23.5659
 23.6102
 23.6385
 23.5651
 24.3643
 24.44
 24.4316
 24.4449
 23.1897
 23.1965
 23.1742
 23.119
 23.0781
 23.1237
 23.0482
 23.0586
 24.8818
 24.8003
 24.8943
 24.882
 23.8848
 23.939
 23.9634
 24.4959
 24.5667
 24.5228
 24.5203
 22.9392
 23.0388
 22.9881
 24.005
 23.9576
 23.9931
 23.9297
 23.5194
 23.4975
 23.4974
 23.501
 22.9086
 22.8673
 22.8674
 22.9176
 26.3061
 26.367
 26.3494
 26.3051
 24.5952
 24.5861
 24.5484
 24.5989
 23.8526
 23.7481
 23.7855
 23.7649
 25.1586
 25.2156
 25.217
 23.9923
 23.9369
 23.9574
 24.0031
 22.7505
 23.5814
 23.6172
 23.7065
 23.6425
 23.1324
 23.1338
 23.1123
 23.0891
 23.2847
 23.3314
 23.3414
 23.304
 23.8572
 23.8837
 23.9376
 24.0111
 24.0148
 24.0053
 25.6936
 25.6428
 25.6843
 25.6513
 24.4965
 24.5239
 24.5477
 24.5839
 24.573
 24.5299
 24.5714
 22.793
 22.6544
 22.7997
 22.7989
 24.0684
 24.0757
 24
 24.0083
 23.7957
 23.8216
 23.8699
 23.8276
 23.027
 23.0603
 22.9982
 23.0672
 23.9872
 24.0024
 23.9393
 24.0121
 25.3456
 25.3097
 25.3682
 25.3494
 24.1333
 24.1572
 24.1249
 24.1478
 24.6087
 24.6068
 24.5978
 24.5579
 24.7455
 24.7917
 24.773
 24.7524
 25.1045
 25.0815
 25.1085
 25.1049
 25.4386
 25.4681
 25.4706
 25.3964
 22.434
 22.5133
 22.4801
 22.4942
 25.6082
 25.5824
 25.6319
 25.5332
 24.078
 24.114
 24.0704
 24.1297
 22.5082
 22.529
 22.5624
 22.5581
 24.3227
 24.3279
 24.2947
 24.2702
 25.0663
 22.9004
 22.9402
 22.9254
 22.8675
 24.7944
 25.3678
 25.3031
 25.2849
 25.3407
 23.7796
 23.7079
 23.2531
 23.3354
 23.2562
 23.3295
 23.0075
 23.0205
 22.9757
 22.9836
 22.4019
 22.4762
 22.4032
 23.2339
 23.1622
 23.1604
 23.159
 24.2631
 22.6507
 23.5218
 23.5522
 23.5692
 22.8128
 22.7668
 22.7509
 22.7884
 24.3003
 24.2975
 24.3061
 24.3429
 24.598
 24.5892
 24.6158
 24.6596
 23.5212
 23.5652
 23.5511
 23.4599
 22.6942
 22.6314
 22.7069
 22.6981
 22.9902
 23.0102
 22.9678
 23.014
 23.6728
 23.5821
 23.5924
 25.4332
 25.4672
 25.3589
 25.4231
 26.2599
 26.1975
 26.234
 26.1891
 25.0334
 25.1118
 25.1126
 25.0746
 23.8719
 23.8217
 23.89
 25.2509
 25.1928
 25.2169
 25.2691
 23.1109
 23.1291
 23.0552
 23.2217
 23.195
 23.244
 23.2186
 24.7466
 24.7734
 23.4585
 23.3726
 22.2424
 22.3109
 22.2341
 22.4812
 22.4644
 22.4712
 22.4359
 24.1749
 24.2301
 24.1425
 24.1852
 24.5122
 24.5239
 24.554
 24.4873
 24.1343
 24.1437
 24.0857
 24.0856
 22.6797
 22.6812
 22.6687
 22.6868
 23.476
 23.4539
 23.4736
 23.5129
 25.0806
 25.0818
 25.0838
 25.0278
 23.448
 23.434
 23.4774
 23.4034
 23.861
 23.8409
 23.8983
 23.8332
 23.5348
 23.4809
 23.4946
 26.4688
 26.4454
 26.4363
 24.4908
 24.523
 24.2895
 24.2896
 24.3415
 24.2626
 23.3547
 23.2898
 23.3342
 23.3506
 23.4373
 23.4075
 23.3307
 23.4122
 23.4051
 23.4368
 23.3379
 25.7835
 25.7899
 25.1462
 25.1505
 25.1106
 25.1411
 23.826
 25.8382
 25.8939
 25.8675
 25.8592
 24.6291
 24.5571
 24.6171
 24.626
 24.2389
 24.259
 25.4207
 25.3246
 25.3286
 25.3775
 22.4181
 22.3313
 22.3808
 22.4026
 22.6615
 22.6509
 22.6858
 22.5831
 24.8372
 24.7328
 24.8074
 24.7503
 24.5264
 24.5662
 24.4465
 24.478
 24.495
 24.5378
 24.4972
 23.3562
 23.3307
 23.4064
 23.3526
 25.0573
 25.0219
 24.9942
 24.9804
 24.0803
 24.0432
 24.0898
 23.6908
 23.6871
 23.651
 23.6067
 24.5315
 24.5213
 24.4751
 24.5061
 24.7214
 24.6571
 24.623
 24.6838
 24.7358
 24.7801
 24.77
 24.7202
 24.3228
 24.2844
 24.2513
 24.3089
 23.5722
 23.6188
 24.618
 24.6021
 24.5793
 24.6331
 22.4466
 22.5562
 22.544
 22.5365
 24.8147
 24.7827
 24.815
 24.7749
 25.3057
 25.3231
 25.2485
 25.2892
 23.8219
 23.7882
 25.6028
 25.5762
 25.6451
 25.5655
 24.4064
 24.3857
 24.4332
 22.8195
 22.8525
 22.797
 22.7908
 25.5217
 25.5368
 25.522
 24.7454
 24.7466
 24.69
 24.7094
 25.3751
 24.7818
 24.8045
 24.8005
 24.8636
 23.9939
 24.0314
 23.9879
 24.004
 24.2042
 24.1901
 24.1573
 24.2092
 22.728
 22.6454
 23.9432
 23.919
 23.935
 23.9488
 24.7963
 24.8675
 24.7852
 24.8727
 24.4684
 24.3469
 24.4093
 24.467
 22.896
 22.9483
 22.9401
 22.9454
 24.2435
 24.2259
 24.1632
 24.1783
 23.8373
 23.0649
 23.0181
 23.0775
 24.4455
 24.4317
 24.4892
 24.4041
 23.4741
 23.4905
 23.4546
 23.5396
 24.3489
 24.3855
 24.3914
 24.3173
 22.71
 22.7854
 22.7915
 22.7587
 22.2557
 22.2148
 22.2884
 24.7471
 24.7012
 24.6439
 24.6855
 23.714
 23.6679
 23.7501
 23.7268
 23.4667
 23.4522
 23.4062
 23.3768
 24.502
 24.5064
 24.7211
 24.7605
 24.7775
 24.7087
 24.3497
 24.2565
 23.6924
 23.6748
 23.7045
 23.7261
 23.5758
 23.5499
 23.5058
 23.5828
 24.257
 24.2438
 24.1865
 24.2098
 23.753
 23.7464
 23.7419
 22.9394
 23.0244
 23.0401
 23.0067
 23.2448
 23.2637
 23.2238
 24.2784
 24.1769
 24.2652
 24.2244
 24.6541
 24.7274
 24.7657
 24.6866
 23.4722
 23.5388
 23.541
 23.4883
 24.2181
 24.2243
 24.2865
 25.086
 25.0969
 25.0832
 25.0965
 24.5228
 24.5342
 24.5018
 24.4799
 23.2221
 23.214
 23.2818
 22.4661
 22.5507
 22.5514
 23.5339
 23.5019
 23.5018
 24.5272
 24.5855
 24.5073
 24.5666
 22.5885
 22.594
 22.5985
 22.5505
 23.6436
 23.6738
 23.6364
 23.5918
 23.1216
 23.0909
 22.9944
 23.0187
 23.2277
 23.1995
 23.2348
 23.228
 25.2397
 25.269
 25.2836
 24.2937
 24.2785
 24.3212
 24.2718
 23.183
 23.1405
 23.2077
 23.2068
 24.153
 24.1227
 24.1137
 24.0492
 23.4176
 23.4155
 23.4337
 23.5032
 22.7592
 22.7213
 25.0922
 25.0509
 25.0554
 25.0259
 23.3075
 23.3411
 23.2626
 23.3274
 24.3289
 24.3622
 24.378
 24.3145
 23.5445
 23.6055
 22.6181
 22.62
 22.6691
 22.5812
 23.123
 23.0479
 23.1458
 23.0035
 22.5131
 22.5182
 22.4571
 22.4052
 23.3794
 23.3984
 23.3619
 23.5236
 23.4366
 23.462
 23.4772
 23.4218
 23.4741
 23.4576
 23.5201
 24.6246
 24.608
 24.6666
 24.6837
 25.3587
 25.3954
 25.3187
 24.0286
 24.0136
 24.018
 22.9689
 23.0257
 22.9855
 23.0469
 24.2404
 24.1996
 24.1488
 24.1953
 24.8252
 24.8909
 24.873
 24.8204
 24.0211
 24.0871
 24.1081
 24.1176
 24.3537
 24.2701
 24.3451
 22.6396
 22.6084
 22.6908
 22.6848
 25.0355
 25.0124
 24.8944
 24.8588
 24.8528
 23.4482
 23.4277
 23.486
 23.3898
 24.0996
 24.0448
 24.0242
 24.0752
 24.9224
 24.9138
 24.8585
 24.9116
 23.8122
 23.9138
 23.9152
 23.8393
 24.4419
 24.4821
 24.4111
 24.4124
 22.9128
 22.9016
 22.8125
 24.5253
 24.5426
 24.4834
 24.489
 23.826
 23.7855
 24.9372
 24.8586
 24.8746
 24.9262
 24.8505
 24.9002
 24.8753
 24.9
 22.804
 22.8528
 24.7379
 24.6888
 24.7136
 24.7604
 23.999
 24.0623
 24.0252
 24.0025
 24.3727
 25.3157
 25.3649
 25.3498
 23.808
 23.8095
 23.7867
 23.8488
 22.825
 22.8178
 22.8647
 22.7899
 25.1828
 25.1895
 25.1487
 25.1988
 24.8532
 24.8031
 24.868
 24.8561
 23.4743
 23.4377
 23.4341
 25.1212
 25.1057
 25.079
 25.0588
 22.4698
 22.5512
 22.4916
 22.4591
 25.077
 25.0338
 25.02
 25.104
 23.5999
 23.6649
 23.6145
 23.5471
 24.3516
 24.3177
 24.3281
 24.3698
 24.8855
 24.8642
 24.8766
 24.4018
 24.3314
 24.4103
 24.3518
 24.9712
 25.0376
 24.9985
 24.9961
 24.7856
 24.8253
 24.7917
 23.3191
 23.3672
 23.3006
 23.3228
 23.3869
 24.0924
 23.9611
 24.0414
 24.0401
 22.794
 22.8289
 22.857
 22.8303
 23.8105
 23.7489
 23.8476
 23.7738
 23.5525
 23.5057
 23.5517
 23.5751
 24.8752
 24.9028
 24.8329
 24.7418
 24.7569
 23.6917
 23.7621
 23.7109
 23.6829
 22.8401
 22.7522
 23.8778
 23.8602
 23.9139
 23.8442
 24.955
 24.9718
 24.9144
 22.948
 22.928
 22.9808
 22.9555
 23.9134
 23.9869
 23.9703
 23.9519
 24.9006
 24.9376
 24.9016
 24.8756
 24.0675
 24.079
 23.994
 24.05
 23.6357
 23.5343
 25.1879
 25.2185
 25.1987
 25.2409
 24.7506
 24.6582
 24.6092
 24.6466
 24.5969
 24.6087
 24.6076
 24.6782
 24.6455
 24.6106
 23.9799
 23.968
 23.9884
 23.657
 23.6851
 23.7045
 23.735
 24.6917
 24.6971
 24.6829
 24.698
 24.3501
 24.3543
 23.8007
 23.8533
 23.8446
 23.8918
 23.8331
 23.8227
 24.1016
 24.0281
 24.0214
 24.0802
 25.5649
 25.5013
 25.5128
 25.4778
 23.8301
 24.9773
 24.9133
 24.9587
 24.9699
 22.6456
 22.5989
 22.6602
 23.3633
 23.397
 23.4228
 23.3555
 24.0714
 24.0303
 24.0535
 24.1428
 23.987
 23.9347
 24.0035
 24.7722
 24.7257
 24.7527
 24.7861
 22.8466
 22.7979
 22.9222
 22.8309
 23.6512
 23.6704
 23.6127
 23.6272
 22.8716
 22.857
 22.9463
 22.9001
 24.9904
 24.9777
 25.0403
 25.0372
 24.6364
 24.59
 23.3545
 23.3817
 23.4156
 23.3801
 22.787
 22.7875
 22.7789
 22.8139
 22.2887
 22.2602
 22.308
 22.2236
 22.8637
 22.9074
 22.8487
 23.645
 23.6114
 23.6678
 23.6338
 23.0047
 22.9797
 22.9385
 22.9708
 25.0692
 25.01
 24.975
 25.0249
 23.098
 23.0655
 23.0472
 23.6584
 23.6759
 23.6899
 23.6856
 24.9788
 25.0131
 24.9805
 25.0276
 23.4759
 23.4048
 23.4545
 23.4464
 23.7517
 23.7065
 23.6901
 23.7385
 24.5363
 24.4948
 24.4881
 24.4366
 25.0995
 25.0893
 25.1638
 25.1574
 24.1779
 24.1553
 24.105
 24.164
 25.6886
 25.6571
 25.5986
 25.6166
 24.8331
 24.7977
 24.8422
 24.7039
 24.7677
 24.7633
 24.775
 25.922
 25.8793
 25.9595
 25.8978
 22.9912
 23.0427
 23.0401
 23.1787
 23.1751
 23.1214
 23.136
 24.6651
 24.5727
 24.6013
 25.3411
 25.3363
 25.3605
 25.0599
 25.1266
 25.0591
 25.0605
 24.613
 24.6226
 24.5708
 24.6652
 23.6166
 23.5452
 23.5919
 23.5997
 25.5447
 25.5304
 25.4756
 25.5425
 23.7346
 23.8264
 23.8401
 23.7675
 23.1784
 23.1242
 23.2223
 23.1751
 23.8664
 23.8623
 23.7777
 23.7985
 24.2306
 24.2658
 24.1791
 24.9403
 24.9438
 24.9456
 24.902
 22.8548
 22.7963
 22.7848
 22.794
 23.1222
 23.0811
 23.1234
 23.155
 24.5633
 24.5143
 24.5435
 24.5937
 22.6816
 22.6473
 22.6213
 22.8472
 22.7569
 22.8359
 22.8142
 22.7827
 22.7576
 22.8235
 22.7971
 25.4987
 25.5133
 25.9059
 25.8992
 25.939
 25.8545
 23.6217
 23.6482
 23.6871
 24.0503
 24.0957
 24.0013
 24.0775
 23.9973
 23.9343
 23.9563
 23.9881
 26.4034
 24.251
 23.7005
 23.6422
 23.1724
 23.1275
 23.1565
 23.1441
 25.3531
 24.372
 24.3166
 24.373
 22.2061
 22.2557
 22.2539
 22.2522
 23.9646
 24.0112
 23.9691
 23.9204
 22.5892
 22.6406
 22.6054
 22.6536
 24.2268
 24.1594
 24.264
 24.3933
 24.3307
 24.3683
 23.0328
 22.9991
 23.0804
 23.0264
 23.7534
 23.7755
 23.8173
 23.8591
 25.0557
 25.1037
 25.012
 25.0337
 23.1084
 23.0001
 23.0408
 22.6708
 22.5774
 22.5762
 22.6689
 23.1479
 23.1577
 23.2171
 23.1452
 24.6757
 24.6878
 24.5905
 24.6925
 24.5216
 24.5654
 24.5564
 24.5651
 22.955
 22.903
 22.9082
 22.8993
 24.2574
 24.2791
 24.3234
 23.2967
 23.2828
 23.317
 23.3466
 24.9216
 24.8677
 24.9534
 24.9506
 23.6867
 23.6648
 23.7372
 23.7074
 24.99
 24.9467
 24.9834
 24.981
 23.8489
 23.7842
 23.8305
 23.8175
 23.2243
 23.2047
 23.149
 23.2802
 25.1208
 25.139
 25.0885
 23.8922
 23.8414
 23.0988
 23.1383
 23.1365
 23.179
 24.2595
 24.295
 24.3007
 25.0167
 25.0681
 25.0883
 25.0601
 23.5424
 23.5167
 23.5566
 23.4967
 23.6267
 23.6397
 23.5426
 23.6138
 26.1665
 26.1768
 26.1117
 26.1392
 24.0477
 24.1069
 24.0656
 25.8041
 25.7541
 25.7428
 23.949
 23.9542
 23.9932
 23.9799
 24.0455
 24.9647
 24.9664
 25.051
 25.0332
 24.1901
 24.144
 24.1144
 23.1579
 23.1643
 23.1666
 23.1906
 24.1118
 24.0805
 24.051
 24.0522
 24.0628
 24.0838
 24.0965
 22.2983
 22.3401
 22.3569
 22.4132
 24.7059
 24.589
 24.6203
 24.6638
 25.1829
 25.1788
 25.1508
 25.1617
 24.4007
 24.4232
 24.3286
 24.3893
 22.9974
 22.9556
 22.9549
 23.0399
 26.2127
 26.155
 26.1883
 26.1126
 23.3634
 23.4296
 23.3787
 23.3725
 25.1513
 25.2004
 25.1797
 25.1863
 23.1092
 23.2384
 23.2145
 23.1587
 23.2056
 23.2499
 23.2799
 23.231
 23.3474
 23.3106
 24.6745
 24.7091
 24.7136
 24.6806
 22.8599
 22.8692
 22.8662
 23.2976
 23.3939
 23.3475
 23.2814
 24.7495
 24.6842
 24.7258
 24.7872
 24.385
 24.4116
 24.3335
 26.4753
 26.4738
 26.5011
 26.4736
 24.0344
 24.1324
 24.0464
 22.8985
 22.8489
 22.8914
 22.9129
 23.1661
 23.2076
 22.9086
 22.8506
 22.7975
 22.8953
 23.3625
 23.3542
 25.19
 25.1469
 25.2349
 25.1125
 23.25
 23.2681
 23.2574
 23.3329
 23.9373
 23.8968
 24.4536
 24.4055
 24.4173
 24.4447
 23.2933
 23.2671
 23.2292
 23.2652
 24.6289
 24.7247
 24.7201
 24.6474
 22.9165
 22.9287
 22.8711
 22.767
 23.7239
 23.7046
 23.7796
 25.3234
 25.3561
 25.3622
 25.3182
 23.6291
 23.6484
 23.6776
 23.7064
 24.6925
 24.7472
 24.7745
 24.7968
 24.6602
 24.7267
 24.6788
 26.263
 26.263
 26.2753
 26.2344
 25.0963
 25.0014
 24.9803
 25.0691
 23.1283
 23.1693
 23.1065
 23.1698
 24.1094
 24.0956
 24.1504
 24.3248
 24.9087
 24.875
 24.8982
 24.8545
 24.3184
 24.3638
 24.3285
 24.3085
 23.4639
 23.381
 23.3684
 23.4416
 24.9233
 24.9225
 24.8189
 25.3728
 23.743
 23.7143
 23.7853
 23.6884
 24.8896
 24.801
 25.8282
 25.8783
 24.891
 24.8457
 24.8933
 24.9678
 23.4079
 23.357
 23.0923
 23.0942
 23.0627
 23.1053
 24.495
 24.4453
 24.4268
 24.4504
 22.7131
 22.6995
 22.639
 22.7044
 24.4284
 24.4246
 24.5456
 24.532
 23.314
 23.3057
 23.331
 23.4174
 24.7453
 24.7416
 24.7129
 24.7086
 23.2238
 23.1834
 23.2606
 23.2096
 24.2197
 24.1749
 22.7987
 22.8312
 23.5675
 23.5264
 23.5859
 23.5139
 23.5483
 23.5714
 23.5687
 23.5048
 23.8685
 23.9066
 23.8514
 23.8472
 23.2221
 23.3073
 23.229
 23.1649
 24.7625
 24.8232
 24.7869
 24.7898
 22.8355
 22.8554
 22.873
 22.7246
 22.7134
 22.7805
 22.7342
 24.9642
 24.8923
 24.8915
 24.9202
 23.381
 23.4621
 23.4489
 23.4224
 24.9554
 24.9044
 24.8993
 24.8475
 23.9766
 24.1026
 24.0175
 24.0172
 24.1055
 23.0878
 23.0782
 23.074
 23.1485
 25.6826
 25.7265
 25.6871
 25.6407
 23.4231
 23.3835
 23.3362
 23.3923
 23.9875
 23.9245
 24.0422
 23.9929
 23.4495
 23.4959
 23.503
 23.5023
 23.5262
 22.3327
 22.3809
 22.4709
 22.4188
 23.2003
 23.2006
 23.297
 23.2676
 25.7914
 25.7493
 25.7054
 25.7988
 24.2459
 24.3123
 24.3393
 24.2798
 24.5469
 23.9105
 23.9312
 23.908
 23.8575
 22.9117
 22.9137
 22.9715
 23.0086
 23.0988
 23.0937
 23.0386
 22.9141
 23.0554
 22.9848
 23.0169
 26.1661
 26.1297
 23.2939
 23.2897
 23.2723
 24.5612
 24.567
 24.5797
 24.5106
 23.3605
 23.3905
 23.3415
 23.3973
 23.8597
 23.5158
 23.5724
 23.5084
 23.5368
 22.7207
 22.8248
 22.7991
 22.7263
 23.5148
 23.4718
 23.3864
 23.4999
 24.2739
 24.255
 24.3372
 24.2101
 24.9893
 24.9761
 25.0119
 24.9615
 22.4326
 22.5207
 22.4043
 22.4407
 23.3915
 23.4202
 23.3624
 23.4385
 22.5322
 22.5677
 22.5484
 22.4847
 24.5662
 24.6532
 24.5655
 24.5543
 23.8508
 23.883
 22.7738
 22.6873
 22.7845
 22.7343
 23.8632
 23.8413
 23.8408
 23.784
 24.0884
 24.0179
 23.9369
 23.881
 23.8601
 23.9311
 23.0606
 23.0807
 23.099
 23.035
 24.4267
 24.5014
 24.5368
 24.4697
 25.1918
 25.1367
 25.175
 25.1738
 25.0573
 25.0817
 25.0866
 25.0808
 24.507
 24.4796
 24.4771
 24.5387
 24.1926
 24.2793
 24.216
 24.178
 24.2705
 24.2288
 24.1995
 23.9847
 24.0317
 24.047
 24.005
 25.2346
 25.2657
 25.232
 24.3442
 24.3615
 24.2909
 24.3007
 23.9021
 23.8588
 23.8573
 23.9292
 24.6404
 24.6941
 24.6063
 24.7017
 24.5239
 24.4724
 24.4863
 24.4911
 23.7852
 23.7807
 23.7338
 23.6923
 24.0905
 24.1413
 24.0986
 24.1189
 23.4911
 23.5162
 23.4768
 23.4962
 25.0735
 25.0583
 25.0354
 23.1536
 23.1805
 23.1066
 23.1782
 24.6347
 24.575
 24.6084
 24.6557
 24.2427
 24.2853
 24.3091
 24.2251
 24.11
 24.0605
 24.0394
 23.6488
 23.6585
 23.6334
 23.5843
 23.5505
 23.5383
 23.5016
 23.5712
 23.443
 23.4375
 23.3778
 23.0501
 23.0125
 23.0316
 23.6079
 23.6372
 23.6786
 23.6203
 22.9435
 22.9073
 22.9887
 22.856
 22.853
 22.8723
 22.9302
 24.0712
 24.1859
 24.1257
 24.1477
 24.5254
 24.5725
 24.5208
 24.5681
 24.8119
 23.0197
 23.0548
 22.9552
 23.0087
 22.9582
 23.0745
 26.3038
 26.341
 26.2995
 26.2825
 23.2871
 23.3403
 24.1966
 24.2756
 24.2008
 22.5194
 22.4413
 23.6498
 23.7424
 23.7177
 23.7048
 24.2331
 24.2025
 24.1997
 23.2878
 23.1731
 23.2506
 23.2035
 24.5569
 24.5404
 24.5845
 24.5219
 25.8952
 25.8382
 25.8534
 25.9081
 23.7568
 23.7458
 23.7772
 23.6948
 23.0608
 22.9539
 23.0659
 23.2178
 23.2164
 23.2033
 23.26
 24.6773
 24.7689
 24.743
 24.8056
 24.6998
 24.6419
 24.8883
 24.8401
 24.9074
 22.4736
 22.5188
 23.0555
 23.1196
 23.0457
 23.1383
 23.9124
 23.8161
 23.8325
 23.3442
 23.4156
 23.3001
 23.2913
 24.6475
 24.7344
 24.7176
 24.6743
 23.9972
 24.0013
 23.9475
 23.9339
 24.0455
 23.9995
 23.9968
 24.0477
 24.754
 24.7196
 24.7319
 24.651
 24.6826
 24.6609
 24.6667
 22.2408
 22.1611
 22.2199
 22.1273
 25.1318
 25.2094
 22.8788
 22.8679
 22.8723
 22.9201
 24.2266
 24.1687
 24.194
 24.2217
 23.9057
 23.8644
 23.8616
 23.8628
 25.0889
 25.0308
 23.9201
 23.9633
 23.9666
 24.0009
 24.2104
 24.2301
 24.249
 24.1895
 23.1387
 23.1576
 23.1801
 23.145
 24.0901
 24.0522
 24.0367
 24.1271
 24.5911
 24.5914
 23.6944
 23.6937
 23.7259
 23.6737
 23.4055
 23.4357
 23.3812
 23.902
 23.8393
 23.8572
 23.8299
 24.845
 24.8173
 24.8587
 24.7782
 26.02
 25.9638
 25.9724
 26.0239
 24.0884
 24.1268
 24.0862
 24.0127
 23.8261
 23.7416
 23.8028
 23.8249
 24.2595
 24.227
 24.2968
 24.2822
 24.4488
 24.4884
 24.4454
 24.4131
 23.1114
 23.0391
 23.6725
 23.7004
 23.724
 25.5585
 25.584
 25.6196
 25.5571
 24.7411
 24.7891
 24.7044
 24.8094
 23.9243
 23.9
 23.9422
 23.9619
 23.1306
 23.1054
 23.0999
 24.188
 24.2079
 24.2832
 24.2876
 24.62
 24.5333
 24.5661
 24.6246
 23.3243
 23.3954
 23.4031
 23.3537
 23.65
 23.6709
 23.6932
 23.6867
 23.109
 23.0973
 23.0989
 23.277
 23.2661
 23.2719
 23.2596
 24.3679
 24.3615
 24.4001
 24.4407
 24.1359
 24.1417
 24.0843
 25.9344
 25.9242
 25.9436
 25.9783
 24.633
 24.634
 25.1919
 25.2319
 25.1689
 25.1416
 24.7912
 25.0351
 22.9112
 24.5586
 24.6216
 24.5731
 24.6511
 22.4614
 23.6416
 23.7014
 23.6409
 23.7212
 24.6019
 24.5354
 24.571
 24.3386
 24.29
 24.2895
 23.1021
 23.0954
 23.1853
 23.1102
 23.1975
 23.2415
 23.1835
 23.2317
 24.9072
 24.9889
 24.9892
 24.9342
 22.7143
 22.6981
 22.6835
 22.7624
 24.0145
 24.0698
 24.1153
 23.2009
 23.1485
 23.1864
 23.7808
 23.8438
 23.8217
 23.772
 24.5556
 24.521
 24.5983
 24.5718
 23.8409
 23.7488
 23.8285
 24.4954
 24.4786
 24.4733
 24.5422
 24.1998
 24.1174
 23.1162
 23.0801
 23.0625
 23.0082
 22.9026
 22.8196
 22.8624
 22.8896
 24.7339
 24.6699
 24.7641
 24.7149
 23.3571
 23.4454
 23.4142
 23.341
 23.7079
 23.8041
 23.7202
 23.6849
 24.3253
 24.3705
 24.2907
 24.326
 22.9747
 22.999
 23.0235
 23.0513
 24.2007
 24.2528
 24.1632
 24.1759
 24.0049
 24.0538
 24.0554
 23.959
 24.1401
 24.1798
 24.1282
 24.12
 24.7066
 24.6477
 24.7933
 24.7531
 24.7089
 24.7805
 25.2895
 25.3807
 25.3243
 25.3002
 23.6792
 23.6812
 23.6732
 23.6121
 23.7104
 23.7822
 23.7686
 22.7688
 22.7508
 22.7351
 22.7391
 22.4344
 22.4033
 22.4608
 22.8091
 22.7808
 22.8745
 23.8072
 23.7372
 23.6864
 23.7776
 23.4611
 23.4171
 23.3784
 23.4902
 23.1594
 23.0987
 23.1536
 23.09
 24.4932
 24.5597
 24.5427
 24.5011
 25.1776
 25.1256
 25.0994
 25.0982
 22.4848
 22.4851
 22.5315
 22.4054
 24.6285
 24.6551
 24.6779
 24.6135
 23.8492
 23.8484
 23.8156
 23.8641
 22.4228
 22.4641
 22.5417
 22.3849
 23.5677
 23.6309
 23.5509
 23.5717
 24.2569
 24.2877
 24.2638
 24.2839
 24.6108
 24.6633
 24.6561
 25.0075
 24.9418
 24.9832
 25.0195
 24.8519
 24.8801
 24.8458
 24.8854
 24.7987
 24.8609
 24.6751
 24.6425
 24.7458
 23.1396
 23.1759
 23.1888
 23.1999
 22.8644
 22.9191
 22.8956
 22.9114
 23.565
 23.5782
 23.5789
 23.6549
 24.1006
 22.8888
 22.8617
 22.8744
 22.9106
 25.0613
 25.0625
 25.0706
 25.0818
 22.5964
 22.542
 22.6149
 22.5124
 24.3374
 24.4045
 24.3077
 23.4348
 24.9518
 24.9497
 24.9925
 24.7869
 24.8158
 24.8529
 24.7543
 23.9194
 23.9326
 24.0172
 23.9659
 23.3076
 23.3008
 23.3539
 23.2637
 24.1014
 23.4689
 23.4963
 23.5169
 24.0873
 24.1069
 24.0885
 24.0264
 24.5097
 24.4925
 24.5408
 24.5402
 24.3272
 24.4028
 24.3473
 24.3393
 23.4319
 24.7054
 24.7015
 24.6635
 23.1924
 23.2341
 23.1824
 23.2177
 23.0414
 23.0609
 22.9867
 23.0803
 22.8186
 22.7881
 22.83
 24.5032
 24.4992
 24.5476
 24.4938
 25.0953
 25.1318
 25.0963
 23.0733
 23.0929
 22.959
 22.9849
 23.0205
 23.0194
 24.1201
 24.1199
 24.0762
 22.5843
 22.6119
 22.557
 22.6262
 23.1062
 23.1368
 23.1114
 23.0766
 23.5994
 23.6166
 23.5704
 23.5612
 23.8981
 23.8792
 23.9109
 23.9645
 24.6448
 24.6615
 24.6757
 24.6202
 22.9941
 22.9875
 23.0199
 22.933
 24.4754
 24.4589
 24.5331
 24.3488
 24.2962
 24.2904
 24.2726
 22.8623
 22.8662
 22.7811
 22.8338
 23.4653
 23.4633
 23.49
 23.5081
 22.5784
 22.6261
 22.6797
 22.6163
 24.3358
 24.2892
 24.2661
 24.2745
 23.8893
 23.8641
 23.9372
 23.8189
 23.0534
 23.0598
 23.0199
 23.0504
 23.91
 23.8565
 23.9209
 23.908
 22.5817
 22.486
 22.5647
 24.5188
 24.5408
 24.554
 24.544
 23.7864
 23.7893
 23.7982
 23.8505
 23.6274
 23.5584
 23.6115
 23.6057
 23.9823
 24.0255
 23.9287
 23.9953
 23.055
 23.0591
 22.9783
 23.0229
 24.1112
 24.1728
 24.1396
 24.1598
 23.6945
 23.7114
 23.6984
 23.7526
 25.0975
 25.095
 25.1086
 25.0958
 23.2435
 23.2285
 23.2836
 23.3115
 25.106
 25.1076
 25.106
 24.6855
 24.7143
 24.7118
 24.6762
 24.8747
 24.8515
 24.7421
 24.8256
 23.2686
 23.3026
 23.257
 23.2147
 23.4856
 23.3974
 23.4644
 23.4577
 24.3284
 24.3858
 24.3863
 24.4194
 22.3778
 22.4237
 22.4831
 25.9112
 25.927
 23.6875
 23.6296
 23.7177
 23.6964
 25.38
 25.4293
 25.4864
 25.4263
 23.4974
 23.4941
 23.4191
 23.4444
 24.3172
 24.4778
 24.499
 24.5152
 24.5495
 23.3352
 23.3106
 23.3001
 23.2772
 23.0234
 23.0419
 22.98
 23.0412
 25.0972
 25.0975
 23.4276
 23.4008
 23.3056
 23.4083
 23.7506
 23.8624
 23.7453
 23.8025
 24.5911
 24.5867
 24.632
 24.5038
 24.1251
 24.1747
 24.1861
 24.1172
 23.1156
 23.1876
 23.0562
 22.8398
 22.8646
 22.8548
 22.8684
 22.4348
 22.4298
 22.4131
 24.4423
 24.4813
 24.4682
 24.4344
 22.8005
 22.8583
 22.8733
 22.8869
 24.9043
 24.9593
 24.9371
 24.9221
 23.5519
 23.5375
 23.5319
 23.6017
 23.8495
 23.7756
 23.8295
 23.825
 22.8089
 22.8172
 22.8244
 22.7631
 23.4787
 23.4382
 23.5021
 23.5366
 25.4907
 25.5212
 25.5428
 25.5012
 24.0988
 24.1881
 24.1044
 24.1754
 24.4207
 24.3212
 24.337
 24.4076
 23.3291
 23.2909
 23.3533
 23.4114
 24.8299
 24.8764
 24.9034
 24.8908
 23.7017
 23.7499
 23.7227
 23.6515
 24.4516
 24.5036
 24.5073
 25.0947
 25.1404
 25.1111
 25.1623
 23.6259
 23.5689
 23.668
 23.5322
 23.5447
 23.583
 24.6786
 24.7399
 24.7808
 24.8165
 24.8254
 24.7962
 24.7747
 22.8441
 26.3716
 26.3341
 26.3358
 26.3958
 23.0751
 23.1299
 23.0246
 23.0826
 24.9587
 24.3176
 24.3286
 24.3455
 24.2614
 24.4364
 24.4716
 24.3557
 24.6413
 24.5636
 24.5995
 24.6304
 25.5057
 25.5281
 25.4898
 25.566
 24.9066
 24.8571
 24.8621
 23.9135
 23.947
 23.9395
 24.4555
 24.4766
 22.2864
 22.3683
 22.376
 24.8607
 24.8117
 24.8849
 24.3224
 24.274
 24.2524
 22.7889
 22.7249
 22.7372
 23.2891
 23.2851
 23.2214
 23.2885
 24.6306
 24.5892
 24.5726
 25.067
 25.1339
 22.6955
 22.7595
 22.6738
 22.699
 25.3312
 25.3045
 25.3707
 25.2645
 24.8481
 24.8694
 26.011
 26.0659
 25.7561
 25.7678
 25.7296
 24.3375
 24.3043
 24.3692
 22.7143
 22.7935
 22.8133
 23.4436
 23.4306
 23.3733
 24.5915
 24.5391
 24.4752
 24.4412
 24.4997
 22.9702
 25.1402
 25.1424
 25.1124
 25.1082
 24.4214
 24.3112
 24.3811
 24.3892
 23.3618
 23.3893
 23.3448
 23.3749
 23.3704
 23.4072
 23.3871
 24.3563
 24.3794
 24.3254
 24.2822
 23.4659
 23.4364
 23.3983
 23.4011
 23.2409
 23.2966
 23.2649
 23.1952
 24.0318
 23.4042
 23.4097
 23.3856
 23.3636
 22.6278
 22.5916
 22.6245
 22.6766
 24.7216
 24.8249
 24.8385
 24.7628
 22.7446
 22.7102
 22.7464
 22.754
 26.0458
 26.0373
 26.0842
 22.68
 22.7192
 22.606
 22.6507
 24.6891
 24.7046
 24.7612
 24.752
 23.2389
 23.2972
 23.2556
 23.2131
 24.859
 24.858
 24.9769
 24.9508
 22.509
 23.103
 23.1916
 23.1591
 23.2209
 22.97
 22.9044
 22.9343
 25.0465
 25.0102
 25.0636
 25.0881
 23.2775
 23.3293
 23.3207
 23.3566
 23.746
 23.6962
 23.6881
 23.708
 23.8225
 23.7873
 23.8745
 23.877
 22.4335
 22.5106
 24.2203
 24.2124
 24.2164
 24.3686
 24.3198
 24.2994
 24.2602
 23.3936
 23.4316
 23.3231
 23.3218
 23.3736
 23.3396
 23.3394
 23.2922
 23.6337
 23.6311
 23.5756
 23.6468
 24.7122
 24.7004
 24.5499
 24.5904
 24.5933
 24.3257
 24.2846
 24.2798
 24.2703
 25.1395
 25.1892
 25.1858
 25.1883
 24.4194
 24.4463
 24.5016
 25.4787
 25.4854
 25.4169
 24.3877
 24.394
 24.4446
 24.3534
 24.6877
 24.6073
 24.7015
 24.1089
 23.3881
 23.4
 23.3286
 24.2756
 24.3008
 24.2615
 24.2198
 24.8807
 24.8738
 24.7368
 24.8103
 24.0476
 24.0099
 23.9901
 23.9868
 23.1259
 23.166
 22.3517
 22.4105
 22.4521
 22.3451
 23.3348
 23.3735
 23.3119
 23.4132
 24.2288
 24.2422
 24.2472
 24.2148
 22.5592
 22.5529
 22.4368
 22.5999
 22.7232
 22.689
 22.6757
 23.9547
 24.0322
 24.0544
 23.9794
 25.0099
 25.0324
 24.9745
 24.1864
 24.1937
 24.1208
 24.1825
 25.0079
 25.0979
 25.0219
 25.0942
 23.498
 23.5056
 23.4889
 23.6216
 25.0876
 25.0855
 25.0908
 25.0699
 24.6868
 24.6417
 24.6264
 24.6625
 22.668
 22.7404
 22.6592
 22.7187
 23.8794
 23.8794
 23.9321
 23.8761
 24.3899
 24.431
 24.3713
 24.4207
 23.4237
 23.406
 23.1709
 23.0707
 23.0965
 23.1056
 24.2939
 24.2278
 24.2467
 24.1722
 24.137
 24.0978
 24.1263
 24.1339
 24.9674
 24.9333
 24.9827
 24.2871
 24.3301
 24.3642
 26.2295
 26.302
 26.2502
 26.2867
 24.6399
 24.6075
 25.0489
 25.0104
 25.0337
 25.084
 23.7222
 23.7789
 23.7277
 23.7978
 25.4973
 25.4394
 25.4054
 25.4649
 24.7945
 24.8109
 24.8768
 23.5465
 23.5239
 23.5297
 23.5604
 24.7525
 24.7043
 24.7755
 24.8268
 24.8217
 24.8738
 24.8717
 24.3313
 24.3701
 24.3606
 24.2954
 23.2177
 23.0631
 25.8138
 25.789
 24.6523
 24.7044
 24.1999
 24.2497
 24.2295
 24.2372
 23.5706
 23.5291
 23.5722
 23.4904
 24.0101
 24.0086
 23.9743
 23.9612
 24.9989
 25.0987
 25.0113
 25.0641
 23.7716
 23.844
 23.8037
 24.9983
 25.0163
 24.9845
 24.9862
 22.8743
 22.859
 22.815
 22.8939
 23.5923
 23.5953
 23.6029
 23.6582
 24.9281
 24.8806
 24.9476
 24.1781
 24.2467
 24.1857
 24.1506
 25.0837
 25.0845
 25.0592
 24.7655
 24.7119
 24.729
 24.7662
 24.8789
 24.8906
 24.8303
 24.8683
 24.2809
 24.3287
 24.3498
 24.3645
 22.6791
 22.719
 22.7781
 22.7498
 23.7042
 23.6221
 23.6478
 23.6551
 24.2367
 24.3109
 24.2531
 23.9186
 23.9482
 23.9425
 22.9447
 23.0167
 22.9499
 22.9932
 23.6437
 23.6239
 23.694
 23.6021
 24.3248
 24.2787
 24.245
 24.2656
 25.1546
 25.1299
 24.9439
 24.9838
 24.9141
 24.9132
 25.9026
 25.922
 25.9715
 25.8915
 23.3682
 23.3532
 23.3541
 23.3796
 24.7466
 24.8174
 24.7905
 24.7972
 24.0136
 24.078
 24.0352
 24.1063
 25.2484
 25.2724
 25.2651
 25.2908
 23.8645
 23.8983
 23.932
 23.925
 24.1519
 23.3508
 23.4145
 23.4259
 23.4091
 24.287
 24.3562
 24.3728
 24.2963
 24.276
 24.2455
 24.2069
 24.2225
 24.4306
 24.4859
 24.4633
 24.5084
 24.8846
 24.9519
 24.8533
 23.0803
 23.0635
 23.0399
 23.1575
 24.2916
 24.3109
 24.3122
 24.3339
 23.15
 23.1165
 23.0772
 23.5584
 23.5991
 23.5568
 23.5962
 23.2541
 23.1656
 23.2155
 23.1598
 24.8749
 24.8218
 24.8829
 26.4091
 26.3797
 26.369
 23.4179
 23.3441
 23.3619
 23.8577
 23.7536
 23.8108
 23.7549
 24.4018
 24.3686
 24.339
 24.3802
 24.2386
 24.2083
 24.292
 24.2732
 25.6227
 25.5795
 25.6768
 25.5775
 23.9793
 24.0103
 24.0149
 24.023
 23.7665
 23.7709
 23.6974
 23.7645
 24.7398
 24.7413
 24.5975
 24.713
 24.6553
 24.6472
 23.5106
 23.5625
 23.5311
 23.5231
 24.814
 24.7509
 23.7097
 23.7348
 24.9923
 26.2749
 26.2906
 26.2838
 26.2392
 25.2177
 25.1586
 22.5125
 22.4384
 22.5029
 25.1018
 25.0495
 25.0041
 25.0569
 23.4327
 23.4156
 24.7073
 24.7203
 24.7106
 24.7091
 24.4785
 24.3755
 24.4239
 23.3478
 23.3347
 23.3445
 23.2725
 23.6381
 23.5812
 23.6357
 23.6157
 23.0769
 23.0745
 23.0126
 24.2535
 24.3066
 24.2505
 24.336
 24.0844
 23.0157
 23.126
 23.0432
 23.0708
 25.0884
 25.11
 25.0644
 25.0386
 23.9631
 24.0082
 23.9237
 23.9826
 23.3304
 23.4308
 23.3575
 23.4064
 25.976
 25.9687
 25.9464
 25.9479
 24.8894
 22.5365
 24.3478
 24.2572
 24.3154
 24.3732
 23.9348
 23.8757
 23.9477
 23.9714
 24.6923
 24.779
 24.7285
 24.7149
 23.9055
 23.9378
 23.9147
 23.9017
 24.9615
 24.95
 24.8858
 24.9761
 24.9234
 24.8826
 24.9286
 24.2251
 24.1604
 24.2501
 24.2182
 23.3063
 23.2405
 23.3682
 22.2947
 22.2152
 22.2903
 22.3345
 25.6556
 25.7269
 25.73
 24.1428
 24.1481
 24.1876
 24.1589
 24.226
 24.1417
 22.864
 22.8629
 22.8943
 22.8043
 23.4349
 23.4794
 23.4642
 23.5119
 24.8876
 24.7963
 24.8642
 25.3612
 24.2898
 24.3633
 24.3359
 24.2961
 24.1379
 24.0968
 24.1055
 23.5588
 23.5955
 23.5771
 23.5389
 23.3744
 23.442
 23.3935
 23.4258
 24.3176
 24.3608
 23.4637
 23.4671
 23.4644
 23.4153
 23.8743
 23.8919
 23.8738
 23.8215
 22.7513
 22.7068
 23.6709
 23.7297
 23.685
 23.7082
 23.4826
 23.4525
 23.4449
 23.4033
 23.59
 23.553
 23.5867
 23.5944
 24.1103
 24.0745
 24.2795
 24.2363
 24.2828
 24.3198
 24.4604
 24.5167
 24.4922
 24.4749
 23.8462
 23.7989
 23.8046
 23.8288
 24.9415
 24.8997
 24.8563
 24.8319
 24.7077
 24.7246
 24.7473
 24.7269
 25.7951
 25.7423
 25.7485
 25.8124
 24.4603
 24.5578
 23.8621
 23.9597
 23.887
 23.9153
 24.3387
 24.3522
 24.3289
 24.2847
 23.9646
 23.9229
 23.8934
 23.9458
 24.2424
 24.2319
 23.3444
 23.3662
 22.5791
 22.5661
 22.553
 22.5469
 25.0645
 24.2818
 24.289
 24.27
 24.2282
 24.0857
 24.14
 24.1162
 24.0986
 24.5753
 24.6162
 24.6265
 24.6844
 23.4737
 23.551
 23.487
 23.5553
 23.907
 23.9468
 23.965
 23.9089
 24.9682
 24.9909
 24.938
 25.0022
 25.0304
 24.3764
 24.3151
 24.3941
 24.3722
 24.4447
 24.3644
 24.42
 24.443
 24.8803
 24.876
 24.9336
 24.8785
 24.7276
 24.7123
 24.6343
 24.6709
 24.1623
 24.1046
 24.1842
 24.1878
 24.9548
 24.9902
 25.0176
 24.9963
 23.9076
 23.8921
 23.9694
 24.655
 24.6553
 24.6705
 24.6763
 25.5185
 25.4806
 23.9001
 23.8605
 23.8464
 24.0093
 23.9412
 23.9674
 23.9355
 25.0373
 24.994
 24.9733
 25.2432
 25.2106
 25.2141
 25.2323
 23.6873
 23.7074
 23.6475
 23.6932
 23.9335
 24.0144
 23.9329
 23.2609
 23.3794
 23.3224
 24.1132
 24.1597
 24.1486
 23.0678
 23.0859
 23.0521
 25.8274
 25.8726
 25.8779
 25.8321
 22.7547
 22.7267
 22.7679
 22.7203
 24.5182
 24.5713
 23.8422
 23.8756
 24.8489
 24.8491
 24.8627
 24.808
 23.7337
 23.7677
 23.6951
 23.3103
 23.2637
 23.2764
 23.2664
 23.0178
 23.1078
 25.0841
 25.0774
 25.1083
 23.8929
 23.8951
 23.951
 24.7215
 24.7701
 24.7035
 25.0129
 25.0132
 25.0308
 25.0489
 24.288
 24.2629
 24.3205
 24.2394
 24.3596
 24.4214
 24.4107
 24.3653
 23.5111
 23.5254
 23.536
 23.4711
 23.3738
 23.4288
 23.3979
 23.4717
 24.4188
 24.4006
 24.3668
 23.7196
 23.7448
 23.7769
 23.5514
 23.49
 23.5181
 23.4883
 22.1306
 22.1803
 22.1134
 24.0998
 24.1263
 24.126
 23.4949
 23.4584
 23.5329
 24.1568
 24.1264
 24.1941
 24.5273
 24.5935
 24.5777
 25.0707
 25.0495
 25.0558
 25.0369
 24.0935
 24.2459
 24.1819
 24.2232
 24.659
 24.6754
 24.7164
 24.9124
 24.8475
 23.6025
 23.6424
 23.5553
 23.6094
 23.5844
 23.531
 23.6155
 23.6489
 24.8615
 24.795
 24.7637
 24.752
 24.9305
 25.001
 24.9563
 25.0075
 25.348
 25.3821
 25.3457
 25.4073
 22.7618
 22.7335
 23.1284
 23.2141
 23.1641
 23.1178
 22.6705
 24.5641
 24.4927
 24.5567
 24.0528
 24.0376
 24.0804
 24.1066
 24.9196
 24.9172
 24.1946
 24.2117
 24.1392
 25.1191
 25.097
 23.2028
 23.2005
 23.1346
 23.2551
 22.9628
 22.988
 22.8704
 22.9474
 23.3687
 23.357
 23.4145
 24.5135
 24.468
 24.4721
 22.9725
 22.9857
 22.9601
 22.9479
 24.6877
 24.7554
 24.7041
 24.6751
 23.3171
 23.3558
 23.3777
 23.3221
 24.6402
 24.7011
 24.7122
 24.6135
 24.9425
 24.9185
 24.9619
 22.6787
 22.5725
 22.6229
 22.6573
 25.0686
 25.0354
 25.0507
 24.3213
 24.3057
 24.2201
 24.2884
 22.6895
 22.6234
 22.6562
 24.6264
 24.6714
 24.595
 24.6337
 23.622
 22.8426
 22.8016
 22.9351
 22.8633
 25.1703
 25.1535
 25.1214
 25.1583
 23.5955
 23.6867
 23.6151
 23.5947
 24.139
 24.1218
 24.1911
 24.9211
 24.9546
 24.911
 25.0251
 23.6511
 23.6817
 23.6201
 24.7155
 24.7425
 25.7818
 25.8447
 25.7969
 25.7535
 25.2554
 25.378
 25.3836
 22.9302
 22.9592
 22.8568
 22.9426
 22.9657
 22.9236
 25.2336
 25.2178
 25.2759
 25.1981
 24.3858
 24.361
 24.3687
 24.3315
 24.2092
 24.288
 24.2856
 24.2668
 23.8766
 23.9023
 23.8313
 23.8889
 23.8853
 23.98
 23.9205
 23.9739
 22.7766
 24.9847
 25.0144
 24.9798
 25.0027
 22.771
 22.8223
 22.746
 23.8775
 23.9347
 23.9694
 23.9463
 25.0421
 24.9844
 24.9647
 23.9456
 23.9978
 23.9611
 23.9975
 24.1345
 23.5323
 23.5161
 23.4434
 23.471
 24.6904
 24.7011
 24.6924
 24.132
 24.0408
 24.088
 22.7083
 22.735
 22.8048
 22.7443
 24.1275
 24.1317
 24.1635
 26.0444
 26.0291
 26.0829
 24.1335
 24.1744
 24.1337
 24.2309
 23.5099
 23.4469
 23.473
 24.0775
 24.0586
 23.1132
 23.0695
 23.1478
 23.1288
 23.3868
 23.3267
 23.3541
 23.3709
 22.6305
 22.6556
 22.7004
 22.7512
 23.947
 24.0569
 23.9783
 23.9591
 23.4208
 23.4437
 23.4602
 23.4774
 23.1194
 23.0694
 23.0195
 24.7758
 24.7421
 24.8343
 24.7947
 24.1859
 24.1286
 24.4893
 24.5336
 24.4849
 24.5056
 23.5945
 23.596
 23.6075
 23.5621
 24.1446
 24.0933
 24.1034
 24.1675
 23.6704
 23.7062
 23.6354
 23.7054
 24.0923
 24.0788
 24.0204
 24.0216
 24.1822
 24.2276
 24.2295
 23.1305
 23.1757
 23.1496
 22.8984
 22.8949
 22.9133
 22.8206
 23.1595
 23.1585
 23.1121
 23.4651
 23.3686
 23.4444
 25.6773
 25.6559
 25.7195
 24.1958
 24.1205
 24.1775
 23.2019
 23.1747
 23.2165
 23.2105
 24.1978
 24.1701
 24.204
 23.8951
 23.8846
 23.859
 23.9366
 23.6167
 23.7411
 23.7024
 23.7013
 24.152
 24.1008
 24.1217
 24.079
 24.8294
 24.7914
 24.822
 24.8567
 24.1757
 23.9108
 23.923
 23.8866
 23.9996
 25.0684
 25.0442
 25.0336
 25.0385
 25.0032
 24.9513
 24.9841
 24.9535
 24.9191
 24.8721
 24.9036
 24.9266
 23.6319
 23.6544
 23.5681
 23.5345
 24.7445
 24.7774
 24.7565
 24.7493
 22.457
 22.5286
 22.4817
 22.5285
 25.333
 25.2983
 25.2588
 25.2601
 24.7361
 24.7297
 24.7476
 25.1404
 25.1905
 25.2198
 25.2104
 24.9023
 24.9482
 24.8664
 25.0284
 25.0143
 24.0559
 24.0636
 24.0194
 23.9401
 22.9416
 22.9927
 23.0084
 22.8838
 22.8986
 22.8542
 22.9212
 24.8953
 24.9428
 22.6006
 22.5612
 22.6182
 23.1163
 23.1275
 23.1036
 23.0752
 24.9111
 24.9415
 24.9036
 22.7075
 22.6742
 22.7412
 22.6549
 24.4456
 24.4321
 24.39
 24.484
 24.8971
 24.9693
 24.9283
 24.8794
 25.177
 25.0823
 25.1227
 25.1371
 25.5487
 25.5191
 25.5753
 25.579
 23.7499
 23.6474
 23.7088
 23.6538
 24.4101
 24.4107
 24.4326
 24.512
 22.6646
 22.7568
 22.6698
 26.0615
 26.0003
 26.0432
 25.9676
 25.2854
 25.2316
 25.2581
 25.2109
 22.7567
 22.6474
 22.7087
 22.7106
 24.1506
 24.1434
 24.0944
 23.0758
 22.9973
 22.9808
 24.8064
 24.8109
 24.8865
 22.6335
 22.7197
 22.7164
 22.6633
 23.0307
 23.0524
 23.0663
 23.1234
 24.6467
 24.6157
 24.5625
 24.612
 24.4393
 24.5042
 24.4397
 24.5108
 23.3245
 23.3205
 23.298
 23.2356
 23.999
 24.0325
 24.0701
 24.0464
 25.3758
 25.3164
 25.324
 25.3093
 23.0269
 23.1572
 23.0739
 23.1028
 22.5606
 23.9919
 23.977
 23.9378
 23.9389
 22.8861
 22.8522
 22.8589
 22.7956
 25.0677
 25.068
 25.0546
 25.055
 22.6681
 22.6124
 22.6865
 22.7132
 24.1819
 24.1926
 24.3998
 24.4316
 24.3923
 24.3689
 23.3311
 23.3935
 23.4017
 23.4017
 23.8791
 23.8082
 23.8144
 24.4192
 24.4325
 24.405
 23.3459
 23.3441
 23.4192
 23.4274
 23.3814
 23.4147
 23.3507
 23.3976
 24.8411
 24.899
 24.9045
 24.1437
 24.0218
 24.024
 24.0911
 25.4197
 25.3588
 25.3035
 25.3847
 25.4289
 22.6082
 22.7188
 22.6001
 22.7109
 24.0557
 24.0883
 24.1169
 24.0598
 22.905
 22.8621
 24.2676
 24.3608
 24.3606
 24.6902
 24.7468
 24.6521
 24.6691
 22.7071
 22.7222
 22.6853
 22.676
 24.9823
 24.9611
 24.9699
 24.6862
 24.7112
 24.6664
 24.7066
 24.4719
 24.4106
 24.4543
 24.5295
 23.5549
 23.4318
 23.4929
 23.4637
 24.7728
 24.6902
 24.7398
 24.7438
 23.3463
 23.801
 23.7313
 23.7098
 23.8087
 22.9051
 22.8804
 22.9454
 22.7367
 22.7623
 22.771
 22.8181
 23.7536
 23.7292
 23.806
 23.7705
 22.4258
 22.426
 22.4209
 22.4998
 24.4855
 23.8105
 23.8941
 23.9025
 23.8366
 24.0391
 24.1295
 24.0968
 24.0613
 25.5418
 25.4831
 25.4676
 25.5262
 24.1481
 24.132
 24.1114
 24.182
 24.332
 24.3164
 24.2959
 24.2746
 24.2933
 24.2798
 24.2399
 23.0105
 23.0798
 23.1083
 24.3313
 24.3922
 24.3827
 24.3392
 22.982
 22.8847
 22.9368
 24.0783
 24.1118
 24.0212
 23.9848
 24.0032
 23.9402
 23.9548
 23.9358
 24.09
 24.0744
 23.9942
 24.022
 22.9815
 22.9405
 22.9442
 24.462
 22.8517
 23.8678
 23.8213
 23.866
 23.9342
 24.8523
 24.8319
 24.9049
 24.7536
 24.6932
 24.6731
 24.0059
 23.9898
 24.0442
 24.1091
 24.1134
 24.0779
 24.0491
 24.0781
 24.1244
 24.0413
 24.1184
 26.1184
 26.1082
 26.166
 23.3212
 23.3987
 23.3207
 24.199
 24.1716
 23.1012
 23.1982
 23.1756
 23.1941
 23.7779
 23.7274
 23.7739
 25.4743
 25.4921
 25.5512
 25.5271
 24.2976
 24.382
 24.3316
 24.3193
 24.822
 24.8501
 24.8854
 24.9031
 23.5927
 23.678
 23.6375
 23.6028
 24.5704
 24.6086
 24.5805
 24.6475
 25.3815
 25.3954
 25.4044
 24.4303
 24.4546
 24.4873
 24.4737
 23.5537
 23.4851
 23.5062
 23.5091
 24.122
 24.0613
 24.0486
 24.0859
 24.7468
 24.7786
 24.7453
 24.3895
 24.435
 24.4122
 24.4249
 24.7742
 24.8376
 24.762
 24.822
 25.0114
 24.9305
 24.9248
 25.0185
 22.7975
 22.7517
 22.7725
 22.7491
 24.9323
 24.8818
 24.9001
 24.8813
 24.7721
 24.8137
 24.7494
 24.7585
 23.7362
 23.6483
 23.6875
 23.6406
 24.4318
 24.4578
 24.3971
 24.4138
 22.2482
 22.2073
 22.2141
 22.21
 24.3201
 24.3512
 24.295
 25.0327
 25.0793
 25.0582
 25.009
 24.96
 24.9913
 24.9698
 24.9932
 24.8679
 24.9537
 23.5565
 23.6045
 23.5564
 23.639
 22.4233
 22.4853
 22.4532
 22.4607
 24.3539
 24.4123
 24.3783
 24.4136
 24.8793
 24.9176
 24.9269
 23.6268
 23.6885
 23.7026
 23.6385
 24.225
 24.2499
 24.1923
 24.1687
 24.7011
 24.702
 24.7088
 24.6559
 25.0687
 24.9746
 25.0312
 23.2425
 23.1825
 23.1565
 23.2229
 23.2037
 23.1914
 23.2591
 24.3404
 24.3266
 24.2868
 24.275
 24.3115
 24.3536
 24.2757
 24.7177
 24.6656
 24.6443
 24.641
 23.6387
 23.6465
 23.6994
 24.8826
 24.8772
 24.9459
 24.0272
 23.9545
 23.9876
 23.1618
 23.2415
 23.2077
 23.5296
 23.5487
 24.4711
 24.428
 24.4702
 24.4221
 24.3959
 24.4241
 24.2098
 24.2836
 24.6579
 25.1286
 25.1149
 25.1685
 22.961
 22.9697
 23.0621
 24.3279
 24.2843
 24.3019
 24.3454
 24.6957
 24.0849
 24.0379
 23.6253
 23.6189
 23.6368
 23.5832
 24.1058
 24.1695
 24.1024
 24.3045
 24.2738
 24.3682
 24.288
 24.4394
 24.3305
 24.3124
 24.357
 24.377
 24.2744
 23.0202
 23.0785
 23.0941
 23.0516
 22.9896
 22.94
 22.8491
 22.8826
 24.9123
 24.8581
 24.0643
 24.0969
 24.1096
 24.1538
 23.9157
 23.8984
 23.881
 23.854
 23.6492
 23.5957
 23.6582
 23.6672
 24.2171
 24.2464
 24.2708
 24.2042
 24.2947
 24.2569
 24.2834
 24.3175
 23.1511
 23.2453
 23.1698
 23.1947
 24.7737
 24.7018
 24.6981
 24.6514
 24.8022
 24.7305
 24.769
 23.2771
 23.2186
 23.1497
 23.1326
 24.7286
 24.6842
 24.6996
 24.6558
 22.9442
 22.9735
 22.9239
 22.9558
 23.1818
 23.2206
 23.2032
 23.2278
 24.3891
 24.3591
 24.4153
 24.3833
 23.5067
 23.4872
 23.5294
 23.5871
 24.6818
 24.6472
 24.5994
 24.5826
 23.3879
 23.4196
 23.4002
 24.9273
 24.8915
 24.9367
 24.902
 23.8303
 23.8458
 23.8145
 23.7884
 24.4309
 24.4127
 23.4178
 23.3349
 23.3722
 23.4053
 23.3608
 23.371
 23.4086
 24.2663
 24.1881
 24.261
 23.2711
 23.2815
 23.2567
 23.1955
 25.3704
 25.3368
 25.2969
 25.3234
 24.6751
 24.6552
 24.5994
 24.5935
 23.7571
 23.8378
 23.8275
 23.7491
 22.9297
 22.9245
 22.9675
 22.929
 23.1207
 23.0627
 23.0477
 23.1141
 22.8202
 22.8128
 22.8039
 22.9849
 22.9685
 24.5134
 24.4706
 24.5152
 24.4582
 24.8261
 24.7991
 24.8921
 24.8417
 24.6071
 24.6037
 24.4929
 24.4314
 24.479
 24.4742
 24.3109
 24.3036
 24.2361
 24.3021
 24.8631
 24.8614
 24.9071
 23.9595
 23.9987
 23.9862
 24.0141
 22.2502
 22.2739
 22.3391
 24.5188
 24.5282
 24.5074
 24.4559
 23.1066
 23.1857
 23.1347
 23.1136
 23.5485
 23.4706
 23.4915
 24.048
 24.0836
 24.0163
 23.556
 23.4854
 23.5684
 23.1486
 23.2157
 23.5989
 23.588
 23.5874
 24.6577
 24.6369
 24.6205
 24.6893
 22.8921
 22.8472
 22.8964
 22.9179
 23.8144
 23.7368
 23.7899
 25.5974
 25.6543
 25.6732
 25.6006
 24.9376
 24.973
 23.8916
 24.4794
 24.4055
 24.4532
 24.4771
 24.0568
 23.9966
 24.0008
 23.4614
 23.4374
 23.4895
 23.4608
 22.9245
 22.8819
 24.1427
 24.171
 24.167
 24.2047
 24.9915
 25.0297
 25.0375
 24.9578
 23.1201
 23.075
 23.0917
 23.1184
 23.7189
 23.6932
 23.7288
 25.9656
 25.9851
 26.0446
 26.049
 24.8953
 24.9087
 24.9648
 24.5712
 24.5302
 24.606
 24.5589
 23.8166
 23.8119
 23.8526
 23.7717
 24.0898
 24.0388
 25.0954
 25.0752
 25.0809
 25.0799
 23.6817
 23.6141
 24.6191
 24.6853
 24.6326
 24.6192
 24.3361
 24.3107
 24.3841
 24.3333
 24.1024
 24.0448
 24.0097
 24.0621
 24.5663
 24.5969
 24.6631
 23.5417
 23.6335
 23.5448
 23.6083
 23.2321
 23.1805
 23.1276
 23.2293
 23.2949
 23.3034
 23.3026
 23.2314
 25
 25.0669
 25.0112
 25.0568
 24.1103
 24.1493
 25.7194
 25.7966
 25.7512
 25.8191
 24.3936
 24.4575
 24.4801
 22.6209
 26.2397
 26.2255
 26.2319
 26.3237
 24.1195
 24.0812
 24.117
 24.1085
 24.5091
 24.4519
 24.4791
 23.2498
 23.2012
 23.1837
 23.2593
 23.2563
 23.2794
 23.2139
 23.2216
 23.2721
 23.2465
 23.2995
 23.3235
 24.6436
 24.5919
 24.6754
 24.593
 24.851
 24.8796
 24.8966
 24.8998
 23.6998
 23.7048
 23.6308
 23.7088
 24.3301
 24.4157
 24.313
 24.368
 22.3571
 22.8784
 22.8424
 23.8216
 23.8277
 24.2583
 24.305
 24.2944
 22.8455
 22.7472
 22.8122
 22.8264
 24.155
 24.1833
 23.8928
 23.9419
 25.4672
 25.4155
 25.4826
 25.4289
 24.6486
 24.6703
 24.7151
 24.6837
 23.6978
 23.6232
 23.6902
 23.6371
 25.3307
 25.3985
 25.3496
 25.3232
 22.4441
 22.4835
 22.4077
 22.4772
 22.9345
 23.0207
 22.8167
 22.8588
 22.9094
 22.8148
 23.253
 23.2025
 24.4212
 24.3836
 24.4216
 26.0831
 26.0281
 26.1007
 26.1026
 25.2663
 25.228
 25.2213
 25.2715
 22.9099
 22.8534
 22.9092
 22.9459
 23.4597
 23.3657
 23.4116
 23.9869
 24.0423
 24.0861
 24.0112
 24.5846
 24.5142
 24.5636
 24.5883
 23.0273
 22.9701
 23.0234
 22.8895
 24.026
 23.9529
 24.587
 24.5637
 23.611
 23.5507
 23.6387
 23.6156
 24.8265
 24.8989
 24.805
 24.9112
 24.946
 25.015
 24.9842
 26.0292
 25.9261
 25.9331
 25.9789
 24.5478
 24.5144
 24.5223
 24.4692
 23.114
 23.0996
 23.2209
 23.1574
 23.2009
 23.1578
 24.6786
 24.681
 24.6251
 24.7219
 23.3806
 23.4179
 23.3591
 23.6001
 23.6084
 23.5781
 23.6311
 23.1762
 23.1059
 23.176
 23.1045
 24.601
 24.5461
 24.5646
 24.5889
 22.7437
 22.8501
 24.293
 25.6217
 25.6061
 25.5594
 25.5441
 23.366
 23.3874
 23.3342
 25.3249
 25.3606
 25.3159
 25.3856
 23.5335
 23.5391
 23.5329
 23.4762
 25.0132
 25.0161
 25.0837
 24.9913
 24.8043
 24.811
 24.7558
 24.7426
 23.6548
 23.6063
 23.5972
 24.4647
 24.4348
 24.4808
 24.513
 23.8042
 23.8108
 23.7722
 23.8625
 23.8448
 23.9111
 23.143
 23.1217
 23.1325
 23.5723
 23.5598
 23.5949
 25.7121
 25.7077
 25.654
 25.6971
 24.9108
 24.8467
 24.9357
 24.8277
 23.008
 23.0947
 23.1008
 23.1071
 23.3029
 23.3299
 24.7419
 24.6356
 24.7393
 23.5774
 23.6571
 23.6497
 23.6914
 23.6294
 23.6515
 23.6751
 24.6461
 24.6766
 24.6403
 24.6258
 22.7685
 22.7736
 24.4396
 24.4627
 24.4369
 24.4097
 24.7225
 24.7184
 24.6988
 23.5642
 23.5456
 24.1157
 24.1355
 24.1441
 24.073
 25.0183
 25.044
 23.7175
 23.7545
 24.4215
 24.496
 24.4796
 24.4419
 23.9576
 23.9563
 24.0041
 23.9202
 23.964
 24.003
 23.9712
 25.1334
 25.1183
 25.1501
 25.0462
 25.2932
 25.2962
 25.2517
 25.2793
 23.5161
 23.5512
 23.6016
 23.5657
 22.9666
 22.9622
 23.0045
 23.0029
 23.8566
 23.8246
 23.8811
 24.0833
 24.1225
 24.1474
 24.1043
 24.0614
 23.3125
 23.2961
 24.5441
 24.4856
 24.5402
 24.5568
 24.7792
 22.9717
 22.9895
 23.0363
 23.0082
 24.0737
 24.1678
 24.144
 24.0928
 25.9262
 25.8903
 24.2549
 24.3286
 24.2532
 25.6941
 25.679
 25.7126
 25.6561
 23.7738
 23.8176
 23.7807
 23.8078
 25.0297
 24.959
 24.9476
 24.6505
 24.596
 22.7092
 22.7151
 22.7163
 22.8497
 22.8434
 22.8778
 24.8807
 24.7991
 24.6899
 24.6968
 25.8107
 25.8459
 25.8564
 25.8775
 22.9645
 23.0579
 22.9519
 24.817
 24.8079
 24.7719
 24.8545
 24.7133
 24.739
 24.6683
 24.7379
 23.5582
 23.5284
 23.5076
 23.5412
 23.7904
 23.6583
 23.7266
 23.5564
 23.5503
 23.615
 23.5517
 23.3304
 23.4022
 23.2746
 23.4281
 25.0648
 25.0588
 24.8942
 24.8923
 24.8557
 23.8362
 23.8678
 23.9226
 23.8997
 24.7601
 24.7658
 24.6994
 24.7224
 23.4855
 23.5273
 23.5153
 23.4824
 25.0332
 24.9529
 23.0294
 23.071
 23.0426
 23.102
 23.4658
 23.5656
 23.5211
 23.4499
 24.564
 24.5571
 24.5782
 24.5241
 23.1637
 23.0906
 24.2868
 24.2731
 24.2508
 24.2393
 25.3861
 25.3692
 25.3808
 25.3713
 25.0382
 25.0037
 25.0385
 24.9878
 22.6912
 22.6617
 22.6277
 22.6415
 22.9334
 22.9624
 22.9879
 24.5964
 24.6073
 24.6152
 22.7219
 22.6759
 24.2541
 24.2194
 24.2577
 24.1718
 23.1059
 23.1497
 23.0974
 23.1523
 24.752
 24.7832
 24.7406
 24.7864
 25.14
 25.0813
 25.1232
 23.2281
 23.1568
 23.1611
 23.1925
 24.3717
 24.2904
 24.3041
 24.3284
 24.8473
 24.8259
 24.7848
 24.8854
 25.018
 25.1222
 25.0052
 23.8201
 23.8919
 23.793
 24.0283
 24.0164
 24.0635
 23.9925
 23.8707
 23.8764
 23.8119
 23.8874
 24.441
 24.3777
 24.4362
 24.3858
 24.675
 24.6604
 24.6283
 24.7021
 24.907
 24.9666
 23.6324
 23.5474
 23.6344
 23.6322
 23.9695
 24.0517
 23.9868
 24.0246
 23.9471
 24.0321
 24.0458
 24.0893
 23.9829
 24.0117
 25.6582
 25.6279
 25.5893
 25.6181
 22.9294
 22.8508
 22.9138
 24.3734
 24.3807
 24.3836
 24.4373
 24.1507
 24.1987
 24.1522
 24.9711
 24.9265
 24.9975
 24.9766
 24.8046
 24.8619
 24.8219
 24.8378
 24.3827
 24.3654
 24.3201
 24.7317
 24.7634
 23.4455
 23.4822
 23.3954
 22.6114
 22.5892
 22.6544
 22.6199
 24.8133
 24.8655
 24.8692
 24.7826
 24.1611
 24.1097
 24.0944
 24.1595
 23.3119
 23.2973
 23.3511
 23.3544
 24.7508
 24.7299
 24.7756
 24.6894
 24.6043
 24.5717
 24.5527
 24.5027
 23.209
 23.2649
 23.3338
 23.3228
 24.6233
 24.5552
 23.0224
 23.045
 22.9875
 23.8863
 23.9362
 25.1989
 25.235
 25.2365
 25.2606
 24.3691
 24.3429
 24.3258
 24.3392
 25.2566
 25.2899
 25.2579
 24.1973
 24.2088
 23.7516
 23.7155
 23.647
 23.7466
 24.3553
 24.3505
 23.6241
 23.5675
 24.4173
 24.4538
 24.4231
 24.4032
 23.6355
 23.6878
 23.6196
 23.5997
 23.376
 23.3081
 23.2505
 23.2956
 22.7495
 22.7374
 22.772
 22.7669
 24.1346
 24.1016
 24.7877
 24.7871
 24.8835
 24.9093
 23.3255
 23.3922
 24.9347
 24.8771
 24.9116
 25.5359
 25.5243
 25.4374
 25.4751
 25.6325
 25.5918
 25.6176
 24.0403
 23.9691
 23.9738
 23.985
 24.408
 24.3558
 24.3986
 24.8447
 24.5822
 24.5341
 24.6077
 24.5434
 24.856
 24.8154
 24.8972
 24.8381
 24.4465
 24.494
 24.4362
 24.4919
 23.5742
 23.6859
 23.6843
 23.5919
 22.7536
 22.781
 22.784
 22.7185
 24.2701
 24.2884
 24.205
 24.2283
 23.2112
 23.2429
 23.1368
 23.1576
 24.5861
 23.5372
 23.6229
 23.5832
 23.5984
 25.1918
 25.2311
 25.195
 25.1963
 23.5152
 23.4548
 23.4494
 24.4958
 22.9603
 22.9521
 22.9897
 22.8937
 22.8246
 22.8162
 22.8124
 22.8331
 22.9153
 22.8554
 22.8331
 24.0654
 24.0755
 24.0623
 24.1357
 22.8941
 22.8843
 22.856
 22.8563
 24.8451
 24.8832
 24.8966
 24.9054
 23.6755
 23.7012
 23.6958
 23.7589
 24.2789
 24.207
 24.2193
 24.2724
 25.4087
 25.3612
 25.4076
 23.7587
 24.1812
 24.1968
 24.2232
 24.1521
 22.8655
 22.8136
 22.8129
 22.796
 22.8481
 22.8011
 22.7474
 22.7709
 23.6911
 23.7103
 23.6707
 23.7186
 24.5663
 24.6079
 24.6295
 24.6071
 24.3385
 24.2731
 24.3174
 22.9209
 22.8894
 22.929
 22.9927
 22.8197
 22.7814
 22.7964
 22.8368
 24.8673
 24.8981
 24.8969
 23.2688
 23.2124
 22.8719
 22.8923
 22.882
 24.8337
 24.8721
 24.8027
 24.7985
 23.4485
 23.3605
 23.4701
 23.4813
 24.3674
 23.8716
 23.8564
 23.8213
 23.8705
 23.7102
 23.7626
 23.6999
 23.7984
 22.8352
 22.8014
 23.1188
 23.0416
 23.094
 23.0349
 23.1373
 23.0467
 23.0851
 23.0189
 23.2006
 23.2659
 23.1781
 23.2576
 23.4435
 23.396
 23.4328
 23.4029
 25.3069
 25.2334
 22.9027
 22.876
 22.8332
 25.0784
 25.093
 25.0767
 24.6814
 24.7635
 24.7791
 24.7056
 23.3997
 23.4383
 23.3917
 23.3325
 24.2485
 24.3079
 24.2815
 24.2741
 22.5571
 22.6166
 22.5523
 22.5039
 23.8943
 23.9098
 23.868
 23.8849
 23.1812
 23.1339
 23.1886
 23.6045
 23.6063
 23.9214
 24.015
 23.9432
 23.942
 24.0017
 24.0957
 24.0108
 24.0672
 24.9113
 24.8765
 24.8694
 23.6813
 23.6253
 23.6541
 23.6012
 24.437
 24.4097
 24.3645
 23.014
 23.0285
 22.9473
 23.0451
 22.8175
 23.815
 23.9001
 23.9096
 23.8513
 23.6233
 23.5797
 23.574
 23.5945
 23.7183
 23.7555
 23.7779
 26.1161
 26.1649
 26.1043
 26.104
 24.7008
 24.6534
 25.004
 25.0578
 24.1914
 24.2865
 24.2658
 24.2205
 26.4208
 26.3976
 22.6011
 22.5791
 22.5589
 22.5053
 23.4355
 23.3144
 24.9224
 24.9332
 24.8942
 24.8968
 24.184
 24.1762
 24.1311
 24.1525
 23.1354
 23.071
 23.0991
 23.169
 24.6306
 24.6524
 24.6035
 24.6245
 24.2438
 24.2844
 24.2173
 24.2477
 23.0775
 23.0406
 23.0397
 22.9789
 24.2578
 24.2366
 24.2295
 24.3169
 22.7786
 22.8402
 22.8217
 22.8461
 23.6805
 23.6313
 23.6458
 24.7088
 24.7071
 24.7897
 24.7181
 23.7815
 23.8408
 23.8028
 23.8434
 23.9615
 24.0082
 24.4747
 24.3835
 24.3708
 23.6523
 23.6667
 23.5943
 23.5822
 22.7198
 22.7245
 22.6598
 22.6589
 22.967
 22.9182
 22.8779
 22.9788
 24.7765
 24.7849
 24.8377
 24.8179
 25.0628
 25.0676
 25.0842
 25.0761
 24.9108
 24.9869
 24.9259
 24.9615
 25.1186
 25.1088
 25.1349
 24.049
 24.0612
 24.0462
 24.1345
 23.2695
 23.2378
 23.4675
 23.3873
 23.4384
 23.4394
 23.3103
 23.267
 23.3422
 24.7288
 24.7787
 24.7595
 24.7975
 24.0707
 24.06
 24.0195
 24.031
 22.5602
 22.5534
 22.535
 22.4939
 23.9134
 23.9472
 23.977
 23.9105
 23.8262
 23.8982
 23.8183
 23.8786
 22.9489
 22.9103
 22.967
 22.9669
 24.9555
 25.0393
 25.0124
 24.98
 23.4569
 23.4716
 24.9877
 25.0327
 23.1821
 23.2435
 23.185
 23.1325
 23.9612
 23.9721
 23.9473
 24.0247
 25.2133
 25.1516
 25.1907
 25.0207
 25.0451
 25.0661
 25.0706
 24.5508
 24.6232
 23.9558
 23.9837
 23.9388
 23.9778
 23.6151
 23.6241
 23.5767
 24.369
 24.4204
 24.4238
 24.3621
 24.4082
 24.3175
 24.4098
 24.3497
 23.3498
 23.415
 23.3933
 23.3866
 25.129
 25.1311
 25.1083
 22.6564
 22.6393
 22.7267
 22.7118
 23.7449
 23.7632
 23.7518
 24.8008
 24.7789
 24.7578
 22.8337
 22.8317
 22.8926
 22.8005
 23.2109
 24.5563
 24.6239
 24.6123
 24.5893
 22.8799
 22.9892
 22.9499
 22.8984
 23.729
 23.6546
 23.6795
 22.6988
 22.6886
 22.6878
 22.6915
 22.9024
 22.9526
 22.9467
 22.8796
 22.8588
 25.1952
 25.1564
 24.1832
 24.2037
 24.1257
 24.1723
 25.3133
 25.354
 25.3508
 25.3282
 24.4971
 23.7337
 23.706
 23.8031
 23.4633
 23.412
 23.359
 23.4602
 24.4913
 24.4824
 24.5297
 24.5435
 24.6918
 24.7072
 23.798
 23.7668
 23.7653
 24.6146
 24.6495
 24.6076
 24.5732
 24.6861
 24.6834
 24.6536
 24.6384
 22.8664
 22.8319
 24.4678
 24.4217
 24.4644
 24.4721
 25.1256
 25.0331
 25.1223
 25.0508
 24.7128
 24.7021
 24.5801
 24.6811
 25.114
 25.1579
 25.1163
 23.2566
 23.3164
 23.2329
 23.4894
 23.487
 22.9016
 22.8861
 22.9378
 24.9052
 24.9743
 24.9533
 24.9608
 24.8334
 24.8006
 24.7731
 26.1963
 26.1158
 26.1913
 26.2295
 23.2952
 23.3868
 23.2951
 23.2541
 24.615
 24.5896
 24.6211
 24.5309
 23.7525
 23.8024
 23.7844
 23.7466
 23.3374
 23.3555
 23.4247
 23.384
 24.8259
 24.82
 24.797
 24.7685
 24.1983
 24.1446
 24.2024
 23.5203
 23.5115
 23.4683
 23.7283
 23.7353
 23.7502
 23.6767
 24.2277
 24.2959
 24.2979
 24.2901
 23.7194
 23.6879
 23.664
 25.1377
 25.0291
 25.121
 25.1085
 24.1188
 24.1133
 24.1016
 24.1638
 24.8593
 24.915
 24.9118
 24.8947
 24.955
 25.0395
 24.9437
 24.9624
 22.4717
 22.3833
 22.5036
 24.8537
 24.9033
 24.8555
 22.4732
 23.2331
 23.2218
 23.3089
 23.2785
 25.0124
 23.4782
 24.5728
 24.58
 24.6215
 24.6096
 25.1332
 25.1728
 25.2029
 25.1692
 23.6044
 24.2263
 22.6623
 22.685
 22.676
 22.6873
 26.1186
 26.0772
 26.0982
 24.6096
 24.6597
 24.6765
 25.0631
 25.1251
 22.3547
 22.3117
 22.4055
 22.3688
 24.3463
 24.4397
 24.3789
 24.3643
 23.1751
 23.1068
 23.1009
 23.7033
 23.7571
 23.5801
 23.6075
 23.5081
 23.5736
 22.839
 22.8871
 22.9012
 22.8544
 24.2218
 24.2219
 24.1333
 24.165
 22.9746
 22.935
 22.9998
 22.9634
 24.1032
 24.0616
 23.9983
 24.0817
 23.349
 23.3351
 23.3066
 23.3816
 23.2385
 23.3065
 23.2448
 23.1166
 24.7429
 24.8324
 24.7201
 24.6861
 24.0242
 22.7553
 22.658
 22.6991
 22.6855
 23.8638
 23.8515
 23.9333
 23.832
 23.7662
 23.7557
 24.8894
 24.934
 24.9454
 24.8747
 24.497
 24.556
 24.4969
 24.0647
 24.08
 24.1042
 24.1428
 22.5213
 22.5927
 22.6042
 22.5788
 24.6508
 24.6518
 24.6965
 24.7105
 23.4946
 23.5868
 23.5838
 23.547
 24.1001
 24.0881
 24.1374
 24.9542
 24.8952
 24.9208
 24.9097
 25.4919
 25.4783
 25.5467
 25.4543
 24.5126
 24.5606
 24.5761
 23.1242
 23.1216
 23.0783
 23.8646
 23.3443
 23.4241
 23.3907
 23.3903
 24.6485
 24.6669
 24.6593
 24.661
 23.0243
 22.9143
 22.9719
 22.9902
 23.9475
 24.0374
 23.6213
 23.6631
 23.6429
 23.6091
 23.574
 23.5968
 23.6984
 25.5886
 25.5594
 25.645
 25.5866
 22.2967
 22.1768
 22.2173
 22.2858
 24.4718
 24.4152
 24.4423
 24.7819
 24.7389
 24.8263
 24.7212
 23.545
 23.6291
 23.595
 25.9479
 26.0035
 26.0394
 25.9799
 23.3605
 23.3565
 23.2699
 23.2547
 23.3116
 23.2983
 25.0401
 25.0837
 25.0596
 25.0974
 24.8899
 24.8892
 24.8661
 24.9151
 25.3635
 25.3129
 25.2792
 25.3564
 24.2355
 25.4072
 25.3536
 25.3623
 25.3451
 23.3376
 23.4045
 23.4172
 23.4443
 24.8714
 24.805
 23.4566
 23.418
 23.4188
 23.4946
 23.1148
 23.0775
 23.1186
 23.0823
 22.5709
 22.5301
 22.5376
 22.4508
 26.1017
 26.1237
 26.0503
 23.7403
 23.6739
 23.6969
 23.7067
 23.2175
 23.202
 23.2611
 23.2298
 25.6027
 25.5599
 25.5421
 25.6093
 23.7453
 23.3481
 23.3233
 23.3008
 23.3665
 22.8828
 22.8503
 22.8833
 24.2274
 24.2013
 24.2089
 24.167
 22.6351
 22.5466
 22.5077
 22.5486
 23.8615
 23.8299
 23.8642
 23.8731
 23.7842
 24.6838
 24.7622
 24.6676
 23.9179
 23.9882
 23.96
 23.8913
 23.9855
 23.9666
 23.9377
 24.0227
 24.475
 24.5516
 24.5294
 25.096
 25.4727
 25.4177
 25.5303
 23.6406
 23.5944
 23.6163
 23.3679
 23.3527
 23.3897
 24.75
 24.6869
 24.7204
 24.6334
 23.4882
 23.5296
 22.9486
 22.9828
 23.0048
 22.9781
 22.7794
 22.7957
 22.7994
 23.0376
 22.9906
 23.7009
 23.6493
 23.6927
 23.1232
 23.2113
 23.1568
 24.8797
 25.9926
 26.0248
 25.9703
 25.9802
 23.7663
 23.7489
 23.8036
 23.7869
 25.8197
 25.8013
 25.7438
 25.8267
 23.435
 23.4287
 23.3936
 24.0617
 24.0868
 24.1384
 24.1505
 24.6459
 24.6073
 24.7056
 24.6701
 23.8334
 23.816
 23.7603
 23.4188
 23.3725
 24.1802
 24.1094
 24.1583
 24.1513
 24.4618
 24.4195
 24.4478
 24.8894
 24.884
 24.8814
 23.7434
 23.7224
 23.6786
 23.7598
 23.3028
 23.2351
 23.2862
 23.2499
 22.2937
 22.3447
 22.2719
 22.337
 23.9709
 23.9813
 22.257
 22.3156
 22.3411
 23.5954
 25.0362
 24.9851
 24.9403
 24.9666
 24.636
 24.594
 24.6371
 24.607
 23.6115
 23.6553
 23.6274
 22.9783
 22.9273
 25.1008
 25.0786
 25.1384
 25.0626
 23.3765
 23.4061
 25.0414
 25.0703
 23.8654
 23.87
 23.9003
 25.1902
 25.2409
 25.1657
 24.6306
 24.6436
 24.6691
 24.6653
 22.9835
 22.9776
 22.9473
 22.9908
 24.3346
 24.3256
 24.3219
 24.2029
 24.2863
 24.2411
 24.2298
 22.8114
 22.8919
 22.8896
 22.898
 25.4982
 25.4703
 25.5209
 24.0583
 24.124
 24.0934
 23.2832
 23.2446
 23.5215
 23.5357
 23.603
 23.5903
 25.6085
 25.5612
 25.5815
 25.6011
 24.697
 24.6957
 24.6906
 24.6449
 23.2075
 23.1855
 23.1594
 23.1519
 23.143
 23.1728
 23.1674
 23.2064
 24.2713
 24.3395
 24.2783
 24.2935
 22.4775
 22.3768
 22.3978
 22.476
 24.8709
 24.8205
 24.8929
 25.6461
 25.7072
 25.6944
 23.8452
 23.8109
 23.5078
 23.4908
 23.539
 23.5125
 22.9974
 23.0308
 22.9362
 22.932
 24.4121
 23.9881
 24.2947
 24.244
 24.2151
 24.1807
 26.1967
 26.2732
 26.2676
 26.1805
 23.3152
 23.3424
 24.7135
 24.6857
 24.6474
 24.5097
 24.5362
 24.4705
 24.4519
 25.0442
 25.0939
 24.4355
