 26.5695
 26.4843
 26.5153
 26.4608
 25.1127
 25.1089
 25.0567
 25.0327
 25.5067
 25.5555
 25.4933
 25.5616
 25.4482
 25.4844
 25.5298
 25.5378
 24.6703
 24.5958
 24.699
 24.713
 24.6955
 24.7464
 24.6527
 24.7277
 26.8938
 26.9627
 26.9418
 26.8909
 26.8509
 26.8266
 26.8274
 26.8718
 24.6558
 24.6844
 24.7434
 24.6761
 24.7133
 24.7059
 24.7281
 24.6347
 27.0962
 27.1449
 27.0716
 27.0601
 25.4536
 25.4512
 25.5018
 25.4658
 26.2509
 26.2648
 26.3083
 26.2109
 25.1415
 25.2143
 25.2403
 25.1938
 25.7335
 25.7422
 25.7097
 25.6683
 26.6854
 26.7344
 26.6535
 26.7334
 24.9023
 24.8578
 24.8998
 24.831
 25.3205
 25.3547
 25.306
 25.3451
 25.7521
 25.7429
 25.7348
 25.7023
 24.8598
 24.8696
 24.8384
 24.7853
 26.799
 26.8714
 26.7985
 26.8449
 24.5115
 24.5162
 24.4437
 24.4289
 27.601
 27.6463
 27.6377
 27.5738
 25.2749
 25.2353
 25.2862
 25.3004
 25.8332
 25.8642
 25.7961
 25.7904
 25.6611
 25.6564
 25.6862
 25.7046
 26.062
 26.0057
 25.9766
 26.05
 26.6923
 26.7388
 26.6794
 26.6829
 26.279
 26.2965
 26.3537
 26.3166
 25.2002
 25.2119
 25.2276
 25.272
 25.7846
 25.6872
 25.7998
 25.77
 26.2371
 26.1839
 26.1927
 26.2335
 25.3987
 25.4582
 25.3993
 25.4493
 25.089
 25.1173
 25.1168
 25.1112
 26.2552
 26.3191
 26.2507
 26.342
 26.6311
 26.637
 26.6526
 26.6496
 25.4491
 25.5175
 25.4705
 25.4682
 26.931
 26.91
 26.889
 26.8879
 25.2814
 25.2714
 25.1747
 25.1977
 24.3165
 24.3897
 24.332
 24.4043
 25.6078
 25.6277
 25.5998
 25.6689
 25.2264
 25.178
 25.1982
 25.2329
 26.8918
 26.8953
 26.8334
 26.9353
 25.3874
 25.4365
 25.4161
 25.3612
 24.642
 24.6648
 24.6098
 24.644
 26.4054
 26.354
 26.3783
 26.4028
 25.3844
 25.2998
 25.3229
 25.3059
 26.6104
 26.5465
 26.5848
 26.6469
 26.2563
 26.2915
 26.3126
 26.3287
 25.741
 25.782
 25.7911
 25.8389
 26.7173
 26.7481
 26.7673
 26.7037
 25.6049
 25.6583
 25.6474
 25.6155
 26.17
 26.2279
 26.1521
 26.2487
 25.6163
 25.5795
 25.6012
 25.5834
 26.3334
 26.2801
 26.3221
 26.2468
 25.4978
 25.5049
 25.4577
 25.5483
 25.2213
 25.2254
 25.1871
 25.1483
 25.2095
 25.2561
 25.2301
 25.305
 26.3883
 26.4079
 26.4734
 26.3677
 26.0128
 26.0416
 26.0454
 25.9718
 27.5163
 27.5406
 27.5884
 27.5393
 26.3198
 26.3361
 26.3881
 26.3281
 25.825
 25.7402
 25.7846
 25.7761
 26.1417
 26.1422
 26.0684
 26.183
 26.2275
 26.1687
 26.227
 26.1723
 26.7547
 26.7919
 26.7327
 26.741
 24.8423
 24.7743
 24.7376
 24.8444
 24.6915
 24.6721
 24.6395
 24.6169
 25.7152
 25.6416
 25.7578
 25.718
 26.2974
 26.3123
 26.2758
 26.3428
 25.2571
 25.237
 25.2024
 25.2617
 26.7936
 26.9119
 26.8685
 26.8701
 26.805
 26.8638
 26.8816
 26.812
 27.6655
 27.7176
 27.66
 27.6647
 25.5564
 25.4799
 25.5311
 25.4751
 26.4192
 26.3601
 26.3483
 26.4136
 26.5365
 26.5809
 26.5005
 26.5103
 24.5776
 24.5045
 24.5299
 24.4945
 26.6778
 26.7146
 26.7647
 26.6971
 26.5526
 26.5822
 26.6177
 26.554
 26.4409
 26.3982
 26.45
 26.4955
 25.9195
 25.9259
 25.8791
 25.8829
 26.5015
 26.4329
 26.4837
 26.4604
 26.262
 26.2323
 26.2147
 26.2429
 25.9977
 26.0135
 26.0404
 26.0561
 26.6306
 26.7077
 26.6181
 26.7074
 27.8158
 27.8148
 27.7464
 27.7526
 26.7734
 26.7563
 26.7122
 26.7434
 25.4931
 25.5471
 25.4841
 25.5707
 25.4926
 25.5268
 25.4788
 25.5445
 25.2019
 25.259
 25.2552
 25.2176
 26.9325
 26.9444
 26.9268
 26.8977
 24.4277
 24.441
 24.4954
 24.3959
 25.3055
 25.2518
 25.3195
 25.295
 26.9156
 26.9079
 26.9665
 26.9896
 26.2407
 26.2488
 26.2618
 26.1777
 26.563
 26.5209
 26.6149
 26.5774
 26.5501
 26.5783
 26.5802
 26.8857
 26.8967
 26.902
 26.9336
 25.3771
 25.4164
 25.4562
 25.3612
 26.0553
 25.9774
 26.0001
 26.0384
 25.4831
 25.42
 25.4835
 26.3319
 26.412
 26.3555
 26.3787
 25.9018
 25.8507
 25.8682
 25.933
 24.9205
 25.0214
 25.0125
 24.8929
 26.809
 26.8046
 26.724
 26.7565
 26.6109
 26.6571
 26.6971
 26.6477
 25.5555
 25.6218
 25.6298
 25.6056
 25.3187
 25.3557
 25.267
 25.272
 26.8814
 26.8559
 26.8845
 26.9279
 26.6432
 26.625
 26.5223
 26.5506
 26.0823
 26.0163
 25.9789
 26.0762
 24.7572
 24.7184
 24.7387
 24.7226
 25.5251
 25.4638
 25.4356
 25.4679
 25.8508
 25.9374
 25.8731
 25.8513
 27.5567
 27.6448
 27.5627
 27.5656
 25.9771
 26.0128
 25.9409
 25.9116
 24.921
 24.995
 24.922
 25.0077
 26.4752
 26.5652
 26.4418
 26.4596
 26.6725
 26.6587
 26.7215
 26.6823
 26.6409
 26.7023
 26.6946
 26.6763
 27.2129
 27.2216
 27.2189
 27.1832
 26.502
 26.5968
 26.5875
 26.5879
 25.5485
 25.5488
 25.5388
 25.5871
 26.9206
 26.8876
 26.867
 26.8493
 24.8576
 24.9155
 24.86
 24.8457
 26.8172
 26.8921
 26.892
 26.8213
 24.9574
 25.0487
 24.945
 25.0035
 26.0336
 26.0791
 26.0765
 26.046
 26.1399
 26.0777
 26.0651
 26.1164
 26.376
 26.3763
 26.2968
 26.3546
 26.501
 26.501
 26.5611
 26.5672
 24.5085
 24.4364
 24.418
 24.4282
 26.4491
 26.4972
 26.4469
 26.4863
 24.3142
 24.3789
 24.3384
 24.4309
 25.2715
 25.3019
 25.2242
 25.2816
 27.3929
 27.3289
 27.3375
 27.3936
 24.5872
 24.5953
 24.5535
 24.5317
 26.6901
 26.6317
 26.6906
 26.7447
 27.3129
 27.3693
 27.3949
 27.3158
 25.0939
 25.1164
 25.1486
 25.1224
 24.6264
 24.5471
 24.6065
 24.6411
 25.6673
 25.663
 25.68
 25.7053
 25.1617
 25.2314
 25.1503
 25.2285
 26.5981
 26.671
 26.626
 26.6537
 25.5644
 25.5936
 25.572
 25.5223
 26.2032
 26.206
 26.1603
 26.1563
 26.8391
 26.8038
 26.853
 26.8566
 27.0835
 27.0895
 27.107
 27.0375
 26.0002
 26.0187
 25.9651
 26.0392
 25.8562
 25.8747
 25.8832
 25.9275
 26.6466
 26.6531
 26.5961
 26.6001
 26.615
 26.7096
 26.6295
 26.6326
 25.4661
 25.4425
 25.484
 25.5008
 24.6717
 24.728
 24.6296
 24.6104
 24.7936
 24.8253
 24.7796
 24.7569
 24.8293
 24.8948
 24.8771
 24.8427
 25.3097
 25.3432
 25.2823
 25.3394
 26.6075
 26.6967
 26.6331
 26.6552
 26.573
 26.5285
 26.5126
 26.5025
 25.8237
 25.8694
 25.9198
 25.9402
 25.3359
 25.3673
 25.2897
 25.3353
 25.3444
 25.3754
 25.3466
 25.3021
 25.7066
 25.7614
 25.7175
 25.7055
 25.5035
 25.4495
 25.5117
 25.5051
 26.9738
 26.9863
 26.952
 26.8909
 28.0339
 28.0884
 28.021
 28.0959
 26.4656
 26.4753
 26.5362
 26.5008
 27.8655
 27.7963
 27.8064
 26.4993
 26.5116
 26.4685
 26.5277
 24.8265
 24.8682
 24.8375
 24.878
 25.7566
 25.7323
 25.7125
 25.667
 24.7461
 24.7787
 24.7182
 24.794
 26.6418
 26.634
 26.7081
 26.6566
 25.3475
 25.3423
 25.2376
 25.2652
 25.6966
 25.7217
 25.7837
 25.729
 24.5266
 24.4831
 24.4723
 24.5941
 25.0889
 25.1047
 25.0784
 25.0251
 26.4329
 26.3766
 26.415
 26.4336
 25.3046
 25.3097
 25.3681
 25.2901
 24.9928
 25.0817
 25.0414
 25.0663
 27.298
 27.3711
 27.3624
 27.3651
 25.7728
 25.7533
 25.7139
 25.7061
 24.9581
 24.9365
 24.9369
 24.9982
 25.4972
 25.4454
 25.5367
 25.4104
 24.9525
 25.0215
 24.9486
 24.9487
 26.566
 26.5067
 26.474
 26.4966
 25.0682
 24.9669
 25.0819
 24.9866
 26.0552
 26.0233
 26.1144
 26.0552
 25.9371
 25.9121
 25.8776
 25.9471
 25.0906
 25.1217
 25.1602
 25.0602
 24.3529
 24.4054
 24.4065
 24.3689
 27.0236
 26.9917
 26.9529
 26.9308
 26.2826
 26.2271
 26.1992
 26.269
 25.5265
 25.5706
 25.5897
 25.5731
 25.1396
 25.0925
 25.1134
 25.0835
 26.4309
 26.4961
 26.4653
 26.4557
 26.8673
 26.809
 26.7759
 26.857
 25.2827
 25.2783
 25.3601
 25.349
 25.3977
 25.3489
 25.4035
 25.3776
 24.5877
 24.526
 24.4737
 24.5806
 26.7178
 26.6385
 26.7319
 26.6808
 24.6709
 24.6025
 24.6116
 24.6595
 26.3077
 26.2536
 26.3103
 26.3282
 27.9842
 27.9922
 27.9481
 27.9351
 24.8432
 24.8234
 24.7702
 24.81
 25.4156
 25.3825
 25.4498
 25.4995
 24.9121
 24.9013
 24.9448
 24.945
 25.8824
 25.9579
 25.9225
 25.8825
 26.0335
 26.0106
 25.998
 26.0297
 25.1599
 25.2334
 25.2313
 25.2019
 26.6197
 26.592
 26.6539
 26.6068
 26.769
 26.7376
 26.7254
 26.7662
 27.6302
 27.6596
 27.6853
 27.6992
 25.6465
 25.6106
 25.5815
 25.5607
 25.8351
 25.8563
 25.7541
 25.8269
 25.5307
 25.6297
 25.5457
 25.5105
 26.2486
 26.1654
 26.1558
 26.2602
 24.6233
 24.6182
 24.5839
 24.6968
 24.6075
 24.5121
 24.608
 24.6214
 25.463
 25.441
 25.391
 25.3838
 28.499
 28.5196
 28.4833
 28.4198
 26.0134
 26.0464
 26.0051
 26.0858
 25.9892
 26.0007
 26.0743
 26.0017
 26.0204
 26.001
 26.0851
 26.0767
 25.1
 25.1245
 25.0452
 25.1308
 27.489
 27.4104
 27.5244
 27.4922
 27.6144
 27.639
 27.6654
 27.7195
 25.0112
 25.0562
 25.0167
 25.085
 26.3584
 26.2817
 26.3878
 26.3014
 26.1641
 26.1775
 26.1531
 26.1497
 25.3627
 25.3861
 25.4161
 25.4636
 26.6948
 26.6582
 26.6356
 26.669
 25.0657
 25.1127
 25.1016
 25.0533
 26.2488
 26.3557
 26.3071
 26.3901
 26.3199
 26.3134
 26.3712
 26.3412
 26.8696
 26.9089
 26.8494
 26.9229
 26.0903
 26.021
 26.0502
 26.0019
 24.9678
 24.9385
 24.9459
 24.9853
 25.345
 25.2824
 25.2567
 25.3141
 26.6804
 26.6857
 26.6326
 26.6434
 26.4753
 26.402
 26.4022
 26.4733
 24.8002
 24.7731
 24.7281
 24.7603
 25.1222
 25.1783
 25.1476
 25.1586
 25.959
 25.9819
 26.0188
 25.9799
 26.9645
 26.9481
 26.9497
 26.927
 27.2053
 27.122
 27.1492
 27.2102
 25.4428
 25.5155
 25.5416
 25.4874
 26.8117
 26.8721
 26.8114
 26.9299
 24.8567
 24.9339
 24.9277
 24.8637
 25.5692
 25.4835
 25.5299
 25.5773
 25.1041
 25.1269
 25.1528
 25.1083
 25.3035
 25.38
 25.3708
 25.3245
 26.0192
 26.0553
 26.0136
 25.9743
 26.5599
 26.6686
 26.6465
 26.5944
 27.1062
 27.0095
 27.0838
 27.0925
 26.8929
 26.975
 26.8877
 26.9024
 26.5763
 26.6391
 26.6495
 26.6
 25.9599
 25.9362
 25.9298
 26.0442
 25.9669
 25.9071
 25.9401
 25.9781
 25.9059
 25.9577
 25.8679
 25.9217
 25.5071
 25.5397
 25.4774
 25.4885
 27.4085
 27.4843
 27.4251
 27.4287
 25.7416
 25.7221
 25.7502
 25.6862
 26.6946
 26.7574
 26.7269
 26.7128
 26.1752
 26.1019
 26.1524
 26.114
 24.6839
 24.7929
 24.7036
 24.7391
 25.9107
 25.9397
 25.9399
 25.9722
 26.8075
 26.8405
 26.8194
 26.8921
 26.1412
 26.1609
 26.1099
 26.0776
 26.5397
 26.5018
 26.5056
 26.5632
 25.9838
 26.0626
 25.9902
 26.0549
 27.3295
 27.3853
 27.363
 27.3016
 26.1821
 26.1722
 26.1326
 26.1249
 25.432
 25.4504
 25.4009
 25.4548
 25.4765
 25.4694
 25.4474
 25.4644
 24.7429
 24.8631
 24.7706
 24.814
 26.4088
 26.416
 26.3532
 26.3979
 26.579
 26.5362
 26.5922
 26.4748
 24.6913
 24.7885
 24.7034
 24.7226
 26.565
 26.5701
 26.5071
 26.5622
 24.9989
 25.0183
 24.949
 25.0292
 25.7291
 25.6438
 25.6923
 25.6487
 25.974
 26.0631
 25.9768
 25.9668
 26.5969
 26.5298
 26.5377
 26.5976
 25.9931
 25.9853
 25.9054
 25.9808
 24.988
 25.0016
 24.9761
 24.9707
 28.0743
 28.0374
 28.0063
 28.1196
 26.995
 27.0107
 27.0111
 26.9907
 26.9204
 26.8992
 26.9219
 26.9703
 26.3366
 26.3062
 26.37
 26.2845
 26.1831
 26.2326
 26.1962
 26.2249
 26.433
 26.4786
 26.4932
 26.435
 24.5637
 24.5925
 24.4912
 24.6002
 26.6224
 26.6644
 26.6602
 26.5761
 25.5433
 25.5495
 25.5248
 25.5955
 25.9045
 25.0544
 25.1208
 25.119
 25.1384
 25.6008
 25.5447
 25.4998
 25.5464
 27.0412
 27.0117
 27.001
 27.0284
 26.2784
 26.3046
 26.2549
 26.2171
 26.4576
 26.5298
 26.4879
 26.4942
 24.9294
 24.9993
 24.9841
 24.9758
 26.1387
 26.2279
 26.1662
 26.1838
 24.8403
 24.8326
 24.8978
 24.8912
 25.3384
 25.3019
 25.3635
 25.2845
 27.0341
 26.9936
 27.0161
 26.9384
 26.6101
 26.6743
 26.5644
 26.6144
 25.5301
 25.4866
 25.4768
 25.5192
 25.9813
 26.0544
 25.9627
 26.8883
 26.9196
 26.8826
 26.8623
 25.4453
 25.5579
 25.4772
 25.5292
 26.4988
 26.5881
 26.5631
 26.544
 26.0053
 26.0944
 26.0456
 25.9994
 24.8149
 24.8157
 24.9152
 24.8335
 26.3444
 26.3705
 26.4077
 26.3575
 25.0872
 25.177
 25.1113
 25.082
 25.8776
 25.9248
 25.8822
 25.9534
 25.1793
 25.22
 25.2739
 25.2374
 24.8959
 24.8952
 24.8186
 24.8556
 26.2896
 26.2996
 26.2482
 26.2524
 27.9858
 27.8934
 27.8872
 27.8495
 24.4473
 24.4877
 24.4983
 24.4992
 25.4765
 25.5161
 25.5279
 25.4853
 26.7244
 26.7295
 26.6112
 26.7022
 26.1621
 26.1083
 26.1038
 26.1643
 27.2972
 27.2774
 27.3
 27.3484
 24.8652
 24.8147
 24.7371
 24.7957
 26.9183
 26.9643
 26.9379
 26.9281
 25.6576
 25.5986
 25.6829
 25.6391
 26.6476
 26.7621
 26.6712
 26.6755
 24.4039
 24.4159
 24.4115
 24.4829
 24.5059
 24.5187
 24.5674
 24.6039
 25.2606
 25.3171
 25.3414
 25.2383
 25.6244
 25.6111
 25.6272
 25.6809
 25.6224
 26.7653
 26.7583
 26.8248
 26.7833
 26.6837
 26.7094
 26.7335
 26.6702
 25.4166
 25.3612
 25.3572
 25.348
 26.8011
 26.7418
 26.7474
 26.8038
 26.5557
 26.5864
 26.5886
 26.5288
 25.2902
 25.264
 25.2704
 25.3388
 26.2629
 26.1838
 26.2599
 26.1893
 25.4205
 25.4153
 25.4166
 25.3637
 26.5007
 26.5091
 26.5605
 26.5253
 26.3533
 26.3165
 26.2993
 26.2932
 26.0555
 25.9925
 26.0757
 26.0161
 25.6576
 25.5867
 25.6216
 25.5554
 25.1361
 25.1688
 25.0696
 25.0909
 25.6986
 25.7155
 25.7502
 25.7409
 25.731
 25.6893
 25.6827
 25.6905
 27.0854
 27.0863
 27.0427
 27.0199
 25.5221
 25.5228
 25.4843
 25.5142
 25.9342
 25.9234
 25.8846
 25.9282
 25.8349
 25.8469
 25.8855
 25.8525
 26.2979
 26.2888
 26.348
 26.3056
 26.8659
 26.8772
 26.8354
 26.9349
 25.2448
 25.2717
 25.2412
 25.2098
 26.8401
 26.887
 26.8657
 26.7999
 24.5895
 24.5934
 24.5002
 24.5576
 25.1449
 25.1935
 25.1147
 25.1446
 25.1326
 25.1204
 25.1097
 25.1389
 24.9781
 25.0128
 25.0171
 24.9414
 25.3358
 25.3094
 25.3672
 25.3117
 27.3151
 27.3526
 27.4182
 25.7576
 25.8438
 25.7713
 25.7772
 25.1719
 25.2066
 25.223
 25.1865
 26.3036
 26.3717
 26.3366
 26.3189
 26.5351
 26.5041
 26.5622
 26.499
 25.3296
 25.3163
 25.2761
 25.3822
 26.0628
 26.0831
 26.0633
 25.9986
 26.4745
 26.4662
 26.5046
 26.5057
 24.5975
 24.5059
 25.5287
 25.5362
 25.602
 25.5923
 26.0303
 26.0538
 26.0859
 25.7263
 25.7046
 25.7107
 25.7773
 27.1072
 27.146
 27.07
 27.0795
 25.0882
 25.0455
 25.0436
 25.1202
 25.7467
 25.7626
 25.7996
 25.7898
 26.311
 26.3615
 26.3257
 26.2736
 25.7744
 25.8349
 25.8165
 25.7857
 26.8591
 26.8903
 26.8312
 26.8539
 26.9884
 26.8802
 26.9586
 26.9355
 26.049
 26.0024
 25.9744
 26.014
 26.767
 26.7747
 26.7867
 26.7302
 25.9587
 25.9919
 25.9773
 26.0014
 24.9992
 25.0179
 25.0866
 25.0943
 26.748
 26.7128
 26.6807
 26.7235
 27.615
 27.5483
 27.5569
 27.5256
 25.5554
 25.6722
 25.6082
 25.5671
 26.1228
 26.0789
 26.139
 26.0814
 26.8239
 26.84
 26.7694
 26.7881
 26.03
 26.0613
 25.9965
 26.0062
 24.9013
 24.9251
 24.8885
 24.8995
 26.5921
 26.6003
 26.6347
 26.6079
 25.6504
 25.6752
 25.6746
 25.7046
 26.1977
 26.1174
 26.1664
 26.0811
 25.3627
 25.3158
 25.3174
 25.2757
 25.0569
 25.0546
 25.0233
 25.084
 26.7153
 26.665
 26.6993
 26.606
 26.3586
 26.3102
 26.3234
 26.3392
 25.6348
 25.6412
 25.7248
 25.6669
 26.8535
 26.8289
 26.837
 26.8153
 28.0232
 28.1021
 28.0938
 28.055
 25.7926
 25.8429
 25.8551
 25.8501
 28.1825
 28.202
 28.1483
 28.1011
 28.0517
 27.9749
 27.9629
 27.9917
 27.1153
 27.0737
 27.0736
 27.1341
 25.5173
 25.5579
 25.5981
 25.6155
 25.5525
 25.4931
 25.4945
 25.4497
 25.4482
 25.5065
 25.4631
 25.5304
 25.5841
 25.6486
 25.6351
 25.5591
 27.355
 27.4121
 27.3694
 27.4023
 26.7329
 26.771
 26.696
 26.7199
 26.7166
 26.8188
 26.8098
 26.7699
 26.2331
 26.1648
 26.2304
 26.154
 25.7034
 25.7423
 25.7033
 25.7277
 25.3786
 25.3785
 25.4086
 25.3517
 26.6473
 26.5813
 26.571
 26.6366
 25.4934
 26.064
 26.0276
 26.0185
 26.0568
 24.4969
 24.4861
 24.4058
 24.4546
 26.1205
 26.1226
 26.0737
 26.1181
 24.9086
 24.837
 24.8906
 26.7991
 26.752
 26.7346
 26.8138
 27.8889
 27.8282
 27.8334
 27.8007
 25.9729
 25.9814
 25.9135
 26.0159
 26.3045
 26.3768
 26.3712
 26.3733
 26.8018
 26.7465
 26.7144
 26.7054
 26.6957
 26.669
 26.7312
 26.6642
 27.1553
 27.2688
 27.2017
 27.2104
 25.6723
 25.6789
 25.6331
 25.5521
 26.0083
 25.9476
 26.017
 25.9764
 26.462
 26.5021
 26.4566
 26.472
 26.0645
 26.1181
 25.9912
 25.2127
 25.2537
 25.2669
 26.5856
 26.5798
 26.6536
 26.6636
 27.2237
 27.2591
 27.2576
 27.2299
 26.4421
 26.4061
 26.4018
 26.4577
 27.1314
 27.1912
 27.1118
 27.2171
 25.2495
 25.1498
 25.2221
 25.2061
 25.252
 25.2314
 25.2102
 25.1748
 26.8632
 26.8923
 26.8791
 26.8914
 27.2178
 27.3083
 27.2565
 27.2329
 25.7936
 25.8732
 25.809
 25.8451
 24.67
 24.7234
 24.6296
 24.7078
 27.2022
 27.2016
 27.2443
 27.196
 25.4725
 25.5363
 25.5365
 25.4602
 27.6489
 27.6852
 27.6294
 27.6607
 25.3647
 25.3173
 25.3841
 25.2686
 26.2125
 26.2617
 26.1853
 26.2839
 25.2514
 25.2505
 25.1809
 25.1923
 26.7951
 26.7744
 26.7553
 26.6957
 26.3071
 26.3584
 26.3478
 26.3582
 26.5256
 26.5494
 26.4895
 26.4862
 26.515
 26.549
 26.4766
 26.559
 25.8056
 25.7673
 25.781
 25.8341
 26.0987
 26.1531
 26.0939
 26.0963
 25.1616
 25.2255
 25.2452
 25.2068
 24.5649
 24.5068
 24.637
 24.6501
 26.1339
 26.1407
 26.1872
 26.1456
 25.0064
 25.0271
 25.0571
 24.9654
 25.4004
 25.309
 25.2838
 25.3207
 27.3711
 27.4164
 27.4788
 27.3938
 26.8509
 26.7408
 26.7593
 26.7961
 26.2179
 26.2647
 26.2817
 26.2503
 27.159
 27.2134
 27.2255
 27.2548
 25.7331
 25.6635
 25.6742
 25.7086
 25.2459
 25.1371
 25.1968
 25.1788
 27.115
 27.0317
 27.1097
 27.1157
 26.0176
 25.9679
 26.008
 25.9938
 26.4637
 26.4759
 26.4748
 26.5079
 27.9772
 27.9304
 27.8933
 27.9543
 26.3337
 26.345
 26.3472
 26.2944
 25.9908
 25.9537
 25.9661
 25.9423
 25.4668
 25.416
 25.4518
 25.3963
 26.5594
 26.5427
 26.5341
 25.9763
 25.9863
 26.002
 25.991
 26.374
 26.4168
 26.2953
 26.3618
 25.5429
 25.6011
 25.5452
 25.5798
 25.5062
 25.4265
 25.4669
 25.456
 24.8829
 24.9252
 24.8955
 24.9743
 26.6765
 26.6928
 26.6386
 26.6982
 24.6641
 24.6495
 24.6242
 24.6512
 26.5634
 26.5099
 26.5578
 26.5896
 26.0143
 25.9481
 25.956
 25.9215
 25.9421
 26.006
 25.9854
 26.0222
 28.1069
 28.1721
 28.1038
 28.1324
 26.3672
 26.4068
 26.3622
 26.3499
 26.018
 26.0416
 25.9765
 25.9073
 26.0536
 26.0379
 26.0235
 26.1072
 24.4516
 24.4579
 24.5262
 24.4903
 26.5716
 26.5044
 26.4658
 26.5518
 26.4898
 26.5287
 26.4581
 26.5434
 25.4053
 25.3322
 25.3852
 25.3612
 26.7248
 26.7415
 26.7786
 26.7896
 26.7876
 26.8024
 26.7633
 26.8123
 25.5358
 25.6154
 25.542
 25.5974
 25.5418
 25.5332
 25.5897
 25.5335
 25.8678
 25.8588
 25.7693
 25.8063
 26.5078
 26.539
 25.6989
 25.7433
 25.6712
 25.7294
 26.5067
 26.4684
 26.5132
 26.4882
 26.1889
 26.1255
 26.1012
 26.1188
 24.888
 24.9293
 24.9538
 24.887
 26.1071
 26.0893
 26.0582
 26.0456
 25.3093
 25.2732
 25.2503
 25.329
 26.6189
 26.5219
 26.5551
 26.5303
 26.2907
 26.3484
 26.3547
 26.3326
 26.0433
 25.9255
 25.9823
 25.9879
 26.7369
 26.7894
 26.8096
 26.7629
 27.5512
 27.4955
 27.5454
 27.573
 24.7775
 24.7899
 24.8261
 24.7992
 27.1333
 27.1295
 27.1041
 27.1572
 25.6883
 25.6665
 25.7296
 25.7282
 27.5397
 27.5192
 27.519
 27.5922
 25.7182
 25.6572
 25.6944
 25.7018
 26.5767
 26.5862
 26.6106
 26.5914
 26.5858
 26.567
 26.627
 26.591
 25.8198
 25.7982
 25.8648
 25.8322
 25.1138
 25.1742
 25.1153
 25.1875
 26.3042
 26.214
 26.2284
 26.2295
 26.8797
 26.9069
 26.8763
 26.8425
 25.114
 25.0243
 25.0653
 25.0024
 26.5543
 26.5665
 26.5045
 26.49
 26.2578
 26.1937
 26.2188
 26.1754
 25.3612
 25.2388
 25.2714
 25.305
 25.8941
 25.8375
 25.817
 25.8154
 26.0693
 26.084
 26.0579
 26.0206
 24.8663
 24.8324
 24.7904
 24.7676
 25.137
 25.1052
 25.1176
 25.1454
 25.7831
 25.7685
 25.8473
 25.8183
 26.1045
 26.071
 26.1336
 26.0052
 26.4169
 26.3963
 26.3967
 26.3147
 26.8899
 26.8908
 26.9486
 25.263
 25.2387
 25.232
 25.1957
 27.5469
 27.5854
 27.6701
 27.6291
 25.4298
 25.5046
 25.4645
 25.487
 26.6688
 26.7531
 26.7058
 26.6986
 26.8174
 26.8858
 26.8591
 26.8702
 24.9758
 25.0387
 25.0061
 24.9251
 25.9234
 25.9585
 25.9075
 25.9485
 26.0176
 26.0383
 26.5215
 26.1571
 26.0952
 26.1784
 26.131
 27.5807
 27.5174
 25.5402
 25.5212
 25.5032
 26.9465
 26.9264
 27.0009
 26.9543
 25.4749
 25.5428
 25.5206
 25.5147
 26.2307
 26.1743
 26.1905
 26.2015
 26.5275
 26.4371
 26.4903
 26.4788
 24.9541
 24.9542
 24.8787
 24.9287
 26.9664
 26.908
 26.9783
 26.9064
 25.6349
 25.6391
 25.6127
 25.5797
 24.7589
 24.7498
 24.8285
 24.8273
 25.9477
 26.0131
 25.9664
 26.006
 25.5845
 25.6825
 25.6535
 25.653
 26.0601
 26.016
 26.0627
 26.1532
 24.492
 24.6155
 24.5103
 24.6132
 24.6145
 24.6019
 24.638
 24.7018
 24.7364
 24.7772
 24.7877
 24.7322
 26.1841
 26.2348
 26.1752
 26.1846
 25.7428
 25.824
 25.7912
 25.7589
 26.0876
 26.0923
 26.1386
 26.1024
 26.2585
 26.2628
 26.1978
 26.2801
 25.4926
 25.4774
 25.469
 25.5431
 25.1343
 25.0695
 25.1046
 25.0552
 25.0895
 25.0643
 25.1236
 25.0248
 25.8765
 25.8483
 25.8948
 25.8491
 26.0774
 26.0737
 26.0965
 26.1252
 26.5953
 26.6228
 26.6085
 26.5365
 25.3191
 25.2676
 25.2604
 25.34
 27.0885
 27.079
 27.1524
 27.0975
 25.2992
 25.2675
 25.2976
 25.3019
 25.8497
 25.7528
 25.8405
 25.7727
 25.866
 25.865
 25.8495
 25.9271
 26.9247
 26.9191
 26.9415
 27.0037
 28.2454
 28.1872
 28.2856
 28.2712
 26.3499
 26.2889
 26.3506
 26.3358
 25.2666
 25.3273
 25.2885
 25.2616
 26.7962
 26.8606
 26.8103
 26.7758
 25.7294
 25.692
 25.7714
 25.6994
 25.6884
 25.6444
 25.5866
 25.6048
 25.3898
 25.3575
 25.4471
 25.4233
 27.2527
 27.272
 27.287
 27.2261
 27.2349
 27.2178
 27.254
 27.2696
 25.2258
 25.1366
 25.1569
 25.1859
 25.4939
 25.5795
 25.6096
 25.5482
 26.4142
 26.4033
 26.4413
 26.4424
 26.019
 26.0348
 25.9788
 25.9498
 25.8892
 25.8678
 25.8719
 25.9133
 26.4021
 26.455
 26.3497
 26.4362
 25.6063
 25.6569
 25.6237
 25.6751
 24.223
 24.322
 24.2528
 24.2374
 25.7041
 25.6193
 25.6328
 25.5948
 26.0265
 26.0037
 26.0438
 25.971
 26.0018
 26.0036
 26.0545
 26.0106
 25.8504
 25.8058
 25.8414
 25.8934
 24.6813
 24.6792
 24.7341
 24.6906
 25.1758
 25.2358
 25.2038
 25.6337
 25.6238
 25.5998
 25.6388
 26.8919
 26.9035
 26.8311
 26.9005
 26.1913
 26.1956
 26.2419
 26.1705
 25.111
 25.1976
 25.2345
 25.1919
 26.5935
 26.5629
 26.5562
 26.5262
 26.3298
 26.3691
 26.3729
 26.3103
 26.2341
 26.271
 26.3347
 26.2667
 25.5016
 25.5513
 25.567
 25.5514
 25.831
 25.8793
 25.8277
 25.9313
 25.6297
 25.7322
 25.6946
 25.6753
 26.7509
 26.713
 26.7101
 26.7365
 26.2891
 26.2511
 26.2371
 26.2954
 25.5487
 25.591
 25.5355
 25.4796
 26.3021
 26.2788
 26.2415
 26.3308
 25.6871
 25.6179
 25.6237
 25.6517
 26.7795
 26.8036
 26.7623
 26.8139
 24.8345
 24.8205
 24.8877
 24.8354
 26.6105
 26.6469
 26.5843
 26.5623
 26.6615
 26.7825
 26.709
 26.709
 25.355
 25.3464
 25.3016
 25.2903
 26.642
 26.6302
 26.6156
 26.6176
 25.6826
 25.7177
 25.6861
 25.7482
 26.9339
 26.9383
 27.0067
 26.9978
 25.8426
 25.8733
 25.8612
 25.8037
 24.9106
 24.8073
 24.8884
 24.8346
 25.8026
 25.8935
 25.8909
 25.856
 25.4338
 25.4099
 25.4256
 25.4382
 25.6888
 25.7098
 25.6836
 25.6623
 25.6855
 25.6722
 25.6431
 25.6021
 24.7306
 24.7087
 24.6858
 24.7872
 26.7285
 26.7599
 26.8038
 26.8003
 26.6428
 26.6735
 26.7358
 26.6798
 25.0291
 25.0174
 25.0624
 24.9709
 24.955
 24.9191
 24.9588
 26.4428
 26.4741
 26.4757
 26.4256
 25.7186
 25.6514
 25.702
 25.7114
 25.7062
 25.689
 25.7499
 25.6806
 26.674
 26.6171
 26.7051
 26.6573
 25.3963
 25.3551
 25.3682
 25.351
 26.064
 26.1273
 26.1209
 26.0533
 25.8343
 25.9055
 25.8899
 25.92
 25.3414
 25.2975
 25.282
 25.2946
 26.9462
 26.9727
 26.9414
 26.9079
 26.4532
 26.5275
 26.5205
 26.5033
 24.6896
 24.793
 24.7143
 24.7402
 26.72
 26.7318
 26.7107
 26.6193
 26.9469
 26.9797
 26.9622
 26.9584
 26.0478
 26.0204
 26.0522
 25.9717
 27.5695
 27.5506
 27.5873
 27.5079
 25.9436
 25.9291
 25.9593
 25.9377
 25.3003
 25.3383
 25.3548
 25.3641
 25.1067
 25.1455
 25.1299
 26.9947
 26.9863
 26.9756
 26.9977
 26.5774
 26.5077
 26.5911
 26.5228
 26.6431
 26.6637
 26.6796
 26.7172
 26.5067
 26.561
 26.5224
 26.5482
 24.6454
 24.5952
 24.5715
 24.5909
 26.8827
 26.8731
 26.9003
 26.9376
 26.5401
 26.592
 26.5497
 26.4866
 25.1705
 25.1426
 25.1759
 25.2036
 26.3054
 26.3308
 26.2898
 26.4584
 26.5417
 26.494
 25.7557
 25.827
 25.8671
 27.4498
 27.3814
 27.3699
 27.4245
 25.9354
 25.9064
 25.9406
 25.8819
 25.9254
 25.8976
 25.981
 25.9579
 24.9972
 24.962
 25.0307
 25.0438
 24.865
 24.8927
 24.7786
 24.8827
 26.7126
 26.7546
 26.7605
 26.6656
 25.7975
 25.7233
 25.7325
 25.7286
 25.7366
 25.6909
 25.6631
 25.6858
 26.0464
 25.971
 26.0031
 25.9494
 26.3535
 26.3209
 26.3203
 26.3939
 25.8034
 25.8541
 25.8346
 25.7853
 26.7297
 26.7138
 26.7439
 26.6967
 24.9953
 25.0191
 24.9901
 24.9707
 26.5441
 26.551
 26.5134
 26.4939
 25.0895
 25.1548
 25.1252
 25.0819
 24.8179
 24.8596
 24.8912
 24.8276
 24.9374
 24.9619
 24.9559
 24.9734
 26.5907
 26.6339
 25.483
 25.4885
 25.5376
 25.5104
 26.6848
 26.6132
 26.6459
 26.6725
 25.303
 25.1991
 25.2374
 25.2143
 25.0651
 25.1369
 25.047
 25.1246
 26.3727
 26.3424
 26.3269
 26.361
 25.8385
 25.8364
 25.7861
 25.8174
 26.4935
 26.4878
 26.4441
 26.4874
 26.1637
 26.1546
 26.1502
 26.0921
 27.8928
 27.7912
 27.906
 27.8119
 24.9148
 24.9493
 24.8648
 24.9346
 26.4663
 26.5427
 26.4602
 26.4528
 26.9609
 27.0171
 27.0119
 26.9451
 26.0977
 26.1196
 26.0651
 26.0327
 26.913
 27.0122
 27.0123
 26.9277
 26.181
 26.2487
 26.2595
 26.2152
 25.4602
 25.4831
 25.4082
 25.5016
 25.9773
 26.0171
 26.0195
 25.9935
 24.9997
 24.8942
 25.0013
 26.0983
 26.0337
 26.1417
 26.0601
 27.9416
 27.9666
 27.969
 28.0053
 24.5716
 24.5438
 24.5227
 24.5807
 25.8969
 25.9008
 25.866
 25.9089
 25.3432
 25.3873
 25.4365
 25.3746
 26.7537
 26.6992
 26.83
 26.7747
 26.326
 26.2839
 26.3891
 26.3393
 26.3634
 26.2735
 26.3123
 26.2735
 24.9089
 24.9493
 24.8938
 24.8583
 26.2641
 26.3142
 26.3494
 26.3314
 24.5975
 24.6172
 24.5815
 24.6532
 25.476
 25.5401
 25.5419
 25.4701
 26.7036
 26.6874
 26.6655
 26.7
 27.5872
 27.5842
 27.5297
 27.6143
 26.1609
 26.2459
 26.1992
 26.2574
 25.9573
 25.962
 25.9081
 25.977
 25.3745
 25.3854
 25.4131
 25.4708
 27.8134
 27.862
 27.7774
 27.8348
 26.1343
 26.1832
 26.1014
 26.1196
 24.7206
 24.755
 24.7745
 24.7566
 25.2353
 25.1736
 25.1965
 25.2163
 25.1608
 25.1836
 25.1205
 25.2004
 25.1612
 25.2174
 25.229
 25.2051
 25.1804
 25.1025
 25.1534
 25.1566
 25.7172
 25.694
 25.7204
 25.7203
 26.6579
 26.5354
 26.4731
 26.4603
 26.5022
 25.5738
 25.6605
 25.6303
 25.6207
 25.5886
 25.5685
 25.6458
 25.6438
 27.231
 27.195
 27.192
 27.2296
 25.0658
 25.0698
 25.1021
 25.0741
 25.3239
 25.2775
 25.217
 25.257
 26.7424
 26.6443
 26.6641
 26.5637
 26.5649
 26.5813
 26.5306
 26.489
 26.5015
 26.4633
 26.6126
 26.6814
 26.7674
 26.7211
 25.5704
 25.5054
 25.5208
 25.5896
 24.7352
 24.7199
 24.7555
 24.7187
 25.9854
 26.0119
 25.9704
 26.0421
 24.8458
 24.9496
 24.9724
 24.9844
 26.1253
 26.1438
 26.1644
 26.0989
 25.5364
 25.5949
 25.6286
 25.6184
 26.6278
 26.6373
 26.6553
 26.696
 25.8135
 25.7388
 25.8357
 25.7733
 25.7195
 25.6512
 25.6149
 25.7179
 26.6076
 26.6375
 26.691
 26.6663
 26.3015
 26.3403
 26.226
 26.2603
 26.0941
 26.1028
 26.1507
 26.1915
 25.751
 25.728
 25.7533
 25.7216
 27.0396
 27.045
 27.0234
 26.9673
 25.5809
 25.6475
 25.6183
 25.5685
 26.3206
 26.3959
 26.3094
 26.2792
 25.4894
 25.4983
 25.4891
 25.5287
 24.9537
 25.0135
 24.9677
 24.9904
 24.8563
 24.9037
 24.8922
 24.8753
 24.8483
 24.8085
 24.9144
 24.5872
 24.5441
 24.5158
 24.4807
 25.1576
 25.2278
 25.2873
 25.2016
 25.9687
 25.9812
 25.9385
 25.9481
 24.7765
 24.8135
 24.8506
 24.7859
 25.9239
 25.9235
 25.957
 25.9643
 25.7039
 25.6694
 25.6854
 25.0158
 24.9494
 24.9863
 24.9905
 24.9923
 25.0652
 25.0342
 25.785
 25.7937
 25.7512
 25.7382
 26.3541
 26.3184
 26.3605
 26.2812
 25.5205
 25.5695
 25.5866
 25.5945
 24.8797
 24.8352
 24.8715
 24.8974
 26.5075
 26.5359
 26.5172
 26.5719
 26.0278
 26.0483
 26.0879
 26.1049
 25.9366
 25.844
 25.9263
 25.9343
 25.4197
 25.4842
 25.4464
 25.4473
 26.5751
 26.6239
 26.5425
 26.6096
 26.7853
 26.8433
 26.7796
 26.772
 26.0137
 26.0151
 26.0222
 25.9677
 24.5915
 24.6291
 24.6356
 24.6301
 26.4607
 26.5275
 26.4516
 26.4935
 26.702
 26.6622
 26.7353
 26.6564
 25.6241
 25.6993
 25.6204
 25.6367
 26.4848
 26.4427
 26.482
 26.7543
 26.6987
 26.7228
 25.7394
 25.7902
 25.6958
 25.7664
 26.6825
 26.7187
 26.7524
 26.6832
 26.7375
 26.8073
 26.7421
 26.7534
 25.5768
 25.5635
 25.5903
 26.5708
 26.5771
 25.0401
 25.0243
 24.9453
 24.933
 25.5236
 25.4426
 25.4451
 25.4653
 27.0939
 27.0496
 27.1302
 27.03
 27.4482
 27.3956
 27.4914
 27.4194
 26.4449
 26.5595
 26.4964
 26.481
 24.9874
 24.9897
 24.9508
 24.9774
 25.4787
 25.5242
 25.5484
 25.5271
 26.9781
 26.9888
 26.9973
 27.0059
 26.4855
 26.4847
 26.4456
 26.4428
 26.4962
 26.4713
 26.4825
 26.6536
 26.6092
 26.6053
 26.6083
 26.6071
 26.6598
 26.6077
 26.58
 26.7516
 26.8293
 26.7771
 26.8209
 24.8423
 24.7735
 24.828
 24.8139
 24.8025
 24.7462
 24.8456
 26.0198
 26.0606
 26.0106
 26.0749
 26.5038
 26.5856
 26.4931
 26.5111
 24.5835
 24.5274
 26.7602
 26.8113
 26.7936
 26.8318
 25.8439
 25.748
 25.8085
 25.7592
 25.6551
 25.6802
 26.6952
 26.697
 26.6418
 26.6903
 24.8035
 24.7538
 24.8274
 24.714
 24.6457
 24.6965
 24.6546
 24.5587
 26.1157
 26.0899
 26.1084
 27.2162
 27.1558
 27.1811
 26.5696
 26.4882
 26.5763
 26.5615
 25.3135
 25.3721
 25.2718
 25.3579
 26.3334
 26.3675
 26.3966
 26.4242
 26.424
 26.457
 26.4042
 26.4653
 25.5611
 25.5547
 25.5362
 25.4639
 27.7877
 27.7142
 27.7889
 27.8406
 25.3962
 25.391
 25.3275
 25.3338
 25.3836
 25.3896
 25.34
 25.323
 26.7903
 26.7786
 26.8719
 26.8076
 25.019
 24.9722
 24.9649
 25.0314
 27.912
 27.9782
 27.9994
 28.0438
 24.8463
 24.9553
 24.9567
 24.9484
 25.1023
 25.1729
 26.4471
 26.4003
 26.4083
 26.3674
 26.857
 26.9276
 26.8877
 26.8356
 25.0619
 25.0009
 25.0044
 25.0345
 26.3659
 26.3551
 26.3585
 26.394
 24.5659
 24.6037
 24.5817
 26.5322
 26.593
 26.5985
 26.947
 26.8702
 26.8479
 24.8897
 24.8459
 24.8711
 24.8978
 26.5217
 26.5656
 26.5697
 26.5538
 25.033
 25.0261
 26.9703
 26.9188
 26.969
 26.9477
 25.9707
 25.9031
 25.9118
 25.9456
 26.4868
 26.5041
 26.2408
 26.1312
 26.1341
 26.1962
 26.4053
 26.4095
 26.4037
 26.4743
 24.6374
 24.5822
 24.6785
 24.6555
 26.9016
 26.9368
 26.923
 25.2105
 27.8474
 27.8925
 27.8804
 27.9034
 25.0301
 25.0005
 24.9766
 25.0796
 26.4269
 26.4201
 26.3207
 26.3486
 25.3548
 25.395
 25.381
 25.3608
 26.4057
 26.4542
 26.481
 26.4215
 25.5739
 27.2246
 27.2506
 27.2521
 27.2164
 25.5431
 25.553
 25.5633
 25.6114
 25.1391
 25.1183
 25.0734
 25.1914
 25.1881
 25.2614
 25.1851
 25.0076
 24.9243
 24.9916
 24.9698
 26.7714
 26.7543
 26.6814
 26.7215
 24.9494
 24.9468
 24.9599
 24.8999
 26.9541
 26.9737
 26.9551
 27.0231
 25.0075
 24.9696
 24.9533
 24.9514
 26.0537
 26.0855
 26.094
 26.1068
 25.4038
 25.3689
 25.3472
 25.3337
 25.7641
 25.7945
 25.8123
 25.8276
 24.8006
 24.885
 25.9377
 25.9945
 25.9796
 25.9402
 27.1453
 27.1704
 27.0924
 27.169
 26.9551
 26.9809
 26.8949
 26.9698
 25.7791
 25.7319
 25.7147
 25.7152
 25.3686
 25.3723
 25.3763
 25.3021
 25.2361
 25.2951
 25.2568
 25.2235
 24.9471
 25.015
 25.0006
 25.0455
 25.2467
 25.1766
 25.2169
 25.2517
 26.9054
 26.9294
 26.8823
 26.9667
 26.689
 26.6904
 26.7053
 26.6215
 24.5332
 24.5895
 24.6164
 24.6072
 25.7344
 25.6926
 25.7192
 25.6264
 26.5853
 26.5031
 26.5698
 26.5432
 27.5832
 27.5892
 27.52
 27.6465
 25.0104
 24.9804
 25.0337
 24.9258
 26.5756
 26.5522
 26.5364
 26.4975
 26.1935
 26.145
 26.225
 26.1834
 27.0292
 27.0417
 27.0324
 26.9813
 25.6269
 25.6633
 25.6371
 25.6358
 24.8857
 24.88
 24.9075
 24.8858
 25.7037
 25.7945
 25.7593
 25.7738
 26.1547
 26.1209
 26.0766
 26.1104
 27.1097
 27.0712
 27.0393
 27.1316
 24.8602
 25.4656
 25.4237
 25.4956
 25.4186
 26.1518
 26.1817
 26.2343
 26.1933
 25.3011
 25.2671
 25.2819
 25.2201
 26.5579
 26.6363
 26.5868
 26.556
 25.6869
 25.6385
 25.7078
 27.1323
 27.0249
 27.1032
 27.0893
 25.1362
 25.244
 25.1804
 25.2121
 26.8576
 26.8708
 26.8188
 26.857
 24.325
 24.3585
 24.335
 24.2875
 26.6135
 26.6079
 26.5914
 26.6096
 27.4902
 27.3471
 27.3696
 27.4233
 27.1612
 27.169
 27.1187
 27.0993
 24.5526
 24.6032
 24.6205
 24.6525
 24.7938
 24.8027
 24.7727
 24.7614
 26.0262
 25.9759
 25.9951
 25.9642
 26.5347
 26.5677
 26.5293
 25.8774
 25.8813
 25.9567
 25.9304
 25.4999
 25.5393
 25.4523
 25.4702
 25.7974
 25.6886
 25.7254
 25.7418
 25.9232
 25.9111
 25.8096
 25.8565
 24.5058
 24.5529
 24.5555
 24.5816
 26.7208
 26.7433
 26.6527
 26.7195
 27.1169
 27.2026
 27.2068
 25.3426
 25.3778
 25.3818
 25.4227
 25.1081
 25.0505
 25.079
 25.0927
 26.5846
 26.5921
 26.5725
 26.691
 26.6782
 26.6437
 26.7344
 24.9381
 24.9738
 24.9042
 24.9996
 26.0378
 26.0536
 25.9915
 26.033
 26.6612
 26.7313
 26.6773
 26.6889
 26.1621
 26.1952
 26.1916
 26.1476
 25.1577
 25.1494
 25.2063
 25.1546
 26.5779
 26.501
 26.6148
 26.5253
 26.1037
 26.2027
 26.1901
 26.1335
 26.4073
 26.3305
 26.3847
 24.8272
 24.8398
 24.8729
 24.8912
 25.9664
 25.9748
 26.0059
 25.9347
 24.5104
 24.5422
 24.423
 25.8971
 25.8568
 25.8816
 25.897
 27.059
 27.0148
 27.0897
 27.0629
 25.7542
 25.7395
 25.7055
 25.6549
 25.9535
 25.868
 25.9747
 26.57
 26.5613
 26.493
 26.5023
 26.8959
 26.8794
 26.9233
 26.8546
 26.5735
 26.54
 26.5015
 26.5767
 27.5287
 27.5068
 27.4496
 27.4416
 26.2343
 26.2444
 26.2692
 26.2818
 26.4397
 26.4618
 26.3866
 26.477
 24.8433
 24.943
 24.9223
 24.816
 26.8564
 26.7784
 26.7955
 26.8208
 25.5857
 25.6046
 25.5702
 25.5383
 24.5855
 24.5673
 24.6034
 24.6397
 24.5735
 24.6692
 24.6246
 24.6098
 25.2153
 25.1803
 25.2039
 25.2056
 24.5879
 24.5063
 24.5156
 24.629
 24.896
 24.8954
 24.9024
 24.4872
 24.5908
 24.5649
 24.5662
 27.0731
 27.1071
 27.0714
 27.1358
 26.1688
 26.2559
 26.2621
 26.2439
 26.3742
 26.3102
 26.359
 26.3071
 26.3296
 26.3634
 26.3646
 26.3793
 24.8144
 24.8535
 24.7969
 24.785
 26.2465
 26.2411
 26.3055
 26.3067
 26.5604
 26.6266
 26.635
 26.5832
 25.3905
 25.4068
 25.3487
 25.4339
 26.485
 26.4371
 26.4911
 26.4241
 25.335
 25.3818
 25.4123
 25.8601
 25.7977
 25.7814
 24.9202
 24.9908
 25.0023
 24.9706
 26.1563
 26.13
 26.1772
 26.1756
 25.5665
 25.6204
 25.6001
 25.5459
 26.3483
 26.4256
 26.392
 26.3291
 24.4966
 24.544
 24.7328
 24.7566
 24.7778
 24.6917
 27.1169
 27.1434
 27.1374
 27.1832
 25.567
 25.5233
 25.5068
 25.4665
 26.5624
 26.5087
 26.578
 26.5969
 28.135
 28.2328
 28.1366
 28.1699
 26.5593
 26.5872
 26.6253
 26.5811
 25.3973
 25.4593
 25.3986
 26.8969
 26.9079
 26.8226
 26.8243
 24.6177
 24.6915
 24.6125
 24.6789
 26.5769
 26.5434
 26.5658
 26.5286
 25.6347
 25.5739
 25.5907
 25.6288
 26.9795
 26.9775
 27.0344
 26.9862
 27.7417
 27.6967
 27.7106
 27.6714
 26.6579
 26.6041
 26.6562
 26.6776
 26.2255
 26.2511
 26.2031
 25.7811
 25.885
 25.7907
 25.8325
 26.7658
 26.763
 26.8194
 25.2875
 25.317
 25.2694
 25.2325
 25.2261
 25.1433
 25.2292
 25.1605
 25.4098
 25.4809
 25.4274
 25.4139
 24.7142
 24.8562
 24.8136
 24.7868
 25.2173
 25.2395
 25.1814
 26.3927
 26.3434
 26.3617
 26.3229
 25.2935
 25.3499
 25.5274
 25.5813
 25.5995
 25.5644
 25.4238
 25.4445
 25.4269
 25.3955
 26.6379
 26.6132
 26.6255
 26.6781
 26.6242
 26.5685
 26.6147
 26.5565
 28.1845
 28.1377
 28.1124
 28.1509
 26.6002
 26.549
 26.6005
 26.3459
 26.3688
 26.3846
 26.3603
 25.8923
 25.8928
 25.9265
 25.9386
 26.3691
 26.3108
 26.2994
 26.3438
 27.0628
 27.0253
 27.0726
 27.0708
 25.1197
 25.2145
 25.1481
 25.1821
 26.0683
 26.0252
 26.0637
 26.1049
 24.9394
 24.9429
 24.9598
 24.9101
 25.7992
 25.8441
 25.7982
 25.8346
 24.7518
 24.7076
 24.7451
 27.659
 27.6005
 27.6104
 27.616
 25.4318
 25.3375
 25.4091
 25.3987
 26.0685
 26.1199
 26.0573
 26.0842
 26.7098
 26.742
 26.3367
 26.3205
 26.2878
 26.3029
 26.1521
 26.2197
 26.2085
 24.9026
 24.8803
 24.9417
 24.9005
 24.815
 24.852
 24.8996
 24.8852
 26.7365
 26.7558
 26.7194
 26.7429
 26.0731
 26.0885
 26.4977
 26.4376
 26.4765
 26.5271
 25.2488
 25.3064
 25.205
 25.198
 27.0202
 26.9857
 27.028
 26.966
 26.6635
 26.6504
 26.7051
 26.7126
 26.5129
 26.4471
 26.4186
 26.4515
 25.8609
 25.8688
 25.8801
 25.7854
 25.3755
 25.3778
 25.4165
 25.4278
 25.2535
 25.2785
 25.3288
 25.2781
 27.9537
 27.961
 27.9975
 28.0209
 26.8942
 26.8342
 26.7993
 25.7389
 25.8468
 25.7826
 25.7
 25.6559
 25.7166
 25.628
 24.8735
 24.8244
 24.8611
 24.8025
 25.9847
 26.562
 26.5588
 26.618
 26.6076
 25.531
 25.5616
 25.6122
 25.591
 25.1595
 25.2313
 25.2297
 25.1516
 25.1696
 25.1675
 26.7576
 26.793
 26.8164
 26.823
 25.8762
 25.8191
 25.8357
 25.8193
 26.9494
 26.9796
 26.9621
 26.9276
 25.6625
 26.285
 26.3169
 26.2181
 26.1964
 26.3725
 26.3308
 26.3063
 26.3467
 24.8751
 24.9439
 24.7615
 24.716
 24.6778
 24.7315
 27.2822
 27.3437
 27.3011
 27.2824
 25.234
 25.2287
 25.3074
 25.2103
 25.7267
 25.7894
 25.7475
 25.6833
 27.8489
 27.8219
 27.8303
 27.8793
 25.9159
 25.9184
 25.8857
 25.9456
 25.9816
 26.0492
 26.0867
 26.0865
 26.747
 26.8054
 26.7082
 26.7412
 24.5774
 24.506
 24.4993
 24.4797
 26.0259
 26.0897
 26.0912
 26.4064
 26.3458
 26.339
 26.4
 24.7239
 24.6412
 24.7034
 24.6922
 26.4488
 26.4915
 26.5371
 26.4531
 26.0893
 26.0484
 25.1173
 25.1271
 25.0757
 25.1761
 25.774
 25.76
 25.6917
 25.6892
 24.7261
 24.7601
 24.6712
 24.7242
 26.0722
 25.9776
 26.6618
 26.6434
 26.6264
 26.6257
 26.4547
 26.444
 26.4014
 26.3846
 25.0651
 25.0495
 25.1249
 25.0975
 25.2464
 25.2834
 25.2176
 25.2278
 25.2722
 25.3387
 25.2789
 25.276
 26.4552
 26.3818
 26.4117
 26.4477
 27.3705
 27.4227
 27.4058
 27.3828
 24.5825
 24.5077
 24.5707
 24.536
 26.7314
 26.7319
 26.7218
 26.6934
 25.8251
 25.7635
 25.7666
 25.8002
 26.3428
 26.251
 26.3149
 26.2817
 25.8259
 25.9007
 25.8245
 25.5757
 25.5066
 25.5705
 25.4805
 25.9806
 25.9397
 25.966
 26.0169
 25.3946
 25.3678
 25.3289
 25.4101
 25.3757
 25.4007
 25.3751
 25.4698
 27.7958
 27.7086
 27.7917
 26.9487
 26.8902
 26.8443
 26.8691
 25.7717
 25.8123
 25.7948
 25.8018
 25.1399
 25.0689
 25.1075
 25.0695
 26.5326
 26.6177
 26.535
 26.4987
 26.4551
 26.45
 25.6836
 25.7207
 25.6822
 25.6778
 25.8414
 25.7764
 25.7668
 25.7565
 24.2095
 24.2332
 24.2741
 24.1874
 27.1304
 27.0917
 27.1435
 27.212
 25.3228
 25.3202
 26.2309
 26.1784
 26.1671
 26.2307
 25.4387
 25.4145
 25.4167
 25.3989
 25.6968
 25.6896
 25.6504
 25.6644
 26.1857
 26.1803
 26.1271
 26.2217
 25.5438
 25.488
 25.4981
 25.4928
 26.7296
 26.703
 26.7107
 26.6631
 26.9309
 27.0001
 26.9206
 26.9586
 25.104
 25.0766
 25.0386
 24.9481
 25.8286
 25.8004
 25.7539
 27.4028
 27.4438
 27.3826
 25.0011
 24.974
 24.9606
 24.9348
 24.9686
 24.9942
 25.0167
 25.0189
 25.9777
 25.9674
 25.963
 25.9152
 24.8689
 24.8283
 24.8446
 24.8368
 24.6726
 24.5799
 24.6643
 24.5794
 26.1466
 26.121
 26.0709
 26.1361
 25.1275
 25.095
 25.0757
 25.0807
 24.2526
 24.2233
 24.3005
 24.2103
 25.2891
 25.2761
 25.3159
 25.2239
 25.7638
 25.8557
 25.8146
 25.8735
 25.0757
 25.036
 25.0857
 25.1003
 25.4424
 25.4551
 25.4189
 25.6119
 25.5609
 27.1739
 27.1782
 27.1866
 27.2153
 25.6147
 25.5582
 25.5659
 25.5862
 27.3602
 27.3475
 27.3351
 27.3353
 27.265
 27.2681
 27.2152
 27.1743
 25.6989
 25.6755
 25.6657
 25.7225
 26.2584
 26.259
 26.3086
 26.2316
 25.4992
 25.4386
 25.4524
 25.4618
 25.9348
 25.9751
 26.9992
 27.0328
 27.0176
 26.9651
 24.6422
 24.6177
 24.5869
 24.6457
 26.2451
 26.3021
 26.2055
 26.2423
 24.9762
 24.9949
 25.0469
 25.0095
 26.9736
 27.0353
 26.9802
 26.9933
 24.9276
 24.8291
 24.8608
 24.8439
 25.6098
 25.6878
 25.6274
 25.6373
 26.514
 26.572
 26.6117
 26.5816
 24.3823
 24.4197
 24.41
 24.4648
 26.4028
 26.3329
 26.3859
 26.4026
 26.125
 26.227
 26.1641
 26.1851
 24.6468
 24.6347
 24.6943
 24.6316
 25.9733
 26.064
 26.0454
 26.0485
 25.0987
 25.0476
 25.0732
 25.1048
 25.0838
 25.1256
 25.1075
 26.1262
 26.2381
 26.1831
 26.2121
 25.1393
 25.0758
 25.1139
 25.0971
 26.8035
 26.7368
 26.7408
 26.8141
 24.9999
 24.9584
 24.9622
 24.995
 25.0228
 25.0447
 25.0049
 25.0358
 26.6533
 26.6663
 26.5464
 26.608
 26.6088
 26.6334
 26.5732
 26.6608
 28.423
 28.4022
 28.4775
 28.463
 25.1969
 25.2711
 25.2577
 27.2213
 27.1301
 27.1386
 27.1649
 24.7793
 24.8263
 24.8167
 24.8001
 26.6791
 25.0311
 25.0907
 25.0625
 25.0155
 25.0318
 25.0704
 25.0872
 27.9068
 27.9985
 27.9806
 27.9424
 27.9748
 28.0011
 27.9995
 28.0271
 24.7581
 24.8095
 24.7584
 24.7209
 26.6058
 26.633
 26.5749
 26.6455
 25.4569
 25.4899
 25.4186
 26.3359
 26.3861
 26.3393
 26.4212
 26.1114
 26.1057
 26.134
 24.9994
 25.0318
 24.9337
 25.7353
 25.6911
 25.6775
 25.7187
 26.3302
 26.3901
 26.3982
 26.3488
 26.6737
 26.6532
 26.6856
 26.6588
 25.4854
 25.4504
 25.4425
 27.0176
 26.983
 27.0689
 27.0744
 26.6432
 26.5123
 26.5823
 26.1712
 26.0761
 26.0854
 26.1429
 26.6591
 26.5969
 26.6081
 26.6301
 26.6508
 26.5708
 26.5565
 26.5767
 24.958
 24.9968
 24.9932
 25.0006
 26.0894
 26.1438
 26.0935
 26.0699
 26.3968
 26.4276
 25.7514
 25.798
 25.7639
 25.8259
 24.7562
 24.8699
 24.8406
 24.8606
 24.8726
 28.503
 28.5341
 28.5534
 28.507
 25.1769
 25.1134
 25.1481
 24.5857
 24.6156
 24.6325
 24.6013
 25.3124
 25.3978
 25.3884
 25.3932
 26.6864
 26.6622
 26.6283
 26.6909
 26.1151
 26.1565
 26.1884
 26.1526
 24.5352
 24.5482
 24.5714
 24.5778
 25.1875
 25.2312
 25.2732
 25.2271
 27.033
 27.0721
 27.078
 27.0005
 26.1961
 26.1749
 26.166
 26.2557
 26.2854
 26.2566
 26.2205
 26.2677
 28.5376
 28.5577
 28.5524
 28.5342
 26.8125
 26.821
 26.8419
 26.7784
 25.2191
 25.1466
 25.2288
 25.1872
 25.6725
 25.6775
 25.6238
 25.6938
 26.0125
 25.9638
 25.9156
 26.0105
 25.4018
 25.3428
 25.366
 25.365
 25.6013
 25.6129
 25.5515
 25.6164
 25.3326
 25.3294
 25.3752
 25.2665
 24.3597
 24.4672
 24.4312
 24.3295
 25.1476
 25.1734
 25.1885
 25.2746
 25.3711
 25.4026
 25.4542
 25.3949
 25.4744
 25.8053
 25.8052
 25.8464
 25.7517
 24.7948
 24.8234
 24.8333
 24.8299
 26.073
 26.1056
 26.049
 26.07
 25.7191
 25.6968
 25.6655
 25.7523
 25.8931
 25.9568
 25.9157
 25.8663
 26.3048
 26.3916
 26.3253
 26.3859
 27.5679
 27.5388
 27.4746
 27.5937
 24.2728
 24.3716
 25.5551
 25.587
 25.5939
 28.1945
 28.2005
 28.215
 26.511
 26.553
 26.5259
 26.578
 27.2245
 27.2279
 27.3169
 27.3129
 26.8174
 26.8479
 26.7995
 26.8775
 24.7014
 24.7851
 24.7514
 24.7381
 25.8335
 25.9071
 25.8734
 25.9197
 25.4272
 25.3629
 25.3595
 25.304
 25.6091
 25.6454
 25.6699
 25.735
 25.3801
 25.3447
 25.4017
 25.3793
 26.0051
 26.0025
 25.0639
 25.1884
 25.0775
 25.181
 25.2829
 25.3213
 25.3515
 25.2299
 26.5328
 26.61
 26.5225
 26.6
 26.601
 26.5861
 26.5877
 26.5758
 25.7727
 25.7599
 25.786
 25.7481
 25.7683
 25.7248
 25.6882
 25.6447
 26.8253
 26.9124
 26.9288
 26.8127
 25.3164
 25.3711
 25.3935
 25.3962
 24.4041
 24.4388
 24.4014
 24.4363
 25.0191
 25.0523
 25.0533
 25.0814
 24.3516
 24.3161
 24.3855
 24.2972
 24.963
 24.894
 24.9114
 24.9078
 25.8644
 25.7828
 25.8479
 25.8274
 25.4358
 25.4725
 25.9744
 25.9023
 25.9935
 25.9549
 26.5746
 26.5177
 26.5261
 26.5049
 25.2179
 25.1265
 25.1254
 25.181
 25.9943
 26.0089
 25.9912
 26.0593
 26.122
 26.1708
 26.1868
 26.1582
 26.6656
 26.6619
 26.6315
 26.5829
 26.4518
 26.4359
 26.4827
 26.3856
 26.6458
 26.5948
 26.6005
 26.6249
 27.553
 27.548
 27.602
 27.5748
 25.2671
 25.2427
 25.3031
 25.252
 25.4916
 25.4799
 27.351
 27.3629
 27.3651
 27.4232
 26.3564
 26.3318
 25.5276
 25.5759
 25.5195
 25.0985
 25.0766
 26.8009
 26.8049
 26.8413
 26.7609
 27.4401
 27.4138
 27.4081
 27.3906
 26.8791
 26.8503
 26.8123
 26.7985
 26.3755
 26.3064
 26.2963
 26.2945
 25.6478
 25.7151
 25.7197
 25.7127
 25.3761
 25.4017
 25.4116
 25.4195
 26.3829
 26.3356
 26.3222
 26.3361
 25.7695
 25.7676
 25.7432
 25.8321
 25.8214
 25.862
 25.8777
 25.8444
 25.8236
 25.7779
 25.7517
 25.7707
 25.7269
 25.8227
 25.7308
 25.9848
 26.0304
 25.9413
 25.9771
 26.2436
 26.2166
 26.3089
 26.2407
 26.6217
 26.5681
 26.6569
 26.5689
 24.76
 24.7797
 24.7416
 24.7037
 26.1014
 26.1001
 26.0267
 26.039
 26.9187
 26.915
 27.0269
 26.9423
 27.0569
 27.0303
 27.0654
 27.0778
 26.8975
 26.9513
 26.9459
 26.9204
 26.6301
 26.6339
 26.5661
 26.5521
 26.6799
 26.7176
 26.7343
 26.7048
 24.956
 24.9191
 24.9113
 24.892
 26.0908
 26.0914
 26.1034
 26.044
 25.3248
 25.2605
 25.3096
 25.3446
 26.6261
 26.5603
 26.6408
 26.5877
 24.7027
 24.6797
 24.6858
 24.6565
 24.6326
 24.6474
 24.568
 25.3104
 25.4287
 25.3945
 25.3868
 26.5165
 26.4836
 26.5498
 26.4988
 24.4568
 24.5498
 24.5317
 26.2053
 26.2589
 26.2051
 26.2904
 24.9793
 24.9682
 25.0954
 25.0767
 25.0252
 25.0998
 26.2834
 26.3178
 26.2929
 26.8859
 26.8614
 26.9305
 26.9109
 26.6281
 26.6474
 26.5801
 26.5863
 25.9026
 25.833
 25.9264
 24.6353
 24.7414
 24.7305
 25.3343
 25.4107
 25.4269
 25.3856
 24.6318
 24.6546
 24.7295
 24.5798
 26.1616
 26.0976
 26.0669
 26.106
 24.8599
 24.8498
 24.8216
 24.905
 25.8163
 25.8035
 25.844
 25.881
 26.4574
 26.5291
 26.494
 24.5192
 24.5762
 24.5459
 24.4606
 25.5153
 25.7106
 25.6386
 25.6706
 25.7005
 25.5572
 25.5463
 25.5961
 26.4762
 26.5204
 26.5085
 26.5111
 26.5139
 26.4318
 26.1685
 26.2305
 26.2241
 26.2273
 26.1001
 26.0263
 26.0782
 26.0346
 25.3679
 24.4448
 24.545
 24.5542
 24.4874
 27.7062
 27.7848
 27.7664
 27.7725
 26.4029
 26.4319
 26.5259
 26.548
 26.5096
 26.4926
 26.5256
 26.523
 26.6043
 26.578
 25.2878
 25.3644
 25.3607
 25.3189
 25.2362
 25.2184
 25.2926
 25.2229
 26.3722
 26.4351
 25.4191
 25.3993
 25.323
 25.372
 25.4144
 25.3473
 25.4083
 25.6967
 25.7468
 25.7798
 25.7978
 26.0493
 26.1037
 26.0497
 26.1097
 25.2924
 25.203
 25.2171
 25.2859
 25.0968
 25.0962
 25.0401
 25.1151
 25.1531
 25.0913
 25.1325
 25.2703
 25.2598
 25.2538
 25.3042
 26.1533
 26.1371
 26.1262
 26.1766
 27.2004
 27.231
 27.1801
 27.1724
 26.2874
 26.2946
 26.3249
 26.3092
 25.0818
 25.1427
 25.1841
 25.1308
 25.4625
 25.5025
 25.5036
 25.4546
 26.3049
 26.272
 26.2476
 26.2441
 25.4856
 25.5473
 25.5006
 25.4884
 25.7793
 25.7575
 25.84
 25.7502
 25.7829
 25.724
 25.7479
 25.7221
 25.4979
 25.4483
 25.4575
 24.8935
 24.8736
 24.9144
 24.9023
 26.3122
 26.2512
 26.2784
 26.2751
 25.9957
 25.9378
 25.943
 25.955
 27.1228
 27.1539
 27.135
 27.0821
 26.69
 26.6543
 26.6495
 26.6917
 26.6272
 26.7231
 26.6727
 26.7308
 26.6999
 26.6685
 26.6782
 26.6476
 25.7951
 25.8271
 25.8147
 26.9643
 26.979
 26.9389
 26.9256
 26.7742
 26.751
 26.7134
 26.7821
 24.4893
 24.5652
 24.5672
 24.5102
 25.7416
 25.7731
 25.8106
 25.8352
 25.112
 25.1134
 25.1553
 25.163
 25.6602
 25.6324
 25.6749
 25.7102
 25.5087
 25.4654
 25.5153
 25.504
 26.4846
 26.5356
 26.5129
 26.5846
 25.9286
 25.813
 25.9052
 25.8872
 25.0363
 24.9895
 25.0282
 25.0066
 25.617
 25.6412
 25.5552
 25.568
 26.7357
 26.7779
 26.713
 26.6775
 24.8607
 24.8374
 24.8596
 24.8261
 26.214
 26.2667
 26.8211
 25.9107
 25.8831
 25.8375
 25.9231
 26.0664
 26.0048
 26.073
 26.0874
 27.4407
 27.4503
 27.3872
 26.3016
 26.3628
 26.3763
 26.4134
 25.6328
 25.5366
 25.5801
 25.5198
 25.8175
 25.7804
 25.8009
 25.8259
 24.8684
 24.8366
 24.8308
 24.8512
 26.6368
 26.5379
 26.6092
 26.5175
 26.5216
 26.5335
 26.4599
 27.2778
 27.3741
 27.3103
 27.2951
 26.6764
 26.5979
 26.6573
 25.638
 25.5238
 25.6193
 26.7095
 26.7195
 26.7735
 26.7445
 26.0468
 25.9876
 25.9789
 25.9752
 28.5288
 28.5373
 28.5196
 28.4486
 26.1349
 26.1535
 26.1548
 26.9575
 26.9741
 26.9585
 26.958
 26.1778
 26.2036
 26.2596
 26.2126
 26.7898
 26.7376
 26.7425
 26.7055
 25.3335
 25.306
 25.3421
 25.291
 25.199
 25.2551
 25.215
 25.1813
 24.6444
 24.642
 24.6059
 24.6928
 25.736
 25.8124
 25.7521
 25.7335
 26.7796
 26.853
 26.7878
 26.83
 26.4488
 26.4739
 27.213
 27.21
 27.1828
 27.1872
 26.0512
 26.0264
 26.3009
 26.2017
 26.2257
 26.569
 26.5316
 26.5047
 26.5357
 24.6989
 24.664
 24.7636
 24.7508
 24.8154
 24.8277
 24.854
 24.8278
 26.5154
 26.4998
 26.5443
 26.5842
 26.9897
 26.9674
 25.6461
 25.621
 25.6366
 25.582
 26.6078
 26.6277
 26.5773
 26.5764
 26.2285
 26.3107
 26.1852
 24.2713
 24.247
 24.3207
 25.8586
 25.7801
 25.8059
 25.8075
 24.9319
 24.8646
 24.9494
 24.9806
 25.7548
 25.7041
 25.6898
 25.7645
 25.3176
 25.2703
 25.266
 25.3469
 26.8056
 26.7448
 26.7933
 26.8265
 26.5613
 26.4725
 26.5864
 26.5014
 25.7421
 25.8018
 25.6832
 25.7609
 26.285
 26.2181
 26.203
 26.2892
 26.7926
 26.7779
 26.7464
 26.7041
 26.0407
 26.019
 25.9752
 25.9444
 25.4172
 25.4106
 25.4525
 25.7964
 25.7346
 25.7756
 25.7434
 28.1071
 28.0451
 27.9846
 28.0266
 26.9792
 26.9871
 26.9657
 26.9762
 26.3239
 26.3219
 26.3352
 26.2695
 27.4682
 27.4014
 27.4781
 27.4478
 24.884
 24.8798
 24.9376
 24.5613
 24.6174
 24.6773
 24.6266
 25.1929
 25.0893
 25.1317
 25.1277
 25.8253
 25.473
 25.3875
 25.3702
 25.4257
 25.9255
 25.8791
 25.9564
 25.9634
 26.8157
 26.8629
 26.8404
 26.5105
 26.4929
 26.4693
 26.5618
 28.1171
 28.1878
 28.1221
 28.2072
 27.3556
 27.3528
 27.338
 27.3165
 26.3556
 26.3569
 26.3184
 26.2835
 24.4899
 24.5883
 24.5525
 24.5674
 27.9224
 27.887
 27.8312
 27.8345
 25.3628
 25.3008
 25.3981
 25.3309
 25.8589
 25.8475
 25.7953
 25.8473
 26.4928
 26.6058
 26.594
 25.9542
 26.0271
 26.0296
 26.0254
 24.6123
 24.5774
 24.564
 26.7839
 26.686
 26.6741
 26.1793
 26.1641
 26.0953
 26.1085
 26.3463
 26.3641
 26.3831
 26.3971
 26.304
 26.3147
 26.2497
 26.2366
 26.8851
 26.9302
 26.9121
 26.8482
 25.9998
 25.9561
 26.0197
 25.9594
 24.6518
 24.7435
 24.7437
 24.7881
 24.9095
 24.9166
 24.9171
 24.8725
 27.0559
 27.0326
 27.0407
 27.0453
 24.9628
 24.9312
 24.9332
 25.0108
 24.7609
 24.6716
 24.6941
 24.774
 24.9285
 24.941
 25.0117
 25.006
 25.55
 25.5537
 25.5063
 25.5303
 25.9063
 25.9511
 25.8904
 26.3515
 26.4434
 26.4235
 26.3938
 25.1904
 25.2319
 25.2617
 25.1768
 25.2324
 25.1953
 25.1681
 25.1854
 24.2556
 24.2616
 24.3694
 24.3087
 27.4358
 27.3891
 27.3998
 27.3868
 27.1801
 27.2175
 27.2012
 27.1542
 26.8903
 26.9147
 26.8378
 26.9186
 26.2597
 26.3533
 26.2912
 26.3009
 26.2806
 26.275
 26.2771
 24.7314
 24.6916
 24.6284
 24.666
 25.1711
 25.2014
 25.2378
 25.2272
 26.0086
 26.0522
 26.0723
 26.0393
 24.8725
 24.8343
 25.6806
 25.6824
 25.6871
 25.7392
 24.9431
 24.915
 24.8291
 24.8907
 25.7778
 25.7043
 25.7936
 25.6967
 26.3611
 26.3289
 26.4229
 26.4048
 27.1191
 27.1576
 27.1276
 27.0656
 28.1947
 28.1084
 28.2103
 28.1621
 24.9914
 25.0149
 25.0204
 24.9802
 24.7126
 24.7009
 24.6989
 24.6553
 26.1596
 26.2346
 26.1932
 26.2372
 25.8746
 25.9065
 25.9168
 25.8756
 26.598
 26.6631
 26.5532
 25.5218
 25.5713
 25.5596
 25.5867
 26.6281
 26.6397
 26.5961
 26.5997
 25.9869
 26.0412
 26.0891
 26.0502
 25.5126
 25.5433
 25.5322
 25.5015
 25.8025
 25.8215
 25.8577
 24.8935
 24.9524
 24.9371
 24.9394
 25.5473
 25.4723
 27.4659
 27.3477
 27.4552
 27.4142
 25.2868
 25.3356
 25.3108
 26.5146
 26.4876
 26.4985
 26.5009
 25.6447
 25.6612
 25.6784
 25.8788
 25.9461
 25.8804
 25.9126
 25.5895
 25.6557
 25.5506
 25.6157
 25.5237
 25.4575
 27.8708
 27.8721
 27.9326
 27.86
 28.0003
 28.0913
 28.1103
 28.038
 25.8636
 25.932
 25.903
 25.9354
 25.6646
 25.7035
 25.6601
 25.6967
 27.8186
 27.8313
 27.7934
 27.7576
 26.5059
 26.579
 26.9221
 26.9131
 26.874
 26.8213
 25.4971
 25.5273
 25.4423
 25.4844
 25.6765
 25.6494
 25.5987
 25.6987
 25.5442
 25.6167
 25.634
 25.6134
 26.3675
 26.3651
 26.3075
 26.3685
 26.7615
 26.7524
 26.8302
 26.7479
 27.168
 27.1051
 27.1014
 27.1565
 26.7486
 26.7608
 26.7574
 26.6531
 25.231
 25.2933
 25.2332
 25.2771
 25.8606
 26.0067
 25.9361
 27.4695
 27.4163
 27.3816
 25.4253
 25.327
 25.3839
 25.3888
 25.351
 25.4704
 25.4051
 25.389
 26.085
 26.1256
 26.1508
 26.0732
 26.0577
 25.9961
 26.0441
 26.7657
 26.8107
 26.8257
 26.8255
 25.1197
 25.1402
 25.0898
 25.1211
 26.9491
 26.9701
 26.9627
 26.9303
 26.9667
 27.0113
 26.9757
 24.507
 24.4237
 24.3809
 24.4499
 24.9626
 24.9219
 26.4653
 26.4894
 26.4322
 26.4565
 25.9168
 25.8497
 25.9241
 26.0111
 26.0464
 26.0296
 26.0826
 26.7792
 26.7313
 26.7449
 25.1661
 25.1278
 25.2048
 25.1812
 26.8017
 26.7151
 26.7732
 26.7858
 25.3455
 25.4075
 25.4221
 25.3819
 26.9158
 26.8749
 26.7252
 26.8049
 26.7502
 26.7798
 26.5397
 26.5745
 26.5596
 26.5313
 27.3603
 27.3727
 27.4383
 27.4091
 25.2563
 25.1825
 26.3314
 26.2939
 26.2878
 26.2923
 24.5973
 24.6269
 24.6054
 24.585
 26.3659
 26.391
 26.3054
 26.2662
 25.1336
 25.0709
 25.0506
 25.043
 24.8037
 24.7359
 24.8493
 24.748
 25.3515
 25.4151
 24.8473
 24.7937
 24.8154
 24.8257
 26.7613
 26.769
 26.7679
 26.7114
 24.8792
 24.8517
 24.8407
 24.8852
 24.5376
 24.4457
 24.4498
 24.5176
 25.5999
 25.5937
 25.5406
 25.5554
 25.9859
 26.0071
 25.9365
 25.9089
 24.847
 24.9316
 24.8833
 24.8416
 27.4081
 27.3132
 27.3503
 27.4286
 24.8777
 24.7848
 26.3394
 26.2953
 26.2944
 26.2356
 24.967
 24.9806
 25.0561
 25.0481
 26.7559
 26.6938
 26.7057
 26.7084
 26.1765
 26.2712
 26.2417
 26.188
 26.6198
 26.6465
 26.5639
 26.7729
 26.8162
 26.7828
 26.8473
 26.9188
 26.8551
 26.8749
 26.8416
 25.6449
 25.6828
 25.7004
 25.0277
 25.019
 24.965
 24.9804
 25.8124
 25.8462
 25.8542
 26.7819
 26.8288
 26.8051
 25.8683
 25.7724
 25.8526
 25.8014
 25.5792
 25.597
 25.5701
 25.501
 26.0383
 25.9654
 25.9571
 25.9856
 26.1577
 26.1897
 26.2039
 26.2517
 26.2808
 26.2794
 26.1779
 26.1543
 26.1119
 26.2118
 24.9649
 25.0226
 24.9788
 25.0257
 25.3389
 25.383
 25.3507
 25.3199
 26.0752
 26.0323
 26.0593
 25.9682
 26.757
 26.8017
 26.7782
 25.7914
 25.8284
 25.7885
 25.7848
 26.4241
 26.5083
 26.4793
 26.5161
 27.6711
 27.667
 27.6995
 27.7234
 26.2503
 26.2831
 26.2687
 26.2727
 24.9195
 24.9279
 24.873
 24.8916
 26.2557
 26.1757
 26.2165
 26.2538
 26.8738
 26.8764
 26.8506
 26.8207
 26.7789
 26.8102
 26.7982
 25.9851
 25.9717
 25.9791
 25.5542
 26.3167
 26.4081
 26.3446
 26.3479
 24.8342
 24.8465
 24.8066
 24.9548
 24.9414
 24.9078
 26.2686
 26.2008
 26.2445
 26.206
 24.4582
 24.4331
 24.4149
 24.4072
 26.7638
 25.7247
 25.7811
 25.7412
 25.7546
 26.7188
 26.696
 26.7015
 26.6804
 24.8303
 24.8049
 24.9004
 24.8336
 25.4236
 25.3257
 25.371
 25.4015
 25.2008
 25.165
 25.2335
 25.2249
 26.9272
 26.9009
 26.8662
 26.9212
 26.4217
 26.3676
 26.4274
 26.4259
 25.834
 25.8686
 25.8036
 25.8653
 26.3179
 26.3872
 26.2812
 26.36
 25.482
 25.4626
 25.4044
 25.419
 26.7152
 26.756
 26.6871
 26.6817
 26.4484
 26.404
 26.3548
 26.3932
 25.6477
 25.6415
 25.6536
 25.5753
 24.7436
 24.6584
 24.7095
 24.6695
 26.86
 26.8669
 26.7866
 26.8355
 27.2949
 27.3673
 27.2893
 27.2946
 24.8012
 24.7574
 24.7779
 24.7428
 27.2893
 27.3483
 27.1632
 27.1901
 27.1841
 27.1204
 25.9014
 25.8639
 25.919
 25.9618
 26.4112
 26.3766
 26.3769
 26.4422
 24.2991
 24.2656
 24.2732
 24.3286
 24.8633
 24.8687
 24.7888
 25.421
 25.4252
 25.3784
 25.4522
 26.8316
 26.8095
 26.8738
 26.7916
 26.4601
 26.4699
 26.4929
 26.5191
 26.4817
 26.4379
 25.4397
 25.3467
 25.3751
 25.4103
 25.5108
 25.5065
 25.5618
 25.4969
 25.3368
 25.3357
 25.4061
 25.3376
 24.5605
 24.5452
 24.6639
 24.5254
 25.2204
 25.2122
 25.2766
 26.2064
 25.7856
 25.7917
 25.7684
 25.8197
 25.7544
 25.8211
 25.8064
 25.8059
 25.0765
 25.119
 25.1187
 25.1538
 25.2413
 25.2741
 25.2767
 25.2127
 25.6662
 25.7218
 25.7153
 26.3437
 26.36
 26.3074
 26.4216
 25.7952
 25.6912
 25.7597
 25.7334
 26.2662
 26.2304
 26.2979
 27.839
 27.8358
 27.8765
 27.7981
 25.038
 24.9499
 24.9816
 24.9672
 25.0492
 24.9462
 25.0024
 27.8594
 25.7453
 25.7273
 25.7509
 25.6739
 25.6891
 25.671
 27.2109
 27.1983
 27.204
 27.171
 26.8754
 26.8534
 26.7975
 26.8797
 26.5598
 26.5204
 26.5053
 26.5686
 26.635
 26.6055
 26.5716
 26.6399
 26.6474
 26.5937
 26.1772
 26.2122
 26.2276
 26.2501
 26.1543
 26.098
 24.1987
 24.2015
 26.7779
 26.6643
 26.767
 26.7028
 26.0251
 26.0399
 26.0136
 26.0791
 26.8698
 26.8617
 26.9745
 26.919
 24.9745
 24.9396
 25.0474
 25.0063
 25.0236
 25.075
 25.024
 25.0794
 25.4704
 25.4336
 25.4207
 25.4474
 25.8533
 25.8404
 25.7523
 25.7963
 25.8755
 25.9123
 26.7709
 25.3103
 25.2439
 25.2639
 25.2465
 24.5829
 24.5898
 24.4945
 24.6113
 25.0031
 24.9353
 25.015
 24.9868
 28.5175
 28.5071
 28.495
 28.4674
 24.6641
 24.6538
 24.6905
 24.6845
 26.5674
 26.562
 26.6231
 26.5354
 26.3548
 26.4177
 26.3936
 26.4444
 25.4384
 25.432
 25.3898
 25.389
 25.4351
 25.4437
 25.4788
 25.4651
 26.7753
 26.6739
 26.7279
 26.6984
 24.7513
 24.7148
 24.7562
 24.7476
 24.9693
 24.925
 24.9463
 24.9062
 25.2732
 25.2599
 25.2176
 25.2172
 24.8187
 24.8632
 24.852
 24.8187
 26.4362
 26.3734
 26.3761
 26.3462
 26.8149
 26.7885
 26.7812
 26.747
 25.0041
 25.0598
 25.0732
 25.0586
 26.1152
 26.1027
 26.1409
 26.1931
 25.9569
 25.9856
 25.9959
 25.9591
 28.0714
 28.0495
 27.9816
 28.0436
 24.6697
 24.6566
 24.8295
 24.8153
 24.8745
 24.7867
 27.0252
 27.0971
 27.1225
 27.0193
 26.4294
 26.5092
 26.505
 26.536
 24.9395
 24.9859
 24.9223
 24.8979
 26.2394
 26.2169
 26.2517
 26.1861
 26.2267
 26.2056
 26.2794
 26.2723
 24.5825
 24.572
 24.6085
 24.6414
 25.8209
 25.8333
 25.815
 25.7911
 25.9526
 25.9316
 25.9498
 25.989
 25.2235
 25.1881
 25.1674
 25.1875
 25.4675
 25.4791
 25.5049
 25.5391
 26.1545
 26.1448
 26.2215
 26.4125
 26.3632
 26.3983
 26.3152
 27.1453
 27.1486
 27.18
 27.068
 26.2938
 26.2501
 26.2397
 26.2281
 25.8857
 25.9216
 25.8867
 25.9384
 24.5059
 24.4892
 24.5029
 24.5829
 26.3088
 26.2047
 26.2594
 26.2616
 26.9912
 26.9874
 27.0397
 27.0643
 25.3177
 25.2705
 25.2976
 25.3442
 25.5668
 25.5685
 25.6016
 25.8501
 25.7602
 25.7592
 25.7345
 27.1497
 27.143
 27.1368
 27.0923
 25.7361
 25.7918
 25.7664
 25.8195
 24.8155
 24.8128
 24.8027
 24.7976
 25.8088
 25.7819
 25.7911
 25.7368
 26.9378
 26.9852
 26.9542
 26.927
 26.7131
 26.6749
 26.7286
 26.7777
 24.1483
 24.1684
 24.1336
 24.1304
 26.4632
 26.4521
 26.4595
 26.5373
 25.602
 25.7
 25.6676
 25.6504
 24.2503
 24.2386
 24.2934
 24.2918
 24.8547
 24.777
 24.8121
 25.3157
 25.3257
 25.2533
 25.2341
 24.9258
 24.9364
 24.8472
 24.9496
 27.7732
 27.7299
 27.6734
 27.6969
 26.6237
 26.5529
 26.6395
 24.6393
 24.5569
 24.5707
 24.5736
 25.6464
 25.6613
 25.5967
 25.6751
 25.1455
 25.1608
 25.0878
 25.1961
 26.8345
 26.8402
 26.8877
 26.9262
 26.259
 26.1962
 26.2755
 26.2221
 25.4508
 25.543
 25.5198
 27.1664
 27.1491
 27.1109
 27.1107
 26.734
 26.7994
 26.7633
 26.7861
 26.2636
 24.6081
 24.5785
 24.5895
 24.5439
 27.6157
 27.6113
 27.6635
 27.6726
 25.2219
 25.1304
 25.1753
 25.1203
 25.5496
 25.591
 25.558
 25.6287
 27.9617
 25.031
 25.0838
 25.0032
 24.6608
 24.5856
 24.6357
 24.6239
 26.0582
 26.0276
 25.9383
 26.0157
 25.518
 25.5231
 25.4763
 25.5531
 26.5793
 26.6428
 25.9135
 25.942
 25.939
 25.8741
 26.6033
 26.6429
 26.67
 26.6105
 26.361
 26.3883
 26.298
 26.2962
 25.3685
 25.4046
 25.3645
 25.3431
 27.3352
 27.3276
 27.3264
 27.2523
 26.8004
 26.8439
 26.8115
 26.8659
 27.2801
 27.2068
 27.0108
 27.0125
 26.9999
 27.0034
 27.0789
 27.1218
 27.0455
 27.1132
 24.6092
 24.645
 24.6909
 24.6961
 25.661
 25.6549
 25.6813
 25.5883
 26.2255
 26.1457
 26.1923
 26.1904
 25.7612
 25.7823
 25.7952
 25.7394
 24.5653
 24.5694
 27.1981
 27.2391
 27.2303
 27.1921
 24.5778
 24.5553
 24.604
 27.4901
 27.5279
 27.4921
 27.5317
 24.6886
 24.7495
 24.7067
 24.7542
 26.2969
 26.3422
 26.2751
 26.3382
 26.0682
 26.0534
 26.0829
 24.5664
 24.5995
 24.5938
 24.5553
 25.7046
 25.7599
 25.692
 25.7464
 26.016
 25.9878
 25.9285
 25.9887
 26.2528
 26.2926
 26.1396
 26.2521
 26.1658
 26.2104
 25.584
 25.6475
 25.6164
 24.5212
 24.6201
 24.6314
 24.5613
 26.0976
 26.0554
 26.1017
 26.0903
 26.1924
 26.2249
 26.4184
 26.5011
 26.5121
 26.4692
 27.4976
 27.4826
 27.4272
 25.7667
 25.7504
 25.8271
 25.8321
 24.6614
 24.6566
 24.6484
 27.2497
 27.3183
 27.2438
 26.0319
 26.0877
 26.0551
 26.109
 25.4266
 25.4311
 25.5015
 25.4777
 27.6516
 27.673
 27.6507
 27.6462
 24.9894
 24.9742
 25.0163
 25.0228
 25.3813
 25.4391
 25.4297
 25.4408
 24.9734
 24.9536
 24.9954
 24.6361
 24.6279
 24.5226
 24.5766
 25.8436
 25.9119
 25.8492
 25.8481
 24.8185
 24.8329
 24.864
 24.8672
 26.3225
 26.3419
 26.3022
 26.3693
 24.5539
 25.559
 25.9442
 25.9746
 25.9192
 25.9937
 25.5648
 25.5741
 25.634
 25.6411
 25.2597
 25.2422
 25.2778
 25.3355
 25.569
 25.5995
 25.529
 25.557
 25.1339
 25.1721
 25.1149
 25.1257
 25.9434
 25.9797
 25.9514
 25.9028
 26.0129
 25.9891
 25.9787
 25.954
 26.2094
 26.2194
 26.2426
 26.1692
 25.9527
 25.9539
 26.011
 26.8976
 26.8813
 26.9019
 26.8545
 25.9066
 25.4617
 25.3663
 25.3621
 25.4236
 24.6866
 24.6823
 24.7563
 26.3772
 26.4694
 26.4287
 26.4591
 25.8198
 25.7453
 25.7615
 25.5262
 25.5211
 25.5804
 25.5739
 25.4266
 25.4119
 25.3477
 25.3383
 24.8857
 24.8542
 24.8146
 24.8635
 26.6241
 26.6323
 26.5933
 26.6896
 25.7478
 25.7998
 25.8166
 25.8283
 25.9831
 26.0257
 26.061
 26.0049
 26.0516
 26.0974
 26.0996
 26.1432
 25.9297
 25.9556
 25.9212
 25.9822
 25.2327
 25.3302
 25.2185
 25.2857
 26.0295
 26.1254
 26.0886
 26.0791
 27.2154
 27.2151
 27.2147
 27.1817
 27.2115
 27.1637
 27.1631
 25.9307
 25.925
 25.8717
 25.8672
 25.9105
 25.8616
 25.8504
 25.8402
 25.9757
 26.0335
 25.9448
 25.937
 24.7235
 24.7212
 24.7949
 24.7921
 25.2378
 25.301
 25.2994
 25.2317
 26.4629
 26.4264
 26.43
 26.4157
 26.8229
 26.7553
 26.7555
 26.8448
 24.9648
 24.9794
 25.0144
 24.9618
 27.5845
 27.6019
 27.5842
 27.5296
 26.2325
 26.1711
 26.2052
 26.214
 26.9708
 26.9345
 26.9377
 26.6837
 26.6267
 26.6288
 26.5956
 25.3427
 25.3729
 25.3231
 25.4081
 26.6062
 26.7003
 26.6615
 26.6403
 27.1793
 27.0599
 27.1401
 27.6706
 27.5932
 27.5541
 27.5612
 24.5063
 24.4866
 24.4458
 24.4006
 26.5609
 26.602
 26.5685
 26.5463
 25.6198
 25.7032
 25.6907
 25.632
 24.7896
 24.836
 24.8813
 24.8433
 25.1176
 25.0346
 25.1469
 25.0937
 26.4914
 26.4853
 26.5249
 26.4996
 27.0179
 27.0832
 27.1328
 27.0678
 25.7805
 25.7409
 25.799
 25.7643
 26.9777
 26.896
 26.167
 26.2617
 26.2476
 26.1909
 26.0448
 26.0505
 26.0855
 26.0248
 26.1117
 26.1061
 26.1358
 26.8543
 26.8283
 26.8525
 25.5742
 25.5738
 25.5567
 25.5356
 25.6941
 25.7007
 25.7476
 25.6457
 26.498
 26.4269
 26.4572
 26.4934
 25.2247
 25.1523
 25.2472
 25.2117
 25.9402
 26.0126
 25.9735
 25.9168
 26.9677
 26.9686
 26.9838
 26.9693
 26.3133
 26.283
 26.3187
 25.6796
 25.6786
 25.7357
 25.6774
 25.877
 25.8464
 25.8022
 24.502
 24.5433
 24.5478
 24.5705
 27.3052
 27.328
 27.3021
 27.3869
 26.3498
 26.2854
 26.2953
 26.3347
 26.3713
 26.3874
 26.4413
 26.3722
 24.4385
 24.465
 24.3842
 24.3279
 25.2263
 25.1881
 25.1965
 26.611
 26.6406
 26.6539
 26.6354
 25.0755
 25.1512
 25.1162
 26.5565
 26.5545
 26.599
 26.5855
 28.1376
 28.0813
 28.1509
 28.1034
 24.7959
 24.7745
 24.7428
 24.8163
 26.8447
 26.8613
 26.89
 26.9542
 24.6299
 24.6651
 24.6749
 24.6562
 26.6858
 26.6003
 26.6593
 26.6328
 28.158
 28.2366
 28.1548
 28.1688
 27.1021
 27.1873
 27.1289
 27.0757
 26.8384
 26.7773
 26.7466
 26.8478
 25.915
 26.0077
 26.8121
 26.8112
 26.9097
 26.8912
 25.6426
 25.6773
 25.6981
 25.7293
 26.0181
 26.0168
 26.0621
 25.9783
 24.8384
 24.9131
 24.7815
 24.7709
 24.9466
 24.9929
 24.9555
 24.9149
 25.0959
 25.1161
 25.0981
 25.1592
 24.9233
 24.9135
 24.897
 24.9419
 25.396
 25.4208
 25.3596
 25.4075
 25.067
 25.0027
 25.0234
 25.0578
 27.2449
 27.3314
 27.3457
 27.2352
 24.8212
 24.7896
 24.8021
 24.813
 26.1938
 26.2491
 26.2609
 26.2302
 25.2139
 25.3071
 25.2803
 24.9468
 24.888
 24.8924
 24.9277
 26.8028
 26.8702
 26.8786
 26.848
 27.1614
 27.1905
 27.2347
 27.2113
 25.2734
 25.2849
 25.3298
 25.2292
 26.06
 26.0727
 26.0971
 26.1219
 25.4282
 25.4746
 25.4306
 25.4255
 25.4242
 25.4229
 25.3174
 26.2549
 26.2711
 26.329
 25.4653
 25.448
 25.7767
 25.8636
 24.5155
 24.4822
 24.4815
 24.5124
 25.8246
 25.7917
 25.8253
 25.7547
 25.4462
 25.4847
 25.4001
 25.4783
 25.7183
 25.6822
 25.699
 25.6478
 25.0898
 25.084
 25.0509
 25.0917
 25.0946
 26.1045
 26.1021
 26.1632
 26.1658
 26.9832
 26.9833
 26.9813
 26.9725
 25.4129
 25.4794
 25.4154
 25.4557
 25.4335
 25.4915
 25.4956
 25.4352
 27.985
 27.9502
 27.9175
 27.8629
 25.9378
 25.8902
 25.9168
 25.9481
 25.9367
 25.9923
 26.0116
 25.9556
 25.4965
 25.5428
 26.8283
 26.8105
 26.7807
 26.82
 26.3673
 26.3313
 26.3555
 26.3921
 26.7284
 26.7597
 26.7857
 26.7751
 26.4237
 26.3782
 26.3874
 26.4362
 26.7216
 26.7276
 26.7559
 26.7081
 25.2257
 25.2451
 25.2177
 25.1791
 24.822
 24.8179
 24.8825
 24.8433
 26.5429
 26.5689
 26.6054
 26.5289
 25.9464
 26.0157
 25.9601
 25.9703
 25.093
 25.1723
 25.1225
 25.1586
 26.1986
 26.2199
 26.2197
 26.1525
 26.5433
 26.4997
 27.0831
 27.0575
 27.0382
 27.0908
 26.1051
 26.1252
 26.1403
 26.1794
 25.0221
 25.0519
 25.054
 24.9801
 24.7172
 24.7607
 24.7519
 24.7011
 27.7708
 27.7581
 26.1561
 26.109
 26.0785
 26.0767
 26.2192
 26.3132
 26.2519
 26.2548
 26.3222
 26.3533
 26.6614
 26.6247
 26.6366
 26.6004
 26.0355
 25.967
 25.9539
 27.2287
 27.1868
 27.1859
 27.1514
 24.8942
 24.8485
 24.9316
 24.8887
 24.7659
 24.7632
 24.7592
 24.4728
 24.5235
 24.5723
 24.5353
 25.752
 25.6516
 25.699
 25.6779
 25.9232
 25.851
 25.9562
 25.8911
 25.1861
 25.1009
 25.0664
 25.1218
 25.4687
 25.4679
 25.4117
 25.4672
 25.5945
 25.5306
 25.5578
 25.86
 25.8491
 25.8802
 25.8093
 25.3605
 25.2544
 25.2915
 25.3509
 26.1371
 26.1589
 26.1249
 26.1176
 25.8982
 25.912
 25.853
 25.9445
 25.5061
 25.5196
 25.5456
 25.4824
 25.9306
 25.9794
 25.9984
 25.9284
 28.1157
 28.141
 28.0761
 28.0717
 26.6238
 26.6502
 26.6473
 26.6933
 25.3608
 25.3531
 25.2973
 25.2901
 26.6397
 26.6243
 26.7026
 26.7265
 26.808
 26.8944
 26.8043
 26.7546
 24.9521
 24.9548
 24.9116
 24.9974
 24.9887
 25.0511
 24.9965
 25.0059
 24.8001
 24.8597
 24.7932
 24.7895
 25.1678
 25.173
 25.1182
 25.1356
 26.2157
 26.203
 26.2607
 26.2034
 26.6628
 26.6864
 26.6301
 26.6895
 25.4501
 25.5365
 25.4499
 25.5169
 26.6282
 26.6091
 26.5974
 26.6049
 27.1042
 27.0795
 27.0684
 27.0282
 26.0004
 25.954
 25.9891
 25.9415
 26.3044
 26.3441
 26.3878
 26.2769
 26.2642
 26.1924
 26.2575
 27.0052
 27.0404
 27.1048
 27.0476
 26.5441
 26.5536
 26.5815
 26.5625
 25.4185
 25.3794
 25.4115
 25.3752
 25.8871
 25.8326
 25.8258
 24.4855
 24.55
 24.554
 24.5072
 24.7044
 24.6491
 24.6125
 24.6685
 26.3555
 26.3097
 26.3788
 26.3108
 25.6916
 25.649
 26.87
 26.8726
 26.9407
 26.8505
 25.87
 25.9135
 25.9589
 25.9149
 24.7687
 24.7549
 24.8159
 24.7671
 26.6122
 26.5989
 26.5655
 26.1842
 26.1837
 26.1559
 26.2358
 26.3051
 26.2121
 26.2332
 26.2566
 25.9623
 25.9009
 25.8944
 25.9779
 25.9765
 25.9437
 25.9035
 25.9528
 25.8088
 25.7653
 25.8061
 25.7595
 26.0461
 26.0007
 25.1252
 25.1431
 25.0423
 25.1272
 25.9909
 26.0537
 26.0299
 25.9943
 25.5798
 25.6712
 25.644
 26.0238
 25.9661
 25.998
 25.9668
 25.6395
 25.6679
 25.6981
 25.6512
 26.644
 26.7062
 26.659
 26.7365
 26.1297
 26.1394
 26.0748
 25.7433
 25.7422
 25.655
 25.7787
 26.0326
 26.0391
 25.9966
 26.7255
 26.707
 26.7679
 25.5722
 25.5772
 25.5762
 25.6392
 25.9057
 25.858
 25.8573
 27.8397
 27.8337
 27.7962
 27.9166
 25.4861
 25.5293
 25.5556
 25.4849
 26.256
 26.3299
 26.3216
 26.335
 25.1348
 25.1415
 25.1207
 25.0677
 25.0268
 25.0717
 24.9995
 25.0098
 26.7889
 26.7052
 26.8014
 26.7893
 25.796
 25.8505
 25.8734
 26.3851
 26.4591
 26.4147
 26.4105
 24.8959
 24.9905
 24.9431
 25.9032
 25.8579
 25.892
 25.8304
 25.4433
 25.4229
 25.4228
 25.4254
 24.8728
 24.8328
 24.8341
 24.8806
 28.3446
 28.4232
 28.3996
 28.3427
 26.4838
 26.4748
 26.4371
 26.4881
 25.7628
 25.661
 25.6964
 25.6784
 27.0797
 27.1432
 27.1416
 25.8878
 25.8341
 25.8543
 25.8994
 24.7253
 25.5005
 25.5341
 25.6228
 25.5609
 25.0834
 25.0845
 25.0637
 25.042
 25.2264
 25.2731
 25.2824
 25.2468
 25.7646
 25.7916
 25.8389
 25.9106
 25.9135
 25.9049
 27.6492
 27.5944
 27.6353
 27.6004
 26.3852
 26.4123
 26.436
 26.473
 26.4629
 26.4201
 26.461
 24.7679
 24.6369
 24.7741
 24.7734
 25.9658
 25.9728
 25.9003
 25.9076
 25.6965
 25.7214
 25.7683
 25.7269
 24.9843
 25.0153
 24.9578
 25.0216
 25.8933
 25.9089
 25.8467
 25.9206
 27.2809
 27.2371
 27.3004
 27.2808
 26.0274
 26.0508
 26.0194
 26.0414
 26.4967
 26.494
 26.4852
 26.4458
 26.6436
 26.6912
 26.6701
 26.6493
 27.0204
 26.9956
 27.0253
 27.0213
 27.3704
 27.4037
 27.4003
 27.3202
 24.4288
 24.5058
 24.4744
 24.4861
 27.5621
 27.5312
 27.5839
 27.4708
 25.9751
 26.0098
 25.9676
 26.0248
 24.4946
 24.5145
 24.5444
 24.5402
 26.2172
 26.2229
 26.1904
 26.1664
 26.9857
 24.8672
 24.904
 24.89
 24.8359
 26.7026
 27.3007
 27.2335
 27.2118
 27.2687
 25.6974
 25.6275
 25.1949
 25.2735
 25.1982
 25.2674
 24.953
 24.9659
 24.9235
 24.9317
 24.3988
 24.4684
 24.3996
 25.1726
 25.1055
 25.1026
 25.1006
 26.1557
 24.6303
 25.4448
 25.4745
 25.49
 24.7853
 24.7433
 24.7273
 24.7651
 26.1903
 26.1881
 26.1962
 26.2326
 26.4989
 26.492
 26.5148
 26.5638
 25.4483
 25.4916
 25.4787
 25.3907
 24.6649
 24.606
 24.6768
 24.6672
 24.9488
 24.968
 24.9285
 24.9714
 25.5877
 25.5014
 25.5109
 27.3662
 27.4022
 27.2847
 27.3522
 28.2965
 28.2242
 28.268
 28.2081
 26.9319
 27.0156
 27.0136
 26.974
 25.7741
 25.7265
 25.7942
 27.1567
 27.0948
 27.1212
 27.178
 25.0531
 25.0696
 25.0001
 25.1671
 25.1403
 25.1875
 25.1637
 26.6513
 26.6798
 25.3923
 25.3051
 24.25
 24.3145
 24.2431
 24.473
 24.4584
 24.4637
 24.4317
 26.0713
 26.1247
 26.0396
 26.0811
 26.4
 26.4113
 26.4415
 26.3749
 26.0334
 26.0454
 25.9897
 25.9882
 24.6608
 24.6616
 24.6508
 24.6674
 25.4009
 25.3806
 25.3997
 25.4368
 26.9926
 26.9935
 26.998
 26.9365
 25.3818
 25.3684
 25.4095
 25.3389
 25.7738
 25.7527
 25.8101
 25.7466
 25.4535
 25.4001
 25.4144
 28.5615
 28.5299
 28.5188
 26.3778
 26.4099
 26.1808
 26.1822
 26.2304
 26.1549
 25.2921
 25.23
 25.2743
 25.2875
 25.3675
 25.3404
 25.2675
 25.3474
 25.3418
 25.3694
 25.2769
 27.7616
 27.7698
 27.0701
 27.0737
 27.0302
 27.0652
 25.7322
 27.8271
 27.8889
 27.8577
 27.8442
 26.5199
 26.448
 26.5072
 26.5174
 26.1353
 26.1526
 27.3499
 27.2483
 27.2489
 27.3007
 24.4128
 24.3315
 24.3792
 24.3986
 24.6366
 24.6283
 24.6617
 24.5632
 26.7421
 26.6341
 26.7121
 26.6525
 26.4289
 26.4701
 26.3496
 26.382
 26.3824
 26.4266
 26.3846
 25.2907
 25.2687
 25.3384
 25.2865
 26.9727
 26.9352
 26.9066
 26.8905
 25.9882
 25.9504
 25.9976
 25.6142
 25.6118
 25.5766
 25.5338
 26.421
 26.4104
 26.3628
 26.3947
 26.6288
 26.5629
 26.5279
 26.5885
 26.6262
 26.6709
 26.6609
 26.6101
 26.2203
 26.1782
 26.1493
 26.2093
 25.4889
 25.534
 26.5098
 26.4935
 26.4693
 26.5247
 24.4471
 24.5486
 24.5369
 24.5303
 26.7058
 26.6728
 26.7059
 26.6649
 27.2408
 27.2605
 27.1792
 27.2238
 25.7365
 25.7014
 27.5565
 27.5233
 27.6047
 27.5138
 26.3032
 26.2869
 26.329
 24.7869
 24.8194
 24.7657
 24.7607
 27.4639
 27.4769
 27.462
 26.6392
 26.6406
 26.5836
 26.6033
 27.3041
 26.6876
 26.71
 26.7079
 26.773
 25.8977
 25.9338
 25.8915
 25.9097
 26.0927
 26.0787
 26.0466
 26.098
 24.7031
 24.6264
 25.8522
 25.8301
 25.8463
 25.8589
 26.7009
 26.7742
 26.6884
 26.7809
 26.36
 26.2406
 26.3021
 26.358
 24.8623
 24.9104
 24.9024
 24.9074
 26.1466
 26.129
 26.0686
 26.0825
 25.7502
 25.016
 24.9716
 25.0275
 26.3378
 26.3244
 26.3819
 26.2963
 25.4003
 25.4152
 25.3815
 25.4621
 26.2515
 26.287
 26.2928
 26.2192
 24.6891
 24.7586
 24.7643
 24.7336
 24.2641
 24.2266
 24.2963
 26.641
 26.5952
 26.537
 26.5778
 25.6334
 25.5854
 25.6667
 25.6447
 25.3898
 25.377
 25.3326
 25.3042
 26.3899
 26.3976
 26.6261
 26.6713
 26.6868
 26.6159
 26.2517
 26.1587
 25.5975
 25.5813
 25.6099
 25.63
 25.4879
 25.4632
 25.4211
 25.4963
 26.1531
 26.1425
 26.0837
 26.105
 25.6566
 25.6502
 25.6453
 24.8988
 24.9806
 24.9943
 24.9639
 25.1832
 25.2009
 25.163
 26.1791
 26.0782
 26.1641
 26.1247
 26.5524
 26.6278
 26.6668
 26.5844
 25.3939
 25.4572
 25.4598
 25.4088
 26.11
 26.116
 26.177
 26.9998
 27.0122
 26.9974
 27.0119
 26.4114
 26.4241
 26.3899
 26.3681
 25.167
 25.1583
 25.2245
 24.458
 24.5372
 24.5395
 25.4551
 25.4246
 25.4251
 26.4159
 26.4747
 26.3967
 26.4555
 24.5728
 24.5791
 24.5818
 24.5373
 25.5592
 25.5878
 25.5521
 25.51
 25.0717
 25.0426
 24.951
 24.975
 25.1707
 25.1446
 25.178
 25.1716
 27.1673
 27.1936
 27.2134
 26.1807
 26.1648
 26.2071
 26.1586
 25.1307
 25.0893
 25.1538
 25.1531
 26.05
 26.0203
 26.0131
 25.9501
 25.3453
 25.3433
 25.3604
 25.4259
 24.7251
 24.6911
 27.0048
 26.9634
 26.9658
 26.9354
 25.237
 25.2693
 25.1949
 25.257
 26.22
 26.2529
 26.2679
 26.2058
 25.4647
 25.5205
 24.6027
 24.6039
 24.6495
 24.5672
 25.0728
 25.0032
 25.0944
 24.9602
 24.5054
 24.5105
 24.4524
 24.4044
 25.3119
 25.3305
 25.2959
 25.4437
 25.3589
 25.385
 25.3988
 25.348
 25.399
 25.3832
 25.4419
 26.5174
 26.5009
 26.5594
 26.5779
 27.2916
 27.3351
 27.2488
 25.934
 25.9205
 25.9246
 24.9271
 24.9808
 24.9421
 25.0008
 26.1296
 26.0892
 26.039
 26.0841
 26.7271
 26.7924
 26.7706
 26.7201
 25.9311
 25.9986
 26.0146
 26.0272
 26.2555
 26.1717
 26.2456
 24.622
 24.5929
 24.6692
 24.6644
 26.9531
 26.9297
 26.7901
 26.7528
 26.7468
 25.3765
 25.3587
 25.4125
 25.3213
 26.0075
 25.9551
 25.9315
 25.9854
 26.833
 26.8254
 26.7651
 26.8219
 25.7293
 25.8279
 25.8294
 25.755
 26.3319
 26.3708
 26.3041
 26.3028
 24.8797
 24.8692
 24.786
 26.4141
 26.4327
 26.371
 26.3772
 25.73
 25.6918
 26.8437
 26.761
 26.7761
 26.8327
 26.7569
 26.8056
 26.781
 26.8072
 24.7728
 24.8199
 26.6287
 26.5819
 26.6036
 26.6532
 25.8985
 25.9599
 25.9241
 25.9026
 26.2736
 27.2515
 27.303
 27.2875
 25.7253
 25.725
 25.7032
 25.7648
 24.7952
 24.7893
 24.8316
 24.7629
 27.0906
 27.1039
 27.0539
 27.1056
 26.7466
 26.6949
 26.7631
 26.75
 25.3949
 25.3579
 25.354
 27.0276
 27.0073
 26.9821
 26.9588
 24.4634
 24.5411
 24.4841
 24.454
 26.9919
 26.9479
 26.9354
 27.0213
 25.5185
 25.5802
 25.5324
 25.4685
 26.2477
 26.2122
 26.223
 26.2639
 26.7833
 26.7617
 26.7771
 26.2931
 26.222
 26.3019
 26.2434
 26.8763
 26.947
 26.9073
 26.9037
 26.6748
 26.7159
 26.681
 25.2555
 25.2997
 25.2375
 25.2561
 25.3165
 25.9997
 25.8674
 25.9473
 25.9461
 24.765
 24.7996
 24.8238
 24.8011
 25.7245
 25.6661
 25.7592
 25.6893
 25.4661
 25.4216
 25.465
 25.4889
 26.7758
 26.8038
 26.731
 26.6464
 26.6623
 25.6091
 25.6742
 25.6279
 25.5997
 24.8099
 24.7286
 25.7784
 25.7611
 25.812
 25.7457
 26.8547
 26.8729
 26.8144
 24.9062
 24.8879
 24.9377
 24.9125
 25.8163
 25.886
 25.8722
 25.8521
 26.7958
 26.8343
 26.7964
 26.7693
 25.9736
 25.9853
 25.9027
 25.9569
 25.5589
 25.4614
 27.1053
 27.1377
 27.1152
 27.1628
 26.6518
 26.5572
 26.5071
 26.5481
 26.4966
 26.5069
 26.5009
 26.5727
 26.5365
 26.5018
 25.8872
 25.8727
 25.8945
 25.5652
 25.5935
 25.6106
 25.641
 26.5925
 26.5978
 26.5822
 26.5989
 26.2396
 26.2437
 25.7043
 25.7558
 25.7515
 25.7963
 25.7405
 25.7305
 25.9965
 25.9259
 25.9196
 25.9761
 27.5144
 27.445
 27.4569
 27.4183
 25.7335
 26.886
 26.8181
 26.8664
 26.8767
 24.6253
 24.5842
 24.6399
 25.2989
 25.333
 25.3568
 25.2922
 25.9721
 25.932
 25.9553
 26.0428
 25.8902
 25.8399
 25.9061
 26.6655
 26.6178
 26.6444
 26.6783
 24.8128
 24.7676
 24.8846
 24.7985
 25.568
 25.5864
 25.531
 25.5443
 24.8388
 24.8257
 24.9085
 24.8656
 26.8959
 26.8819
 26.9483
 26.9455
 26.5293
 26.4813
 25.2895
 25.3154
 25.3475
 25.3145
 24.7561
 24.7603
 24.7525
 24.7825
 24.2955
 24.2697
 24.3138
 24.2345
 24.8341
 24.8747
 24.8197
 25.5636
 25.5322
 25.5865
 25.5538
 24.9667
 24.9422
 24.9042
 24.9347
 26.9834
 26.9184
 26.8862
 26.936
 25.0467
 25.0166
 24.9993
 25.5736
 25.5901
 25.6027
 25.5984
 26.8828
 26.9216
 26.8871
 26.9347
 25.3944
 25.325
 25.3752
 25.3664
 25.6594
 25.6163
 25.6009
 25.6467
 26.4336
 26.3872
 26.3861
 26.3307
 27.0072
 26.997
 27.0761
 27.0683
 26.0697
 26.0454
 25.9956
 26.0542
 27.6515
 27.6104
 27.553
 27.5664
 26.7391
 26.7033
 26.7495
 26.6055
 26.6717
 26.6651
 26.676
 27.913
 27.8552
 27.9547
 27.8855
 24.9495
 24.9983
 24.9958
 25.1179
 25.1163
 25.0646
 25.0786
 26.5699
 26.4748
 26.5042
 27.2713
 27.2681
 27.2931
 26.9717
 27.045
 26.9706
 26.9739
 26.5043
 26.5142
 26.4616
 26.5578
 25.5366
 25.4686
 25.5135
 25.521
 27.4883
 27.4667
 27.4014
 27.4768
 25.6542
 25.7423
 25.7549
 25.6843
 25.123
 25.0717
 25.1641
 25.1198
 25.7778
 25.772
 25.6914
 25.7078
 26.1227
 26.1578
 26.0729
 26.8482
 26.8507
 26.8563
 26.8093
 24.8245
 24.7691
 24.7593
 24.7668
 25.0689
 25.0285
 25.07
 25.0983
 26.4616
 26.4113
 26.4398
 26.4932
 24.655
 24.624
 24.5996
 24.8147
 24.7314
 24.8043
 24.7845
 24.7567
 24.7313
 24.7949
 24.7683
 27.4492
 27.4643
 27.8832
 27.8771
 27.9237
 27.8236
 25.5334
 25.5587
 25.595
 25.9479
 25.9933
 25.8994
 25.9741
 25.9059
 25.8448
 25.8663
 25.8958
 28.4726
 26.1457
 25.6156
 25.5585
 25.121
 25.0782
 25.1063
 25.0936
 27.2868
 26.2588
 26.2038
 26.2594
 24.2179
 24.2653
 24.2636
 24.2623
 25.8769
 25.9226
 25.882
 25.8349
 24.567
 24.6174
 24.5831
 24.6277
 26.1263
 26.0584
 26.1606
 26.2896
 26.2298
 26.2662
 24.9912
 24.9589
 25.0356
 24.9852
 25.6733
 25.6945
 25.7338
 25.7762
 26.9697
 27.0215
 26.9228
 26.9474
 25.0594
 24.9559
 24.9944
 24.6518
 24.5669
 24.5651
 24.6509
 25.0946
 25.1036
 25.1595
 25.0926
 26.5838
 26.5963
 26.4976
 26.6009
 26.4106
 26.456
 26.4466
 26.4557
 24.9158
 24.8672
 24.8718
 24.8645
 26.1504
 26.1788
 26.2197
 25.234
 25.2207
 25.2534
 25.281
 26.8359
 26.7794
 26.8679
 26.8651
 25.6028
 25.5851
 25.6515
 25.6239
 26.8975
 26.8509
 26.8898
 26.8892
 25.7525
 25.6862
 25.7306
 25.7196
 25.166
 25.1471
 25.0953
 25.2192
 27.0411
 27.0606
 27.0048
 25.7931
 25.7447
 25.0491
 25.0881
 25.0855
 25.127
 26.1581
 26.1942
 26.198
 26.9218
 26.9711
 26.9955
 26.9667
 25.4648
 25.44
 25.4792
 25.4217
 25.5487
 25.5619
 25.4686
 25.5371
 28.1906
 28.2066
 28.1264
 28.1536
 25.9601
 26.0171
 25.9766
 27.792
 27.7331
 27.7232
 25.8502
 25.8603
 25.9014
 25.8896
 25.953
 26.8633
 26.8708
 26.9591
 26.9435
 26.0844
 26.0393
 26.0116
 25.1059
 25.1124
 25.1146
 25.137
 26.0114
 25.9804
 25.9513
 25.9524
 25.9667
 25.9852
 25.9965
 24.304
 24.3432
 24.3599
 24.4123
 26.6097
 26.4898
 26.5221
 26.5681
 27.0969
 27.0922
 27.0612
 27.075
 26.2912
 26.313
 26.2205
 26.2801
 24.9569
 24.9158
 24.9169
 24.9955
 28.2502
 28.1801
 28.2147
 28.1248
 25.3013
 25.3648
 25.3143
 25.3088
 27.0554
 27.1095
 27.0884
 27.0964
 25.0641
 25.1848
 25.163
 25.1108
 25.1384
 25.1822
 25.21
 25.1628
 25.2838
 25.2484
 26.5814
 26.6172
 26.6221
 26.5872
 24.8213
 24.8301
 24.8269
 25.2321
 25.3246
 25.2796
 25.2173
 26.6469
 26.5798
 26.6215
 26.6848
 26.274
 26.3019
 26.223
 28.5699
 28.5671
 28.604
 28.5661
 25.9395
 26.0385
 25.954
 24.8628
 24.815
 24.8532
 24.8738
 25.1093
 25.1479
 24.8681
 24.8148
 24.7643
 24.8564
 25.2876
 25.2785
 27.1059
 27.0524
 27.151
 27.0176
 25.1887
 25.2059
 25.1957
 25.2669
 25.8404
 25.7985
 26.344
 26.2968
 26.309
 26.3358
 25.2378
 25.2132
 25.1759
 25.211
 26.5358
 26.628
 26.622
 26.5518
 24.8791
 24.8905
 24.8374
 24.7384
 25.6306
 25.6111
 25.6854
 27.2618
 27.2982
 27.3048
 27.2562
 25.5451
 25.5642
 25.5915
 25.6182
 26.5947
 26.6498
 26.6804
 26.7031
 26.5651
 26.6326
 26.5833
 28.3054
 28.3035
 28.3246
 28.2745
 27.0107
 26.9121
 26.8911
 26.9856
 25.0687
 25.109
 25.0499
 25.109
 26.0207
 26.0074
 26.0616
 26.2161
 26.8083
 26.7716
 26.7972
 26.7531
 26.2074
 26.2525
 26.2196
 26.1991
 25.3919
 25.3124
 25.3003
 25.3695
 26.8316
 26.8294
 26.7241
 27.3079
 25.6505
 25.6215
 25.6913
 25.5977
 26.792
 26.6996
 27.7959
 27.8571
 26.7921
 26.7451
 26.7939
 26.873
 25.3388
 25.2907
 25.0454
 25.0473
 25.0171
 25.0577
 26.4014
 26.3522
 26.331
 26.3576
 24.6928
 24.6802
 24.6227
 24.6849
 26.327
 26.3238
 26.4464
 26.4316
 25.249
 25.241
 25.2648
 25.3469
 26.6351
 26.631
 26.6021
 26.5987
 25.1611
 25.1224
 25.1961
 25.1465
 26.1182
 26.0732
 24.7712
 24.8
 25.4891
 25.4502
 25.5059
 25.4392
 25.4745
 25.4942
 25.4913
 25.4305
 25.7732
 25.8093
 25.7568
 25.7525
 25.1645
 25.2459
 25.172
 25.1103
 26.6518
 26.714
 26.6774
 26.68
 24.8018
 24.817
 24.8351
 24.6965
 24.6881
 24.7508
 24.707
 26.8745
 26.7986
 26.797
 26.8265
 25.3042
 25.384
 25.3698
 25.3465
 26.8673
 26.8113
 26.8075
 26.7529
 25.8774
 26.0008
 25.9157
 25.9168
 26.0063
 25.0381
 25.029
 25.0248
 25.0945
 27.6415
 27.6904
 27.6416
 27.5931
 25.3454
 25.3071
 25.2612
 25.3148
 25.8926
 25.8268
 25.9451
 25.8937
 25.378
 25.4227
 25.4292
 25.4276
 25.4432
 24.3373
 24.3811
 24.464
 24.4159
 25.1423
 25.1429
 25.2331
 25.205
 27.7522
 27.698
 27.6482
 27.7579
 26.1432
 26.2077
 26.2339
 26.1759
 26.4525
 25.8078
 25.8301
 25.8068
 25.7568
 24.8762
 24.878
 24.9313
 24.9662
 25.0421
 25.0356
 24.9853
 24.8785
 25.01
 24.9436
 24.9745
 28.1806
 28.1345
 25.2342
 25.2295
 25.2107
 26.4489
 26.456
 26.467
 26.3978
 25.2979
 25.3264
 25.2791
 25.3325
 25.7647
 25.4398
 25.4929
 25.4313
 25.4621
 24.6921
 24.79
 24.7666
 24.697
 25.4383
 25.398
 25.3167
 25.4238
 26.1743
 26.1561
 26.2379
 26.1113
 26.891
 26.8768
 26.916
 26.8616
 24.4305
 24.5136
 24.4034
 24.4379
 25.3204
 25.3473
 25.2927
 25.3642
 24.5212
 24.5547
 24.5357
 24.4753
 26.465
 26.5543
 26.4641
 26.4523
 25.7492
 25.7805
 24.7477
 24.6679
 24.7579
 24.7114
 25.7666
 25.7446
 25.7429
 25.6886
 25.9853
 25.9168
 25.8447
 25.7836
 25.7675
 25.8377
 25.0063
 25.027
 25.0437
 24.9837
 26.3169
 26.3917
 26.4277
 26.3604
 27.1011
 27.0387
 27.0784
 27.0777
 26.9668
 26.996
 27.0012
 26.9929
 26.4078
 26.382
 26.3792
 26.4439
 26.0839
 26.1713
 26.106
 26.0733
 26.1627
 26.1219
 26.0943
 25.8864
 25.9315
 25.9459
 25.9069
 27.1526
 27.1923
 27.1531
 26.247
 26.259
 26.1893
 26.1984
 25.81
 25.7727
 25.7692
 25.8377
 26.5416
 26.5962
 26.5073
 26.6025
 26.411
 26.3608
 26.3736
 26.3791
 25.6937
 25.6886
 25.6436
 25.604
 25.9938
 26.0434
 26.0035
 26.0247
 25.4186
 25.4424
 25.4042
 25.422
 26.9807
 26.9651
 26.9407
 25.099
 25.1238
 25.0552
 25.1221
 26.531
 26.4687
 26.5013
 26.5501
 26.1462
 26.1905
 26.2136
 26.129
 26.0127
 25.9652
 25.9429
 25.5571
 25.5679
 25.5431
 25.4954
 25.4736
 25.4618
 25.4271
 25.4932
 25.375
 25.3701
 25.3123
 25.0041
 24.9654
 24.9859
 25.5333
 25.5621
 25.6017
 25.5429
 24.899
 24.8635
 24.9407
 24.8237
 24.821
 24.8386
 24.8927
 25.9813
 26.0934
 26.0342
 26.0563
 26.424
 26.4721
 26.4201
 26.4666
 26.7109
 24.9738
 25.0073
 24.9152
 24.9639
 24.9162
 25.0258
 28.3537
 28.4017
 28.3486
 28.3314
 25.2245
 25.2751
 26.0989
 26.1774
 26.103
 24.5092
 24.4353
 25.5637
 25.6532
 25.6301
 25.6185
 26.121
 26.0913
 26.0877
 25.231
 25.1227
 25.1966
 25.1503
 26.4521
 26.4347
 26.4789
 26.4158
 27.8637
 27.7937
 27.8143
 27.8769
 25.6675
 25.6572
 25.687
 25.6086
 25.0141
 24.9149
 25.0204
 25.1609
 25.159
 25.1471
 25.2007
 26.5833
 26.6743
 26.649
 26.712
 26.6009
 26.5377
 26.798
 26.747
 26.818
 24.4652
 24.5093
 25.0048
 25.0652
 24.9946
 25.0842
 25.825
 25.7293
 25.7465
 25.2779
 25.3445
 25.2366
 25.2283
 26.5528
 26.6408
 26.6231
 26.5794
 25.896
 25.8989
 25.8468
 25.8336
 25.9462
 25.9025
 25.8992
 25.9482
 26.6578
 26.6214
 26.6304
 26.555
 26.589
 26.5659
 26.5728
 24.251
 24.177
 24.2327
 24.146
 27.0533
 27.1362
 24.8386
 24.8315
 24.8341
 24.8805
 26.1278
 26.071
 26.0953
 26.1236
 25.8079
 25.7682
 25.7655
 25.7672
 27.0083
 26.9439
 25.8167
 25.8589
 25.8627
 25.8947
 26.1091
 26.1293
 26.1467
 26.0893
 25.088
 25.1067
 25.1278
 25.0951
 25.9868
 25.9507
 25.9349
 26.0238
 26.4833
 26.4843
 25.608
 25.6075
 25.638
 25.5879
 25.3354
 25.3643
 25.3123
 25.8067
 25.7459
 25.7634
 25.7372
 26.7473
 26.7195
 26.761
 26.6782
 28.0231
 27.9573
 27.9685
 28.0266
 25.996
 26.0326
 25.9924
 25.9219
 25.732
 25.651
 25.7096
 25.7307
 26.1468
 26.1149
 26.1848
 26.1703
 26.3412
 26.3822
 26.3399
 26.3059
 25.062
 24.9942
 25.5917
 25.6177
 25.6419
 27.4979
 27.5258
 27.5667
 27.5001
 26.6415
 26.6884
 26.6065
 26.7109
 25.826
 25.8024
 25.8429
 25.8625
 25.0809
 25.0574
 25.0517
 26.0903
 26.1089
 26.1845
 26.1892
 26.5117
 26.4213
 26.4566
 26.5161
 25.2635
 25.3304
 25.3381
 25.2911
 25.5565
 25.5773
 25.5983
 25.5915
 25.0492
 25.0382
 25.0385
 25.2161
 25.2063
 25.2117
 25.1998
 26.2658
 26.2621
 26.2976
 26.3423
 26.035
 26.0411
 25.9844
 27.924
 27.9113
 27.9399
 27.978
 26.5295
 26.5323
 27.1046
 27.1476
 27.0779
 27.0529
 26.695
 26.9504
 24.8727
 26.448
 26.5098
 26.463
 26.5394
 24.4558
 25.5559
 25.6125
 25.5552
 25.6315
 26.5059
 26.4404
 26.4769
 26.2316
 26.1834
 26.1828
 25.0468
 25.0411
 25.1273
 25.0555
 25.1419
 25.1841
 25.1287
 25.174
 26.8029
 26.89
 26.888
 26.8325
 24.6853
 24.6702
 24.6586
 24.7321
 25.9244
 25.9751
 26.021
 25.1465
 25.0974
 25.1325
 25.6899
 25.7532
 25.732
 25.6824
 26.4447
 26.4096
 26.4866
 26.4604
 25.7589
 25.6696
 25.7473
 26.3838
 26.3665
 26.3611
 26.4294
 26.0934
 26.0134
 25.068
 25.0337
 25.0172
 24.9663
 24.8654
 24.7867
 24.8262
 24.8535
 26.6285
 26.5623
 26.6627
 26.6138
 25.2884
 25.3723
 25.3436
 25.2729
 25.6277
 25.72
 25.6395
 25.6049
 26.225
 26.2673
 26.1878
 26.2256
 24.9273
 24.9503
 24.9725
 24.9982
 26.107
 26.1579
 26.069
 26.0774
 25.9058
 25.9526
 25.9545
 25.8614
 26.0294
 26.0686
 26.0187
 26.0097
 26.6044
 26.5455
 26.6926
 26.6529
 26.6071
 26.6798
 27.2161
 27.3172
 27.2563
 27.2297
 25.605
 25.6066
 25.5956
 25.539
 25.625
 25.6961
 25.6811
 24.7446
 24.7282
 24.7128
 24.7165
 24.4259
 24.398
 24.4503
 24.7763
 24.751
 24.8385
 25.7154
 25.6483
 25.5991
 25.6869
 25.3837
 25.3408
 25.3043
 25.4115
 25.1082
 25.0508
 25.1028
 25.0431
 26.3783
 26.4468
 26.429
 26.3866
 27.0987
 27.0438
 27.0168
 27.0147
 24.4761
 24.4766
 24.5205
 24.4015
 26.5182
 26.547
 26.5696
 26.5026
 25.7488
 25.7477
 25.7157
 25.7625
 24.418
 24.4585
 24.5294
 24.3846
 25.4789
 25.5391
 25.4637
 25.4837
 26.1487
 26.1784
 26.1546
 26.1744
 26.5018
 26.5564
 26.5477
 26.9138
 26.8452
 26.8894
 26.9264
 26.7464
 26.7751
 26.7392
 26.7809
 26.6937
 26.7653
 26.5744
 26.5426
 26.6479
 25.0769
 25.111
 25.1231
 25.1349
 24.835
 24.8861
 24.8637
 24.8791
 25.4866
 25.4984
 25.4997
 25.5705
 26.001
 24.8423
 24.817
 24.8295
 24.8623
 26.9749
 26.9739
 26.9854
 26.9952
 24.5787
 24.526
 24.5964
 24.4997
 26.2336
 26.3057
 26.2063
 25.3617
 26.8441
 26.8396
 26.8847
 26.6975
 26.7257
 26.7639
 26.6619
 25.8243
 25.8378
 25.9216
 25.8725
 25.237
 25.2299
 25.2814
 25.1956
 25.9925
 25.3968
 25.4226
 25.4429
 25.9846
 26.005
 25.987
 25.9255
 26.4004
 26.3832
 26.431
 26.4307
 26.2208
 26.2942
 26.2404
 26.2317
 25.3612
 26.6023
 26.5988
 26.5574
 25.1325
 25.1711
 25.1222
 25.1551
 24.9982
 25.0157
 24.9464
 25.0348
 24.785
 24.7578
 24.796
 26.3936
 26.389
 26.4399
 26.3838
 27.0141
 27.0498
 27.0135
 25.0156
 25.0358
 24.9098
 24.9345
 24.9693
 24.9672
 26.0265
 26.0268
 25.9847
 24.5655
 24.5911
 24.5411
 24.606
 25.0577
 25.0872
 25.0635
 25.0301
 25.5114
 25.5342
 25.4862
 25.4782
 25.8111
 25.7929
 25.8214
 25.8754
 26.5373
 26.5558
 26.5697
 26.5106
 24.945
 24.9372
 24.9681
 24.8853
 26.3738
 26.3578
 26.4302
 26.239
 26.1871
 26.1815
 26.1644
 24.8335
 24.8363
 24.7571
 24.807
 25.3945
 25.3941
 25.4196
 25.4366
 24.5661
 24.61
 24.6614
 24.5998
 26.2267
 26.1784
 26.156
 26.1648
 25.7939
 25.769
 25.8405
 25.7255
 25.0093
 25.0154
 24.9775
 25.0075
 25.8133
 25.7588
 25.8223
 25.8086
 24.5675
 24.4767
 24.5512
 26.4078
 26.4318
 26.4436
 26.4336
 25.7048
 25.7078
 25.7148
 25.7669
 25.5415
 25.4736
 25.5257
 25.5214
 25.8781
 25.9227
 25.827
 25.892
 25.0078
 25.0119
 24.9362
 24.9783
 26.0138
 26.073
 26.0437
 26.0619
 25.6073
 25.6233
 25.6109
 25.6628
 27.01
 27.0082
 27.0224
 27.0074
 25.182
 25.1672
 25.2207
 25.2471
 27.029
 27.031
 27.0281
 26.5868
 26.6169
 26.6138
 26.5766
 26.7866
 26.764
 26.6489
 26.7352
 25.1999
 25.2347
 25.1906
 25.1497
 25.4065
 25.3211
 25.3853
 25.3809
 26.2194
 26.2772
 26.2801
 26.3119
 24.378
 24.4198
 24.4755
 27.9048
 27.9257
 25.603
 25.5477
 25.6317
 25.6116
 27.3051
 27.3581
 27.4189
 27.3514
 25.418
 25.4163
 25.3433
 25.3659
 26.2165
 26.3648
 26.386
 26.402
 26.4361
 25.269
 25.2444
 25.2353
 25.2126
 24.9826
 24.9991
 24.9412
 24.9992
 27.0111
 27.0117
 25.3623
 25.3371
 25.247
 25.3421
 25.6691
 25.7776
 25.6648
 25.7202
 26.4933
 26.4869
 26.5349
 26.401
 26.0345
 26.082
 26.0913
 26.0266
 25.0678
 25.1347
 25.0116
 24.8083
 24.8321
 24.8233
 24.8373
 24.4317
 24.4262
 24.4114
 26.3319
 26.3709
 26.3569
 26.3237
 24.768
 24.8243
 24.8374
 24.8505
 26.8009
 26.8596
 26.8362
 26.822
 25.4731
 25.4554
 25.4527
 25.5185
 25.7663
 25.6948
 25.7469
 25.7419
 24.7789
 24.7879
 24.7954
 24.7356
 25.4022
 25.3632
 25.4255
 25.4578
 27.4114
 27.4442
 27.4704
 27.4247
 25.9972
 26.0859
 26.0033
 26.0748
 26.3268
 26.2226
 26.2411
 26.3113
 25.263
 25.2264
 25.285
 25.341
 26.727
 26.7755
 26.8059
 26.79
 25.6223
 25.669
 25.6393
 25.5716
 26.3496
 26.4019
 26.4046
 27.0021
 27.0548
 27.0153
 27.0794
 25.5421
 25.4867
 25.5817
 25.4491
 25.4619
 25.5
 26.5687
 26.6295
 26.6711
 26.7282
 26.7381
 26.708
 26.6859
 24.8095
 28.4374
 28.3894
 28.389
 28.4656
 25.0278
 25.0798
 24.9805
 25.0351
 26.8714
 26.2101
 26.221
 26.2372
 26.1547
 26.339
 26.3742
 26.2581
 26.5362
 26.4577
 26.4928
 26.527
 27.4398
 27.4672
 27.4242
 27.5066
 26.804
 26.7524
 26.7599
 25.8175
 25.8497
 25.8422
 26.3463
 26.3675
 24.2932
 24.3694
 24.377
 26.7633
 26.712
 26.7854
 26.2096
 26.1608
 26.1412
 24.7555
 24.6947
 24.708
 25.226
 25.2223
 25.1622
 25.2259
 26.5276
 26.4819
 26.4666
 26.9699
 27.0432
 24.6737
 24.7352
 24.654
 24.6773
 27.2545
 27.2211
 27.2939
 27.1794
 26.7549
 26.7771
 28.0153
 28.0831
 27.7201
 27.734
 27.6866
 26.2305
 26.196
 26.2607
 24.6876
 24.7636
 24.7808
 25.3727
 25.3595
 25.3054
 26.4826
 26.4272
 26.3606
 26.3269
 26.3869
 24.9312
 27.0648
 27.0676
 27.0345
 27.0298
 26.3294
 26.218
 26.2874
 26.2982
 25.2959
 25.3224
 25.2801
 25.2971
 25.2935
 25.3286
 25.3087
 26.2537
 26.2783
 26.2248
 26.1812
 25.4008
 25.3714
 25.3357
 25.3386
 25.1815
 25.2345
 25.2043
 25.1387
 25.9396
 25.3286
 25.3383
 25.3127
 25.2913
 24.612
 24.5779
 24.6088
 24.6583
 26.6237
 26.7291
 26.7436
 26.668
 24.715
 24.6832
 24.7168
 24.7245
 28.0442
 28.0418
 28.0993
 24.6566
 24.6928
 24.5853
 24.6302
 26.581
 26.5975
 26.6554
 26.646
 25.1784
 25.2336
 25.1947
 25.1539
 26.7698
 26.7697
 26.893
 26.8659
 24.4994
 25.05
 25.1338
 25.1034
 25.1617
 24.9295
 24.8688
 24.8962
 26.9612
 26.9212
 26.9762
 27.0031
 25.2091
 25.2603
 25.2499
 25.2845
 25.657
 25.611
 25.6028
 25.62
 25.7299
 25.6966
 25.7799
 25.7826
 24.4289
 24.501
 26.1139
 26.1053
 26.1074
 26.2779
 26.2293
 26.2091
 26.1673
 25.3302
 25.3666
 25.2623
 25.2612
 25.3092
 25.2762
 25.2763
 25.2322
 25.5522
 25.5505
 25.4954
 25.563
 26.6114
 26.5967
 26.4404
 26.4802
 26.4841
 26.2157
 26.1754
 26.1686
 26.1588
 27.0413
 27.0948
 27.0919
 27.096
 26.3278
 26.3517
 26.4082
 27.4112
 27.4215
 27.3415
 26.2813
 26.2862
 26.335
 26.2472
 26.5881
 26.5079
 26.6034
 26.0071
 25.324
 25.3338
 25.2658
 26.1814
 26.2086
 26.1699
 26.1269
 26.7856
 26.7785
 26.6403
 26.7148
 25.9575
 25.92
 25.9017
 25.8984
 25.0697
 25.108
 24.3555
 24.4099
 24.449
 24.3496
 25.2713
 25.3086
 25.2506
 25.3471
 26.1219
 26.1347
 26.1394
 26.1083
 24.5493
 24.5434
 24.4361
 24.5867
 24.6955
 24.6636
 24.6512
 25.8607
 25.9336
 25.9562
 25.8829
 26.9129
 26.9384
 26.875
 26.0922
 26.0994
 26.0275
 26.0872
 26.9092
 27.0095
 26.9293
 27.0032
 25.4245
 25.4322
 25.4162
 25.5443
 27.0015
 26.9992
 27.004
 26.9819
 26.5845
 26.5363
 26.5206
 26.5595
 24.6426
 24.7113
 24.6357
 24.6903
 25.7765
 25.7773
 25.8282
 25.774
 26.2779
 26.3202
 26.2594
 26.3102
 25.3604
 25.3427
 25.1113
 25.0159
 25.0388
 25.0475
 26.1962
 26.1314
 26.1514
 26.0779
 26.0328
 25.9941
 26.023
 26.03
 26.8745
 26.8399
 26.8914
 26.1751
 26.2179
 26.2529
 28.2683
 28.3621
 28.2983
 28.3455
 26.5331
 26.4985
 26.9593
 26.9123
 26.9374
 26.9899
 25.6275
 25.6815
 25.6328
 25.7007
 27.437
 27.3768
 27.339
 27.403
 26.6919
 26.7077
 26.7752
 25.4701
 25.4479
 25.4534
 25.4821
 26.6464
 26.5973
 26.6704
 26.72
 26.7129
 26.7662
 26.7672
 26.2235
 26.2637
 26.2543
 26.1885
 25.1608
 25.0142
 27.8009
 27.7729
 26.5436
 26.5974
 26.0923
 26.1408
 26.1209
 26.1287
 25.4897
 25.4515
 25.492
 25.4138
 25.9024
 25.9026
 25.8686
 25.8551
 26.9014
 27.0083
 26.912
 26.9747
 25.6823
 25.7513
 25.7131
 26.9025
 26.9224
 26.8873
 26.8887
 24.8334
 24.819
 24.778
 24.8502
 25.5133
 25.5163
 25.5242
 25.5768
 26.8348
 26.7834
 26.8553
 26.0839
 26.1515
 26.0912
 26.0565
 27.0021
 27.0013
 26.974
 26.649
 26.596
 26.6131
 26.6518
 26.7893
 26.8015
 26.7377
 26.7775
 26.1887
 26.2363
 26.2593
 26.2718
 24.6554
 24.6939
 24.7518
 24.7228
 25.6199
 25.5375
 25.5606
 25.574
 26.1331
 26.2052
 26.1485
 25.8214
 25.85
 25.8439
 24.8999
 24.966
 24.9042
 24.9437
 25.5593
 25.5387
 25.6075
 25.5185
 26.2278
 26.1812
 26.1455
 26.1694
 27.0735
 27.0442
 26.8518
 26.8929
 26.8231
 26.8222
 27.8902
 27.9136
 27.9696
 27.8744
 25.3004
 25.285
 25.2875
 25.3106
 26.6483
 26.7235
 26.6934
 26.701
 25.9107
 25.9748
 25.9322
 26.0024
 27.1733
 27.1976
 27.1911
 27.2195
 25.7704
 25.8033
 25.8355
 25.829
 26.0413
 25.2787
 25.3427
 25.35
 25.3352
 26.1894
 26.2594
 26.2761
 26.1983
 26.17
 26.1391
 26.1026
 26.1169
 26.3197
 26.3746
 26.352
 26.3995
 26.7931
 26.8659
 26.7625
 25.0307
 25.015
 24.992
 25.1035
 26.1795
 26.1974
 26.1994
 26.2215
 25.0972
 25.0653
 25.0286
 25.4815
 25.5199
 25.479
 25.5178
 25.19
 25.1089
 25.1541
 25.102
 26.7677
 26.7112
 26.7741
 28.4842
 28.4491
 28.434
 25.3469
 25.2755
 25.2933
 25.7719
 25.6714
 25.7267
 25.6725
 26.2979
 26.2623
 26.2325
 26.271
 26.1444
 26.1122
 26.1956
 26.1774
 27.5775
 27.5301
 27.6374
 27.5274
 25.873
 25.9032
 25.9072
 25.9153
 25.685
 25.6902
 25.6137
 25.6779
 26.6281
 26.6298
 26.4903
 26.6074
 26.549
 26.5404
 25.4355
 25.4849
 25.4556
 25.4467
 26.7083
 26.6462
 25.6221
 25.6451
 26.9035
 28.3141
 28.3345
 28.329
 28.2755
 27.1308
 27.0678
 24.5019
 24.434
 24.4934
 27.0196
 26.9657
 26.9195
 26.9737
 25.3623
 25.3463
 26.609
 26.6219
 26.6115
 26.6106
 26.3686
 26.2658
 26.3166
 25.2791
 25.2698
 25.278
 25.2087
 25.5558
 25.5025
 25.5579
 25.5362
 25.0284
 25.0251
 24.9678
 26.1462
 26.1985
 26.1442
 26.227
 25.9845
 24.9713
 25.0741
 24.9973
 25.0225
 27.0059
 27.031
 26.9798
 26.9532
 25.8712
 25.9141
 25.828
 25.8863
 25.2644
 25.3595
 25.2901
 25.3359
 27.9538
 27.9489
 27.9204
 27.9256
 26.7842
 24.5228
 26.2405
 26.1503
 26.2079
 26.2657
 25.8379
 25.7787
 25.8502
 25.8732
 26.5965
 26.6884
 26.633
 26.6218
 25.8089
 25.8402
 25.8183
 25.8058
 26.86
 26.85
 26.7808
 26.8877
 26.832
 26.7878
 26.8371
 26.1272
 26.0603
 26.1502
 26.1199
 25.2465
 25.1832
 25.3059
 24.2987
 24.2259
 24.2961
 24.3362
 27.6021
 27.6883
 27.6912
 26.0365
 26.0417
 26.0853
 26.0551
 26.1239
 26.0401
 24.8337
 24.8318
 24.8626
 24.7769
 25.3611
 25.4029
 25.3886
 25.434
 26.8
 26.7039
 26.7744
 27.2936
 26.1834
 26.254
 26.2278
 26.1887
 26.0331
 25.9922
 25.9999
 25.482
 25.517
 25.4988
 25.4633
 25.3061
 25.3705
 25.3247
 25.3549
 26.2108
 26.2539
 25.3987
 25.4013
 25.4011
 25.3535
 25.7801
 25.797
 25.7795
 25.7295
 24.7301
 24.6879
 25.5808
 25.6385
 25.5973
 25.6189
 25.4093
 25.3812
 25.3739
 25.3332
 25.5117
 25.4764
 25.5079
 25.5162
 26.0061
 25.9714
 26.1819
 26.1405
 26.187
 26.2228
 26.3474
 26.4046
 26.3798
 26.3621
 25.7521
 25.7043
 25.7117
 25.7323
 26.8483
 26.8061
 26.7576
 26.7341
 26.6111
 26.6311
 26.6538
 26.6329
 27.7631
 27.6947
 27.7026
 27.7779
 26.3509
 26.4513
 25.7641
 25.8601
 25.7892
 25.8162
 26.2357
 26.2505
 26.2254
 26.1824
 25.8654
 25.8236
 25.7934
 25.8475
 26.1346
 26.1253
 25.2727
 25.2923
 24.5667
 24.554
 24.5419
 24.5366
 26.9798
 26.1726
 26.1795
 26.1605
 26.1199
 25.998
 26.0517
 26.0263
 26.0076
 26.4675
 26.5112
 26.5195
 26.5821
 25.3955
 25.4697
 25.41
 25.4759
 25.8042
 25.843
 25.8599
 25.8051
 26.8689
 26.8926
 26.8361
 26.912
 26.9405
 26.2744
 26.2127
 26.2908
 26.2656
 26.3416
 26.2618
 26.313
 26.3457
 26.7854
 26.7799
 26.8422
 26.7827
 26.6304
 26.6156
 26.5364
 26.5732
 26.0589
 26.0007
 26.0788
 26.0816
 26.8633
 26.899
 26.93
 26.9083
 25.8216
 25.8064
 25.8826
 26.5533
 26.554
 26.5706
 26.5758
 27.4694
 27.4273
 25.8091
 25.7723
 25.7575
 25.9201
 25.8529
 25.8785
 25.8475
 26.9422
 26.8977
 26.876
 27.1706
 27.1342
 27.1407
 27.1586
 25.604
 25.6241
 25.564
 25.6056
 25.8432
 25.9218
 25.843
 25.2009
 25.314
 25.2592
 26.0134
 26.059
 26.0479
 25.0174
 25.0351
 25.0014
 27.784
 27.8376
 27.8469
 27.7898
 24.7322
 24.7059
 24.7451
 24.7003
 26.4158
 26.4666
 25.7544
 25.7828
 26.7544
 26.7547
 26.7671
 26.7116
 25.646
 25.6816
 25.6102
 25.2363
 25.1925
 25.2048
 25.195
 24.9713
 25.0561
 27.0047
 26.9982
 27.0318
 25.7963
 25.7973
 25.8508
 26.6191
 26.6684
 26.5986
 26.9171
 26.9186
 26.9389
 26.9533
 26.1803
 26.1561
 26.2125
 26.1329
 26.2512
 26.3114
 26.3003
 26.2571
 25.4277
 25.44
 25.4521
 25.3905
 25.3053
 25.3581
 25.3289
 25.3988
 26.3241
 26.3025
 26.2712
 25.6338
 25.6581
 25.6887
 25.4821
 25.4216
 25.4479
 25.4165
 24.1488
 24.1948
 24.1337
 25.9995
 26.0299
 26.0292
 25.4179
 25.3829
 25.4532
 26.0577
 26.0289
 26.0913
 26.4237
 26.49
 26.4731
 26.9807
 26.9588
 26.9636
 26.9421
 25.9897
 26.1436
 26.0796
 26.1205
 26.5646
 26.5811
 26.6223
 26.8197
 26.7519
 25.5259
 25.5649
 25.4814
 25.532
 25.5047
 25.4535
 25.5352
 25.5663
 26.7666
 26.6965
 26.6637
 26.654
 26.8333
 26.9075
 26.8599
 26.9158
 27.288
 27.3257
 27.2844
 27.3544
 24.7318
 24.7057
 25.0746
 25.155
 25.108
 25.0643
 24.6498
 26.4602
 26.3863
 26.4506
 25.952
 25.937
 25.9783
 26.0041
 26.8278
 26.8228
 26.1001
 26.1157
 26.0424
 27.0411
 27.0181
 25.144
 25.1427
 25.0802
 25.1941
 24.9162
 24.9412
 24.8292
 24.9036
 25.3024
 25.2895
 25.3436
 26.4069
 26.3598
 26.3652
 24.9207
 24.9337
 24.9092
 24.8985
 26.5924
 26.6592
 26.6077
 26.577
 25.2542
 25.2908
 25.3122
 25.2593
 26.5449
 26.6057
 26.6162
 26.516
 26.8544
 26.8294
 26.8757
 24.66
 24.5612
 24.6084
 24.6404
 26.9806
 26.9428
 26.9595
 26.2218
 26.2068
 26.1162
 26.196
 24.6663
 24.6046
 24.635
 26.5239
 26.57
 26.488
 26.5274
 25.5341
 24.8117
 24.7724
 24.8972
 24.8311
 27.0977
 27.0799
 27.0452
 27.0847
 25.5205
 25.6086
 25.5396
 25.5201
 26.0365
 26.0215
 26.0862
 26.8282
 26.8588
 26.8144
 26.9342
 25.5709
 25.6021
 25.5404
 26.61
 26.638
 27.7325
 27.8085
 27.7583
 27.7052
 27.1766
 27.3002
 27.3072
 24.8823
 24.9094
 24.8203
 24.9004
 24.9234
 24.8835
 27.157
 27.1372
 27.2013
 27.1178
 26.276
 26.2507
 26.2586
 26.2227
 26.1048
 26.1829
 26.1801
 26.1614
 25.7774
 25.8034
 25.7327
 25.7875
 25.7906
 25.8825
 25.8248
 25.8758
 24.745
 26.8881
 26.9201
 26.8824
 26.9084
 24.7454
 24.7924
 24.7217
 25.7931
 25.8471
 25.8813
 25.8611
 26.9591
 26.8977
 26.8774
 25.8436
 25.8957
 25.8604
 25.8939
 26.0353
 25.4477
 25.4328
 25.362
 25.3893
 26.5882
 26.6017
 26.591
 26.0302
 25.9434
 25.9912
 24.689
 24.7144
 24.7785
 24.7228
 26.0239
 26.0255
 26.059
 28.0525
 28.0363
 28.0974
 26.0295
 26.0696
 26.028
 26.1258
 25.4304
 25.368
 25.3962
 25.9759
 25.9581
 25.0639
 25.0222
 25.0963
 25.0776
 25.32
 25.2627
 25.2889
 25.305
 24.6101
 24.6337
 24.6756
 24.7232
 25.859
 25.965
 25.8897
 25.8691
 25.3436
 25.3673
 25.3818
 25.3973
 25.0702
 25.0231
 24.9764
 26.6772
 26.6437
 26.7387
 26.697
 26.0798
 26.0229
 26.3786
 26.4221
 26.3737
 26.3943
 25.512
 25.513
 25.5244
 25.4815
 26.0407
 25.991
 26.0001
 26.0632
 25.5883
 25.6227
 25.5555
 25.6225
 25.9902
 25.9766
 25.9208
 25.922
 26.0762
 26.1207
 26.1225
 25.0789
 25.1208
 25.0968
 24.8635
 24.8617
 24.8779
 24.7917
 25.1131
 25.1116
 25.0676
 25.3927
 25.3006
 25.3727
 27.637
 27.6006
 27.6815
 26.0855
 26.0103
 26.0661
 25.1453
 25.1199
 25.1602
 25.1534
 26.0877
 26.0605
 26.0952
 25.807
 25.7977
 25.7671
 25.8477
 25.5391
 25.6594
 25.6226
 25.6208
 26.0604
 26.0099
 26.0296
 25.9879
 26.7285
 26.6889
 26.7209
 26.7579
 26.0664
 25.8243
 25.8373
 25.8015
 25.9119
 26.9784
 26.9522
 26.9394
 26.9457
 26.8989
 26.8429
 26.8775
 26.8465
 26.8159
 26.766
 26.7985
 26.822
 25.5511
 25.5741
 25.4895
 25.4567
 26.6459
 26.6792
 26.6585
 26.6505
 24.4457
 24.5125
 24.4705
 24.5132
 27.254
 27.2147
 27.1723
 27.1725
 26.6462
 26.6401
 26.6595
 27.0595
 27.1141
 27.1423
 27.1343
 26.8089
 26.8592
 26.773
 26.9383
 26.9216
 25.9632
 25.9705
 25.9277
 25.8511
 24.9061
 24.953
 24.9678
 24.8471
 24.8612
 24.8201
 24.8828
 26.7919
 26.8434
 24.5822
 24.5442
 24.598
 25.0679
 25.078
 25.0549
 25.0298
 26.8161
 26.8471
 26.8105
 24.6847
 24.6534
 24.7184
 24.635
 26.333
 26.3182
 26.2765
 26.3714
 26.8056
 26.8815
 26.8365
 26.7864
 27.0905
 26.9898
 27.0339
 27.0463
 27.495
 27.4589
 27.5219
 27.528
 25.663
 25.5662
 25.6248
 25.5713
 26.3011
 26.3017
 26.3233
 26.4027
 24.6476
 24.7341
 24.652
 28.0634
 27.9928
 28.0438
 27.9544
 27.2145
 27.158
 27.1849
 27.1345
 24.7351
 24.631
 24.6896
 24.6912
 26.0521
 26.0468
 25.9973
 25.0276
 24.9552
 24.9387
 26.7135
 26.7193
 26.7973
 24.6171
 24.6987
 24.6958
 24.6441
 24.9773
 24.9969
 25.009
 25.0648
 26.5392
 26.5074
 26.4529
 26.5039
 26.3423
 26.4075
 26.3426
 26.4132
 25.2593
 25.2552
 25.2342
 25.175
 25.8995
 25.9306
 25.9667
 25.9449
 27.3029
 27.2377
 27.2488
 27.2248
 24.9805
 25.1024
 25.025
 25.0514
 24.5474
 25.885
 25.8715
 25.8328
 25.8343
 24.8532
 24.8218
 24.8281
 24.7695
 26.9827
 26.9833
 26.9676
 26.9687
 24.6501
 24.5977
 24.6671
 24.6923
 26.0852
 26.0949
 26.2914
 26.3225
 26.2835
 26.26
 25.2705
 25.3299
 25.3375
 25.3384
 25.7832
 25.7141
 25.7195
 26.3064
 26.3216
 26.292
 25.2795
 25.277
 25.3485
 25.3572
 25.303
 25.3347
 25.2739
 25.3182
 26.7387
 26.7966
 26.8042
 26.047
 25.9303
 25.9315
 25.9972
 27.3569
 27.2896
 27.2313
 27.3212
 27.3654
 24.5929
 24.6967
 24.5847
 24.6899
 25.966
 25.9955
 26.0255
 25.9694
 24.8611
 24.8217
 26.1688
 26.2636
 26.2635
 26.5797
 26.6372
 26.5419
 26.5593
 24.6815
 24.6935
 24.6618
 24.6511
 26.8878
 26.8671
 26.875
 26.5773
 26.6018
 26.5564
 26.5973
 26.3739
 26.3124
 26.3561
 26.4316
 25.4802
 25.3615
 25.4193
 25.3903
 26.6698
 26.5844
 26.6369
 26.64
 25.2765
 25.7163
 25.6494
 25.6274
 25.723
 24.865
 24.8416
 24.9024
 24.7119
 24.7352
 24.7443
 24.7869
 25.6629
 25.6404
 25.7131
 25.6791
 24.421
 24.4206
 24.415
 24.4891
 26.3743
 25.7148
 25.7961
 25.8055
 25.7404
 25.9485
 26.036
 26.0058
 25.9686
 27.4873
 27.4233
 27.4063
 27.4683
 26.038
 26.0211
 26.0016
 26.0706
 26.2229
 26.2076
 26.187
 26.1661
 26.1949
 26.1811
 26.142
 24.9672
 25.0326
 25.0596
 26.234
 26.2949
 26.2828
 26.2429
 24.9328
 24.8408
 24.8898
 25.9778
 26.0081
 25.9188
 25.8839
 25.9018
 25.8411
 25.8533
 25.8347
 26.0007
 25.9848
 25.9056
 25.9334
 24.9425
 24.904
 24.9067
 26.3524
 24.8196
 25.773
 25.7262
 25.7692
 25.8392
 26.7511
 26.727
 26.8045
 26.6578
 26.5949
 26.5755
 25.9048
 25.8907
 25.943
 26.002
 26.0076
 25.97
 25.9423
 25.975
 26.0208
 25.9406
 26.0171
 28.1458
 28.1336
 28.2036
 25.2557
 25.3295
 25.2549
 26.1022
 26.0735
 25.0439
 25.1377
 25.1171
 25.1325
 25.682
 25.6327
 25.6774
 27.4075
 27.4353
 27.5005
 27.4745
 26.1968
 26.285
 26.2362
 26.2106
 26.7167
 26.7439
 26.7826
 26.7992
 25.5178
 25.5991
 25.5605
 25.5278
 26.4741
 26.5103
 26.4841
 26.552
 27.3137
 27.331
 27.342
 26.3172
 26.3423
 26.3748
 26.3616
 25.4725
 25.407
 25.4264
 25.4297
 26.0277
 25.9687
 25.9561
 25.993
 26.6367
 26.6688
 26.6353
 26.2802
 26.325
 26.3027
 26.3151
 26.6824
 26.7486
 26.6696
 26.732
 26.9182
 26.8308
 26.8211
 26.9231
 24.7715
 24.7278
 24.7471
 24.7255
 26.8287
 26.7753
 26.7943
 26.775
 26.6631
 26.7055
 26.6401
 26.6494
 25.6521
 25.5666
 25.6053
 25.5603
 26.325
 26.3536
 26.2917
 26.3066
 24.2596
 24.2214
 24.2271
 24.225
 26.2251
 26.257
 26.2011
 26.9465
 26.9964
 26.9737
 26.923
 26.8581
 26.8918
 26.8685
 26.8941
 26.7753
 26.8617
 25.4812
 25.5254
 25.4794
 25.5575
 24.4185
 24.4771
 24.4474
 24.454
 26.2455
 26.304
 26.269
 26.3043
 26.7838
 26.8213
 26.8327
 25.5448
 25.6031
 25.6169
 25.5554
 26.1243
 26.1532
 26.0891
 26.0716
 26.5904
 26.5915
 26.5984
 26.5451
 26.9893
 26.889
 26.9482
 25.1804
 25.1236
 25.0987
 25.1613
 25.1517
 25.1374
 25.2028
 26.2378
 26.2206
 26.1801
 26.1733
 26.2125
 26.2575
 26.1771
 26.6191
 26.5676
 26.5468
 26.5382
 25.5538
 25.5593
 25.6131
 26.7881
 26.781
 26.8539
 25.9326
 25.8601
 25.8944
 25.1071
 25.1833
 25.1525
 25.4493
 25.4688
 26.3622
 26.3178
 26.3604
 26.3129
 26.2842
 26.3138
 26.1138
 26.1867
 26.565
 27.0471
 27.0321
 27.0896
 24.9169
 24.9259
 25.0134
 26.2169
 26.1748
 26.1919
 26.2364
 26.5948
 25.9844
 25.9388
 25.552
 25.5481
 25.5633
 25.5121
 26.0074
 26.075
 26.0076
 26.204
 26.1737
 26.2693
 26.1851
 26.3317
 26.2215
 26.2178
 26.2613
 26.2799
 26.1769
 24.9749
 25.0295
 25.0436
 25.0026
 24.9494
 24.9034
 24.8185
 24.8493
 26.8222
 26.7657
 25.9641
 26
 26.0113
 26.0555
 25.8185
 25.8015
 25.7848
 25.7589
 25.5591
 25.5079
 25.5689
 25.5772
 26.1133
 26.1418
 26.1652
 26.1006
 26.1854
 26.1483
 26.1738
 26.2076
 25.0982
 25.1863
 25.1152
 25.1379
 26.6749
 26.6001
 26.5983
 26.5477
 26.7022
 26.6276
 26.6667
 25.2167
 25.1612
 25.0956
 25.0802
 26.6183
 26.5732
 26.5895
 26.5454
 24.9066
 24.9352
 24.8882
 24.917
 25.1306
 25.1681
 25.1518
 25.1746
 26.2774
 26.2475
 26.3045
 26.2711
 25.4312
 25.4129
 25.4535
 25.5084
 26.5771
 26.5416
 26.491
 26.4743
 25.3217
 25.3513
 25.3321
 26.8303
 26.7943
 26.8401
 26.8021
 25.7388
 25.7537
 25.7241
 25.6987
 26.3186
 26.3003
 25.3508
 25.2747
 25.3091
 25.3408
 25.294
 25.3032
 25.3385
 26.1604
 26.0852
 26.155
 25.2122
 25.2226
 25.1988
 25.1408
 27.2965
 27.256
 27.2122
 27.2427
 26.5699
 26.5488
 26.4935
 26.4873
 25.6657
 25.7432
 25.7337
 25.6579
 24.8884
 24.885
 24.9247
 24.8897
 25.0701
 25.0162
 25.0026
 25.0648
 24.782
 24.7731
 24.7661
 24.9412
 24.9268
 26.4003
 26.3564
 26.4014
 26.3444
 26.729
 26.6995
 26.7973
 26.7458
 26.4981
 26.4935
 26.3935
 26.334
 26.381
 26.3776
 26.2038
 26.197
 26.1301
 26.1957
 26.7711
 26.7698
 26.8164
 25.8549
 25.8939
 25.8802
 25.91
 24.2613
 24.2835
 24.3443
 26.4191
 26.4284
 26.4063
 26.3553
 25.0475
 25.1214
 25.073
 25.0535
 25.4679
 25.3925
 25.4111
 25.9436
 25.979
 25.9104
 25.4827
 25.4153
 25.4973
 25.0953
 25.1593
 25.5164
 25.5056
 25.5053
 26.5491
 26.5301
 26.5134
 26.5827
 24.858
 24.8162
 24.8622
 24.8827
 25.7269
 25.6522
 25.7053
 27.5457
 27.6057
 27.6268
 27.5484
 26.8466
 26.8866
 25.795
 26.3818
 26.3088
 26.3562
 26.3779
 25.964
 25.9062
 25.9104
 25.3943
 25.3701
 25.4198
 25.3935
 24.89
 24.8506
 26.0369
 26.0642
 26.0602
 26.0971
 26.8953
 26.9329
 26.9424
 26.8544
 25.0729
 25.0303
 25.0466
 25.0716
 25.623
 25.5985
 25.6318
 27.953
 27.9722
 28.046
 28.0539
 26.7928
 26.8083
 26.8652
 26.4665
 26.4282
 26.5033
 26.457
 25.7247
 25.7201
 25.759
 25.6818
 25.9878
 25.9374
 27.0098
 26.9887
 26.9943
 26.994
 25.5898
 25.5239
 26.5247
 26.5914
 26.533
 26.5208
 26.2231
 26.1981
 26.272
 26.22
 26.0102
 25.9547
 25.9177
 25.9704
 26.4577
 26.4896
 26.5563
 25.46
 25.5495
 25.4645
 25.524
 25.174
 25.1252
 25.0742
 25.1725
 25.2258
 25.2337
 25.2345
 25.1649
 26.8959
 26.969
 26.9054
 26.9541
 26.0054
 26.044
 27.6748
 27.77
 27.7094
 27.7909
 26.2941
 26.3603
 26.3814
 24.6
 28.2817
 28.2659
 28.2766
 28.3898
 26.0115
 25.9718
 26.0072
 25.9988
 26.3971
 26.3405
 26.3679
 25.1826
 25.1383
 25.1191
 25.1937
 25.1918
 25.2135
 25.1516
 25.1589
 25.2005
 25.1772
 25.2272
 25.2497
 26.536
 26.4833
 26.5669
 26.4852
 26.744
 26.7778
 26.7887
 26.797
 25.6126
 25.6176
 25.547
 25.6213
 26.2333
 26.3173
 26.2167
 26.2705
 24.358
 24.8439
 24.8083
 25.7284
 25.7346
 26.1464
 26.1905
 26.1817
 24.8168
 24.7253
 24.7852
 24.7986
 26.0461
 26.0741
 25.7999
 25.847
 27.3976
 27.3426
 27.4168
 27.3599
 26.5371
 26.559
 26.6047
 26.5738
 25.6063
 25.5351
 25.5998
 25.5461
 27.2394
 27.3157
 27.2622
 27.233
 24.4352
 24.4737
 24.402
 24.4669
 24.8963
 24.9777
 24.7859
 24.8246
 24.8718
 24.7836
 25.1928
 25.1455
 26.3148
 26.2754
 26.3122
 28.0751
 28.0123
 28.0962
 28.1031
 27.1726
 27.132
 27.1265
 27.1799
 24.8728
 24.8194
 24.872
 24.9064
 25.3837
 25.2918
 25.3351
 25.8943
 25.948
 25.9915
 25.9164
 26.4772
 26.4059
 26.4528
 26.4779
 24.9741
 24.9214
 24.9719
 24.8493
 25.9333
 25.8619
 26.4805
 26.4555
 25.5285
 25.4717
 25.5568
 25.5349
 26.7324
 26.8063
 26.7097
 26.8217
 26.8514
 26.926
 26.89
 28.0248
 27.9006
 27.9062
 27.9674
 26.4438
 26.41
 26.4193
 26.3648
 25.0638
 25.0491
 25.1622
 25.1022
 25.1442
 25.1025
 26.5708
 26.5742
 26.5184
 26.6143
 25.3118
 25.3475
 25.2916
 25.5212
 25.5309
 25.4995
 25.551
 25.1214
 25.0546
 25.121
 25.0534
 26.4893
 26.4343
 26.4527
 26.4773
 24.7206
 24.8188
 26.184
 27.5678
 27.5528
 27.4989
 27.4836
 25.297
 25.3175
 25.2671
 27.2541
 27.2912
 27.237
 27.3214
 25.4509
 25.456
 25.4481
 25.3941
 26.9283
 26.9314
 27.0032
 26.9041
 26.6966
 26.7035
 26.6473
 26.6332
 25.5692
 25.5227
 25.5139
 26.3548
 26.3254
 26.3701
 26.4022
 25.7158
 25.7212
 25.6848
 25.7709
 25.7474
 25.8149
 25.0789
 25.0592
 25.0698
 25.4986
 25.4861
 25.5183
 27.6858
 27.6835
 27.6239
 27.6717
 26.8216
 26.7519
 26.8466
 26.7321
 24.9587
 25.0405
 25.048
 25.0544
 25.2415
 25.2675
 26.6471
 26.5411
 26.6469
 25.4963
 25.5724
 25.5656
 25.6077
 25.5489
 25.5703
 25.5926
 26.5356
 26.5662
 26.5297
 26.5154
 24.7401
 24.7473
 26.343
 26.3649
 26.3408
 26.3143
 26.626
 26.6215
 26.6016
 25.488
 25.4703
 26.0156
 26.0328
 26.0459
 25.9726
 26.925
 26.9518
 25.6305
 25.6664
 26.3145
 26.3864
 26.3691
 26.3353
 25.8563
 25.852
 25.9027
 25.819
 25.8614
 25.9001
 25.8699
 27.0478
 27.0308
 27.0654
 26.9561
 27.2058
 27.2103
 27.1617
 27.1946
 25.4401
 25.4731
 25.5216
 25.4869
 24.9229
 24.918
 24.9574
 24.9564
 25.7612
 25.7305
 25.7869
 25.9786
 26.0174
 26.0415
 26.0024
 25.9575
 25.241
 25.2252
 26.4336
 26.3752
 26.4307
 26.4463
 26.6759
 24.9254
 24.9418
 24.986
 24.959
 25.976
 26.068
 26.0459
 25.9961
 27.8968
 27.856
 26.151
 26.2239
 26.1499
 27.6507
 27.6341
 27.6725
 27.6104
 25.6855
 25.727
 25.6924
 25.718
 26.94
 26.8659
 26.8557
 26.5422
 26.4848
 24.6864
 24.6907
 24.6933
 24.8161
 24.8104
 24.8417
 26.7791
 26.6966
 26.5947
 26.6035
 27.7804
 27.8182
 27.8314
 27.8632
 24.9173
 25.0072
 24.9067
 26.7126
 26.7026
 26.6672
 26.7518
 26.618
 26.6454
 26.5707
 26.6439
 25.4794
 25.4504
 25.4318
 25.464
 25.7077
 25.5785
 25.6455
 25.4804
 25.4756
 25.5368
 25.4764
 25.2662
 25.3344
 25.213
 25.3592
 26.9845
 26.978
 26.8019
 26.8001
 26.7597
 25.746
 25.7764
 25.8284
 25.8071
 26.6532
 26.6583
 26.5919
 26.6165
 25.4113
 25.4517
 25.4403
 25.4096
 26.9478
 26.8601
 24.984
 25.0226
 24.9957
 25.0508
 25.3896
 25.4852
 25.4423
 25.3748
 26.4538
 26.4467
 26.4685
 26.4129
 25.1095
 25.0397
 26.1786
 26.1653
 26.1434
 26.132
 27.3292
 27.3091
 27.3229
 27.3133
 26.9528
 26.9173
 26.9517
 26.8999
 24.6732
 24.6448
 24.6108
 24.625
 24.8952
 24.9225
 24.9461
 26.488
 26.4981
 26.5065
 24.7014
 24.6579
 26.1582
 26.1212
 26.1584
 26.0713
 25.0516
 25.0942
 25.0449
 25.0967
 26.6539
 26.6868
 26.6412
 26.6888
 27.0513
 26.9884
 27.0383
 25.1719
 25.1046
 25.1082
 25.1413
 26.2604
 26.1775
 26.1918
 26.2174
 26.7543
 26.7315
 26.6882
 26.7922
 26.9173
 27.0328
 26.9075
 25.7298
 25.8029
 25.706
 25.9257
 25.9142
 25.9599
 25.8916
 25.7786
 25.784
 25.7214
 25.7944
 26.3377
 26.2724
 26.3313
 26.2812
 26.5655
 26.5507
 26.5191
 26.5927
 26.8082
 26.8722
 25.5488
 25.4679
 25.5505
 25.5484
 25.8708
 25.951
 25.8874
 25.9243
 25.8482
 25.9306
 25.944
 25.9958
 25.893
 25.9173
 27.6169
 27.5812
 27.54
 27.5708
 24.8924
 24.8158
 24.8744
 26.2761
 26.2827
 26.2846
 26.34
 26.0387
 26.0854
 26.04
 26.8751
 26.8276
 26.9024
 26.8808
 26.6977
 26.7571
 26.7169
 26.733
 26.2727
 26.2565
 26.2125
 26.6277
 26.6597
 25.3695
 25.4036
 25.3206
 24.5963
 24.574
 24.6361
 24.6032
 26.7158
 26.765
 26.7722
 26.6762
 26.0549
 26.004
 25.9901
 26.0556
 25.2424
 25.2292
 25.2789
 25.2833
 26.6442
 26.6233
 26.6709
 26.5817
 26.4953
 26.4634
 26.4448
 26.3949
 25.1521
 25.2046
 25.2695
 25.2588
 26.5154
 26.4453
 24.9792
 25.0006
 24.9472
 25.8026
 25.85
 27.1153
 27.1577
 27.1533
 27.1836
 26.258
 26.2322
 26.2153
 26.2283
 27.1831
 27.2221
 27.1872
 26.0916
 26.1025
 25.6692
 25.6344
 25.5671
 25.6646
 26.242
 26.2364
 25.5383
 25.4856
 26.3068
 26.3427
 26.3124
 26.2926
 25.5551
 25.607
 25.541
 25.52
 25.3061
 25.2417
 25.1876
 25.2301
 24.7209
 24.7092
 24.7419
 24.7373
 26.0338
 26.0018
 26.691
 26.6888
 26.788
 26.814
 25.2515
 25.3144
 26.8377
 26.7789
 26.8118
 27.4806
 27.4671
 27.3739
 27.415
 27.5847
 27.544
 27.5711
 25.9533
 25.8832
 25.8879
 25.8988
 26.2965
 26.2451
 26.2873
 26.7537
 26.4751
 26.4253
 26.5004
 26.4344
 26.7645
 26.7239
 26.806
 26.7441
 26.3318
 26.3801
 26.3214
 26.3781
 25.5012
 25.6086
 25.6076
 25.5179
 24.7309
 24.7566
 24.7596
 24.6985
 26.1637
 26.1819
 26.0998
 26.122
 25.1516
 25.1817
 25.0819
 25.1017
 26.477
 25.4595
 25.541
 25.5038
 25.5192
 27.1181
 27.163
 27.1219
 27.1247
 25.437
 25.38
 25.3751
 26.3849
 24.918
 24.909
 24.9454
 24.8589
 24.7935
 24.7841
 24.7807
 24.8052
 24.8826
 24.826
 24.8049
 25.9654
 25.9756
 25.9627
 26.0332
 24.8597
 24.8486
 24.8228
 24.8218
 26.7476
 26.7847
 26.801
 26.8057
 25.5904
 25.6146
 25.6097
 25.6698
 26.1685
 26.0956
 26.1083
 26.1612
 27.3374
 27.2836
 27.3401
 25.6707
 26.0744
 26.0896
 26.1152
 26.0464
 24.8288
 24.7804
 24.7796
 24.7639
 24.8108
 24.765
 24.7153
 24.7378
 25.5963
 25.6151
 25.5768
 25.6225
 26.4541
 26.4977
 26.5203
 26.4972
 26.2253
 26.1597
 26.2055
 24.875
 24.8473
 24.8832
 24.9431
 24.782
 24.746
 24.7618
 24.7977
 26.7752
 26.8079
 26.805
 25.2103
 25.1566
 24.8405
 24.8603
 24.8518
 26.7441
 26.7822
 26.7122
 26.7084
 25.3754
 25.2945
 25.3994
 25.4084
 26.2584
 25.787
 25.7718
 25.7388
 25.7868
 25.6274
 25.6786
 25.6187
 25.7136
 24.7961
 24.7649
 25.0633
 24.9907
 25.0395
 24.9855
 25.0823
 24.9968
 25.0326
 24.9712
 25.1461
 25.208
 25.1255
 25.2004
 25.3657
 25.3211
 25.3544
 25.326
 27.2226
 27.1407
 24.8667
 24.842
 24.8026
 26.992
 27.0087
 26.9913
 26.5735
 26.6596
 26.6751
 26.5985
 25.3316
 25.3677
 25.3236
 25.2675
 26.1401
 26.1983
 26.1729
 26.1658
 24.5422
 24.5982
 24.5373
 24.4929
 25.7989
 25.8136
 25.7738
 25.7902
 25.1228
 25.078
 25.1291
 25.5147
 25.5166
 25.8352
 25.9265
 25.856
 25.8531
 25.9051
 25.9996
 25.9117
 25.9703
 26.8136
 26.7731
 26.7666
 25.5972
 25.5421
 25.5708
 25.5191
 26.3323
 26.3041
 26.2586
 24.9712
 24.9847
 24.9094
 24.9999
 24.7868
 25.728
 25.8084
 25.8172
 25.7609
 25.5323
 25.4906
 25.486
 25.5048
 25.6331
 25.6693
 25.6903
 28.1416
 28.2052
 28.1313
 28.1298
 26.5957
 26.5485
 26.9165
 26.9741
 26.0897
 26.1845
 26.1663
 26.12
 28.4967
 28.4686
 24.5862
 24.565
 24.5461
 24.4958
 25.3661
 25.2504
 26.8208
 26.8331
 26.7911
 26.7947
 26.0761
 26.0687
 26.0251
 26.0459
 25.0804
 25.0188
 25.0459
 25.1122
 26.5169
 26.5387
 26.4895
 26.5111
 26.1378
 26.1755
 26.1091
 26.1409
 25.0225
 24.9859
 24.9859
 24.929
 26.1585
 26.1372
 26.1277
 26.2187
 24.7553
 24.8124
 24.7954
 24.8184
 25.5913
 25.5447
 25.5573
 26.6055
 26.6023
 26.6858
 26.6135
 25.6934
 25.7498
 25.7145
 25.753
 25.8623
 25.9081
 26.3664
 26.2748
 26.2636
 25.5675
 25.5808
 25.5113
 25.5002
 24.6984
 24.7026
 24.6404
 24.6389
 24.9228
 24.8771
 24.8403
 24.9332
 26.684
 26.6912
 26.7449
 26.7254
 26.9735
 26.9775
 26.9968
 26.9881
 26.8225
 26.902
 26.8353
 26.8755
 27.031
 27.0189
 27.0483
 25.9458
 25.9572
 25.9428
 26.0283
 25.2091
 25.1788
 25.3943
 25.3185
 25.3674
 25.3677
 25.243
 25.2012
 25.2735
 26.6336
 26.6862
 26.6657
 26.7062
 25.9662
 25.956
 25.9169
 25.928
 24.5472
 24.5411
 24.5242
 24.485
 25.8098
 25.8425
 25.8737
 25.8082
 25.7294
 25.7997
 25.7214
 25.7788
 24.9057
 24.8687
 24.9221
 24.9236
 26.8614
 26.9469
 26.9225
 26.8884
 25.3845
 25.4023
 26.8895
 26.9382
 25.1205
 25.1771
 25.1209
 25.0717
 25.8645
 25.8766
 25.854
 25.9279
 27.1272
 27.058
 27.0988
 26.9386
 26.9668
 26.986
 26.9938
 26.4524
 26.5276
 25.8575
 25.8839
 25.8411
 25.8785
 25.5324
 25.541
 25.4964
 26.2694
 26.3203
 26.3282
 26.2641
 26.2974
 26.2061
 26.2981
 26.2374
 25.2847
 25.348
 25.3276
 25.3203
 27.0332
 27.0345
 27.0132
 24.638
 24.622
 24.7013
 24.6887
 25.6567
 25.6745
 25.6628
 26.6909
 26.6689
 26.6474
 24.8056
 24.8031
 24.8598
 24.7735
 25.1522
 26.448
 26.5152
 26.5022
 26.4792
 24.8435
 24.9445
 24.9098
 24.8618
 25.6403
 25.5705
 25.5939
 24.6787
 24.6702
 24.6691
 24.6717
 24.866
 24.9139
 24.9074
 24.843
 24.8268
 27.0992
 27.059
 26.0763
 26.0964
 26.0207
 26.0661
 27.2497
 27.2956
 27.2917
 27.2647
 26.3873
 25.6501
 25.622
 25.7164
 25.3909
 25.3426
 25.2912
 25.3877
 26.3819
 26.3726
 26.4214
 26.432
 26.5926
 26.609
 25.7115
 25.6811
 25.6794
 26.5036
 26.5384
 26.4972
 26.4631
 26.5736
 26.5717
 26.5413
 26.526
 24.8362
 24.8011
 26.3591
 26.313
 26.3556
 26.3623
 27.041
 26.945
 27.0343
 26.9607
 26.6201
 26.6074
 26.4829
 26.5852
 27.0319
 27.0808
 27.0372
 25.1931
 25.2498
 25.1671
 25.4123
 25.4124
 24.868
 24.854
 24.9016
 26.8111
 26.8849
 26.8627
 26.8664
 26.7386
 26.7047
 26.6743
 28.2286
 28.1259
 28.222
 28.2673
 25.2314
 25.3178
 25.2319
 25.193
 26.5147
 26.4908
 26.5203
 26.43
 25.6653
 25.7133
 25.6965
 25.6602
 25.2639
 25.2812
 25.3483
 25.3073
 26.7389
 26.7318
 26.7083
 26.678
 26.091
 26.0385
 26.095
 25.4368
 25.4299
 25.3875
 25.6425
 25.6513
 25.6613
 25.5898
 26.1158
 26.1851
 26.1861
 26.1777
 25.6369
 25.6069
 25.5839
 27.0557
 26.9421
 27.0398
 27.027
 26.0169
 26.0116
 26.0005
 26.0604
 26.7645
 26.822
 26.8177
 26.8036
 26.8697
 26.9565
 26.8594
 26.8784
 24.4669
 24.3837
 24.4968
 26.7462
 26.7982
 26.747
 24.4618
 25.1713
 25.1601
 25.2419
 25.214
 26.9174
 25.4005
 26.4653
 26.4718
 26.5148
 26.5023
 27.0453
 27.0884
 27.1208
 27.0848
 25.5212
 26.1232
 24.64
 24.6617
 24.6525
 24.6627
 28.1286
 28.0858
 28.1108
 26.5149
 26.5667
 26.5861
 26.9696
 27.042
 24.3544
 24.3136
 24.4004
 24.3655
 26.2387
 26.3307
 26.2707
 26.2566
 25.1225
 25.0591
 25.0535
 25.616
 25.6669
 25.506
 25.5323
 25.4372
 25.5
 24.8017
 24.8474
 24.8592
 24.8153
 26.1154
 26.1135
 26.026
 26.0581
 24.9324
 24.8942
 24.9546
 24.9193
 26.0088
 25.9667
 25.9046
 25.9865
 25.2854
 25.2711
 25.2444
 25.3157
 25.1754
 25.24
 25.1821
 25.0581
 26.6424
 26.7353
 26.6177
 26.582
 25.9211
 24.7279
 24.6394
 24.6761
 24.6639
 25.7714
 25.7607
 25.8415
 25.7449
 25.6803
 25.6683
 26.7813
 26.8332
 26.8395
 26.7663
 26.3884
 26.4508
 26.3903
 25.9633
 25.9779
 26.0021
 26.0383
 24.5051
 24.5714
 24.5829
 24.5575
 26.5407
 26.5417
 26.5865
 26.6011
 25.4205
 25.5079
 25.5055
 25.4707
 25.9911
 25.9804
 26.0276
 26.8559
 26.7922
 26.8193
 26.8102
 27.4271
 27.4084
 27.4826
 27.3821
 26.4076
 26.453
 26.4661
 25.0753
 25.0727
 25.0315
 25.7654
 25.2699
 25.3468
 25.3165
 25.3152
 26.5495
 26.5688
 26.5614
 26.563
 24.9855
 24.8818
 24.936
 24.9527
 25.8609
 25.948
 25.5369
 25.5773
 25.5574
 25.5251
 25.5
 25.5218
 25.6191
 27.5397
 27.5081
 27.6049
 27.5401
 24.3021
 24.1912
 24.2292
 24.2918
 26.3591
 26.3016
 26.3298
 26.6813
 26.6349
 26.726
 26.6173
 25.459
 25.5433
 25.5104
 27.9451
 28.0102
 28.0554
 27.9804
 25.2864
 25.2808
 25.2017
 25.1896
 25.2418
 25.2296
 26.9517
 27.0011
 26.9736
 27.0129
 26.786
 26.7851
 26.7622
 26.8132
 27.2933
 27.2414
 27.2019
 27.2827
 26.1275
 27.3347
 27.269
 27.2779
 27.2655
 25.2767
 25.3382
 25.3524
 25.3762
 26.7701
 26.6984
 25.3748
 25.3388
 25.3388
 25.4112
 25.067
 25.0323
 25.0713
 25.0364
 24.5574
 24.52
 24.5264
 24.4452
 28.1058
 28.1307
 28.0458
 25.6517
 25.5877
 25.6101
 25.619
 25.1536
 25.1397
 25.1938
 25.1662
 27.5568
 27.5117
 27.4924
 27.5659
 25.6472
 25.2821
 25.2597
 25.2371
 25.2992
 24.8503
 24.8198
 24.8507
 26.1187
 26.0901
 26.098
 26.0574
 24.6156
 24.5337
 24.4989
 24.5363
 25.7668
 25.7361
 25.7693
 25.7776
 25.6938
 26.5778
 26.6588
 26.5609
 25.8217
 25.8885
 25.8615
 25.7958
 25.8926
 25.8734
 25.8443
 25.9287
 26.3664
 26.4425
 26.4201
 27.0061
 27.418
 27.3589
 27.4829
 25.5585
 25.516
 25.5361
 25.2974
 25.284
 25.3196
 26.6536
 26.5891
 26.6206
 26.535
 25.4184
 25.4585
 24.9005
 24.9337
 24.9531
 24.9289
 24.7513
 24.7657
 24.7692
 24.9922
 24.9479
 25.6161
 25.5663
 25.6076
 25.0721
 25.1559
 25.1042
 26.7889
 28.0019
 28.0423
 27.9759
 27.9868
 25.6679
 25.651
 25.704
 25.6869
 27.7962
 27.7732
 27.7092
 27.8026
 25.3619
 25.3539
 25.3224
 25.9727
 25.9954
 26.0493
 26.0605
 26.5438
 26.5077
 26.6051
 26.5679
 25.7474
 25.7324
 25.6772
 25.3545
 25.309
 26.0817
 26.011
 26.0571
 26.0566
 26.3513
 26.3099
 26.3385
 26.7962
 26.7893
 26.7871
 25.6618
 25.6387
 25.5978
 25.6763
 25.237
 25.1715
 25.2212
 25.1875
 24.2983
 24.3464
 24.2784
 24.3393
 25.8745
 25.8853
 24.2638
 24.3198
 24.3423
 25.514
 26.9443
 26.8901
 26.8453
 26.8743
 26.5266
 26.4839
 26.5291
 26.4971
 25.5209
 25.5625
 25.5355
 24.9399
 24.8924
 27.0162
 26.9925
 27.058
 26.974
 25.3076
 25.3363
 26.9508
 26.9818
 25.7738
 25.7776
 25.8071
 27.1066
 27.1651
 27.082
 26.5292
 26.5448
 26.5709
 26.5681
 24.9459
 24.9399
 24.9122
 24.9527
 26.2206
 26.2103
 26.2081
 26.0993
 26.184
 26.1395
 26.1242
 24.7767
 24.8548
 24.8516
 24.8591
 27.4305
 27.3951
 27.4555
 25.9558
 26.0194
 25.9899
 25.222
 25.1859
 25.4453
 25.4586
 25.5229
 25.5111
 27.5436
 27.4902
 27.5171
 27.5383
 26.5865
 26.5857
 26.583
 26.5357
 25.1559
 25.1356
 25.1107
 25.1041
 25.0927
 25.1216
 25.1152
 25.1525
 26.165
 26.2311
 26.1714
 26.1863
 24.4661
 24.3719
 24.3913
 24.4673
 26.7798
 26.727
 26.8038
 27.5991
 27.6748
 27.6627
 25.7559
 25.7201
 25.4251
 25.4083
 25.454
 25.4302
 24.9548
 24.9861
 24.8984
 24.894
 26.3008
 25.8982
 26.193
 26.1432
 26.1139
 26.08
 28.2232
 28.3139
 28.311
 28.1993
 25.2501
 25.276
 26.6048
 26.5779
 26.5396
 26.4006
 26.4267
 26.3622
 26.3436
 26.9584
 27.014
 26.3397
 26.3473
 26.3861
 26.3152
 26.8315
 26.8774
 26.5263
 26.489
 26.5718
 24.9764
 25.0189
 24.9069
 26.2264
 26.2502
 26.2061
