 -86.0358
 -86.0358
 -86.0358
 -86.0358
 -86.0366
 -86.0335
 -86.064
 -86.0508
 -86.0358
 -86.0358
 -86.0358
 -86.0358
 -86.0358
 -86.0358
 -86.0358
 -86.0358
 28.47
 29.0511
 29.0007
 21.6863
 29.0311
 24.5686
 27.8209
 10.854
 -86.0358
 -86.0358
 -86.0358
 -86.0358
 -86.0358
 -86.0358
 -86.0358
 -86.0358
 27.0014
 23.2095
 25.6723
 29.7111
 31.9024
 27.53
 25.2447
 26.9042
 -86.0358
 -86.0358
 -86.0358
 -86.0358
 -86.0358
 -86.0358
 -86.0358
 -86.0358
 -86.0358
 -86.0358
 -86.0358
 -86.0358
 -86.0561
 -86.0174
 -86.0476
 -86.0262
 -86.0358
 -86.0358
 -86.0358
 -86.0358
 -86.0358
 -86.0358
 -86.0358
 -86.0358
 -92.2897
 -80.3844
 -87.5272
 -74.4435
 -86.0358
 -86.0358
 -86.0358
 -86.0358
 -86.0358
 -86.0358
 -86.0358
 -86.0358
 -74.1257
 -78.3523
 -61.0751
 20.7444
 -86.0358
 -86.0358
 -86.0358
 -86.0358
 23.8956
 23.7799
 22.7507
 22.6157
 -86.0358
 -86.0358
 -86.0358
 -86.0358
 -86.036
 -86.0358
 -86.0358
 -86.0359
 -86.0358
 -86.0358
 -86.0358
 -86.0358
 -86.0358
 -86.0358
 -86.0358
 -86.0358
 -86.0358
 -86.0358
 -86.0358
 -86.0358
 -86.0358
 -86.0358
 -86.0358
 -86.0358
 -86.0358
 -86.0358
 -86.0358
 -86.0358
 -86.0346
 -86.0339
 -86.0352
 -86.036
 -86.0358
 -86.0358
 -86.0358
 -86.0358
 -86.0358
 -86.0358
 -86.0358
 -86.0358
 -86.0358
 -86.0358
 -86.0358
 -86.0358
 -86.0328
 -86.0365
 -86.0352
 -86.0357
 -86.0358
 -86.0358
 -86.0358
 -86.0358
 -86.0358
 -86.0358
 -86.0358
 -86.0358
 -86.0358
 -86.0358
 -86.0358
 -86.0358
 -86.0358
 -86.0358
 -86.0358
 -86.0358
 -86.0364
 -86.0357
 -86.0337
 -86.0401
 22.7533
 22.6637
 22.4501
 22.591
 -86.0358
 -86.0358
 -86.0358
 -86.0358
 -86.0324
 -86.0583
 -86.0487
 -86.0222
 -86.0358
 -86.0358
 -86.0358
 -86.0358
 -86.0356
 -86.0362
 -86.0364
 -86.0363
 24.719
 26.8484
 24.1067
 25.6898
 -86.0358
 -86.0358
 -86.0358
 -86.0358
 -86.0358
 -86.035
 -86.0358
 -86.0357
 -86.0358
 -86.0358
 -86.0358
 -86.0358
 -86.0358
 -86.0358
 -86.0358
 -86.0358
 -86.0358
 -86.0358
 -86.0358
 -86.0358
 -86.0358
 -86.0358
 -86.0358
 -86.0358
 -86.0358
 -86.0358
 -86.0358
 -86.0358
 -86.0358
 -86.0358
 -86.0358
 -86.0358
 -86.0358
 -86.0358
 -86.0358
 -86.0359
 -86.0358
 -86.0358
 -86.0358
 -86.0358
 -86.0358
 -86.0358
 -86.0358
 -86.0358
 -86.0358
 -86.0358
 -86.0355
 -86.0361
 -86.0383
 -86.0386
 -86.0283
 -86.0347
 -86.0358
 -86.0358
 -86.0358
 -86.0358
 -86.0358
 -86.0358
 -86.0358
 -86.0358
 -86.0358
 -86.0358
 -86.0358
 -86.0358
 -86.0358
 -86.0358
 -86.0358
 -86.0358
 -86.0358
 -86.0358
 -86.0358
 -86.0358
 -86.0358
 -86.0358
 -86.0358
 -86.0358
 -86.0358
 -86.0358
 -86.0358
 -86.0358
 -86.0358
 -86.0358
 -86.0358
 -86.0358
 -66.0889
 19.65
 16.2631
 -73.6623
 29.3238
 25.4488
 26.1409
 25.1834
 -86.0358
 -86.0358
 -86.0358
 -86.0358
 -86.0358
 -86.0358
 -86.0358
 -86.0358
 -86.0358
 -86.0358
 -86.0359
 -86.0358
 -86.0358
 -86.0358
 -86.0358
 -86.0358
 -86.0358
 -86.0358
 -86.0358
 -86.0358
 -86.0358
 -86.0358
 -86.0358
 -86.0358
 -86.0358
 -86.0358
 -86.0358
 -86.0358
 -86.0358
 -86.0358
 -86.0358
 -86.0358
 -86.0358
 -86.0358
 -86.0358
 -86.0358
 23.0951
 23.2212
 23.9694
 23.6171
 -86.0358
 -86.0358
 -86.0358
 -86.0358
 -86.0358
 -86.0358
 -86.0358
 -86.0358
 -86.0358
 -86.0358
 -86.0358
 -86.0358
 -86.0358
 -86.0358
 -86.0358
 -86.0358
 -86.0358
 -86.0358
 -86.0358
 -86.0358
 -86.0358
 -86.0358
 -86.0358
 -86.0358
 -86.0358
 -86.0358
 -86.0358
 -86.0358
 -86.0358
 -86.0358
 -86.0358
 -86.0358
 -86.0358
 -86.0358
 -86.0358
 -86.0358
 -86.0358
 -86.0358
 -86.0358
 -86.0358
 -86.0358
 -86.0358
 -86.0358
 -86.0358
 -86.0358
 -86.0358
 -86.0358
 -86.0358
 -86.0348
 -86.0357
 -86.0359
 -86.035
 -86.0358
 -86.0358
 -86.0358
 -86.0358
 22.6062
 23.0393
 23.4727
 22.5566
 -86.0351
 -86.0226
 -86.0387
 -86.0347
 -86.0358
 -86.0358
 -86.0358
 -86.0358
 -86.0358
 -86.0358
 -86.0358
 -86.0358
 -86.0358
 -86.0358
 -86.0358
 -86.0358
 -86.0358
 -86.0358
 -86.0358
 -86.0358
 -86.0358
 -86.0358
 -86.0358
 -86.0358
 -86.0358
 -86.0358
 -86.0358
 -86.0358
 -86.0358
 -86.0358
 -86.0358
 -86.0358
 -86.0358
 -86.0358
 -86.0358
 -86.0358
 -86.0358
 -86.0358
 -86.0358
 -86.0358
 -86.0358
 -86.0358
 -83.0674
 -86.3942
 -86.7168
 -79.8794
 -86.0358
 -86.0358
 -86.0358
 -86.0358
 -86.0358
 -86.0358
 -86.0358
 -86.0358
 -86.0358
 -86.0358
 -86.0358
 -86.0358
 -86.033
 -86.0358
 -86.0223
 -86.0226
 -86.0358
 -86.0358
 -86.0358
 -86.0358
 -86.0358
 -86.0358
 -86.0358
 -86.0358
 -86.0358
 -86.0358
 -86.0358
 -86.0358
 -71.843
 24.9959
 -45.5075
 15.4288
 -86.0358
 -86.0358
 -86.0358
 -86.0358
 -86.0358
 -86.0358
 -86.0358
 -86.0358
 -86.0358
 -86.0358
 -86.0358
 -86.0358
 -86.0358
 -86.0358
 -86.0358
 -86.0358
 -89.0228
 -85.4925
 -91.9843
 -85.5447
 -86.0358
 -86.0358
 -86.0358
 -86.0358
 -86.0358
 -86.0358
 -86.0358
 -86.0358
 -86.0358
 -86.0358
 -86.0358
 -86.0358
 -86.0358
 -86.0358
 -86.0358
 -86.0358
 -86.0358
 -86.0358
 -86.0358
 -86.0358
 -86.0358
 -86.0358
 -86.0358
 -86.0358
 -86.0358
 -86.0358
 -86.0358
 -86.0358
 -84.8268
 -87.2424
 -87.0398
 -73.0179
 -86.0358
 -86.0358
 -86.0358
 -86.0358
 -86.6354
 -85.8183
 -86.7534
 -86.0599
 -86.0358
 -86.0358
 -86.0358
 -86.0358
 -86.0358
 -86.0358
 -86.0358
 -86.0358
 -86.0358
 -86.0358
 -86.0358
 -86.0358
 -86.0358
 -86.0358
 -86.0358
 -86.0358
 23.5645
 23.0777
 22.862
 22.7948
 -86.0358
 -86.0358
 -86.0358
 -86.0358
 22.4109
 22.4151
 22.492
 22.7031
 -86.0358
 -86.0358
 -86.0358
 -86.0358
 -86.0358
 -86.0358
 -86.0358
 -86.0358
 24.504
 24.6766
 23.7428
 23.4536
 -86.0358
 -86.0358
 -86.0358
 -86.0358
 -86.0358
 -86.0358
 -86.0358
 -86.0358
 -85.9687
 -86.0518
 -86.062
 -86.0592
 25.4713
 23.9088
 23.7847
 25.0915
 -86.0358
 -86.0358
 -86.0358
 -86.0358
 -86.0606
 -86.0436
 -86.0599
 -86.0321
 -86.0358
 -86.0358
 -86.0358
 -86.0358
 -86.0358
 -86.0358
 -86.0358
 -86.0358
 -86.0358
 -86.0358
 -86.0358
 -86.0358
 -86.0358
 -86.0358
 -86.0358
 -86.0358
 -86.0358
 -86.0358
 -86.0358
 -86.0358
 -86.0358
 -86.0358
 -86.0358
 -86.0358
 -86.0358
 -86.0358
 -86.0358
 -86.0358
 -86.0358
 -86.0358
 -86.0358
 -86.0358
 -86.0358
 -86.0358
 -86.0358
 -86.0358
 -86.0358
 -86.0358
 -86.0358
 -86.0358
 29.4351
 23.9566
 26.6689
 25.6958
 -64.5118
 -83.0357
 -16.0049
 14.5106
 -90.0625
 -87.9094
 -90.4743
 -92.9074
 -86.0358
 -86.0358
 -86.0358
 -86.0358
 -86.0358
 -86.0358
 -86.0358
 -86.0358
 -86.0358
 -86.0358
 -86.0358
 -86.0358
 -86.0358
 -86.0358
 -86.0358
 -86.0358
 -86.0358
 -86.0358
 -86.036
 -86.0357
 -86.0364
 -86.036
 -86.036
 -86.035
 -86.0358
 -86.0358
 -86.0358
 -86.0358
 -86.0358
 -86.0358
 -86.0358
 -86.0358
 -86.0358
 -86.0358
 -86.0358
 -86.0358
 -86.0358
 -86.0358
 -86.0358
 -86.0358
 -86.0358
 -86.0358
 -86.0358
 -86.0358
 -86.0358
 -86.0358
 -86.0358
 -86.0358
 -86.0358
 -86.0358
 -86.0358
 -54.8054
 -82.5352
 -55.5843
 -80.7066
 -86.0358
 -86.0358
 -86.0358
 -86.0358
 17.61
 11.0525
 18.9304
 -38.9576
 -86.0358
 -86.0358
 -86.0358
 -86.0358
 -86.0359
 -86.0358
 -86.0354
 -86.0358
 -86.0358
 -86.0358
 -86.0358
 -86.0358
 24.0884
 23.3331
 23.3202
 24.7783
 -86.0315
 -86.0327
 -86.0368
 -86.0357
 -86.0358
 -86.0358
 -86.0358
 -86.0358
 -86.0358
 -86.0358
 -86.0358
 -86.0358
 -85.7683
 -86.0879
 -85.3281
 -85.8585
 -86.0358
 -86.0358
 -86.0358
 -86.0358
 -86.0358
 -86.0358
 -86.0358
 -86.0358
 -87.1679
 -88.5161
 -86.202
 -85.88
 -86.0357
 -86.0367
 -86.0357
 -86.0366
 -86.738
 -85.9813
 -86.3491
 -86.3404
 -86.0358
 -86.0358
 -86.0358
 -86.0358
 -85.5531
 -90.2314
 -85.5199
 -86.6992
 -86.0358
 -86.0358
 -86.0358
 -86.0358
 -86.0358
 -86.0358
 -86.0358
 -86.0358
 -86.0447
 -86.0455
 -86.0387
 -86.0261
 22.8235
 23.127
 22.7778
 22.624
 -86.0358
 -86.0358
 -86.0358
 -86.0358
 -86.0358
 -86.0358
 -86.0358
 -86.0358
 -86.0358
 -86.0358
 -86.0358
 -86.0358
 -86.0477
 -86.125
 -86.1468
 -85.9919
 -86.0358
 -86.0358
 -86.0358
 -86.0358
 -86.0358
 -86.0358
 -86.0358
 -86.0358
 -86.0358
 -86.0358
 -86.0358
 -86.0358
 -86.0358
 -86.0358
 -86.0358
 -86.0358
 27.0939
 23.3865
 23.0139
 25.9235
 -86.0358
 -86.0358
 -86.0358
 -86.0358
 26.2762
 26.511
 28.8652
 30.2103
 -86.0358
 -86.0358
 -86.0358
 -86.0358
 -86.0358
 -86.0358
 -86.0358
 -86.0358
 -76.0389
 -80.048
 22.0503
 -46.4606
 -86.0365
 -86.0361
 -86.0359
 -86.0358
 -86.1353
 -86.6319
 -85.8669
 -85.7424
 -86.0358
 -86.0358
 -86.0358
 -86.0358
 -86.0358
 -86.0358
 -86.0358
 -86.0358
 -86.0482
 -86.0331
 -86.034
 -86.037
 -86.0358
 -86.0358
 -86.0358
 -86.0358
 -86.0358
 -86.0358
 -86.0358
 -86.0358
 -86.0358
 -86.0358
 -86.0358
 -86.0358
 -86.0358
 -86.0358
 -86.0358
 -86.0358
 -86.0358
 -86.0358
 -86.0358
 -86.0358
 -86.0358
 -86.0358
 -86.0358
 -86.0358
 -86.0358
 -86.0358
 -86.0358
 -86.0358
 26.0806
 24.8597
 24.4148
 24.1262
 26.6812
 22.9208
 24.9609
 25.5811
 -86.0358
 -86.0359
 -86.0354
 -86.0355
 -86.0358
 -86.0358
 -86.0358
 -86.0358
 -86.0358
 -86.0358
 -86.0358
 -86.0358
 -86.0358
 -86.0358
 -86.0358
 -86.0358
 -86.0358
 -86.0358
 -86.0358
 -86.0358
 -86.013
 -86.1522
 -85.2455
 -85.817
 -86.0358
 -86.0358
 -86.0358
 -86.0358
 -86.0358
 -86.0358
 -86.0358
 -86.0358
 -86.0431
 -86.0399
 -86.0241
 -86.036
 -86.0358
 -86.0358
 -86.0358
 -86.0358
 -86.0358
 -86.0358
 -86.0358
 -86.0358
 -86.0358
 -86.0358
 -86.0358
 -86.0358
 -86.0358
 -86.0358
 -86.0358
 -86.0358
 -86.0058
 -86.035
 -86.0257
 -85.9434
 -86.0358
 -86.0358
 -86.0358
 -86.0358
 -86.0358
 -86.0358
 -86.0358
 -86.0358
 -86.0358
 -86.0358
 -86.0358
 -86.0358
 -86.0358
 -86.0358
 -86.0358
 -86.0358
 -85.9141
 -87.8311
 -85.0878
 -85.1477
 -86.0363
 -86.0361
 -86.0311
 -86.0363
 -86.0358
 -86.0358
 -86.0358
 -86.0358
 -86.0358
 -86.0358
 -86.0358
 -86.0358
 -44.8902
 18.1856
 25.3553
 21.2831
 -86.072
 -86.0218
 -86.0982
 -86.0884
 -86.0358
 -86.0358
 -86.0358
 -86.0358
 -86.0358
 -86.0358
 -86.0358
 -86.0358
 -86.0358
 -86.0358
 -86.0358
 -86.0358
 -86.0358
 -86.0358
 -86.0358
 -86.0358
 -86.0358
 -86.0358
 -86.0358
 -86.0358
 -74.4267
 -89.1531
 -87.6384
 -78.8979
 -86.0358
 -86.0358
 -86.0358
 -86.0358
 -86.188
 -86.1584
 -86.0322
 -86.0876
 -86.0361
 -86.0359
 -86.0359
 -86.0359
 -86.0358
 -86.0358
 -86.0358
 -86.0358
 -86.0358
 -86.0358
 -86.0358
 -86.0358
 -86.0358
 -86.0358
 -86.0358
 -86.0358
 -86.0358
 -86.0358
 -86.0358
 -86.0358
 -86.0358
 -86.0358
 -86.0358
 -86.0358
 -86.0358
 -86.0358
 -86.0358
 -86.0358
 -86.0358
 -86.0358
 -86.0358
 -86.0358
 -86.0358
 -86.0358
 -86.0358
 -86.0358
 -86.0358
 -86.0358
 -86.0358
 -86.0358
 -86.0358
 -86.0358
 -86.0358
 -86.0358
 -86.0358
 -86.0358
 -86.0358
 -86.0358
 -86.0358
 -86.0358
 -86.0358
 -86.0358
 -86.0358
 -86.0358
 -86.0358
 -86.0358
 25.7536
 -60.6478
 20.4423
 18.3002
 -86.0358
 -86.0358
 -86.0358
 -86.0358
 -86.0358
 -86.0358
 -86.0358
 -86.0358
 -86.0358
 -86.0358
 -86.0358
 -86.0358
 -86.0358
 -86.0358
 -86.0358
 -86.0358
 -86.0358
 -86.0358
 -86.0358
 -86.0358
 -86.0358
 -86.0358
 -86.0358
 -86.0358
 -86.0358
 -86.0358
 -86.0358
 -86.0358
 -86.0358
 -86.0358
 -86.0359
 -86.0358
 -86.0358
 -86.0358
 -86.0358
 -86.0358
 21.2872
 -82.7106
 16.015
 -53.6845
 -86.0358
 -86.0358
 -86.0358
 -86.0358
 -86.0358
 -86.0358
 -86.0358
 -86.0358
 25.4377
 12.7118
 26.4553
 20.7418
 -86.0358
 -86.0358
 -86.0358
 -86.0358
 -85.4839
 -85.6186
 -89.5551
 -85.4322
 -86.0358
 -86.0358
 -86.0358
 -86.0358
 -86.0358
 -86.0358
 -86.0358
 -86.0358
 -86.0358
 -86.0358
 -86.0358
 -86.0358
 -86.0358
 -86.0358
 -86.0358
 -86.0358
 -85.9874
 -86.0451
 -86.0295
 -86.0456
 -86.0358
 -86.0358
 -86.0358
 -86.0358
 -86.0358
 -86.0358
 -86.0358
 -86.0358
 -86.0358
 -86.0358
 -86.0358
 -86.0358
 -86.0358
 -86.0358
 -86.0358
 -86.0358
 -86.0358
 -86.0358
 -86.0358
 -86.0358
 -86.0358
 -86.0358
 -86.0358
 -86.0358
 24.9507
 25.1684
 23.2391
 25.4072
 -86.0358
 -86.0358
 -86.0358
 -86.0358
 -86.0358
 -86.0358
 -86.0358
 -86.0358
 -86.0358
 -85.5351
 -86.0363
 -86.0637
 -86.0573
 -86.0358
 -86.0358
 -86.0358
 -86.0358
 -86.0358
 -86.0358
 -86.0358
 -86.0358
 -86.0358
 -86.0358
 -86.0358
 -86.0358
 -86.0358
 -86.0358
 -86.0358
 -86.0358
 -91.8135
 -85.6359
 -86.8465
 -86.7095
 -86.0358
 -86.0358
 -86.0358
 -86.0358
 -43.4807
 -41.7032
 -80.8398
 -87.1437
 -86.0361
 -86.0267
 -86.0364
 -86.0332
 -86.0358
 -86.0358
 -86.0358
 -86.0358
 -86.0358
 -86.0358
 -86.0358
 -86.0358
 -86.0358
 -86.0358
 -86.0358
 -86.0358
 -86.0358
 -86.0358
 -86.0358
 -86.0358
 -86.0358
 -86.0358
 -86.0358
 -86.0358
 -86.0358
 -86.0358
 -86.0358
 -86.0358
 -86.0358
 -86.0358
 -86.0358
 -86.0358
 -86.0358
 -86.0358
 -86.0358
 -55.0127
 -58.5899
 -91.08
 -64.7406
 -86.0358
 -86.0358
 -86.0358
 -86.0358
 -85.9258
 -86.0662
 -85.9836
 -85.8451
 -86.0358
 -86.0358
 -86.0358
 -86.0358
 -86.0382
 -86.0356
 -86.0344
 -86.0376
 -88.5134
 -89.7886
 -64.1505
 -86.8176
 -86.0358
 -86.0358
 -86.0358
 -86.0358
 -86.0358
 -86.0358
 -86.0358
 -86.0358
 22.7712
 22.9377
 23.0433
 23.1987
 -86.0358
 -86.0358
 -86.0358
 -86.0358
 -86.0358
 -86.0358
 -86.0358
 -86.0358
 -86.0358
 -86.0358
 -86.0358
 -86.0358
 -86.0358
 -86.0358
 -86.0358
 -86.0358
 -82.9896
 -35.7665
 1.8667
 -26.1624
 -86.0358
 -86.0358
 -86.0358
 -86.0358
 -86.0358
 -86.0358
 -86.0358
 -86.0358
 -86.0358
 -86.0358
 -86.0358
 -86.0358
 22.6007
 22.8286
 22.6465
 23.4376
 23.2425
 23.0925
 24.5821
 24.9175
 -86.0358
 -86.0358
 -86.0358
 -86.0358
 -86.0358
 -86.0358
 -86.0358
 -86.0358
 -86.0358
 -86.0358
 -86.0358
 -86.0358
 -86.0358
 -86.0358
 -86.0358
 -86.0358
 -86.0358
 -86.0358
 -86.0358
 -86.0358
 -86.0358
 -86.0358
 -86.0358
 -86.0358
 -86.0358
 -86.0358
 -86.0358
 -86.0358
 -86.0358
 -86.0358
 -86.0359
 -86.0358
 -86.0358
 -86.0358
 -86.0358
 -86.0358
 -86.0358
 -86.0358
 -86.0358
 -86.0358
 -86.0358
 -86.0358
 -86.0358
 -86.0358
 -86.0358
 -86.0358
 -86.0358
 -86.0358
 -86.0358
 -86.0358
 -86.0358
 -86.0358
 -86.0358
 -86.0358
 -86.0358
 -86.0358
 -86.0358
 -86.0795
 -86.0524
 -86.0161
 -86.0142
 -86.0358
 -86.0358
 -86.0358
 -86.0358
 -86.0358
 -86.0358
 -86.0358
 -86.0358
 -86.0358
 -86.0358
 -86.0358
 -86.0358
 -86.0358
 -86.0358
 -86.0358
 -86.0358
 -86.0358
 -86.0358
 -86.0358
 -86.0358
 -86.0358
 -86.0358
 -86.0358
 -86.0358
 -86.0358
 -86.0358
 -86.0358
 -86.0358
 -86.0358
 -86.0358
 -86.0358
 -86.0358
 -86.0385
 -86.0362
 -86.0403
 -86.0421
 -86.0358
 -86.0358
 -86.0358
 -86.0358
 24.0125
 24.4299
 23.9821
 24.1991
 -86.0833
 -86.0247
 -86.0925
 -86.0449
 -86.0848
 -86.0541
 -86.0765
 -86.0329
 -85.9177
 -85.9819
 -86.0382
 -86.1827
 -86.037
 -86.0305
 -86.0361
 -86.0321
 -86.0358
 -86.0358
 -86.0358
 -86.0358
 -86.0358
 -86.0358
 -86.0358
 -86.0367
 -86.025
 -86.0334
 -86.0356
 -86.0358
 -86.0358
 -86.0358
 -86.0358
 -86.0358
 -86.0358
 -86.0358
 -86.0358
 -86.0333
 -86.0306
 -86.0242
 -86.0377
 -86.0358
 -86.0358
 -86.0358
 -86.0358
 -86.0358
 -86.0358
 -86.0358
 -86.0358
 24.8412
 23.4643
 -86.0358
 -86.0358
 -86.0358
 -86.0358
 -86.0358
 -86.0358
 -86.0358
 -86.0358
 -86.0358
 -86.0358
 -86.0358
 -86.0358
 -86.0358
 -86.0358
 -86.0358
 -86.0744
 -85.5788
 -85.542
 -86.1208
 -86.0358
 -86.0358
 -86.0358
 -86.0358
 -86.0358
 -86.0358
 -86.0358
 -86.0358
 -86.0358
 -86.0358
 -86.0358
 -86.0358
 -86.0358
 -86.0358
 -86.0358
 -86.0358
 -86.0358
 -86.0358
 -86.0358
 -86.0358
 -86.0358
 -86.0358
 -86.0358
 -86.0358
 -86.0358
 -86.0358
 -86.0358
 -86.0358
 -86.0358
 -86.0358
 -86.0358
 -86.0358
 -85.4369
 -85.957
 -85.9771
 -86.066
 -86.0358
 -86.0358
 -86.0358
 -86.0358
 -86.0358
 -86.0358
 -86.0358
 -86.0358
 -86.0358
 -86.0358
 -86.0358
 -86.0358
 -86.0358
 -86.0358
 -86.0358
 -86.0358
 -86.0358
 -86.0358
 -86.0358
 -86.0358
 -86.0358
 -86.0358
 -86.0358
 -86.0358
 -85.9385
 -86.0192
 -86.0172
 -86.513
 -86.0358
 -86.0358
 -86.0358
 -86.0358
 -86.0358
 -86.0358
 -86.0358
 -86.0358
 -86.0358
 -86.0358
 -86.0358
 -86.0358
 -86.0359
 -86.0355
 -86.0353
 -86.0344
 -86.1897
 -86.0558
 -85.893
 -86.1454
 -86.0358
 -86.0358
 -86.0358
 -86.0358
 -86.0358
 -86.0358
 -86.0358
 -86.0358
 -86.0358
 -86.0358
 -86.0358
 -86.0358
 -86.0358
 -86.0358
 -86.0358
 -86.0358
 -86.0358
 -86.0358
 -86.0358
 -86.0358
 -86.0358
 -86.0358
 -86.0358
 -86.0358
 -86.0358
 -86.0358
 -86.0358
 -86.0358
 -86.0358
 -86.0358
 -86.0358
 -86.0358
 -86.0358
 -86.0358
 -86.0358
 -86.0358
 -86.0358
 -86.0358
 -86.0358
 -86.0358
 -86.0358
 -86.0358
 -86.0358
 -86.0358
 -86.0358
 -86.0358
 -86.0358
 -86.0358
 -86.0358
 -86.0358
 -86.0358
 -86.0358
 -86.0358
 -86.0358
 -86.0358
 -86.0358
 -86.0358
 -86.0358
 -86.0358
 -86.0358
 -86.0358
 -86.0358
 -86.0358
 -86.0358
 -86.0358
 -86.0358
 -86.0358
 -86.0358
 -86.0358
 -86.0358
 -86.0358
 -86.0358
 -86.0358
 -86.0359
 -86.0358
 -86.0358
 -86.0358
 -86.0358
 -86.0358
 -86.0358
 -86.0358
 -86.0358
 -86.0358
 -86.0358
 -86.0358
 23.7897
 23.8688
 23.024
 23.3438
 -86.0358
 -86.0358
 -86.0358
 -86.0358
 -86.2657
 -92.5515
 -86.2967
 -86.0358
 -86.0358
 -86.0358
 -86.0358
 -86.0358
 -86.0358
 -86.0358
 -86.0358
 -86.0358
 -86.0358
 -86.0358
 -86.0358
 -86.0358
 -86.0358
 -86.0358
 -86.0358
 -86.0358
 -86.0358
 -86.0358
 -86.0358
 -86.0358
 -86.0358
 -86.0358
 -86.0358
 -86.0358
 -86.0358
 -86.0358
 -86.0358
 -86.0358
 -86.0358
 -86.0358
 -86.0358
 -86.0358
 -86.0358
 -86.0358
 -86.0358
 -86.0358
 -86.0358
 -86.0358
 -86.0358
 -86.0358
 -86.0358
 -86.0358
 -86.0358
 -86.0358
 -86.0358
 -86.0358
 -86.0358
 -86.0358
 -86.0358
 -86.0358
 -86.0358
 -86.0358
 -86.0358
 -86.0358
 -86.0358
 -86.0358
 -86.0358
 -86.0358
 -86.0358
 -86.0358
 -86.0358
 -86.0231
 -86.1098
 -86.0256
 -86.0271
 -86.0358
 -86.0358
 -86.0358
 -86.0358
 -86.0358
 -86.0358
 -86.0358
 -86.0358
 -86.0358
 -86.0358
 -86.0358
 -86.0358
 -86.0358
 -86.0358
 -86.0358
 -86.0358
 28.8638
 23.062
 26.2034
 20.8962
 -86.0358
 -86.0358
 -86.0358
 -86.0358
 -86.0358
 -86.0358
 -86.0358
 -86.0358
 -86.0358
 -86.0358
 -86.0358
 -86.0358
 -86.0358
 -86.0358
 -86.0358
 -86.0358
 -86.0358
 -86.0358
 -86.0358
 -86.0358
 -86.0311
 -86.0316
 -86.1373
 -86.0396
 -86.0358
 -86.0358
 -86.0358
 -86.0358
 -86.0358
 -86.0358
 -86.0358
 -86.0358
 -86.0358
 -86.0358
 -86.0358
 -86.0358
 -86.0358
 -86.0358
 -86.0358
 -86.0358
 -86.0358
 -86.0358
 -86.0358
 -86.0358
 -86.0358
 -86.0358
 -86.0358
 -86.0358
 -86.0357
 -86.0343
 -86.036
 -86.0358
 24.456
 23.3353
 26.5553
 25.2953
 -86.0358
 -86.0358
 -86.0358
 -86.0358
 -85.758
 -85.6224
 -85.7537
 -86.9182
 -86.0362
 -86.0351
 -86.0322
 -86.0356
 -86.0358
 -86.0358
 -86.0358
 -86.0358
 -86.0358
 -86.0358
 -86.0358
 -86.0358
 -86.0358
 -86.0358
 -86.0358
 -86.0358
 -86.0358
 -86.0358
 -86.0358
 -86.0358
 -86.0358
 -86.0358
 -86.0358
 -86.0358
 -86.0302
 -86.0757
 -86.0357
 -86.056
 -86.0358
 -86.0358
 -86.0358
 -86.0358
 -86.0358
 -86.0358
 -86.0358
 -86.0358
 -86.0358
 -86.0358
 -86.0358
 -86.0358
 -86.0358
 -86.0358
 -86.0358
 -86.0358
 -86.0358
 -86.0358
 -86.0358
 -86.0358
 -86.0358
 -86.0358
 -86.0358
 -86.0358
 -86.0358
 -86.0358
 -86.0358
 -86.0358
 -86.0358
 -86.0358
 -86.0358
 -86.0358
 -86.0358
 -86.0358
 -86.0358
 -86.0358
 -86.0358
 -86.0358
 -86.0358
 -86.0358
 -86.0358
 -86.0358
 -86.0358
 -86.0358
 -86.0358
 -86.0358
 -86.0358
 -89.5351
 -89.6591
 -87.4991
 -85.6276
 -86.0358
 -86.0358
 -86.0358
 -86.0358
 27.0816
 24.9351
 26.3059
 25.928
 -86.0358
 -86.0358
 -86.0358
 -86.0358
 -86.0358
 -86.0358
 -86.0358
 -86.0358
 -86.0358
 -86.0358
 -86.0358
 -86.0358
 -86.0358
 -86.0358
 -86.0358
 -86.0358
 -86.0358
 -86.0358
 -86.0358
 -86.0358
 -86.0358
 -86.0358
 -86.0358
 -86.0358
 -86.0358
 -86.0358
 -86.0358
 -86.0358
 22.5567
 22.773
 23.708
 23.8523
 -86.0358
 -86.0358
 -86.0358
 -86.0358
 -86.0358
 -86.0358
 -86.0358
 -86.0358
 -86.0358
 -86.0361
 -86.0359
 -86.0361
 -86.0358
 -86.0358
 -86.0358
 -86.0358
 -86.0358
 -86.0358
 -86.0358
 -86.0358
 -86.0358
 -86.0358
 -86.0358
 -86.0358
 -86.0358
 -86.0358
 -86.0358
 -86.0358
 -86.0358
 -86.0358
 -86.0358
 -86.0358
 -86.0358
 -86.0358
 -86.0358
 -86.0358
 -86.0358
 -86.0358
 -86.0358
 -86.0358
 -86.0358
 -86.0358
 -86.0358
 -86.0358
 -86.0358
 -86.0358
 -88.351
 -85.6483
 -84.5798
 -95.3947
 -86.0358
 -86.0358
 -86.0358
 -86.0358
 -86.0362
 -86.0354
 -86.0357
 -86.036
 -86.0358
 -86.0358
 -86.0358
 -86.0358
 -86.0358
 -86.0358
 -86.0358
 -86.0358
 -86.0358
 -86.0358
 -86.0358
 -86.0358
 -86.0358
 -86.0358
 -86.0358
 -86.0358
 -86.0358
 -86.0358
 -86.0358
 -86.0358
 20.5212
 -0.680831
 -72.3819
 -26.4083
 -86.0358
 -86.0358
 -86.0358
 -86.0358
 -86.0358
 -86.0358
 -86.0358
 -86.0358
 -86.0358
 -86.0358
 -86.0358
 -86.0358
 -86.0358
 -86.0358
 -86.0358
 -86.0358
 -86.0358
 -86.0358
 -86.0358
 -86.0358
 -86.0358
 -86.0358
 -86.0358
 -86.0358
 -86.0358
 -86.0358
 -86.0358
 -86.0358
 -86.1178
 -86.0135
 -86.0744
 -86.0224
 -86.0358
 -86.0358
 -86.0358
 -86.0358
 -86.0358
 -86.0358
 -86.0358
 -86.0358
 -86.0337
 -85.9339
 -85.6594
 -85.9922
 -86.0358
 -86.0358
 -86.0358
 -86.0358
 -86.0358
 -86.0358
 -86.0358
 -86.0358
 -86.0358
 -86.0358
 -86.0358
 -86.0358
 -86.0358
 -86.0358
 -86.0358
 -86.0358
 -86.0358
 -86.0358
 -86.0358
 -86.0358
 -76.4849
 -59.1617
 19.5687
 23.1781
 -86.007
 -86.1133
 -86.0382
 -86.0256
 -86.0358
 -86.0358
 -86.0358
 -86.0358
 -86.0358
 -86.0358
 -86.0358
 -86.0358
 -86.0358
 -86.0358
 -86.0358
 -86.0358
 -86.0358
 -86.0358
 -86.0358
 -86.0358
 -86.0358
 -86.0358
 -86.0358
 -86.0358
 -86.0358
 -86.0358
 -86.0358
 -86.0358
 -86.0358
 -86.0358
 -86.0358
 -86.0358
 -86.0358
 -86.0358
 -86.0358
 -86.0358
 -86.0358
 -86.0358
 -86.0358
 -86.6312
 -85.7562
 -85.853
 -88.9413
 -86.0358
 -86.0358
 -86.0358
 -86.0358
 -86.0358
 -86.0358
 -86.0358
 -86.0358
 -86.0358
 -86.0358
 -86.0358
 -86.0358
 -86.0358
 -86.0358
 -86.0358
 -86.0358
 -86.0358
 -86.0358
 -86.0358
 -86.0358
 -86.0358
 -86.0358
 -86.0358
 -86.0358
 -86.0358
 -86.0358
 -86.0358
 -86.0358
 -86.0358
 -86.0358
 -86.0358
 -86.0358
 -85.5005
 -85.2563
 -86.7167
 -86.05
 -86.0358
 -86.0358
 -86.0358
 -86.0358
 -86.0358
 -86.0358
 -86.0358
 -86.0358
 19.4379
 6.90411
 -64.7561
 -55.5657
 -86.0358
 -86.0358
 -86.0358
 -86.0358
 -86.0358
 -86.0358
 -86.0358
 -86.0358
 -86.0358
 -86.0358
 -86.0358
 -86.0358
 23.8049
 26.2166
 24.2258
 25.8031
 31.3091
 24.9111
 26.3712
 27.7859
 23.6706
 -51.1777
 -83.8068
 25.5286
 -86.0358
 -86.0358
 -86.0358
 -86.0358
 -86.0358
 -86.0358
 -86.0358
 -86.0358
 -86.0358
 -86.0358
 -86.0358
 -86.0358
 -86.0358
 -86.0358
 -86.0358
 -86.0358
 -86.0358
 -86.0358
 -86.0358
 -86.0358
 -86.0777
 -85.8393
 -86.0385
 -85.7141
 -86.0259
 -85.9514
 -86.0401
 -86.0033
 -86.0358
 -86.0358
 -86.0358
 -86.0358
 -86.0358
 -86.0358
 -86.0358
 -86.0358
 -86.0358
 -86.0358
 -86.0358
 -86.0358
 -86.0358
 -86.0358
 -86.0358
 -86.0358
 -86.0358
 -86.0358
 -86.0358
 -86.0358
 -86.0359
 -86.0359
 -86.036
 -86.0359
 -86.0358
 -86.0358
 -86.0358
 -86.0358
 -86.0358
 -86.0358
 -86.0358
 -86.0358
 -86.0358
 -86.0358
 -86.0358
 -86.0358
 -86.0358
 -86.0358
 -86.0358
 -86.0358
 -86.0358
 -86.0358
 -86.0358
 -86.0358
 -86.0364
 -86.0357
 -86.0356
 -86.0359
 -86.0358
 -86.0358
 -86.0358
 -86.0358
 -86.0358
 -86.0358
 -86.0358
 -86.0358
 -86.0358
 -86.0358
 -86.0358
 -86.0358
 -86.0361
 -86.0362
 -86.0358
 -86.0358
 -86.0358
 -86.0358
 -86.0358
 -86.0358
 -86.0358
 -86.0358
 -86.0358
 -86.0358
 -86.0356
 -86.0351
 -86.0357
 -86.0358
 -86.0358
 -86.0358
 -86.0358
 -86.0358
 -86.0358
 -86.0358
 -86.0358
 -86.0358
 -86.0358
 -86.0358
 -86.0358
 -86.0358
 -86.0358
 -86.0358
 -86.0358
 -86.0358
 -86.0358
 -86.0358
 -86.0358
 -86.0358
 -86.0358
 -86.0358
 -86.0358
 -86.0358
 22.9214
 22.5585
 22.8119
 22.8818
 -86.0358
 -86.0358
 -86.0358
 -86.0358
 -86.0358
 -86.0358
 -86.0358
 -86.0358
 -86.0358
 -86.0358
 -86.0358
 -86.0358
 -86.0358
 -86.0358
 -86.0358
 -86.0358
 27.7426
 23.9515
 19.0817
 27.3789
 -86.0465
 -86.0297
 -86.012
 -86.0358
 -86.0358
 -86.0358
 -86.0358
 -86.0358
 -86.0358
 -86.0358
 -86.0358
 -86.0358
 -86.0358
 -86.0358
 -86.0358
 -86.0005
 -86.0436
 -86.0443
 -86.0373
 -86.0358
 -86.0358
 -86.0358
 -86.0358
 -86.0358
 -86.0358
 -86.0358
 -86.0358
 -86.0358
 -86.0358
 -86.0358
 -86.0358
 -86.0358
 -86.0358
 -86.0358
 -86.0358
 -86.0358
 -86.0358
 -86.0358
 -86.0358
 -86.0358
 -86.0358
 -86.0358
 -86.0358
 -86.0358
 -86.0358
 -86.0358
 -86.0358
 -86.0358
 -86.0358
 -86.0358
 -86.0358
 -86.0358
 -86.0358
 -86.0358
 -86.0358
 -86.0358
 -86.0358
 -86.0358
 -86.0358
 -86.0358
 -86.0358
 -86.0358
 -86.0358
 -86.0358
 -86.0358
 -86.0358
 -86.0358
 -76.5297
 -73.2888
 -87.2207
 -77.2884
 -86.0358
 -86.0358
 -86.0358
 -86.0358
 -86.0358
 -86.0358
 -86.0358
 -86.0358
 -86.0358
 -86.0358
 -86.0358
 -86.0358
 -86.0358
 -86.0358
 -86.0358
 -86.0358
 -86.0358
 -86.0358
 -86.0358
 -86.0358
 -86.0358
 -86.0358
 -86.0358
 -86.0358
 -86.0358
 -86.0358
 -86.0358
 -86.0358
 -89.2104
 -38.0412
 -86.9737
 -63.5845
 -86.0358
 -86.0358
 -86.0358
 -86.0358
 -86.0358
 -86.0358
 -86.0359
 -86.0358
 -86.0358
 -86.0358
 -86.0358
 -86.0358
 -86.0358
 -86.0358
 -86.0358
 -86.0358
 25.8792
 18.1445
 24.0596
 -37.7809
 -86.0358
 -86.0358
 -86.0358
 -86.0358
 -86.0358
 -86.0358
 -86.0358
 -86.0358
 -85.8142
 -85.4662
 -85.8413
 -86.8346
 -85.5892
 -86.5067
 -85.4796
 -86.0358
 -86.0358
 -86.0358
 -86.0358
 -86.0358
 -86.0358
 -86.0358
 -86.0358
 -86.0358
 -86.0358
 -86.0358
 -86.0358
 -86.0358
 -86.0358
 -86.0358
 -86.0358
 -86.0359
 -86.0364
 -86.036
 -86.0358
 -86.0358
 -86.0358
 -86.0358
 -86.0358
 -86.0358
 -86.0358
 -86.0358
 -86.0358
 -86.0354
 -86.0349
 -86.0367
 -86.0325
 -86.0358
 -86.0358
 -86.0358
 -86.0358
 -86.0358
 -86.0358
 -86.0358
 -86.0358
 32.8597
 5.7498
 26.1564
 23.9232
 -86.0358
 -86.0358
 -86.0358
 -86.0358
 -86.0358
 -86.0358
 -86.0358
 -86.0358
 -86.0358
 -86.0358
 -86.0358
 -86.0358
 -86.0358
 -86.0358
 -86.0358
 -86.0358
 -86.0358
 -86.0358
 -86.0358
 -86.0358
 -86.0358
 -86.0367
 -86.036
 -86.0359
 -86.1024
 -86.0921
 -86.1056
 -86.0358
 -86.0358
 -86.0358
 -86.0358
 -86.0358
 -86.0358
 -86.0358
 -86.0358
 -86.0358
 -86.0358
 -86.0358
 -86.0358
 -86.0358
 -86.0358
 -86.0358
 -86.0358
 30.2131
 26.0504
 25.1206
 25.9998
 -86.0358
 -86.0358
 -86.0358
 -86.0358
 -86.0358
 -86.0358
 -86.0358
 -86.0358
 -86.0384
 -86.0378
 -86.0364
 -86.0359
 -86.0358
 -86.0358
 -86.0358
 -86.0358
 -86.0358
 -86.0358
 -86.0358
 -86.0358
 -86.0358
 -86.0358
 -86.0358
 -86.0358
 -86.0358
 -86.0358
 -86.0358
 -86.0358
 -86.0358
 -86.0358
 -86.0358
 -86.0358
 -86.0358
 -85.7582
 -88.5979
 -85.4061
 -85.7317
 -80.3437
 -90.4447
 8.477
 -91.0861
 -86.0358
 -86.0358
 -86.0358
 -86.0358
 -86.0358
 -86.0358
 -86.0358
 -86.0358
 -86.0358
 -86.0358
 -86.0358
 -86.0358
 -86.0358
 -86.0358
 -86.0358
 -86.0358
 -86.0358
 -86.0358
 -86.0358
 -86.0358
 -86.0358
 -86.0358
 -86.0358
 -86.0358
 -86.0358
 -86.0358
 -86.0358
 -86.0358
 -86.0048
 -86.1333
 -85.9679
 -85.6157
 -86.0358
 -86.0358
 -86.0358
 -86.0358
 -85.9977
 -86.0329
 -86.0324
 -86.0605
 -57.3314
 -86.0719
 -86.0208
 -58.0665
 -86.3816
 -84.2837
 -84.528
 -85.3548
 -86.0358
 -86.0358
 -86.0358
 -86.0358
 -86.0358
 -86.0358
 -86.0358
 -86.0358
 -86.0358
 -86.0358
 -86.0347
 -86.0393
 -86.0359
 -86.0426
 -86.0077
 -86.0432
 -85.9672
 -86.0371
 -86.0358
 -86.0358
 -86.0358
 -86.0358
 -86.0358
 -86.0358
 -86.0358
 -86.0358
 -86.0358
 -86.0358
 -86.0358
 -86.0358
 -86.0358
 -86.0358
 -86.0358
 -86.0358
 -86.0358
 -86.0358
 -86.0358
 -86.0358
 -87.6144
 -87.411
 -64.8824
 -90.343
 -86.0358
 -86.0358
 -86.0358
 -86.0358
 -86.0358
 -86.0358
 -86.0358
 -86.0358
 -86.0358
 -86.0358
 -86.0358
 -86.0358
 -86.0358
 -86.0358
 -86.0358
 -86.0358
 -86.0358
 -86.0358
 -86.0358
 -86.0358
 -86.0359
 -86.0358
 -86.0359
 -86.0358
 -86.0358
 -86.0358
 -86.0358
 -86.0358
 -85.5346
 -86.9646
 -85.8811
 -86.0358
 -86.0358
 -86.0358
 -86.0358
 -86.0358
 -86.0358
 -86.0358
 -86.0358
 24.3309
 23.8138
 23.514
 24.8057
 -86.0358
 -86.0358
 -86.0358
 -86.0358
 -86.0359
 -86.0357
 -86.0358
 -86.0358
 -86.0358
 -86.0358
 -86.0358
 -86.0358
 -86.0358
 -86.0358
 -86.0358
 -86.0358
 -86.0358
 -86.0358
 -86.0358
 -86.0358
 -88.7864
 -86.0253
 -85.9047
 -86.0084
 -86.0358
 -86.0358
 -86.0358
 -86.0358
 25.1265
 26.4611
 24.948
 26.9414
 -86.0358
 -86.0358
 -86.0358
 -86.0358
 -86.0358
 -86.0358
 -86.0358
 -86.0358
 -86.0358
 -86.0358
 -86.0358
 -86.0358
 -86.0358
 -86.0358
 -86.0358
 -86.0358
 -86.0358
 -86.0358
 -86.0358
 -86.0358
 -86.0358
 -86.0358
 -86.0358
 -86.0358
 -86.0358
 -86.0358
 -86.0358
 -86.0358
 -86.0358
 -86.0358
 -86.0358
 -86.0358
 27.6336
 14.4902
 -55.9905
 -17.2791
 -86.0278
 -86.0703
 -86.0343
 -86.0289
 -86.0358
 -86.0358
 -86.0357
 -86.0358
 -86.0361
 -86.0358
 -86.0359
 -86.0358
 -86.0602
 -85.8372
 -86.0826
 -86.023
 -86.0358
 -86.0358
 -86.0358
 -86.0358
 -86.0358
 -86.0358
 -86.0358
 -86.0358
 -86.0358
 -86.0358
 -86.0358
 -86.0358
 -86.0358
 -86.0358
 -86.0358
 -86.0358
 -86.0358
 -86.0358
 -86.0358
 -86.0358
 -86.0358
 -86.0327
 -86.1561
 -86.0216
 -86.2671
 -86.0371
 -86.0336
 -86.0316
 -86.0356
 -86.0358
 -86.0358
 -86.0358
 -86.0358
 -86.0358
 -86.0358
 -86.0358
 -86.0358
 -86.0358
 -86.0358
 -86.0358
 -86.0358
 -86.0358
 -86.0358
 -86.0358
 -86.0358
 -86.0358
 -86.0358
 21.9778
 31.9538
 -54.122
 24.6497
 -86.0358
 -86.0358
 -86.0358
 -86.0358
 -70.7451
 -86.7666
 -87.1995
 -87.4287
 -86.0358
 -86.0358
 -86.0358
 -86.0358
 -86.0358
 -86.0358
 -86.0358
 -86.0358
 -86.0358
 -86.0358
 -86.0358
 -86.0358
 -86.0358
 -86.0358
 -86.0358
 -86.0358
 -86.0358
 -86.0358
 -86.0358
 -86.0358
 -86.0358
 -86.0358
 -86.0358
 -86.0358
 -86.0358
 -86.0358
 -86.0358
 -86.0358
 -86.0358
 -86.0358
 -86.0358
 -86.0358
 -86.0358
 -86.0358
 -86.0358
 -86.0358
 -86.0358
 -86.0358
 -86.0358
 -86.0358
 -86.0358
 -86.0358
 -86.0358
 -86.0358
 -86.0358
 -86.0358
 -86.0358
 -86.0358
 -86.0358
 -86.0358
 -86.0358
 -86.0358
 -85.9587
 -86.0413
 -86.2185
 -86.0209
 -89.2738
 -86.0167
 -86.2271
 -85.3262
 -72.7906
 -30.9156
 -89.7198
 24.6805
 25.6387
 23.5807
 23.3502
 -86.0534
 -86.0359
 -86.0338
 -86.0413
 -86.0358
 -86.0358
 -86.0358
 -86.0358
 19.7949
 -13.3021
 -58.1566
 13.1672
 -86.0358
 -86.0358
 -86.0358
 -86.0358
 -86.0358
 -86.0358
 -86.0358
 -85.7226
 -86.0581
 -85.8398
 -85.5173
 -85.6646
 -85.7647
 -85.7721
 -86.0358
 -86.0358
 -86.0358
 -86.0358
 -86.0358
 -86.0358
 -86.0358
 -86.0358
 -86.0358
 -86.0358
 -86.0358
 -86.0358
 -87.0997
 -77.9465
 -92.4666
 -90.638
 -86.0358
 -86.0358
 -86.0358
 -86.0358
 -86.0358
 -86.0358
 -86.0358
 -86.0358
 -86.0358
 -86.0358
 -86.0358
 -86.0358
 -86.0358
 -86.0358
 -86.0358
 -86.0358
 -86.0358
 -86.0358
 -86.0358
 -86.0358
 -86.0358
 -86.0358
 -86.0358
 -86.0358
 -86.0358
 -86.0358
 -86.0358
 -86.0358
 22.8459
 21.6943
 22.0954
 26.5091
 -86.0358
 -86.0358
 -86.0358
 -86.0358
 -86.0358
 -86.0358
 -86.0358
 -86.0358
 -86.0358
 -86.0358
 -86.0358
 -86.0358
 -86.0358
 -86.0358
 -86.0358
 -86.0358
 -86.0358
 -86.0358
 -86.0358
 -86.0358
 -86.0358
 -86.0358
 -86.0358
 -86.0358
 -86.0358
 -86.0358
 -86.0358
 -86.0358
 -86.0358
 -86.0358
 -86.0358
 -86.0358
 -86.0358
 -86.0358
 -86.0358
 -86.0196
 -85.931
 -86.8008
 -86.5259
 -86.0358
 -86.036
 -86.0359
 -86.0357
 -86.0358
 -86.0358
 -86.0358
 -86.0358
 -86.0358
 -86.0358
 -86.0358
 -86.0358
 -86.0358
 -86.0358
 -86.0358
 -86.0358
 -84.9405
 -85.7899
 -86.3459
 -85.3125
 -86.0358
 -86.0358
 -86.0358
 -86.0358
 -86.0358
 -86.0358
 -86.0358
 -86.0358
 -86.0358
 -86.0358
 -86.0358
 -86.0358
 -86.0358
 -86.0358
 -86.0358
 -86.0358
 -86.0358
 -86.0358
 -86.0358
 -86.0358
 -86.0358
 -86.0358
 -86.0358
 -86.0358
 -86.0358
 -86.0358
 -86.0358
 -89.1929
 14.7761
 -76.0648
 -49.2009
 -20.4355
 21.2508
 -65.8814
 -86.0358
 -86.0358
 -86.0358
 -86.0358
 -86.0358
 -86.0358
 -86.0358
 -86.0358
 23.208
 23.4516
 -86.0358
 -86.0358
 -86.0358
 -86.0358
 -86.0358
 -86.0358
 -86.0358
 -86.0358
 -86.0358
 -86.0358
 -86.0358
 -86.0358
 -86.0358
 -86.0358
 -57.134
 5.6453
 -67.3475
 30.1261
 31.5521
 28.1393
 25.5202
 25.6708
 -86.0358
 -86.0358
 -86.0358
 -86.0358
 -86.0358
 -86.0358
 -86.0358
 -86.0358
 -86.0358
 -86.0358
 -86.0335
 -86.0351
 -86.033
 -86.0359
 -86.0358
 -86.0358
 -86.0358
 -86.0358
 -86.0358
 -86.0358
 -86.0358
 -86.0358
 -86.0358
 -86.0358
 -86.0357
 -86.0358
 -86.0358
 -86.0358
 -86.0358
 -86.0358
 -86.0358
 -86.0358
 -86.0358
 -86.0358
 -86.0376
 -86.0368
 -86.0331
 -86.0361
 -86.0358
 -86.0358
 -86.0358
 -86.0358
 -85.6578
 -85.8598
 -85.5258
 -85.9941
 -86.0358
 -86.0358
 -86.0358
 -86.0358
 -84.448
 -87.8366
 -85.8459
 -87.2304
 -86.0321
 -86.0376
 -86.0358
 -86.0358
 -86.0358
 -86.0358
 -86.0358
 -86.0358
 -86.0358
 -86.0358
 -86.2716
 -85.4929
 -86.2785
 -85.6025
 -86.0358
 -86.0358
 -86.0358
 -86.0358
 23.263
 25.0367
 23.7759
 -86.0358
 -86.0358
 -86.0358
 -86.0358
 -86.0358
 -86.0358
 -87.5705
 -72.3279
 -87.6411
 -86.7626
 -86.0358
 -86.0358
 -86.0358
 -86.0358
 -86.5422
 -86.2721
 -86.0358
 -86.0358
 -86.0358
 -86.0358
 -86.0358
 -86.0358
 -86.0358
 -86.0358
 -86.0358
 -86.0358
 -86.0358
 -86.0358
 -86.0358
 -86.0358
 -86.0358
 -86.0358
 -86.0358
 -86.0358
 28.5956
 23.4747
 26.3099
 30.4705
 -86.0358
 -86.0358
 -86.0358
 -86.0252
 -86.0358
 -86.0358
 -86.0358
 -86.0358
 -86.0291
 -86.1371
 -85.612
 -86.0396
 -86.0358
 -86.0358
 -86.0358
 -86.0358
 -86.0358
 -86.0358
 -86.0358
 -86.0358
 -86.0358
 -86.0358
 -86.0358
 -86.0358
 -86.0358
 -86.0358
 -86.0358
 -86.0358
 -86.0358
 -86.0358
 -86.0358
 -86.0358
 -86.0358
 -86.0389
 -86.0596
 -86.0309
 -86.0359
 -86.0484
 -86.0301
 -86.0734
 -85.9114
 -87.2755
 -85.6182
 -85.9883
 -86.0358
 -86.0358
 -86.0358
 -86.0358
 -86.4149
 -85.6722
 -86.4018
 -83.507
 -86.0358
 -86.0358
 -86.0358
 -86.0358
 -86.088
 -85.868
 -86.3134
 -86.291
 -86.0358
 -86.0358
 -86.0358
 -86.0358
 -86.0358
 -86.0359
 -86.0359
 -86.036
 -86.0358
 -86.0358
 -86.0358
 -86.0358
 -47.5428
 -89.3755
 -86.0358
 -86.0358
 -86.0358
 -86.0358
 -86.0358
 -86.0358
 -86.0358
 -86.0358
 -86.0358
 -86.0358
 -86.0358
 -86.0358
 -86.0358
 -86.0358
 -86.0358
 -86.0358
 -86.0359
 -86.0359
 -86.0359
 -86.0342
 -86.035
 -86.0358
 -86.036
 -86.0349
 -87.4995
 -85.8527
 -85.9231
 -85.8236
 -86.0429
 -86.0375
 -86.0346
 -86.0707
 -86.0358
 -86.0358
 -86.0358
 -86.0358
 -86.0358
 -86.0358
 -86.0358
 -86.0358
 23.8389
 26.1426
 29.2514
 26.8561
 -86.0358
 -86.0358
 -86.0358
 -86.0358
 -86.0358
 -86.0358
 -86.0358
 -86.0358
 -86.0358
 -86.0358
 -86.0358
 -86.0358
 -85.7558
 -85.8144
 -86.0878
 -84.8781
 -86.0358
 -86.0358
 -86.0358
 -86.0358
 -86.0358
 -86.0358
 -86.0358
 -86.0358
 -86.0358
 -86.0358
 -86.0358
 -86.0358
 -86.0358
 -86.0358
 -86.0358
 -86.0358
 -87.1634
 -85.1413
 -87.4422
 -92.9366
 -86.0358
 -86.0358
 -86.0358
 -86.0358
 -86.0358
 -86.0358
 -86.0358
 -86.0358
 -86.0358
 -86.0358
 -86.0358
 -86.0358
 -77.5681
 -86.0358
 -86.0358
 -86.0358
 -86.0358
 -86.0358
 -86.0358
 -86.0358
 -86.0358
 -86.0358
 -86.0358
 -86.0359
 -86.0358
 -86.0358
 -86.0358
 -86.0358
 -86.0358
 -86.0358
 -86.0358
 -86.0358
 -86.0358
 -86.0358
 -86.0358
 -86.0358
 -86.0859
 -86.0333
 -86.0446
 -86.0452
 -86.0358
 -86.0358
 -86.0358
 -86.0358
 22.6354
 22.6533
 22.6924
 22.7463
 -86.0358
 -86.0358
 -86.0358
 -86.0358
 -86.0358
 -86.0358
 -86.0358
 -86.0358
 -86.0358
 -86.0358
 -86.0358
 -86.0358
 23.9434
 26.477
 26.7602
 30.4122
 -55.5329
 -88.5533
 -66.6129
 -56.1822
 -86.0358
 -86.0358
 -86.0358
 -86.0358
 -86.0358
 -86.0358
 -86.0358
 -86.0358
 -86.0358
 -86.0358
 -86.0358
 -86.0358
 -86.0358
 -86.0358
 -86.0358
 -86.0358
 -86.0358
 -86.0358
 -86.0358
 -86.0358
 -86.0358
 -86.0358
 -86.0358
 22.7849
 22.8732
 24.4242
 25.7086
 -86.0358
 -86.0358
 -86.0358
 -86.0358
 -86.0358
 -86.0358
 -86.0358
 -86.0358
 -86.0358
 -86.0358
 -86.0358
 -86.0349
 -86.0436
 -86.0421
 -86.044
 -86.0358
 -86.0358
 -86.0358
 -86.0358
 -86.0358
 -86.0358
 -86.0358
 -88.6745
 -85.7051
 -86.7962
 -85.865
 -86.0358
 -86.0358
 -86.0358
 -86.0358
 -86.0358
 -86.0358
 -86.0358
 -86.0358
 -86.0358
 -86.0358
 -86.0358
 -86.0358
 -86.1209
 -86.1646
 -86.0467
 -86.1064
 -86.0358
 -86.0358
 -86.0358
 -86.0358
 -86.0358
 -86.0358
 -86.0358
 -86.0358
 -86.0358
 -86.0358
 -86.0358
 -70.9295
 -76.1104
 -90.1869
 -87.2196
 -86.0358
 -86.0358
 -86.0358
 -86.0358
 23.9399
 23.8962
 22.8122
 -86.0358
 -86.0358
 -86.0358
 -86.0358
 -86.0358
 -86.0358
 -86.0358
 -86.0358
 -86.0358
 -86.0358
 -86.0358
 -86.0358
 -86.0358
 -86.0358
 -86.0358
 -86.0358
 -86.0358
 -86.0358
 -86.0358
 -86.0358
 -86.0358
 -86.0358
 -86.0358
 -86.0358
 -86.0358
 -86.0358
 -86.0358
 -86.0358
 -86.0358
 -86.0358
 -86.0358
 -86.0358
 -86.0358
 -86.0358
 -86.0358
 -86.0358
 -86.0358
 -86.0358
 -86.0358
 -62.1433
 -90.7762
 -89.6541
 -46.7445
 -86.0358
 -86.0358
 -86.0358
 -86.0358
 -86.0358
 -86.0358
 -86.0358
 -86.0358
 23.8959
 23.7411
 22.5271
 22.9186
 24.0678
 27.7735
 25.8773
 25.5144
 -86.034
 -86.0316
 -86.0418
 -86.0329
 24.375
 23.3636
 23.1077
 26.7505
 -86.1504
 -90.3573
 -89.4367
 23.7638
 25.7593
 24.6079
 25.2282
 -86.0358
 -86.0358
 -86.0358
 -86.0358
 -86.0358
 -86.0358
 -86.0358
 -86.0358
 -86.0358
 -86.0358
 -86.0358
 -86.0358
 -86.0358
 -86.0358
 -86.0358
 -86.0358
 -32.9527
 -70.5713
 13.564
 17.7801
 -86.0358
 -86.0358
 -86.0358
 -86.0358
 -86.0358
 -86.0358
 -86.0358
 -86.0358
 -86.0358
 -86.0358
 -86.0358
 -86.0358
 -86.0358
 -86.0358
 -86.0358
 -86.0358
 -86.0356
 -86.0358
 -86.0359
 -86.0358
 -86.0358
 -86.0358
 -90.9561
 -86.5219
 -85.7355
 -86.8298
 -86.0358
 -86.0358
 -86.0358
 -86.0358
 -86.0358
 -86.0358
 -86.0358
 -86.0358
 -86.0358
 -86.0358
 -86.0358
 -86.0358
 23.5586
 24.6717
 27.7668
 26.2493
 13.2565
 32.8374
 -86.0358
 -86.0358
 -86.0358
 -86.0358
 -86.0358
 -86.0358
 -86.0358
 -86.0358
 -86.0358
 -86.0358
 -86.0358
 -86.0358
 -86.0358
 -86.0358
 -86.0358
 -86.0358
 -86.0358
 -86.0358
 -86.0358
 -86.0358
 -86.0358
 -86.0358
 -86.0358
 -86.0358
 -86.0358
 -86.0358
 -86.0358
 24.7112
 33.7533
 25.3341
 27.9509
 -86.0358
 -86.0358
 -86.0358
 -86.0358
 -86.0358
 -86.0358
 -86.0358
 -86.0358
 -86.0358
 -86.0358
 -86.0358
 -86.0358
 -86.0358
 -86.0358
 -86.0358
 -86.0358
 -86.0358
 -86.0358
 -86.0358
 -86.0358
 -86.0358
 -86.0358
 -86.0358
 -86.0358
 -86.0358
 -86.0358
 -86.0358
 -86.0358
 -86.0358
 -86.0358
 -86.0358
 -86.0358
 -86.0358
 -86.036
 -86.0346
 -86.0642
 -86.0298
 -86.0261
 -86.0358
 -86.0358
 -86.0358
 -86.0358
 27.5571
 -65.0197
 -56.1466
 12.7077
 -86.0351
 -86.0356
 -86.0353
 -86.0358
 -86.0358
 -86.0358
 -86.0358
 -86.0358
 -86.0363
 -86.0358
 -86.0358
 -86.0358
 -86.0358
 -86.0358
 -86.0358
 -86.0359
 -86.0359
 -86.0358
 -86.0358
 -86.0358
 -86.0358
 -86.0358
 -86.0358
 -86.0358
 -86.0358
 -86.0358
 -86.0358
 -86.0358
 -86.0358
 -86.0358
 -86.0358
 -86.0358
 -86.0358
 -86.0358
 -86.0358
 -86.0358
 -86.0358
 -86.0358
 -86.0358
 -86.0358
 -86.0358
 -86.0358
 -86.0358
 -86.0358
 -86.0358
 -86.0358
 -86.0358
 -86.0358
 -86.012
 -86.0359
 -86.0317
 -86.0332
 -86.0358
 -86.0358
 -86.0358
 -86.0358
 -85.7763
 -85.7465
 -85.452
 -86.6342
 -86.0358
 -86.0358
 -86.0358
 -86.0358
 12.2755
 30.0941
 23.6614
 -86.0358
 -86.0358
 -86.0358
 -86.0358
 -86.0358
 -86.0358
 -86.0358
 -86.0358
 -86.0358
 -86.0358
 -86.0358
 -86.0358
 -86.0358
 -86.0358
 -86.0358
 -86.0358
 -86.0358
 -86.0358
 -86.0358
 -86.0358
 -86.0358
 -89.9853
 -82.5222
 -87.8596
 -90.1186
 -27.9195
 -69.8869
 -88.762
 -89.1391
 -86.0358
 -86.0358
 -86.0358
 -86.0358
 -86.0358
 -86.0358
 -86.0358
 -86.0358
 -86.0358
 -86.0358
 -86.0349
 -86.0349
 -86.0363
 -86.0402
 -86.0358
 -86.0358
 -86.0358
 -86.0358
 -86.0358
 -86.0358
 -86.0358
 -86.0358
 -86.0358
 -86.0358
 -86.0358
 -86.0358
 -86.0358
 -86.0358
 -86.0358
 -86.0358
 -86.036
 -86.0359
 -86.0358
 -86.0358
 -86.0272
 -86.0426
 -86.0323
 -86.0291
 -86.0358
 -86.0358
 -86.0358
 -86.0358
 -86.0358
 -86.0358
 -86.0358
 -86.0358
 -86.0358
 -86.0358
 -86.0358
 -86.0358
 -86.0358
 -86.0358
 -93.1563
 -59.1243
 -91.9352
 -46.7687
 -86.0358
 -86.0358
 -86.0358
 -86.0358
 -86.0358
 -86.0359
 -86.0358
 -86.0358
 -86.0358
 -86.0773
 -86.0396
 -86.0416
 -86.108
 -86.0268
 -86
 -86.0358
 -86.0358
 -86.0358
 -86.0358
 -86.0358
 -86.0358
 -86.0358
 -86.0358
 -86.0358
 -86.0358
 -86.0358
 -86.0358
 -86.0358
 -86.0358
 -86.0358
 -86.0358
 -86.0358
 -86.0358
 -86.0358
 -86.0358
 -86.0358
 -86.7812
 -85.8207
 8.33289
 25.1496
 32.5636
 28.7227
 -86.0358
 -86.0358
 -86.0358
 -86.0358
 -86.0369
 -86.0438
 -86.0321
 -86.0664
 -86.0358
 -86.0358
 -86.0358
 -86.0358
 -86.0358
 -86.0358
 -86.0358
 -86.0358
 -86.0358
 -86.0358
 -86.0358
 -86.0358
 -86.0358
 -86.0358
 -86.0358
 -86.0358
 -86.0358
 -86.0358
 -86.0358
 -86.0358
 24.4956
 24.017
 24.0452
 23.4409
 -86.0358
 -86.0358
 -86.0358
 -86.0358
 -86.0358
 -86.0358
 -86.0358
 31.059
 23.5935
 24.9073
 23.0595
 -86.0358
 -86.0358
 -86.0358
 -86.0358
 -86.0358
 -86.0358
 -86.0588
 -86.0781
 -85.8739
 -86.0265
 -86.0358
 -86.0358
 -86.0358
 -86.0358
 19.922
 17.4743
 28.5256
 25.8067
 -86.0358
 -86.0358
 -86.0358
 -86.0358
 -86.0358
 -86.0358
 -86.0358
 -86.0358
 -86.0358
 -86.0358
 -85.756
 -85.2858
 -86.0485
 -85.6849
 -86.026
 -86.0327
 -86.0511
 -86.029
 -86.0359
 -86.0358
 -86.0359
 -86.0358
 -86.0358
 -86.0358
 -86.0358
 -86.0358
 -86.0358
 -86.0358
 -86.0358
 -86.0358
 24.6339
 23.0498
 23.6327
 23.2995
 -86.0358
 -86.0358
 -86.0358
 -86.0358
 -86.0358
 -86.0358
 -86.0358
 -86.0358
 -86.0358
 -86.0358
 -86.0358
 -86.0358
 -86.0358
 -86.0358
 -86.0358
 -86.0358
 -86.0358
 -86.0358
 -86.0358
 -86.0358
 -86.0358
 -86.0358
 -86.0358
 -86.0368
 -86.0364
 -86.0381
 -86.0358
 -86.0358
 -86.0358
 -86.0358
 -86.0358
 -86.0358
 -86.0358
 -86.0358
 -86.0358
 -86.0358
 -86.0358
 -86.0358
 -86.0358
 -86.0358
 -86.0358
 -86.0358
 -86.1061
 -85.3229
 -86.0823
 -85.5727
 -86.0358
 -86.0358
 -86.0358
 -86.0358
 -86.0358
 -86.0358
 -86.0358
 -86.0358
 -86.0358
 -86.0358
 -86.0358
 -86.0358
 -86.0358
 -86.0358
 23.0016
 23.1134
 22.8912
 23.3101
 -86.0358
 -86.0358
 -86.0358
 -86.0358
 -86.0358
 -86.0358
 -86.0358
 -86.0358
 -86.0358
 -86.0358
 -86.0362
 -86.0364
 -86.0388
 -86.0375
 -86.0358
 -86.0358
 -86.0358
 -86.0358
 -86.0358
 -86.0358
 -86.0358
 -86.0358
 -86.0358
 -86.0358
 -86.0358
 -86.0358
 -86.0358
 -86.0358
 -86.0358
 -86.0358
 -86.0358
 -86.0358
 -86.0358
 -86.0358
 -86.0041
 -86.0157
 -86.0518
 -86.2375
 -86.0358
 -86.0358
 -86.0358
 -86.0358
 -86.0358
 -86.0358
 -85.9915
 -86.143
 -85.7758
 -85.5953
 -85.6463
 -86.0461
 -85.9572
 -86.0003
 -86.0358
 -86.0358
 -86.0358
 -86.0358
 -93.5668
 -66.1417
 -88.3248
 -85.7678
 30.5868
 23.0005
 28.03
 22.4324
 -86.0358
 -86.0358
 -86.0358
 -86.0358
 -86.0371
 -86.0332
 -86.041
 -86.0372
 22.7716
 23.0943
 22.5836
 22.9733
 -86.0348
 -86.031
 -86.0355
 -86.0339
 -86.0358
 -86.0358
 -86.0358
 -86.0358
 -85.38
 -85.6567
 -85.8472
 -86.0816
 -86.0358
 -86.0358
 -86.0359
 -86.0358
 -86.0358
 -86.0358
 -86.0358
 -86.0358
 -86.0358
 -86.0358
 -86.0358
 -86.0358
 -86.0358
 -86.0358
 -86.0358
 -86.0358
 -86.0358
 -86.0358
 -86.0358
 -86.0358
 -86.0358
 -86.0358
 -86.0358
 -86.0358
 -86.0358
 -86.0358
 -86.0358
 -86.0358
 -86.0358
 -86.0358
 -86.0358
 -86.0358
 -86.0358
 -86.0358
 -86.0358
 -86.0358
 -86.0358
 -86.0358
 -86.0358
 25.813
 26.3397
 24.7212
 26.7452
 -86.0358
 -86.0358
 -86.0358
 -86.0358
 -86.1696
 -85.8775
 -86.0135
 -85.996
 -86.0358
 -86.0358
 -86.0358
 -86.0358
 -90.9555
 -65.7396
 -80.0345
 -60.4776
 -86.0358
 -86.0358
 -86.0358
 -86.0358
 -86.0358
 -86.0358
 -86.0358
 -86.0358
 22.5629
 22.597
 22.6523
 22.8339
 -86.0358
 -86.0358
 -86.0358
 -86.0358
 -86.0358
 -86.0358
 -86.0358
 -86.0358
 26.1215
 28.2873
 28.159
 27.3259
 -86.0358
 -86.0358
 -86.0358
 -86.0358
 -86.1925
 -85.9426
 -85.8335
 -86.1306
 -85.9297
 -86.0601
 -86.0693
 -86.0358
 -86.0358
 -86.0358
 -86.0358
 -86.0619
 -85.9139
 -86.1347
 -86.0986
 -86.0358
 -86.0358
 -86.0358
 -86.0358
 -85.6507
 -85.5305
 -85.8274
 -85.8813
 -86.1058
 -86.2642
 -85.0423
 -86.1658
 -86.0358
 -86.0358
 -86.0358
 -86.0358
 -86.0358
 -86.0358
 -86.0358
 -86.0358
 -86.0358
 -86.0358
 -86.0358
 -86.0358
 -86.0358
 -86.0358
 -86.0358
 -86.0358
 -86.0358
 -86.0358
 -86.0358
 -76.9879
 -91.9421
 -87.5061
 -58.0373
 -86.0358
 -85.6066
 -86.0356
 -85.8586
 -85.9966
 -86.0004
 -85.9991
 -86.0935
 -86.0358
 -86.0358
 -86.0358
 -86.0358
 -86.0358
 -86.0358
 -86.0358
 -86.0358
 19.5832
 -36.7284
 24.2112
 23.5304
 -86.0358
 -86.0358
 -86.0358
 -86.0358
 -86.0358
 -86.0358
 -86.0358
 -86.0358
 -86.0358
 -86.0358
 -86.0358
 -86.0358
 -86.0358
 -86.0358
 -85.9948
 -85.1342
 -86.8258
 -86.0358
 -86.0358
 -86.0358
 -86.0358
 -86.0358
 -86.0358
 -86.0358
 -86.0358
 -86.0358
 -86.0358
 -86.0358
 -86.0358
 -86.0358
 -86.0358
 -86.0358
 -86.0358
 -86.0358
 -86.0358
 -86.0358
 -86.0358
 -86.0358
 -86.0358
 -86.0358
 -86.0358
 -86.0358
 -86.0358
 -86.0358
 -86.0358
 -86.0358
 -86.0358
 -86.0358
 -86.0358
 -86.0358
 -86.0358
 -86.0877
 -86.0423
 -86.0283
 -86.0273
 -86.0358
 -86.0358
 -86.0358
 -86.0358
 -86.0358
 -86.0358
 -86.0358
 -86.0358
 -86.0358
 -86.0358
 15.8363
 -85.7156
 -92.0396
 -87.728
 -87.216
 -86.0358
 -86.0358
 -86.0358
 -86.0358
 -86.0851
 -86.1389
 -85.9807
 25.3026
 26.6523
 26.9349
 25.1788
 -86.0358
 -86.0358
 -86.0358
 -86.0358
 -86.0358
 -86.0358
 -86.0358
 -86.0358
 -86.0358
 -86.0358
 -86.0358
 -86.0358
 24.0166
 24.1877
 24.7524
 25.041
 -86.0359
 -86.0358
 -86.0358
 -86.0358
 -86.0358
 -86.0358
 -86.0358
 -86.0358
 -86.0358
 -86.0358
 -86.0358
 -86.0358
 -86.0358
 -86.0358
 -86.0358
 -86.0358
 -86.0358
 -86.0358
 -86.0358
 -86.0358
 -86.0358
 -86.0358
 -86.0358
 -86.0358
 -86.0357
 -86.0375
 -86.0366
 -86.041
 -86.0358
 -86.0358
 -86.0358
 -86.0358
 -86.0358
 -86.0358
 -86.0358
 -86.0358
 -86.0362
 -86.0365
 -86.0377
 -86.0369
 -86.0358
 -86.0358
 -86.0358
 -86.0358
 -86.0359
 -86.0358
 -86.0359
 -86.0357
 22.4604
 22.8429
 22.6669
 22.6411
 -86.138
 -86.0538
 -86.0462
 -86.0291
 -86.0358
 -86.0358
 -86.0358
 -86.0358
 -86.0358
 -86.0358
 -86.0358
 -86.0358
 -86.0358
 -58.4586
 -87.3484
 -84.4691
 -82.2572
 -86.0358
 -86.0358
 -86.0358
 -86.0358
 -86.0358
 -86.0358
 -86.0358
 -86.0358
 -86.0358
 -86.0358
 -86.0358
 -86.0358
 -86.0358
 -86.0358
 -86.0358
 -86.0358
 -86.0358
 -86.0358
 -86.0358
 -86.0358
 22.8577
 22.5902
 -86.0358
 -86.0358
 -86.0358
 -86.0358
 -86.0358
 -86.0358
 -86.0358
 -86.0358
 -86.0358
 -86.0358
 -86.0358
 -86.0358
 -86.0358
 -86.0358
 -86.0358
 -86.0358
 -86.0358
 -86.0358
 27.8244
 9.65219
 22.9835
 21.0349
 -86.0358
 -86.0358
 -86.0358
 -86.0358
 -86.036
 -86.0359
 -86.0358
 -86.0342
 -86.0358
 -86.0358
 -86.0358
 -86.0358
 -86.0357
 -86.0363
 -86.0357
 -86.0359
 -86.0358
 -86.0358
 -85.1881
 -86.057
 -85.798
 -86.1864
 -86.0359
 -86.0358
 -86.0358
 -86.0359
 -86.0358
 -86.0358
 -86.0358
 -86.0358
 -86.0358
 -86.0358
 -86.0358
 -86.0358
 -86.0358
 -86.0358
 -86.0358
 -86.0358
 -86.0358
 -86.0358
 -86.0358
 -86.0358
 -86.0358
 -86.0358
 -86.0358
 -86.0358
 -86.0358
 -86.0358
 -86.0358
 -86.0358
 22.7247
 22.8736
 22.5498
 22.7793
 -85.7928
 -85.9816
 -86.0067
 -85.9411
 22.5303
 22.5655
 22.5694
 22.6845
 -84.9806
 -88.0816
 -90.2372
 -87.794
 -86.0358
 -86.0358
 -86.0358
 -86.0358
 -86.0358
 -86.0358
 -86.0358
 -86.0358
 -86.0358
 -86.0358
 -86.0358
 -86.0358
 -86.0358
 -86.0358
 -86.0301
 -86.1019
 -86.1659
 -86.0525
 -86.0358
 -86.0358
 -86.0358
 -86.0358
 -86.0358
 -86.0358
 -86.0358
 -86.0358
 -86.0358
 -86.0358
 -86.0358
 -86.0358
 -86.0358
 -86.0358
 -86.0358
 -86.0358
 -86.0358
 -86.0358
 -86.0358
 -86.0358
 -86.0358
 -86.0358
 -86.0358
 -86.0358
 -86.0388
 -86.0357
 -86.0367
 -86.0367
 -86.0358
 -86.0358
 -86.0358
 -86.0358
 -86.0358
 -86.0358
 -86.0358
 -86.0358
 -86.0358
 -86.0358
 -86.0358
 -86.1437
 -85.8222
 -86.0358
 -86.0358
 -86.0358
 -86.0358
 -86.0358
 -86.0358
 -86.0358
 -86.0358
 -86.0358
 -86.0358
 -86.0358
 -86.0358
 -86.0358
 -86.0358
 -86.0358
 -86.0358
 -86.0358
 -86.0358
 -86.0358
 -86.0358
 -86.0358
 -86.0358
 -86.0358
 -86.0358
 -86.0358
 -86.0358
 -86.0358
 -86.0358
 -86.0358
 -86.0358
 -86.0358
 -86.0358
 -86.0358
 -86.0358
 -86.0358
 -86.0358
 -86.0358
 -86.0358
 -86.0358
 -86.0358
 -86.0358
 -86.0358
 -86.0358
 -86.0358
 -86.0358
 -86.0358
 -86.0358
 -86.0358
 -86.0358
 -86.0358
 -86.0358
 -86.0358
 -86.0358
 -86.0358
 -86.0358
 19.5726
 15.7535
 18.1453
 25.3672
 -86.0358
 -86.0358
 -86.0358
 -86.0358
 -86.0358
 -86.0358
 -86.0358
 -86.0358
 -86.0358
 -86.0358
 -86.0358
 -86.0358
 -86.0358
 -86.0358
 -86.0358
 -86.0358
 -86.0358
 -86.0358
 -86.0358
 -86.0358
 -86.0358
 -86.0358
 -86.0358
 -86.0358
 -85.5552
 -85.9382
 -87.0884
 -88.5102
 -86.0358
 -86.0358
 -86.0358
 -86.0358
 -86.0354
 -86.0346
 -86.0353
 -86.036
 -86.0358
 -86.0358
 -86.0358
 -86.0358
 29.5369
 26.9057
 31.8341
 27.2331
 27.0357
 30.6175
 24.9753
 -86.0357
 -86.0358
 -86.0358
 -86.0358
 -86.0358
 -86.0358
 -86.0358
 -86.0358
 23.1583
 23.1537
 23.3567
 -86.0358
 -86.0358
 -86.0358
 -86.0358
 -85.4878
 -85.1463
 -86.0131
 -86.17
 -85.6816
 -86.0449
 -86.0358
 -86.0358
 -86.0358
 -86.0358
 -86.0358
 -86.0358
 -86.0358
 -86.0358
 -86.0358
 -86.0358
 -86.0358
 -86.0358
 -86.0358
 -86.0358
 26.3169
 32.4178
 39.144
 -86.0357
 -86.0358
 -86.0358
 -86.0358
 27.1767
 26.9568
 20.834
 26.1337
 -86.0358
 -86.0358
 -86.0358
 -86.0358
 -69.4904
 -77.632
 -48.6571
 -86.6477
 -86.0358
 -86.0358
 -86.0358
 -86.0358
 -86.0358
 -86.0358
 -86.0358
 24.1627
 24.465
 23.6222
 22.6337
 -86.0358
 -86.0358
 -86.0358
 -86.0358
 -86.0358
 -86.0358
 -86.0358
 -86.0358
 -86.0358
 -86.0358
 -86.0358
 -86.0358
 -86.0358
 -86.0358
 -86.0358
 -86.0358
 -86.0358
 -86.0358
 -86.0358
 -86.0358
 -86.0358
 -86.0358
 -86.0358
 22.9189
 24.2297
 23.8974
 23.0752
 -86.0358
 -86.0358
 -86.0358
 -86.0358
 -86.0358
 -86.0358
 -86.0358
 -86.0358
 -86.0358
 -86.0358
 -86.0358
 -86.0358
 -86.0358
 -86.0358
 -86.0357
 -86.0358
 -86.0358
 -86.036
 -86.0358
 -86.0357
 -86.0358
 -86.0358
 -86.0358
 -86.0358
 -86.0358
 -86.0358
 -86.0358
 -86.0358
 -86.0358
 -86.0358
 -86.0358
 -86.0358
 -86.0358
 -86.0358
 -86.0358
 -86.0358
 -86.0358
 -86.0358
 -86.0358
 -86.0353
 -86.0368
 -86.0367
 -86.0335
 -86.0296
 -86.1703
 -85.6593
 -86.162
 -86.0368
 -86.0228
 -86.0409
 -86.0358
 -86.036
 -86.0358
 -86.0358
 -86.0358
 -86.0358
 -86.0358
 -86.0358
 -86.0358
 -86.0358
 -86.0358
 -86.0358
 -86.0358
 -86.0358
 -86.0358
 -86.0358
 -85.5124
 -86.0617
 -86.0795
 -85.9962
 -86.0358
 -86.0358
 -86.0358
 -86.0358
 -86.0358
 -86.0358
 -86.0358
 -86.0358
 -86.0357
 -86.0359
 -86.0358
 -86.0357
 -86.0358
 -86.0358
 -86.0358
 -86.0358
 -86.0358
 -86.0358
 -86.0358
 -86.0358
 -86.0358
 -86.0358
 -86.0358
 -85.5208
 -90.5135
 -85.3301
 -85.3705
 -86.0358
 -86.0358
 -86.0358
 -86.0358
 -86.0358
 -86.0358
 -86.0358
 -86.0358
 -86.0358
 -86.0358
 -86.0358
 -86.0358
 -86.0358
 -86.0358
 -86.0358
 -86.0358
 -86.0358
 -86.0358
 -86.0358
 -86.0358
 -86.0358
 -86.0358
 -86.0358
 -86.0358
 -86.0358
 -86.0358
 -86.0358
 -86.0358
 -86.0358
 -86.0358
 -86.0358
 -86.0358
 -86.0358
 -86.0358
 -86.0358
 23.3185
 25.3715
 25.9408
 23.7163
 -86.0358
 -86.0358
 -86.0358
 -86.0358
 -86.0396
 -86.0308
 -86.0351
 -86.0354
 -86.0358
 -86.0358
 -86.0358
 -86.0358
 -86.0358
 -86.0358
 -86.0358
 -86.0358
 -86.0358
 -86.0358
 -86.0358
 -86.0358
 -86.0358
 -86.0358
 -86.0358
 -86.0358
 -86.0603
 -86.1219
 -86.0594
 -85.997
 -86.0358
 -86.0358
 -86.0358
 -86.0358
 -86.0358
 -86.0358
 -86.0358
 -86.0358
 -87.0446
 -71.9941
 -88.9531
 -82.6229
 -86.0358
 -86.0358
 -86.0358
 -86.0358
 -86.0358
 -86.0358
 -86.0358
 -86.0358
 -86.0358
 -86.0358
 -86.0358
 -86.0358
 -86.0358
 -86.0358
 -86.0358
 -86.0358
 -86.0358
 -86.0358
 -86.0358
 -86.0358
 -86.0358
 -86.0358
 -86.0358
 -86.0358
 -86.0358
 -86.0358
 -92.8169
 -79.8834
 -57.4561
 -89.2196
 -86.0358
 -86.0358
 -86.0358
 -86.0358
 -86.0358
 -86.0358
 -86.0358
 -86.0358
 -86.0358
 -86.0358
 -86.0358
 -86.0358
 -86.0358
 -86.0358
 -86.0358
 -86.0358
 -86.0358
 -86.0358
 -86.0358
 -86.0358
 -86.0358
 -86.0358
 -86.0358
 -86.0358
 -86.0358
 -86.0358
 -86.0358
 -86.0358
 -86.0358
 -86.0358
 -86.0358
 -86.0358
 -86.0358
 -86.0358
 -86.0358
 -86.0358
 -86.0358
 -86.0358
 -86.0358
 -86.0358
 -86.0358
 -86.0358
 -86.0358
 -86.0358
 -86.0358
 -86.0358
 -86.0358
 -86.0358
 -86.0358
 -86.0358
 -86.0357
 -86.0363
 33.8644
 31.1324
 27.2761
 25.012
 -86.0358
 -86.0358
 -86.0358
 -86.0358
 -86.0358
 -86.0358
 -86.0358
 -86.0358
 -86.0358
 -86.0358
 -86.0358
 -86.0358
 -86.0358
 -86.0358
 -86.0358
 -86.0358
 -86.0358
 -86.0358
 -86.0358
 -86.0358
 -86.0358
 -86.0358
 -86.0358
 18.9593
 22.987
 24.4527
 29.0683
 -69.6275
 -74.2698
 -84.5282
 -89.2504
 -86.0358
 -86.0358
 -86.0358
 -86.0358
 -86.0358
 -86.0358
 -86.0358
 -86.0358
 -86.0358
 -86.0358
 -86.0358
 -86.0358
 -86.0358
 -86.0358
 -86.0358
 -86.0358
 -86.0358
 22.599
 22.7223
 22.5193
 -86.0358
 -86.0358
 -86.0358
 -86.0358
 -88.9434
 -85.2349
 -87.5277
 -85.4603
 -86.0358
 -86.0358
 -86.0358
 -86.0358
 -86.035
 -86.0318
 -86.0259
 -86.0371
 -86.0358
 -86.0358
 -86.0358
 -86.0358
 -86.0358
 -86.0358
 -86.0358
 -86.0358
 -86.0358
 -86.0358
 -86.0358
 -86.0358
 -86.0358
 -86.0358
 -86.0358
 -86.0358
 -86.0358
 -86.0358
 -86.0358
 -86.0358
 -86.0358
 -86.0358
 -86.0358
 -86.0358
 -86.0358
 -86.0358
 -86.0358
 -86.0358
 -86.0358
 -86.0358
 -86.0358
 -86.0358
 -86.0358
 -86.0358
 -86.0358
 -86.0358
 -86.0358
 -86.0358
 -86.0358
 -86.0358
 -86.0358
 -86.0358
 -86.0358
 -86.0358
 -86.0358
 -86.0358
 -86.0358
 -82.9621
 -84.8477
 -87.808
 25.3929
 28.6037
 38.6537
 27.664
 -86.1047
 -85.2634
 -85.9383
 -86.1089
 -86.0358
 -86.0358
 -86.0358
 -86.0358
 -86.0358
 -86.0358
 -86.0358
 -86.0358
 -86.0358
 -86.0358
 -86.0358
 -86.0358
 -86.0358
 -86.0358
 -86.0358
 -86.0358
 -86.0358
 -86.0358
 -86.0358
 -86.0358
 -86.0358
 -86.0358
 -86.0358
 -86.0358
 -86.0358
 -86.0358
 -86.0358
 -86.0358
 23.2767
 23.4672
 24.2762
 25.2973
 -86.0358
 -86.0358
 -86.0358
 -86.0358
 -86.0359
 -86.0358
 -86.0358
 -86.0359
 -86.0358
 -86.0358
 -86.0358
 -86.0358
 -86.0358
 -86.0358
 -86.0358
 -86.0358
 -86.0358
 -86.0358
 -86.0358
 26.0095
 24.706
 24.3377
 -86.0358
 -86.0358
 -86.0358
 -86.0358
 -86.0358
 -86.0358
 -86.0358
 -86.0358
 -86.0358
 -86.0358
 -86.0358
 -86.0358
 -86.0358
 -86.0358
 -86.0358
 -86.0358
 -86.0358
 -86.0358
 -86.0358
 -86.0358
 -86.0358
 -86.0358
 -86.0358
 28.795
 33.3414
 23.7476
 7.75207
 -85.6781
 -86.1321
 -86.2754
 -87.6497
 -86.0358
 -86.0358
 -86.0358
 -86.0358
 -86.3356
 -89.0307
 -88.3586
 -85.1798
 21.0697
 28.5511
 28.387
 24.573
 -86.7767
 -86.8837
 -85.9722
 -86.0747
 -86.0358
 -86.0358
 -86.0358
 -86.0358
 -86.0358
 -86.0358
 -86.0358
 -86.0358
 -86.0358
 -86.0358
 -86.0358
 -86.0365
 -86.036
 -86.0358
 -86.0357
 -86.0288
 -86.0421
 -86.0457
 -86.0603
 22.8429
 22.9104
 22.3396
 22.7434
 -86.0358
 -86.0358
 -86.0358
 -86.0358
 -86.0358
 -86.0358
 -86.0358
 -86.0358
 -86.0358
 -86.0358
 -86.0358
 -86.0358
 -86.0358
 -86.0358
 -86.0358
 -86.0358
 -86.0358
 -86.0358
 -86.0358
 24.0671
 38.3342
 26.9331
 29.4973
 -86.035
 -86.036
 -86.0359
 -86.0358
 -86.0358
 -86.0358
 -86.0358
 -86.0358
 -89.3335
 -83.7845
 -86.0358
 -86.0358
 -86.0358
 -86.0358
 -86.9553
 -88.746
 -71.2334
 -92.174
 -86.0358
 -86.0358
 -86.0358
 -86.0358
 -86.0358
 -86.0358
 -86.0358
 -86.0358
 -86.0358
 -86.0358
 -86.0358
 -86.0358
 -86.0358
 -86.0358
 -86.0358
 -86.0358
 -85.022
 -85.713
 -85.9947
 -84.7119
 25.0719
 27.9125
 26.9853
 24.8447
 -86.0358
 -86.0358
 -86.0358
 -86.0358
 -86.0358
 -86.0358
 -86.0358
 -86.0358
 -86.0358
 -86.0358
 -86.0358
 -86.0358
 -86.0358
 -86.0358
 -86.0358
 -86.0358
 -86.0358
 -86.0358
 -86.0358
 -86.0358
 -86.0358
 -86.0358
 -86.0358
 -86.0358
 -86.0358
 -86.0358
 -86.0358
 -86.0358
 -86.0358
 -86.0358
 -82.9596
 -85.8154
 -86.5173
 -86.7331
 -86.0358
 -86.0358
 -86.0358
 -86.0358
 -86.0358
 -86.0358
 -86.0332
 -86.036
 -86.0364
 -86.0358
 -86.0358
 -86.0358
 -86.0358
 -86.0358
 -86.0358
 -86.0358
 -86.0358
 -86.0358
 -86.0358
 -86.0358
 -86.0358
 -86.0358
 -86.0358
 -86.0358
 -86.0358
 -86.0358
 -86.0358
 -86.0358
 -86.0358
 -86.0358
 -86.0358
 -86.0358
 -86.0358
 -86.0358
 -86.0358
 -86.0358
 -86.0358
 -86.0358
 -86.0358
 -86.0358
 -86.0358
 -86.0358
 -86.0358
 -86.0358
 -86.0358
 -86.0358
 -86.0358
 -86.0358
 -86.0358
 -86.0358
 -86.0358
 -86.0358
 -86.0358
 -86.0358
 -86.0358
 -86.0358
 -86.0358
 -86.0358
 -86.0358
 -86.0358
 -86.0358
 -86.0358
 -86.0358
 -86.0358
 -86.0358
 -86.0358
 -86.0358
 -86.0358
 -86.0358
 -86.0358
 -86.0358
 -86.0358
 -86.0358
 -86.0358
 -86.0358
 -86.0358
 -86.0358
 -86.0358
 -86.0358
 -86.0358
 -86.0356
 -86.0361
 -86.0356
 -86.0355
 -86.0358
 -86.0358
 -86.0358
 -86.0358
 -86.0358
 -86.0358
 -86.0358
 -86.0358
 -86.0358
 -86.0358
 -86.0358
 -86.0358
 -86.0358
 -86.0358
 -86.0358
 -86.0358
 -86.0358
 -86.0358
 -86.0358
 -86.0358
 -86.0358
 -86.0358
 -86.0358
 -86.0358
 -86.0358
 -86.0139
 -85.9809
 -86.1574
 -86.0762
 -86.0358
 -86.0358
 -86.0358
 -86.0358
 -86.0358
 -86.0358
 -86.0358
 23.5395
 22.4991
 22.4354
 22.6791
 -86.04
 -85.5062
 -86.0358
 -86.0358
 -86.0358
 -86.0358
 -86.0358
 -86.0358
 -86.0358
 -86.0358
 -86.0358
 -86.0358
 -86.0358
 -86.0358
 -86.0358
 -86.0358
 -86.03
 -86.0387
 -86.036
 -86.036
 -86.0358
 -86.0358
 -86.0358
 -86.0358
 -86.0358
 -86.0358
 -86.0358
 -86.0358
 -86.0358
 -86.0358
 -86.0358
 -86.0358
 -86.0358
 -86.0358
 -86.0358
 -86.0358
 -86.0358
 -86.0358
 -86.0358
 -86.0358
 -86.0358
 -86.0358
 -86.0304
 -86.0428
 -86.0358
 -86.0358
 -86.0358
 -86.0358
 24.1304
 24.766
 24.2463
 23.6116
 -86.0358
 -86.0358
 -86.0358
 -86.0358
 -86.1189
 -85.9164
 -85.3318
 -85.5032
 3.22935
 26.9165
 -67.6495
 28.0199
 -86.0357
 -86.0358
 -91.9146
 -86.709
 -91.9462
 -84.2768
 -86.0358
 -86.0358
 -86.0358
 -86.0358
 -85.9593
 -89.879
 -87.3996
 -86.8466
 24.1201
 22.9409
 23.1168
 23.7943
 -86.0358
 -86.0358
 -86.0358
 -86.0358
 -86.0358
 -86.0358
 -86.0358
 -86.0358
 -66.6238
 -89.197
 -86.4038
 -65.5592
 -86.0358
 -86.0358
 -86.0358
 -86.0358
 -87.2244
 12.5556
 -86.0358
 -86.0358
 -86.0358
 -86.0358
 -86.2767
 -86.678
 -85.9743
 -86.0185
 -86.0358
 -86.0358
 -86.0358
 -86.0358
 -86.0358
 -86.0358
 -86.0358
 -86.0358
 -86.0358
 -86.0358
 -86.0358
 -86.0358
 -86.0358
 -86.0358
 -86.0358
 -86.0358
 -86.0358
 -86.0358
 -86.0358
 -86.0358
 -86.0358
 -86.0358
 -86.228
 -86.0116
 -85.6896
 -85.6511
 -86.0358
 -86.0358
 -86.0358
 -86.0358
 -86.0358
 -86.0358
 -86.0358
 -86.0358
 -86.0358
 -86.0358
 -86.0358
 -86.0358
 -86.0358
 -86.0358
 -86.0358
 -86.0358
 -86.0358
 -86.0358
 -86.0358
 -86.0358
 -86.0358
 -86.0358
 -86.0358
 -86.0358
 -86.0358
 -86.0358
 -86.0358
 -86.0358
 -86.1845
 -86.0319
 -86.2258
 -86.0704
 -86.0358
 -86.0358
 -86.0358
 -86.0358
 -86.0358
 -86.0358
 -86.0358
 -86.0358
 -86.0358
 -86.0358
 -86.0358
 -86.0358
 -86.0358
 -86.0358
 -86.0358
 -86.0358
 -86.0358
 -86.0358
 -86.0358
 -86.0358
 -86.0358
 -86.0358
 -86.0358
 -86.0358
 -86.0358
 -86.0358
 -86.0358
 -85.1723
 -88.0376
 -84.3364
 -89.1293
 -86.0358
 -86.0358
 -86.0358
 -86.0358
 -86.0358
 -86.0358
 -86.0358
 -86.0358
 -86.0358
 -86.0358
 -86.0358
 -86.0358
 -86.0358
 -86.0358
 -86.0358
 -86.0358
 -86.0358
 -86.0358
 -86.0358
 -79.0428
 -77.7695
 -50.2521
 -85.4482
 -86.8361
 -89.2782
 -86.0358
 -86.0358
 -86.0358
 -86.0358
 22.8052
 22.4631
 22.3967
 22.4554
 -86.0358
 -86.0358
 -86.0358
 -86.0358
 -86.0358
 -86.0358
 -86.0358
 -86.0358
 -86.0358
 -67.6494
 -45.3843
 -90.0772
 -66.5917
 -86.0358
 -86.0358
 -86.0358
 -86.0358
 -86.0359
 -86.0358
 -86.0359
 -86.0357
 -86.0358
 -86.0358
 -86.0358
 -86.0358
 -86.0358
 -86.0358
 -86.0358
 -86.0358
 -86.0358
 -86.0358
 -86.0358
 -86.0358
 -86.0358
 -86.0358
 -86.0358
 -86.0358
 -86.0358
 -86.0358
 -86.0358
 -86.0358
 -86.0358
 -86.0358
 -86.0358
 -86.0358
 -86.0358
 -86.0358
 -86.0358
 -86.0358
 -86.0358
 -86.0358
 -86.0358
 -86.0358
 20.2844
 26.2583
 27.6749
 28.0063
 -86.0358
 -86.0358
 -86.0358
 -86.0358
 -86.0358
 -86.0358
 -86.0358
 -86.0358
 -30.3666
 26.826
 10.2969
 7.79873
 -86.0358
 -86.0358
 -86.0358
 -86.0358
 -86.0358
 -86.0358
 -86.0358
 -86.0358
 -86.0358
 -86.0358
 -86.0358
 -86.0358
 -86.0358
 -86.0358
 22.5295
 22.8025
 22.642
 22.5423
 -78.0934
 -84.0166
 16.3909
 -86.0358
 -86.0358
 -86.0358
 -86.0358
 -86.0358
 -86.0358
 -86.0358
 -86.0358
 -86.0358
 -86.0358
 -86.0358
 -86.0358
 -86.0358
 -86.0358
 -86.0358
 -86.0358
 -86.0358
 -86.0358
 -86.0358
 -86.0358
 -86.0358
 -86.0358
 -86.0358
 -86.0358
 -86.0358
 -86.0358
 24.058
 24.1306
 29.2125
 23.9905
 -86.0362
 -86.0355
 -86.036
 -86.0358
 -86.0358
 -86.0358
 -86.0358
 -86.0358
 -86.0358
 -86.0358
 -86.0358
 -86.0358
 -85.6234
 -86.129
 -86.1407
 -86.0472
 -86.0353
 -86.0357
 -86.0356
 -86.0367
 -86.0358
 -86.0358
 -86.0358
 -86.0358
 -86.0358
 -86.0358
 -86.0358
 -86.0358
 -86.0358
 -86.0358
 -86.0358
 -86.0358
 -86.0358
 -86.0358
 -86.0358
 -86.0358
 -86.0358
 -86.0358
 -85.9965
 -84.3726
 -86.0282
 -87.1094
 -85.7404
 -86.9779
 -85.8321
 -86.0358
 -86.0358
 -86.0358
 -86.0358
 -86.0358
 -86.0358
 -86.0358
 -86.0358
 -86.0358
 -86.0358
 -86.0358
 -86.0358
 -86.0358
 -86.0358
 -86.0358
 -86.0358
 -86.0358
 -86.0358
 -86.0358
 -86.0358
 -86.0358
 -86.0358
 -86.0358
 -86.0358
 -86.0358
 -86.0358
 -86.0358
 -86.0358
 -86.0358
 -86.0358
 -86.0358
 23.0385
 23.2122
 -86.0358
 -86.0358
 -86.0358
 -86.0358
 -86.0358
 -86.0358
 -86.0358
 -86.0358
 -86.0358
 -86.0358
 -86.0358
 -86.0358
 -88.1817
 -88.8073
 -85.3887
 -85.8871
 -86.0305
 -86.0362
 -86.0295
 -86.0374
 -86.0358
 -86.0358
 -86.0358
 -86.0358
 -86.0358
 -86.0358
 -86.0358
 -86.0358
 -86.0358
 -86.0358
 -86.0358
 -86.0359
 -86.0339
 -86.0362
 -86.0348
 22.5184
 24.5899
 23.4328
 24.7918
 -85.8327
 -86.3414
 -85.8956
 -87.0582
 -86.0358
 -86.0358
 -86.0358
 -86.0358
 29.1294
 29.3792
 30.8929
 30.3259
 -86.0358
 -86.0358
 -86.0358
 -86.0358
 -86.0358
 -86.0358
 -86.0358
 -86.0358
 -86.0357
 -86.0356
 -86.0358
 -86.0366
 -86.0358
 -86.0358
 -86.0358
 -86.0358
 -86.0358
 -86.0358
 -86.0358
 -86.0358
 15.5387
 27.5709
 25.6285
 18.1883
 -85.38
 -88.6623
 -87.4867
 -91.2894
 -86.0358
 -86.0358
 -86.0358
 -86.0358
 -43.3355
 -79.31
 -73.4892
 -37.9136
 -86.0358
 -86.0358
 -86.0358
 -86.0358
 -86.0358
 -86.0358
 -86.0358
 -86.0358
 -86.17
 -85.679
 -85.4867
 -85.5223
 -86.0358
 -86.0358
 -86.0358
 -86.0358
 -86.0358
 -86.0358
 -86.0358
 -86.0358
 -86.0358
 -86.0358
 -86.0358
 -86.0358
 26.9833
 26.7382
 -57.9722
 -39.8273
 -77.4475
 12.3519
 -86.0358
 -86.0358
 -86.0358
 -86.0358
 -86.0358
 -86.0358
 -86.0358
 -86.0358
 -87.51
 -85.8309
 -87.0593
 -88.7172
 -86.0358
 -86.0358
 -86.0358
 -86.0358
 -86.0358
 -86.0358
 -86.0358
 -86.0358
 22.6818
 24.0586
 22.2618
 26.182
 -86.0358
 -86.0358
 -86.0358
 -86.0358
 -86.0358
 -86.0358
 -86.0358
 -86.0358
 -86.0363
 -86.0367
 -86.0378
 -86.0363
 -86.0358
 -86.0358
 -86.0358
 -86.0358
 -86.0358
 -86.0358
 -86.0358
 -86.0358
 -86.0358
 -86.0358
 -86.0358
 -86.0358
 -86.0358
 -86.0358
 -86.0358
 -86.0358
 -86.0358
 -86.0358
 -86.0358
 -86.0358
 -86.0358
 -86.0358
 -86.0358
 23.2146
 23.2153
 23.4188
 27.1299
 -86.0358
 -86.0358
 -86.0358
 -86.0358
 -86.0358
 -86.0358
 -86.0358
 -86.0358
 -86.0358
 -86.0358
 -86.0358
 -86.0359
 -86.0358
 -86.0358
 -86.0358
 -86.0358
 -86.0358
 -86.0358
 -86.0358
 -86.0358
 -86.0358
 -86.0358
 -86.0358
 -86.0358
 -86.0358
 -86.0358
 -86.0358
 -86.5848
 -89.783
 -62.4914
 -77.4188
 -86.0358
 -86.0358
 -86.0358
 -86.0358
 -86.0358
 -86.0358
 -86.0358
 -86.0358
 -86.0358
 -86.0358
 -86.0358
 -86.0358
 23.8191
 23.573
 24.0343
 24.2172
 -86.0358
 -86.0358
 -86.0358
 -86.0358
 -86.0358
 -86.0358
 -86.0358
 -86.0358
 22.7474
 22.6672
 22.425
 22.4687
 -95.3048
 -34.2331
 -62.8829
 -86.0361
 -86.0358
 -86.0368
 -86.0361
 -88.7008
 -89.0973
 -64.1523
 -90.4685
 -86.0358
 -86.0358
 -86.0358
 -86.0358
 -86.0358
 -86.0358
 -86.0358
 26.6805
 24.489
 25.4383
 26.1333
 -86.0358
 -86.0358
 -86.0358
 -86.0358
 -86.0379
 -86.0359
 -86.0452
 -86.0357
 -86.0358
 -86.0358
 -86.0358
 -86.0358
 -86.0358
 -86.0358
 -86.0358
 -86.0358
 -86.0358
 -86.0358
 -86.0358
 -86.0358
 -86.0358
 -86.0358
 -86.0358
 -86.0358
 -86.0358
 -86.0358
 -86.0358
 -86.0358
 24.932
 24.6651
 23.1521
 23.0803
 -86.0358
 -86.0358
 -86.0358
 -86.0358
 -86.0285
 -86.0967
 -86.0338
 -86.0938
 -86.0358
 -86.0358
 -86.0358
 -86.0358
 -86.0358
 -85.9018
 -86.0838
 -86.493
 28.9897
 25.2312
 26.7397
 29.67
 -86.0358
 -86.0358
 -86.0358
 -86.0358
 -86.0358
 -86.0358
 -86.0358
 -86.0358
 -86.0358
 -86.0358
 -86.0358
 -86.0358
 -86.0358
 -86.0358
 -86.0358
 -86.0358
 -86.0358
 -86.0358
 -86.0358
 -86.0358
 -86.0358
 -86.0358
 -86.0358
 -86.0359
 -86.0359
 -86.0358
 -86.0358
 -86.0358
 -86.0358
 -86.0358
 -86.0358
 -86.0358
 -86.0358
 -86.0358
 -86.0358
 -86.0358
 -86.0358
 -86.0358
 -86.0358
 -86.0358
 -86.0358
 -86.0358
 -86.0358
 -86.0358
 24.533
 26.5595
 24.848
 30.323
 -86.0358
 -86.0358
 -86.0358
 -86.0358
 -86.0358
 -86.0358
 -86.0358
 -86.0358
 -86.0358
 -86.0358
 -86.0358
 -86.0358
 23.9156
 23.8839
 -86.0358
 -86.0358
 -86.0358
 -86.0358
 24.8122
 24.0372
 25.7691
 -86.0358
 -86.0358
 -86.0358
 -86.0358
 25.2925
 19.2204
 26.6376
 14.6139
 -86.0358
 -86.0358
 -86.0358
 -86.0358
 -86.0358
 -86.0358
 -86.0358
 23.6657
 23.1446
 23.1362
 23.4886
 -86.0358
 -86.0358
 -86.0358
 -86.0358
 -86.0358
 -86.0358
 -86.0358
 -86.0358
 -86.0358
 -86.0358
 -86.0358
 -86.0358
 -86.0358
 -86.0358
 -86.0358
 -86.0358
 -86.0358
 22.6179
 27.6419
 29.5886
 24.8882
 -86.0358
 -86.0358
 -86.0358
 -86.0358
 -86.0358
 -86.0358
 -86.0358
 -86.0358
 -86.0358
 -86.0358
 -86.0358
 -86.0358
 -86.0358
 -86.0358
 -86.0358
 -86.0358
 -86.0358
 29.164
 29.2512
 26.7549
 -86.0358
 -86.0358
 -86.0358
 -86.0358
 -86.0358
 -86.0358
 -86.0358
 -86.0358
 -86.0358
 -86.0358
 -86.0358
 -86.0358
 -86.0358
 -86.0358
 -86.0358
 -85.5653
 -85.4977
 -86.0326
 -85.8856
 -86.0358
 -86.0358
 -86.0358
 -86.0358
 -86.0597
 -85.9039
 -86.0876
 25.9531
 25.2261
 22.7252
 23.7517
 -86.0358
 -86.0358
 -86.0358
 -86.0358
 -72.547
 -80.2137
 -90.1629
 -86.6527
 -86.0358
 -86.0358
 -86.0358
 -86.0358
 24.3154
 -86.0358
 -86.0358
 -86.0358
 -86.0358
 -86.0358
 -86.0358
 -86.0358
 -86.0358
 -86.0358
 -86.0312
 -86.0418
 -86.0348
 -86.0354
 -86.0358
 -86.0358
 -86.0358
 -86.0358
 -86.0336
 -86.0355
 -86.0368
 -86.0354
 -86.0358
 -86.0358
 -86.0358
 -86.0358
 -86.0358
 -86.0358
 -86.0358
 -86.0358
 -86.0358
 -86.0358
 -86.0358
 -86.0358
 -86.0358
 -86.0358
 -86.0358
 -86.0358
 -86.0358
 -86.0358
 -86.0358
 -86.0358
 -86.0358
 -86.0358
 -86.0358
 -86.0358
 30.7259
 29.4921
 15.8591
 -86.0358
 -86.0358
 -86.0358
 -86.0358
 -86.0358
 -86.0358
 -86.0358
 -86.0358
 -86.0358
 -86.0358
 -86.0358
 -86.0361
 -86.0362
 -86.0349
 -86.0342
 -86.3199
 -78.492
 -47.6415
 -82.7948
 -86.0358
 -86.0358
 -86.0358
 -86.0358
 -86.0358
 -86.0358
 -86.0358
 -86.0358
 -86.0358
 -86.0358
 -86.0358
 -86.0358
 -86.0358
 -86.0358
 -86.0358
 -86.0358
 -86.0358
 -86.0358
 -86.0358
 -86.0358
 -86.0358
 -86.0358
 -86.0356
 -86.0358
 -86.0358
 -86.0358
 -86.0358
 -86.0358
 -86.0358
 -86.0358
 -86.0358
 -86.0358
 -86.0358
 -86.0358
 -86.0358
 -86.0358
 -86.0358
 -86.0358
 -86.0358
 -86.0358
 -86.0358
 -86.0358
 -86.0358
 -86.0358
 -86.0358
 -86.0358
 -86.0358
 19.6448
 16.7553
 -50.3484
 -48.2313
 -86.036
 -86.0357
 -86.0358
 -86.0355
 -86.0358
 -86.0358
 -86.0358
 -86.0358
 -86.0358
 -86.0358
 -86.0358
 -86.0358
 -85.8065
 -85.8121
 -86.0219
 -85.8205
 -86.0358
 -86.0358
 -86.0358
 -86.0358
 -86.0358
 -86.0358
 -86.0358
 -86.0358
 -86.0358
 -86.0358
 -86.0358
 -86.0358
 -86.0358
 -86.0358
 -86.0358
 -86.0358
 -86.0356
 -86.036
 -86.0358
 -86.0358
 -86.0358
 -86.0358
 -86.0358
 -86.0358
 -86.0358
 -86.0358
 -86.0358
 -86.0358
 -86.0358
 -86.0358
 23.5805
 23.0737
 23.4089
 22.6008
 -86.0358
 -86.0358
 -86.0358
 -86.0358
 -86.0358
 -86.0358
 -86.0358
 -86.0358
 -4.57241
 -56.3153
 -84.9017
 -69.9956
 -86.1088
 -85.7807
 -86.0755
 -86.0504
 -86.0358
 -86.0358
 -86.0358
 -86.0358
 -86.0358
 -86.0358
 -86.0358
 -86.0358
 -86.0358
 -86.0358
 -86.0358
 -86.0358
 -86.0358
 -86.0358
 -86.0358
 -86.0358
 -86.0358
 -86.0358
 -86.0358
 -86.0358
 -86.0358
 -86.0358
 -86.0358
 -86.0358
 -86.0358
 -86.0358
 -86.0358
 -86.0358
 -86.0358
 -86.0358
 -86.0358
 -86.0358
 -86.0358
 -86.0358
 -86.0358
 -86.0358
 -86.0358
 -86.0358
 -86.0358
 -86.0358
 -86.0335
 -86.0573
 -86.0318
 -86.039
 -86.0358
 -86.0358
 -86.0358
 -86.0358
 -86.0358
 -86.0358
 -86.0358
 -86.0358
 -86.0358
 -86.0358
 -86.0358
 -86.0358
 -86.0358
 -86.0358
 -86.0358
 -86.0358
 -86.0358
 -86.0358
 23.1179
 24.5092
 23.9991
 25.3874
 -86.0358
 -86.0358
 -86.0358
 -86.0358
 -86.0358
 -86.0358
 -86.0358
 -86.0358
 -86.0358
 -86.0358
 -86.0358
 -86.0358
 23.3307
 23.2512
 22.3011
 22.3434
 -86.0313
 -86.0538
 -86.0204
 -86.0358
 -86.0358
 -86.0358
 -86.0358
 -86.0185
 -86.0344
 -86.034
 -86.0358
 -86.0358
 -86.0358
 -86.0358
 -86.0358
 -86.0358
 -86.0358
 -86.0358
 -39.7641
 -4.14764
 24.1579
 -80.3915
 -86.0358
 -86.0358
 -86.0358
 -86.0358
 24.6433
 29.838
 28.3848
 30.656
 -86.0358
 -86.0358
 -86.0358
 -86.0358
 -86.0358
 -86.0358
 -86.0358
 -86.0358
 -86.0358
 -86.0358
 -86.0358
 -86.0358
 -86.0358
 -86.0358
 -86.0358
 -86.0358
 -86.0358
 -86.0358
 -86.0358
 -86.0358
 -86.0358
 -86.0358
 -86.0358
 -86.0358
 -86.0358
 -86.0358
 -86.0358
 -86.0358
 -86.0358
 -86.0358
 -64.8408
 -94.0392
 22.339
 20.4928
 -86.4194
 -85.8878
 -86.0816
 -86.5026
 -86.0317
 -86.0353
 -86.0269
 -86.0373
 -85.9813
 -86.0654
 -86.5754
 -85.8576
 -86.0358
 -86.0358
 -86.0358
 -86.0358
 -85.1292
 -86.3679
 -85.5068
 -86.1563
 -86.0358
 -86.0358
 -86.0358
 -86.0358
 -33.2098
 17.8766
 2.85422
 -10.196
 -86.0358
 -86.0358
 -86.0358
 -86.0358
 -86.0282
 -86.0381
 -86.0213
 -86.9685
 -90.5409
 -86.62
 -85.8943
 -86.0358
 -86.0358
 -86.0358
 -86.0358
 -86.0358
 -86.0358
 -86.0358
 -86.0358
 -86.0358
 -86.0358
 -86.0358
 -86.0358
 -86.0358
 -86.0358
 -86.0358
 -86.0358
 -86.0358
 -86.0358
 -86.0358
 -86.0358
 -86.0358
 -86.0358
 -86.0358
 -86.0358
 -86.0358
 -86.0358
 -86.0358
 -86.0359
 -86.0358
 -86.0358
 23.3849
 22.9303
 23.2866
 23.3591
 -86.0358
 -86.0358
 -86.0358
 -86.0358
 -86.0358
 -86.0358
 -86.0358
 -86.0358
 -86.0358
 -86.0358
 -86.0358
 -86.0358
 -85.9654
 -86.0427
 -86.045
 -86.0246
 -86.0375
 -86.0358
 -86.0358
 -86.0358
 -86.0358
 -86.0358
 -86.0358
 -86.0358
 -86.0358
 -86.0358
 -86.0358
 -86.0358
 -86.0358
 -86.0358
 -86.0358
 -86.0358
 -86.0358
 -86.0358
 -86.0358
 -86.0358
 -86.0358
 -86.0358
 -86.0358
 -86.0358
 -86.0358
 -86.0358
 -86.0358
 -86.0358
 -86.0358
 -86.0358
 -86.0358
 -86.0358
 -86.0358
 -86.0358
 -86.0358
 -86.0358
 -86.0358
 -86.0358
 -86.0358
 -86.0358
 -86.0358
 -86.0358
 -86.0358
 -86.0358
 -86.0358
 -86.0358
 -86.0358
 -86.0358
 -86.0358
 -86.0358
 -86.0358
 -86.036
 -86.0358
 -86.0359
 -86.0359
 -47.5047
 -6.77209
 -83.5446
 -67.9002
 -86.0358
 -86.0358
 -86.0358
 -86.0358
 -86.0358
 -86.0358
 -86.0358
 -86.0358
 -85.6711
 -86.0637
 -86.0432
 -86.187
 -86.0358
 -86.0358
 -86.0358
 -86.0358
 -86.0358
 -86.0358
 -86.0358
 -86.0358
 -86.0358
 -86.0358
 -86.0358
 -86.0358
 -86.0358
 -86.0358
 -85.7308
 -85.8735
 -85.7878
 -88.2371
 10.0529
 -44.2815
 -47.4754
 24.6745
 -86.0358
 -86.0358
 -86.0358
 -86.0358
 -86.0358
 -86.0358
 -86.0358
 -86.0358
 -86.0358
 -86.0358
 -86.0358
 -86.0358
 -86.0358
 -86.0358
 -86.0358
 -86.0358
 -86.0358
 -86.0358
 -86.0358
 -86.0358
 -86.0358
 -86.0358
 -86.0358
 -83.6179
 -63.3367
 -88.4999
 -87.8822
 -34.2353
 13.6337
 10.0268
 23.0128
 24.0861
 24.7824
 24.2699
 -86.0358
 -86.0358
 -86.0358
 -86.0358
 -86.0358
 -86.0358
 -86.0358
 -86.0358
 -86.0395
 -86.0841
 -85.9908
 -86.0607
 -86.0358
 -86.0358
 -86.0358
 -86.0358
 -86.0358
 -86.0358
 -86.0358
 -86.0358
 -86.0358
 -86.0358
 -86.0358
 -86.0366
 -86.0287
 -86.0318
 -86.0358
 -86.0358
 -86.0358
 -86.0358
 -86.0358
 -86.0358
 -86.0358
 -86.0358
 -86.0358
 -86.0358
 -86.0358
 -86.0358
 -86.0358
 -86.0358
 -86.0358
 -86.0358
 -86.0358
 -86.0358
 -86.0358
 -86.0358
 -86.0358
 -86.0358
 -86.0358
 -86.0358
 -86.0358
 -86.0347
 -86.0354
 -86.0333
 -86.028
 -86.0358
 -86.0358
 -86.0358
 -86.0358
 -86.0358
 -86.0358
 -86.0358
 -86.0358
 -87.5017
 -87.1157
 -86.5862
 -86.141
 -86.069
 -86.0434
 -86.1354
 -86.044
 12.7641
 -70.7029
 -5.22934
 18.129
 -86.0363
 -86.0359
 -86.0364
 -86.0348
 -86.0358
 -86.0358
 -86.0358
 -86.0358
 -86.0358
 -86.0358
 -86.0358
 -86.0358
 -86.0363
 -86.0357
 -86.0358
 -86.0357
 -86.0358
 -86.0358
 -86.0358
 -86.0358
 -86.0358
 -86.0358
 -86.0358
 -86.0358
 -86.0358
 -86.0358
 -86.0358
 -86.0358
 -86.0358
 -86.0358
 -86.0358
 -86.0358
 -86.0358
 -86.0358
 -86.0358
 -86.0358
 -86.0358
 -86.0358
 -86.0358
 -86.0358
 -86.0358
 -86.0358
 -86.0358
 -86.0358
 -86.036
 -86.0358
 -86.036
 -86.0358
 -86.0358
 -86.0358
 23.2442
 24.2852
 24.0502
 23.5252
 27.1034
 26.1045
 27.7959
 32.1581
 -86.0358
 -86.0358
 -86.0358
 -86.0358
 -86.0358
 -86.0358
 -86.0358
 -86.0358
 -86.0358
 -86.0358
 -86.0358
 -86.0358
 -86.0358
 -86.0358
 16.082
 18.6277
 -39.8362
 14.3555
 -86.0358
 -86.0358
 -86.0358
 -86.0358
 -86.0358
 -86.0358
 -86.0358
 -86.0358
 -86.0358
 -86.0358
 -86.0358
 -86.0358
 -86.0358
 -86.0358
 -86.0358
 -86.0358
 -86.0358
 -86.0358
 -86.0358
 -86.0358
 -86.0358
 -86.0358
 -86.0358
 -86.0358
 -86.0358
 -86.0505
 -86.0363
 -86.0057
 -86.0373
 -86.0358
 -86.0358
 -86.0358
 -86.0358
 -86.0358
 -86.0358
 -86.0358
 -86.0358
 -86.0358
 -86.0358
 -86.0358
 -86.0358
 -86.0358
 -86.0358
 -86.0358
 -86.0358
 -86.0358
 -86.0358
 -86.0358
 -86.0358
 -86.0358
 -86.0358
 -86.0358
 -86.0358
 -86.0358
 -86.0358
 -86.0358
 -86.0358
 -86.0358
 -86.0358
 -86.0358
 -86.0358
 -86.0358
 -86.0358
 -86.0358
 -86.0358
 -86.0358
 -86.0358
 -86.0358
 -86.0358
 -86.0358
 -86.0358
 -86.0358
 -86.0358
 -86.0358
 -86.0358
 -86.0358
 -86.0358
 -86.0358
 -86.0358
 -86.0358
 -86.0391
 -86.239
 -86.1413
 -85.6415
 -86.0815
 -86.0826
 -86.0929
 -85.9323
 -86.0358
 -86.0358
 -86.0358
 -86.0358
 -86.0358
 -86.0358
 -86.0358
 -86.0358
 -86.0358
 -86.0358
 -86.0358
 -87.1824
 -86.4084
 -86.9701
 -86.0358
 -86.0358
 -86.0358
 -86.0358
 -86.0358
 -86.0358
 -86.0358
 -86.0359
 -92.9442
 -64.9585
 -86.4858
 -88.7288
 -86.0358
 -86.0358
 -86.0358
 -86.0358
 -86.0358
 -86.0358
 -86.0358
 -86.0358
 -86.0358
 -86.0358
 -86.0358
 -86.0358
 -86.0358
 -86.0358
 -86.0358
 -86.0358
 -86.0358
 -86.0358
 -86.0358
 19.8869
 -86.0358
 -86.0358
 -86.0358
 -86.0358
 -86.2519
 -86.0981
 -85.7103
 -85.4966
 -86.0396
 -86.0359
 -86.0356
 -86.0365
 -86.0358
 -86.0358
 -86.0358
 -86.0358
 -86.0358
 -86.0358
 -86.0358
 -86.0358
 -86.0358
 -86.0358
 -86.0358
 -86.0358
 -86.0358
 -86.0358
 -86.0358
 -86.0358
 -86.0358
 12.1079
 25.8438
 15.885
 -14.7405
 -86.0358
 -86.0358
 -86.0358
 -86.0358
 -86.0358
 -86.0358
 -86.0358
 -86.0358
 -84.6358
 -85.7044
 -84.8117
 -84.7507
 -86.0358
 -86.0358
 -86.0358
 -86.0358
 -86.0358
 -86.0358
 -86.0358
 -86.0358
 -86.0358
 -86.0358
 -86.0358
 -86.0358
 -86.0358
 -86.0358
 -86.0358
 -86.0358
 -86.0358
 -86.0358
 -86.0358
 -86.0358
 -86.0358
 -86.0358
 -86.0358
 -86.0358
 -86.0358
 -86.0358
 -86.0358
 -86.0358
 22.59
 23.6717
 23.0714
 23.1937
 -86.0358
 -86.0358
 -86.0358
 -86.0358
 -86.0358
 -86.0358
 -86.0358
 -86.0358
 22.981
 22.8585
 23.22
 22.9573
 -86.0358
 -86.0358
 -86.0358
 -86.0358
 -86.0358
 -82.7267
 -88.0561
 -90.6445
 -85.6492
 -86.0358
 -86.0358
 -86.0358
 -86.0358
 -86.0358
 -86.0358
 -86.0358
 -86.0569
 -86.0291
 -86.0826
 -86.0319
 -85.9298
 -86.0383
 -85.5653
 -86.333
 22.8571
 23.2147
 22.3456
 -86.0363
 -86.0341
 -86.0351
 -86.032
 -86.0358
 25.4737
 -86.0358
 -86.0358
 -86.0358
 -55.1894
 12.0932
 19.1318
 -63.8817
 -86.0358
 -86.0358
 -86.0358
 -86.0358
 -86.0358
 -86.0358
 -86.0358
 -86.0358
 -86.0358
 -86.0358
 -86.0358
 -86.0363
 23.79
 25.1561
 27.8308
 24.3465
 -85.127
 -85.3051
 -86.5204
 -85.0713
 -86.0358
 -86.0358
 -86.0358
 -86.0358
 -86.0358
 -86.0358
 -86.0358
 -86.0358
 -86.0358
 -86.0358
 -86.0358
 -86.0358
 -86.0358
 -86.0358
 -86.0358
 -86.0358
 -86.0358
 -86.0358
 -86.0358
 -86.0358
 -86.0358
 -86.0358
 -86.0083
 -86.0316
 -85.9529
 -86.004
 -86.0978
 -86.0106
 -86.0486
 -86.0358
 -86.0358
 -86.0358
 -86.0358
 22.7018
 22.459
 22.7714
 22.62
 22.8047
 22.7621
 22.6628
 -86.0358
 -86.0358
 -86.0358
 -86.0358
 -86.0358
 -86.0358
 -86.0358
 -86.0358
 -86.0358
 -86.0358
 -86.0358
 -86.0358
 31.4766
 31.4282
 30.5293
 33.9866
 -86.036
 -86.036
 -86.0359
 -86.0358
 -86.0358
 -86.0358
 -86.0358
 -86.0358
 -86.036
 -86.037
 -86.0358
 -86.0361
 -86.0358
 -86.0358
 -86.0358
 -86.0358
 -86.0358
 -86.0358
 -86.0358
 -86.0358
 -86.0358
 -86.0358
 -86.0358
 -86.0358
 -86.0358
 -86.0358
 -86.0358
 -86.0358
 -86.0357
 -86.0285
 -86.034
 -86.0395
 -86.0373
 -86.0353
 -86.0243
 -86.0378
 -86.0356
 -86.0371
 -86.03
 -86.0358
 -86.0358
 -86.0358
 -86.0358
 -86.0358
 -86.0358
 -86.0358
 -86.0358
 -86.0358
 -86.0358
 -86.0358
 -86.0358
 -86.0358
 -86.0358
 -86.0358
 -86.0358
 -86.0358
 -86.0358
 -86.0358
 -86.0358
 -86.0358
 22.427
 22.6834
 22.4162
 22.5194
 25.2155
 25.3482
 28.6583
 23.2732
 -86.0358
 -86.0358
 -86.0358
 -86.0358
 -86.0358
 -86.0358
 -86.0358
 -86.0358
 -86.0358
 -86.0358
 -86.0358
 -86.0328
 -86.0245
 -86.0365
 -86.0373
 -86.0358
 -86.0358
 -86.0358
 -86.0358
 -86.0358
 -86.0358
 -86.0358
 -86.0358
 -86.0358
 -86.0358
 -86.0358
 -86.0358
 -86.0358
 -86.0358
 -86.0358
 -86.0358
 -86.0358
 -86.0358
 -86.0358
 -86.0358
 -86.0358
 -86.0358
 -86.0358
 -86.0358
 -86.0358
 -86.0358
 -86.0358
 -86.0358
 -86.0358
 -86.0358
 -86.0358
 -86.0358
 -86.0358
 23.0385
 24.5719
 23.9988
 24.2144
 -86.0358
 -86.0358
 -86.0358
 -86.0358
 -86.0358
 -86.0358
 -86.0358
 -86.0358
 -86.0358
 -86.0358
 -86.0358
 -86.0358
 -86.0358
 -86.0358
 -86.0358
 -86.0358
 -86.0358
 -51.4629
 -71.2846
 3.57403
 7.30704
 -86.0358
 -86.0358
 -86.0358
 -86.0358
 -86.0358
 -86.0358
 -86.0358
 -86.0358
 -86.0358
 -86.0358
 -86.0358
 -86.0358
 -86.0358
 -86.0358
 -86.0358
 -86.0358
 -86.0358
 -86.0358
 -86.0358
 -86.0358
 27.2281
 25.4511
 -86.0358
 -86.0358
 -86.0358
 -86.0358
 -86.0358
 -86.0358
 -86.0358
 -86.0358
 -86.0358
 -86.0358
 -86.0358
 -86.0358
 -78.812
 -91.2927
 -85.3066
 -90.8892
 -86.0358
 -86.0358
 -86.0358
 -86.0358
 -86.0358
 -85.4519
 -86.8399
 -85.6821
 -86.0358
 -86.0358
 -86.0358
 -86.0358
 -86.0359
 -86.0359
 -86.0359
 -86.0358
 -86.0358
 -86.0358
 -86.0358
 -86.0358
 34.908
 11.6154
 17.1066
 22.9657
 22.5754
 22.7446
 22.6522
 -86.0358
 -86.0358
 -86.0358
 -86.0358
 -86.0358
 -86.0358
 -86.0358
 -86.0358
 -86.0358
 -86.0358
 -86.0358
 -86.0358
 -86.0358
 -86.0358
 -86.0358
 -86.0358
 -86.0358
 -86.0358
 -86.0358
 -86.0358
 -86.0358
 -86.0358
 -86.0358
 -86.0358
 -86.0358
 -86.0358
 -86.0358
 -86.0358
 -86.0358
 -86.0358
 -86.0358
 -86.0358
 -86.0358
 -86.0358
 -86.0358
 -89.3372
 -85.9452
 -85.8668
 -86.4894
 -86.0641
 -86.0428
 -86.0938
 -86.0358
 -86.0358
 -86.0358
 -86.0358
 -86.0358
 -86.0358
 -86.0358
 -86.0358
 -86.0358
 -86.0358
 -86.0358
 -86.0358
 -86.0358
 -86.0358
 -86.0358
 -86.0358
 -86.0358
 -86.0358
 -86.0358
 -86.0358
 -86.0358
 -86.0358
 -86.0358
 -86.0469
 -86.0211
 -86.0415
 22.7324
 23.0964
 24.2197
 -86.0358
 -86.0358
 -86.0358
 -86.0358
 -86.0358
 -86.0358
 -86.0358
 25.0391
 25.1426
 25.1001
 24.063
 -86.0358
 -86.0358
 -86.0358
 -86.0358
 -85.9181
 -85.553
 -86.98
 -85.6955
 -86.0534
 -86.0888
 -86.0368
 -86.0548
 -86.0358
 -86.0358
 -86.0358
 -86.0358
 -86.0358
 -86.0358
 -86.0358
 -86.0416
 -86.062
 -86.0343
 -86.053
 -86.0358
 -86.0358
 -86.0358
 -86.0358
 -86.0359
 -86.0358
 -86.0359
 -86.0359
 23.8557
 28.9314
 -86.0358
 -86.0358
 -86.0358
 -86.0358
 -86.0358
 -86.0358
 -86.0359
 -86.0358
 -86.0358
 -86.0358
 -86.0358
 -86.0358
 -86.0358
 -86.0358
 26.5556
 25.8382
 24.6995
 24.817
 -85.5871
 -85.7436
 -85.8737
 -87.6337
 23.5153
 23.3501
 22.8304
 22.6169
 -86.0364
 -86.0365
 -86.0346
 -86.0358
 -86.0358
 -86.0358
 -86.0358
 -86.0358
 -86.0358
 -86.0358
 -86.0358
 -86.0358
 -86.0358
 -86.0358
 -86.0358
 -86.0358
 -86.0358
 -86.0358
 -86.0358
 -86.0358
 -86.0358
 -90.4626
 -85.3722
 -87.2908
 -85.462
 -86.0358
 -86.0358
 -86.0358
 -86.0358
 -86.0358
 -86.0358
 -86.0358
 -86.0358
 -86.0358
 -86.0358
 -86.0358
 -86.0358
 -86.0358
 -86.0358
 -86.0358
 24.5796
 25.224
 23.1086
 29.2965
 -86.0358
 -86.0358
 -86.0358
 -86.0358
 -86.0358
 -86.0359
 -86.0356
 -86.0361
 -86.0361
 -86.0358
 -86.0358
 -86.0358
 -86.0358
 -86.0358
 -86.0358
 -86.0358
 -86.0358
 -86.0358
 -86.0358
 -86.0358
 -86.0358
 -86.0358
 -86.0358
 -86.0358
 -86.0358
 -86.0367
 -83.2873
 12.9592
 -86.0358
 -86.0358
 -86.0358
 -86.0358
 -86.0358
 -86.0358
 -86.0358
 -86.0358
 -86.0358
 -86.0358
 -86.0358
 -86.0358
 -86.0358
 -86.0358
 14.5407
 -53.7198
 -86.0358
 -86.0358
 -86.0358
 -86.0358
 -86.0358
 -86.0358
 -86.0358
 -86.0358
 -86.0358
 -86.0358
 -86.0358
 -86.0358
 -86.0358
 -86.0358
 -86.0358
 -86.0358
 -29.5164
 -3.04832
 -68.0571
 14.4521
 -86.0358
 -86.0358
 -86.0358
 -86.0358
 -86.0358
 -86.0358
 -86.0358
 -86.0358
 -86.0358
 -86.0358
 -86.0358
 -86.0358
 -86.0358
 -86.0358
 -86.0358
 22.9061
 24.2793
 23.3283
 22.8761
 -86.0358
 -86.0358
 -86.0358
 -86.0358
 -86.0358
 -86.0358
 -86.0358
 -86.0358
 -86.0358
 -86.0358
 -86.0358
 -86.0358
 -86.0358
 -86.0358
 -86.0358
 -86.0358
 -86.0358
 -86.0358
 -86.0358
 -86.0358
 -86.0358
 -86.0358
 -86.0358
 -86.0358
 -86.0358
 -86.0358
 -86.0357
 -86.0357
 -86.0362
 -86.0354
 -86.0355
 -86.0358
 -86.0358
 -86.0358
 -86.0358
 10.8958
 -63.3831
 -66.0229
 -67.5311
 -86.0358
 -86.0358
 -86.0358
 -86.0358
 -86.0358
 -86.0358
 -86.0358
 -86.0358
 -86.0358
 -86.0358
 -86.0358
 -86.0358
 -86.0358
 -86.0358
 -86.0358
 -86.0358
 -86.0358
 -45.6856
 21.1397
 -86.0358
 -86.0358
 -86.0358
 -86.0358
 -86.0358
 -86.0358
 -86.0358
 -88.5131
 -88.5178
 -85.5804
 -87.6479
 -86.0358
 -86.0358
 -86.0358
 -86.0358
 -86.0358
 -86.0358
 -86.0358
 -86.0358
 -86.0358
 -86.0358
 -86.0358
 -86.0358
 -86.0358
 -86.0357
 -86.0358
 -86.0358
 -86.0358
 -86.0358
 -86.0358
 -86.0358
 -86.0358
 -86.0358
 -86.0358
 -86.0358
 -86.0358
 -86.0358
 -86.0358
 -86.0358
 -86.0358
 -86.0358
 -86.0358
 -86.0358
 -86.0358
 -86.0358
 -86.0358
 -86.0358
 -86.0358
 -86.0358
 -86.0358
 -86.0358
 -86.0358
 -86.0358
 -86.0358
 -86.0358
 -86.0358
 -86.0358
 -86.0358
 -86.0358
 -86.0358
 -86.0358
 -86.0358
 -86.0358
 -86.0358
 -86.0358
 -86.0358
 -86.0358
 -86.0358
 -86.0358
 -86.0358
 -86.0358
 25.7051
 25.0212
 26.0983
 -86.036
 -86.0359
 -86.0358
 -86.0358
 -86.0358
 -86.0358
 -86.0358
 -86.0358
 -86.0358
 -86.0358
 -86.0358
 -86.0358
 -86.0358
 -86.0358
 -86.0358
 -39.3675
 10.3267
 -84.6872
 2.02252
 -86.0358
 -86.0358
 -86.0358
 -86.0358
 -65.5721
 -69.1516
 -89.5062
 -81.7248
 -86.0358
 -86.0358
 -86.0358
 -86.0358
 -86.0358
 -86.0358
 -86.0315
 -86.0367
 -86.0365
 -86.0374
 14.5908
 17.6465
 14.7572
 -29.9233
 22.7823
 22.8685
 22.6358
 22.9666
 -79.0394
 -88.6517
 -66.132
 -86.0358
 -86.0358
 -86.0358
 -86.0358
 -84.7092
 -85.4528
 -88.7664
 -85.5955
 -86.0358
 -86.0358
 -86.0358
 -86.0358
 -85.6803
 -85.6079
 -85.7586
 -86.0358
 -86.0358
 -86.0358
 -86.0358
 -86.0358
 -86.0358
 -86.0358
 -86.0358
 -86.0358
 -86.0358
 -86.0358
 -86.0358
 -86.0358
 -86.0358
 -86.0358
 -86.0358
 -86.0358
 -86.0358
 -86.0358
 -86.0358
 -86.0358
 -86.0358
 -86.0358
 -86.0358
 -86.0358
 -86.0358
 -86.0358
 -86.0358
 -86.0358
 -86.0358
 -86.0358
 -86.0358
 -86.0358
 -86.0358
 -86.0358
 -86.0358
 -86.0358
 -86.0358
 -86.0358
 -86.0358
 -86.0358
 -86.0358
 -86.0358
 -86.28
 -85.4596
 -85.6794
 -86.0362
 -86.0349
 -86.0638
 -86.0245
 -86.0358
 -86.0358
 -86.0358
 -86.0358
 -86.0358
 -86.0358
 -86.0358
 -86.0358
 -86.0358
 -86.0358
 -86.0358
 -86.0358
 -86.0358
 -86.0358
 -86.0358
 -86.0358
 -86.0358
 -86.0358
 -86.0358
 -86.0358
 -86.0358
 -86.0358
 -86.0358
 -86.0358
 -86.0358
 -86.0358
 -86.0748
 -85.913
 -86.0595
 -86.0721
 -86.0358
 -86.0358
 -86.0358
 -86.0358
 -86.0358
 -86.0358
 -86.0358
 -86.0358
 -86.0358
 -86.0358
 -86.0358
 -36.7299
 20.4131
 24.757
 24.5345
 -86.0474
 -86.0334
 -85.9959
 -86.0325
 -86.0358
 -86.0358
 -86.0358
 -86.0358
 24.8569
 24.9251
 24.1229
 -41.3875
 23.3086
 -43.0009
 16.2774
 -20.3602
 19.295
 -75.1659
 -8.26369
 -86.0358
 -86.0358
 -86.0358
 -86.0358
 -86.0358
 -86.0358
 -86.0358
 -86.0358
 -86.0358
 -86.0358
 -86.0358
 -86.0358
 -86.0358
 -86.0358
 -86.0358
 -86.0358
 -86.0358
 -86.0358
 -86.0358
 -86.0358
 -86.0358
 -86.0851
 -85.7643
 -86.1806
 -86.0806
 -86.0358
 -86.0358
 -86.0358
 -86.0358
 22.8927
 22.8387
 22.7998
 22.8326
 -86.0358
 -86.0358
 -86.0358
 -86.0358
 23.3648
 26.315
 24.8508
 25.9648
 -86.0358
 -86.0358
 -86.0358
 -86.0358
 -86.0358
 -86.0358
 -85.2838
 -86.0252
 -85.6227
 -85.1984
 -86.0358
 -86.0358
 -86.0358
 -86.0358
 -86.0358
 -86.0358
 -86.0358
 -86.0358
 -85.5663
 -88.421
 -87.5881
 26.4001
 25.5859
 24.5899
 26.1019
 -85.9933
 -86.0517
 -86.051
 -85.9386
 -86.0358
 -86.0358
 -86.0358
 -86.0358
 -86.0358
 -86.0358
 -86.0358
 -86.0358
 -87.3843
 -82.8194
 -88.0079
 -88.0831
 -86.0358
 -86.0358
 -86.0358
 -86.0369
 -86.0423
 -86.0339
 -86.0351
 -86.0358
 -86.0358
 -86.0358
 -86.0358
 -86.0358
 -86.0358
 -86.0358
 -86.0358
 -86.0358
 -86.0358
 -86.0358
 -86.0358
 -86.0358
 -86.0358
 -86.0358
 -86.0358
 -86.0492
 -86.0671
 -85.9197
 -86.0532
 -86.0358
 -86.0358
 -86.0358
 -86.0358
 -86.0358
 -86.0396
 -86.0348
 -86.0362
 -86.0358
 -86.0358
 -86.0358
 -86.0358
 -86.0358
 -86.0358
 -86.0358
 -86.0358
 -86.0358
 -86.0358
 -86.0358
 -86.0358
 -86.0358
 -86.0358
 -86.0358
 -86.0358
 -86.0358
 -86.0358
 -86.0358
 -86.0358
 -86.0358
 -86.0358
 -86.0358
 -86.0358
 -86.0358
 -86.0358
 -86.0358
 -86.0358
 -86.0358
 -86.0358
 -86.0358
 -86.0358
 -86.0358
 -86.0358
 -86.0358
 -86.0358
 -86.0358
 -86.0358
 -86.0767
 -86.1052
 -86.0584
 -86.052
 -86.0358
 -86.0358
 -86.0358
 -86.0358
 -86.0358
 -86.0358
 -86.0358
 22.5394
 22.4053
 22.7563
 22.7811
 -86.0358
 -86.0358
 -86.0358
 -86.0358
 -86.0358
 -86.0358
 -86.0358
 -86.0358
 -86.0358
 -86.0358
 -86.0358
 -86.0358
 -90.9358
 -87.5275
 -88.774
 -86.3337
 -86.0358
 -86.0358
 -86.0358
 -86.0358
 -86.0358
 -86.0358
 -86.0358
 -86.0358
 -86.0358
 -86.0358
 -86.0358
 -86.0358
 -85.4356
 -86.1186
 -86.1535
 -86.187
 -86.0362
 -86.0356
 -86.0358
 -86.0363
 -86.0339
 -86.0259
 -86.0358
 -86.0358
 -86.0358
 -86.0358
 -62.7831
 -83.5286
 -68.7678
 -86.036
 -86.0357
 -86.0357
 -86.0361
 -86.0358
 -86.0358
 -86.0358
 -86.0358
 -86.0358
 -86.0358
 -86.0358
 -86.0358
 -86.0358
 -86.0358
 -86.0358
 -86.0358
 -86.0358
 -86.0358
 -88.3404
 -63.297
 -77.5171
 -82.9169
 -86.0251
 -86.0357
 -75.1027
 -31.1367
 18.5325
 -66.8141
 -86.0358
 -86.0358
 -86.0358
 -86.0358
 -86.0358
 -86.0358
 -86.0416
 -86.0443
 -86.0498
 -86.0341
 -86.0358
 -86.0358
 -86.0358
 -86.0358
 -86.0358
 -86.0358
 -86.032
 -86.0192
 -86.0555
 -86.0128
 -86.0358
 -86.0358
 -86.0358
 -86.0358
 -82.7304
 -86.0936
 -67.1033
 17.7903
 -86.0358
 -86.0358
 -86.0358
 -86.0358
 -86.0358
 -86.0358
 -86.0358
 -86.0358
 -86.0358
 -86.0358
 -86.0358
 -86.0358
 -86.0358
 -86.0358
 -86.0358
 -86.0358
 -86.0358
 -86.0358
 -86.0358
 -86.0358
 -86.0358
 -86.0358
 -86.0358
 -86.0358
 -86.0358
 -86.0358
 -86.0314
 -86.0349
 -86.0558
 -86.0362
 -86.0358
 -86.0358
 -86.0358
 -86.0358
 -86.0358
 -86.0358
 -86.0358
 -86.0358
 -86.0358
 -86.0358
 -86.0358
 -86.0358
 -86.0358
 -86.0358
 -86.0358
 -86.0358
 -86.0358
 -86.0358
 -86.0358
 -86.0358
 -86.0358
 -86.0358
 -86.0358
 -86.0358
 -86.0358
 -86.0358
 -86.0358
 -86.0358
 -86.0358
 -86.0358
 -86.0358
 -86.0358
 -86.0357
 -86.0348
 -86.1985
 -85.8782
 -85.4767
 -86.1626
 -86.0358
 -86.0358
 -86.0358
 -86.0358
 21.5629
 24.8813
 25.6478
 21.7804
 -86.0358
 -86.0358
 -86.0358
 -86.0358
 -86.0359
 -86.0352
 -86.0358
 -86.0359
 -86.0358
 -86.0358
 -86.0358
 -86.0358
 -86.0363
 -86.0361
 -86.0367
 -86.0386
 -86.0358
 -86.0358
 -26.1378
 -33.5173
 -86.0358
 -86.0358
 -86.0358
 -86.0358
 -86.0358
 -86.0358
 -86.0357
 -86.0359
 -86.0358
 -86.0358
 -86.0358
 -86.0358
 -86.0358
 -86.0357
 -86.0411
 -86.0276
 -86.0358
 -86.0358
 -86.0358
 -86.0358
 -55.4188
 -52.4147
 -76.7524
 33.4786
 25.9072
 13.6909
 29.0918
 -86.0358
 -86.0358
 -86.0358
 -86.0358
 -86.0358
 -86.0358
 -86.0358
 -86.0358
 -86.0358
 -86.0358
 -86.0358
 -86.0358
 -86.0358
 -86.0358
 -86.0358
 -86.0358
 -86.0358
 -85.6495
 -85.498
 -86.0785
 -85.9652
 -86.0358
 -86.0358
 -86.0358
 -86.0358
 -86.0358
 -86.0358
 -86.0358
 -86.0358
 -86.0358
 -86.0358
 -86.0358
 -86.0358
 -86.0358
 -86.0358
 -86.0358
 -86.0358
 -86.0358
 22.7084
 22.2687
 23.1063
 22.7571
 -86.0548
 -86.0575
 -86.0323
 -86.0431
 -86.0358
 -86.0358
 -86.0358
 -86.0358
 -86.0358
 -86.0358
 -86.0358
 -86.0358
 -86.0358
 -86.0358
 -86.0358
 -86.0358
 -86.0358
 -66.4923
 -81.5384
 -90.3415
 -87.1474
 -86.0259
 -86.0372
 -86.0451
 -87.2515
 -86.3815
 -91.5436
 -87.209
 -86.0358
 -86.0358
 -86.0362
 -86.0362
 -86.0359
 -86.0358
 -86.0358
 -86.0358
 -86.0358
 -86.0357
 -86.0359
 -86.0358
 -86.0358
 -86.0358
 -86.0358
 -86.0358
 -86.0357
 -86.0358
 25.3863
 13.8816
 23.6965
 29.7538
 -86.0358
 -86.0359
 -86.0357
 -86.0358
 -86.0358
 -86.0358
 -86.0358
 -86.0358
 -86.0358
 -86.0358
 -86.0358
 -86.0358
 22.5487
 23.7957
 22.4719
 22.5995
 -86.0354
 -86.0357
 -86.0352
 -86.0359
 23.3853
 24.163
 23.3895
 22.9629
 -86.0358
 -86.0358
 -86.0358
 -86.0358
 -86.0358
 -86.0358
 23.123
 29.5716
 21.879
 26.217
 -86.0358
 -86.0358
 -86.0358
 -86.0358
 -86.0358
 -86.0358
 -86.0358
 -86.0358
 -86.0358
 -86.0358
 -86.0291
 -86.0261
 -86.0359
 -86.0409
 -86.0358
 -86.0358
 -86.0358
 -86.0358
 -86.0358
 -86.0358
 -86.0358
 -86.0358
 -86.0358
 -86.0358
 -86.0358
 -86.0358
 -86.0358
 -86.0358
 -86.0358
 -86.0358
 -86.0358
 -86.0358
 -86.0358
 -86.0358
 -86.0358
 -86.0358
 -86.0358
 -86.0358
 -86.0358
 -86.0358
 -86.0358
 -86.0358
 -86.0358
 -86.0358
 -86.0358
 -86.0358
 -86.0358
 -86.0358
 -86.0358
 -86.0358
 -86.0358
 -86.0358
 -86.0358
 -86.0358
 -86.0358
 -86.0358
 -86.0358
 -86.0358
 -86.0358
 -86.0358
 -86.0358
 -86.0358
 -86.0358
 -86.0358
 -86.0358
 -86.0358
 -86.0358
 -86.0358
 -86.0358
 -86.0358
 -86.0358
 -86.0358
 -86.0358
 -86.0358
 -86.0358
 -85.9841
 -85.9614
 -85.9431
 -85.9713
 -86.0358
 -86.0358
 -86.0358
 -86.0358
 -86.0358
 -86.0358
 -86.0358
 -86.0358
 -86.0358
 -86.0358
 -86.0358
 -86.0358
 -86.0358
 -86.0358
 -86.0358
 -86.0358
 -86.0358
 -86.0358
 -86.0358
 -86.0358
 -86.0358
 -86.0358
 -85.6407
 -86.6167
 -84.6668
 -86.0358
 -86.0358
 -86.0358
 -86.0358
 -87.5648
 -78.996
 -87.3041
 -53.0186
 -62.978
 -71.5312
 -88.9275
 -86.0358
 -86.0358
 -86.0358
 -86.0358
 -86.0358
 -86.0358
 -86.0358
 -86.0358
 -86.0358
 -85.5007
 -86.2696
 -85.487
 -88.2762
 -87.4467
 -85.4131
 -86.0358
 -86.0358
 -86.0358
 -86.0358
 -86.0265
 -86.0336
 -86.0358
 -86.0358
 -86.0358
 23.637
 22.7961
 -86.0358
 -86.0358
 -86.0358
 -86.0358
 -86.0358
 -86.0358
 -86.0358
 -86.0246
 -86.1122
 -86.0384
 -86.1462
 -86.0358
 -86.0358
 -86.0358
 -86.0358
 -86.0358
 -86.0358
 -86.0358
 -86.0358
 -86.0358
 -86.0358
 -86.0358
 -86.0358
 -85.8557
 -86.6695
 -85.9958
 -86.0715
 -86.067
 -86.0931
 -86.0357
 -86.0358
 -86.0358
 -86.0358
 -86.0358
 -86.0358
 -86.0358
 -86.0358
 -86.0358
 -86.0358
 23.0285
 23.1749
 -85.8228
 -85.8839
 -86.0514
 -86.0142
 -86.0358
 -86.0358
 -86.0358
 -86.0354
 -86.0354
 -86.0349
 -86.04
 -86.0358
 -86.0358
 -86.0358
 -86.0358
 -86.0358
 -86.0358
 -86.0358
 -86.0358
 -86.0358
 -86.0358
 -86.0358
 -86.0358
 -86.0358
 -86.0358
 -86.0358
 -86.0358
 -86.0358
 -86.0358
 -86.0358
 22.9402
 23.4504
 23.1314
 23.7463
 -86.0358
 -86.0358
 -65.3775
 -66.6159
 -66.1621
 -85.38
 -86.0358
 -86.0358
 -86.0358
 -86.0358
 -86.0358
 -86.0358
 -86.0358
 -86.0358
 -86.0358
 -86.0358
 -86.0358
 -86.0358
 -86.0358
 -86.0358
 -86.0358
 -86.0358
 -86.0358
 -86.0358
 -86.0609
 -86.1464
 -86.1405
 -86.1949
 -86.0358
 -86.0358
 -86.0358
 -86.0358
 -86.0358
 -86.0358
 -86.0358
 -86.0358
 -86.0358
 -86.0358
 -86.0349
 -86.0359
 -86.0359
 -86.0358
 -86.0358
 -86.0358
 -86.0358
 -86.0358
 -86.0358
 -86.0358
 -86.0358
 -86.0358
 -86.0358
 -86.0358
 -86.0358
 -86.0358
 -86.0358
 -86.0358
 -86.0358
 -86.0358
 -86.0358
 -86.0358
 -86.0358
 -86.0358
 -86.0358
 -86.0358
 -86.0358
 -86.0358
 -86.0358
 -86.0358
 -86.0358
 -85.8944
 -86.2553
 -86.0358
 -86.0358
 -86.0358
 -86.0358
 -86.0358
 -86.0358
 -86.0358
 -86.0358
 -86.0358
 -86.0358
 -86.0358
 -86.0358
 -86.0358
 -86.0358
 -86.0358
 -86.1781
 -86.5088
 -85.8246
 -86.0358
 -86.0358
 -86.0358
 -86.0358
 -86.0358
 -86.0358
 -86.0358
 -86.0358
 -86.0342
 -86.0355
 -86.0356
 -86.0309
 -86.0358
 -86.0358
 -86.0358
 -86.0358
 -86.0453
 -86.0617
 -86.0208
 -86.025
 -86.0395
 -86.0284
 -86.0365
 -86.0358
 -86.0358
 -86.0358
 -86.0358
 -86.0358
 -86.0358
 -86.0358
 -86.0358
 -86.0358
 -86.0358
 -86.0358
 -86.0358
 -86.0358
 -86.0358
 -86.0358
 -86.0358
 -86.0358
 -86.0358
 -86.0358
 -81.2881
 -86.0358
 -86.0358
 -86.0358
 -86.0358
 22.8636
 -86.0358
 -86.0358
 -86.0358
 -86.0358
 -86.0358
 -86.0358
 -86.0358
 -86.0358
 -86.0358
 -86.0358
 -86.0283
 -85.8256
 -86.0549
 -86.0173
 -86.1371
 -86.019
 -86.1207
 -86.0682
 -86.0358
 -86.0358
 -86.0358
 -86.0358
 27.1203
 29.3278
 27.6925
 15.9141
 -86.0358
 -86.0358
 -86.0358
 -86.0443
 -86.0311
 -86.1187
 -86.0358
 -86.0358
 -86.0358
 -86.0358
 -86.0358
 -86.0358
 -86.0358
 -86.0358
 -86.0358
 -86.0358
 -86.0358
 -86.0358
 -86.0358
 -86.0358
 -86.0358
 -86.0358
 -86.0358
 -85.2071
 -85.5669
 -85.9729
 -86.5177
 -81.9847
 17.1767
 -37.8834
 -71.6688
 -86.0358
 -86.0358
 -86.0358
 -86.0358
 -86.0359
 -86.0358
 -86.0365
 -86.0359
 -86.0358
 -86.0358
 -86.0358
 -86.0358
 -86.0358
 -86.0358
 -86.0358
 -86.0358
 -86.2327
 -86.0522
 -86.0777
 -86.0058
 -86.0358
 -86.0358
 -86.0358
 -86.0358
 -86.0358
 -86.0358
 -86.0358
 -86.0358
 -86.0358
 -86.0358
 -86.0358
 -86.0358
 -86.0358
 -86.0358
 -86.0358
 -86.0358
 -86.0358
 -86.0358
 -86.0358
 -86.0358
 -86.0358
 -86.0358
 -86.0358
 -86.0358
 -86.0358
 -86.0358
 -86.0358
 -86.0358
 -86.0358
 -17.7661
 13.0721
 32.9202
 26.3597
 22.6019
 22.4688
 22.6675
 19.9901
 25.1736
 -62.2105
 -86.0358
 -86.0358
 -86.0358
 -86.0358
 -86.0358
 -86.0358
 -86.0358
 -86.0358
 -86.1073
 -85.7526
 -86.0637
 -85.2508
 -86.0358
 -86.0358
 -86.0358
 -86.0358
 -86.0358
 -86.0358
 -86.0358
 -86.0358
 23.2112
 23.486
 23.7163
 22.4399
 -86.0358
 -86.0358
 -86.0358
 -86.0358
 -86.0358
 -86.0358
 -86.0358
 -86.0358
 22.4534
 22.7557
 23.5882
 22.3606
 -86.0358
 -86.0358
 -86.0358
 -86.0358
 -86.0358
 -86.0358
 -86.0358
 -86.0358
 -86.0358
 -86.0358
 -86.0358
 -86.0358
 -86.0358
 -86.0358
 -86.0358
 -86.0358
 -86.0358
 -86.0358
 -86.0358
 -86.0358
 -86.0358
 -86.0358
 -86.0358
 -86.0358
 -86.0364
 -86.0361
 -86.036
 -86.0358
 -82.9631
 -87.698
 -88.6455
 -86.9302
 -86.0358
 -86.0358
 -86.0358
 -86.0358
 -86.0358
 -59.2961
 -28.1378
 -50.9111
 -74.2696
 -86.0358
 -86.0358
 -86.0358
 -86.0358
 23.3388
 23.2587
 26.145
 23.0433
 -86.0358
 -86.0358
 -86.0358
 -86.0358
 -86.0358
 -86.0358
 -86.0358
 -86.0358
 -86.0358
 -86.0358
 -86.0358
 -86.0358
 -86.0358
 -86.0358
 -86.0358
 -86.0358
 -86.0358
 -86.0358
 -86.0358
 -86.0358
 -86.0359
 -86.0358
 -86.0358
 -86.0358
 -86.0358
 -86.0358
 -86.0358
 -86.0358
 -86.0358
 -86.0358
 -86.0358
 -86.0358
 -86.0358
 -86.0358
 -86.0358
 -86.0358
 -86.0358
 -86.0358
 -86.0358
 -86.0358
 -86.0358
 -86.0358
 -86.0358
 -85.2603
 -85.2597
 -88.9944
 -85.2195
 -15.7485
 17.8917
 -50.7566
 -86.0358
 -86.0358
 -86.0358
 -86.0358
 -86.0358
 -86.0358
 -86.0358
 -86.0889
 -85.9761
 -86.5947
 -86.5043
 -86.091
 -86.0998
 -86.0358
 -86.0358
 -86.0358
 24.629
 24.1733
 23.6453
 25.2321
 -85.8476
 -86.32
 -86.3488
 -85.3016
 -86.0358
 -86.0358
 -86.0358
 -86.0358
 -86.0358
 -86.0358
 -86.0358
 -86.0358
 -86.0358
 -86.0358
 -86.0358
 -86.0358
 -87.1082
 -87.6107
 -86.5025
 -85.124
 -86.0358
 -86.0358
 -86.0358
 -86.0358
 -86.0358
 -86.0358
 -86.0358
 -82.7262
 -80.4525
 5.60801
 -57.1479
 -86.0358
 -86.0358
 -86.0358
 -86.0358
 25.5559
 25.2327
 26.5793
 24.8265
 -86.0358
 -86.0358
 -86.0358
 -86.0358
 -86.0358
 -86.0358
 -86.0358
 -86.0358
 -85.9862
 -85.6161
 -85.274
 -85.3019
 -86.0358
 -86.0358
 -86.0358
 -86.0358
 23.6166
 23.416
 23.5953
 -86.0358
 -86.0358
 -86.0358
 -86.0358
 -86.0358
 -86.0358
 -86.0358
 -86.0358
 -86.0358
 -86.0358
 -86.0358
 -86.0358
 -86.0358
 -86.0358
 -86.0358
 -86.0358
 -85.5534
 -87.0837
 -87.8463
 -86.8005
 -86.0358
 -86.0358
 -86.0358
 -86.0358
 -86.0358
 -86.0358
 -86.0358
 -86.0358
 -86.0358
 -86.0358
 -86.0358
 -86.0358
 -86.0358
 -86.0358
 -86.0358
 -86.0358
 -86.0358
 -86.0358
 -86.0358
 -86.0358
 -86.0358
 -86.0358
 -86.0358
 -86.0358
 -86.0358
 -86.0358
 -86.0358
 -86.0357
 -86.0358
 -86.0357
 -86.0355
 -86.0358
 -86.0358
 -86.0358
 -86.0358
 -86.0358
 -86.0358
 -86.0358
 -86.0358
 22.5864
 22.6161
 23.4919
 -86.0358
 -86.0358
 -86.0358
 -86.0358
 -86.0358
 -86.0358
 -86.0358
 -86.0358
 -86.0358
 -86.0358
 -86.0358
 -86.0358
 -86.0358
 -86.0358
 -86.0358
 -86.0358
 -86.0358
 -86.0358
 -86.0358
 -86.0358
 -86.0358
 -86.0358
 -86.0358
 -85.7927
 -85.6056
 -86.6089
 -85.739
 -86.0358
 -86.0358
 -86.0337
 -86.0346
 -86.0371
 -86.0341
 -86.0358
 -86.0358
 -86.0358
 -86.0358
 -86.0358
 -86.0358
 -86.0358
 -86.0358
 -86.0358
 -86.0358
 -86.0358
 -86.0358
 -85.7686
 -86.1112
 -85.2612
 -67.7978
 -84.0406
 -80.5497
 -85.4617
 22.8727
 22.7529
 22.618
 -86.0358
 -86.0358
 -86.0358
 -86.0358
 18.7711
 -38.1056
 -63.1547
 -71.212
 -86.0358
 -86.0358
 -86.0358
 -86.0358
 -86.0358
 -86.0358
 -86.0358
 -86.0358
 -86.0358
 -86.0358
 -86.0358
 -86.0358
 -18.3233
 -46.4506
 -52.0832
 12.8296
 -86.0358
 -86.0358
 -86.0358
 -86.0358
 -86.0358
 -86.0358
 -86.0358
 -86.0358
 -86.0358
 -86.0358
 -86.0358
 -86.0358
 -86.0358
 -86.0358
 -86.0358
 -86.0358
 -86.0348
 -86.0354
 -86.0352
 -86.0359
 -86.0358
 -86.0358
 -86.0358
 -86.0358
 -86.0358
 -86.0358
 -86.0358
 -86.0358
 -86.0358
 -86.0358
 -86.0358
 -86.0358
 -86.0358
 -86.0358
 -86.0358
 -86.0358
 -86.0358
 -86.0358
 -86.0358
 -86.0358
 -86.0358
 -86.0358
 -86.0358
 -86.0358
 -86.0358
 -86.0358
 -86.0358
 -86.0358
 -55.2026
 -86.0358
 -86.0358
 -86.0358
 -86.0358
 -85.4554
 -85.9392
 -86.5833
 -84.9537
 -86.0358
 -86.0358
 -86.0358
 -86.0358
 -86.0358
 -86.0358
 -86.0358
 -86.0358
 -86.0358
 -86.0358
 -86.0358
 -86.0358
 -86.0358
 -86.0358
 -86.0358
 -86.0358
 -86.0358
 -86.0358
 -86.0358
 -86.0358
 -86.0358
 -86.0358
 -86.0358
 -86.0358
 22.4471
 22.6015
 22.722
 -86.0358
 -86.0358
 -86.0358
 -86.0358
 -86.0358
 -86.0358
 22.4187
 29.1697
 27.9843
 -86.0363
 -86.0265
 -86.0667
 -86.0291
 -86.0358
 -86.0358
 -86.0358
 -86.0358
 -86.0358
 24.9611
 25.0815
 27.4626
 26.4205
 -86.0358
 -86.0358
 -86.0358
 -86.0358
 -86.0358
 -86.0358
 -86.0358
 -86.0358
 -86.0358
 -86.0358
 -86.0358
 -86.0358
 -86.0358
 -86.0358
 17.4346
 6.77092
 14.8378
 -86.0359
 -86.0359
 -86.0358
 -86.0358
 -86.0358
 -86.0358
 -86.0358
 -86.0358
 -89.7976
 -86.0358
 -86.0358
 -86.0358
 -86.0358
 -86.0358
 -86.0358
 -86.0358
 -86.0358
 -86.0357
 -86.0354
 -86.0357
 -86.0358
 -86.0358
 -86.0358
 -86.0358
 -86.0358
 -86.0358
 -86.0358
 -86.0358
 -86.0358
 -86.0359
 -86.0362
 -86.0361
 -86.0887
 -86.0314
 -86.0383
 -86.102
 -86.0358
 -86.0358
 -86.0358
 -86.0358
 -86.0358
 24.3495
 24.22
 27.2505
 28.1452
 -86.0358
 -86.0358
 -86.0358
 -86.0358
 27.992
 22.9125
 19.5246
 18.0741
 -86.0358
 -86.0358
 -86.0358
 28.9383
 20.8834
 23.5952
 28.7188
 -86.0358
 -86.0358
 -86.0358
 -86.0358
 -86.0356
 -86.0358
 -86.0356
 -86.0361
 -86.0358
 -86.0358
 -86.0358
 -86.0358
 23.2373
 -85.9453
 -86.0607
 -86.031
 -86.068
 -85.0852
 -87.5716
 -90.2011
 -86.0358
 -86.0358
 -86.0358
 -86.0358
 -86.0358
 -86.0358
 -86.0358
 -86.0358
 -86.0358
 -86.0358
 -86.0358
 -86.0358
 -86.0358
 -86.0358
 -86.0358
 -86.0358
 22.7518
 23.3226
 -86.0358
 -86.0358
 -86.0358
 -86.0358
 -86.0358
 -86.0358
 -86.0358
 -86.0368
 -86.0369
 -86.0335
 -86.0283
 -86.0359
 -86.0358
 -86.0358
 -86.0358
 -86.0358
 -86.0358
 -86.0358
 -86.0358
 -86.0358
 -86.0358
 -86.0358
 -86.0358
 -86.0358
 -86.0358
 -86.0358
 -86.0358
 -86.0358
 -86.0358
 -86.0358
 -86.0358
 -86.0358
 -86.0358
 -86.0358
 -86.0358
 -86.0358
 -86.0358
 -86.0358
 -86.0358
 -86.0358
 -86.0358
 -86.0358
 -86.0358
 -86.0358
 -86.0358
 -86.0358
 -86.0358
 -86.0358
 -86.0359
 -86.0358
 -86.0358
 -86.0358
 -86.0358
 -86.0358
 -86.0358
 -86.0358
 -86.0358
 -86.0358
 -86.0358
 -86.0358
 -86.0358
 -85.9813
 -86.048
 22.547
 22.6284
 23.0521
 22.5962
 -86.0358
 -86.0356
 -86.0352
 -86.0359
 -86.0358
 -86.0358
 -86.0358
 -86.0358
 23.2148
 23.8892
 22.9298
 24.296
 26.4425
 29.233
 26.6572
 -86.0358
 -86.0358
 -86.0358
 -86.0358
 -86.0358
 -86.0358
 -86.0358
 -86.0358
 -86.0358
 -86.0358
 -86.0358
 -86.0358
 -86.0358
 -86.0358
 -86.0358
 -86.0358
 -86.0358
 -86.0358
 -86.0358
 -86.0358
 -86.0358
 -86.0358
 -86.0358
 -86.0358
 -86.0358
 -86.0358
 -86.0358
 23.4511
 29.8002
 26.8755
 25.488
 -86.0358
 -86.0358
 -86.0358
 -86.0358
 -86.0358
 -86.0358
 -86.0358
 -86.0358
 -86.0358
 -86.0358
 -86.0354
 -86.0255
 -86.0442
 -86.0323
 -86.0358
 -86.0358
 -86.0358
 -86.0358
 -86.0358
 -86.0358
 -86.0358
 -86.0358
 -86.0358
 -86.0358
 -86.0358
 -86.0358
 -86.0358
 -86.0358
 -86.0358
 -86.0358
 -86.0358
 -86.0358
 -86.0358
 -86.0358
 -86.0358
 -86.0358
 -86.0358
 -86.0358
 -86.0358
 -86.0358
 -86.0358
 -86.0358
 -86.0358
 -86.0358
 -86.0358
 -86.0358
 -86.0358
 -86.0358
 -86.0358
 -86.0358
 -86.0358
 -86.0359
 -86.0358
 -86.0358
 -86.0358
 -86.0358
 -86.0358
 -86.0358
 -86.0358
 -86.0358
 -86.0358
 -86.0358
 -86.0358
 -86.0358
 -86.0362
 -86.0331
 -86.0358
 -86.0358
 -86.0358
 -86.0358
 -86.0358
 -86.0358
 -86.0358
 -86.0358
 -86.0358
 -86.0358
 -86.0358
 -86.0358
 -86.0358
 -86.0358
 -86.0358
 -86.0358
 -86.0358
 -86.0358
 -86.0358
 -86.0358
 -86.0358
 -86.0358
 -86.0358
 -86.0358
 -86.0358
 -86.0358
 -86.0358
 -63.4122
 -49.4161
 16.4741
 -75.0991
 -86.0358
 -86.0358
 -86.0358
 -86.0358
 -86.0358
 -86.0358
 -86.0358
 -86.0358
 -86.0358
 -86.0358
 -86.0358
 -86.0358
 -86.0358
 -86.0358
 -86.0358
 -86.0358
 -86.0358
 -86.0358
 -86.0358
 -86.0358
 -86.0358
 -86.0358
 -86.0358
 -86.0358
 -86.0358
 -86.0358
 25.9173
 28.3989
 15.3494
 11.7791
 -86.0358
 -86.0358
 -86.0358
 -86.0358
 -86.0358
 -86.0358
 -86.0358
 -86.0358
 -86.0358
 -86.0358
 -87.5291
 -85.9153
 -86.1877
 -85.4611
 -86.0358
 -86.0358
 -86.0358
 -86.0358
 -86.0358
 -86.0358
 -86.0358
 -86.0358
 -86.0358
 -86.0358
 -86.0358
 -86.0358
 -86.0358
 -86.0358
 -86.0358
 -86.0358
 -86.0358
 -86.0358
 -86.0358
 -86.0358
 -86.0358
 -86.0358
 -86.0358
 -86.0358
 -86.0358
 -86.0358
 -86.0358
 -86.0358
 -86.0358
 -86.0358
 -86.0358
 -86.0358
 -86.0358
 -86.0358
 -86.0358
 -86.0358
 -86.0358
 -86.0358
 -86.0358
 -86.0359
 -86.0358
 -86.0358
 -86.0358
 -86.0358
 -86.0358
 -86.0358
 -86.0358
 -86.0358
 -86.0358
 -86.0358
 -86.0358
 -86.0358
 -86.0358
 -86.0358
 -86.0358
 -86.0358
 -86.0358
 -86.0358
 -85.6024
 -86.4203
 -85.9289
 -85.9579
 -86.0358
 -86.0358
 -86.0358
 -86.0358
 -86.1004
 -85.8821
 -85.5572
 -86.0358
 -86.0358
 -86.0358
 -86.0358
 -86.0715
 -85.9263
 -86.0572
 -86.0276
 -86.0358
 -86.0358
 -86.0358
 -86.0358
 -86.0358
 -86.0358
 -86.0358
 -86.0358
 -86.0358
 -86.0358
 -86.0358
 -86.0358
 -86.0358
 -86.0358
 -86.0358
 -86.0358
 -86.0358
 -86.0358
 -86.0358
 -86.0358
 -86.0358
 -86.0358
 -86.0358
 -86.0358
 -86.0358
 -86.0358
 -86.0358
 -86.0358
 -86.0358
 -86.0358
 -86.0358
 -86.0358
 -86.0358
 -86.0358
 -86.0358
 -86.0358
 -86.0358
 -86.0358
 -86.0358
 -86.0358
 -86.0358
 -86.0358
 -86.0358
 -86.0358
 -86.0358
 -86.0358
 -86.0358
 -86.0358
 -86.0358
 -86.0358
 -86.0358
 -86.0358
 -86.0358
 -86.0358
 23.0658
 22.684
 23.1376
 -86.0358
 -86.0358
 -86.0358
 -86.0358
 -86.0359
 -86.0359
 -86.0358
 -86.0358
 -86.0358
 -86.0358
 -86.0358
 -86.0358
 -86.0358
 -86.0358
 -86.0359
 -86.0358
 -86.0359
 -86.0358
 -86.0358
 -86.0358
 -86.0358
 -86.0276
 -86.0878
 -85.3536
 -86.0358
 -86.0358
 -86.0358
 -86.0358
 -86.0358
 -87.4919
 -85.6833
 -85.5278
 -84.9358
 -86.0358
 -86.0358
 -86.0358
 -86.0358
 -86.0358
 -86.0358
 -86.0358
 -86.0358
 -86.0339
 -86.0362
 -86.0317
 -86.0357
 -86.0358
 -86.0358
 -86.0358
 -86.0358
 -86.0358
 23.6576
 -86.0358
 -86.0358
 -86.0358
 -86.0358
 -86.0358
 -86.0358
 -86.0358
 -86.0358
 -86.0358
 -86.0358
 -86.0358
 -86.0358
 -86.0358
 -86.0358
 -86.0358
 -86.0358
 -86.0358
 -86.0358
 -86.0358
 -86.0358
 -86.0358
 -86.0358
 -86.0358
 -86.0358
 -86.0358
 -86.0358
 -86.0358
 -86.0355
 -86.0383
 -86.0363
 22.6913
 23.0398
 22.7239
 22.4717
 -86.0358
 -86.0358
 -86.0358
 -86.0358
 -86.0358
 -86.0358
 -86.0358
 -86.0358
 -86.0358
 -69.2021
 -56.3146
 -83.8374
 23.8476
 -86.0358
 -86.0358
 -86.0358
 -86.0358
 -86.0358
 -86.0358
 -86.0358
 -86.0358
 -86.0358
 -86.0358
 -86.0358
 -86.0358
 -86.0358
 -86.0358
 -86.0358
 -86.0358
 -86.0358
 -86.0358
 -86.0358
 -86.0358
 -86.0358
 -86.0358
 -86.0358
 -86.0358
 -86.0358
 -86.0358
 -86.0358
 -86.0359
 -86.0358
 -86.0358
 -86.0358
 -86.0358
 -86.0358
 28.4525
 22.004
 -86.0358
 -86.0358
 -86.0358
 -86.0358
 -86.0358
 -86.0357
 -86.0359
 -86.0362
 -86.0358
 -86.0358
 -86.0358
 -86.0358
 -86.0358
 -86.0358
 -86.0358
 -86.0358
 -86.0358
 -86.0358
 -86.0358
 -86.0358
 -86.0358
 -86.0358
 -86.0358
 -86.0358
 -86.0358
 -86.0358
 -86.0358
 -86.0358
 -86.0358
 -86.0358
 -86.0358
 -86.0358
 -86.0358
 -86.0358
 -86.0358
 -86.0358
 -86.0358
 -86.0358
 -86.0358
 -86.0358
 -86.0358
 -86.0358
 -86.0358
 -86.0358
 -86.0358
 -86.0358
 -86.0358
 -86.0358
 -86.0358
 -86.0358
 -86.0358
 -86.0358
 -86.0358
 -86.0358
 -86.0358
 -86.0358
 24.2134
 23.7377
 23.9228
 23.6121
 -86.0358
 -86.0358
 -86.0358
 -86.0358
 -86.0358
 -86.0358
 -86.0358
 -86.0358
 -86.0358
 -86.0358
 -86.0358
 -86.0358
 -86.0358
 -86.0358
 -86.0358
 -86.0358
 -86.0358
 -86.0358
 -86.0358
 -86.0358
 -86.0358
 -86.0358
 -86.0358
 -86.0358
 -86.0358
 -86.0358
 -86.0358
 -86.0358
 -86.0358
 -86.0358
 -86.0358
 -86.0358
 -86.0358
 -86.0358
 -86.0358
 -86.0358
 -86.0358
 -86.0358
 -86.0358
 -86.0358
 -86.0358
 -86.0358
 -86.0358
 -86.0358
 -86.0358
 -86.0358
 -86.0358
 -86.0358
 -86.0358
 -86.0358
 -86.0358
 -86.0358
 -86.0358
 -86.0358
 -86.0358
 -86.0358
 -86.0358
 -86.0358
 -86.0358
 -86.0358
 -86.0358
 -86.0358
 -86.0358
 -86.0358
 -86.0358
 -86.0358
 -86.0358
 -86.0358
 -86.0358
 -86.0358
 -86.0358
 -86.0358
 -86.0358
 -86.0358
 -86.0358
 -86.0358
 -86.0358
 -86.0358
 -86.0358
 -86.0358
 -86.0358
 -86.0359
 -86.0359
 -86.0358
 -86.0358
 -86.0358
 -86
 -86.0464
 -86.0132
 -86.0358
 -86.0358
 -86.0358
 -86.0358
 14.6361
 26.5124
 -10.3073
 29.603
 -86.0358
 -86.0358
 -86.0358
 -86.0358
 -86.0358
 -86.0358
 -86.0358
 -86.0358
 -86.0358
 -86.0358
 -86.0358
 -86.0358
 -86.0357
 -86.0359
 -86.0358
 -85.9825
 -85.8392
 -86.0358
 -86.0358
 -86.0358
 -86.0358
 -86.0358
 -86.0358
 -86.0358
 -86.0358
 -86.0358
 -86.0358
 -86.0358
 -86.0358
 -86.0358
 -86.0358
 -86.0358
 -86.0358
 -86.0358
 -86.0358
 -86.0358
 -86.0358
 -86.0358
 -86.0358
 -86.0358
 -86.0358
 -86.0358
 -86.0356
 -86.0359
 -86.0357
 -86.0358
 -86.0358
 -86.0358
 -86.0358
 -86.0358
 -86.0358
 -86.0358
 -86.0358
 -86.0358
 -86.0358
 -86.0358
 23.8032
 23.0716
 24.1804
 -86.0358
 -86.0358
 -86.0358
 -86.0358
 -86.0358
 -86.0358
 -86.0358
 -86.0358
 -86.0358
 -86.0358
 -86.0358
 -86.0358
 -86.0358
 -86.0358
 -86.0358
 -86.0358
 -86.0358
 -86.0358
 -86.0358
 -86.0358
 -86.0358
 -86.0358
 -86.0358
 -86.0358
 -86.0358
 -86.0358
 -86.0358
 -86.0358
 -86.0359
 -86.0358
 -86.0358
 -86.0358
 -86.0358
 -86.0358
 -86.0358
 -86.0358
 -86.0358
 -86.0358
 -86.0358
 -86.0358
 -86.0358
 -86.0358
 -86.0358
 -86.0358
 -86.0358
 14.4781
 26.5627
 -85.8092
 -86.0797
 -85.9804
 -85.8306
 24.6659
 -86.0358
 -86.0358
 -86.0358
 -86.0358
 -86.0358
 -86.0358
 -86.0358
 -86.0358
 -86.0358
 -86.0358
 -86.0358
 -86.0358
 -86.0358
 -86.0358
 -86.0778
 -86.0629
 -85.9829
 -86.0332
 -88.3445
 -89.4374
 -54.064
 -88.2452
 -86.0348
 -86.0328
 -86.0364
 -86.0358
 -86.0358
 -86.0358
 -85.107
 -86.5756
 -85.8637
 -86.2369
 -86.0358
 -86.0358
 -86.0358
 -86.0358
 -86.03
 -86.0348
 -86.0369
 -86.0328
 -86.0358
 -86.0358
 -86.0358
 -86.0358
 -86.0358
 -86.0358
 -86.0358
 27.0839
 24.8308
 26.5895
 29.209
 -86.0358
 -86.0358
 -86.0358
 -86.0358
 -86.0358
 -86.0358
 -86.0358
 26.5445
 24.7989
 27.6415
 -86.0358
 -86.0358
 -86.0358
 -86.0358
 -86.0358
 -56.8912
 17.4497
 -91.4056
 -67.2789
 -86.0358
 -86.0358
 -86.0358
 -86.0358
 -86.0359
 -86.0358
 -86.0358
 -86.0359
 -86.0358
 -86.0358
 -86.0358
 -86.0358
 -86.0358
 -86.0358
 -86.0358
 -86.0358
 -86.0358
 -86.0358
 -86.0358
 -86.0358
 -86.0358
 -86.0358
 -86.0358
 -86.0358
 -86.0358
 -86.0358
 -86.0358
 -83.1241
 -85.4991
 -48.7051
 -92.3841
 -89.4055
 -88.1303
 -86.0358
 -86.0358
 -86.0358
 -86.0358
 -86.0358
 -86.0358
 -86.0358
 -86.0358
 -86.0358
 -86.0358
 -86.0358
 -86.0358
 -86.0358
 -86.0358
 -86.0358
 -86.0358
 -86.0358
 -86.0358
 -86.0358
 -86.0358
 8.10554
 -86.0358
 -86.0358
 -86.0358
 -86.0358
 22.1522
 -45.1119
 14.4322
 -86.0358
 -86.0358
 -86.0358
 -86.0358
 -86.0358
 -86.0358
 -86.0358
 -86.0358
 -86.0358
 -86.0358
 -86.0358
 -86.0358
 -86.0358
 -86.0358
 -86.0358
 -86.0358
 -86.0358
 -86.0358
 -86.0358
 -86.0358
 -86.0358
 -86.0358
 25.5776
 25.1243
 -35.2404
 17.2868
 -86.0358
 -86.0358
 -86.0358
 -86.0358
 -86.0358
 -86.0358
 -86.0358
 -86.0358
 -86.0358
 -86.0358
 -86.0358
 -86.0358
 -86.0358
 -86.0358
 -86.0358
 -86.0866
 -85.4488
 -86.1962
 -85.6329
 -86.0363
 -86.0257
 -86.0337
 -86.0367
 26.6973
 24.9079
 29.502
 26.4405
 -86.0358
 -86.0358
 -86.0358
 -86.0358
 -86.0358
 -86.0359
 -86.0358
 -86.0358
 -86.2781
 -85.8304
 -84.7421
 -86.0358
 -86.0358
 -86.0358
 -86.0358
 -86.0358
 -86.0358
 -86.0358
 -86.0358
 -86.0358
 -86.0358
 -86.0358
 -86.0358
 -86.0358
 -86.0358
 -86.0358
 -86.0358
 -86.0358
 -86.0358
 -86.0358
 -86.0358
 -86.0358
 -86.0358
 -86.0358
 -86.0358
 -86.0358
 -86.0358
 -86.0358
 -86.0358
 -86.0358
 -86.0024
 -86.1003
 -86.0571
 -90.305
 -82.4948
 -88.2071
 -56.406
 -86.0129
 -86.0697
 -86.0544
 -86.0361
 -86.0348
 -86.036
 -86.0358
 -86.0358
 -86.0358
 -86.0358
 -86.0358
 -86.0358
 -86.1456
 -86.1426
 -86.0654
 -86.1548
 -86.0358
 -86.0358
 -86.0358
 -86.0358
 -86.0358
 -86.0358
 -86.0358
 -86.0358
 -86.0358
 -86.0358
 -86.0358
 -86.0358
 -86.0358
 -86.0358
 -86.0358
 -86.0358
 -86.0358
 -86.0358
 -86.0358
 -86.0358
 -86.0358
 -86.0358
 -86.0358
 -86.0358
 -86.0358
 -86.0358
 -86.0358
 -86.0358
 -86.0358
 -86.0358
 -86.0358
 -86.0358
 -86.0358
 -86.0358
 -86.0358
 -86.0358
 -86.0358
 -86.0358
 -86.0358
 -86.0358
 -86.0358
 -86.0358
 -86.0358
 -86.0358
 22.6975
 23.1285
 22.5939
 22.7626
 -86.0358
 -86.0358
 -86.0358
 -86.0358
 -86.0358
 -86.0358
 -86.0358
 -86.0358
 -86.0358
 -86.0358
 -86.0358
 -86.0358
 -86.0358
 -86.0358
 -86.0358
 -86.0358
 -86.0358
 -86.0358
 -86.0358
 -86.0358
 -86.1745
 -85.3535
 -85.8203
 -85.6112
 -90.6659
 -60.4728
 -90.6255
 -86.0358
 -86.0358
 22.8099
 23.5384
 23.9296
 -86.0207
 -86.0873
 -86.0971
 -84.4008
 -86.0358
 -86.0358
 -86.0358
 17.5381
 30.077
 29.1746
 28.3023
 -86.0358
 -86.0358
 -86.0358
 -86.0358
 -86.0358
 -86.0358
 -86.0358
 -86.0358
 -86.0358
 -86.0358
 -86.0358
 -86.0358
 -86.0358
 -86.0358
 -86.0358
 -86.0358
 -86.0358
 -86.0358
 -86.0358
 -86.0358
 -86.0358
 -86.0358
 -86.0358
 -86.0358
 29.285
 27.4737
 25.2624
 -86.0358
 -86.0358
 -86.0358
 -86.0358
 -86.0358
 -86.0358
 -86.0358
 -86.0358
 14.9146
 27.8175
 18.641
 20.8232
 -86.0358
 -86.0358
 -86.0358
 -86.0728
 -86.0596
 -86.2326
 -86.0358
 -86.0358
 -86.0358
 28.6194
 23.4128
 34.2276
 27.04
 -86.3011
 -86.0921
 -86.0495
 -86.007
 -86.0358
 -86.0358
 -86.0358
 -86.0358
 -86.0358
 -86.0358
 -86.0358
 -86.0358
 -86.0339
 -86.0327
 -86.0338
 -86.0572
 -86.0358
 -86.0358
 -86.0358
 -86.0358
 -86.0358
 -86.0358
 -86.0358
 -86.0358
 -85.4678
 -86.145
 -85.6775
 -85.7406
 24.2004
 -86.0358
 -86.0358
 -86.0358
 -86.0358
 -75.259
 -57.4826
 -59.2147
 12.2206
 -86.0358
 -86.0358
 -86.0358
 -86.0358
 27.9979
 24.4049
 27.9408
 24.1436
 -86.0358
 -86.0358
 -86.0358
 -86.0358
 -86.0358
 -86.0358
 -86.0482
 -86.0277
 -86.0354
 -86.0275
 -86.0358
 -86.0358
 -86.0358
 -86.0358
 -86.0358
 -86.0358
 -86.0338
 -86.0355
 -86.0361
 -86.036
 -86.0358
 -86.0358
 -86.0358
 -86.0358
 -86.0358
 -86.0358
 -86.0358
 -86.0358
 -86.0358
 -86.0358
 -86.0358
 -86.0358
 -86.0358
 -86.0358
 -86.0358
 -86.0358
 25.4913
 30.8332
 24.3532
 31.6114
 -86.0358
 -86.0358
 -86.0358
 -86.0358
 -78.1285
 -52.8594
 -86.0358
 -86.0358
 -86.0358
 -86.0358
 -86.0358
 -86.0358
 -86.0358
 28.1341
 26.8877
 26.5446
 25.154
 -86.0358
 -86.0358
 -86.0358
 -86.0358
 -86.0358
 -86.0358
 -86.0358
 -86.0358
 -86.0358
 -86.0358
 -86.0358
 -86.0358
 -86.0358
 -86.0358
 -86.0358
 -86.0358
 -86.0358
 -86.0358
 -86.0358
 -86.0358
 -86.0358
 -86.0358
 -86.0358
 -86.0358
 -80.2476
 -58.8126
 -84.2866
 27.3373
 25.8038
 25.9464
 9.89197
 -86.0358
 -86.0358
 -86.0358
 -86.0358
 22.6408
 22.573
 22.2204
 22.9412
 -86.0358
 -86.0358
 -86.0358
 -86.0358
 -86.0358
 -86.0358
 -86.0358
 -86.0358
 -86.0358
 -86.0358
 -86.0358
 -86.0358
 -86.0358
 -86.0358
 -86.0358
 -86.0358
 -86.0358
 -86.0358
 -86.0358
 -86.0358
 -86.0358
 -86.0358
 -86.0358
 -86.0358
 -87.2638
 -85.3881
 -85.8936
 -86.0358
 -86.0358
 -86.0358
 -86.0358
 -86.9622
 -59.0241
 -86.0717
 -86.0358
 -86.0358
 -86.0358
 -86.0358
 -86.0358
 -86.0358
 -86.0358
 -86.0358
 -86.0358
 -86.0358
 -86.0358
 -86.0358
 -85.989
 -87.1092
 -88.4923
 -86.0358
 -71.9049
 -86.0358
 -86.0358
 -86.0358
 -86.0358
 -86.0358
 -86.0358
 -86.0358
 -86.0358
 -86.0358
 -86.0358
 -86.0358
 -86.0358
 -86.0358
 -86.0358
 -86.0358
 -86.0358
 -86.0358
 -86.0358
 -86.0358
 -86.0358
 -86.0358
 -86.0358
 -86.0358
 -86.0358
 -86.0312
 -86.0358
 -86.0315
 -86.0358
 -86.0358
 -86.0143
 -86.0441
 -86.0432
 -86.0328
 -86.0358
 -86.0358
 -86.0358
 -86.0358
 -86.0358
 -86.0358
 -86.0358
 -86.0358
 -86.0358
 -86.0358
 -86.0358
 -86.0358
 -86.0358
 -86.0358
 -86.0358
 -86.0358
 -86.0358
 -86.0358
 -86.0358
 -86.0358
 -86.0358
 -86.0358
 -86.0358
 -86.0358
 -86.0358
 -86.0358
 -86.0358
 -86.0358
 -86.0358
 -86.0358
 -86.0358
 -86.0358
 -86.0358
 -86.0358
 -86.0358
 -86.0358
 -86.0358
 -86.0358
 -86.0358
 -86.0358
 -86.0358
 -86.0358
 -86.0358
 -86.0358
 -86.0358
 -86.0358
 -86.0358
 -86.0358
 -86.0358
 -86.0358
 -86.0358
 -86.0358
 -86.0358
 -72.8734
 16.8303
 -43.8566
 16.2426
 -86.0358
 -86.0358
 -86.0358
 -86.0358
 -86.0358
 -86.0358
 -86.0358
 -86.0358
 -86.0358
 -86.0358
 -86.0358
 -86.0358
 -86.0358
 -86.0358
 -86.0358
 -86.0358
 22.7763
 23.0734
 22.9594
 23.0298
 -86.0358
 -86.0358
 -86.0358
 -86.0358
 -86.0358
 -86.0358
 -86.0358
 -86.0358
 -86.0358
 -86.0358
 -86.0358
 -86.0358
 -86.0358
 -86.0358
 -86.0358
 -86.0358
 -86.0358
 22.5658
 23.077
 22.761
 22.9132
 -86.0358
 -86.0358
 -86.0358
 -86.0358
 -86.0358
 -86.0358
 -86.0358
 -86.0358
 -86.0358
 -86.0358
 -86.0358
 -86.0358
 -86.0358
 -86.0358
 -86.0358
 -86.0358
 -86.0358
 -86.0358
 -86.0358
 -86.0358
 -86.0358
 -86.0358
 -86.0341
 -86.0445
 -86.0595
 -86.0336
 -86.0331
 -86.0362
 -86.0344
 -86.0358
 -86.0358
 -86.0358
 -86.0358
 -86.0358
 -86.0358
 -86.0358
 -86.0358
 -86.0358
 -86.0358
 -86.0358
 -86.0358
 -86.0358
 -86.0358
 -86.0358
 -86.0358
 -86.0358
 -86.0358
 -86.0358
 -86.0358
 -86.0354
 -86.0346
 -86.0363
 -86.0358
 -86.0358
 -86.0358
 -86.0358
 -86.0358
 -86.0358
 -86.0358
 -86.0358
 -86.0358
 -86.0358
 -86.0358
 -86.0358
 -86.0358
 -86.0358
 -87.162
 -90.9048
 -85.8717
 -86.0358
 -86.0358
 -86.0358
 -86.0358
 -86.0358
 -86.0358
 -86.0358
 -86.0358
 -86.0358
 -86.0358
 -86.0358
 -86.0358
 -86.0358
 -86.0358
 -86.0358
 -86.0358
 -86.0358
 -86.0358
 -86.0358
 -86.0358
 -86.0358
 -86.0358
 -86.0358
 -86.0358
 -86.0217
 -85.3615
 -85.8459
 -86.025
 -92.1427
 -87.3032
 -59.8974
 -74.5498
 -86.0358
 -86.0358
 -86.0358
 -86.0358
 -86.0358
 -86.0358
 -86.0358
 -86.0358
 -86.0358
 -86.0358
 -86.0358
 -86.0358
 -86.0358
 -86.0358
 -86.0358
 -86.0358
 -86.0358
 -86.0358
 -86.0358
 -86.0358
 -86.0358
 -86.0358
 -85.8146
 -86.0565
 -85.9702
 -86.0501
 -86.0358
 -86.0358
 -86.0358
 -86.0358
 -86.0358
 -86.0358
 -86.0358
 -86.0605
 -86.0581
 -85.9814
 -85.782
 -86.0358
 -86.0358
 -86.0358
 -86.0358
 -86.0668
 -86.0733
 -86.0445
 -86.3349
 -86.0359
 -86.0359
 -86.0372
 -86.0359
 -86.0358
 -86.0358
 -86.0358
 -86.0358
 -86.0358
 -86.0358
 -86.0358
 -86.0358
 -86.0358
 -86.0358
 -86.0358
 -86.0358
 -86.0372
 -86.0363
 -86.036
 -86.0358
 -86.0358
 -86.0358
 -86.0358
 -86.0358
 -86.0358
 -86.0358
 -86.0358
 -86.0358
 -86.0358
 -86.0358
 -86.0227
 -86.0334
 -86.0355
 -86.0346
 -86.0331
 -86.036
 -86.0358
 -86.0358
 -86.0358
 -86.034
 -86.0404
 -86.0391
 -86.0599
 -86.0358
 -86.0358
 -86.0358
 -86.0358
 -86.0358
 -86.0358
 -86.0358
 -86.0358
 -86.0358
 -86.0358
 -86.0358
 -86.0358
 -86.1176
 -86.9425
 -89.7595
 -91.9476
 -85.5399
 -84.844
 -85.8394
 -86.0138
 14.3696
 15.7041
 11.0329
 -86.2341
 -86.3229
 -86.0358
 -86.0358
 -86.0358
 -86.0358
 -86.0358
 -86.0358
 -86.0358
 -86.0358
 -86.0358
 -86.0358
 -86.0358
 -86.0358
 -86.0358
 -86.0358
 -86.0358
 -86.0358
 -86.0358
 -86.0358
 -86.0358
 -86.0358
 -86.0358
 -86.0358
 -86.0358
 -86.0358
 -86.0358
 22.8943
 22.86
 22.5695
 -86.0358
 -86.0358
 -86.0358
 -86.0358
 -86.0417
 -86.0368
 -86.0304
 -86.036
 -86.0358
 -86.0358
 -86.0358
 -86.0358
 -86.0358
 -86.0358
 -86.0358
 -86.0358
 -86.0358
 -86.0658
 -86.0344
 -86.0358
 -86.0358
 -86.0358
 -86.0358
 -86.0358
 -86.0358
 -86.0358
 -83.8364
 -51.9513
 -87.6513
 -88.3469
 -86.0358
 -86.0358
 -86.0358
 -86.0358
 -86.0358
 -86.0358
 -86.0358
 -86.0358
 -86.0358
 -86.0358
 -86.0358
 -86.0358
 -86.0358
 -86.0358
 -86.0358
 -86.0358
 -86.0358
 -86.0358
 -86.0358
 -86.0358
 -86.0358
 -85.3374
 -87.5435
 -86.0358
 -86.0358
 -86.0358
 -86.0358
 -86.0358
 -86.0358
 -86.0358
 -86.0358
 -86.2694
 -85.7397
 -86.3615
 -86.4404
 -86.0358
 -86.0358
 -86.0358
 -86.0358
 -86.0358
 -86.0358
 -86.0358
 -86.0358
 -86.0358
 -86.0358
 -86.0358
 -86.0358
 -86.0358
 -86.0358
 -86.0358
 -86.0358
 -86.0358
 -86.0358
 -86.0358
 -86.0358
 -86.0358
 -86.0358
 -86.0358
 -86.0358
 -86.0358
 -86.0358
 -86.0358
 -86.0358
 -86.0358
 -86.0358
 -86.0358
 -86.0358
 -86.0358
 -86.0358
 -86.0358
 -86.0358
 -86.0358
 -86.0358
 -86.0358
 -86.0358
 -86.0358
 -86.0358
 -86.0358
 -86.0358
 -86.0358
 -86.0376
 -86.0127
 -85.9897
 -86.068
 -86.0358
 -86.0358
 -86.036
 -86.0357
 -86.0358
 -86.0358
 -86.0358
 -86.0358
 -86.0358
 -86.0358
 -86.0358
 -86.0358
 -86.0358
 -86.0358
 -86.0358
 -86.0358
 -86.0358
 24.7962
 -86.0358
 -86.0358
 -86.0358
 -86.0358
 -86.0358
 -86.0358
 -86.0358
 -86.0358
 -86.0358
 -86.0358
 -86.0358
 -86.0358
 -86.0363
 -86.0359
 -86.0359
 -86.0364
 -86.0358
 -86.0353
 -86.0357
 -86.0358
 -86.0359
 -86.0358
 -86.0358
 -86.0358
 -86.0358
 -86.0358
 -86.0358
 -86.0358
 -86.0358
 -86.0358
 -86.0358
 -86.0358
 -86.0358
 -86.0358
 -86.0358
 -86.0358
 -86.0358
 -86.0358
 -86.0358
 22.4282
 -75.0525
 -35.6715
 -86.0358
 -86.0358
 -86.0358
 -86.0358
 -86.0358
 -47.1112
 24.4006
 -35.6458
 -17.4023
 -86.0358
 -86.0358
 -86.0358
 -86.0358
 -86.0358
 -86.0358
 -86.0358
 -86.0358
 -86.0358
 -86.0358
 -86.0358
 -86.0358
 -86.0358
 -86.0358
 -86.0358
 -86.0358
 -86.0358
 -86.0358
 -86.0358
 -86.0358
 22.4502
 23.0581
 22.3815
 22.713
 -87.152
 -86.6586
 -45.4962
 -75.2702
 -90.0874
 -42.9148
 -86.0736
 -86.0663
 -86.0358
 -86.0358
 -86.0358
 -86.0358
 -86.0358
 -86.0358
 -86.0358
 -86.0358
 -86.0358
 -86.0358
 -86.0358
 -88.0535
 -57.639
 -84.0869
 -91.0045
 -86.0358
 -86.0358
 -86.0358
 -86.0358
 -86.0358
 -86.0358
 -86.0358
 -86.0358
 -86.0358
 -86.0358
 -86.0358
 -87.3347
 -87.0754
 -87.0623
 -79.4964
 -86.0358
 -86.0358
 -86.0358
 -86.0358
 -86.0358
 -86.0358
 -86.0358
 -86.0358
 -86.0358
 -86.0358
 -86.0358
 -86.0358
 -86.0358
 -86.0358
 -86.0358
 -86.0358
 -86.0358
 -86.0358
 -86.0358
 -86.0358
 -86.0358
 -86.0358
 -86.0358
 -86.0313
 -85.925
 -86.0744
 -85.9644
 -86.0963
 -86.0305
 -86.0358
 -86.0358
 -86.0358
 -86.0358
 -86.035
 -86.0363
 -86.0353
 -86.0358
 -86.0358
 -86.0358
 -86.0358
 -86.0594
 -85.7529
 -86.0466
 -85.688
 -86.0358
 -86.0358
 -86.0358
 -86.0358
 10.3766
 -59.1631
 -86.0358
 -86.0358
 -86.0358
 -86.0358
 -86.0358
 -86.0355
 -86.0358
 -86.0346
 -86.0358
 -86.0358
 -86.0358
 -86.0358
 -86.0358
 -86.0358
 -86.0358
 -86.0358
 -86.0358
 -86.0358
 -86.0358
 -86.0358
 -86.0358
 -86.0358
 -86.0358
 -86.0358
 -86.0358
 -86.0358
 -86.0358
 -86.0358
 -86.0358
 -86.0358
 -86.0358
 -86.0358
 -86.0358
 -86.0358
 -86.0358
 -86.0358
 -86.0358
 -86.0351
 -86.035
 -86.0377
 -86.0358
 -86.0359
 -86.0358
 -86.0358
 -86.0358
 -86.0358
 -86.0358
 -86.0358
 -86.0358
 -86.0358
 -86.0358
 -86.441
 -86.0425
 -85.9726
 -86.0084
 -86.0355
 -86.0359
 -86.0358
 -86.0358
 -86.0358
 -86.0358
 -86.0358
 -86.0358
 -86.0358
 -86.0358
 -86.0358
 -86.0358
 -86.0358
 -86.0358
 -86.0358
 -86.0358
 25.5897
 19.9884
 -86.0358
 -86.0358
 -86.0358
 -86.0358
 -86.0358
 -86.0358
 -86.0358
 -86.0358
 -86.0358
 -86.0358
 -86.0358
 -86.0358
 -86.0358
 -86.0358
 -86.0358
 -86.0358
 -86.0358
 -86.0358
 -86.0358
 -86.0358
 -86.0358
 -86.0358
 -86.0358
 -86.0358
 -86.0358
 -86.0358
 -86.0358
 -86.0358
 -86.0358
 -86.0358
 -86.0358
 -86.0358
 -86.0358
 -86.0358
 -86.0358
 -86.0358
 -86.0358
 -86.0358
 -86.0358
 -86.0358
 -85.8252
 -86.1309
 -86.0704
