 -86.0289
 -86.0289
 -86.0289
 -86.0289
 -75.6499
 -80.7974
 -36.6592
 16.5182
 -86.0285
 -86.0285
 -86.0275
 -86.029
 -86.0291
 -86.0287
 -86.0288
 -86.0287
 22.771
 22.3053
 23.0306
 23.1201
 22.6731
 23.0377
 22.527
 22.9545
 -86.0289
 -86.0289
 -86.0289
 -86.0289
 -86.0289
 -86.0289
 -86.0289
 -86.0289
 22.6517
 22.782
 23.6583
 22.3811
 22.8891
 22.8504
 23.0079
 22.586
 -86.0289
 -86.0289
 -86.0289
 -86.0289
 -86.0288
 -86.0289
 -86.0289
 -86.0288
 -86.0289
 -86.0289
 -86.0289
 -86.0289
 -89.0754
 -85.2654
 -86.0537
 -86.4637
 -86.0289
 -86.0289
 -86.0289
 -86.0289
 -86.0289
 -86.0289
 -86.0289
 -86.0289
 27.6553
 26.0636
 27.2987
 25.1553
 -86.0281
 -86.0284
 -86.0204
 -86.03
 -86.0289
 -86.0289
 -86.0289
 -86.0289
 25.2111
 26.5971
 24.0265
 23.6269
 -86.0289
 -86.0289
 -86.0289
 -86.0289
 22.5432
 22.558
 22.846
 22.9492
 -86.0289
 -86.0289
 -86.0289
 -86.0289
 -85.8789
 -86.5424
 -86.091
 -86.0162
 -86.0289
 -86.0289
 -86.0289
 -86.0289
 -86.0289
 -86.0288
 -86.0289
 -86.0288
 -86.0289
 -86.0289
 -86.0289
 -86.0289
 -86.0289
 -86.0289
 -86.0289
 -86.0289
 -86.0289
 -86.0289
 -86.0289
 -86.0289
 -85.9982
 -85.9308
 -86.0138
 -85.9897
 -86.0289
 -86.0289
 -86.0289
 -86.0289
 -86.0289
 -86.0289
 -86.0289
 -86.0289
 -86.0494
 -86.0265
 -86.0224
 -86.0258
 -61.9132
 -84.4591
 -81.9022
 -77.5973
 -86.0289
 -86.0289
 -86.0289
 -86.0289
 -86.0289
 -86.0289
 -86.0289
 -86.0289
 -86.0245
 -86.0307
 -86.0245
 -86.0174
 -86.0289
 -86.0289
 -86.0289
 -86.0289
 -85.9385
 -85.774
 -88.0553
 -88.5677
 24.0369
 23.3202
 23.5618
 23.1529
 -86.0289
 -86.0288
 -86.0289
 -86.0288
 -86.4876
 -87.2795
 -88.2326
 -86.7864
 -86.0289
 -86.0289
 -86.0289
 -86.0289
 -85.8338
 -86.0985
 -86.0761
 -86.0342
 22.4733
 22.5023
 22.4497
 22.4177
 -86.0289
 -86.0289
 -86.0289
 -86.0289
 -86.0789
 -85.6093
 -85.9244
 -85.4666
 -86.0289
 -86.0289
 -86.0289
 -86.0289
 -86.0289
 -86.0289
 -86.0289
 -86.0289
 -86.0289
 -86.0289
 -86.0289
 -86.0289
 -86.0289
 -86.0289
 -86.0289
 -86.0289
 -86.0289
 -86.0289
 -86.0289
 -86.0289
 -86.0289
 -86.0289
 -86.0289
 -86.0289
 -86.0287
 -86.0286
 -86.0284
 -86.0303
 -86.0289
 -86.0289
 -86.0289
 -86.0289
 -86.0289
 -86.0289
 -86.0288
 -86.0289
 -85.8861
 -85.8127
 -86.2587
 -88.9842
 -87.5027
 -86.9075
 -86.1209
 -85.7282
 -86.0289
 -86.0289
 -86.0289
 -86.0289
 -86.0289
 -86.0289
 -86.0289
 -86.0289
 -86.0289
 -86.0289
 -86.0289
 -86.0289
 -86.0289
 -86.0289
 -86.0289
 -86.0289
 -86.0289
 -86.0289
 -86.0289
 -86.0289
 -86.0289
 -86.0289
 -86.0289
 -86.0289
 -86.0289
 -86.0289
 -86.0289
 -86.0289
 -86.0289
 -86.0289
 -86.0289
 -86.0289
 25.164
 23.7798
 22.8355
 24.9997
 22.3533
 22.3103
 22.2808
 22.2844
 -86.029
 -86.0295
 -86.0287
 -86.0291
 -86.0289
 -86.0289
 -86.0289
 -86.0289
 -85.9939
 -86.0067
 -86.2028
 -86.0104
 -86.0289
 -86.0289
 -86.0289
 -86.0289
 -86.0289
 -86.0289
 -86.0289
 -86.0289
 -86.0289
 -86.0289
 -86.0289
 -86.0289
 -86.0289
 -86.0289
 -86.0289
 -86.0289
 -86.0289
 -86.0289
 -86.0289
 -86.0289
 -86.0289
 -86.0289
 -86.0289
 -86.0289
 22.5421
 22.7539
 22.4936
 22.8763
 -86.0289
 -86.0289
 -86.0289
 -86.0289
 -86.0289
 -86.0289
 -86.0289
 -86.0289
 -86.0289
 -86.0289
 -86.0289
 -86.0289
 -86.0289
 -86.0289
 -86.0289
 -86.0289
 -86.0289
 -86.0289
 -86.0289
 -86.0289
 -86.0289
 -86.0289
 -86.0289
 -86.0289
 -86.0289
 -86.0289
 -86.0289
 -86.0289
 -86.0289
 -86.0289
 -86.0289
 -86.0289
 -86.0289
 -86.0289
 -86.0289
 -86.0289
 -86.0289
 -86.0289
 -86.0289
 -86.0289
 -86.0289
 -86.0289
 -86.0289
 -86.0289
 -86.0288
 -86.0289
 -86.0287
 -86.0288
 -86.7283
 -86.1369
 -86.104
 -86.4976
 -86.0289
 -86.0289
 -86.0289
 -86.0289
 22.8452
 22.8756
 22.748
 23.222
 -85.7864
 -85.0348
 -86.2871
 -85.7616
 -86.0289
 -86.0289
 -86.0289
 -86.0289
 -86.0289
 -86.0289
 -86.0289
 -86.0289
 -86.0289
 -86.0289
 -86.0289
 -86.0289
 -86.0289
 -86.0289
 -86.0289
 -86.0289
 -86.0289
 -86.0289
 -86.0289
 -86.0402
 -86.0277
 -86.0274
 -86.0331
 -86.0289
 -86.0289
 -86.0289
 -86.0289
 -86.0291
 -86.0291
 -86.0303
 -86.0289
 -86.0289
 -86.0289
 -86.0289
 -86.0289
 -86.0289
 -86.0289
 -86.0289
 37.1874
 18.9308
 20.84
 32.1312
 -86.0289
 -86.0289
 -86.0289
 -86.0289
 -86.0289
 -86.0289
 -86.0289
 -86.0289
 -86.0291
 -86.0287
 -86.0288
 -86.0289
 -85.8206
 -86.0327
 -85.0403
 -85.0798
 -86.0289
 -86.0289
 -86.0289
 -86.0289
 -86.0289
 -86.0289
 -86.0289
 -86.0289
 -86.0289
 -86.0289
 -86.0289
 -86.0289
 23.4729
 22.9403
 23.1505
 23.2671
 -86.0288
 -86.0298
 -86.0294
 -86.0294
 -86.0289
 -86.0289
 -86.0289
 -86.0289
 -86.0289
 -86.0289
 -86.0289
 -86.0289
 -86.0289
 -86.0289
 -86.0289
 -86.0289
 28.7584
 19.4542
 27.9008
 27.4386
 -86.0289
 -86.0289
 -86.0289
 -86.0289
 -86.0289
 -86.0289
 -86.0289
 -86.0289
 -86.0289
 -86.0289
 -86.0289
 -86.0289
 -86.0289
 -86.0289
 -86.0289
 -86.0289
 -86.0289
 -86.0289
 -86.0289
 -86.0289
 -86.029
 -86.0289
 -86.0298
 -86.0287
 -86.0289
 -86.0289
 -86.0289
 -86.0289
 25.065
 25.7738
 25.2326
 25.4865
 -86.0289
 -86.0289
 -86.0289
 -86.0289
 18.7448
 -11.4057
 26.7459
 9.24611
 -86.0289
 -86.0289
 -86.0289
 -86.0289
 -86.0289
 -86.0289
 -86.0289
 -86.0289
 -86.0289
 -86.0289
 -86.0289
 -86.0289
 -86.0289
 -86.0289
 -86.0289
 -86.0289
 22.7148
 22.8166
 22.934
 22.7229
 -86.0289
 -86.0289
 -86.0289
 -86.0289
 23.6019
 23.0259
 23.5131
 22.7394
 -86.0271
 -86.0293
 -86.0431
 -86.0148
 -86.0289
 -86.0289
 -86.0289
 -86.0289
 22.4412
 22.3759
 22.485
 22.4363
 -86.0289
 -86.0289
 -86.0289
 -86.0289
 -86.0289
 -86.0289
 -86.0289
 -86.0289
 -69.1589
 -84.0494
 -88.5875
 -85.1149
 22.4082
 22.4687
 22.2701
 22.3435
 -86.0289
 -86.0289
 -86.0289
 -86.0289
 -87.5311
 -87.4347
 -88.0643
 -85.7212
 -86.0289
 -86.0289
 -86.0289
 -86.0289
 -86.0289
 -86.0289
 -86.0289
 -86.0289
 -86.0289
 -86.0289
 -86.0289
 -86.0289
 -86.0289
 -86.0289
 -86.0289
 -86.0289
 -86.0289
 -86.0289
 -86.0289
 -86.0289
 -86.0289
 -86.0289
 -86.0289
 -86.0289
 -86.0289
 -86.0289
 -86.0289
 -86.0289
 -86.0289
 -86.0289
 -86.0289
 -86.0289
 -86.0289
 -86.0289
 -86.0289
 -86.0289
 -86.031
 -86.0302
 -86.0291
 -86.0305
 22.7372
 23.4785
 22.393
 22.5584
 23.7468
 24.3644
 23.7534
 23.3293
 24.8537
 26.4411
 25.3458
 25.364
 -86.0037
 -86.0293
 -86.069
 -86.028
 -86.0289
 -86.0289
 -86.0289
 -86.0289
 -86.0289
 -86.0289
 -86.0289
 -86.0289
 -86.0289
 -86.0289
 -86.0289
 -86.0289
 -86.0413
 -86.0647
 -86.0375
 -86.0403
 -86.0585
 -86.0695
 -86.0553
 -85.7721
 -86.0289
 -86.0289
 -86.0289
 -86.0289
 -86.0289
 -86.0289
 -86.0289
 -86.0289
 -86.0289
 -86.0289
 -86.0289
 -86.0289
 -86.0289
 -86.0289
 -86.0289
 -86.0289
 -86.0289
 -86.0289
 -86.0289
 -86.0289
 -86.0289
 -86.0289
 -86.0289
 -86.0289
 -86.0289
 -86.0289
 -86.0289
 23.7817
 25.5129
 22.7741
 24.3054
 -86.0289
 -86.0289
 -86.0289
 -86.0289
 23.0825
 23.4658
 23.0215
 24.2429
 -86.0289
 -86.0289
 -86.0289
 -86.0289
 -86.0029
 -85.962
 -86.597
 -86.7815
 -86.0289
 -86.0289
 -86.0289
 -86.0289
 22.6811
 22.7621
 22.9048
 22.6678
 -82.4115
 -84.9775
 -77.934
 -19.2054
 -86.0289
 -86.0289
 -86.0289
 -86.0289
 -85.9687
 -86.0115
 -86.0448
 -85.9303
 20.7637
 -69.4575
 -6.07777
 -56.0415
 -86.0289
 -86.0289
 -86.0289
 -86.0289
 -86.0289
 -86.0289
 -86.0289
 -86.0289
 25.895
 16.2232
 24.7984
 18.105
 -86.0291
 -86.0948
 -86.0134
 -86.1411
 24.8923
 17.3479
 27.0633
 26.8103
 -86.0289
 -86.0289
 -86.0289
 -86.0289
 -57.644
 28.8357
 -74.1013
 16.2352
 -86.0289
 -86.0289
 -86.0289
 -86.0289
 -86.0289
 -86.0289
 -86.0289
 -86.0289
 -77.4414
 -87.4962
 -89.5199
 -62.7246
 23.5733
 23.1516
 23.0357
 23.2731
 -86.0289
 -86.0289
 -86.0289
 -86.0289
 -86.0289
 -86.0289
 -86.0289
 -86.0289
 -86.0289
 -86.0289
 -86.0289
 -86.0289
 -88.7548
 -79.546
 -91.6577
 -68.2032
 -86.0289
 -86.0289
 -86.0289
 -86.0289
 -86.0289
 -86.0289
 -86.0289
 -86.0289
 -85.9565
 -85.8002
 -86.0473
 -86.0482
 -86.0284
 -86.0271
 -86.0291
 -86.0287
 22.5757
 22.7847
 22.9744
 22.661
 -86.0289
 -86.0289
 -86.0289
 -86.0289
 22.5594
 22.5167
 22.4484
 22.4582
 -86.0289
 -86.0289
 -86.0289
 -86.0289
 -86.0289
 -86.0289
 -86.0289
 -86.0289
 25.3957
 24.885
 23.6818
 24.899
 -86.1549
 -86.0992
 -86.0462
 -86.0296
 26.8368
 27.1314
 29.326
 32.7549
 -86.0289
 -86.0289
 -86.0289
 -86.0289
 -86.0289
 -86.0289
 -86.0289
 -86.0289
 -87.9349
 -86.1765
 -87.1492
 -87.8685
 -86.0289
 -86.0289
 -86.0289
 -86.0289
 -86.0289
 -86.0289
 -86.0289
 -86.0289
 -86.0289
 -86.0289
 -86.0289
 -86.0289
 -86.0289
 -86.0289
 -86.0289
 -86.0289
 -86.0289
 -86.0289
 -86.0289
 -86.0289
 -86.026
 -86.0303
 -86.0266
 -86.023
 -86.0289
 -86.0289
 -86.0289
 -86.0289
 22.4613
 22.2299
 22.3975
 22.8016
 22.4882
 22.667
 22.4086
 22.5279
 -86.0248
 -86.0537
 -86.0305
 -86.0562
 -86.0289
 -86.0289
 -86.0289
 -86.0289
 -86.0289
 -86.0289
 -86.0289
 -86.0289
 -86.0289
 -86.0289
 -86.0289
 -86.0289
 -86.0289
 -86.0289
 -86.0289
 -86.0289
 -71.3831
 -85.6007
 -28.8867
 -93.6462
 -86.0289
 -86.0289
 -86.0289
 -86.0289
 -86.0289
 -86.0289
 -86.0289
 -86.0289
 18.5552
 -23.9637
 17.883
 -62.0595
 -86.0289
 -86.0289
 -86.0289
 -86.0289
 -86.0289
 -86.0289
 -86.0289
 -86.0289
 -86.0263
 -86.0304
 -86.0266
 -86.0288
 -86.0289
 -86.0289
 -86.0289
 -86.0289
 -60.8287
 -82.7197
 -76.7979
 -55.7845
 -86.0289
 -86.0289
 -86.0289
 -86.0289
 -86.0289
 -86.0289
 -86.0289
 -86.0289
 -86.0289
 -86.0289
 -86.0289
 -86.0289
 -86.0289
 -86.0289
 -86.0289
 -86.0289
 26.7141
 29.9112
 27.8562
 21.8907
 -85.9809
 -84.967
 -86.9095
 -85.7646
 -86.0289
 -86.0289
 -86.0289
 -86.0289
 -86.0289
 -86.0289
 -86.0289
 -86.0289
 23.6909
 23.5412
 22.9975
 23.2892
 -90.7915
 -84.669
 -89.4935
 -89.0917
 -86.0289
 -86.0289
 -86.0289
 -86.0289
 -86.0289
 -86.0289
 -86.0289
 -86.0289
 -86.0289
 -86.0289
 -86.0289
 -86.0289
 -86.0385
 -86.0275
 -86.0256
 -86.0259
 -86.0289
 -86.0289
 -86.0289
 -86.0289
 25.5704
 28.0958
 28.0043
 26.6231
 -86.0295
 -86.0309
 -86.0291
 -86.0285
 -90.225
 -91.1705
 -86.1189
 -87.9934
 -85.7539
 -86.0444
 -86.0369
 -86.0388
 -86.0289
 -86.0289
 -86.0289
 -86.0289
 -86.0289
 -86.0289
 -86.0289
 -86.0289
 -86.0289
 -86.0289
 -86.0289
 -86.0289
 -86.0289
 -86.0289
 -86.0289
 -86.0289
 -86.0289
 -86.0289
 -86.0289
 -86.0289
 -86.0289
 -86.0289
 -86.0289
 -86.0289
 -86.0289
 -86.0289
 -86.0289
 -86.0289
 -86.0289
 -86.0289
 -86.0289
 -86.0289
 -86.0295
 -86.0301
 -86.0251
 -86.0243
 -86.0289
 -86.0289
 -86.0289
 -86.0289
 -86.0289
 -86.0289
 -86.0289
 -86.0289
 -86.0289
 -86.0289
 -86.0289
 -86.0289
 -86.0289
 -86.0289
 -86.0289
 -86.0289
 22.9741
 24.556
 23.1174
 23.4387
 -86.0289
 -86.0289
 -86.0289
 -86.0289
 -86.0289
 -86.0289
 -86.0289
 -86.0289
 -86.0289
 -86.0289
 -86.0289
 -86.0289
 -86.0289
 -86.0289
 -86.0289
 -86.0289
 -86.0289
 -86.0289
 -86.0289
 -86.0289
 -86.0289
 -86.0289
 -86.0289
 -86.0289
 -86.0289
 -86.0289
 -86.0289
 -86.0289
 -86.0247
 -86.0303
 -86.0587
 -86.0265
 -86.0289
 -86.0289
 -86.0289
 -86.0288
 23.3198
 27.0828
 23.5222
 24.2431
 -86.0289
 -86.0289
 -86.0289
 -86.0289
 -86.0289
 -86.0289
 -86.0289
 -86.0289
 22.5324
 23.3489
 22.6015
 22.8964
 -86.0289
 -86.0289
 -86.0289
 -86.0289
 18.8119
 -6.06098
 23.5576
 -47.425
 -86.0289
 -86.0289
 -86.0289
 -86.0289
 -86.0289
 -86.0289
 -86.0289
 -86.0289
 -86.0289
 -86.0289
 -86.0289
 -86.0289
 -86.0289
 -86.0289
 -86.0289
 -86.0289
 -33.6321
 -44.3102
 10.9259
 21.0221
 -86.0289
 -86.0289
 -86.0289
 -86.0289
 -86.0289
 -86.0289
 -86.0289
 -86.0289
 -86.0289
 -86.0289
 -86.0289
 -86.0289
 -86.0289
 -86.0289
 -86.0289
 -86.0289
 -86.0289
 -86.0289
 -86.0289
 -86.0289
 -86.0289
 -86.0289
 -86.0289
 -86.0289
 22.7207
 22.6838
 23.0117
 22.7181
 -86.0289
 -86.0289
 -86.0289
 -86.0289
 -86.0287
 -86.029
 -86.0283
 -86.0288
 -86.0289
 4.34018
 -78.2546
 -80.5015
 -85.1731
 -86.0289
 -86.0288
 -86.0275
 -86.0294
 -86.0289
 -86.0289
 -86.0289
 -86.0289
 -86.0289
 -86.0289
 -86.0289
 -86.0289
 -86.0289
 -86.0289
 -86.0289
 -86.0289
 26.5056
 14.0899
 12.9268
 17.5856
 -86.0289
 -86.0289
 -86.0289
 -86.0289
 24.9124
 24.662
 25.4884
 25.0471
 -85.9526
 -85.2401
 -86.1128
 -85.6923
 -86.0289
 -86.0289
 -86.0289
 -86.0289
 -86.0289
 -86.0289
 -86.0289
 -86.0289
 -86.0292
 -86.0273
 -86.0289
 -86.0287
 -86.0289
 -86.0289
 -86.0289
 -86.0289
 -86.0289
 -86.0289
 -86.0289
 -86.1404
 -86.0147
 -86.0384
 -86.0138
 -86.0289
 -86.0289
 -86.0289
 -86.0289
 -86.0289
 -86.0289
 -86.0289
 -86.0289
 25.1109
 24.1185
 24.5993
 25.2116
 -86.0289
 -86.0289
 -86.0289
 -86.0289
 -60.3944
 -87.5305
 -85.0177
 -69.9803
 -86.0289
 -86.0289
 -86.0289
 -86.0289
 -89.9143
 -86.3724
 -85.1192
 -87.0189
 27.6955
 26.7062
 24.6388
 26.1919
 -86.0289
 -86.0289
 -86.0289
 -86.0289
 -86.0289
 -86.0289
 -86.0289
 -86.0289
 23.1801
 22.9453
 22.5764
 22.731
 -86.0298
 -86.0292
 -86.0288
 -86.0289
 -86.0289
 -86.0289
 -86.0289
 -86.0289
 -86.0289
 -86.0289
 -86.0289
 -86.0289
 -86.0289
 -86.0289
 -86.0289
 -86.0289
 25.0431
 23.2092
 23.3713
 23.4253
 -86.0289
 -86.0289
 -86.0289
 -86.0289
 -86.0289
 -86.0289
 -86.0289
 -86.0289
 -86.0289
 -86.0289
 -86.0289
 -86.0289
 23.0081
 23.0751
 23.0842
 22.8166
 22.7034
 22.5335
 22.4932
 22.2786
 -85.9882
 -86.028
 -86.0286
 -86.0209
 -86.0289
 -86.0289
 -86.0289
 -86.0289
 -86.0289
 -86.0289
 -86.0289
 -86.0289
 -86.0289
 -86.0289
 -86.0289
 -86.0289
 -86.0289
 -86.0292
 -86.0383
 -86.06
 -85.9954
 -86.0289
 -86.0289
 -86.0289
 -86.0289
 -86.0289
 -86.0289
 -86.0289
 -86.0289
 -85.9894
 -86.6591
 -85.9486
 -86.0529
 -86.0289
 -86.0289
 -86.0289
 -86.0289
 -86.0289
 -86.0293
 -86.0288
 -86.0305
 -86.0289
 -86.0289
 -86.0289
 -86.0289
 -86.0289
 -86.0289
 -86.0289
 -86.0289
 -86.0289
 -86.0289
 -86.0289
 -86.0289
 -86.0289
 -86.0289
 -86.0289
 -86.0289
 -89.0264
 -90.1376
 -39.7794
 -66.4891
 -86.0289
 -86.0289
 -86.0289
 -86.0289
 -86.0289
 -86.0289
 -86.0289
 -86.0289
 -86.0289
 -86.0289
 -86.0289
 -86.0289
 -86.0287
 -86.03
 -86.0292
 -86.0288
 -86.0289
 -86.0289
 -86.0289
 -86.0289
 -86.0289
 -86.0289
 -86.0289
 -86.0289
 -86.0289
 -86.0289
 -86.0289
 -86.0289
 -86.0289
 -86.0289
 -86.0289
 -86.0289
 -87.8053
 -85.8941
 -86.5094
 -88.1386
 -86.0289
 -86.0289
 -86.0289
 -86.0289
 22.5566
 22.5541
 22.81
 22.6268
 -91.9947
 -85.7018
 -88.5396
 -90.1703
 -87.8265
 -86.1357
 -89.3717
 -84.9458
 19.99
 19.9922
 14.3426
 27.0593
 -86.0907
 -85.8109
 -86.0688
 -85.8497
 -86.0289
 -86.0289
 -86.0289
 -86.0289
 -86.0289
 -86.0289
 -86.0289
 -86.8721
 -84.9667
 -85.4283
 -86.734
 -86.0289
 -86.0289
 -86.0289
 -86.0289
 -86.0289
 -86.0289
 -86.0289
 -86.0289
 -85.9196
 -85.6237
 -85.2966
 -86.1635
 -86.0289
 -86.0289
 -86.0289
 -86.0289
 -86.0289
 -86.0289
 -86.0289
 -86.0289
 22.626
 22.8808
 -86.0289
 -86.0289
 -86.0289
 -86.0289
 -86.0289
 -86.0289
 -86.0289
 -86.0289
 -86.0289
 -86.0289
 -86.0289
 -86.0289
 -86.0289
 -86.0289
 -86.0289
 -72.1808
 -13.7954
 -29.0945
 -87.3785
 -86.0289
 -86.0289
 -86.0289
 -86.0289
 -86.0289
 -86.0289
 -86.0289
 -86.0289
 -86.0289
 -86.0289
 -86.0289
 -86.0289
 -86.0289
 -86.0289
 -86.0289
 -86.0289
 -86.0289
 -86.0289
 -86.0289
 -86.0289
 -86.0289
 -86.0289
 -86.0289
 -86.0289
 -86.0289
 -86.0289
 -86.0289
 -86.0289
 -86.0289
 -86.0289
 -86.0289
 -86.0289
 27.2155
 17.8562
 -67.8074
 -73.2198
 -86.0289
 -86.0289
 -86.0289
 -86.0289
 -86.0289
 -86.0289
 -86.0289
 -86.0289
 -86.0288
 -86.0289
 -86.0288
 -86.0288
 -86.0289
 -86.0289
 -86.0289
 -86.0289
 -86.0289
 -86.0289
 -86.0289
 -86.0289
 -86.0289
 -86.0289
 -86.0289
 -86.0289
 32.1054
 35.2321
 32.4073
 30.6506
 -86.0289
 -86.0289
 -86.0289
 -86.0289
 -86.0289
 -86.0289
 -86.0289
 -86.0289
 -86.0289
 -86.0289
 -86.0289
 -86.0289
 -86.0932
 -85.5198
 -85.8575
 -85.6836
 -86.5089
 -65.2511
 -32.3599
 -93.8719
 -86.0289
 -86.0289
 -86.0289
 -86.0289
 -86.0289
 -86.0289
 -86.0289
 -86.0289
 -86.0289
 -86.0289
 -86.0289
 -86.0289
 -86.0289
 -86.0289
 -86.0289
 -86.0289
 -86.0289
 -86.0289
 -86.0289
 -86.0289
 -86.0289
 -86.0289
 -86.0289
 -86.0289
 -86.0289
 -86.0289
 -86.0289
 -86.0289
 -86.0289
 -86.0289
 -86.0289
 -86.0289
 -86.0289
 -86.0289
 -86.0289
 -86.0289
 -86.0244
 -86.0286
 -86.029
 -86.0299
 -86.0294
 -86.0246
 -86.0275
 -86.0269
 -86.0268
 -86.0277
 -86.0308
 -86.0292
 -86.0289
 -86.0289
 -86.0289
 -86.0288
 -86.0289
 -86.0289
 -86.0289
 -86.0289
 -86.0289
 -86.0289
 -86.0289
 -86.0289
 -86.0289
 -86.0289
 -86.0289
 -86.0289
 -86.0289
 -86.0289
 -86.0289
 -86.0289
 -86.0289
 -86.0289
 -86.0289
 -86.0289
 -86.0652
 -86.1088
 -86.0343
 -86.0374
 -86.0289
 -86.0289
 -86.0289
 -86.0289
 -86.0296
 -86.0289
 -86.0289
 -86.0289
 -86.0289
 22.9452
 23.0243
 23.5062
 23.1759
 -86.0289
 -86.0289
 -86.0289
 -86.0289
 26.6612
 25.2239
 29.0279
 -86.0289
 -86.0289
 -86.0289
 -86.0289
 -86.0289
 -86.0289
 -86.0289
 -86.0289
 -86.0289
 -86.0289
 -86.0289
 -86.0289
 -86.0289
 -86.0289
 -86.0289
 -86.0289
 -86.0289
 -86.0289
 -86.0289
 -86.0289
 -86.0289
 -86.0289
 -86.0289
 -86.0289
 -86.0289
 -86.0289
 -86.0289
 -86.0289
 -86.0289
 -86.0289
 -86.0289
 -86.0288
 -86.0289
 -86.0289
 -86.0289
 -86.0289
 -86.0289
 -86.0289
 -86.0289
 -86.0289
 -86.0289
 -86.0289
 -86.0289
 -87.0225
 -85.7889
 -85.7235
 -86.0289
 -86.0289
 -86.0289
 -86.0289
 -86.0289
 -86.0289
 -86.0289
 -86.0289
 -86.0289
 -86.0289
 -86.0289
 -86.0289
 -86.0289
 -86.0289
 -86.0289
 -86.0289
 -85.0077
 -91.9132
 -86.058
 -86.3322
 -86.0114
 -86.1108
 -85.9894
 -85.7179
 -86.0289
 -86.0289
 -86.0289
 -86.0289
 -86.0289
 -86.0289
 -86.0289
 -86.0289
 -86.0289
 -86.0289
 -86.0289
 -86.0289
 22.5791
 23.2604
 22.5144
 23.0785
 -86.0289
 -86.0289
 -86.0289
 -86.0289
 -86.0289
 -86.0286
 -86.0288
 -86.0293
 -86.0289
 -86.0289
 -86.0289
 -86.0289
 -86.0335
 -86.0253
 -86.0348
 -86.0061
 -86.0289
 -86.0289
 -86.0289
 -86.0289
 -85.51
 -85.7056
 -89.974
 -87.9385
 -86.0289
 -86.0289
 -86.0289
 -86.0289
 -86.0289
 -86.0289
 -86.0289
 -86.0289
 -86.0289
 -86.0289
 -86.0289
 -86.0289
 -86.0289
 -86.0289
 -86.0289
 -86.0289
 -86.0289
 -86.0289
 -86.0289
 -86.0289
 -86.0289
 -86.0289
 -86.0289
 -86.0289
 -87.0883
 -85.2229
 -86.0289
 -87.16
 22.5393
 22.6865
 22.6138
 22.6575
 -86.0289
 -86.0289
 -86.0289
 -86.0289
 16.2343
 21.5192
 -45.2888
 26.4401
 -86.1235
 -85.4211
 -84.9905
 -85.4771
 -86.0289
 -86.0289
 -86.0289
 -86.0289
 -86.0289
 -86.0289
 -86.0289
 -86.0289
 -86.0289
 -86.0289
 -86.0289
 -86.0289
 -86.0289
 -86.0289
 -86.0289
 -86.0289
 -86.0289
 -86.0289
 -86.0289
 -86.0289
 -85.1992
 -92.3073
 -85.2789
 -88.5948
 -86.0289
 -86.0289
 -86.0289
 -86.0289
 -86.0289
 -86.0289
 -86.0289
 -86.0289
 -86.0289
 -86.0289
 -86.0289
 -86.0289
 -86.0289
 -86.0289
 -86.0289
 -86.0289
 -86.0289
 -86.0289
 -86.0289
 -86.0289
 -86.0289
 -86.0289
 -86.0289
 -86.0289
 -86.0295
 -86.0297
 -86.0308
 -86.027
 -86.0289
 -86.0289
 -86.0289
 -86.0289
 -86.0289
 -86.0289
 -86.0289
 -86.0289
 -86.0289
 -86.0289
 -86.0289
 -86.0286
 -86.029
 -86.0285
 -86.029
 -86.0289
 -86.029
 -86.0288
 -86.0288
 27.8951
 29.0087
 30.5739
 21.8311
 -86.0289
 -86.0289
 -86.0289
 -86.0289
 22.394
 22.4084
 22.2897
 22.4553
 -86.0289
 -86.0289
 -86.0289
 -86.0289
 -86.0289
 -86.0289
 -86.0289
 -86.0289
 -86.0289
 -86.0289
 -86.0289
 -86.0289
 -86.0289
 -86.0289
 -86.0289
 -86.0289
 -86.0289
 -86.0289
 -86.0289
 -86.0289
 -86.0289
 -86.0289
 -86.0289
 -86.0289
 -86.0289
 -86.0289
 -86.0289
 -86.0289
 22.8658
 22.9253
 22.5512
 22.8493
 -86.0289
 -86.0289
 -86.0289
 -86.0289
 -86.0289
 -86.0289
 -86.0289
 -86.0289
 -86.0394
 -86.0274
 -86.0488
 -86.0808
 -86.0289
 -86.0289
 -86.0289
 -86.0289
 -86.0289
 -86.0289
 -86.0289
 -86.0289
 -86.0289
 -86.0289
 -86.0289
 -86.0289
 -86.0291
 -86.0292
 -86.0289
 -86.0281
 -86.0289
 -86.0289
 -86.0289
 -86.0289
 -86.0289
 -86.0289
 -86.029
 -86.0288
 -86.0293
 -86.0287
 -86.0289
 -86.0289
 -86.0289
 -86.0289
 -86.0289
 -86.0289
 -86.0289
 -86.0289
 28.6054
 29.3843
 29.9017
 25.8875
 -86.0289
 -86.0289
 -86.0289
 -86.0289
 -86.1844
 -85.6351
 -85.8118
 -86.0991
 -86.0289
 -86.0289
 -86.0289
 -86.0289
 -86.0289
 -86.0289
 -86.0289
 -86.0289
 -86.0289
 -86.0289
 -86.0289
 -86.0289
 -86.0289
 -86.0289
 -86.0289
 -86.0289
 -86.0289
 -86.0289
 -86.0289
 -86.0289
 23.5694
 23.4838
 24.1431
 23.6926
 -86.0289
 -86.0289
 -86.0289
 -86.0289
 -86.0289
 -86.0289
 -86.0289
 -86.0289
 -86.0289
 -86.0289
 -86.0289
 -86.0289
 -86.0289
 -86.0289
 -86.0289
 -86.0289
 -86.0289
 -86.0289
 -86.0289
 -86.0289
 -86.0289
 -86.0289
 -86.0289
 -86.0289
 -86.0289
 -86.0289
 -86.0289
 -86.0289
 -92.4991
 -85.0986
 -85.7867
 -85.322
 -86.0289
 -86.0289
 -86.0289
 -86.0289
 -86.0289
 -86.0289
 -86.0289
 -86.0289
 -78.0815
 21.9106
 -54.0914
 12.3392
 -86.0289
 -86.0289
 -86.0289
 -86.0289
 -86.0289
 -86.0289
 -86.0289
 -86.0289
 -86.0476
 -85.9179
 -86.0108
 -85.9911
 -86.0289
 -86.0289
 -86.0289
 -86.0289
 -86.0289
 -86.0289
 -86.0289
 -86.0289
 24.838
 25.2711
 23.4764
 23.5613
 -84.7217
 -89.8204
 -87.0212
 -85.2724
 -86.0289
 -86.0289
 -86.0289
 -86.0289
 -86.0289
 -86.0289
 -86.0289
 -86.0289
 -86.0289
 -86.0289
 -86.0289
 -86.0289
 -86.0289
 -86.0289
 -86.0289
 -86.0195
 -86.0145
 -86.021
 -85.8757
 -86.0289
 -86.0289
 -86.0289
 -86.0289
 -86.0289
 -86.0288
 -86.0289
 -86.0288
 -86.0289
 -86.0289
 -86.0289
 -86.0289
 -86.0289
 -86.0289
 -86.0289
 -86.0289
 33.3816
 14.8854
 8.17626
 31.0176
 -86.0289
 -86.0289
 -86.0289
 -86.0289
 -86.0289
 -86.0289
 -86.0289
 -86.0289
 -86.0289
 -86.0289
 -86.0289
 -86.0289
 -86.0289
 -86.0288
 -86.0288
 -86.0288
 -86.0289
 -86.0289
 -86.0289
 -86.0289
 -86.0289
 -86.0289
 -86.0289
 -86.0289
 -86.0289
 -86.0289
 -86.0289
 -86.0289
 -86.0289
 -86.0289
 -86.0289
 -86.0289
 27.6889
 19.1718
 27.6388
 20.6933
 -86.0289
 -86.0289
 -86.0289
 -86.0289
 -86.0289
 -86.0288
 -86.0289
 -86.029
 23.4771
 23.6802
 25.4928
 26.1883
 -86.0289
 -86.0289
 -86.0289
 -86.0289
 -86.0289
 -86.0289
 -86.0289
 -86.0289
 -86.0289
 -86.0289
 -86.0289
 -86.0289
 22.8739
 22.4201
 22.9578
 22.5702
 22.511
 22.4531
 22.5862
 22.8461
 23.2856
 24.3251
 24.2605
 23.1872
 -86.0289
 -86.0289
 -86.0289
 -86.0289
 -86.0289
 -86.0289
 -86.0289
 -86.0289
 -86.0289
 -86.0289
 -86.0289
 -86.0289
 -86.0289
 -86.0289
 -86.0289
 -86.0289
 -86.0257
 -86.029
 -86.0269
 -86.0288
 -86.6461
 -65.8411
 -82.9713
 -38.2843
 -68.9123
 -49.3508
 -83.8715
 19.702
 -86.0289
 -86.0289
 -86.0289
 -86.0289
 -86.0289
 -86.0289
 -86.0289
 -86.0289
 -86.0289
 -86.0289
 -86.0289
 -86.0289
 -85.9905
 -85.871
 -86.0663
 -86.0481
 -86.0289
 -86.0289
 -86.0289
 -86.0289
 -86.0199
 -85.9995
 -85.8741
 -85.8512
 -86.0289
 -86.0289
 -86.0289
 -86.0288
 -86.0289
 -86.0289
 -86.0289
 -86.0289
 -86.0289
 -86.0289
 -86.0289
 -86.0289
 -86.0289
 -86.0289
 -86.0289
 -86.0289
 -86.0289
 -86.0289
 -86.0289
 -86.0289
 -86.1129
 -86.0046
 -85.9807
 -86.0867
 -86.0289
 -86.0289
 -86.0289
 -86.0289
 -86.0289
 -86.0289
 -86.0289
 -86.0289
 -86.0289
 -86.0295
 -86.0281
 -86.0295
 -86.1198
 -86.0816
 -86.0565
 -86.0586
 -86.0289
 -86.0289
 -86.0289
 -86.0289
 -86.0289
 -86.0289
 -86.0289
 -86.0289
 -86.9364
 -82.1627
 -83.3572
 -87.4967
 -86.0295
 -86.0288
 -86.0287
 -86.0314
 -86.0289
 -86.0289
 -86.0289
 -86.0289
 -86.0289
 -86.0289
 -86.0289
 -86.0289
 -86.0289
 -86.0289
 -86.0289
 -86.0289
 -86.0289
 -86.0289
 -86.0289
 -86.0289
 -86.0289
 -86.0289
 -86.0288
 -86.0288
 24.4565
 23.7203
 24.2705
 24.4005
 -86.0289
 -86.0289
 -86.0288
 -86.0288
 -86.0289
 -86.0289
 -86.0289
 -86.0289
 -86.0289
 -86.0289
 -86.0289
 -86.0289
 -86.0289
 -86.0289
 -86.0289
 -86.0289
 22.663
 22.663
 22.966
 22.6535
 -87.0656
 -85.209
 -84.9279
 -86.0291
 -86.0289
 -86.0294
 -86.0288
 -86.0289
 -86.0289
 -86.0289
 -86.0289
 -86.0289
 -86.0289
 -86.0289
 -86.0289
 -60.9922
 -89.0298
 -90.1387
 -88.1847
 -86.0289
 -86.0289
 -86.0289
 -86.0289
 -86.0289
 -86.0289
 -86.0289
 -86.0289
 -86.0289
 -86.0289
 -86.0289
 -86.0289
 -86.0298
 -86.0288
 -86.0285
 -86.0287
 -86.0289
 -86.0289
 -86.0289
 -86.0289
 -86.0289
 -86.0288
 -86.0288
 -86.0289
 -86.0289
 -86.0289
 -86.0289
 -86.0289
 -86.0289
 -86.0289
 -86.0289
 -86.0289
 -86.0287
 -86.0289
 -86.0285
 -86.0286
 -86.0289
 -86.0289
 -86.0289
 -86.0289
 -86.0289
 -86.0289
 -86.0289
 -86.0289
 -86.0289
 -86.0289
 -86.0289
 -86.0289
 23.5927
 24.1049
 25.0947
 24.5353
 -86.0289
 -86.0289
 -86.0289
 -86.0289
 -86.0289
 -86.0289
 -86.0289
 -86.0289
 -86.0306
 -86.0284
 -86.0311
 -86.0206
 -86.0289
 -86.0289
 -86.0289
 -86.0289
 -86.0289
 -86.0289
 -86.0289
 -86.0289
 -86.0289
 -86.0289
 -86.0289
 -86.0289
 -86.0289
 -86.0289
 -86.0289
 -86.0289
 28.5904
 25.5828
 29.0405
 25.4129
 -86.0289
 -86.0289
 -86.0289
 -86.0289
 -86.0187
 -86.0189
 -86.0379
 -86.0154
 -86.0289
 -86.0289
 -86.0289
 -86.0289
 -86.0289
 -86.0289
 -86.0289
 -86.0289
 22.9051
 22.8706
 22.7382
 23.7339
 -86.0289
 -86.0289
 -86.0289
 -86.0289
 -86.0289
 -86.0289
 -86.0289
 -86.0289
 18.6752
 10.9158
 -45.9734
 28.2933
 30.7247
 27.7558
 21.8696
 -86.0289
 -86.0289
 -86.0289
 -86.0289
 -86.0289
 -86.0288
 -86.0289
 -86.0289
 -86.0289
 -86.0289
 -86.0289
 -86.0289
 -86.0289
 -86.0289
 -86.0289
 -86.0289
 -86.0571
 -86.0942
 -86.0685
 -85.9728
 -86.0289
 -86.0289
 -86.0289
 -86.0289
 -86.0289
 -86.0289
 -86.0289
 -86.0289
 -85.9189
 -85.8629
 -86.4812
 -85.3081
 -86.0289
 -86.0289
 -86.0289
 -86.0289
 -86.0289
 -86.0289
 -86.0289
 -86.0289
 22.5452
 22.9414
 22.5932
 22.6489
 -86.0289
 -86.0289
 -86.0289
 -86.0289
 -86.0289
 -86.0289
 -86.0289
 -86.0289
 -86.0289
 -86.0289
 -86.0289
 -86.0289
 -86.0289
 -86.0289
 -86.0289
 -86.0289
 -86.0289
 -86.0289
 -86.0289
 -86.0289
 -85.8351
 -86.0959
 -86.1152
 -86.0629
 -84.8695
 -90.2349
 -88.6862
 -86.0289
 -86.0289
 -86.0289
 -86.0289
 -86.0289
 -86.0289
 -86.0289
 -86.0289
 -86.0289
 -86.0289
 -86.0289
 -86.0289
 -86.0289
 -86.0289
 -86.0289
 -86.0289
 22.6056
 22.3243
 22.4302
 22.3877
 -86.0289
 -86.0289
 -86.0289
 -86.0289
 -86.0289
 -86.0289
 -86.0289
 -86.0289
 -86.3875
 -86.4353
 -86.2215
 -86.0182
 -86.0289
 -86.0289
 -86.0289
 -86.0289
 -86.0289
 -86.0289
 -86.0289
 -86.0289
 -86.0289
 -86.0289
 -86.0289
 -86.0289
 -86.0289
 -86.0289
 -86.0289
 -86.0289
 -86.0289
 -86.0289
 -86.0289
 -86.0289
 -86.0289
 21.9963
 23.0256
 17.6312
 0.363632
 24.3446
 24.9286
 23.7689
 26.3199
 -86.0289
 -86.0289
 -86.0289
 -86.0289
 -86.0289
 -86.0289
 -86.0289
 -86.0289
 -86.0289
 -86.0289
 -86.0289
 -86.0289
 -86.0289
 -86.0289
 -86.0289
 -86.0289
 -86.0289
 -86.0289
 -86.0289
 -86.0289
 -86.0289
 -86.0289
 -86.0289
 -86.0289
 -86.0289
 -86.0289
 -86.0289
 -86.0289
 -3.6984
 -46.5483
 22.1452
 25.0598
 -86.0289
 -86.0289
 -86.0289
 -86.0289
 -58.8131
 -88.6265
 -86.9622
 -47.849
 26.2044
 26.6448
 26.3981
 24.1999
 29.0281
 29.086
 27.9778
 28.2834
 -86.0289
 -86.0289
 -86.0247
 -86.0253
 -86.0305
 -86.0309
 -86.0289
 -86.0289
 -86.0289
 -86.0289
 -85.6748
 -88.152
 -86.138
 -86.6516
 -42.272
 -87.6964
 10.9929
 -83.8003
 -86.0289
 -86.0289
 -86.0289
 -86.0289
 -86.0289
 -86.0289
 -86.0289
 -86.0289
 -86.0289
 -86.0289
 -86.0289
 -86.0289
 -86.0289
 -86.0289
 -86.0289
 -86.0289
 -86.0289
 -86.0289
 -86.0289
 -86.0289
 26.1305
 27.9491
 23.643
 27.1122
 -86.0289
 -86.0289
 -86.0289
 -86.0289
 -86.0289
 -86.0289
 -86.0289
 -86.0289
 -86.0289
 -86.0289
 -86.0289
 -86.0289
 -86.0289
 -86.0289
 -86.0289
 -86.0289
 -86.0289
 -86.0289
 -86.0289
 -86.0289
 -86.0377
 -86.0306
 -86.0596
 -86.0189
 -86.0289
 -86.0289
 -86.0289
 -86.0289
 26.1181
 25.6757
 11.1165
 -86.0289
 -86.0289
 -86.0289
 -86.0289
 -86.0289
 -86.0289
 -86.0289
 -86.0289
 22.5447
 22.6357
 22.7135
 22.6421
 -86.0289
 -86.0289
 -86.0289
 -86.0289
 -86.0956
 -86.0033
 -86.0066
 -86.0274
 -86.0289
 -86.0289
 -86.0289
 -86.0289
 -86.0289
 -86.0289
 -86.0289
 -86.0289
 -86.0289
 -86.0289
 -86.0289
 -86.0289
 27.1792
 25.9493
 23.6881
 24.202
 -86.0289
 -86.0289
 -86.0289
 -86.0289
 22.5261
 22.4586
 22.6208
 22.4651
 -86.0271
 -86.0291
 -86.0291
 -86.0283
 -86.0289
 -86.0289
 -86.0289
 -86.0289
 -86.0289
 -86.0289
 -86.0289
 -86.0289
 -86.0289
 -86.0289
 -86.0289
 -86.0289
 -86.0289
 -86.0289
 -86.0289
 -86.0289
 -86.03
 -86.0506
 -86.0327
 -86.0254
 -86.0289
 -86.0289
 -86.0289
 -86.0289
 -86.0289
 -86.0289
 -86.0289
 -86.0289
 22.7831
 23.2501
 23.3371
 23.0052
 -84.9482
 -90.3333
 -86.4299
 -86.2952
 -86.9257
 -86.3001
 -87.4644
 -86.2163
 -85.9356
 -85.9883
 -86.036
 -86.3007
 -89.1367
 -78.6119
 -89.2757
 -87.2792
 -86.0289
 -86.0289
 -86.0289
 -86.0289
 -86.0289
 -86.0289
 -86.0289
 -86.0289
 -86.0289
 -86.029
 -86.0288
 -86.0289
 -86.0288
 -86.0289
 -86.0289
 -86.0289
 -86.0289
 -86.0289
 -86.0289
 -86.0289
 -86.0289
 -65.5124
 -79.4151
 -88.909
 -92.1061
 -86.2032
 -85.7271
 -84.8187
 -85.4832
 -86.0289
 -86.0289
 -86.0289
 -86.0289
 -86.0289
 -86.0289
 -86.0289
 -86.0289
 -86.0289
 -86.0289
 -86.0289
 -86.0289
 -86.0289
 -86.0289
 -86.0292
 -86.0283
 -86.0287
 -86.0289
 22.9953
 22.8115
 23.1983
 22.831
 -86.0289
 -86.0289
 -86.0289
 -86.0289
 27.0836
 24.9521
 22.3435
 16.1757
 -86.0289
 -86.0289
 -86.0289
 -86.0289
 -86.0289
 -86.0288
 -86.0289
 -86.0289
 -86.0289
 -86.0289
 -86.0289
 -86.0289
 -86.0289
 -86.0289
 -86.0289
 -86.0289
 -86.0292
 -86.0297
 -86.0286
 -86.029
 -86.0289
 -86.0289
 -86.0289
 -86.0289
 -86.0289
 -86.0289
 -86.0289
 -86.0289
 -86.0289
 -86.0289
 -86.0289
 -86.0289
 -86.0289
 -86.0289
 -86.0289
 -86.0289
 -86.0289
 -86.0289
 -86.0289
 -86.0289
 -86.0289
 -86.0289
 -86.0289
 -86.0289
 -86.0289
 -86.0289
 -86.0289
 -86.0289
 -86.0278
 -86.0291
 -86.0277
 -86.0285
 29.384
 13.8996
 25.7098
 25.8795
 24.6779
 27.0168
 25.7768
 25.084
 25.4447
 25.2034
 26.4643
 22.5227
 22.795
 22.743
 22.8286
 -91.5959
 -85.6929
 -85.1041
 -89.604
 -86.0289
 -86.0289
 -86.0289
 -86.0289
 22.724
 22.6638
 24.9654
 22.6961
 -86.0289
 -86.0289
 -86.0289
 -86.0289
 -86.0289
 -86.0289
 -86.0289
 -48.0715
 33.2581
 18.6541
 16.3782
 19.0589
 -67.744
 -39.3743
 -86.0289
 -86.0289
 -86.0289
 -86.0289
 -86.0289
 -86.0289
 -86.0289
 -86.0289
 -86.0282
 -86.0292
 -86.0293
 -86.029
 24.1832
 24.3479
 24.2313
 24.9898
 -86.0289
 -86.0289
 -86.0289
 -86.0289
 -86.0289
 -86.0289
 -86.0289
 -86.0289
 -86.0289
 -86.0289
 -86.0289
 -86.0289
 -86.0285
 -86.0289
 -86.0288
 -86.0285
 -86.0289
 -86.0289
 -86.0289
 -86.0289
 -86.0289
 -86.0289
 -86.0289
 -86.0289
 -86.0289
 -86.0289
 -86.0289
 -86.0289
 22.2419
 22.1242
 22.331
 22.3697
 -86.0289
 -86.0289
 -86.0289
 -86.0289
 -86.0289
 -86.0289
 -86.0289
 -86.0289
 -86.0291
 -86.0289
 -86.0287
 -86.029
 -86.0289
 -86.0289
 -86.0289
 -86.0289
 -86.0289
 -86.0289
 -86.0289
 -86.0289
 -86.0289
 -86.0289
 -86.0289
 -86.0289
 -86.0289
 -86.0289
 -86.0289
 -86.0289
 -86.0289
 -86.0289
 -86.0289
 -86.0288
 -86.0289
 -86.0289
 -86.0289
 -19.8424
 21.9677
 17.5337
 29.6575
 -86.0261
 -86.0495
 -86.0319
 -86.0236
 -86.0289
 -86.0289
 -86.0289
 -86.0289
 -86.0289
 -86.0289
 -86.0289
 -86.0289
 -86.0289
 -86.0289
 -86.0289
 -86.0289
 25.8123
 20.8206
 28.9956
 29.0948
 -86.0289
 -86.0289
 -86.0289
 -86.0289
 -86.0289
 -86.0289
 -86.0289
 -86.0289
 -86.0289
 -86.0289
 -86.0289
 -86.0289
 -86.0289
 -86.0289
 -86.0289
 -86.0289
 -86.0289
 -86.0289
 -86.0289
 -86.0289
 -86.0289
 -86.0289
 -86.0289
 -86.0289
 -86.0289
 -86.0289
 -86.0289
 24.9939
 23.7483
 24.5406
 24.0535
 24.5962
 23.3347
 27.4061
 -86.0289
 -86.0289
 -86.0289
 -86.0289
 -86.0289
 -86.0289
 -86.0289
 -86.0289
 22.4575
 22.6471
 -86.0289
 -86.0289
 -86.0289
 -86.0289
 -86.0289
 -86.0289
 -86.0289
 -86.0289
 -86.0288
 -86.0288
 -86.0289
 -86.0289
 -86.0289
 -86.0289
 25.7533
 23.8563
 26.044
 23.2866
 22.4898
 22.7824
 22.739
 22.7168
 -86.0289
 -86.0289
 -86.0289
 -86.0289
 -86.0289
 -86.0289
 -86.0289
 -86.0289
 -86.0289
 -86.0289
 -85.5891
 -85.9834
 -85.71
 -86.0411
 -86.0289
 -86.0289
 -86.0289
 -86.0289
 -86.0289
 -86.0289
 -86.0289
 -86.0289
 -86.0185
 -86.0186
 -86.0151
 -86.0809
 -86.0289
 -86.0289
 -86.0289
 -86.0289
 -86.0289
 -86.0295
 -86.0326
 -86.03
 -86.158
 -86.0814
 -86.0184
 -86.1928
 -86.0289
 -86.0289
 -86.0289
 -86.0289
 -30.8461
 18.875
 13.0692
 -55.3133
 -86.0289
 -86.0289
 -86.0289
 -86.0289
 28.4281
 24.8045
 25.5291
 20.0308
 -76.4201
 -89.2301
 -86.0289
 -86.0289
 -86.0289
 -86.0289
 -86.0289
 -86.0289
 -86.0289
 -86.0289
 -88.4211
 27.295
 19.716
 -19.4482
 -86.0289
 -86.0289
 -86.0289
 -86.0289
 22.4557
 22.4328
 22.3508
 -86.0289
 -86.0289
 -86.0289
 -86.0289
 -86.0289
 -86.0289
 22.9618
 23.2571
 25.9757
 24.9819
 -86.0289
 -86.0289
 -86.0289
 -86.0289
 -61.7444
 -59.4835
 -86.0289
 -86.0289
 -86.0289
 -86.0289
 -86.0289
 -86.0289
 -86.0289
 -86.0289
 -86.0289
 -86.0289
 -86.0289
 -86.0289
 -86.0289
 -86.0289
 -86.0289
 -86.0289
 -86.0289
 -86.0289
 22.5631
 22.3961
 22.5502
 22.6627
 -86.0289
 -86.0289
 -86.0289
 -86.2241
 -86.0289
 -86.0289
 -86.0289
 -86.0289
 -55.5894
 9.00766
 20.4752
 -79.7989
 -86.0289
 -86.0289
 -86.0289
 -86.0289
 -86.0266
 -86.0281
 -86.0311
 -86.029
 -86.0289
 -86.0289
 -86.0289
 -86.0289
 -86.0294
 -86.0289
 -86.0289
 -86.0289
 -86.0289
 -86.0288
 -86.0285
 -86.0287
 -86.0289
 -85.037
 -84.9314
 -55.9705
 -89.1479
 -89.3592
 -84.818
 -90.334
 19.34
 26.8703
 16.101
 27.9019
 -86.0289
 -86.0289
 -86.0289
 -86.0289
 23.7057
 27.294
 29.6603
 25.6074
 -86.0289
 -86.0289
 -86.0289
 -86.0289
 19.4575
 28.2695
 26.3378
 29.9553
 -86.0289
 -86.0289
 -86.0289
 -86.0289
 -86.0219
 -86.0535
 -85.9498
 -85.9355
 -86.0289
 -86.0289
 -86.0289
 -86.0289
 24.3642
 25.3132
 -86.0289
 -86.0289
 -86.0289
 -86.0289
 -86.0289
 -86.0289
 -86.0289
 -86.0289
 -86.0289
 -86.0289
 -86.0289
 -86.0289
 -86.0289
 -86.0289
 -86.0289
 -86.0289
 -85.9889
 -86.038
 -86.0478
 -85.1909
 -86.0097
 -86.04
 -85.7593
 -86.1168
 17.059
 -1.8727
 13.5146
 -69.1985
 -85.7637
 -88.8233
 -86.3572
 -84.8405
 -86.0289
 -86.0289
 -86.0289
 -86.0289
 -86.0289
 -86.0289
 -86.0289
 -86.0289
 22.6753
 22.584
 22.6073
 22.6507
 -86.0289
 -86.0288
 -86.0288
 -86.0288
 -86.0289
 -86.0289
 -86.0289
 -86.0289
 -86.0289
 -86.0289
 -86.0289
 -86.0289
 -0.398359
 28.2498
 -41.137
 28.5768
 -86.0289
 -86.0289
 -86.0289
 -86.0289
 -86.0289
 -86.0289
 -86.0289
 -86.0289
 -86.0289
 -86.0289
 -86.0289
 -86.0289
 -86.029
 -86.0288
 -86.0288
 -86.0287
 26.201
 25.2367
 25.8648
 25.4269
 -86.0289
 -86.0289
 -86.0289
 -86.0289
 -86.0289
 -86.0289
 -86.0289
 -86.0289
 -86.0289
 -86.0289
 -86.0289
 -86.0289
 25.1339
 -86.029
 -86.0278
 -86.0289
 -86.0273
 -86.0289
 -86.0289
 -86.0289
 -86.0289
 -86.0037
 -85.9962
 -85.8973
 -85.7952
 -86.0289
 -86.0289
 -86.0289
 -86.0289
 -86.0289
 -86.0289
 -86.0289
 -86.0289
 -86.0289
 -86.0289
 -86.0289
 -89.3731
 -85.8791
 -87.1308
 -87.3277
 -86.0289
 -86.0289
 -86.0289
 -86.0289
 23.9053
 23.7398
 23.8953
 24.1689
 -86.0289
 -86.0289
 -86.0289
 -86.0289
 -86.0289
 -86.0289
 -86.0289
 -86.0289
 -86.0289
 -86.0289
 -86.0289
 -86.0289
 22.5322
 22.3295
 22.3092
 22.38
 24.2354
 24.4886
 23.7484
 23.4618
 -86.0289
 -86.0289
 -86.0289
 -86.0289
 -86.0289
 -86.0289
 -86.0289
 -86.0289
 -86.0289
 -86.0289
 -86.0289
 -86.0289
 -86.0292
 -86.0275
 -86.0311
 -86.0289
 -86.0289
 -86.0289
 -86.0289
 -86.0289
 -86.0289
 -86.0289
 -86.0289
 22.6049
 22.4398
 22.4354
 22.412
 -86.0289
 -86.0289
 -86.0289
 -86.0289
 -86.0289
 -86.0289
 -86.0289
 -86.0245
 -86.0288
 -86.031
 -86.0296
 -87.4814
 -79.5583
 -88.5336
 -92.6115
 -86.0289
 -86.0289
 -86.0289
 -86.0289
 -86.0289
 -86.0289
 -86.0289
 27.5677
 23.1759
 28.9267
 19.0221
 -86.0289
 -86.0289
 -86.0289
 -86.0289
 -86.0289
 -86.0289
 -86.0289
 -86.0289
 -86.0289
 -86.0289
 -86.0289
 -86.0289
 -90.2749
 -90.967
 -85.6516
 -89.6172
 -86.0289
 -86.0289
 -86.0289
 -86.0289
 -86.0289
 -86.0289
 -86.0289
 -86.0289
 -86.0289
 -86.0289
 -86.0289
 24.7815
 24.7885
 25.8098
 25.1328
 -86.0289
 -86.0289
 -86.0289
 -86.0289
 22.8593
 22.4528
 23.2322
 -86.0289
 -86.0289
 -86.0289
 -86.0289
 -86.0289
 -86.0289
 -86.0289
 -86.0289
 -86.0287
 -86.0287
 -86.0288
 -86.0291
 -86.0289
 -86.0289
 -86.0289
 -86.0289
 -86.0289
 -86.0289
 -86.0289
 -86.0289
 -86.0289
 -86.0289
 -86.0289
 -86.0289
 -86.0289
 -86.0289
 -86.0289
 -86.0289
 -86.0289
 -86.0289
 -86.0289
 -86.0289
 -86.0289
 -86.0289
 -86.0289
 -86.0289
 -86.0289
 -86.0289
 -86.0289
 25.5601
 27.7608
 27.8341
 24.431
 -86.0289
 -86.0289
 -86.0289
 -86.0289
 -86.0288
 -86.029
 -86.0291
 -86.0287
 22.3937
 22.4898
 22.451
 22.3329
 22.3511
 22.4227
 22.3057
 22.3126
 -86.7699
 -85.6281
 -88.6472
 -85.3917
 22.5364
 22.9457
 22.9026
 22.55
 29.3808
 27.1334
 27.8815
 22.7439
 22.4211
 22.4962
 22.5782
 -86.0289
 -86.0289
 -86.0289
 -86.0289
 -86.0289
 -86.0289
 -86.0289
 -86.0289
 -86.0289
 -86.0289
 -86.0289
 -86.0289
 -86.0289
 -86.0289
 -86.0289
 -86.0289
 23.9228
 23.8171
 23.8235
 23.8212
 -86.0289
 -86.0289
 -86.0289
 -86.0289
 -86.0289
 -86.0289
 -86.0289
 -86.0289
 -86.029
 -86.0292
 -86.0301
 -86.0288
 -86.0289
 -86.0289
 -86.0289
 -86.0289
 -85.9242
 -86.0414
 -86.0474
 -86.0289
 -86.0289
 -86.0289
 28.0839
 6.93295
 13.9859
 24.1834
 -86.0289
 -86.0289
 -86.0289
 -86.0289
 -86.0289
 -86.0289
 -86.0289
 -86.0289
 -86.0289
 -86.0289
 -86.0289
 -86.0289
 22.7089
 22.7652
 22.8345
 23.0706
 23.4539
 22.7522
 -86.0289
 -86.0289
 -86.0289
 -86.0289
 -86.0289
 -86.0285
 -86.0278
 -86.0275
 -86.0289
 -86.0289
 -86.0289
 -86.0289
 -86.0289
 -86.0289
 -86.0289
 -86.0289
 -86.0289
 -86.0289
 -86.0289
 -86.0289
 -86.0287
 -86.0287
 -86.029
 -86.0289
 -86.0289
 -86.0289
 -86.0289
 22.1164
 22.4951
 22.2092
 22.5835
 -86.0289
 -86.0289
 -86.0289
 -86.0289
 -86.0289
 -86.0289
 -86.0289
 -86.0288
 -86.0289
 -86.0289
 -86.0289
 -86.0289
 -86.0289
 -86.0289
 -86.0289
 -86.0289
 -86.0289
 -86.0289
 -86.0289
 -86.0289
 -86.0289
 -86.0289
 -86.0289
 -86.0289
 -86.0289
 -86.0289
 -86.0289
 -86.0289
 -86.0289
 -86.0289
 -85.8626
 -85.9242
 -85.8276
 -86.3796
 -85.5847
 -90.5757
 -85.3049
 -87.4927
 -86.0291
 -86.0303
 -86.0253
 -86.0472
 22.8687
 28.4538
 24.8005
 24.5717
 -87.5592
 -86.3542
 -85.9399
 -86.0289
 -86.0289
 -86.0289
 -86.0289
 -85.8968
 -86.0964
 -86.0246
 -86.0299
 -86.0297
 -86.0293
 -86.0073
 -86.0259
 -86.0304
 -86.0443
 -86.0289
 -86.0289
 -86.0289
 -86.0289
 -86.0289
 -86.0289
 -86.0289
 -86.0289
 -86.0289
 -86.0289
 -86.0289
 -86.0289
 -86.0289
 -86.0289
 -86.0289
 -86.0289
 -86.0289
 -86.0289
 -86.0289
 -86.0289
 -86.0289
 -86.0289
 -86.0289
 -86.0289
 -86.0289
 -86.0289
 -86.0289
 -86.0289
 -86.0289
 -86.0289
 -86.0289
 -75.0882
 -87.8071
 -86.3623
 -86.8648
 -86.0289
 -86.0289
 -86.0289
 -86.0289
 24.7537
 24.6366
 24.6244
 28.388
 -86.0289
 -86.0289
 -86.0289
 -86.0289
 22.9298
 22.5387
 23.3567
 -86.0289
 -86.0289
 -86.0289
 -86.0289
 -86.0409
 -86.0499
 -86.0313
 -86.0379
 -86.0289
 -86.0289
 -86.0289
 -86.0289
 -86.0289
 -86.0289
 -86.0289
 -86.0289
 -86.0289
 -86.0289
 -86.0289
 -86.0289
 -86.0289
 28.1472
 26.2256
 25.8901
 30.42
 24.0872
 24.6145
 28.7547
 28.8831
 -86.0289
 -86.0289
 -86.0289
 -86.0289
 -86.0289
 -86.0289
 -86.0289
 -86.0289
 -86.0289
 -86.0289
 -85.8478
 -85.5988
 -86.2501
 -88.6729
 -86.0289
 -86.0289
 -86.0289
 -86.0289
 -86.0289
 -86.0289
 -86.0289
 -86.0289
 -86.0289
 -86.0289
 -86.0289
 -86.0289
 -86.0289
 -86.0289
 -86.0289
 -86.0289
 -86.0809
 -86.0878
 -86.0666
 -86.0106
 -85.3602
 -86.2123
 -85.3154
 -85.3501
 -86.0289
 -86.0289
 -86.0289
 -86.0289
 -86.0289
 -86.0289
 -86.0289
 -86.0289
 -86.0289
 -86.0289
 -86.0289
 -86.0289
 -86.0289
 -86.0289
 25.1495
 24.4951
 24.7755
 23.7722
 -86.0289
 -86.0289
 -86.0289
 -86.0289
 -86.0289
 -86.0298
 -86.031
 -86.0278
 -86.029
 -88.9155
 -86.405
 -86.3114
 -89.5576
 -85.5953
 -84.3741
 -86.0289
 -86.0289
 -86.0289
 -86.0289
 -86.0289
 -86.0289
 -86.0289
 -86.0289
 -86.0289
 -86.0289
 -86.0289
 -86.0289
 -86.0289
 -86.0289
 -86.0289
 -86.0289
 -86.0289
 -86.0289
 -86.0289
 -86.0289
 -86.0289
 24.6635
 27.034
 23.4799
 23.1151
 22.5733
 22.9544
 -86.0289
 -86.0289
 -86.0289
 -86.0289
 -87.3833
 -86.8397
 -85.688
 -88.2872
 -86.0289
 -86.0289
 -86.0289
 -86.0288
 -86.0289
 -86.0289
 -86.0289
 -86.0289
 -86.0289
 -86.0289
 -86.0289
 -86.0289
 -86.0289
 -86.0289
 -86.0289
 -86.0289
 -86.0289
 -86.0289
 -86.0289
 -86.0289
 22.7239
 22.7521
 22.8688
 22.8185
 -86.0289
 -86.0289
 -86.0289
 -86.0289
 -86.0289
 -86.0289
 -86.0289
 22.767
 22.4529
 22.6272
 22.6408
 -86.0289
 -86.0289
 -86.0289
 -86.0289
 -86.0289
 -86.0289
 -85.0624
 -89.9525
 -68.8469
 -87.2331
 -86.0289
 -86.0289
 -86.0289
 -86.0289
 23.3724
 24.3178
 22.4901
 23.0068
 -86.0289
 -86.0289
 -86.0289
 -86.0289
 -86.0289
 -86.0289
 -86.0289
 -86.0289
 -86.0289
 -86.0289
 -41.6226
 -27.2665
 -88.3343
 -75.5045
 -85.7034
 -85.2216
 -89.2505
 -85.4809
 -86.1663
 -86.0189
 -85.7025
 -85.9749
 -86.0289
 -86.0289
 -86.0289
 -86.0289
 -86.0289
 -86.0289
 -86.0289
 -86.0289
 22.6232
 22.798
 22.5094
 22.6516
 -86.0289
 -86.0289
 -86.0289
 -86.0289
 -86.0289
 -86.0289
 -86.0289
 -86.0289
 -86.0289
 -86.0289
 -86.0289
 -86.0289
 -86.0289
 -86.0289
 -86.0289
 -86.0289
 -86.0288
 -86.0289
 -86.0288
 -86.0289
 -86.0289
 -86.0289
 -86.0289
 -86.1811
 -86.0614
 -85.9834
 -86.0749
 -86.074
 -86.0513
 -86.0539
 -86.0219
 -86.0289
 -86.0289
 -86.0289
 -86.0289
 -86.0289
 -86.0289
 -86.0289
 -86.0289
 -86.0289
 -86.0289
 -86.0289
 -88.8515
 -60.0771
 -78.2537
 -52.3689
 -86.0289
 -86.0289
 -86.0289
 -86.0289
 -86.0289
 -86.0289
 -86.0289
 -86.0289
 -86.0289
 -86.0289
 -86.0289
 -86.0289
 -86.0289
 -86.0289
 24.7144
 24.7004
 24.3364
 25.05
 -86.0289
 -86.0289
 -86.0289
 -86.0289
 -86.0328
 -86.041
 -86.0289
 -86.0289
 -86.0289
 -86.0289
 -86.0419
 -86.0514
 -86.1358
 -86.0898
 -86.0289
 -86.0289
 -86.0289
 -86.0289
 -86.0289
 -86.0289
 -86.0289
 -86.0289
 -86.0292
 -86.0247
 -86.0281
 -86.029
 -86.0289
 -86.0289
 -86.0289
 -86.0289
 -86.0289
 -86.0289
 -86.0289
 -86.0289
 -56.1428
 -39.8012
 12.6322
 24.8771
 -86.0289
 -86.0289
 -86.0289
 -86.0289
 -86.0289
 -86.0289
 15.1459
 23.1803
 20.2778
 27.2408
 19.5186
 23.5251
 0.4276
 16.1121
 -86.0289
 -86.0289
 -86.0289
 -86.0289
 24.8439
 24.1506
 24.3754
 24.1105
 22.5147
 22.2436
 22.5207
 22.2742
 -86.0289
 -86.0289
 -86.0289
 -86.0289
 -85.488
 -70.5974
 -50.2139
 -54.0811
 24.3079
 24.7208
 23.8936
 24.6174
 -85.7642
 -85.1566
 -85.8835
 -86.2975
 -86.0289
 -86.0289
 -86.0289
 -86.0289
 -63.5189
 4.10776
 -58.6382
 -76.2508
 -86.0258
 -86.0263
 -86.0371
 -86.0288
 -86.0289
 -86.0289
 -86.0289
 -86.0289
 -86.0289
 -86.0289
 -86.0289
 -86.0289
 -86.0289
 -86.0289
 -86.0289
 -86.0289
 -86.0289
 -86.0289
 -86.0289
 -86.0289
 -86.0289
 -86.0289
 -86.0289
 -86.0289
 -86.0289
 -86.0289
 -86.0289
 -86.0289
 -86.0289
 -86.0289
 -86.0289
 -86.0288
 -86.0289
 -86.0289
 -86.0289
 -86.0289
 -86.0289
 -86.0289
 -86.0289
 22.4103
 22.4118
 22.4065
 22.4413
 -86.0289
 -86.0289
 -86.0289
 -86.0289
 24.4096
 21.5833
 7.76214
 16.8452
 -86.0289
 -86.0289
 -86.0289
 -86.0289
 28.8949
 24.3293
 24.8945
 25.4602
 -86.0289
 -86.0289
 -86.0289
 -86.0289
 -86.0289
 -86.0289
 -86.0289
 -86.0289
 23.2104
 22.8632
 22.9671
 22.5765
 -86.0289
 -86.0289
 -86.0289
 -86.0289
 -86.0289
 -86.0289
 -86.0289
 -86.0289
 22.5112
 22.4065
 22.7159
 22.4072
 -86.0289
 -86.0289
 -86.0289
 -86.0289
 -92.559
 -54.3123
 -69.3537
 -93.4753
 -67.5317
 -86.1466
 -81.7549
 -86.0289
 -86.0289
 -86.0289
 -86.0289
 -92.5966
 -58.9617
 -84.7478
 -77.8159
 -86.0289
 -86.0289
 -86.0289
 -86.0289
 4.86088
 22.4688
 25.3061
 11.4605
 -45.6939
 -80.1267
 17.768
 -69.2003
 -86.0289
 -86.0289
 -86.0289
 -86.0289
 -86.0289
 -86.0289
 -86.0289
 -86.0289
 -86.0289
 -86.0289
 -86.0289
 -86.0289
 -86.3192
 -86.0192
 -85.9801
 -86.0289
 -86.0289
 -86.0289
 -86.0289
 24.0497
 25.2767
 25.3722
 24.8025
 -86.0289
 -8.87564
 -77.0448
 -36.6894
 15.6987
 -48.2105
 -63.2473
 -87.338
 -86.0289
 -86.0289
 -86.0289
 -86.0289
 -86.0289
 -86.0289
 -86.0289
 -86.0289
 23.818
 23.3328
 22.8111
 23.2917
 -86.0289
 -86.0289
 -86.0289
 -86.0289
 -86.0254
 -86.0232
 -86.0581
 -86.0289
 -86.0289
 -86.0289
 -86.0289
 -86.0289
 -86.0289
 -86.0289
 19.1822
 -9.24809
 23.5652
 -86.0289
 -86.0289
 -86.0289
 -86.0289
 -86.0289
 -86.0289
 -86.0289
 -86.0289
 -86.0289
 -86.0289
 -86.0289
 -86.0289
 -86.0177
 -86.014
 -86.0061
 -86.0289
 -86.0289
 -86.0289
 -86.0289
 -86.0289
 -86.0289
 -86.0289
 -86.0289
 -86.0289
 -86.0289
 -86.0289
 -86.0289
 -86.0289
 -86.0289
 -86.0289
 -86.0289
 -86.0289
 -86.0289
 -86.0289
 29.2937
 33.7967
 25.5159
 19.4187
 -86.0289
 -86.0289
 -86.0289
 -86.0289
 -86.0289
 -86.0289
 -86.0289
 -86.0289
 -86.0289
 -86.0289
 22.8261
 29.6183
 26.993
 28.2016
 29.8565
 -86.0289
 -86.0289
 -86.0289
 -86.0289
 -87.0204
 -84.7951
 -88.324
 22.3255
 22.3899
 22.3845
 22.2768
 -85.9958
 -86.0315
 -86.052
 -86.0547
 -86.0289
 -86.0289
 -86.0289
 -86.0289
 -86.0289
 -86.0289
 -86.0289
 -86.0289
 22.3397
 22.4345
 22.3946
 22.3763
 -86.2108
 -86.0435
 -86.0025
 -86.0657
 -86.0289
 -86.0289
 -86.0289
 -86.0289
 -86.0289
 -86.0289
 -86.0289
 -86.0289
 -86.0289
 -86.0289
 -86.0289
 -86.0289
 -86.0289
 -86.0289
 -86.0289
 -86.0289
 -86.0289
 -86.0289
 -86.0289
 -86.0289
 -88.3835
 -84.0232
 -88.6965
 -91.665
 -86.0291
 -86.0292
 -86.0307
 -86.0293
 -86.0289
 -86.0289
 -86.0289
 -86.0289
 -86.0681
 -86.1639
 -86.1659
 -86.1543
 -86.0289
 -86.0288
 -86.0289
 -86.0289
 -86.0265
 -85.7065
 -86.0759
 -85.7232
 23.3271
 22.7455
 23.059
 23.73
 -91.9389
 -88.6063
 -88.6848
 -85.2752
 -86.0274
 -86.0303
 -86.0308
 -86.0338
 -86.0288
 -86.0289
 -86.0289
 -86.0289
 -86.0289
 23.6708
 24.0665
 24.1976
 24.5697
 -86.0289
 -86.0289
 -86.0289
 -86.0289
 -86.0288
 -86.0288
 -86.0289
 -86.0289
 -86.0289
 -86.0289
 -86.0289
 -86.0289
 -86.0289
 -86.0289
 -86.0289
 -86.0289
 -86.0289
 -86.0289
 -86.0289
 -86.0289
 24.2419
 23.4579
 -86.029
 -86.0287
 -86.0289
 -86.0289
 -86.0289
 -86.0289
 -86.0289
 -86.0289
 -86.0289
 -86.0289
 -86.0289
 -86.0289
 -86.0289
 -86.0289
 -86.0289
 -86.0289
 -86.0289
 -86.0289
 22.9891
 23.4926
 23.7095
 23.5373
 -86.0289
 -86.0289
 -86.0289
 -86.0289
 -86.0792
 -85.8844
 -85.9455
 -85.4006
 -86.0289
 -86.0288
 -86.0289
 -86.0289
 -86.0152
 -86.0772
 -86.012
 -86.0505
 -86.0289
 -86.0289
 -63.2707
 -86.9177
 -73.1335
 -90.4039
 -85.7618
 -85.9943
 -86.0019
 -86.5743
 -86.0289
 -86.0289
 -86.0289
 -86.0289
 -86.0289
 -86.0289
 -86.0289
 -86.0289
 -86.0289
 -86.0289
 -86.0289
 -86.0289
 -86.0289
 -86.0289
 -86.0289
 -86.0289
 -86.0289
 -86.0289
 -86.0289
 -86.0289
 -86.0214
 -86.0277
 -86.0294
 -86.0286
 23.0322
 22.9458
 23.2127
 22.9068
 17.2263
 -50.3419
 -65.7329
 -79.4362
 23.4886
 23.7694
 23.2308
 23.994
 26.8023
 27.2348
 27.1993
 26.8663
 -86.0289
 -86.0289
 -86.0289
 -86.0289
 -86.0365
 -86.0305
 -86.0289
 -86.0289
 -86.0289
 -86.0289
 -86.0289
 -86.0289
 -86.0289
 -86.0289
 -86.1112
 -90.219
 -86.5299
 -90.5166
 -86.0289
 -86.0289
 -86.0289
 -86.0289
 -86.0289
 -86.0289
 -86.0289
 -86.0289
 -86.0289
 -86.0289
 -86.0289
 -86.0289
 -86.0289
 -86.0289
 -86.0289
 -86.0289
 -86.0289
 -86.0289
 -86.0289
 -86.0289
 -86.0289
 -86.0289
 -86.0289
 -86.0289
 -86.2133
 -86.0858
 -86.0426
 -85.7946
 -86.0262
 -86.0228
 -86.0289
 -86.0289
 -86.0289
 -86.0289
 -86.0289
 -86.0289
 -86.0285
 -86.0289
 -86.0287
 -91.9531
 -74.775
 -86.0289
 -86.0289
 -86.0289
 -86.0289
 -86.0289
 -86.0289
 -86.0289
 -86.0289
 -86.0289
 -86.0289
 -86.0289
 -86.0289
 -86.0289
 -86.0289
 -86.0289
 -86.0289
 -86.0291
 -86.0288
 -86.0287
 -86.0287
 -86.0287
 -86.0287
 -86.0289
 -86.0288
 -86.0289
 -86.0289
 -86.0289
 -86.0289
 -86.0289
 -86.0289
 -86.0288
 -86.0289
 -86.0289
 -86.0289
 -86.0289
 -86.0289
 -86.0289
 -86.0288
 -86.0288
 -86.0289
 -86.0289
 -86.0289
 -86.0289
 -86.0289
 -86.0289
 -86.0289
 -86.0289
 -86.0289
 -86.0289
 -86.0289
 -86.0289
 -86.0289
 -86.0289
 -86.0289
 -86.0289
 23.4031
 23.7781
 23.2423
 22.7536
 -86.0289
 -86.0289
 -86.0289
 -86.0289
 -86.0289
 -86.0289
 -86.0289
 -86.0289
 -86.0289
 -86.0289
 -86.0289
 -86.0289
 -86.0289
 -86.0289
 -86.0289
 -86.0289
 -86.0289
 -86.0289
 -86.0289
 -86.0289
 -86.0289
 -86.0289
 -86.0289
 -86.0289
 24.3299
 32.965
 29.6682
 27.3916
 -86.0289
 -86.0289
 -86.0289
 -86.0289
 -85.6459
 -87.498
 -85.7495
 -85.6365
 -86.0289
 -86.0289
 -86.0289
 -86.0289
 22.6231
 22.7476
 22.597
 22.6035
 22.5997
 22.5978
 22.518
 -85.8444
 -86.05
 -86.0873
 -86.0458
 -86.0289
 -86.0289
 -86.0289
 -86.0289
 22.6515
 22.507
 22.6597
 -86.0289
 -86.0289
 -86.0289
 -86.0289
 27.2156
 28.3333
 -83.9365
 -76.0112
 -33.7345
 -92.2713
 -86.0289
 -86.0289
 -86.0289
 -86.0289
 -86.0289
 -86.0289
 -86.0289
 -86.0289
 -86.0289
 -86.0289
 -86.0289
 -86.0289
 -86.0289
 -86.0289
 22.6699
 23.1207
 22.9454
 -85.9665
 -86.0405
 -86.0326
 -86.0402
 22.6467
 22.5915
 23.0332
 22.5696
 -86.0289
 -86.0289
 -86.0289
 -86.0289
 26.0727
 26.1324
 24.2271
 26.507
 -86.0289
 -86.0289
 -86.0289
 -86.0289
 -86.0289
 -86.0289
 -86.0289
 22.5832
 22.4249
 22.5743
 23.0435
 -86.0301
 -86.0289
 -86.0289
 -86.0289
 -86.0289
 -86.0289
 -86.0289
 -86.0289
 -86.0289
 -86.0289
 -86.0289
 -86.0289
 -86.0289
 -86.0289
 -86.0289
 -86.0289
 -86.0289
 -86.0289
 -86.0289
 -86.0289
 -86.0289
 -86.0289
 -86.0338
 22.9763
 22.5867
 22.6112
 22.6993
 -86.0289
 -86.0289
 -86.0289
 -86.0289
 -86.0289
 -86.0289
 -86.0289
 -86.0289
 -86.0289
 -86.0289
 -86.0289
 -86.0289
 -86.0289
 -86.0289
 -85.5145
 -86.0764
 -86.069
 -85.9741
 -86.0312
 -86.6103
 -85.9808
 -86.1738
 -86.0289
 -86.0289
 -86.029
 -86.0289
 -86.0301
 -86.0286
 -86.0406
 -86.0374
 -86.034
 -86.0289
 -86.0289
 -86.0289
 -86.0289
 -86.0289
 -86.0289
 -86.0289
 -86.0289
 -85.5102
 -88.3212
 -86.202
 -85.4331
 -80.6572
 -93.5374
 -30.5299
 -94.7164
 -89.6171
 -70.5455
 -86.2706
 -86.0184
 -86.0858
 -85.9754
 -86.0234
 -86.0289
 -86.0289
 -86.0289
 -86.0289
 -86.0289
 -86.0289
 -86.0289
 -86.0289
 -86.0289
 -86.0289
 -86.0289
 -86.0289
 -61.4398
 -90.7664
 -88.9061
 -86.4666
 -86.0301
 -86.0275
 -86.0307
 -86.0358
 -86.0289
 -86.0289
 -86.0289
 -86.0289
 -86.0215
 -86.0328
 -86.0231
 -86.0193
 -86.0288
 -86.0288
 -86.0289
 -86.0287
 -86.0289
 -86.0289
 -86.0289
 -86.0289
 -86.0266
 -86.0313
 -86.0297
 28.9267
 28.8664
 27.8281
 32.9055
 -86.0289
 -86.0289
 -86.0289
 -86.0289
 -86.0289
 -86.0289
 -86.0289
 -86.0289
 -86.0289
 -86.0289
 -86.0289
 -86.0289
 -86.0289
 -86.0289
 -86.0289
 -86.0289
 -86.0289
 -86.0289
 -86.0289
 -86.0289
 -86.0289
 -86.0289
 -86.0289
 -86.0289
 -86.0289
 -86.0289
 -86.0289
 -86.0289
 -86.0289
 -86.0289
 -86.0289
 -86.0289
 -86.0289
 -86.0289
 -86.0289
 22.7824
 22.5455
 22.5661
 22.624
 -86.0289
 -86.0289
 -86.0289
 -86.0289
 -81.0035
 -85.6916
 -87.2071
 -86.7796
 -86.0292
 -86.0296
 -86.0291
 -86.0288
 -86.029
 -86.0243
 -86.0299
 -86.0297
 -86.0289
 -86.0289
 -86.0289
 -86.0289
 -86.0289
 -86.0289
 -86.0289
 -86.0289
 17.6819
 30.9696
 18.7925
 13.8018
 -86.0289
 -86.0288
 -86.0291
 -86.029
 -86.0289
 -86.0289
 -86.0289
 -86.0289
 22.6408
 24.2521
 26.9791
 25.0551
 -86.0289
 -86.0289
 -86.0289
 -86.0289
 -86.0289
 -86.0289
 -86.0289
 -86.0289
 -86.0289
 -86.0289
 -86.0289
 -86.0289
 -86.0289
 -86.0289
 -86.0289
 -86.0289
 -86.0289
 -86.0289
 -86.0296
 -86.0222
 -86.0275
 -86.0237
 -86.0289
 -86.0289
 -86.0289
 -86.0289
 24.4159
 24.2246
 24.3945
 24.5408
 -86.0289
 -86.0289
 -86.0289
 -86.0289
 -86.0289
 -86.0289
 -86.0289
 -86.0289
 -86.0289
 -86.0289
 -86.0289
 -86.0289
 -86.0289
 -86.0289
 -86.0289
 -86.0289
 -86.0289
 -86.0289
 -86.0289
 -86.0289
 -86.0289
 -86.0289
 -86.0289
 -86.0289
 -86.0289
 -86.0289
 -86.0289
 -86.0289
 -86.0289
 -86.0289
 -86.0289
 -86.0289
 -86.0289
 -86.0289
 -86.0289
 -86.0289
 -86.0289
 -86.0289
 -86.0289
 -86.0289
 -86.0289
 -86.0289
 -86.0289
 -86.0289
 -86.0288
 -86.0232
 -86.0284
 -86.0261
 -86.3471
 -85.9582
 -86.7603
 -87.2864
 22.573
 22.6008
 22.6357
 22.6842
 -86.0287
 -86.0289
 -86.0288
 -86.0288
 -86.0289
 -86.0289
 -86.0289
 -86.0289
 -86.0289
 -86.0289
 -86.0289
 -86.0289
 -86.0289
 -86.0289
 -86.0289
 -86.0289
 -86.0289
 -86.0289
 -86.0289
 -86.0289
 -86.0289
 -86.0289
 -86.0289
 22.7553
 22.5802
 23.7285
 23.4881
 24.4169
 24.587
 24.9838
 24.4133
 -86.0289
 -86.0289
 -86.0289
 -86.0289
 -86.0289
 -86.0289
 -86.0289
 -86.0289
 -86.0289
 -86.0288
 -86.0289
 -86.0289
 -86.0289
 -86.0289
 -86.0289
 -86.0289
 -86.0289
 24.0277
 24.2871
 23.7608
 -86.0289
 -86.0289
 -86.0289
 -86.0289
 24.7934
 27.4698
 22.914
 16.2988
 -86.0289
 -86.0289
 -86.0289
 -86.0289
 -85.9841
 -85.6963
 -85.3785
 -86.1096
 -86.0289
 -86.0289
 -86.0289
 -86.0289
 -86.0289
 -86.0289
 -86.0289
 -86.0289
 -86.0289
 -86.0289
 -86.0289
 -86.0289
 -86.0289
 -86.0289
 -86.0289
 -86.0289
 -86.0289
 -86.0289
 -86.0289
 -86.0289
 -86.0289
 -86.0289
 -86.0289
 -86.0289
 -86.0287
 -86.0288
 -86.0289
 -86.0289
 -86.0289
 -86.0289
 -86.0289
 -86.0289
 -86.0289
 -86.0289
 -86.0289
 -86.0289
 -86.0289
 -86.0289
 -86.0289
 -86.0289
 -86.0289
 -86.0289
 -86.0289
 -86.0289
 -86.0289
 -86.0289
 -86.0289
 25.7266
 24.3764
 27.3151
 22.5491
 22.6869
 22.767
 22.6453
 -89.1466
 -62.6346
 -88.3684
 -86.0353
 -86.0289
 -86.0294
 -86.0289
 -86.0112
 -86.0353
 -86.0289
 -86.0289
 -86.0289
 -86.0289
 -86.0289
 -86.0289
 -86.0289
 -86.0289
 -86.0289
 -86.0289
 -86.0289
 -86.0289
 -86.0289
 -86.0289
 -86.0289
 -86.0289
 -86.0289
 -86.0289
 -86.0289
 -86.0289
 -86.0289
 -86.0289
 -86.0289
 22.7694
 22.4772
 22.5336
 22.4337
 -86.0289
 -86.0289
 -86.0289
 -86.0289
 -86.0468
 -85.8368
 -86.0564
 -85.988
 -86.0289
 -86.0289
 -86.0289
 -86.0289
 -86.0289
 -86.0289
 -86.0289
 -86.0289
 -86.0289
 -86.0289
 -86.0289
 22.3855
 22.3211
 22.3332
 -86.0289
 -86.0289
 -86.0289
 -86.0289
 -86.0289
 -86.0289
 -86.0289
 -86.0289
 -86.0289
 -86.0289
 -86.0289
 -86.0289
 -86.0289
 -86.0289
 -86.0289
 -86.0289
 -86.0289
 -86.0289
 -86.0289
 -86.0289
 -86.0289
 -86.0289
 -86.0289
 22.4926
 23.4765
 23.5989
 25.371
 26.3562
 25.7698
 28.2269
 26.657
 -86.0289
 -86.0289
 -86.0289
 -86.0289
 25.0724
 27.5386
 27.5869
 24.8772
 23.391
 22.8521
 22.9127
 24.1981
 28.7112
 32.2689
 22.0215
 12.3567
 -86.0289
 -86.0285
 -86.0241
 -86.0264
 -86.0289
 -86.0289
 -86.0289
 -86.0289
 -86.0289
 -86.0289
 -86.0289
 -89.2888
 -86.8232
 -86.092
 -83.7932
 -85.2803
 -88.0503
 -88.9984
 -90.3795
 24.2433
 24.3144
 23.1007
 23.9235
 -86.0289
 -86.0289
 -86.0289
 -86.0289
 -86.0289
 -86.0289
 -86.0289
 -86.0289
 -86.0289
 -86.0289
 -86.0289
 -86.0289
 -86.0289
 -86.0289
 -86.0289
 -86.0289
 -86.0289
 -86.0289
 -86.0289
 23.2202
 22.6149
 22.4827
 22.6334
 -86.0804
 -85.1976
 -85.9336
 -85.3092
 -86.0289
 -86.0289
 -86.0289
 -86.0289
 26.2714
 25.2325
 -86.0289
 -86.0289
 -86.0289
 -86.0289
 28.1209
 29.6682
 24.8981
 25.7702
 -86.0289
 -86.0288
 -86.0288
 -86.0288
 -86.0289
 -86.0289
 -86.0289
 -86.0289
 -86.0289
 -86.0289
 -86.0289
 -86.0289
 -86.0289
 -86.0289
 -86.0289
 -86.0289
 12.4797
 18.424
 16.9551
 19.1444
 22.6545
 22.6323
 22.5334
 22.3715
 -86.0289
 -86.0289
 -86.0289
 -86.0289
 -86.0289
 -86.0289
 -86.0289
 -86.0289
 -86.0289
 -86.0289
 -86.0289
 -86.0289
 -86.0289
 -86.0289
 -86.0289
 -86.0289
 -86.0289
 -86.0289
 -86.0289
 -86.0289
 -86.0289
 -86.0289
 -86.0289
 -86.0273
 -86.029
 -86.0294
 -86.0266
 -86.0289
 -86.0289
 -86.0289
 23.7974
 27.2471
 26.3908
 26.0231
 -86.0287
 -86.0284
 -86.0289
 -86.0289
 -86.0289
 -86.0289
 -85.6611
 -86.1296
 -86.2048
 -86.0289
 -86.0289
 -86.0289
 -86.0289
 -86.0289
 -86.0289
 -86.0289
 -86.0289
 -86.0289
 -86.0289
 -86.0289
 -86.0283
 -86.0292
 -86.0226
 -86.0297
 -86.0288
 -86.0287
 -86.0289
 -86.0289
 -86.0289
 -86.0289
 -86.0289
 -86.0289
 -86.0289
 -86.0289
 -86.0289
 -86.0289
 -86.0289
 -86.0289
 -86.0286
 -86.0286
 -86.0287
 -86.0288
 -86.0289
 -86.0289
 -86.0289
 -86.0289
 -86.0289
 -86.0289
 -86.0289
 -86.0289
 -86.0289
 -86.0289
 -86.0289
 -86.0288
 -86.029
 -86.0288
 -86.0288
 -86.0289
 -86.029
 -86.0289
 -86.0288
 -86.0289
 -86.0289
 -86.0289
 -86.0289
 -86.0289
 -86.0289
 -86.0289
 -86.0289
 -86.0289
 -86.0289
 -86.0289
 -86.0289
 -86.0289
 -86.0289
 -86.0289
 -86.0289
 -86.0289
 -86.0289
 -86.0289
 -86.7624
 -86.0833
 -86.8127
 -85.7937
 -86.0289
 -86.0289
 -86.0289
 -86.0289
 -86.0289
 -86.0289
 -86.0291
 -86.0263
 -86.0327
 -86.0297
 -86.0418
 -86.0273
 -86.0412
 -86.0402
 -86.0289
 -86.0289
 -86.0289
 -86.0289
 -86.0289
 -86.0289
 -86.0289
 -86.0289
 -86.0289
 -86.0289
 -86.0289
 -88.9004
 -87.2116
 -79.2096
 -91.7567
 -86.0289
 -86.0289
 -86.0289
 -86.0289
 -86.0289
 -86.0289
 -86.0289
 22.6119
 22.977
 23.2
 22.7895
 26.4525
 24.9092
 -86.0289
 -86.0289
 -86.0289
 -86.0289
 -86.0289
 -86.0289
 -86.0289
 -86.0289
 -86.0289
 -86.0289
 -86.0289
 -86.0289
 -86.0289
 -86.0289
 -85.6074
 -86.7337
 -85.9397
 -86.195
 -86.0289
 -86.0289
 -86.0289
 -86.0289
 -85.9984
 -86.036
 -86.0359
 -86.01
 -86.0289
 -86.0289
 -86.0289
 -86.0289
 -86.0289
 -86.0289
 -86.0289
 -86.0289
 -86.0289
 -86.0289
 -86.0289
 -86.0289
 -86.0289
 -86.0289
 -85.6615
 -89.7036
 -86.0289
 -86.0289
 -86.0289
 -86.0289
 22.3686
 22.3283
 22.4626
 22.3905
 -86.0289
 -86.0289
 -86.0289
 -86.0289
 -86.7524
 -61.0174
 -33.0539
 -35.2817
 25.1614
 22.9324
 24.1003
 23.2449
 -86.0057
 -86.0296
 26.957
 24.333
 25.2
 25.7786
 -86.0289
 -86.0289
 -86.0289
 -86.0289
 30.2156
 28.2121
 26.6686
 31.0499
 22.7017
 22.9559
 22.9907
 22.8703
 -86.0289
 -86.0289
 -86.0289
 -86.0289
 -86.0289
 -86.0289
 -86.0289
 -86.0289
 24.3339
 28.9524
 25.567
 24.1736
 -86.0289
 -86.0289
 -86.0289
 -86.0289
 27.2779
 23.7137
 -86.0289
 -86.0289
 -86.0289
 -86.0289
 22.6638
 19.7869
 -74.8803
 -64.4451
 -86.0289
 -86.0289
 -86.0289
 -86.0289
 -86.0289
 -86.0289
 -86.0289
 -86.0289
 -86.0289
 -86.0289
 -86.0289
 -86.0289
 -86.0289
 -86.0289
 -86.0289
 -86.0289
 -86.0289
 -86.0289
 -86.0289
 -86.0295
 -86.0287
 -86.0288
 -43.3793
 -33.4518
 35.9247
 16.8551
 -86.0289
 -86.0289
 -86.0289
 -86.0289
 -86.0289
 -86.0289
 -86.0289
 -86.0289
 -86.0289
 -86.0289
 -86.0289
 -86.0289
 -86.0289
 -86.0287
 -86.0289
 -86.0289
 -86.0289
 -86.0289
 -86.0289
 -86.0289
 -86.0289
 -86.0289
 -86.0289
 -86.0289
 -86.0289
 -86.0289
 -86.0289
 -86.0289
 24.4526
 -30.2641
 19.1645
 17.5071
 -86.0308
 -86.0289
 -86.0282
 -86.0353
 -86.0289
 -86.0289
 -86.0289
 -86.0289
 -86.0289
 -86.0289
 -86.0289
 -86.0289
 -86.0289
 -86.0289
 -86.0289
 -86.0289
 -86.0289
 -86.0289
 -86.0289
 -86.0289
 -86.0289
 -86.0289
 -86.0289
 -86.0289
 -86.0289
 -86.0289
 -86.0289
 24.6876
 25.0774
 25.8474
 26.2675
 -86.0289
 -86.0289
 -86.0289
 -86.0289
 -86.0289
 -86.0289
 -86.0289
 -86.0289
 -86.0289
 -86.0289
 -86.0289
 -86.0289
 -86.0289
 -86.0289
 -86.0289
 -86.0289
 -86.0289
 -86.0289
 -86.0289
 24.8738
 25.0065
 24.04
 21.2931
 26.8139
 26.5613
 -86.0289
 -86.0289
 -86.0289
 -86.0289
 22.7128
 22.7439
 22.868
 22.9155
 -86.0289
 -86.0289
 -86.0289
 -86.0289
 -86.0289
 -86.0289
 -86.0289
 -86.0289
 -86.0289
 24.647
 24.0864
 27.9935
 24.6802
 -86.029
 -86.0297
 -86.0304
 -86.0281
 -85.9311
 -86.7913
 -85.931
 -85.8626
 -86.0289
 -86.0289
 -86.0289
 -86.0289
 -86.0289
 -86.0289
 -86.0289
 -86.0289
 -86.0289
 -86.0289
 -86.0289
 -86.0289
 -86.0289
 -86.0289
 -86.0289
 -86.0289
 -86.0301
 -86.0297
 -86.024
 -86.0259
 -86.0289
 -86.0289
 -86.0289
 -86.0289
 -86.0289
 -86.0289
 -86.0289
 -86.0289
 -86.0289
 -86.0289
 -86.0289
 -86.0288
 22.5335
 22.3691
 22.4878
 22.3916
 -86.0289
 -86.0289
 -86.0289
 -86.0289
 -86.0289
 -86.0289
 -86.0289
 -86.0289
 23.9562
 23.122
 23.4221
 23.1129
 -86.0289
 -86.0289
 -86.0289
 -86.0289
 -86.0289
 -86.0289
 -86.0289
 -86.0289
 -86.0289
 -86.0289
 -86.0289
 -86.0289
 -86.0289
 -86.0289
 23.8242
 24.2477
 24.0952
 23.6584
 24.7124
 24.8207
 24.0728
 -86.0291
 -86.0286
 -86.0302
 -86.0287
 -86.0289
 -86.0289
 -86.0289
 -86.0289
 -86.0289
 -86.0289
 -86.0289
 -86.0289
 -86.0289
 -86.0289
 -86.0294
 -86.013
 -86.0278
 -86.0281
 -86.0288
 -86.0295
 -86.029
 -86.0287
 -86.0215
 -86.0317
 -86.0292
 -86.0202
 22.4387
 22.5095
 22.542
 22.5515
 -89.2656
 -83.9189
 -86.0632
 -86.0289
 -86.0289
 -86.0289
 -86.0289
 -86.0289
 -86.0289
 -86.0289
 -86.0289
 -86.0289
 -59.3519
 -90.6794
 -83.8597
 -87.1814
 -85.8792
 -85.8043
 -85.6514
 -87.6372
 -86.0288
 -86.0289
 -86.0289
 -86.0289
 -86.0289
 -86.0289
 -86.0289
 -86.0289
 -86.0289
 -86.0289
 -86.0289
 -86.0289
 -86.0289
 -86.0289
 -86.0289
 -86.0289
 -86.0289
 -86.0289
 -15.4079
 34.7246
 19.6256
 27.6622
 13.1386
 30.853
 27.9108
 -86.0289
 -86.0289
 -86.0289
 -86.0289
 -86.0289
 -86.0288
 -86.0289
 -86.0289
 -86.0289
 -86.0289
 -86.0289
 -86.0289
 -86.0289
 -86.0289
 -86.0289
 -86.0289
 -86.0289
 -86.0289
 -86.0289
 -86.0289
 -86.0289
 -86.0289
 -86.0289
 -86.0289
 -86.0289
 -86.0289
 -86.0289
 -86.0289
 -86.0289
 -86.0289
 -86.0289
 24.7785
 24.9415
 -86.0289
 -86.0289
 -86.0289
 -86.0289
 -86.0289
 -86.0289
 -86.0289
 -86.0289
 -86.0289
 -86.0289
 -86.0289
 -86.0289
 13.1031
 39.2721
 -56.4007
 10.2819
 19.9728
 -50.5797
 13.6974
 -58.9636
 -86.0289
 -86.0289
 -86.0288
 -86.0288
 -86.0289
 -86.0289
 -86.0289
 -86.0289
 -86.0289
 -86.0289
 -86.0289
 -85.9614
 -85.6684
 -86.1216
 -85.6911
 22.5651
 22.473
 22.8591
 22.4744
 19.9607
 26.0912
 21.132
 21.55
 -86.0289
 -86.0289
 -86.0289
 -86.0289
 22.3934
 22.4488
 22.566
 22.5439
 -86.0289
 -86.0289
 -86.0289
 -86.0289
 -86.0289
 -86.0289
 -86.0289
 -86.0289
 -86.0214
 -86.0106
 -86.0359
 -86.0809
 -86.0162
 -86.0424
 -86.0181
 -86.0148
 -86.0289
 -86.0289
 -86.0289
 -86.0289
 23.5223
 22.8427
 22.9232
 22.9282
 25.7835
 29.2255
 28.5116
 26.2318
 -86.0378
 -86.0011
 -85.9538
 -85.9664
 23.3205
 24.4544
 25.5922
 23.3737
 -86.0289
 -86.0289
 -86.0289
 -86.0289
 -86.0289
 -86.0289
 -86.0289
 -86.0289
 13.5497
 -52.26
 -46.6661
 -50.8234
 -86.0289
 -86.0289
 -86.0289
 -86.0289
 -86.0289
 -86.0289
 -86.0289
 -86.0289
 -86.0289
 -86.0289
 -86.0289
 -86.0289
 22.4733
 22.5065
 24.8774
 24.5315
 26.0541
 24.0068
 -86.0289
 -86.0289
 -86.0289
 -86.0289
 -86.0289
 -86.0289
 -86.0289
 -86.0289
 31.3799
 19.3601
 30.1616
 28.8404
 -86.0289
 -86.0289
 -86.0289
 -86.0289
 -86.0289
 -86.0289
 -86.0289
 -86.0289
 22.4768
 22.5124
 22.489
 22.3819
 -86.0289
 -86.0289
 -86.0289
 -86.0289
 -86.0289
 -86.0289
 -86.0289
 -86.0289
 -85.4254
 -86.9971
 -86.8554
 -86.9389
 -86.0289
 -86.0289
 -86.0289
 -86.0289
 -86.0289
 -86.0289
 -86.0289
 -86.0289
 -86.0289
 -86.0289
 -86.0289
 -86.0289
 -86.0289
 -86.0289
 -86.0289
 -86.0289
 -86.0289
 -86.0289
 -86.0289
 -86.0289
 -86.0289
 -86.0289
 -86.0289
 22.6912
 22.7658
 22.7503
 22.6344
 -86.0289
 -86.0289
 -86.0289
 -86.0289
 -86.0289
 -86.0289
 -86.0289
 -86.0289
 -86.0319
 -86.0014
 -85.9826
 -86.0451
 -86.0289
 -86.0289
 -86.0289
 -86.0289
 -86.0289
 -86.0288
 -86.0289
 -86.0289
 -86.0289
 -86.0289
 -86.0289
 -86.0289
 -86.0289
 -86.0289
 -86.0289
 25.3541
 25.2394
 25.1402
 24.7115
 -86.0289
 -86.0289
 -86.0289
 -86.0289
 -86.0289
 -86.0289
 -86.0289
 -86.0289
 -86.0289
 -86.0289
 -86.0289
 -86.0289
 25.5665
 25.2903
 25.7579
 25.9135
 -86.0289
 -86.0289
 -86.0289
 -86.0289
 -86.0289
 -86.0289
 -86.0289
 -86.0289
 24.2365
 24.2062
 23.7149
 23.7746
 24.6821
 23.476
 24.2373
 -86.2754
 -85.8727
 -86.9195
 -86.5449
 29.6617
 28.3774
 23.6194
 30.4868
 -86.0289
 -86.0289
 -86.0289
 -86.0289
 -86.0289
 -86.0289
 -86.0289
 22.4708
 22.512
 22.4703
 22.4791
 -86.0289
 -86.0288
 -86.029
 -86.0289
 -86.3348
 -86.4304
 -63.7092
 -87.7898
 -86.0289
 -86.0289
 -86.0289
 -86.0289
 -86.0289
 -86.0289
 -86.0289
 -86.0289
 -86.0288
 -86.0289
 -86.0288
 -86.0289
 -86.0289
 -86.0289
 -86.0289
 -86.0289
 -86.0289
 -86.0289
 -86.0289
 -86.0289
 22.3562
 22.4604
 22.3655
 22.4171
 -86.0289
 -86.0289
 -86.0289
 -86.0289
 -84.785
 -91.4642
 -90.3988
 -91.6265
 -86.0288
 -86.0288
 -86.0289
 -86.0289
 -86.0289
 17.1459
 -55.4884
 20.8491
 22.5934
 22.6843
 22.6098
 22.6217
 -86.0289
 -86.0289
 -86.0289
 -86.0289
 -86.0286
 -86.0287
 -86.0282
 -86.0289
 -86.0289
 -86.0289
 -86.0289
 -86.0289
 -86.0289
 -86.0289
 -86.0289
 -86.0289
 -86.0289
 -86.0289
 -86.0289
 -86.0289
 -86.0289
 -86.0289
 -86.0365
 -86.0407
 -86.0667
 -86.0286
 -86.0289
 -86.0289
 -86.0289
 -86.0289
 -86.0289
 -86.0289
 -86.0289
 -86.0289
 -86.0289
 -86.0289
 -86.0289
 -86.0289
 -86.0289
 -86.0289
 -86.0289
 -86.0289
 -86.0289
 -86.0289
 22.2792
 22.4144
 22.6508
 22.7371
 -86.0282
 -86.0289
 -86.0288
 -86.0291
 -86.0289
 -86.0289
 -86.0289
 -86.0289
 -86.0289
 -86.0289
 -86.0289
 -86.0289
 22.3225
 22.3488
 -86.0289
 -86.0289
 -86.0289
 -86.0289
 22.6382
 22.552
 22.4818
 -86.0289
 -86.0289
 -86.0289
 -86.0289
 22.5126
 23.4497
 22.9276
 23.2425
 -86.0289
 -86.0289
 -86.0289
 -86.0289
 -86.0289
 -86.0289
 -86.0289
 22.4503
 22.449
 22.349
 22.5774
 -86.0289
 -86.0289
 -86.0289
 -86.0289
 -86.0289
 -86.0289
 -86.0289
 -86.0289
 -86.0289
 -86.0289
 -86.0289
 -86.0289
 -86.0289
 -86.0289
 -86.0289
 -86.0289
 -86.0289
 22.7621
 22.582
 22.5157
 22.6399
 -86.0289
 -86.0289
 -86.0289
 -86.0289
 -86.0289
 -86.0289
 -86.0289
 -86.0289
 -86.0289
 -86.0289
 -86.0289
 -86.0289
 -86.0289
 -86.0289
 -86.0288
 -86.0289
 -86.0289
 22.5009
 22.5971
 22.4527
 -86.0289
 -86.0289
 -86.0289
 -86.0289
 -86.0289
 -86.0289
 -86.0289
 -86.0307
 -86.0334
 -86.0286
 -86.0285
 -86.0289
 -86.0289
 -86.0289
 -86.0289
 10.4834
 19.7166
 -14.0844
 -37.8504
 -86.0289
 -86.0289
 -86.0288
 -86.0289
 24.1452
 21.6329
 25.1804
 22.3869
 22.4541
 22.5323
 22.2798
 -86.0289
 -86.0289
 -86.0289
 -86.0289
 24.4389
 24.7408
 26.082
 25.6375
 -86.0289
 -86.0289
 -86.0289
 -86.0289
 22.5101
 -86.0291
 -86.0289
 -86.0289
 -86.0289
 -86.0289
 -86.0289
 -86.0289
 -86.0289
 -86.0289
 -85.4206
 -86.7229
 -85.7319
 -85.9667
 -86.029
 -86.0288
 -86.0289
 -86.0289
 -88.4038
 -86.8311
 -81.9529
 -84.311
 -86.0289
 -86.0289
 -86.0289
 -86.0289
 -86.0289
 -86.0289
 -86.0289
 -86.0289
 -86.0289
 -86.0289
 -86.0289
 -86.0289
 -86.0289
 -86.0289
 -86.0289
 -86.0289
 -86.0289
 -86.0289
 -86.0289
 -86.0289
 -86.0406
 -85.9339
 -85.9412
 -86.0437
 22.7041
 22.7325
 23.6255
 -86.0289
 -86.0289
 -86.0289
 -86.0289
 -86.0289
 -86.0289
 -86.0289
 -86.029
 -86.0291
 -86.0289
 -86.0289
 -86.0491
 -86.0893
 -86.0123
 -85.8419
 24.6776
 25.0751
 23.8902
 24.2616
 -86.0289
 -86.0289
 -86.0289
 -86.0289
 -86.0289
 -86.0289
 -86.0289
 -86.0289
 -86.0289
 -86.0289
 -86.0289
 -86.0289
 -86.0289
 -86.0289
 -86.0289
 -86.0289
 -86.0289
 -86.0289
 -86.0289
 -86.0289
 -85.9976
 -85.9578
 -86.666
 -85.9508
 -86.0289
 -86.0289
 -86.0289
 -86.0289
 -86.0289
 -86.0289
 -86.0289
 -86.0289
 -86.0289
 -86.0289
 -86.0289
 -86.0289
 -86.0289
 -86.0289
 -86.0289
 -86.0289
 -86.0289
 -86.0289
 -86.0289
 -86.0289
 -86.0289
 -86.0289
 -86.0289
 23.1006
 23.1455
 23.6537
 24.943
 -86.6828
 -85.5745
 -85.4426
 -86.1447
 -86.0289
 -86.0289
 -86.0289
 -86.0289
 -86.0289
 -86.0289
 -86.0289
 -86.0289
 17.0878
 25.3061
 -32.7326
 22.935
 -86.0289
 -86.0289
 -86.0289
 -86.0289
 -86.0289
 -86.0289
 -86.0289
 -86.0289
 -86.0289
 -86.0289
 -86.0289
 -86.0289
 -86.0289
 -86.0289
 -86.0289
 -86.0159
 -86
 -86.0832
 -86.0343
 -86.0289
 -86.0289
 -86.0289
 -86.0289
 -86.0289
 -86.0289
 -86.0289
 -86.0289
 -86.0289
 -86.0289
 -86.0289
 22.5143
 22.5943
 22.8983
 23.2486
 -86.0289
 -86.0289
 -86.0289
 -86.0289
 -86.0289
 -86.0289
 -86.0289
 -86.0289
 24.3669
 26.002
 26.5735
 25.6972
 -79.0322
 7.06653
 -91.4002
 -72.5664
 -86.0289
 -86.0289
 -86.0289
 -86.0289
 -86.0289
 -86.0289
 -86.0289
 -86.0289
 -86.0289
 -86.0289
 -86.0289
 -86.0289
 -86.0289
 -86.0289
 -86.0289
 -86.0289
 -86.0289
 -86.0289
 -86.0289
 -86.0289
 -86.0289
 -86.0289
 -86.0289
 -86.0289
 -86.0289
 -86.0289
 -86.0289
 -86.0289
 -86.0289
 -86.0289
 -86.0289
 -86.0289
 -86.0289
 -86.0289
 -86.0289
 -86.0289
 -86.0289
 -86.0289
 -86.0289
 -86.0289
 -86.1629
 -89.3037
 -85.8346
 -89.543
 -86.0289
 -86.0289
 -86.0289
 -86.0289
 -86.0289
 -86.0289
 -86.0289
 -86.0289
 -86.0289
 -86.0289
 -86.0289
 -86.0289
 -86.0289
 -86.0289
 -86.0289
 -86.0289
 -86.0289
 -86.0289
 22.6536
 22.6972
 22.6094
 22.6113
 -86.0289
 -86.0289
 -86.0289
 -86.0289
 -86.0289
 -86.0289
 -86.0289
 -86.0289
 -86.0289
 -86.0289
 -86.0289
 -86.0289
 23.1332
 22.7367
 22.9441
 23.3752
 -85.52
 -87.7705
 -85.6017
 -86.0289
 -86.0289
 -86.0289
 -86.0289
 -42.6636
 -88.1627
 -83.5949
 -86.0289
 -86.0289
 -86.0289
 -86.0289
 -86.0289
 -86.0289
 -86.0289
 -86.0289
 22.944
 22.9711
 22.8964
 24.464
 -86.0289
 -86.0289
 -86.0289
 -86.0289
 22.3619
 22.4925
 22.5054
 22.3364
 -86.0289
 -86.0289
 -86.0289
 -86.0289
 -86.0289
 -86.0289
 -86.0289
 -86.0289
 -86.0289
 -86.0289
 -86.0289
 -86.0289
 -86.0289
 -86.0289
 -86.0289
 -86.0289
 -86.0289
 -86.0289
 -86.0289
 -86.0289
 -86.0289
 -86.0289
 -86.0296
 -86.0294
 -86.0289
 -86.0287
 -86.0289
 -86.0289
 -86.0289
 -86.0289
 24.9069
 30.9415
 24.3844
 22.9295
 25.2255
 25.6411
 27.8857
 28.233
 -83.2494
 -83.8343
 -82.6754
 -89.4852
 23.8651
 24.5642
 26.8633
 27.5028
 -86.0303
 -86.0357
 -86.0208
 -86.0317
 -53.2946
 24.4673
 7.19045
 -41.1687
 -86.0289
 -86.0289
 -86.0289
 -86.0289
 22.9445
 23.1397
 23.3181
 23.8568
 -86.0289
 -86.0289
 -86.0289
 -86.0289
 -85.2154
 -86.1024
 -85.4096
 26.3993
 26.6
 26.3813
 28.3248
 -86.0289
 -86.0289
 -86.0289
 -86.0289
 -86.0289
 -86.0289
 -86.0289
 -86.0289
 -85.967
 -85.9774
 -86.0535
 -85.6798
 -86.0289
 -86.0289
 -86.0289
 -86.0289
 -86.0339
 -86.0301
 -86.0331
 -86.0378
 -86.0314
 -86.0345
 -86.0451
 -86.0289
 -86.0289
 -86.0289
 -86.0245
 -86.1003
 -86.0289
 -86.0289
 22.5759
 22.6023
 22.7336
 22.5241
 -86.0289
 -86.0289
 -86.0289
 -86.0289
 -86.0277
 -86.0284
 -86.0204
 -86.0352
 -86.0289
 -86.0288
 -86.0289
 -86.0288
 -82.9917
 -61.9186
 0.0333097
 -72.8658
 -65.6326
 -86.0289
 -86.0289
 -86.0289
 -86.0289
 -86.0289
 -86.0289
 -86.0289
 -86.0289
 -86.0288
 -86.0288
 -86.0287
 -86.029
 -86.0289
 -86.0291
 -86.0289
 -86.0289
 -86.0289
 -86.0289
 -86.0289
 -86.0289
 -86.0289
 -86.0289
 -86.0289
 -86.0289
 -86.0289
 -86.0289
 -86.0289
 -86.0289
 -86.0279
 -86.029
 -86.0289
 -86.0289
 -86.0289
 -86.0289
 -86.0289
 -86.0289
 -86.0289
 -86.0289
 -86.0289
 -86.0289
 -86.0289
 -86.0289
 -86.0289
 -86.0289
 -86.0289
 -86.0289
 -86.0289
 -86.0289
 -86.0289
 -86.0289
 -85.7477
 -86.1385
 -85.7727
 -85.0266
 25.5215
 23.8255
 24.462
 25.3848
 -86.0289
 -86.0289
 -86.0289
 -86.0289
 -86.0289
 -86.0289
 -86.0289
 -86.0289
 -65.846
 -90.9598
 -79.9691
 -94.6436
 -86.0289
 -86.0289
 -86.0289
 -86.0289
 -86.0289
 -86.0289
 -86.0289
 -86.0289
 -86.0289
 -86.0289
 -86.0289
 -86.0289
 -86.0289
 -86.0289
 5.0291
 -28.218
 -50.8338
 22.8394
 22.9854
 23.8179
 23.3994
 23.01
 -86.0289
 -86.0289
 -86.0289
 -86.0289
 -86.0289
 -86.0289
 -86.0289
 -86.0289
 -86.0289
 -86.0289
 -86.0289
 -86.0289
 -86.0289
 -86.0289
 -86.0289
 -86.0289
 -86.0289
 -86.0289
 -86.0289
 -86.0289
 -86.0289
 -86.0289
 -86.0289
 25.5536
 24.2572
 24.1076
 26.5201
 23.1562
 23.2195
 23.1647
 22.8575
 22.4939
 22.421
 22.5146
 -86.0289
 -86.0289
 -86.0289
 -86.0289
 -86.0289
 -86.0289
 -86.0289
 -86.0289
 -88.9046
 -79.1083
 -59.4234
 -87.8599
 -86.0288
 -86.0288
 -86.0289
 -86.0289
 -86.0289
 -86.0289
 -86.0289
 -86.0289
 -86.0289
 -86.0289
 -86.029
 -86.1492
 -85.0494
 -85.4473
 -86.12
 -86.0289
 -86.0289
 -86.0289
 -86.0289
 -86.0289
 -86.0289
 -86.0289
 -86.0289
 -86.0291
 -86.0306
 -86.0303
 -86.0244
 -86.0289
 -86.0289
 -86.0289
 -86.0289
 -86.0289
 -86.0289
 -86.0289
 -86.0289
 -86.0289
 -86.0289
 -86.0289
 -86.0289
 -85.9259
 -85.9872
 -85.778
 -85.3734
 -86.0289
 -86.0289
 -86.0289
 -86.0289
 -86.0289
 -86.0289
 -86.0289
 -86.0289
 34.6234
 27.1585
 24.9797
 17.0158
 19.1714
 -33.1919
 12.2253
 16.2122
 23.4381
 25.1455
 23.45
 23.6623
 -88.6632
 -86.5027
 -80.799
 -82.1003
 -86.0289
 -86.0289
 -86.0289
 -86.0289
 -86.0289
 -86.0289
 -86.0289
 -86.0289
 -86.0596
 -86.0243
 -86.0244
 -86.0204
 -86.0289
 -86.0289
 -86.0289
 -86.0289
 -86.0289
 -86.0289
 -86.0289
 -86.0289
 -86.0289
 -86.0289
 -86.0289
 -86.0289
 -86.0289
 -86.0289
 -86.0289
 -86.0289
 -86.0289
 -86.0289
 -86.0289
 -86.0289
 -86.0289
 -86.0289
 -86.0289
 -86.0289
 -86.0289
 -86.0289
 -86.0289
 -86.0407
 -86.1
 -86.0437
 -86.0675
 -86.0289
 -86.0289
 -86.0289
 22.6973
 22.4866
 22.5856
 22.6264
 22.3612
 22.3979
 22.4774
 22.3644
 -86.0289
 -86.0289
 -86.0289
 -86.0289
 -86.0289
 -86.0289
 -86.0289
 -86.0289
 -86.0289
 -86.0289
 -86.0289
 -86.0289
 -86.0289
 -86.0289
 23.3201
 23.0467
 23.2891
 23.0714
 -86.0289
 -86.0289
 -86.0289
 -86.0289
 -86.0289
 -86.0289
 -86.0289
 -86.0289
 -86.0289
 -86.0289
 -86.0289
 -86.0289
 -86.0289
 -86.0289
 -86.0289
 -86.0289
 -86.0289
 -86.0289
 -86.0289
 -86.0289
 -86.0289
 -86.0289
 -86.0289
 -86.0289
 -86.0289
 -74.0331
 -72.434
 -0.113857
 -65.7622
 -86.0289
 -86.0289
 -86.0289
 -86.0289
 -86.0289
 -86.0289
 -86.0289
 -86.0289
 -86.0289
 -86.0289
 -86.0289
 -86.0289
 -86.0289
 -86.0289
 -86.0289
 -86.0289
 -86.0289
 -86.0289
 -86.0289
 -86.0289
 -86.0289
 -86.0289
 -86.0289
 -86.0289
 -86.0289
 -86.0289
 -86.0289
 -86.0289
 -86.0289
 -86.0289
 -86.0289
 -86.0289
 -86.0304
 -86.0303
 -86.0298
 -86.0287
 -86.0289
 -86.0289
 -86.0289
 -86.0289
 -86.0289
 -86.0289
 -86.0289
 -86.0271
 -86.0305
 -86.0289
 -86.0304
 -86.0289
 -86.0289
 -86.0289
 -86.0289
 -94.9239
 -91.117
 -91.5345
 -60.2018
 -29.8457
 -76.075
 23.4869
 7.65653
 -86.0289
 -86.0289
 -86.0289
 -86.0289
 -86.0289
 -86.0289
 -86.0289
 -86.0289
 -86.0289
 -86.0289
 -86.0289
 30.2117
 14.0959
 28.4948
 -86.0289
 -86.0289
 -86.0289
 -86.0289
 -86.0254
 -86.0205
 -86.005
 -86.031
 25.9667
 24.6528
 25.1077
 27.4884
 -86.0289
 -86.0289
 -86.0289
 -86.0289
 -86.0289
 -86.0289
 -86.0289
 -86.0289
 -86.0289
 -86.0288
 -86.0288
 -86.0289
 -86.0289
 -86.0289
 -86.0289
 -86.0289
 -86.0289
 -86.0289
 -86.0289
 23.4642
 -86.0289
 -86.0289
 -86.0289
 -86.0289
 -93.6722
 -90.5696
 -75.5414
 -57.2518
 -87.4473
 -85.8516
 -85.8135
 -85.9993
 -86.0289
 -86.0289
 -86.0289
 -86.0289
 -86.0289
 -86.0289
 -86.0289
 -86.0289
 -86.0289
 -86.0289
 -86.0289
 -86.0289
 -86.0289
 -86.0289
 -86.0289
 -86.0289
 -86.0289
 23.5235
 22.7383
 23.6263
 23.4968
 -86.0289
 -86.0289
 -86.0289
 -86.0289
 -86.0289
 -86.0289
 -86.0289
 -86.0289
 20.9841
 22.4692
 25.5297
 14.2474
 -86.0289
 -86.0289
 -86.0289
 -86.0289
 -86.0289
 -86.0289
 -86.0289
 -86.0289
 -86.0289
 -86.0289
 -86.0289
 -86.0289
 -86.0289
 -86.0289
 -86.0289
 -86.0289
 -86.0289
 -86.0289
 -86.0289
 -86.0289
 -86.0289
 -86.0289
 -86.0289
 -86.0289
 -86.0289
 -86.0289
 -86.0289
 -86.0289
 23.0185
 22.862
 23.0957
 22.8487
 -86.0289
 -86.0289
 -86.0289
 -86.0289
 -86.0289
 -86.0289
 -86.0289
 -86.0289
 22.7456
 22.6125
 22.5455
 22.5441
 -86.0289
 -86.0289
 -86.0289
 -86.0289
 -86.0289
 25.4848
 29.1912
 25.0133
 24.4249
 -86.0289
 -86.0289
 -86.0289
 -86.0289
 -86.0289
 -86.0293
 -86.0286
 -89.068
 -85.2111
 -90.2329
 -85.5447
 24.4708
 22.7581
 22.0833
 23.7961
 23.2525
 22.7737
 22.8777
 -87.6291
 -80.7943
 -76.8891
 -71.2883
 -86.0289
 22.5028
 -86.0249
 -86.0281
 -86.0263
 24.2827
 23.1896
 22.9831
 23.4218
 -86.0289
 -86.0289
 -86.0289
 -86.0289
 -86.0289
 -86.0289
 -86.0289
 -86.0289
 -86.0437
 -86.0361
 -86.0328
 -86.0478
 22.4396
 22.2285
 22.4772
 22.2584
 26.9424
 26.7523
 31.8055
 17.6752
 -86.0288
 -86.0287
 -86.0289
 -86.0289
 -86.0289
 -86.0289
 -86.0289
 -86.0289
 -86.0289
 -86.0289
 -86.0289
 -86.0289
 -86.0289
 -86.0289
 -86.0289
 -86.0289
 -86.0289
 -86.0289
 -86.0289
 -86.0289
 -86.0289
 -86.0289
 -40.5161
 -50.0915
 21.0953
 -84.0187
 -89.3206
 -83.3347
 -85.8363
 -86.0289
 -86.0289
 -86.0219
 -86.1328
 24.1438
 23.5787
 24.2677
 23.0423
 23.0604
 23.0685
 23.304
 -86.0289
 -86.0289
 -86.0289
 -86.0289
 -86.0289
 -86.0289
 -86.0289
 -86.0289
 -86.0289
 -86.0289
 -86.0289
 -86.0289
 22.3336
 22.3357
 22.3474
 22.361
 -86.0798
 -86.0945
 -86.0503
 -86.0274
 -86.0289
 -86.0289
 -86.0289
 -86.0289
 -86.0384
 -86.1049
 -86.0738
 -85.8612
 -86.0289
 -86.0289
 -86.0289
 -86.0289
 -86.0289
 -86.0288
 -86.0288
 -86.0289
 -86.0289
 -86.0289
 -86.0289
 -86.0289
 -86.0289
 -86.0289
 -86.0289
 -86.0289
 -85.9449
 -84.0787
 -85.8397
 -86.4263
 -86.1406
 -85.9185
 -84.9681
 -86.1141
 -86.0483
 -86.1053
 -85.7968
 -86.0289
 -86.0289
 -86.0289
 -86.0289
 -86.0289
 -86.0289
 -86.0289
 -86.0289
 -86.0289
 -86.0289
 -86.0289
 -86.0289
 -86.0289
 -86.0289
 -86.0289
 -86.0289
 -86.0289
 -86.0289
 -86.0289
 -86.0289
 -86.0289
 23.0495
 23.6604
 23.2478
 23.2679
 22.487
 22.4264
 22.5608
 22.349
 -86.0289
 -86.0289
 -86.0289
 -86.0289
 -86.0289
 -86.0289
 -86.0289
 -86.0289
 -86.0289
 -86.0289
 -86.0289
 -85.4118
 -85.1392
 -86.0309
 -85.7335
 -86.0289
 -86.0289
 -86.0289
 -86.0289
 -86.0289
 -86.0289
 -86.0289
 -86.0288
 -86.0287
 -86.0285
 -86.029
 -86.0289
 -86.0289
 -86.0289
 -86.0289
 -86.0289
 -86.0289
 -86.0289
 -86.0289
 -86.0289
 -86.0289
 -86.0289
 -86.0289
 -86.0289
 -86.0289
 -86.0289
 -86.0289
 -86.0289
 -86.0289
 -86.0289
 -86.0289
 -86.0289
 -86.0289
 23.2461
 22.7833
 22.8906
 22.9515
 -86.0289
 -86.0289
 -86.0289
 -86.0289
 -86.0289
 -86.0289
 -86.0289
 -86.0289
 -86.0289
 -86.0289
 -86.0289
 -86.0289
 -86.0289
 -86.0289
 -86.0289
 -86.0289
 -86.0289
 24.2208
 25.4573
 23.6581
 23.7079
 -86.0289
 -86.0289
 -86.0289
 -86.0289
 -86.0289
 -86.0289
 -86.0289
 -86.0289
 -86.0289
 -86.0289
 -86.0289
 -86.0289
 -86.0289
 -86.0289
 -86.0289
 -86.0289
 -86.0289
 -86.0289
 -86.0289
 -86.0289
 22.7719
 22.3504
 -86.0289
 -86.0289
 -86.0289
 -86.0289
 -86.0289
 -86.0289
 -86.0289
 -86.0289
 -86.0289
 -86.0289
 -86.0289
 -86.0289
 26.5177
 29.5294
 25.2617
 31.2527
 -86.0289
 -86.0289
 -86.0289
 -86.0289
 -86.0289
 24.1935
 20.8591
 22.9743
 -86.0289
 -86.0289
 -86.0289
 -86.0289
 -86.042
 -86.0428
 -86.0495
 -86.0268
 -86.0289
 -86.0289
 -86.0289
 -86.0289
 22.8006
 23.1952
 23.5359
 23.0733
 24.0453
 24.3958
 24.0175
 -86.0289
 -86.0289
 -86.0289
 -86.0289
 -86.029
 -86.0286
 -86.0289
 -86.0288
 -86.0341
 -86.0433
 -86.012
 -85.9879
 -86.0289
 -86.0289
 -86.0289
 -86.0289
 -86.0289
 -86.0289
 -86.0289
 -86.0289
 -86.0289
 -86.0289
 -86.0289
 -86.0289
 -86.0289
 -86.0289
 -86.0289
 -86.0289
 -86.0289
 -86.0289
 -86.0289
 -86.0289
 -86.0289
 -86.0289
 -86.0289
 28.9565
 33.1127
 24.3775
 25.0608
 -88.3848
 -87.0958
 -94.1053
 -86.0289
 -86.0289
 -86.0289
 -86.0289
 -86.0289
 -86.0289
 -86.0289
 -86.0289
 -86.0262
 -86.0291
 -86.0302
 -86.0309
 -86.0289
 -86.0289
 -86.0289
 -86.0289
 -86.0289
 -86.0289
 -86.0289
 -86.0289
 -86.0289
 -86.0289
 -86.0289
 -89.9129
 -85.7401
 -87.0081
 22.8768
 22.6988
 22.779
 -86.0264
 -86.0373
 -86.0331
 -86.0289
 -86.0289
 -86.0289
 -86.0289
 22.3779
 22.4239
 22.3282
 22.377
 -86.029
 -86.0289
 -86.0286
 -86.028
 -68.6993
 -43.5366
 26.5102
 22.5024
 -88.5836
 -89.8153
 -87.385
 -89.0254
 -86.0289
 -86.0289
 -86.0289
 -86.0289
 -86.0289
 -86.0289
 -86.0289
 -85.7126
 -81.0003
 -85.2639
 -89.6479
 -86.0289
 -86.0289
 -86.0289
 -86.0289
 -86.0526
 -86.0229
 -86.0818
 -86.0431
 22.7583
 22.558
 -86.0289
 -86.0289
 -86.0289
 -86.0289
 -85.9603
 -86.0253
 -85.9463
 -86.0381
 -86.0289
 -86.0289
 -86.0289
 -86.0289
 -86.027
 -86.029
 22.3972
 22.3747
 22.5627
 22.4567
 -53.0226
 19.0877
 -67.6582
 30.1691
 22.7287
 22.682
 22.6858
 23.1903
 -85.7437
 -86.0045
 -85.6344
 -86.0289
 -86.0287
 -86.0286
 -86.0289
 -86.0202
 -86.047
 -86.0837
 -86.0312
 -86.0289
 -86.0289
 -86.0289
 -86.0289
 -86.0289
 -86.0289
 -86.0289
 -86.0289
 -86.0289
 -86.0289
 30.1765
 22.7712
 28.6022
 27.4943
 -86.0289
 -86.0289
 -86.0289
 -86.0289
 -86.0289
 -86.0289
 -86.0289
 -86.0289
 -86.0289
 -86.0289
 -86.0289
 -86.0289
 -86.0289
 -86.0289
 -86.0289
 22.3739
 22.3773
 22.49
 22.4389
 -86.0289
 -86.0289
 -86.0289
 -86.0289
 -86.0289
 -86.0369
 -86.0704
 -86.048
 -86.0073
 -86.0289
 -86.0289
 -86.0289
 -86.0289
 -86.0289
 -86.0289
 -86.0289
 -86.0289
 -86.0289
 -86.0289
 -86.0289
 -86.0289
 -86.0289
 -86.0289
 -86.0289
 -86.0289
 26.6541
 29.338
 24.7792
 -86.0289
 -86.0289
 -86.0289
 -86.0289
 -86.0289
 -86.0289
 -86.0289
 -86.0289
 -86.0289
 -86.0289
 -86.0289
 -86.0289
 -86.0289
 -86.0289
 23.5428
 26.059
 -86.0289
 -86.0289
 -86.0289
 -86.0289
 -86.0289
 -86.0289
 -86.0289
 -86.0289
 -86.0289
 -86.0289
 -86.0289
 -86.0289
 -86.0289
 -86.0289
 -86.0289
 -86.0289
 23.985
 23.9625
 24.7022
 23.5129
 -86.0289
 -86.0289
 -86.0289
 -86.0289
 -86.0289
 -86.0289
 -86.0289
 -86.0289
 -86.0282
 -86.0299
 -86.0301
 -86.0289
 -86.0289
 -86.0289
 -86.0289
 22.8851
 22.7132
 22.7221
 22.9727
 -86.0289
 -86.0289
 -86.0289
 -86.0289
 -86.0284
 -86.029
 -86.029
 -86.0284
 -86.0289
 -86.0289
 -86.0289
 -86.0289
 -86.0289
 -86.0289
 -86.0289
 -86.0289
 -86.0289
 -86.0289
 -86.0289
 -86.0289
 -86.0289
 -86.0289
 -86.0289
 -86.0289
 -86.0289
 -86.0289
 -85.8828
 -85.7686
 -86.2827
 -85.5894
 -85.8946
 -86.0289
 -86.0289
 -86.0289
 -86.0289
 23.5431
 24.7393
 24.9323
 25.1185
 -86.0288
 -86.0291
 -86.0288
 -86.0289
 -86.0289
 -86.0288
 -86.0289
 -86.0289
 -86.0289
 -86.0289
 -86.0289
 -86.0289
 -86.0289
 -86.0289
 -86.0289
 -86.0289
 -86.0289
 24.7779
 23.3037
 -86.0289
 -86.0289
 -86.0289
 -86.0289
 -86.0289
 -86.0289
 -86.0289
 26.2468
 26.6323
 26.6281
 26.5494
 -86.0289
 -86.0289
 -86.0289
 -86.0289
 -86.0289
 -86.0289
 -86.0289
 -86.0289
 -86.0289
 -86.0289
 -86.0289
 -86.0289
 -86.0245
 -86.0626
 -86.0289
 -86.0289
 -86.0289
 -86.0289
 -86.0289
 -86.0289
 -86.0289
 -86.0289
 -86.0289
 -86.0289
 -86.0289
 -86.0289
 -86.0289
 -86.0289
 -86.0289
 -86.0289
 -86.0289
 -86.0289
 -86.0289
 -86.0289
 -86.0289
 -86.0289
 -86.0289
 -86.0289
 -86.0289
 -86.0289
 -86.0289
 -86.0289
 -86.0289
 -86.0289
 -86.0289
 -86.0289
 -86.0289
 -86.0289
 -86.0289
 -86.0289
 -86.0289
 -86.0289
 -86.0289
 -86.0289
 -86.0289
 -86.0289
 -86.0289
 -86.0289
 -86.0289
 -86.0289
 22.3964
 22.4774
 22.4353
 -85.825
 -86.2301
 -86.0247
 -85.5098
 -86.0289
 -86.0289
 -86.0289
 -86.0289
 -86.0289
 -86.0289
 -86.0289
 -86.0289
 -86.0289
 -86.0289
 -86.0289
 24.7207
 23.5854
 27.0513
 24.1314
 -86.0296
 -86.0291
 -86.0281
 -86.0292
 25.0253
 25.0784
 28.2442
 26.9964
 -86.0289
 -86.0289
 -86.0289
 -86.0289
 -86.0289
 -86.0289
 -85.6939
 -85.9802
 -86.1075
 -86.1658
 23.1265
 23.6297
 23.3945
 24.0052
 24.1219
 24.381
 24.0349
 24.553
 24.8941
 26.4097
 25.4605
 -86.029
 -86.0288
 -86.0288
 -86.0288
 0.992522
 27.3817
 27.8644
 32.4101
 -86.0289
 -86.0289
 -86.0289
 -86.0289
 7.65065
 14.6626
 3.7782
 -86.029
 -86.0289
 -86.0288
 -86.0291
 -86.0289
 -86.0289
 -86.0289
 -86.0289
 -86.0287
 -86.0293
 -86.0285
 -86.0297
 -86.0289
 -86.0289
 -86.0289
 -86.0288
 -86.0289
 -86.0289
 -86.0289
 -86.0289
 -86.0289
 -86.0289
 -86.0289
 -86.0289
 -86.0289
 -86.0289
 -86.0289
 -86.0289
 -86.0289
 -86.0289
 -86.0289
 -86.0289
 -86.0289
 -86.0289
 -86.0289
 -86.0289
 -86.0289
 -86.0289
 -86.0289
 -86.0289
 -86.0289
 -86.0289
 -86.0289
 27.0939
 11.2545
 9.73783
 -85.9811
 -83.5554
 -55.115
 -67.8392
 -86.0289
 -86.0289
 -86.0289
 -86.0289
 -86.0289
 -86.0289
 -86.0289
 -86.0289
 -86.0289
 -86.0289
 -86.0289
 -86.0289
 -86.0289
 -86.0289
 -86.0288
 -86.0269
 -86.0287
 -86.0285
 -86.0289
 -86.0289
 -86.0289
 -86.0289
 -86.0309
 -86.0287
 -86.0284
 -86.0289
 -85.5394
 -60.7279
 -88.472
 -85.8653
 -86.0289
 -86.0289
 -86.0289
 -86.0289
 -86.0289
 -86.0289
 -86.0289
 -86.0289
 -86.0289
 -86.0289
 -86.0289
 25.251
 23.6525
 23.6786
 23.2117
 -81.5465
 13.4972
 -60.0958
 -78.7353
 -86.0289
 -86.0289
 -86.0289
 -86.0289
 22.4374
 22.4241
 22.386
 23.8136
 22.9735
 23.5795
 23.5917
 23.8353
 23.0854
 24.6483
 23.7487
 -86.0289
 -86.0289
 -86.0289
 -86.0289
 -86.0289
 -86.0289
 -86.0289
 -86.0289
 -86.0289
 -86.0289
 -86.0289
 -86.0289
 -86.0289
 -86.0289
 -86.0289
 -86.0289
 -86.0289
 -86.0289
 -86.0289
 -86.0289
 -86.0288
 -88.4786
 -73.9002
 -93.9652
 -88.1992
 -86.0289
 -86.0289
 -86.0289
 -86.0289
 24.5347
 24.2889
 24.2712
 24.3324
 -86.0289
 -86.0289
 -86.0289
 -86.0288
 22.3709
 22.5851
 22.3136
 22.4837
 -86.0289
 -86.0289
 -86.0289
 -86.0289
 -86.0289
 -86.0289
 23.8135
 21.4892
 -42.2412
 20.0379
 -86.0289
 -86.0292
 -86.0286
 -86.0288
 -86.0289
 -86.0289
 -86.0289
 -86.0289
 -46.0549
 15.408
 12.3139
 22.6579
 22.6415
 22.5339
 22.7516
 -78.0588
 -83.8774
 -88.7614
 -60.325
 -86.0289
 -86.0289
 -86.0289
 -86.0289
 -86.0289
 -86.0289
 -86.0289
 -86.0289
 26.3989
 25.1937
 25.3341
 25.855
 -86.0289
 -86.0289
 -86.0289
 -85.6338
 -86.5581
 -85.6758
 -85.9869
 -86.0289
 -86.0289
 -86.0289
 -86.0289
 -86.0293
 -86.03
 -86.0291
 -86.0289
 -86.0289
 -86.0289
 -86.0289
 -86.0289
 -86.0289
 -86.0289
 -86.0289
 -86.0289
 -87.7168
 -84.6508
 -60.0281
 -88.6541
 -86.0289
 -86.0289
 -86.0289
 -86.0289
 -86.0289
 -66.6748
 -92.5046
 -89.679
 -85.9959
 -86.0289
 -86.0289
 -86.0289
 -86.0289
 -86.0289
 -86.0289
 -86.0289
 -86.0293
 -86.0281
 -86.0274
 -86.0342
 -86.0274
 -86.0271
 -86.0298
 -86.0214
 -86.0289
 -86.0289
 -86.0289
 -86.0289
 -86.0289
 -86.0289
 -86.0289
 -86.0289
 -86.0289
 -86.0289
 -86.0289
 -86.0289
 -86.0289
 -86.0289
 -86.0289
 -86.0289
 -86.0289
 -86.0289
 -86.0289
 -86.0289
 -86.0289
 -86.0289
 -90.4765
 -91.6346
 -91.0438
 -85.4392
 -86.0289
 -86.0289
 -86.0289
 -86.0289
 -86.0289
 -86.0289
 -86.0289
 23.8722
 23.5012
 23.6129
 23.2363
 -86.0289
 -86.0289
 -86.0289
 -86.0289
 -86.0289
 -86.0289
 -86.0289
 -86.0289
 -86.0289
 -86.0289
 -86.0289
 -86.0289
 28.0396
 28.6682
 27.0096
 28.3997
 -86.0289
 -86.0289
 -86.0289
 -86.0289
 -86.0197
 -86.028
 -86.0158
 -86.0148
 -86.0289
 -86.0289
 -86.0289
 -86.0289
 -56.8932
 -90.7968
 -92.3692
 -87.92
 -87.3772
 -87.6086
 -86.1438
 -88.2081
 -85.717
 -85.8435
 -86.0289
 -86.0289
 -86.0289
 -86.0289
 23.9107
 24.6005
 24.4123
 -86.1124
 -85.78
 -85.7796
 -87.2498
 -86.0289
 -86.0289
 -86.0289
 -86.0289
 -86.0289
 -86.0289
 -86.0289
 -86.0289
 -86.0289
 -86.0289
 -86.0289
 -86.0289
 -86.0289
 -86.0289
 26.8004
 24.8748
 24.9551
 25.9473
 -77.7605
 -85.6348
 25.2162
 23.9241
 23.2062
 24.6282
 -86.0316
 -86.0384
 -86.0289
 -86.0289
 -86.0289
 -86.0289
 -87.1402
 -87.4225
 -88.7739
 -85.8635
 -86.0289
 -86.0289
 -86.0289
 -86.0289
 -86.0289
 -86.0289
 -85.7897
 -85.141
 -87.0635
 -84.9171
 -86.0289
 -86.0289
 -86.0289
 -86.0289
 27.463
 26.9764
 25.4768
 23.4371
 -86.0289
 -86.0289
 -86.0289
 -86.0289
 -86.0289
 -86.0289
 -86.0289
 -86.0289
 -86.0287
 -86.0289
 -86.0289
 -86.0289
 -86.0289
 -86.0289
 -86.0289
 -86.0289
 -86.0289
 -86.0289
 -86.0289
 -86.0289
 -86.0289
 -86.0289
 -86.0289
 -86.0289
 -86.0289
 -86.0289
 -39.1663
 -77.1103
 7.83495
 -71.1227
 -86.0289
 -86.0289
 -86.0289
 -86.0289
 -86.0289
 -86.0289
 -86.0289
 -86.0289
 -86.0289
 -86.0289
 -86.0289
 -86.0289
 -86.0259
 -86.0483
 -86.0495
 -86.0315
 -86.0289
 -86.0289
 -86.0289
 -86.0289
 -86.0289
 -86.0289
 -86.0289
 -86.0289
 -86.0289
 -86.0289
 -86.0289
 -86.0289
 -86.0289
 -86.0289
 -86.0289
 -86.0289
 -85.7553
 -85.4745
 -81.2027
 -86.4959
 -29.3135
 -94.4906
 -86.0289
 -86.0289
 -86.0289
 -86.0289
 22.7782
 22.703
 22.5274
 22.5825
 -86.0289
 -86.0289
 -86.0289
 -86.0289
 -85.8642
 -85.3009
 -85.725
 -86.0921
 -86.0289
 -86.0289
 -86.0289
 -86.0289
 -86.9908
 -83.6516
 -88.9324
 -91.1957
 -86.0289
 -86.0289
 23.47
 23.8831
 -86.0287
 -86.0289
 -86.0289
 -86.0307
 -86.0242
 -86.0243
 -86.0197
 -86.0273
 -86.0289
 -86.0289
 -86.0289
 -86.0289
 -79.3016
 -88.3415
 -84.4507
 -56.8311
 -86.0289
 -86.0289
 -86.0289
 -86.0289
 23.7337
 24.0634
 24.3736
 22.7638
 22.6269
 22.9941
 22.7068
 -86.0289
 -86.0289
 -86.0289
 -86.0289
 -86.0293
 -86.0281
 -86.0281
 -86.0289
 -86.0289
 -86.0289
 -86.0289
 -86.0289
 -86.0289
 -86.0289
 -86.0289
 -86.0289
 -86.0289
 15.1152
 16.995
 12.3546
 -62.5462
 -86.0289
 -86.0289
 -86.0289
 -86.0289
 -86.0278
 -86.0413
 -86.0479
 -86.0272
 -86.0289
 -86.0289
 -86.0289
 -86.0289
 -86.0186
 -86.0231
 -86.0302
 -86.0215
 -86.0274
 23.8239
 23.1757
 22.7965
 23.0738
 -87.2293
 -84.744
 -86.8142
 -90.0785
 -86.0289
 -86.0289
 -86.0289
 -86.0289
 -86.0289
 -86.0289
 -86.0289
 -86.0289
 -86.0289
 -86.0289
 -86.0289
 -86.0289
 -86.0289
 25.657
 26.3977
 25.1568
 28.8829
 -51.7874
 6.28011
 19.0041
 29.3628
 18.5988
 26.1906
 26.5362
 -86.0289
 -86.0289
 -86.8572
 -88.6974
 -87.7199
 -86.0289
 -86.0289
 -86.0289
 -86.0289
 -85.9328
 -86.055
 -86.1278
 -85.9965
 -86.0289
 -86.0272
 -86.0296
 -86.023
 -86.0237
 22.2939
 24.578
 22.8616
 22.4689
 -86.0426
 -86.0956
 -85.905
 -86.0363
 -86.0289
 -86.0289
 -86.0289
 -86.0289
 -86.0289
 -86.0289
 -86.0289
 -86.0289
 22.8562
 22.6591
 22.935
 23.0422
 -85.7635
 -86.002
 -85.3447
 -86.0267
 22.5297
 22.4793
 22.4652
 22.6305
 -86.0289
 -86.0289
 -86.0289
 -86.0289
 -86.0289
 -86.0289
 23.4675
 22.8284
 23.4564
 23.0759
 -86.0289
 -86.0289
 -86.0289
 -86.0289
 -86.0289
 -86.0289
 -86.0289
 -86.0289
 -86.0289
 -86.0289
 13.2243
 -44.8608
 -58.0049
 18.857
 -86.0289
 -86.0289
 -86.0289
 -86.0289
 -86.0289
 -86.0289
 -86.0289
 -86.0289
 -86.0289
 -86.0289
 -86.0289
 -86.0289
 -86.0289
 -86.0289
 -86.0289
 -86.0289
 -86.0289
 -86.0289
 -86.0289
 -86.0289
 -86.0289
 -86.0289
 -86.0289
 -86.0289
 -86.0289
 -86.0289
 -86.0289
 -86.0289
 -86.0289
 -86.0289
 -86.0289
 -86.0289
 -86.0289
 -86.0289
 -86.0289
 -86.0288
 -86.0287
 -86.0289
 -86.0289
 -86.0289
 -86.0289
 -86.0289
 -86.0289
 -86.0289
 -86.0289
 -86.0289
 -86.0289
 -86.0289
 -86.0289
 -86.0289
 -86.0289
 -86.0289
 -86.0289
 -86.0289
 -86.0174
 -86.0302
 -86.05
 -86.0532
 -86.0289
 -86.0289
 -86.0289
 -66.7179
 -86.1698
 -21.7038
 -81.8331
 -86.0289
 -86.0289
 -86.0289
 -86.0289
 -86.0289
 -86.0289
 -86.0289
 -86.0289
 -86.0289
 -86.0289
 -86.0289
 -86.0289
 -86.0289
 -86.0289
 -86.0289
 -86.0297
 -86.0371
 -86.0513
 -86.03
 -86.0397
 -86.04
 -85.9749
 9.8357
 15.0635
 17.9621
 -86.0297
 -86.0305
 -86.0297
 -86.0306
 28.5795
 24.4765
 14.1772
 24.0018
 24.1628
 24.3275
 25.9867
 -86.0289
 -86.0289
 -86.0289
 -86.0289
 -86.0289
 -86.0289
 -86.0289
 -86.0289
 -86.0289
 33.424
 23.3196
 34.6937
 22.5103
 26.7246
 22.2447
 -86.0289
 -86.0289
 -86.0289
 -86.0289
 -85.6646
 -85.789
 -86.0289
 -86.0289
 -86.0289
 22.7237
 22.9511
 -86.0289
 -86.0289
 -86.0289
 -86.0289
 -86.0289
 -86.0289
 -86.0289
 -86.0039
 -81.6828
 -87.798
 -93.0682
 -86.0289
 -86.0289
 -86.0289
 -86.0289
 -86.0289
 -86.0289
 -86.0289
 -86.0289
 -86.0289
 -86.0289
 -86.0288
 -86.0289
 16.2479
 30.3118
 18.0862
 -90.546
 -88.9695
 -93.5982
 -86.4404
 -86.0289
 -86.0289
 -86.0289
 -86.0289
 -86.0289
 -86.0289
 -86.0289
 -86.0289
 -86.0289
 22.8466
 22.9229
 14.1567
 -43.8135
 21.0731
 -64.7145
 -86.0289
 -86.0289
 -86.0289
 -85.7045
 -85.9787
 -85.2456
 -86.463
 -86.0289
 -86.0289
 -86.0289
 -86.0289
 -86.0289
 -86.0289
 -86.0289
 -86.0289
 -86.0289
 -86.0289
 -86.0289
 -86.0289
 -86.0289
 -86.0289
 -86.0289
 -86.0289
 -86.0289
 -86.0289
 -86.0289
 24.4401
 25.2026
 24.6942
 25.5555
 -86.0289
 -86.0289
 24.1767
 25.0745
 23.9992
 28.4457
 -86.0289
 -86.0289
 -86.0289
 -86.0289
 -86.0289
 -86.0289
 -86.0289
 -86.0289
 -86.0289
 -86.0289
 -86.0289
 -86.0289
 -86.0289
 -86.0289
 -86.0289
 -86.0289
 -86.0289
 -86.0289
 -83.2995
 -91.1889
 -90.2901
 -93.2142
 -86.0289
 -86.0289
 -86.0289
 -86.0289
 -86.0289
 -86.0289
 -86.0289
 -86.0289
 -86.0289
 -86.0288
 -85.9211
 -86.0425
 -85.9657
 -86.0289
 -86.0289
 -86.0289
 -86.0288
 -86.0289
 -86.0289
 -86.0289
 -86.0289
 -86.0289
 -86.0289
 -86.0289
 -86.0289
 -86.0289
 -86.0289
 -86.0289
 -86.0289
 -86.0289
 -86.0289
 -86.0289
 -86.0289
 -86.0289
 -86.0289
 -86.0289
 -86.0289
 -86.0289
 -86.0289
 -86.0289
 -86.0289
 -58.2948
 24.0836
 -86.0313
 -86.0314
 -86.0316
 -86.0289
 -86.0289
 -86.0289
 -86.0289
 -86.0289
 -86.0289
 -86.0289
 -86.0289
 -86.0289
 -86.0289
 -86.0289
 -86.0289
 -92.0685
 -90.3373
 -56.9289
 -86.0289
 -86.0289
 -86.0289
 -86.0289
 -86.0289
 -86.0289
 -86.0289
 -86.0289
 -85.6426
 -85.8556
 -85.8731
 -85.5446
 -86.0289
 -86.0289
 -86.0289
 -86.0289
 0.621838
 15.846
 10.0894
 -85.8718
 -86.5181
 -85.3422
 -86.3712
 -86.0289
 -86.0289
 -86.0289
 -86.0289
 -86.0289
 -86.0289
 -86.0289
 -86.0289
 -86.0289
 -86.0289
 -86.0289
 -86.0289
 -86.0289
 -86.0289
 -86.0289
 -86.0289
 -86.0289
 -86.0289
 -86.0289
 23.992
 -86.0289
 -86.0289
 -86.0289
 -86.0289
 22.9317
 -86.0288
 -86.029
 -86.0289
 -86.0289
 -86.0289
 -86.0289
 -86.0289
 -86.0289
 -86.0289
 -86.0289
 -32.5731
 14.3773
 -84.3574
 -14.075
 -91.9936
 -84.4182
 -90.267
 -88.5214
 -86.0289
 -86.0289
 -86.0289
 -86.0289
 22.5079
 22.4585
 22.2923
 23.2023
 -86.0289
 -86.0289
 -86.0289
 -84.9663
 -79.5337
 -89.3025
 -86.0289
 -86.0289
 -86.0289
 -86.0289
 -86.0289
 -86.0289
 -86.0289
 -86.0289
 -86.0287
 -86.0293
 -86.0289
 -86.0289
 -86.0289
 -86.0289
 -86.0289
 -86.0289
 -86.0289
 -58.4978
 2.10706
 23.0906
 19.9817
 26.9157
 23.8935
 26.9563
 25.339
 -86.0289
 -86.0289
 -86.0289
 -86.0289
 -86.0487
 -85.9994
 -85.8761
 -85.9949
 -86.0285
 -86.0291
 -86.0286
 -86.0272
 -86.0289
 -86.0289
 -86.0289
 -86.0289
 27.0757
 28.9363
 19.6291
 15.6608
 -86.0289
 -86.0289
 -86.0289
 -86.0289
 -86.0289
 -86.0289
 -86.0289
 -86.0289
 -86.0289
 -86.0289
 -86.0289
 -86.0289
 -86.0289
 -86.0289
 -86.0289
 -86.0289
 -86.0289
 -86.0289
 -86.0289
 -86.0289
 -86.0289
 -86.0289
 -86.0289
 -86.0289
 -86.0289
 -86.0288
 -86.0289
 -86.0289
 -86.0289
 23.2481
 23.1223
 22.8181
 23.1354
 23.1067
 23.3174
 23.0381
 23.3543
 23.2489
 24.0873
 -86.0289
 -86.0289
 -86.0289
 -86.0289
 -86.0447
 -86.0371
 -86.0348
 -86.0286
 -82.2472
 -34.6944
 -73.7724
 -15.2486
 -86.0289
 -86.0289
 -86.0289
 -86.0289
 -86.0289
 -86.0289
 -86.0289
 -86.0289
 22.539
 22.5396
 22.5335
 22.8425
 -86.0289
 -86.0289
 -86.0289
 -86.0289
 -86.0289
 -86.0289
 -86.0289
 -86.0289
 22.8896
 22.8927
 22.5653
 23.309
 -86.0289
 -86.0289
 -86.0288
 -86.0289
 -86.0289
 -86.0289
 -86.0289
 -86.0289
 -86.0289
 -86.0289
 -86.0289
 -86.0289
 -86.0289
 -86.0289
 -86.0289
 -86.0289
 -86.0289
 -86.0289
 -86.0289
 -86.0289
 -86.0289
 -86.0289
 -86.0289
 -86.0289
 -60.9465
 -80.6354
 -83.4342
 -86.088
 25.6918
 27.1682
 26.0798
 27.8646
 -86.0286
 -86.0286
 -86.029
 -86.0289
 -86.0289
 24.6223
 23.6583
 22.8181
 24.731
 -86.0289
 -86.0289
 -86.0289
 -86.0289
 22.5316
 22.4958
 22.2477
 22.5919
 -86.0289
 -86.0289
 -86.0289
 -86.0356
 -86.0289
 -86.0289
 -86.0289
 -86.0289
 -86.0289
 -86.0289
 -86.0289
 -86.0289
 -86.0289
 -86.0289
 -86.0289
 -86.0661
 -86.03
 -86.0273
 -86.0296
 -86.0289
 -86.065
 -86.0629
 -86.0297
 -86.0289
 -86.0289
 -86.0289
 -86.0289
 -86.0289
 -86.0289
 -86.0289
 -86.0289
 -86.0289
 -86.0289
 -86.0289
 -86.0289
 -86.0386
 -86.0289
 -86.0289
 -86.0289
 -86.5043
 -86.1226
 -85.4137
 -87.7024
 10.4985
 16.5911
 20.7553
 -34.0507
 23.3266
 23.3591
 23.6383
 -86.0289
 -86.0289
 -86.0289
 -86.0289
 -86.0289
 -86.0289
 -86.0289
 17.9948
 4.01539
 24.3711
 25.0186
 26.5342
 25.8556
 -86.0289
 -86.0289
 -86.0289
 22.421
 22.3464
 22.504
 22.4338
 -61.9146
 -97.6768
 -86.3993
 -47.0929
 -86.0287
 -86.029
 -86.0289
 -86.0287
 -86.0289
 -86.0289
 -86.0289
 -86.0289
 -86.0289
 -86.0289
 -86.0289
 -86.0289
 25.9319
 30.4099
 33.43
 24.8362
 -86.0289
 -86.0289
 -86.0289
 -86.0289
 -86.0289
 -86.0289
 -86.0289
 25.5809
 26.4558
 24.3683
 24.7765
 -86.0331
 -86.0592
 -86.0264
 -86.026
 22.574
 22.6076
 22.7594
 22.4978
 -86.0289
 -86.0289
 -86.0289
 -86.0289
 -86.0289
 -86.0289
 -86.0289
 -86.0289
 -34.1208
 -50.5114
 18.8724
 -34.9961
 -86.0289
 -86.0289
 -86.0289
 -86.0289
 22.5843
 22.8294
 22.6122
 -86.0289
 -86.0289
 -86.0289
 -86.0289
 -86.0289
 -86.0288
 -86.0289
 -86.0289
 -86.0289
 -86.0289
 -86.0289
 -86.0289
 -86.0289
 -86.0289
 -86.0289
 -86.0289
 28.9009
 18.4354
 27.6386
 26.3013
 -86.0289
 -86.0289
 -86.0289
 -86.0289
 -86.0289
 -86.0289
 -86.0289
 -86.0288
 -86.0289
 -86.0289
 -86.0289
 -86.0289
 -84.8594
 -85.139
 -86.084
 -86.0434
 -86.0289
 -86.0289
 -86.0289
 -86.0289
 -86.0289
 -86.0289
 -86.0289
 -86.0289
 -86.0289
 -86.0289
 -86.0289
 -86.7396
 -85.9418
 -87.3785
 -88.7901
 -86.0289
 -86.0338
 -86.0292
 -86.029
 -86.0289
 -86.0289
 -86.0289
 -86.0289
 23.2842
 22.8837
 22.6209
 -86.0289
 -86.0289
 -86.0288
 -86.0287
 -86.0289
 -86.0289
 -86.0289
 -86.0289
 -86.0289
 -86.0289
 -86.0275
 -86.0316
 -86.0378
 -86.0299
 -86.0289
 -86.0289
 -86.0289
 -86.0289
 -86.0289
 -86.0568
 -85.9006
 -85.8642
 -85.7978
 17.7428
 9.05485
 29.5825
 1.259
 -86.0289
 -86.0289
 -86.0387
 -85.9893
 -85.6467
 -86.0318
 -86.0288
 -86.0289
 -86.0288
 -86.0288
 -86.0289
 -86.0289
 -86.0289
 -86.0289
 -86.0289
 -86.0289
 -86.0289
 -86.0289
 -49.9017
 -90.844
 25.6001
 24.2453
 24.476
 25.3762
 26.621
 23.0272
 22.9744
 23.0382
 -86.0289
 -86.0289
 -86.0289
 -86.0289
 23.6717
 25.0695
 25.3876
 26.4708
 -86.0289
 -86.0289
 -86.0289
 -86.0289
 -86.0288
 -86.0288
 -86.0282
 -86.0286
 -86.0288
 -86.0291
 -86.0287
 -86.0288
 23.8147
 24.5084
 24.7219
 23.2374
 -86.0798
 -86.0446
 -86.031
 -86.0212
 -86.0289
 -86.0289
 -86.0289
 -86.0289
 -86.0289
 -86.0289
 -86.0289
 -86.0289
 -86.0289
 -86.0289
 -86.0289
 -86.0289
 -85.829
 -86.465
 -85.666
 -85.6633
 -86.0289
 -86.0289
 -86.0289
 -86.0289
 -86.0289
 -86.0289
 -86.0289
 -86.0289
 -86.0289
 -86.0289
 -86.0289
 -86.0289
 -86.0289
 -86.0289
 -86.0289
 -86.0288
 -86.0291
 -86.0289
 -86.029
 -86.0288
 -86.0289
 -86.0289
 -86.0289
 -86.0289
 -86.0289
 -86.0289
 -86.0289
 -86.0289
 25.0223
 -86.0289
 -86.0289
 -86.0289
 -86.0289
 17.1031
 -77.5975
 17.26
 -21.1714
 -86.0289
 -86.0289
 -86.0289
 -86.0289
 -86.0289
 -86.0289
 -86.0289
 -86.0289
 -86.0289
 -86.0289
 -86.0289
 -86.0289
 -86.0289
 -86.0289
 -86.0289
 -86.0289
 -86.0289
 -86.0289
 -86.0289
 -86.0289
 -86.0289
 -86.0289
 -86.0289
 -86.0289
 23.7389
 23.4116
 23.3636
 -86.0289
 -86.0289
 -86.0289
 -86.0289
 -86.0289
 -86.0289
 23.2088
 22.5874
 22.9268
 -86.8349
 -87.1546
 -88.1286
 -86.3549
 -86.0289
 -86.0289
 -86.0289
 -86.0289
 -86.0289
 22.7408
 23.0278
 22.5986
 22.6842
 -86.0289
 -86.0289
 -86.0289
 -86.0289
 -86.0289
 -86.0289
 -86.0289
 -86.0289
 -86.0289
 -86.0289
 -86.0289
 -86.0289
 -86.0289
 -86.0289
 22.7897
 23.9812
 23.7442
 -86.0105
 -86.0546
 -85.9925
 -86.0289
 -86.0289
 -86.0289
 -86.0289
 -86.0289
 29.8925
 -86.0289
 -86.0289
 -86.0289
 -86.0289
 -86.0289
 -86.0289
 -86.0289
 -86.0289
 -86.2325
 -85.8116
 -85.899
 -86.0181
 -86.0313
 -86.0304
 -86.028
 -86.0289
 -86.0289
 -86.0289
 -86.0289
 -86.0259
 -86.0555
 -86.1347
 -86.149
 -90.1141
 -86.1221
 -86.7522
 -87.6648
 -86.0289
 -86.0292
 -86.0282
 -86.0283
 -86.0366
 22.5052
 22.6291
 22.6094
 22.6523
 -86.0289
 -86.0289
 -86.0289
 -86.0289
 22.7836
 22.5875
 22.7583
 22.907
 -86.0289
 -86.0289
 -86.0289
 22.4011
 22.5431
 22.4838
 22.3059
 -86.0289
 -86.0289
 -86.0289
 -86.0289
 -85.9306
 -85.9111
 -85.6553
 -86.1567
 -86.0289
 -86.0289
 -86.0289
 -86.0289
 22.9588
 -12.7107
 -85.9139
 -68.2419
 -91.7779
 27.0736
 25.4937
 26.0679
 -86.0289
 -86.0289
 -86.0289
 -86.0289
 -85.9466
 -85.8868
 -85.9972
 -86.015
 -86.0289
 -86.0285
 -86.0286
 -86.0289
 -86.0289
 -86.0289
 -86.0289
 -86.0289
 22.8784
 22.6144
 -86.0289
 -86.0289
 -86.0289
 -86.0289
 -86.0289
 -86.0289
 -86.0289
 -86.069
 -86.0499
 -85.8063
 -85.4399
 -86.0379
 -86.0283
 -85.9337
 -85.8528
 -86.0289
 -86.0289
 -86.0292
 -86.0289
 -86.0289
 -86.0289
 -86.0289
 -86.0289
 -86.0289
 -86.0289
 -86.0289
 -86.0289
 -86.0289
 -86.0289
 -86.0289
 -86.0289
 -86.0289
 -86.0289
 -86.0289
 -86.0289
 -86.0289
 -86.0289
 -86.0289
 -86.0289
 -86.0289
 -86.0289
 -86.0289
 -86.0289
 -86.0289
 -86.0289
 -86.0289
 -86.0197
 -85.9364
 -85.9577
 -86.0289
 -86.0289
 -86.0289
 -86.0289
 -86.0289
 -86.0289
 -86.0289
 -86.0289
 -86.0289
 -86.0289
 -86.0289
 -86.0289
 -55.0653
 -77.0602
 23.6661
 23.1865
 22.95
 23.6967
 -86.5778
 -85.9178
 -86.3294
 -85.761
 -86.0289
 -86.0289
 -86.0289
 -86.0289
 22.5898
 22.5887
 23.1547
 22.5255
 22.5472
 22.3525
 22.36
 -86.0289
 -86.0289
 -86.0289
 -86.0289
 -86.0289
 -86.0289
 -86.0289
 -86.0289
 -86.0289
 -86.0289
 -86.0289
 -86.0289
 -86.0289
 -86.0289
 -86.0289
 -86.0292
 -86.0275
 -86.0346
 -86.0284
 -86.0289
 -86.0289
 -86.0289
 -86.0289
 -86.0289
 -86.0289
 -86.0289
 -86.0289
 22.4379
 22.6575
 22.3772
 22.5738
 -86.0289
 -86.0289
 -86.0289
 -86.0289
 -86.0289
 -86.0289
 -86.0289
 -86.0289
 -86.0208
 -86.0396
 -79.1823
 18.6442
 12.8057
 -9.14867
 -86.0289
 -86.0289
 -86.0289
 -86.0289
 -86.0289
 -86.0289
 -86.0289
 -86.0289
 -86.0289
 -86.0289
 -86.0289
 -86.0289
 -86.0289
 -86.0289
 -86.0289
 -86.0289
 -86.0289
 -86.0289
 -86.0289
 -86.0289
 -86.0289
 -86.0289
 -86.0289
 -86.0289
 -86.0289
 -86.0289
 -86.0289
 -86.0289
 -86.0289
 -86.0289
 -86.0289
 -86.0289
 -86.0289
 -86.0289
 -86.0289
 -86.0299
 -86.0258
 -86.0322
 -86.0205
 -86.0289
 -86.0289
 -86.0289
 -86.0289
 -86.0289
 -86.0289
 -86.0289
 -86.0289
 -86.0289
 -86.0289
 -86.0289
 -82.0721
 20.1938
 -86.0289
 -86.0289
 -86.0289
 -86.0289
 -86.0289
 -86.0289
 -86.0289
 -86.0289
 -86.027
 -86.0246
 -86.0256
 -86.0352
 -86.0289
 -86.0289
 -86.0289
 -86.0289
 -86.0289
 -86.0289
 -86.0289
 -86.0289
 -86.0289
 -86.0289
 -86.0289
 -86.0289
 -86.0289
 -86.0289
 -86.0289
 24.9695
 24.6426
 23.5331
 24.658
 -86.0275
 -86.0274
 -86.0291
 -86.0289
 -86.0289
 -86.0289
 -86.0289
 -86.0289
 -86.0289
 -86.0289
 -86.0289
 -86.0289
 -86.0289
 -86.0289
 -86.0289
 -86.0289
 -86.0289
 -86.0289
 -86.0289
 -86.0289
 -86.0289
 -86.0289
 -86.0289
 -86.0289
 -86.0289
 -86.0289
 22.4942
 22.7192
 23.5379
 23.2078
 -86.0288
 -86.0288
 -86.0288
 -86.0288
 -86.0289
 -86.0289
 -86.0289
 -86.0289
 -86.0289
 -86.0289
 26.2875
 23.4643
 26.5983
 23.005
 -86.0289
 -86.0289
 -86.0289
 -86.0289
 -86.0289
 -86.0289
 -86.0289
 -86.0289
 -86.0289
 -86.0289
 -86.0289
 -86.0289
 -86.0289
 -86.0289
 -86.0289
 -86.0289
 -86.0289
 -86.0289
 -86.0433
 -86.0422
 -86.0276
 -86.0346
 -86.0289
 -86.0289
 -86.0289
 -86.0289
 -86.0289
 -86.0289
 -86.0289
 -86.0289
 -86.0289
 -86.0289
 -86.0289
 -86.0289
 -86.0289
 -86.0289
 -86.0289
 -86.0289
 -86.0289
 -86.2091
 -85.9659
 -86.0864
 -86.0631
 -86.0289
 -86.0289
 -86.0289
 -86.0289
 -86.0289
 -86.0289
 -86.0289
 -86.0289
 -86.0289
 -86.0289
 -86.0289
 -86.0289
 -86.0289
 -86.0289
 -86.0289
 24.385
 11.6449
 17.9747
 -60.6459
 -86.0289
 -86.0289
 -86.0289
 -86.0289
 -73.5951
 -25.4261
 7.66348
 -86.0305
 -86.0292
 -86.0281
 -86.0284
 -87.2589
 -75.9288
 -86.9746
 -72.2919
 -86.0289
 -86.0289
 -86.0289
 -86.0289
 -86.0289
 -86.0289
 -85.9641
 -86.1422
 -85.7411
 -86.0288
 -86.0287
 -86.0288
 -86.0292
 -86.0289
 -86.0289
 -86.0289
 -86.0289
 -86.0289
 -86.0289
 -86.0289
 -86.0289
 -86.0289
 -86.0289
 -86.0289
 -86.0289
 -86.0289
 -86.0289
 -86.0289
 -86.0289
 -86.0289
 -86.0289
 -86.0288
 -86.0289
 -86.0289
 -86.0289
 -86.0289
 -86.0289
 -86.0289
 -86.0289
 -86.0082
 -86.0293
 -86.0235
 -86.0376
 -86.0289
 -86.0289
 -86.0288
 -86.0288
 -86.0289
 -86.0289
 -86.0289
 -86.0289
 -86.0289
 -86.0289
 -86.0289
 22.7791
 22.9517
 22.685
 -86.0289
 -86.0289
 -86.0289
 -86.0289
 -85.9703
 -85.7978
 -86.0289
 -86.0289
 -86.0289
 -86.0289
 -86.0289
 -86.0289
 -86.0289
 -86.032
 -86.1688
 -86.0677
 -87.0309
 -86.0292
 -86.0227
 -86.0264
 -86.0231
 -46.6871
 -44.402
 19.9203
 -86.0289
 -86.0289
 -86.0289
 -86.0289
 -86.0289
 17.8635
 -43.7206
 19.6262
 20.9032
 -86.0289
 -86.0289
 -86.0289
 -86.0289
 -86.0289
 -86.0289
 -86.0289
 -86.0289
 -85.7833
 -86.0673
 -85.5072
 -85.9941
 -86.0289
 -86.0289
 -86.0289
 -86.0289
 -86.0289
 22.502
 -86.0289
 -86.0289
 -86.0289
 -86.0289
 -86.0289
 -86.0289
 -86.0289
 -86.0289
 -86.0289
 -86.0289
 -86.0289
 -86.0289
 -86.0289
 -86.0289
 -86.0289
 -86.0289
 -86.0289
 -86.0289
 -86.0289
 -86.0289
 -86.0289
 -86.0289
 -86.0289
 -86.0289
 -86.0289
 -86.0289
 -86.0289
 -85.6447
 -88.1146
 -85.8259
 23.8991
 24.6502
 23.9824
 23.4631
 -86.0289
 -86.0289
 -86.0289
 -86.0289
 -86.0289
 -86.0289
 -86.0289
 -86.0289
 -86.0289
 27.2321
 26.0715
 28.7996
 23.8128
 -86.0677
 -86.0483
 -86.0752
 -86.035
 -86.0289
 -86.0289
 -86.0289
 -86.0289
 -86.0289
 -86.0289
 -86.0289
 -86.0289
 -86.0289
 -86.0289
 -86.0289
 -86.0213
 -86.0312
 -86.0272
 -86.0173
 -86.0304
 -86.0276
 -86.0317
 -86.0285
 -86.0289
 -86.0289
 -86.0382
 -86.031
 -86.1069
 -86.0531
 -86.0289
 -86.0289
 -86.0289
 -86.0289
 23.2008
 22.8159
 -86.0289
 -86.0289
 -86.0289
 -86.0289
 -86.0686
 -86.0488
 -86.0388
 -85.9853
 -86.0269
 -86.0319
 -86.021
 -86.0297
 -86.0289
 -86.0289
 -86.0289
 -86.0289
 -86.0289
 -86.0289
 -86.0289
 -86.0289
 -86.0289
 -86.0289
 -86.0289
 -86.0289
 -86.0289
 -86.0289
 -86.0289
 -86.0289
 -86.0289
 -86.0289
 -86.0289
 -86.0289
 -86.0289
 -86.0289
 -86.0289
 -86.0289
 -86.0289
 -86.0289
 -86.0289
 -86.0289
 -86.0289
 -86.0289
 -86.0289
 -86.0289
 -86.0289
 -86.0289
 -86.0289
 -86.0289
 -86.0289
 -86.0289
 -86.0289
 -86.0289
 -86.0289
 -86.0289
 -86.0201
 -86.0277
 22.6085
 22.6555
 22.6321
 22.6692
 -86.0289
 -86.0289
 -86.0289
 -86.0289
 -86.0289
 -86.0289
 -86.0289
 -86.0289
 -86.0289
 -86.0289
 -86.0289
 -86.0289
 -86.0289
 -86.0288
 -86.0289
 -86.0289
 -86.0287
 -86.0289
 -86.0289
 -86.0289
 -86.0289
 -86.0289
 -86.0289
 -86.0289
 -86.0289
 -86.0289
 -86.0289
 -86.0289
 -86.0289
 -86.0289
 -86.0289
 -86.0289
 -86.0289
 -86.0289
 -86.0289
 -86.0289
 -86.0289
 -86.0289
 -86.0289
 -86.0289
 -86.0289
 -86.0289
 -86.0289
 -86.0289
 -86.0289
 -86.0289
 -86.0289
 -86.0289
 -86.0289
 -86.0289
 -86.0289
 -86.0289
 -86.0289
 -86.0289
 -86.0289
 -86.0289
 -86.0289
 -86.0289
 -86.0289
 -86.0289
 -86.0289
 -86.0289
 -86.0289
 -86.0289
 -86.0289
 -86.0289
 -86.0289
 -86.0289
 -86.0289
 -86.0289
 -86.0289
 -86.0289
 -86.0289
 -86.0289
 -86.0289
 -86.029
 -86.0289
 -86.0289
 -86.0289
 -86.0289
 -85.4797
 -86.0109
 -85.5316
 -86.0289
 -86.0289
 -86.0289
 21.383
 -20.6894
 17.5493
 -86.0289
 -86.0289
 -86.0289
 -86.0289
 22.9122
 22.6953
 23.0144
 22.6589
 -86.0289
 -86.0289
 -86.0289
 -86.0289
 -86.0289
 -86.0289
 -86.0289
 -86.0289
 -86.0289
 -86.0289
 -86.0289
 -85.9912
 -85.9051
 -86.0104
 -85.8112
 23.1566
 -35.1487
 -86.0289
 -86.0289
 -86.0289
 -86.0289
 -86.0289
 -86.0289
 -86.0289
 -86.0289
 -86.0289
 -86.0289
 -86.0289
 -86.0289
 -86.0289
 -86.0289
 -86.0289
 -86.0289
 -86.0289
 -86.0289
 -86.0289
 -86.0289
 -86.0289
 -86.0286
 -86.0288
 -86.0288
 -86.0287
 -85.8768
 -86.0768
 -85.9874
 -86.0583
 -86.0289
 -86.0289
 -86.0289
 -86.0289
 -86.0288
 -86.0288
 -86.0309
 -86.0241
 -86.0314
 -86.0259
 25.5502
 24.8242
 25.8758
 -86.0289
 -86.0289
 -86.0289
 -86.0325
 -86.0276
 -86.0284
 -86.0289
 -86.0289
 -86.0289
 -86.0289
 -86.0289
 -86.0289
 -86.0289
 -86.0289
 -86.0289
 -86.0289
 -86.0289
 -86.0289
 -86.0289
 -86.0289
 -86.0289
 -86.0289
 -86.0289
 -86.0289
 -86.0289
 -86.0278
 -86.0298
 -86.0213
 -86.0311
 -86.0278
 -86.028
 -86.029
 -86.029
 -86.0289
 -86.0289
 -86.0289
 -86.0289
 -86.0289
 -86.0289
 -86.0289
 -86.0289
 -86.0289
 -86.0289
 -86.0289
 -86.0289
 23.0835
 22.9475
 -67.8009
 -90.0437
 -82.771
 -50.5195
 22.5056
 -86.0289
 -86.0289
 -86.0289
 -86.0289
 -86.0289
 -86.0289
 -86.0289
 -86.0289
 -86.0289
 -86.0289
 -86.0289
 -86.0289
 -86.0289
 -86.0289
 -91.0787
 -87.0335
 -71.4231
 -86.5948
 23.6663
 20.6933
 25.005
 22.5805
 -85.8202
 -85.9625
 -86.0839
 -86.0289
 -86.0289
 -86.0289
 25.4451
 26.4242
 24.6785
 24.8634
 -86.0289
 -86.0289
 -86.0289
 -86.0289
 -85.1946
 -85.6963
 -86.105
 -85.5594
 -86.0289
 -86.0289
 -86.0289
 -86.0289
 -86.0289
 -86.0289
 -86.0289
 22.6561
 22.5364
 22.6563
 22.6964
 -86.0289
 -86.0289
 -86.0289
 -86.0289
 -86.0289
 -86.0289
 -86.0289
 22.6412
 22.4893
 22.4385
 -86.0289
 -86.0289
 -86.0289
 -86.0289
 -86.0289
 25.4278
 23.9713
 26.1766
 26.3916
 -86.0289
 -86.0289
 -86.0289
 -86.0289
 -86.0351
 -86.03
 -86.0261
 -86.0328
 -86.0289
 -86.0289
 -86.0289
 -86.0289
 -86.0289
 -86.0289
 -86.0289
 -86.029
 -86.0289
 -86.0288
 -86.0289
 -86.0289
 -86.0289
 -86.0289
 -86.0289
 -86.0289
 -86.0289
 -86.0289
 -86.0289
 25.2615
 25.1276
 25.0106
 26.263
 25.9697
 26.4198
 -86.0289
 -86.0289
 -86.0289
 -86.0289
 -86.0289
 -86.0289
 -86.0289
 -86.0289
 -86.0289
 -86.0289
 -86.0289
 -86.0289
 -86.0289
 -86.0289
 -86.0289
 -86.0289
 -86.0289
 -86.0289
 -86.0289
 -86.0289
 23.1157
 -86.0289
 -86.0289
 -86.0289
 -86.0289
 23.4251
 23.8415
 23.0939
 -86.0288
 -86.0289
 -86.0289
 -86.0289
 -86.0289
 -86.0289
 -86.0289
 -86.0289
 -86.0289
 -86.0289
 -86.0289
 -86.0289
 -86.0288
 -86.0289
 -86.0293
 -86.0283
 -86.0289
 -86.0289
 -86.0289
 -86.0289
 -86.0289
 -86.0289
 23.1351
 23.4061
 24.3161
 23.4241
 -86.0289
 -86.0289
 -86.0289
 -86.0289
 -86.0289
 -86.0289
 -86.0289
 -86.0289
 -86.0289
 -86.0289
 -86.0287
 -86.0285
 -86.0291
 -86.0289
 -86.0289
 -65.7677
 15.3111
 -89.21
 -61.1757
 -86.0636
 -85.0477
 -85.8338
 -85.9611
 22.3162
 22.3889
 22.3744
 22.7512
 -86.0289
 -86.0289
 -86.0289
 -86.0289
 -86.0288
 -86.0325
 -86.0286
 -86.0291
 -85.1777
 -16.286
 19.3846
 -86.0289
 -86.0289
 -86.0289
 -86.0289
 -86.0289
 -86.0289
 -86.0289
 -86.0289
 -86.0289
 -86.0289
 -86.0292
 -86.0291
 -86.0279
 -86.0301
 -86.0289
 -86.0289
 -86.0289
 -86.0289
 -86.0289
 -86.0288
 -86.0293
 -86.0288
 -86.0289
 -86.0289
 -86.0289
 -86.0289
 -86.0289
 -86.0289
 -86.0289
 -65.5075
 -90.1459
 -77.8294
 26.8388
 27.4674
 26.5356
 24.3636
 -86.1272
 -89.3472
 -83.0393
 -86.0614
 -85.9197
 -86.0438
 -86.0289
 -86.0289
 -86.0289
 -86.0289
 -86.0289
 -86.0289
 -88.8914
 -82.4675
 -90.8493
 -91.0657
 -86.0289
 -86.0289
 -86.0289
 -86.0289
 -86.0289
 -86.0289
 -86.0289
 -86.029
 -86.0288
 -86.0289
 -86.0289
 -86.0289
 -86.0289
 -86.0289
 -86.0289
 -86.0289
 -86.0289
 -86.0289
 -86.0289
 -86.0289
 -86.0289
 -86.0289
 -86.0289
 -86.0289
 -86.0289
 -86.0289
 -86.0289
 -86.0289
 -86.0289
 -86.0289
 -86.0289
 -86.0289
 -86.0289
 -86.0289
 -86.0289
 -86.0289
 -86.0287
 -86.0286
 -86.0287
 -86.0296
 -86.0289
 -86.0289
 -86.0289
 -86.0289
 22.7022
 22.4073
 22.6562
 22.4085
 -86.0289
 -86.0289
 -86.0289
 -86.0289
 -86.0289
 -86.0289
 -86.0289
 -86.0289
 -86.0289
 -86.0289
 -86.0289
 -86.0289
 -86.0289
 -86.0289
 -86.0289
 -86.0289
 -86.0289
 -86.0289
 -86.0289
 -86.0289
 28.2631
 29.6842
 17.0797
 24.1723
 24.0882
 23.9156
 24.8068
 -86.0289
 -86.0289
 22.5887
 22.4749
 22.5474
 -84.9262
 -84.9055
 -46.8588
 -4.41501
 -86.0289
 -86.0289
 -86.0289
 22.6323
 22.4209
 22.7401
 22.4496
 -86.0289
 -86.0289
 -86.0289
 -86.0289
 -86.0289
 -86.0289
 -86.0289
 -86.0289
 -86.0289
 -86.0289
 -86.0289
 -86.0289
 -86.0289
 -86.0289
 -86.0289
 -86.0289
 -86.0289
 -86.0288
 -86.0289
 -86.0289
 -86.0289
 -86.0289
 -86.0289
 -86.0289
 22.4454
 23.0373
 22.5552
 -86.0289
 -86.0289
 -86.0289
 -86.0289
 -86.0289
 -86.0289
 -86.0289
 -86.0289
 23.1225
 22.4344
 22.7069
 22.7618
 -86.0289
 -86.0289
 -86.0289
 -15.7006
 21.4827
 25.6492
 -86.0289
 -86.0289
 -86.0289
 22.6222
 23.2029
 23.1738
 22.4728
 23.8246
 21.9883
 18.3037
 -54.7329
 -86.0289
 -86.0289
 -86.0289
 -86.0289
 -86.0289
 -86.0289
 -86.0289
 -86.0289
 -85.624
 -85.4335
 -85.9898
 -91.4091
 -86.0289
 -86.0289
 -86.0289
 -86.0289
 -86.0289
 -86.0289
 -86.0289
 -86.0289
 19.7249
 -76.3332
 10.3795
 -38.1163
 22.6022
 -86.0289
 -86.0289
 -86.0289
 -86.0289
 26.032
 26.2354
 26.9447
 24.7449
 -86.0289
 -86.0289
 -86.0289
 -86.0289
 22.5226
 22.6536
 22.5447
 22.6759
 -86.0289
 -86.0289
 -86.0289
 -86.0289
 -86.0289
 -86.0289
 -86.603
 -85.2893
 -85.981
 -85.427
 -86.0289
 -86.0289
 -86.0289
 -86.0289
 -86.0289
 -86.0289
 -85.4265
 -85.7219
 -86.0489
 -86.0421
 -86.0299
 -86.029
 -86.025
 -86.0284
 -86.0289
 -86.0289
 -86.0289
 -86.0289
 -86.0289
 -86.0289
 -86.0289
 -86.0289
 -86.0289
 -86.0289
 -86.0289
 -86.0289
 22.4114
 22.9631
 22.4783
 22.7858
 -86.0289
 -86.0289
 -86.0289
 -86.0289
 22.5655
 23.3366
 -86.0289
 -86.0289
 -86.0289
 -86.0289
 -86.0289
 -86.0289
 -86.0289
 22.7157
 22.4678
 22.5881
 22.2512
 -86.0289
 -86.0289
 -86.0289
 -86.0289
 -86.0289
 -86.0289
 -86.0289
 -86.0289
 -86.0289
 -86.0289
 -86.0289
 -86.0313
 -86.0027
 -86.03
 -86.0154
 -86.0289
 -86.0289
 -86.0289
 -86.0289
 -85.5858
 -86.0288
 -86.0289
 -86.0292
 -86.0288
 23.2214
 23.5082
 25.7314
 22.8607
 22.9264
 23.1143
 23.5751
 -86.0289
 -86.0289
 -86.0289
 -86.0289
 23.0588
 23.0881
 22.9961
 22.5792
 -86.0289
 -86.0289
 -86.0289
 -86.0289
 -86.0289
 -86.0289
 -86.0289
 -86.0289
 -86.0289
 -86.0289
 -86.0289
 -86.0289
 -86.0289
 -86.0289
 -86.0289
 -86.0289
 -86.0289
 -86.0289
 -86.0289
 -86.0289
 -86.0289
 -86.0289
 -86.0289
 -86.0289
 16.8076
 -8.93876
 -64.5797
 -86.0289
 -86.0289
 -86.0289
 -86.0289
 25.664
 23.9668
 25.6645
 -86.0289
 -86.0289
 -86.0289
 -86.0289
 -86.0289
 -86.0289
 -86.0289
 -86.0289
 -86.0289
 -86.0289
 -86.0289
 -86.0289
 27.6626
 25.0101
 27.0421
 -86.0289
 24.8808
 -86.0289
 -86.0289
 -86.0289
 -86.0289
 -86.0289
 -86.0289
 -86.0289
 -86.0289
 -86.0289
 -86.0289
 -86.0289
 -86.0289
 -86.0289
 -86.0289
 -86.0289
 -86.0289
 -86.0289
 -86.0289
 -86.0289
 -86.0289
 -86.0289
 -86.0289
 -86.0289
 -86.0289
 -86.1143
 -86.0305
 -85.2094
 -86.0289
 -86.0289
 -21.3409
 -90.1167
 -81.5236
 -88.7767
 -86.0289
 -86.0289
 -86.0289
 -86.0289
 -86.0289
 -86.0289
 -86.0289
 -86.0289
 -86.0289
 -86.0289
 -86.0289
 -86.0289
 -86.0289
 -86.0289
 -86.0289
 -86.024
 -86.0279
 -86.0245
 -86.0241
 -86.0289
 -86.0289
 -86.0289
 -86.0289
 -86.0289
 -86.0289
 -86.0289
 -86.0289
 -86.0289
 -86.0289
 -86.0289
 -86.029
 -86.0286
 -86.029
 -86.0284
 -86.0289
 -86.0289
 -86.0289
 -86.0289
 -86.0289
 -86.0289
 -86.0289
 -86.0289
 -86.0289
 -86.0289
 -86.0289
 -86.0289
 -86.0289
 -86.0289
 -86.0289
 -86.0289
 -86.0289
 -86.0289
 -86.0289
 23.7947
 22.964
 23.3356
 23.2296
 -86.0289
 -86.0289
 -86.0289
 -86.0289
 -86.0289
 -86.0289
 -86.0289
 -86.0289
 -86.0289
 -86.0289
 -86.0289
 -86.0289
 -86.0289
 -86.0289
 -86.0289
 -86.0289
 24.2988
 24.7
 24.5827
 24.6877
 -86.0289
 -86.0289
 -86.0289
 -86.0289
 -86.0289
 -86.0289
 -86.0289
 -86.0289
 -86.0289
 -86.0289
 -86.0289
 -86.0289
 -86.0289
 -86.0293
 -86.0292
 -86.0268
 -86.0289
 22.64
 22.5418
 22.6174
 22.6617
 -86.0289
 -86.0289
 -86.0289
 -86.0289
 -86.0289
 -86.0289
 -86.0289
 -86.0282
 -86.029
 -86.029
 -86.0286
 -86.0289
 -86.0289
 -86.0289
 -86.0289
 -86.0289
 -86.0289
 -86.0289
 -86.0289
 -86.0289
 -86.0289
 -86.0289
 -86.2046
 -91.193
 -88.5039
 -87.2224
 -86.2977
 -89.1469
 -84.7265
 -86.0289
 -86.0289
 -86.0289
 -86.0289
 -86.0289
 -86.0289
 -86.0289
 -86.0289
 -86.0289
 -86.0289
 -86.0289
 -86.0289
 -86.0289
 -86.0289
 -86.0289
 -86.0289
 -86.0289
 -86.0289
 -86.0289
 -86.0289
 -90.8545
 -86.0392
 -85.4487
 -86.0289
 -86.0289
 -86.0289
 -86.0289
 -86.0289
 -86.0289
 -86.0289
 -86.0289
 -86.0289
 -86.0289
 -86.0289
 -86.0289
 -86.0289
 -86.0289
 26.3849
 26.309
 13.1846
 -86.0289
 -86.0289
 -86.0289
 -86.0289
 -86.0289
 -86.0289
 -86.0289
 -86.0289
 -86.0283
 -86.0287
 -86.029
 -86.0289
 -86.0289
 -86.0289
 -86.0289
 -86.0289
 -86.0289
 -86.0289
 -86.0289
 -86.0289
 -86.0289
 -86.0289
 -86.0289
 -86.0289
 22.2684
 -45.6001
 -53.3633
 19.1935
 22.8616
 26.5546
 27.0051
 24.2252
 -86.0289
 -86.0289
 -86.0289
 -86.0289
 -86.0289
 -86.0289
 -86.0289
 -86.0289
 -86.0289
 -86.0289
 -86.0289
 -86.0289
 -86.0289
 -86.0289
 -86.0289
 -86.0289
 -86.0289
 -86.0289
 -86.0289
 -86.0289
 -86.0289
 -86.0289
 -73.8196
 -89.1023
 -84.7209
 -86.5831
 -86.0289
 -86.0289
 -86.0289
 -86.0289
 -86.0289
 -86.0289
 -86.0289
 -89.5955
 -85.8873
 -63.8954
 -55.5736
 -86.0289
 -86.0289
 -86.0289
 -86.0289
 27.4749
 20.0543
 27.8852
 26.2149
 -85.5501
 -86.2308
 -86.8794
 -85.8338
 -86.0289
 -86.0289
 -86.0289
 -86.0289
 -86.0312
 -86.0335
 -86.0254
 -86.0281
 -86.0289
 -86.0289
 -86.0289
 -86.0289
 -86.2433
 -86.118
 -86.0045
 -86.0289
 -86.0289
 -86.0289
 -86.0289
 -86.0289
 -86.0289
 -86.0289
 -86.0289
 -86.0289
 -86.0289
 -86.0203
 -84.7114
 -85.7656
 -85.9052
 -85.3525
 -85.5835
 -86.0919
 -86.0289
 -86.0289
 -86.0289
 -86.344
 -85.5569
 -86.1243
 -90.869
 -86.0289
 -86.0289
 -86.0289
 -86.0289
 -86.0289
 -86.0289
 -86.0289
 -86.0289
 -86.0289
 -86.0289
 -86.0289
 -86.0289
 25.9803
 25.5088
 27.7742
 26.1087
 -64.0447
 17.6349
 8.78786
 -70.7961
 23.8217
 22.8567
 23.1493
 23.6254
 27.1564
 -86.0289
 -86.0289
 -86.0289
 -86.0289
 -86.0289
 -86.0289
 -86.0289
 -86.0289
 -86.0289
 -86.0289
 -86.0289
 -86.0289
 -86.0289
 -86.0289
 -86.0289
 -86.0289
 -86.0289
 -86.0289
 -86.0289
 -86.0289
 -86.0289
 -86.0289
 -86.0289
 -86.0289
 -86.0289
 24.3626
 24.2526
 23.7209
 -86.0289
 -86.0289
 -86.0289
 -86.0289
 13.1377
 -79.8452
 -49.6647
 -19.3628
 -86.0289
 -86.0287
 -86.029
 -86.0289
 -86.0289
 -86.0289
 -86.0288
 -86.0364
 -86.0279
 -82.0695
 -87.8599
 -86.0283
 -86.0272
 -86.0287
 -86.0289
 -86.0289
 -86.0289
 -86.0289
 25.527
 24.8836
 25.9227
 27.3948
 -86.0289
 -86.0289
 -86.0289
 -86.0289
 -86.0289
 -86.0289
 -86.0289
 -86.0289
 -86.0289
 -86.0289
 -86.0289
 -86.0289
 -86.0289
 -86.0289
 -86.0289
 -86.0289
 -86.0289
 -86.029
 -86.0298
 -86.029
 -86.0321
 30.447
 27.3263
 -86.0289
 -86.0289
 -86.0289
 -86.0289
 -86.0289
 -86.0289
 -86.0289
 -86.0289
 -92.2742
 -38.8213
 -85.1166
 -99.5672
 -86.0289
 -86.0289
 -86.0289
 -86.0289
 -86.0289
 -86.0289
 -86.0289
 -86.0289
 -86.0289
 -86.0289
 -86.0289
 -86.0289
 -86.0289
 -86.0289
 -86.0289
 -86.0289
 -86.0289
 -86.0289
 -86.0289
 -86.0289
 -86.0289
 -86.0289
 -86.0289
 -86.0289
 -86.0289
 -86.0289
 -86.0289
 -86.0289
 -86.0289
 -86.0289
 -86.0289
 -86.0289
 -86.0289
 -86.0289
 -86.0289
 -86.0289
 -86.0289
 -86.0289
 -86.0289
 -86.0289
 -86.0289
 -86.0288
 -86.0289
 -86.029
 -86.0289
 -88.2584
 -78.6794
 -54.7635
 -90.2029
 -86.0399
 -86.0581
 -85.8678
 -87.8933
 -86.0289
 -86.0289
 -86.0289
 -86.0289
 -86.0289
 -86.0289
 -86.0289
 -86.0289
 -86.0289
 -86.0289
 -86.0289
 -86.0289
 -86.0289
 22.3527
 -86.0289
 -86.0289
 -86.0289
 -86.0289
 -86.0289
 -86.0289
 -86.0289
 -86.0289
 -86.0289
 -86.0289
 -86.0289
 -87.2382
 -87.8016
 -79.529
 -87.1143
 -86.3344
 -86.0078
 -85.1622
 -86.7618
 -85.8875
 -86.5167
 -86.103
 -86.0109
 -86.0289
 -86.0289
 -86.0289
 -86.0289
 -86.0289
 -86.0289
 -86.0289
 -86.0289
 -86.0289
 -86.0289
 -86.0291
 -86.0288
 -86.0289
 -86.0289
 -86.0289
 -86.0289
 23.2321
 26.0518
 24.721
 -86.0289
 -86.0289
 -86.0289
 -86.0289
 -86.0289
 25.1024
 23.2509
 24.1302
 24.4004
 -86.0289
 -86.0289
 -86.0289
 -86.0289
 -86.0289
 -86.0289
 -86.0289
 -86.0289
 -86.0289
 -86.0289
 -86.0289
 -86.0289
 -86.0289
 -86.0289
 -86.0289
 -86.0289
 -86.0289
 -86.0289
 -86.0289
 -86.0289
 23.0869
 22.8822
 23.2927
 22.7093
 25.5648
 27.3978
 23.4269
 23.9948
 24.5631
 23.4575
 -87.7433
 -88.1099
 -86.0289
 -86.0289
 -86.0289
 -86.0289
 -86.0289
 -86.0289
 -86.0289
 -86.0289
 -86.0289
 -86.0289
 -86.0289
 25.6052
 24.4571
 25.3608
 25.1154
 -86.0303
 -86.0141
 -86.0292
 -86.0289
 -86.0289
 -86.0289
 -86.0289
 -86.0289
 -86.0289
 -86.0289
 -86.0289
 29.0287
 25.7344
 10.8479
 23.4953
 -86.0289
 -86.0289
 -86.0289
 -86.0289
 -86.0288
 -86.029
 -86.0289
 -86.0289
 -86.0289
 -86.0289
 -86.0289
 -86.0289
 -86.0289
 -86.0289
 -86.0289
 -86.0289
 -86.0289
 -86.0289
 -86.0289
 -86.0289
 -86.0289
 -86.0289
 -86.0289
 -56.5713
 -43.702
 -90.0951
 -74.7814
 -87.3227
 -78.1806
 -86.0289
 -86.0289
 -86.0289
 -86.0289
 -85.4228
 -86.0628
 -85.6677
 -86.0288
 -86.0293
 -86.029
 -86.0288
 -84.9708
 8.35013
 -79.9084
 -13.2506
 -86.0289
 -86.0289
 -86.0289
 -86.0289
 23.2687
 24.4534
 -86.0289
 -86.0289
 -86.0289
 -86.0289
 -86.0289
 -85.921
 -85.8991
 -85.7177
 -86.0289
 -86.0289
 -86.0289
 -86.0289
 -86.0287
 -86.0288
 -86.0289
 -86.0292
 -86.0289
 -86.0289
 -86.0289
 -86.0289
 -86.0289
 -86.0289
 -86.0289
 -86.0289
 -86.0289
 -86.0289
 -86.0289
 -86.0289
 -86.0289
 -86.0289
 -86.0289
 -86.0289
 -86.0289
 -86.0289
 -86.0289
 -86.0289
 -86.0289
 -56.9386
 -6.99152
 -37.7107
 -86.0267
 -86.0441
 -86.0245
 -86.0289
 -86.0289
 -86.0289
 -86.0289
 -86.0289
 -86.0289
 -86.0289
 -86.0289
 23.2063
 -7.11018
 5.11041
 -34.8594
 -85.7943
 -86.0261
 -86.0289
 -86.0289
 -86.0289
 -86.0272
 -86.0292
 -86.0289
 -86.0288
 -86.0292
 -86.029
 -86.0289
 -86.0289
 -86.0289
 -86.0289
 -86.0289
 23.249
 23.6364
 -86.0289
 -86.0289
 -86.0289
 -86.0289
 -86.0289
 -86.0289
 -86.0289
 -86.03
 -86.0256
 -86.0289
 -86.0289
 -86.0289
 -86.0289
 -86.0289
 -86.0289
 -86.0289
 -86.0289
 -86.0289
 -86.0289
 -86.0289
 -86.0289
 -86.0289
 -86.0289
 -86.0289
 -86.0289
 -86.0289
 -86.0289
 -86.0289
 -86.0289
 -86.0289
 -86.0289
 -86.0289
 -86.0289
 -86.0289
 -86.0289
 -86.0289
 -86.0288
 -86.0289
 -86.0289
 -86.0289
 23.1353
 24.6608
 27.8204
 27.3863
 -86.0289
 -86.0289
 -86.0289
 -86.0289
 -86.0289
 -86.0289
 -86.0289
 -86.0289
 -86.0086
 -85.9654
 -86.0289
 -86.0289
 -86.0289
 -86.0289
 -86.0289
 25.2859
 25.7401
 18.1273
 25.3213
 -86.0289
 -86.0289
 -86.0289
 -86.0289
 -86.0289
 -86.0289
 -86.0289
 -86.0289
 -86.0289
 -86.0289
 -86.0289
 -86.0289
 -86.0289
 -86.0288
 -86.0289
 -86.0288
 -86.0289
 -86.0289
 -86.0289
 -86.0289
 -86.0289
 -86.0289
 22.7358
 22.7524
 22.8949
 24.9606
 24.5258
 25.6009
 -86.0289
 -86.0289
 -86.0289
 -86.0289
 -86.0289
 -86.0289
 -86.0289
 -86.0289
 29.4442
 23.5887
 28.5268
 -86.0289
 -86.0289
 -86.0289
 -86.0289
 -86.0289
 -86.0289
 -86.0289
 -86.0289
 -86.0279
 -86.0265
 -86.035
 -86.0251
 -86.0286
 -86.0276
 -86.0317
 -86.0287
 -86.0283
 -86.0288
 -86.0281
 -85.715
 -85.6933
 -86.9231
 -85.8792
 -86.0289
 -86.0289
 -86.0289
 -86.0289
 -86.0289
 -86.0289
 -86.0289
 -86.0289
 -86.0289
 -86.0289
 -86.0289
 -86.0289
 -86.0289
 -86.0326
 -86.0239
 -86.0068
 -86.0115
 -86.0289
 -86.0289
 28.5943
 -33.3714
 17.1769
 -68.54
 -86.0324
 -86.0281
 -86.0288
