 -0.82675
 -1.18119
 -1.1073
 -1.32961
 -8.37142
 -8.46705
 -8.69661
 -8.82925
 -6.21428
 -5.92984
 -6.27721
 -5.95486
 -6.54999
 -6.26048
 -6.18699
 -6.0417
 -12.0436
 -12.3613
 -11.828
 -11.6938
 -11.602
 -11.2741
 -11.8485
 -11.3955
 0.462673
 0.692131
 0.618845
 0.472122
 0.325502
 0.237877
 0.235957
 0.385393
 -11.6752
 -11.5255
 -11.15
 -11.5112
 -11.4325
 -11.4912
 -11.3626
 -11.9231
 1.27951
 1.41565
 1.20449
 1.16358
 -6.18033
 -6.22294
 -5.93151
 -6.11798
 -2.08166
 -2.05172
 -1.84234
 -2.27891
 -8.78765
 -8.29316
 -8.12221
 -8.44858
 -4.85436
 -4.76599
 -4.95213
 -5.1741
 -0.302126
 -0.117663
 -0.435932
 -0.132963
 -10.4383
 -10.6751
 -10.4171
 -10.8034
 -7.01075
 -6.80695
 -7.09666
 -6.87783
 -4.99666
 -5.09127
 -5.13704
 -5.32828
 -10.1117
 -10.1098
 -10.2901
 -10.5396
 0.272262
 0.556852
 0.255981
 0.457321
 -12.9314
 -13.0008
 -13.3386
 -13.3331
 3.47229
 3.60152
 3.62127
 3.42997
 -7.88263
 -8.00423
 -7.65363
 -7.62064
 -4.50084
 -4.30138
 -4.53026
 -4.6467
 -5.42114
 -5.49649
 -5.33181
 -5.24119
 -3.24719
 -3.55855
 -3.70216
 -3.27699
 -0.205463
 -0.0137318
 -0.233613
 -0.207444
 -1.93148
 -1.86007
 -1.62439
 -1.77632
 -8.41333
 -8.3738
 -8.19087
 -7.97536
 -4.64274
 -5.09589
 -4.54716
 -4.7128
 -2.1111
 -2.32923
 -2.32047
 -2.11718
 -7.19299
 -6.84397
 -7.25094
 -6.91985
 -8.42805
 -8.26677
 -8.24959
 -8.31061
 -2.12561
 -1.86718
 -2.16404
 -1.73176
 -0.608753
 -0.577965
 -0.552978
 -0.569516
 -6.996
 -6.54331
 -6.93558
 -6.81941
 1.00321
 0.890972
 0.855923
 0.800022
 -7.57245
 -7.59736
 -8.16653
 -8.01244
 -13.808
 -13.4651
 -13.676
 -13.3854
 -5.80081
 -5.7288
 -5.8766
 -5.45647
 -8.12484
 -8.41456
 -8.28143
 -8.16687
 0.679452
 0.691922
 0.505351
 0.841556
 -6.9875
 -6.74377
 -6.84897
 -7.17177
 -11.5506
 -11.4425
 -11.7949
 -11.6069
 -1.40574
 -1.61537
 -1.52339
 -1.42933
 -7.05073
 -7.51514
 -7.39438
 -7.43359
 -0.555075
 -0.769492
 -0.575154
 -0.336727
 -2.26212
 -2.08608
 -1.99638
 -1.90803
 -5.01827
 -4.78012
 -4.73036
 -4.50469
 -0.16816
 -0.0864252
 -0.0110235
 -0.168066
 -5.38882
 -5.12178
 -5.14436
 -5.33846
 -2.68709
 -2.37604
 -2.6953
 -2.25539
 -5.87466
 -6.04882
 -5.83192
 -6.04305
 -1.81489
 -2.03632
 -1.89002
 -2.21394
 -6.03435
 -5.98259
 -6.25888
 -5.79745
 -7.75741
 -7.80002
 -7.99172
 -8.17871
 -8.14816
 -7.9594
 -8.13648
 -7.65463
 -1.56218
 -1.53428
 -1.21697
 -1.68563
 -3.21553
 -3.06562
 -3.10734
 -3.44025
 3.07743
 3.20654
 3.317
 3.16826
 -1.86146
 -1.80189
 -1.56105
 -1.81623
 -4.61217
 -4.99935
 -4.81794
 -4.90042
 -2.76234
 -2.74023
 -3.13844
 -2.54524
 -2.57024
 -2.86893
 -2.52726
 -2.81008
 0.00741759
 0.149057
 -0.034253
 -0.0471639
 -10.3951
 -10.8148
 -10.9477
 -10.3572
 -11.9718
 -12.1345
 -12.2679
 -12.3613
 -5.28802
 -5.64561
 -5.01857
 -5.22217
 -1.96599
 -1.89111
 -2.0882
 -1.76767
 -7.58925
 -7.76268
 -7.93265
 -7.57055
 0.179363
 0.646216
 0.468403
 0.464783
 0.300655
 0.485382
 0.570165
 0.253082
 3.43726
 3.57328
 3.3843
 3.42591
 -5.99011
 -6.33216
 -6.1351
 -6.44165
 -1.41869
 -1.70734
 -1.76798
 -1.45013
 -0.829486
 -0.639759
 -0.9052
 -1.00039
 -12.6079
 -12.9584
 -12.815
 -13.0034
 -0.396048
 -0.307569
 -0.116051
 -0.365198
 -0.846576
 -0.719088
 -0.562192
 -0.825384
 -1.27943
 -1.47813
 -1.25785
 -1.05094
 -3.74053
 -3.6669
 -3.92408
 -3.87277
 -0.98197
 -1.26565
 -1.06546
 -1.15189
 -2.20898
 -2.36757
 -2.44687
 -2.28966
 -3.21922
 -3.14243
 -3.03459
 -2.92624
 -0.445114
 -0.161784
 -0.525866
 -0.221103
 3.95409
 4.00121
 3.75058
 3.74299
 0.0655247
 -0.0293968
 -0.175893
 -0.0457239
 -6.182
 -5.99505
 -6.31599
 -5.80848
 -6.25739
 -6.15567
 -6.42622
 -6.16406
 -7.9659
 -7.83032
 -7.71271
 -8.12637
 0.497994
 0.522804
 0.45876
 0.363035
 -13.2125
 -13.196
 -12.9549
 -13.462
 -7.76496
 -8.06636
 -7.74178
 -7.80958
 0.89704
 0.896355
 1.11147
 1.12458
 -2.36506
 -2.36058
 -2.24255
 -2.72097
 -0.729334
 -0.906414
 -0.523306
 -0.668948
 -0.808542
 -0.680019
 -0.67098
 0.428893
 0.455134
 0.478333
 0.561576
 -6.91224
 -6.70618
 -6.499
 -7.03835
 -3.31
 -3.70747
 -3.55185
 -3.34581
 -6.45393
 -6.7769
 -6.54699
 -1.9478
 -1.59766
 -1.8194
 -1.70924
 -4.07614
 -4.28448
 -4.20319
 -3.88938
 -9.72986
 -9.28151
 -9.30351
 -9.95054
 0.108866
 0.0620815
 -0.25753
 -0.138205
 -0.593455
 -0.419291
 -0.303836
 -0.445629
 -6.048
 -5.70019
 -5.61665
 -5.74212
 -7.56632
 -7.35654
 -7.92167
 -7.86741
 0.608667
 0.589308
 0.68771
 0.852415
 -0.447877
 -0.511272
 -0.890109
 -0.77936
 -2.99956
 -3.32372
 -3.50899
 -3.05255
 -11.6099
 -11.8695
 -11.7073
 -11.7701
 -6.07289
 -6.43071
 -6.54712
 -6.38452
 -4.29449
 -3.83823
 -4.24405
 -4.28305
 3.02859
 3.25887
 3.01431
 3.02921
 -3.62473
 -3.37583
 -3.72146
 -3.91609
 -9.70811
 -9.34368
 -9.71943
 -9.1953
 -1.19975
 -0.823622
 -1.37159
 -1.24467
 -0.541009
 -0.592759
 -0.337947
 -0.482014
 -0.376823
 -0.139882
 -0.213222
 -0.277011
 1.57301
 1.5924
 1.58852
 1.49476
 -0.989801
 -0.620539
 -0.648874
 -0.642121
 -6.19569
 -6.14443
 -6.19202
 -5.95637
 0.599155
 0.529424
 0.457517
 0.368823
 -11.0112
 -10.6977
 -10.9091
 -11.03
 0.273169
 0.568919
 0.530957
 0.302445
 -9.58699
 -9.04387
 -9.61333
 -9.27388
 -3.37353
 -3.12494
 -3.13551
 -3.32734
 -2.52994
 -2.77712
 -2.87816
 -2.60672
 -1.56796
 -1.57843
 -1.92266
 -1.65794
 -1.0738
 -1.06991
 -0.870924
 -0.795211
 -12.893
 -13.1728
 -13.2746
 -13.231
 -1.28952
 -1.146
 -1.28558
 -1.17562
 -13.7143
 -13.4368
 -13.6335
 -13.2361
 -7.62319
 -7.54519
 -7.958
 -7.65307
 2.37341
 2.12795
 2.18002
 2.38407
 -12.0448
 -11.9504
 -12.264
 -12.398
 -0.329295
 -0.602984
 -0.372193
 -0.163634
 2.40385
 2.53429
 2.5998
 2.42407
 -8.88775
 -8.78224
 -8.60812
 -8.79107
 -12.224
 -12.6393
 -12.3343
 -12.1811
 -5.04223
 -5.13122
 -4.96468
 -4.90056
 -8.38786
 -7.98682
 -8.49809
 -8.08222
 -0.725944
 -0.430385
 -0.586907
 -0.540763
 -5.69209
 -5.57157
 -5.69506
 -5.99636
 -2.37063
 -2.24372
 -2.46467
 -2.48975
 0.261083
 0.149906
 0.308851
 0.312061
 1.13176
 1.17963
 1.18772
 0.990286
 -3.40881
 -3.29071
 -3.57955
 -3.19448
 -4.31967
 -4.32966
 -4.21874
 -4.0256
 -0.662685
 -0.619392
 -0.799404
 -0.876701
 -0.586316
 -0.260254
 -0.5761
 -0.52258
 -6.5742
 -6.60884
 -6.34183
 -6.37869
 -11.6755
 -11.5163
 -11.9567
 -12.0371
 -11.0613
 -10.797
 -11.1174
 -11.1819
 -10.868
 -10.4288
 -10.5191
 -10.7489
 -7.1408
 -6.94094
 -7.22456
 -6.89843
 -0.56763
 -0.234348
 -0.488564
 -0.390767
 -0.688642
 -0.867717
 -0.93547
 -0.983049
 -4.15718
 -4.04011
 -3.6538
 -3.62829
 -7.66753
 -7.47492
 -8.0155
 -7.79218
 -7.51534
 -7.3091
 -7.42454
 -7.67755
 -5.1058
 -4.82153
 -5.02821
 -5.08537
 -6.0527
 -6.33201
 -5.95964
 -6.03355
 0.89149
 0.921587
 0.799122
 0.586812
 4.7219
 4.84247
 4.7038
 4.93443
 -1.28289
 -1.25478
 -0.965019
 -1.13351
 4.10097
 3.86993
 3.92907
 -1.17351
 -1.11282
 -1.26471
 -0.959249
 -10.1513
 -9.90965
 -10.0618
 -9.82181
 -4.784
 -4.9507
 -5.02287
 -5.25932
 -11.4389
 -11.2879
 -11.7228
 -11.2498
 -0.517761
 -0.559905
 -0.290357
 -0.526262
 -7.23613
 -7.14821
 -7.65156
 -7.52749
 -5.19697
 -5.18593
 -4.8231
 -4.98473
 -12.5909
 -12.7917
 -12.9181
 -12.344
 -9.09477
 -9.03037
 -9.1834
 -9.52887
 -1.31144
 -1.58303
 -1.39977
 -1.30021
 -7.24985
 -7.20585
 -6.89103
 -7.25561
 -9.66335
 -9.08729
 -9.42295
 -9.16126
 2.37621
 2.64514
 2.54574
 2.62928
 -4.67076
 -4.80204
 -4.9765
 -5.018
 -9.54528
 -9.67279
 -9.81446
 -9.52893
 -6.40963
 -6.7062
 -6.18109
 -6.87456
 -9.34478
 -8.95932
 -9.40249
 -9.35821
 -0.77332
 -1.00547
 -1.14231
 -1.13959
 -9.128
 -9.83717
 -9.1025
 -9.70212
 -3.23926
 -3.40231
 -2.91412
 -3.20802
 -3.8513
 -3.98962
 -4.1876
 -3.78721
 -9.00438
 -8.92379
 -8.63315
 -9.18346
 -13.7306
 -13.4664
 -13.4553
 -13.6496
 0.911022
 0.774011
 0.652116
 0.577808
 -2.07414
 -2.31676
 -2.45948
 -2.1392
 -5.78616
 -5.59106
 -5.43201
 -5.52541
 -9.02936
 -9.26629
 -9.21273
 -9.27172
 -1.41308
 -1.21638
 -1.30137
 -1.31649
 0.471635
 0.188554
 0.0598638
 0.410651
 -7.52481
 -7.54537
 -7.10996
 -7.1391
 -6.51079
 -6.80571
 -6.50495
 -6.62979
 -12.1836
 -12.4664
 -12.7388
 -12.1909
 -0.128537
 -0.442731
 -0.0612961
 -0.287104
 -12.2182
 -12.5073
 -12.4454
 -12.2675
 -2.00949
 -2.32686
 -2.13682
 -2.03777
 4.57345
 4.60239
 4.51649
 4.46596
 -10.6366
 -10.8982
 -11.0361
 -10.896
 -6.93188
 -7.13066
 -6.75793
 -6.41997
 -10.7338
 -10.7609
 -10.5242
 -10.469
 -4.08625
 -3.75594
 -4.0117
 -4.13698
 -3.46383
 -3.64055
 -3.70542
 -3.51202
 -8.49077
 -8.05713
 -8.12689
 -8.2333
 -0.530011
 -0.654536
 -0.410449
 -0.585813
 -0.0999602
 -0.250247
 -0.265717
 -0.164153
 3.3151
 3.42805
 3.43241
 3.47768
 -5.28456
 -5.5182
 -5.64255
 -5.80143
 -4.37352
 -4.21869
 -4.71661
 -4.38629
 -6.35472
 -5.85127
 -6.16542
 -6.44855
 -2.19448
 -2.5915
 -2.62679
 -2.13044
 -11.8223
 -11.7762
 -12.0323
 -11.4559
 -12.1962
 -12.7971
 -12.2229
 -12.1133
 -6.6115
 -6.77871
 -7.07126
 -7.08624
 5.84616
 5.87314
 5.81339
 5.71416
 -3.16976
 -2.99467
 -3.22937
 -2.84903
 -3.34527
 -3.26123
 -2.94853
 -3.26305
 -3.16715
 -3.22513
 -2.87735
 -2.88982
 -8.82329
 -8.66262
 -9.12451
 -8.60369
 2.76259
 2.52771
 2.90091
 2.77011
 3.5518
 3.56008
 3.73184
 3.79575
 -8.95423
 -8.67466
 -8.96922
 -8.57039
 -1.73562
 -2.07793
 -1.6096
 -2.03743
 -2.6939
 -2.64568
 -2.76177
 -2.77437
 -6.7626
 -6.58674
 -6.49097
 -6.14579
 -0.245984
 -0.386373
 -0.485351
 -0.346284
 -9.2102
 -8.8486
 -8.91053
 -9.19186
 -2.26742
 -1.7844
 -2.01936
 -1.65398
 -1.84407
 -1.78792
 -1.56231
 -1.77816
 0.465654
 0.608223
 0.343363
 0.644239
 -2.95709
 -3.34202
 -3.09522
 -3.37218
 -9.95306
 -10.1621
 -10.1392
 -9.85681
 -7.19477
 -7.59329
 -7.7217
 -7.35113
 -0.282881
 -0.24312
 -0.477416
 -0.480283
 -1.37577
 -1.71183
 -1.71512
 -1.387
 -11.074
 -11.2174
 -11.4635
 -11.3351
 -8.99946
 -8.72603
 -8.89126
 -8.76861
 -3.42157
 -3.3047
 -3.11631
 -3.30909
 0.586221
 0.532327
 0.550805
 0.452218
 1.89583
 1.52548
 1.59826
 1.8361
 -6.70151
 -6.37683
 -6.21454
 -6.548
 0.224159
 0.460447
 0.240735
 0.724517
 -10.3809
 -9.9296
 -9.93209
 -10.3394
 -5.81675
 -6.27222
 -6.00308
 -5.71778
 -9.6076
 -9.5117
 -9.37382
 -9.48817
 -7.47068
 -7.06043
 -7.07898
 -7.32764
 -3.30228
 -3.13439
 -3.30891
 -3.51237
 -0.759574
 -0.325436
 -0.429251
 -0.608388
 1.49594
 1.13242
 1.45446
 1.41754
 0.645678
 0.965782
 0.61832
 0.722711
 -0.655189
 -0.364026
 -0.307917
 -0.443214
 -3.84717
 -3.95349
 -3.91509
 -3.44066
 -3.84235
 -3.93874
 -3.97396
 -3.65818
 -4.19796
 -3.92182
 -4.44849
 -4.15425
 -6.64554
 -6.43736
 -6.76303
 -6.70198
 2.60793
 2.83687
 2.75973
 2.77993
 -5.02553
 -5.10089
 -4.95766
 -5.2782
 -0.229394
 0.0439148
 -0.0700409
 -0.140388
 -2.61465
 -3.00356
 -2.72558
 -2.93907
 -11.9869
 -11.3854
 -11.9123
 -11.7745
 -3.74463
 -3.58702
 -3.57934
 -3.44792
 0.246061
 0.379134
 0.302078
 0.577841
 -2.64416
 -2.58958
 -2.81505
 -2.97444
 -0.840124
 -0.994511
 -0.974723
 -0.757209
 -3.44775
 -3.08572
 -3.4798
 -3.19876
 2.52738
 2.707
 2.6203
 2.45348
 -2.68046
 -2.69981
 -2.95349
 -2.98314
 -6.85045
 -6.75779
 -7.00512
 -6.7754
 -6.09871
 -6.13387
 -6.27861
 -6.1502
 -11.2367
 -10.522
 -11.1043
 -10.809
 -1.38227
 -1.33507
 -1.58863
 -1.40867
 -0.765738
 -0.944706
 -0.746582
 -1.21297
 -11.0126
 -10.5407
 -11.0432
 -10.9612
 -0.902958
 -0.906347
 -1.19307
 -0.910811
 -9.85785
 -9.69929
 -10.0825
 -9.6841
 -4.81643
 -5.28137
 -4.9934
 -5.19142
 -3.83824
 -3.39912
 -3.80911
 -3.91631
 -0.641419
 -0.912142
 -0.86929
 -0.629207
 -3.50914
 -3.49443
 -3.83888
 -3.49853
 -10.0631
 -9.90863
 -10.0938
 -10.1336
 4.69028
 4.63319
 4.58739
 4.82022
 0.676078
 0.723447
 0.723747
 0.653394
 0.527568
 0.493349
 0.535107
 0.704735
 -1.74902
 -1.86826
 -1.6064
 -1.9981
 -2.624
 -2.39219
 -2.57416
 -2.43291
 -1.50379
 -1.36245
 -1.29015
 -1.54526
 -12.1881
 -12.002
 -12.6257
 -11.9354
 -0.517293
 -0.349922
 -0.375645
 -0.710225
 -6.28422
 -6.34032
 -6.47044
 -6.11985
 -3.93385
 -9.03342
 -8.62057
 -8.72747
 -8.67787
 -5.79065
 -6.05855
 -6.2951
 -6.10801
 1.0711
 0.911795
 0.852224
 0.969851
 -2.01062
 -1.88595
 -2.10076
 -2.29189
 -1.18894
 -0.926231
 -1.11654
 -1.16964
 -9.79762
 -9.41474
 -9.45808
 -9.49779
 -2.97176
 -2.51708
 -2.83585
 -2.69873
 -10.1468
 -10.2296
 -9.77562
 -9.81833
 -7.33303
 -7.55614
 -7.18603
 -7.65918
 0.96892
 0.811916
 0.90828
 0.62444
 -0.597498
 -0.31712
 -0.78161
 -0.59753
 -6.79324
 -7.02076
 -7.05378
 -6.78503
 -3.58762
 -3.19758
 -3.56834
 0.342928
 0.4692
 0.387794
 0.240365
 -6.62825
 -6.06762
 -6.4219
 -6.12718
 -1.14882
 -0.857533
 -0.88111
 -1.06511
 -3.56585
 -3.1142
 -3.33861
 -3.59707
 -10.8563
 -10.8554
 -10.334
 -10.7771
 -1.68085
 -1.56666
 -1.40631
 -1.64079
 -9.03015
 -8.62332
 -8.97531
 -9.10375
 -4.11875
 -3.91301
 -4.1211
 -3.77226
 -8.18087
 -7.94968
 -7.63725
 -7.85542
 -10.4764
 -10.4856
 -10.8995
 -10.7093
 -1.85373
 -1.81512
 -2.02857
 -2.0114
 4.62702
 4.33877
 4.38341
 4.22876
 -12.5822
 -12.3172
 -12.362
 -12.2566
 -6.29221
 -6.15129
 -5.96382
 -6.14919
 -0.122945
 -0.0968046
 -0.563603
 -0.197425
 -2.61456
 -2.83061
 -2.89501
 -2.59113
 2.16298
 2.10041
 2.10737
 2.30238
 -10.2933
 -10.4824
 -10.9586
 -10.5614
 0.408472
 0.551776
 0.4785
 0.454143
 -5.06568
 -5.36686
 -4.91792
 -5.14641
 -0.417316
 0.0675971
 -0.307912
 -0.304798
 -13.1115
 -13.0367
 -13.0772
 -12.6419
 -12.8094
 -12.7261
 -12.4798
 -12.2275
 -7.48003
 -7.1266
 -7.03872
 -7.54334
 -5.30197
 -5.4328
 -5.33054
 -5.08559
 -5.41559
 0.125783
 0.0715131
 0.375853
 0.175435
 -0.281374
 -0.182849
 -0.102443
 -0.370875
 -6.70541
 -7.04249
 -7.05887
 -7.07047
 0.125537
 -0.0733179
 -0.0792722
 0.135275
 -0.859861
 -0.790465
 -0.742851
 -0.998023
 -7.30049
 -7.42698
 -7.35728
 -7.03439
 -2.04605
 -2.38525
 -2.04555
 -2.37843
 -6.83562
 -6.86872
 -6.93283
 -7.17499
 -0.992321
 -0.925593
 -0.716011
 -0.978108
 -1.71579
 -1.92163
 -1.96065
 -1.99207
 -3.15035
 -3.44319
 -3.02816
 -3.35175
 -5.24576
 -5.61578
 -5.39394
 -5.74738
 -8.57134
 -8.38781
 -8.91684
 -8.87494
 -4.81842
 -4.72324
 -4.54347
 -4.58094
 -4.78588
 -4.93971
 -5.03988
 -4.9572
 1.03697
 1.04333
 0.920866
 0.842474
 -6.31336
 -6.38628
 -6.51458
 -6.42952
 -4.01867
 -4.09398
 -4.2193
 -3.98974
 -4.39953
 -4.38741
 -4.1612
 -4.35323
 -2.17903
 -2.2686
 -1.95439
 -2.14529
 0.388213
 0.412239
 0.287417
 0.605868
 -7.92962
 -7.8927
 -8.11679
 -8.14211
 0.297058
 0.487908
 0.419308
 0.116428
 -12.3611
 -12.3257
 -12.7878
 -12.5375
 -8.99458
 -8.73478
 -9.21788
 -9.05679
 -9.24885
 -9.28704
 -9.28159
 -9.16191
 -9.34414
 -9.22889
 -9.17318
 -9.56523
 -7.29245
 -7.46075
 -7.11903
 -7.47416
 2.0752
 2.21207
 2.44569
 -4.68476
 -4.24865
 -4.626
 -4.54439
 -8.68645
 -8.55861
 -8.43178
 -8.6972
 -2.00742
 -1.69206
 -1.86472
 -1.94118
 -1.01021
 -1.07012
 -0.911588
 -1.11405
 -7.54052
 -7.5943
 -7.89821
 -7.22509
 -3.07291
 -2.99258
 -3.12774
 -3.36022
 -1.25032
 -1.26837
 -1.18281
 -1.12831
 -12.043
 -12.4933
 -6.05396
 -5.99334
 -5.65896
 -5.68695
 -3.26845
 -3.19448
 -3.00616
 -5.06168
 -5.15558
 -5.08183
 -4.7958
 1.55446
 1.62398
 1.36968
 1.39782
 -9.04571
 -9.33512
 -9.31541
 -8.9335
 -4.96654
 -4.88154
 -4.69929
 -4.73424
 -1.97454
 -1.7262
 -1.85432
 -2.10125
 -4.46032
 -4.12733
 -4.23734
 -4.37371
 0.195699
 0.311012
 0.123551
 0.222455
 0.812581
 0.406521
 0.701338
 0.629261
 -3.01981
 -3.26561
 -3.34652
 -3.17451
 0.160649
 0.222506
 0.173316
 -0.0211684
 -3.41476
 -3.25663
 -3.31818
 -3.19937
 -9.5301
 -9.45599
 -9.04207
 -8.99069
 -0.0226712
 -0.167471
 -0.264107
 -0.118827
 3.25947
 3.05728
 3.21281
 3.09273
 -5.73274
 -5.14021
 -5.51185
 -5.59706
 -2.66928
 -2.87862
 -2.62183
 -2.88051
 0.241717
 0.282017
 0.0515289
 0.101941
 -3.32952
 -3.15381
 -3.46951
 -3.44404
 -10.9652
 -10.8386
 -11.0854
 -10.9995
 -0.762257
 -0.750138
 -0.626159
 -0.761868
 -5.76628
 -5.51545
 -5.51799
 -5.4464
 -2.55931
 -2.86448
 -2.63943
 -3.05806
 -7.18015
 -7.40673
 -7.36313
 -7.64523
 -9.53272
 -9.45754
 -9.67321
 -9.35094
 -0.0959028
 -0.306431
 -0.169376
 -0.538311
 -1.57135
 -1.77347
 -1.72097
 -1.66496
 -5.23132
 -5.19535
 -4.79901
 -5.04056
 0.36526
 0.276996
 0.308772
 0.234909
 4.56778
 4.72592
 4.71267
 4.61268
 -4.38174
 -4.10241
 -4.11674
 -4.0563
 4.97488
 5.02004
 4.95363
 4.81853
 4.61919
 4.40608
 4.42666
 4.53429
 1.4138
 1.25693
 1.29652
 1.48323
 -6.33663
 -6.09489
 -5.89147
 -5.75238
 -6.16352
 -6.41279
 -6.44304
 -6.66162
 -6.65946
 -6.41893
 -6.61147
 -6.24999
 -5.71563
 -5.35921
 -5.43621
 -5.82433
 2.42107
 2.58533
 2.46418
 2.48989
 -0.170346
 -0.0537249
 -0.320034
 -0.212506
 -0.0574064
 0.205609
 0.143336
 0.148991
 -2.12816
 -2.44246
 -2.14678
 -2.4705
 -4.77211
 -4.58222
 -4.7897
 -4.63306
 -7.23995
 -7.14925
 -6.99999
 -7.26407
 -0.546063
 -0.837947
 -0.91848
 -0.62448
 -6.39378
 -3.3981
 -3.63898
 -3.63527
 -3.46665
 -12.8183
 -12.9346
 -13.3521
 -13.0883
 -2.86234
 -2.90594
 -3.0994
 -2.8981
 -10.304
 -10.7832
 -10.4286
 -0.0185837
 -0.143179
 -0.243288
 0.022461
 4.07315
 3.88218
 3.96805
 3.85103
 -3.65898
 -3.63654
 -4.01945
 -3.46451
 -2.15171
 -1.76665
 -1.84802
 -1.80983
 0.141482
 -0.0100512
 -0.166496
 -0.247337
 -0.278548
 -0.362189
 -0.157036
 -0.394316
 1.72848
 2.02395
 1.84419
 1.83489
 -5.21937
 -5.14764
 -5.36053
 -5.82872
 -3.61433
 -3.94509
 -3.52973
 -3.7918
 -1.42172
 -1.16568
 -1.40855
 -1.30075
 -3.08427
 -2.87451
 -3.42461
 -7.74455
 -7.56435
 -7.50084
 -0.718548
 -0.753017
 -0.415223
 -0.354911
 1.60299
 1.68371
 1.6785
 1.60729
 -1.13658
 -1.31862
 -1.28798
 -1.07765
 1.43129
 1.65402
 1.38115
 1.73808
 -8.19605
 -8.69853
 -8.32597
 -8.44441
 -7.42268
 -7.57611
 -7.67894
 -7.90012
 0.354006
 0.440503
 0.398993
 0.430815
 2.00914
 2.29996
 2.09749
 2.01673
 -4.4973
 -4.08203
 -4.43412
 -4.2753
 -11.6985
 -11.3084
 -11.8147
 -11.3848
 1.5779
 1.58693
 1.69991
 1.57225
 -6.29271
 -5.96147
 -5.92187
 -6.36432
 3.39396
 3.52688
 3.39257
 3.48652
 -7.17371
 -7.36021
 -7.10583
 -7.63732
 -2.35509
 -2.11704
 -2.48392
 -2.05614
 -8.16891
 -8.19367
 -8.52066
 -8.51132
 0.0709974
 -0.0120102
 -0.0488554
 -0.271794
 -1.81875
 -1.58888
 -1.61815
 -1.6043
 -0.780436
 -0.688467
 -0.965712
 -0.954174
 -1.10257
 -1.01495
 -1.32106
 -0.85894
 -4.40146
 -4.61028
 -4.56214
 -4.27565
 -2.88311
 -2.64161
 -2.93287
 -2.91373
 -8.68362
 -8.38466
 -8.1401
 -8.20979
 -12.3118
 -12.6077
 -11.9559
 -11.966
 -2.55321
 -2.51998
 -2.30774
 -2.49113
 -9.47027
 -9.32245
 -9.18043
 -9.71141
 -6.8884
 -7.33319
 -7.54296
 -7.26187
 2.48511
 2.59035
 2.80047
 2.51119
 0.427762
 -0.00641759
 0.0878436
 0.216336
 -2.26044
 -2.0684
 -1.99057
 -2.09107
 1.62837
 1.77989
 1.82515
 1.94598
 -4.68307
 -5.01988
 -4.97877
 -4.84793
 -8.1169
 -8.76304
 -8.40913
 -8.45667
 1.49498
 1.165
 1.47504
 1.49914
 -3.16641
 -3.41641
 -3.23895
 -3.28786
 -1.18263
 -1.15917
 -1.16757
 -1.03566
 4.4866
 4.3335
 4.31834
 4.47505
 -1.84849
 -1.8069
 -1.77789
 -2.03875
 -3.62233
 -3.82592
 -3.78235
 -3.85957
 -6.8396
 -7.19217
 -6.96048
 -7.29061
 -0.930109
 -0.997558
 -1.0679
 -3.62936
 -3.5695
 -3.48271
 -3.57823
 -1.60069
 -1.54269
 -1.92769
 -1.68464
 -6.15417
 -5.84562
 -6.10106
 -6.00229
 -6.18971
 -6.54887
 -6.5059
 -6.40829
 -10.0792
 -9.76314
 -9.96897
 -9.56275
 -0.326424
 -0.366872
 -0.528973
 -0.302019
 -11.4637
 -11.608
 -11.7717
 -11.5464
 -0.729076
 -0.960266
 -0.761771
 -0.629832
 -3.57493
 -3.91617
 -3.87605
 -4.07367
 -4.02387
 -3.68651
 -3.80241
 -3.62845
 4.79478
 4.95756
 4.80524
 4.83807
 -1.43951
 -1.26805
 -1.4595
 -1.5007
 -3.38137
 -3.33223
 -3.60061
 -3.93763
 -3.1494
 -3.24048
 -3.27777
 -2.90737
 -12.6433
 -12.6276
 -12.2717
 -12.6036
 -0.720041
 -0.9856
 -1.13891
 -0.794498
 -1.09671
 -0.939254
 -1.22215
 -0.870888
 -7.0183
 -7.36264
 -7.06868
 -7.27065
 -0.037975
 0.00899907
 0.151827
 0.176495
 0.00357541
 0.0574291
 -0.101794
 0.0710953
 -5.96555
 -5.54548
 -5.92892
 -5.70334
 -6.25443
 -6.23825
 -5.95765
 -6.24583
 -4.2177
 -4.24269
 -4.69037
 -4.52619
 -0.957754
 -0.827239
 -5.30883
 -5.04913
 -5.4757
 -5.12385
 -1.05688
 -1.19846
 -1.06342
 -1.12033
 -2.51361
 -2.81741
 -2.91527
 -2.80314
 -10.4532
 -10.2373
 -10.0577
 -10.535
 -2.70374
 -2.79263
 -2.94156
 -2.99637
 -7.66689
 -7.93934
 -8.1048
 -7.56954
 -0.563057
 -0.999879
 -0.846846
 -0.97968
 -2.06032
 -1.81093
 -1.76386
 -1.89543
 -3.33207
 -3.82152
 -3.54921
 -3.64551
 -0.264039
 -0.044047
 0.0438527
 -0.105715
 3.13541
 3.0792
 3.17522
 3.2909
 -11.4653
 -11.3822
 -11.2537
 -11.3951
 1.4631
 1.49118
 1.37859
 1.54518
 -4.87807
 -5.01021
 -4.68426
 -4.70744
 3.15255
 3.13832
 3.00839
 3.21852
 -5.11648
 -5.42943
 -5.20158
 -5.16411
 -0.812169
 -0.782386
 -0.698075
 -0.716305
 -0.712793
 -0.780497
 -0.535549
 -0.681475
 -4.21784
 -4.34114
 -3.97151
 -4.21311
 -8.86241
 -8.45784
 -8.76752
 -8.39095
 -1.93058
 -2.34216
 -2.26818
 -2.28364
 0.404654
 0.478108
 0.394236
 0.288101
 -8.66157
 -9.18894
 -8.91426
 -9.2937
 -0.789174
 -0.575136
 -0.913554
 -0.933274
 -2.07746
 -2.35101
 -2.28184
 -2.44584
 -6.98829
 -7.64472
 -7.50374
 -7.26778
 -3.974
 -4.27294
 -4.34511
 -4.34946
 -2.95528
 -2.80722
 -2.98375
 -3.1267
 -10.3496
 -10.6332
 -10.8026
 -10.929
 -9.06628
 -9.19557
 -9.18796
 -8.9977
 -4.69726
 -4.74418
 -4.34071
 -4.517
 -2.95509
 -3.11868
 -2.84339
 -3.44322
 -1.49296
 -1.58407
 -1.60568
 -1.96032
 0.456893
 0.48067
 0.649642
 -7.5316
 -7.76269
 -7.65642
 -7.96775
 3.31343
 3.44628
 3.61842
 3.587
 -6.38208
 -5.95769
 -6.18518
 -6.11591
 -0.397524
 -0.0849309
 -0.250287
 -0.271768
 0.113313
 0.338788
 0.275572
 0.300682
 -9.39812
 -9.01148
 -9.20695
 -9.73802
 -3.9901
 -3.80156
 -4.10562
 -3.89171
 -3.1158
 -3.01665
 -1.03044
 -2.553
 -2.84919
 -2.5082
 -2.69767
 3.1238
 2.96535
 -5.8775
 -6.02127
 -6.16291
 0.955704
 0.814359
 1.1278
 0.945397
 -6.09453
 -5.7282
 -5.83693
 -5.84812
 -2.05352
 -2.33122
 -2.25263
 -2.23367
 -0.91599
 -1.30437
 -1.07056
 -1.10529
 -10.2406
 -10.2519
 -10.7732
 -10.3937
 0.874664
 0.653305
 0.896173
 0.630131
 -5.56316
 -5.58165
 -5.65768
 -5.86411
 -11.0774
 -11.1745
 -10.7042
 -10.717
 -3.86393
 -3.54233
 -3.83268
 -3.6139
 -5.67323
 -5.19895
 -5.37049
 -5.34909
 -3.2743
 -3.53695
 -3.32476
 -2.89176
 -12.9655
 -12.2446
 -12.8244
 -12.2044
 -12.362
 -12.3601
 -12.1564
 -11.8861
 -11.8197
 -11.6613
 -11.6548
 -11.8585
 -2.53248
 -2.28004
 -2.55439
 -2.52497
 -4.78905
 -4.40036
 -4.54542
 -4.73063
 -2.84755
 -2.80704
 -2.59914
 -2.76259
 -2.36878
 -2.27063
 -2.63578
 -2.2679
 -6.35915
 -6.47305
 -6.52959
 -6.1677
 -8.68606
 -9.13384
 -8.97415
 -9.17465
 -8.67248
 -8.82201
 -8.42807
 -8.96555
 -3.86456
 -4.03292
 -3.80461
 -3.99643
 -3.08136
 -3.07527
 -2.98795
 -2.85155
 -0.705326
 -0.556273
 -0.64846
 -0.919493
 -7.28597
 -7.60146
 -7.60002
 -7.18512
 1.55485
 1.54041
 1.74297
 1.44141
 -7.8632
 -8.09591
 -7.82884
 -7.74463
 -4.42178
 -4.92248
 -4.43085
 -4.80284
 -4.23303
 -4.37896
 -4.28457
 -4.09205
 0.674024
 0.705019
 0.830611
 1.01049
 5.28656
 5.16266
 5.32576
 5.30809
 -1.59743
 -1.86215
 -1.60107
 -1.66107
 -7.92023
 -7.44933
 -7.59326
 -7.89072
 0.065994
 0.282811
 0.129992
 -0.0419574
 -4.77262
 -4.93313
 -4.57748
 -4.96532
 -5.21195
 -5.46516
 -5.78333
 -5.65246
 -7.03387
 -7.21559
 -6.71111
 -6.87635
 1.97163
 2.11398
 2.10605
 1.95273
 1.89117
 1.87141
 1.96915
 2.00917
 -7.89475
 -8.42756
 -8.20471
 -8.18236
 -6.42307
 -5.93164
 -5.94784
 -6.24832
 -1.45934
 -1.49545
 -1.34887
 -1.3676
 -3.37164
 -3.27033
 -3.54303
 -3.70833
 -4.32806
 -4.40153
 -4.35453
 -4.2259
 -1.36848
 -1.18408
 -1.60343
 -1.25139
 -5.68595
 -5.49531
 -5.52419
 -5.29666
 -14.2296
 -13.8361
 -14.1436
 -14.2028
 -5.0341
 -5.40604
 -5.37536
 -5.59513
 -3.44576
 -3.59676
 -3.37392
 -3.75378
 -3.51227
 -3.48696
 -3.22983
 -3.52161
 -4.35917
 -4.56072
 -4.38212
 -4.11298
 -11.5404
 -11.5678
 -11.2284
 -11.5278
 -8.66035
 -8.34569
 -8.56606
 -5.58925
 -5.57074
 -5.79008
 -5.54202
 0.347646
 0.373689
 0.182546
 0.400987
 -2.34874
 -2.36799
 -2.14193
 -2.44237
 -8.58926
 -8.11922
 -8.05562
 -8.12989
 -0.711246
 -0.799052
 -0.856154
 -0.964099
 -1.93217
 -1.72678
 -1.70647
 -1.98762
 -2.26775
 -2.14738
 -1.82208
 -2.09631
 -6.30071
 -6.07656
 -5.99751
 -5.99756
 -4.50718
 -4.23761
 -4.55009
 -4.00222
 -5.60689
 -5.02221
 -5.24045
 -5.32447
 -0.0612392
 -0.170957
 -0.206404
 -0.10049
 -2.09375
 -2.28589
 -2.34872
 -2.08668
 -5.97355
 -5.72107
 -6.03098
 -6.294
 -1.77336
 -1.89501
 -2.04686
 -1.65712
 -5.01797
 -5.31186
 -5.32265
 -5.13554
 0.0696732
 0.151283
 0.00965837
 0.188135
 -10.8605
 -11.001
 -10.5753
 -10.8597
 -0.614399
 -0.430851
 -0.681838
 -0.786061
 -0.313677
 0.134665
 -0.144171
 -0.145617
 -6.92158
 -6.91303
 -7.16056
 -7.25556
 -0.659957
 -0.719977
 -0.770283
 -0.73447
 -5.21332
 -5.09191
 -5.22252
 -4.90238
 0.824534
 0.783572
 1.07784
 1.02354
 -4.21904
 -4.07006
 -4.13941
 -4.43519
 -10.0152
 -10.6192
 -10.1013
 -10.4422
 -4.40209
 -3.98985
 -3.98113
 -4.22286
 -6.96537
 -7.13286
 -6.96431
 -6.95662
 -5.15653
 -5.02017
 -5.10734
 -5.30241
 -5.00895
 -5.12841
 -5.20697
 -5.46403
 -11.4427
 -11.4457
 -11.6025
 -11.0007
 -0.165514
 -0.019846
 0.0915969
 0.126192
 -0.42602
 -0.32271
 -0.116932
 -0.315277
 -9.23893
 -9.24043
 -9.0183
 -9.55116
 -10.1255
 -10.3387
 -10.092
 -1.23009
 -1.13348
 -1.11846
 -1.29347
 -5.41236
 -5.77829
 -5.41525
 -5.37042
 -4.74133
 -4.85604
 -4.51761
 -4.89511
 -0.281067
 -0.482913
 -0.122493
 -0.296659
 -7.09102
 -7.343
 -7.24885
 -7.28814
 -3.18018
 -2.85383
 -2.89561
 -3.20816
 -4.27332
 -3.94541
 -3.98099
 -3.89779
 -7.40023
 -7.68546
 -7.70873
 -7.61998
 0.572683
 0.663836
 0.552476
 0.441256
 -1.31954
 -1.02191
 -1.10484
 -1.08641
 -11.7953
 -11.2876
 -11.7159
 -11.5501
 -0.177063
 -0.143094
 -0.217636
 -0.552818
 0.522815
 0.62059
 0.579911
 0.55344
 -3.28948
 -3.39945
 -3.25638
 -3.65599
 3.12429
 3.04838
 3.19791
 2.91684
 -3.96032
 -4.0182
 -3.85608
 -3.99753
 -7.75324
 -7.61342
 -7.50781
 -7.43491
 -8.88596
 -8.63267
 -8.75935
 0.88089
 0.85507
 0.75707
 0.847265
 -0.691715
 -0.970079
 -0.632721
 -0.89918
 -0.258542
 -0.175138
 -0.0405803
 0.00263699
 -1.12294
 -0.932095
 -1.05038
 -1.00427
 -12.1767
 -12.4029
 -12.5624
 -12.4671
 0.523548
 0.513089
 0.593919
 0.748697
 -0.840878
 -0.651971
 -0.810701
 -1.0995
 -8.68045
 -8.93858
 -8.67831
 -8.53968
 -1.91763
 -1.83275
 -2.02518
 -1.06987
 -0.830999
 -1.05172
 -4.45458
 -4.24013
 -3.97928
 2.71011
 2.45824
 2.41922
 2.62342
 -4.05636
 -4.24679
 -4.13248
 -4.35557
 -3.8867
 -4.0602
 -3.62751
 -3.6921
 -9.31257
 -9.55611
 -9.17625
 -9.11718
 -10.4373
 -10.3204
 -10.9934
 -10.3523
 -0.0835866
 0.136754
 0.16059
 -0.256314
 -4.69357
 -5.01823
 -5.05497
 -4.90977
 -4.61772
 -4.86872
 -4.99979
 -4.90913
 -3.14085
 -3.52251
 -3.35458
 -3.59894
 -1.71435
 -1.83438
 -1.87647
 -1.51893
 -4.61997
 -4.28954
 -4.52635
 -4.63114
 -0.102986
 -0.166031
 -0.0616974
 -0.237144
 -9.95253
 -9.79366
 -9.96966
 -10.0537
 -1.15087
 -1.08968
 -1.2045
 -1.36541
 -8.82047
 -8.49028
 -8.72144
 -8.66391
 -10.878
 -10.663
 -10.3695
 -10.7652
 -10.6247
 -10.5183
 -10.4718
 -10.3733
 -0.611367
 -0.438509
 -6.66506
 -6.57631
 -6.36786
 -6.54583
 -0.258576
 -0.591039
 -0.429608
 -0.322665
 -7.53228
 -8.13186
 -7.93974
 -8.05989
 -8.79309
 -8.52738
 -8.96282
 -8.55046
 -1.43991
 -1.63533
 -1.66245
 -1.53001
 -4.50492
 -4.47857
 -4.75774
 -4.64509
 -1.04393
 -1.05908
 -1.25866
 -1.06903
 -2.55551
 -2.53898
 -2.59675
 -2.83867
 4.25962
 3.97067
 4.32276
 4.06919
 -9.80079
 -9.58707
 -10.1291
 -9.74816
 -1.21518
 -1.01918
 -1.29212
 -1.44934
 0.887816
 1.05902
 1.05136
 0.816405
 -2.90522
 -2.7682
 -3.05665
 -3.12502
 0.735474
 1.04212
 1.1276
 0.724068
 -2.74824
 -2.44956
 -2.34148
 -2.62044
 -6.67679
 -6.56695
 -6.94182
 -6.42579
 -3.32277
 -3.12163
 -3.12377
 -3.24233
 -9.39095
 -9.95431
 -9.41888
 -2.96318
 -3.23763
 -2.9132
 -3.20564
 4.31232
 4.4148
 4.3982
 4.47744
 -12.498
 -12.5953
 -12.7451
 -12.5042
 -4.2594
 -4.19966
 -4.38159
 -4.13992
 -7.68935
 -7.45479
 -7.15515
 -7.54903
 0.0389384
 -0.17829
 0.356301
 0.125343
 -1.65047
 -1.87169
 -1.45706
 -1.72044
 -1.70023
 -2.09305
 -1.86534
 -2.07095
 -10.4718
 -10.1925
 -10.5504
 -10.7985
 -1.9968
 -1.78548
 -1.62253
 -1.71065
 -12.2024
 -12.0576
 -12.3134
 -11.848
 -6.32576
 -5.94431
 -5.94554
 -6.35686
 -0.169721
 -0.224863
 -0.318247
 -0.181762
 3.24743
 3.17808
 3.00628
 3.30215
 -2.63003
 -2.23348
 -2.4732
 -2.15226
 -3.48199
 -3.49207
 -3.74291
 -3.43735
 -6.90503
 -6.92903
 -6.72541
 -6.44014
 4.09647
 4.28834
 4.02097
 4.13705
 -2.66402
 -2.45497
 -2.81847
 -2.70756
 -11.5812
 -11.2894
 -11.2387
 -11.3139
 -8.30239
 -8.59027
 -8.46311
 -8.33306
 -8.24512
 -8.26092
 -8.56563
 -8.13776
 -7.99999
 -7.7232
 -7.61767
 -7.77552
 -8.40542
 -8.90212
 -8.63478
 -8.58491
 -5.18706
 -5.30773
 -5.19156
 -5.1916
 -0.507879
 -0.891848
 -1.16036
 -1.204
 -1.03906
 -6.09007
 -5.7324
 -5.85939
 -5.80056
 -6.03378
 -6.11921
 -5.67406
 -5.75129
 1.62147
 1.51919
 1.54452
 1.62274
 -9.43581
 -9.44112
 -9.27821
 -9.46671
 -7.53901
 -7.83739
 -8.20523
 -7.9569
 -0.154672
 -0.48959
 -0.440438
 -0.72947
 -0.732761
 -0.674004
 -0.909236
 -1.07664
 -1.00593
 -1.19517
 -0.516946
 -0.224846
 0.130592
 -0.0807526
 -5.97259
 -6.32658
 -6.22288
 -5.93183
 -11.8962
 -11.9674
 -11.8301
 -11.994
 -3.53617
 -3.38573
 -3.58781
 -3.23903
 -10.5801
 -9.96886
 -9.75106
 -9.73276
 -2.74573
 -2.6907
 -2.55669
 -2.84864
 -5.97479
 -5.69076
 -5.4925
 -5.53537
 -0.227254
 -0.17953
 -0.138744
 0.0776147
 -4.60324
 -4.93516
 -4.46421
 -4.7245
 -5.16903
 -5.5524
 -5.72994
 -5.22796
 -0.555563
 -0.4487
 -0.236543
 -0.350794
 -1.91821
 -1.74923
 -2.25777
 -2.06314
 -2.87064
 -2.83359
 -2.60532
 -2.45246
 -4.73374
 -4.89348
 -4.76536
 -4.90486
 1.33847
 1.29303
 1.21117
 1.02852
 -5.49262
 -5.16177
 -5.3659
 -5.57083
 -1.98791
 -1.6692
 -2.03607
 -2.19839
 -6.59375
 -6.49854
 -6.58294
 -6.32584
 -9.28174
 -8.95354
 -9.22939
 -9.04962
 -10.8688
 -10.6538
 -10.6015
 -10.7363
 -10.457
 -10.7007
 -10.0588
 -12.4241
 -12.5995
 -12.7929
 -12.9075
 -8.29748
 -7.93185
 -7.55382
 -8.00836
 -3.39174
 -3.32557
 -3.54345
 -3.49871
 -10.7408
 -10.4688
 -10.221
 -10.6658
 -3.96306
 -3.99968
 -3.81756
 -3.77114
 -4.86994
 -5.04174
 -4.94414
 -10.2951
 -10.6029
 -10.4096
 -10.3598
 -9.77418
 -9.44144
 -9.57538
 -4.49048
 -4.35138
 -4.63055
 -4.73058
 -1.83083
 -1.97239
 -1.79676
 -2.16583
 -6.29991
 -6.05372
 -5.96415
 -5.90825
 -10.5668
 -10.8316
 -10.6498
 -10.4875
 -0.904572
 -0.844904
 -0.983559
 -0.733831
 -3.27316
 -3.18361
 -2.97016
 -2.9026
 -3.71437
 -4.12331
 -3.67972
 -3.73583
 -6.68298
 -6.35513
 -6.60076
 -6.64529
 -0.863778
 -0.695724
 -1.06176
 -0.741578
 0.0362858
 0.218567
 0.0188158
 0.0781973
 -3.64173
 -3.6494
 -3.60022
 -3.89216
 -11.9005
 -11.6565
 -11.6196
 -11.7149
 -1.23982
 -0.946025
 -1.27618
 -1.10861
 -0.149286
 -0.369247
 -0.0926482
 -0.345148
 -5.45444
 -5.02077
 -5.45254
 -5.41064
 -1.10022
 -1.19359
 -1.04248
 -0.0194333
 -0.218344
 -0.136707
 -4.85621
 -4.65061
 -5.12303
 -4.74959
 -0.331877
 -0.238805
 -0.0568596
 -0.313475
 -0.26948
 0.00342318
 -0.206685
 -0.214294
 -5.54204
 -5.64301
 -5.45537
 -0.484727
 -0.441717
 -9.02682
 -9.08336
 -9.66523
 -9.71289
 -6.26562
 -6.76566
 -6.76152
 -6.57495
 1.36605
 1.17698
 1.52384
 1.11657
 2.74254
 2.68706
 2.90873
 2.68226
 -1.1801
 -0.727377
 -1.0009
 -1.02698
 -10.016
 -10.0075
 -10.2007
 -10.0382
 -6.0484
 -5.81969
 -5.66268
 -5.80937
 0.639116
 0.689596
 0.69987
 0.728888
 -1.10793
 -1.13824
 -1.2647
 -1.4756
 -1.23893
 -1.27957
 -1.21702
 -0.599007
 -0.781924
 -0.814518
 -0.814523
 -0.759601
 -0.580471
 -0.837013
 -0.892623
 -0.0461995
 0.202342
 -0.00471993
 0.173849
 -11.2416
 -11.5351
 -11.3228
 -11.289
 -10.6619
 -11.0185
 -10.4716
 -3.46174
 -3.26376
 -3.49555
 -3.1553
 -0.981481
 -0.657814
 -1.0269
 -0.927386
 -12.561
 -12.8233
 -0.0323666
 0.121552
 0.0839341
 0.223591
 -4.34685
 -4.88299
 -4.53124
 -4.76069
 -5.44994
 -5.3393
 -0.340531
 -0.282295
 -0.533583
 -0.347656
 -10.9661
 -11.2128
 -10.8121
 -11.4687
 -12.083
 -11.8029
 -11.9809
 -12.5434
 -2.84428
 -2.97347
 -2.85956
 1.64211
 1.46321
 1.55473
 -0.692555
 -1.01064
 -0.668567
 -0.743654
 -7.38206
 -7.04941
 -7.63031
 -7.08817
 -1.64672
 -1.43474
 -1.39661
 -1.2161
 -1.31584
 -1.17036
 -1.42046
 -1.11365
 -6.04484
 -6.00019
 -6.16926
 -6.54856
 3.91457
 3.79629
 3.95098
 4.11269
 -6.93273
 -7.01819
 -7.31478
 -7.24297
 -7.23588
 -7.18674
 -7.4714
 -7.62528
 0.0829308
 0.074874
 0.396668
 0.15601
 -9.74034
 -9.93057
 -9.98528
 -9.63864
 4.28068
 4.50681
 4.47744
 4.63769
 -10.9471
 -10.2016
 -10.2375
 -10.1526
 -8.56938
 -8.27695
 -1.26084
 -1.43251
 -1.37426
 -1.56979
 0.333361
 0.559571
 0.428616
 0.248147
 -9.49194
 -9.80501
 -9.72102
 -9.59835
 -1.67867
 -1.75993
 -1.74182
 -1.56867
 -11.917
 -11.6604
 -11.8473
 -0.945332
 -0.731406
 -0.627564
 0.625769
 0.363701
 0.301964
 -10.7926
 -10.9602
 -10.8489
 -10.711
 -1.0064
 -0.864714
 -0.861454
 -0.864659
 -9.67149
 -9.71304
 0.678588
 0.517476
 0.696747
 0.637608
 -3.80017
 -4.09905
 -4.10682
 -3.82898
 -1.36143
 -1.22355
 -2.33049
 -2.86374
 -2.79583
 -2.48777
 -1.34785
 -1.30602
 -1.3316
 -1.07215
 -12
 -12.4221
 -11.8463
 -12.0356
 0.381015
 0.480763
 0.430431
 -8.43697
 4.18767
 4.22981
 4.21776
 4.29765
 -9.49151
 -9.5471
 -9.77603
 -9.13611
 -1.34438
 -1.3719
 -1.80523
 -1.69501
 -6.93671
 -6.77428
 -6.81801
 -6.88429
 -1.28871
 -1.11059
 -0.999216
 -1.23166
 -5.92004
 1.60197
 1.65516
 1.65675
 1.57586
 -5.92043
 -5.93459
 -5.8307
 -5.57184
 -8.35689
 -8.54381
 -8.71718
 -8.08144
 -8.32744
 -7.95063
 -8.40957
 -9.60988
 -9.98368
 -9.77148
 -9.7754
 -0.0324556
 -0.123365
 -0.39845
 -0.259696
 -9.36466
 -9.36217
 -9.31693
 -9.66427
 0.84196
 0.880878
 0.829265
 1.07631
 -8.98443
 -9.20315
 -9.34477
 -9.35363
 -3.3091
 -3.14337
 -3.10303
 -3.01965
 -6.80062
 -7.02197
 -7.13135
 -7.21564
 -4.45725
 -4.30594
 -4.20559
 -4.11348
 -11.0436
 -10.4946
 -4.13876
 -3.86461
 -3.90363
 -4.12338
 1.47676
 1.57106
 1.29614
 1.57066
 0.797796
 0.89299
 0.549456
 0.843535
 -4.43858
 -4.70519
 -4.74166
 -4.77118
 -7.18421
 -7.17577
 -7.10136
 -7.54101
 -7.82776
 -7.50596
 -7.70641
 -7.9294
 -10.3303
 -9.89266
 -10.0368
 -9.76477
 -7.85344
 -8.32262
 -8.06804
 -7.85967
 0.778805
 0.774634
 0.626401
 0.923884
 -0.243787
 -0.224283
 -0.17146
 -0.542339
 -12.7701
 -12.4994
 -12.4011
 -12.4246
 -4.94114
 -5.08587
 -5.01543
 -5.47912
 -0.541136
 -0.846703
 -0.554336
 -0.762006
 3.43198
 3.46878
 3.21963
 3.54528
 -9.59395
 -9.77586
 -9.40865
 -10.1674
 -0.736573
 -0.777834
 -0.846861
 -1.01674
 -2.53257
 -2.78917
 -2.36726
 -2.59498
 1.01941
 1.09455
 1.04299
 0.878316
 -5.69004
 -5.5182
 -5.6687
 -5.69851
 -10.5046
 -10.5287
 -10.3912
 -10.5025
 -5.0983
 -4.65874
 -4.80576
 -4.72109
 -2.89522
 -2.95131
 -3.24071
 -3.09013
 1.2734
 1.16086
 1.05678
 1.39071
 -10.4769
 -6.38827
 -6.64215
 -6.24878
 -6.62517
 -2.52614
 -2.39117
 -2.15347
 -2.25584
 -7.2492
 -7.46363
 -7.40679
 -7.69497
 -0.604351
 -0.419798
 -0.508046
 -0.70213
 -5.60966
 -5.82028
 -5.44392
 1.46993
 1.169
 1.39992
 1.42575
 -8.60405
 -7.93081
 -8.34865
 -8.14283
 0.335852
 0.37709
 0.21103
 0.335684
 -13.7949
 -13.6623
 -13.756
 -13.9974
 -0.768332
 -0.811937
 -0.844571
 -0.808768
 2.89193
 2.42289
 2.46623
 2.63603
 1.55501
 1.58141
 1.38564
 1.40904
 -12.6736
 -12.4855
 -12.3512
 -12.2589
 -11.2003
 -11.1732
 -11.4123
 -11.4551
 -3.46621
 -3.73862
 -3.62924
 -3.76306
 -1.0524
 -0.986874
 -1.15251
 -4.33766
 -4.30767
 -3.89443
 -4.04783
 -6.29289
 -6.12564
 -6.50991
 -6.52929
 -4.37746
 -4.96325
 -4.76707
 -4.70384
 -3.86458
 -3.94489
 -4.4378
 -4.1932
 -12.4636
 -12.1561
 -12.1874
 -12.0406
 -0.147306
 -0.0494786
 -0.396848
 -0.152435
 1.51435
 1.89359
 1.84994
 -7.13899
 -6.90504
 -7.0099
 -6.85405
 -9.29815
 -9.65256
 -9.39829
 -9.31704
 -0.724325
 -0.660182
 -0.775835
 -0.234219
 -0.279807
 -0.417104
 -0.064157
 -10.0436
 -9.81513
 -10.1691
 -9.60037
 -3.21183
 -3.14654
 -3.4271
 -3.20876
 -0.437134
 -0.161528
 -0.387673
 -0.396699
 -2.44282
 -2.28478
 -2.31381
 -2.5078
 -8.64586
 -8.62185
 -8.30883
 -8.63467
 -0.683967
 -1.02499
 -0.520699
 -0.933419
 -2.74975
 -2.32178
 -2.43578
 -2.59355
 -1.4148
 -1.70307
 -1.48605
 -11.1141
 -11.0386
 -10.7635
 -10.8225
 -3.40913
 -3.44587
 -3.24032
 -3.56567
 -12.8475
 -12.6952
 -13.3592
 -4.05252
 -4.22177
 -4.1525
 -4.05338
 1.19017
 1.00696
 1.30793
 1.21414
 -5.08696
 -5.16298
 -5.34828
 -5.63392
 -3.77288
 -4.16117
 -3.66529
 -0.825735
 -0.899445
 -1.12254
 -0.975057
 0.445861
 0.369589
 0.509127
 0.320039
 -0.666952
 -0.821165
 -0.981485
 -0.642267
 3.0172
 2.96957
 2.75179
 2.72288
 -2.03759
 -1.96414
 -1.84195
 -1.82198
 -1.39393
 -1.27965
 -1.65149
 -1.221
 -10.3251
 -9.81758
 -9.91594
 -10.5259
 0.458729
 0.143807
 0.254655
 0.321492
 -5.93815
 -5.78807
 -6.02074
 -6.1398
 -11.7677
 -11.8346
 -11.595
 -11.4157
 -11.8667
 -11.3636
 -11.5973
 -11.7573
 -8.24988
 -8.50114
 -8.24218
 -8.38908
 -12.0251
 -12.5285
 -12.4814
 -11.7623
 -10.4385
 -10.4997
 -10.4473
 -12.9162
 -12.2904
 -12.4812
 -12.4805
 1.08347
 1.19684
 1.09863
 1.26545
 -2.48479
 -2.18719
 -2.1016
 -2.23606
 -1.57018
 -1.88506
 -1.64496
 -1.90847
 -1.84135
 -1.67591
 -1.67862
 -1.59821
 -10.8199
 -10.5059
 -10.7769
 -10.8762
 -2.29004
 -2.30461
 -2.06265
 -1.96703
 -0.759283
 -0.465764
 -0.437603
 -0.673563
 -6.61695
 -6.51848
 -6.87925
 -6.41548
 -1.07014
 -1.32002
 -1.06788
 -1.25149
 -7.29505
 -7.02324
 -6.93306
 -4.26719
 -4.59565
 -4.64437
 -9.86236
 -9.45689
 -9.53115
 -9.63013
 -2.46244
 -2.57124
 -2.36382
 -2.36106
 -5.81909
 -5.52676
 -5.62094
 -5.87549
 -1.74201
 -1.40828
 -1.56005
 -1.824
 -12.906
 -12.7151
 -11.6701
 -11.5013
 -11.338
 -11.7882
 1.2691
 1.34851
 1.34798
 1.47897
 -5.86415
 -6.13537
 -6.1878
 -6.43532
 -0.838728
 -1.13772
 -0.896039
 -0.722562
 4.92077
 5.22145
 4.94188
 5.03229
 -0.812503
 -0.701387
 -0.544104
 -0.710191
 -7.07029
 -6.7469
 -7.04067
 0.517063
 0.546997
 0.241207
 0.278655
 -11.5509
 -11.1897
 -11.6618
 -11.3245
 -0.926312
 -1.02741
 -0.940039
 -1.0459
 -5.59675
 -5.90713
 -5.76551
 -5.62753
 1.01872
 0.927973
 1.17145
 0.999322
 3.65797
 3.66118
 3.57402
 3.49222
 -0.433778
 -0.629697
 -0.424565
 -0.362912
 -2.12793
 -2.01789
 -2.22634
 -4.62898
 -4.16401
 -4.66477
 -4.46461
 -0.00135459
 -0.0283673
 0.21935
 -7.45527
 -7.32104
 -7.54145
 -7.77041
 -8.30908
 -8.84692
 -8.29908
 -8.7661
 -6.83179
 -6.45914
 -6.7544
 -6.80869
 -11.209
 -10.3806
 -10.6935
 -10.7865
 -8.00535
 -7.74105
 -7.92266
 -1.39516
 -1.57908
 -1.54154
 -1.67426
 -7.56483
 -7.24812
 -6.27762
 -5.94918
 -5.83586
 -6.12777
 -6.99034
 -6.84838
 -6.89629
 -7.11117
 -0.649648
 -0.77895
 -0.721906
 -0.486199
 -0.70057
 -0.886012
 -0.694715
 -0.88242
 4.92145
 4.79069
 4.7489
 4.83729
 -0.641848
 -0.845827
 -0.642166
 -1.54758
 -1.43799
 -1.38
 -1.46638
 -3.75202
 -3.74777
 -3.58189
 -3.51864
 -1.54218
 -1.80941
 -1.82462
 -1.63955
 1.18792
 1.05128
 1.21741
 1.21946
 -8.52174
 -8.07179
 -8.43876
 -8.15881
 -3.39407
 -3.60858
 -3.38159
 -3.18321
 -10.6729
 -10.6926
 -10.5466
 -10.7532
 -4.75177
 -4.46018
 -4.71985
 -4.53479
 -10.7925
 -10.9553
 -10.8448
 3.43462
 3.2367
 3.31623
 3.28939
 -6.80146
 -7.3317
 -6.90931
 -6.95549
 -2.86104
 -2.6142
 -2.91347
 -2.77647
 -0.195172
 -0.0102339
 -1.69402
 -1.74789
 -1.88929
 -1.82625
 -2.65412
 -2.32299
 -2.39846
 -10.0771
 -10.2013
 -9.87824
 -10.131
 -10.3152
 -10.1007
 -9.79772
 -9.96664
 -0.0920752
 -0.0289578
 -0.174747
 -0.0527968
 -3.13859
 -3.04164
 -1.03248
 -1.29542
 -1.12417
 -0.909653
 -7.75756
 -7.49959
 -8.05326
 -8.06288
 1.19817
 1.18258
 1.23257
 1.11263
 -0.444514
 -0.537841
 -0.331731
 -0.317088
 -0.942745
 -1.21648
 -1.34079
 -1.20604
 -4.19746
 -4.14846
 -4.18373
 -4.58299
 -7.31266
 -7.25036
 -7.04493
 -7.04733
 -8.00659
 -7.70414
 -7.45025
 -7.80054
 4.23077
 4.26721
 4.33768
 4.40637
 0.438589
 0.207
 0.127652
 -4.72426
 -4.1937
 -4.50487
 -5.0588
 -5.34081
 -5.03558
 -5.38638
 -10.5812
 -10.8377
 -10.6425
 -10.9662
 -3.29107
 -0.868019
 -0.861677
 -0.59843
 -0.650311
 -6.05962
 -5.86061
 -5.57611
 -5.7286
 -8.32408
 -7.93965
 -7.98807
 -8.39833
 -9.20755
 -9.28619
 -0.119985
 -0.033634
 0.0855049
 0.123118
 -3.87471
 -4.11856
 -4.01923
 -4.16349
 0.582614
 0.642021
 0.577195
 0.498759
 -5.21655
 -2.1105
 -1.9285
 -2.35255
 -2.4571
 -1.52064
 -1.70341
 -1.81046
 -1.64604
 -10.6801
 -10.2432
 -11.3438
 -11.641
 -11.7588
 -11.4936
 2.3493
 2.51513
 2.42341
 2.34202
 -7.9191
 -7.98994
 -7.5683
 -8.14478
 -5.15527
 -4.74502
 -4.88203
 -5.22265
 3.89903
 3.83854
 3.83665
 3.97524
 -3.69449
 -3.70968
 -3.85374
 -3.54786
 -3.47422
 -3.14426
 -2.96734
 -2.99821
 -0.123747
 0.12146
 -0.187617
 -0.0871699
 -12.529
 -12.8341
 -12.8644
 -12.8753
 -3.15561
 -2.85875
 -2.89813
 -1.31035
 -1.57695
 -1.57397
 -1.33871
 -11.7278
 -12.2644
 -11.882
 -11.9596
 -1.26601
 -1.1209
 -0.901747
 -1.35843
 -2.77302
 -2.97564
 -8.82275
 -8.8664
 -9.15297
 -8.54198
 -4.65259
 -4.67992
 -5.05553
 -5.0214
 -11.3125
 -11.0667
 -11.4156
 -11.2697
 -3.01658
 -3.46768
 -0.568709
 -0.670838
 -0.729378
 -0.704726
 -1.19824
 -1.23835
 -1.4145
 -1.50709
 -9.24983
 -9.26216
 -8.8203
 -8.96714
 -8.14074
 -8.0026
 -8.25293
 -8.27933
 -7.72256
 -7.29732
 -7.69085
 -7.56328
 -1.30575
 -1.6359
 -1.49773
 -1.32045
 2.40628
 2.54077
 2.46571
 2.39887
 -12.0156
 -12.3752
 -12.0182
 -12.1838
 0.0927067
 0.0663272
 0.0323685
 -0.110924
 -4.41516
 -4.62291
 -4.723
 -4.44496
 -1.87456
 -2.30526
 -2.00649
 -2.16031
 -4.37742
 -4.01932
 -4.31654
 -5.7468
 -6.14019
 -5.75404
 -6.19132
 -3.5823
 -3.80936
 -3.64026
 -3.41665
 -6.98885
 -7.12683
 -7.4189
 -6.91476
 -6.97992
 -6.86555
 -7.01616
 -6.46788
 3.88868
 3.58797
 3.86829
 0.959918
 0.714978
 0.609753
 0.705137
 -4.39552
 -4.17727
 -4.26822
 -4.24785
 -8.83271
 -9.1896
 -8.97711
 -9.23907
 -0.839906
 -0.53373
 -0.835907
 -1.04244
 -1.18583
 -1.20337
 -5.26125
 -5.10823
 -5.33733
 -5.3385
 -4.23664
 -4.50345
 -4.62171
 -4.65818
 -14.2208
 -14.1692
 -14.0046
 -14.3118
 1.54148
 1.46583
 1.61369
 1.89323
 -7.43733
 -7.59468
 -2.19024
 -2.48807
 -2.50875
 -2.23259
 -6.67425
 -6.89423
 -6.85785
 -6.94483
 -4.93573
 -5.0158
 -5.23261
 -5.08665
 -2.52289
 -2.52547
 -2.78649
 -2.32689
 -6.22259
 -6.52834
 -6.41365
 -6.48817
 -0.105703
 -0.204439
 -0.184656
 -0.365149
 0.602798
 0.778735
 0.572594
 0.674903
 -8.57651
 -8.71994
 -9.03899
 -9.52311
 -4.27722
 -4.45437
 -4.68736
 2.77628
 2.86558
 2.69993
 -9.34945
 -9.61202
 -9.65541
 -9.76003
 -9.98921
 -9.88092
 -9.6756
 -9.61555
 -3.72188
 -3.80028
 -3.89721
 -4.01521
 -10.6085
 -10.8387
 -10.787
 -10.7874
 -11.3578
 -11.7608
 -11.434
 -11.8514
 -2.59141
 -2.72762
 -2.94646
 -2.66474
 -8.18459
 -8.3558
 -8.51059
 -8.47366
 -13.9685
 -14.0257
 -13.7892
 -14.1193
 -7.83905
 -7.82919
 -7.63873
 -8.12647
 -4.55174
 -4.15105
 -4.31948
 -4.01748
 -9.14537
 -9.28177
 -9.01953
 -8.91867
 -6.79115
 -6.69797
 -6.96555
 -5.50548
 -5.78791
 2.02521
 1.97384
 2.0762
 2.14657
 -5.35023
 -5.67874
 -5.57378
 -5.54701
 2.22177
 2.16443
 2.12793
 2.11092
 2.02652
 2.08495
 1.82969
 1.79127
 -4.81175
 -4.97864
 -4.99302
 -4.72439
 -2.13387
 -2.13619
 -1.89896
 -2.23552
 -5.93064
 -6.2904
 -6.18899
 -6.15645
 -3.96177
 -3.73445
 0.94782
 1.06799
 1.01056
 0.821601
 -11.8297
 -11.9866
 -12.153
 -11.9396
 -2.30131
 -2.12393
 -2.55725
 -2.36068
 -9.27695
 -9.12954
 -8.86146
 -9.11692
 0.891998
 1.0678
 0.893691
 0.996171
 -10.1512
 -10.6873
 -10.5398
 -10.6027
 -5.42583
 -5.01598
 -5.35084
 -5.31879
 -0.972331
 -0.702083
 -0.507862
 -0.659157
 -13.6235
 -13.5024
 -13.5216
 -13.3319
 -1.4921
 -1.78863
 -1.55115
 -1.49339
 -2.65936
 -2.28418
 -2.5596
 -2.35352
 -12.092
 -12.1612
 -11.8385
 -12.2333
 -3.70953
 -3.29093
 -3.43633
 -3.43052
 -9.25815
 -9.51002
 -9.31906
 -9.22519
 -8.95994
 -8.68671
 -8.79364
 -2.83152
 -2.37388
 -2.55218
 -2.51468
 -8.91871
 -9.21079
 -8.99142
 -9.12043
 0.0809388
 -0.178432
 -0.140982
 0.0799829
 -9.91315
 -10.1382
 -10.1181
 -9.978
 -9.7257
 -9.59033
 -9.78044
 -9.65395
 -0.359786
 -0.299552
 -0.738563
 -0.50489
 -0.556649
 -0.474426
 -0.713555
 -0.367792
 5.65095
 5.60333
 5.74783
 5.70625
 -7.8137
 -7.42033
 -7.46035
 1.90956
 1.61731
 1.59161
 1.7452
 -11.4136
 -11.0707
 -11.1602
 -11.1871
 -0.272294
 -9.33379
 -8.93646
 -9.00252
 -9.28011
 -9.36886
 -8.99581
 -9.07175
 4.24112
 4.43998
 4.37359
 4.28
 4.55751
 4.52752
 4.57959
 4.63629
 -11.144
 -10.7877
 -11.071
 -11.3299
 -0.581594
 -0.473013
 -0.702946
 -0.425435
 -6.65291
 -6.50673
 -6.86395
 -1.75565
 -1.52638
 -1.73824
 -1.38689
 -2.82524
 -2.83954
 -2.74871
 -9.27044
 -9.15205
 -9.65286
 -5.15119
 -5.38998
 -5.41098
 -5.17672
 -1.86827
 -1.58459
 -1.58453
 -1.79024
 -0.329681
 -0.420983
 -0.290008
 -0.394435
 -6.67582
 -6.90867
 -6.93923
 1.00631
 0.88286
 1.22833
 1.23807
 -0.517493
 -0.953328
 -0.629962
 -2.58868
 -3.04771
 -2.93475
 -2.7801
 -0.164029
 -0.404366
 -0.401097
 -0.312589
 -0.416397
 -0.723293
 -0.784248
 -0.702556
 -9.53026
 -9.25012
 -9.3067
 -9.23629
 -3.17594
 -2.92514
 -3.08446
 -3.2605
 -1.35178
 -1.33221
 -4.52056
 -4.31739
 -4.44667
 -4.14638
 -10.6299
 -11.3117
 -11.4275
 -11.3551
 -11.3026
 5.87293
 5.91971
 5.93571
 5.87317
 -8.43165
 -8.81495
 -8.56883
 -12.6595
 -12.6108
 -12.385
 -12.6025
 -7.64241
 -7.17097
 -7.30698
 -7.19895
 -0.24861
 -0.340242
 -0.473426
 -0.240347
 -2.91504
 -2.7016
 -2.65171
 -2.60317
 -12.9513
 -12.9701
 -12.8843
 -12.7983
 -7.82659
 -7.55459
 -7.34801
 -7.611
 1.15338
 1.35238
 1.36765
 1.04568
 -2.50426
 -2.5418
 -2.61171
 -2.16619
 -2.12098
 -2.25653
 -2.39642
 -2.16059
 5.89226
 5.91811
 5.91843
 5.88015
 0.0999536
 0.153848
 0.221648
 0.0112475
 -7.83574
 -8.28542
 -7.84844
 -8.05457
 -5.39262
 -5.36243
 -5.68066
 -5.26632
 -3.28445
 -3.4545
 -3.70923
 -3.41152
 -7.05767
 -7.42558
 -7.30358
 -7.30163
 -5.48536
 -5.51993
 -5.78631
 -5.47548
 -7.24904
 -7.22077
 -6.9855
 -7.62021
 -13.6937
 -13.1515
 -13.2915
 -13.8169
 -8.42771
 -8.21624
 -8.14238
 -7.67162
 -7.01593
 -6.76981
 -6.58638
 -6.95677
 -6.5204
 -4.45266
 -4.43118
 -4.23388
 -4.74749
 -11.3997
 -11.2767
 -11.1848
 -11.1854
 -3.09643
 -2.91148
 -3.19081
 -3.08459
 -5.14987
 -5.29551
 -5.46245
 -4.95112
 -3.97323
 -3.64855
 -3.88079
 -4.14066
 -1.92992
 -1.54123
 -1.84091
 -1.59561
 3.24561
 3.14491
 2.88173
 3.24248
 -14.0846
 -13.5781
 -6.20257
 -5.99875
 -5.98134
 5.21766
 5.20904
 5.21736
 -0.925475
 -0.734443
 -0.856608
 -0.643345
 2.02308
 1.97463
 2.29342
 2.31724
 0.231513
 0.355626
 0.176533
 0.509348
 -11.5879
 -11.0446
 -11.3131
 -11.3253
 -4.45005
 -4.09045
 -4.21649
 -4.04592
 -6.69277
 -7.08928
 -7.0401
 -7.36266
 -5.40879
 -5.37888
 -5.10331
 -4.95581
 -7.31949
 -7.42567
 -7.16243
 -7.22933
 -3.4381
 -3.43342
 -9.22275
 -8.41502
 -9.18893
 -8.50656
 -7.4801
 -7.25039
 -7.08402
 -7.69935
 -0.840961
 -0.547721
 -0.881865
 -0.595584
 -0.856853
 -0.938853
 -0.930757
 -0.957143
 -4.9467
 -4.97093
 -4.85445
 -5.08537
 -4.64693
 -4.80559
 -5.01777
 -5.23449
 0.294328
 0.610093
 0.690521
 0.234189
 -7.14737
 -6.9234
 -6.80842
 -6.75146
 -13.2791
 -13.0745
 -13.2107
 -13.1286
 -9.5969
 -9.39253
 -9.4448
 -9.28538
 -13.7082
 -13.8742
 -13.5896
 -13.9377
 -10.1253
 -10.4801
 -10.3746
 -10.4039
 -4.28568
 -4.67402
 -4.31797
 -4.40841
 -6.78665
 -6.53604
 -3.59656
 -3.96958
 -3.50741
 -3.72353
 -0.74985
 -0.978451
 -0.958427
 -1.04892
 -8.1944
 -8.61992
 -8.64487
 -8.28475
 -3.47656
 -3.38772
 -3.48858
 -3.15789
 -2.63385
 -2.40994
 -2.33466
 -2.46133
 -0.325782
 -0.338287
 -0.462193
 -0.659336
 -1.29488
 -1.23225
 -1.12306
 -1.51648
 -0.560267
 -0.70576
 -0.771821
 -0.641493
 3.02265
 2.97811
 3.11829
 3.08101
 -7.87154
 -7.99569
 -7.6006
 -7.90665
 -6.42796
 -6.5306
 2.57905
 2.47886
 2.50806
 2.74098
 -1.67819
 -1.76524
 -6.08199
 -5.83251
 -6.12873
 -9.43327
 -9.48484
 0.124934
 0.162482
 0.27186
 -0.00185551
 2.77237
 2.63482
 2.65077
 2.59139
 0.540442
 0.410023
 0.262431
 0.20605
 -1.63789
 -1.79282
 -1.86987
 -1.93395
 -5.54487
 -5.14195
 -5.13319
 -5.16888
 -6.63962
 -6.49434
 -6.45284
 -6.38439
 -1.50268
 -1.77555
 -1.7877
 -1.71106
 -5.11478
 -5.06962
 -5.21886
 -4.75142
 -4.15671
 -3.93776
 -3.87325
 -4.03222
 -4.57113
 -4.79995
 -4.959
 -4.79053
 -4.80458
 -4.37739
 -4.84288
 -3.57862
 -3.35838
 -3.827
 -3.62838
 -2.16781
 -2.28615
 -2.0007
 -2.10289
 -0.550174
 -0.757671
 -0.424217
 -0.73999
 -11.304
 -11.1935
 -11.4199
 -11.6408
 -3.15785
 -3.14818
 -3.4327
 -3.43004
 0.639142
 0.652917
 0.966412
 0.715703
 1.13746
 1.1368
 1.18425
 1.26964
 0.449754
 0.595563
 0.586115
 0.488967
 -0.46635
 -0.441663
 -0.735426
 -0.786783
 -0.521816
 -0.361807
 -0.294484
 -0.399771
 -10.7432
 -10.9659
 -10.9401
 -11.002
 -2.76165
 -2.75466
 -2.69331
 -2.98043
 -7.54018
 -7.75045
 -7.49209
 -7.37516
 -0.607371
 -0.915734
 -0.532047
 -0.777314
 -11.6521
 -11.8094
 -11.7768
 -12.1773
 -12.2839
 -12.2352
 -12.5503
 -7.30162
 -6.62618
 -6.85858
 -6.88115
 -1.02021
 -1.13569
 -0.861253
 -1.07337
 -13.1458
 -12.701
 -12.8047
 -2.42628
 -2.19907
 -2.34121
 -1.98298
 -10.0727
 -10.1321
 -9.3486
 -9.47562
 -9.80793
 -9.38648
 -1.95543
 -1.7751
 -1.88213
 0.868817
 0.777635
 1.05334
 0.955141
 -0.637239
 -0.472425
 -0.718095
 -0.745903
 -4.07979
 -4.42245
 -4.00617
 -11.9923
 -11.3301
 -11.3913
 -7.32732
 -6.95941
 -6.8136
 -7.02708
 -12.0485
 -11.9987
 -11.501
 -12.4046
 -2.67797
 -2.98758
 -3.13478
 -2.92895
 -10.1929
 -10.2973
 -10.4929
 -9.91474
 -4.27402
 -4.34691
 -4.12296
 -3.99176
 -1.26178
 -1.01777
 -1.15223
 -12.8728
 -12.543
 -12.72
 -13.2265
 -6.39274
 -5.23513
 -5.61878
 -5.51735
 -5.3228
 -5.73944
 -5.76253
 -5.51484
 -1.09459
 -0.952526
 -0.95157
 -0.940247
 -0.931969
 -1.25196
 -2.88861
 -2.58809
 -2.55774
 -2.48588
 -2.71411
 -3.05893
 -2.78679
 -2.98615
 -7.07752
 -13.2274
 -12.7136
 -12.594
 -12.9318
 3.78731
 4.00367
 3.86257
 3.88117
 -1.70779
 -1.52392
 -1.07888
 -0.98956
 -1.10464
 -1.1676
 -0.909243
 -0.941504
 -0.604851
 -0.73166
 -7.58514
 -7.17323
 -7.23813
 -7.44535
 -7.90675
 -8.11401
 -7.68587
 -7.95437
 -1.4673
 -1.24781
 -6.72348
 -6.72977
 -7.17523
 -6.88348
 -6.951
 -7.31747
 -6.96942
 -4.98658
 -4.76779
 -4.59674
 -4.48609
 -3.1665
 -2.88895
 -3.13011
 -2.88085
 -7.66982
 -8.13136
 -8.08057
 -7.7361
 -8.87164
 -9.02557
 -9.2284
 -8.91457
 -8.26113
 -8.65173
 -8.34519
 -7.89219
 -8.02995
 -7.92279
 -7.61554
 -2.80728
 -2.89409
 -2.91783
 -2.69302
 1.82644
 1.85789
 1.7264
 1.70584
 -2.05658
 -2.01331
 -1.8757
 -1.94538
 -8.85102
 -8.49353
 -8.25198
 -8.59527
 -6.66488
 -6.56325
 -6.52278
 -6.85832
 -2.14204
 -2.30579
 -2.39265
 -2.43809
 -6.63411
 -6.27786
 -6.49085
 -6.61067
 -4.76852
 -4.88185
 -4.39535
 -4.86855
 -4.79026
 -5.10666
 -4.99094
 -5.0809
 -6.45837
 -6.65345
 -6.64981
 -11.182
 -11.2753
 -11.0902
 -11.1677
 -1.95506
 -2.22967
 -2.09669
 -2.14308
 -3.65876
 -3.97458
 -3.92367
 -3.84006
 1.57995
 1.72765
 1.70718
 1.4962
 -0.362533
 -0.56145
 -0.525733
 -0.400335
 -0.712767
 -0.301496
 -0.484085
 -0.249065
 -0.216043
 -0.354654
 -0.321677
 -0.41587
 -4.67014
 -4.48228
 -4.56077
 0.682062
 0.726799
 0.621183
 0.580857
 0.0817075
 -0.0154212
 -0.204712
 0.0487723
 -12.855
 -12.5274
 -12.4885
 -12.7051
 -4.83723
 -4.64539
 -4.52204
 -4.39519
 -8.94279
 -8.98894
 -8.82443
 -8.60546
 -5.45332
 -5.60473
 -5.38261
 -5.17893
 -6.35935
 -6.63458
 -6.37968
 -6.47003
 -1.06349
 -0.837414
 -0.956763
 -0.641964
 -3.87778
 -4.45665
 -4.0172
 -4.06431
 -8.99436
 -9.2244
 -8.92099
 -9.03135
 -5.66031
 -5.5373
 -5.96581
 -5.86875
 -0.105299
 0.00459975
 -0.27609
 -0.353295
 -11.137
 -11.2676
 -11.2062
 -11.3164
 -2.28566
 -2.03102
 0.111853
 -3.8886
 -4.03482
 -4.2304
 -3.81221
 -3.09154
 -3.34942
 -3.02894
 -2.97712
 2.53805
 2.57636
 2.34452
 -1.8385
 -1.58755
 -1.52343
 -1.37102
 -5.53312
 -6.07353
 -5.85577
 -6.13152
 -4.21821
 -4.4754
 -4.32019
 -4.22216
 -10.5814
 -10.7434
 -10.7764
 -10.6734
 -0.460205
 -0.862425
 -0.583619
 -0.930936
 -0.918166
 -0.840395
 -1.18459
 2.10564
 2.41627
 2.26249
 2.11213
 -0.349952
 -0.640396
 -0.445759
 -5.32787
 -5.98757
 -5.43022
 -0.191446
 -0.166885
 0.0364822
 -0.0624676
 -3.15341
 -3.43078
 -3.50492
 -3.46654
 5.8668
 5.87155
 5.86652
 5.76007
 -2.77673
 -2.66572
 -2.69384
 0.66886
 0.708169
 0.669375
 0.664573
 -2.79347
 -2.65236
 -2.39926
 -2.63844
 -0.0455025
 -0.267037
 -0.253916
 -0.351029
 -6.93889
 -7.07958
 -6.86322
 -7.17041
 -7.87103
 -7.59729
 -7.85503
 -7.99517
 -12.2937
 -12.2832
 -12.4542
 -12.0612
 -5.03471
 -4.63115
 -4.96438
 -5.07696
 0.0863564
 0.327735
 0.109308
 0.245431
 -1.27378
 -1.16191
 1.5428
 1.54428
 1.46302
 1.471
 -3.42742
 -3.54486
 -1.86107
 -2.28122
 -2.19755
 -0.74537
 -0.895987
 -1.02105
 -0.867933
 -11.3866
 -11.5096
 -11.0008
 -11.0755
 -10.9041
 -10.7898
 -10.6344
 -10.8328
 -1.043
 -1.15637
 -1.00512
 -0.764458
 0.676681
 0.614734
 -5.45702
 -5.55205
 -5.4568
 -5.78103
 -0.811698
 -0.696233
 -0.917562
 -0.881244
 -2.29139
 -1.94955
 -2.54576
 -13.9173
 -14.0429
 -13.7437
 -4.12866
 -4.52765
 -4.36038
 -4.38699
 -9.88484
 -10.3405
 -9.81106
 -9.62485
 -4.64066
 -4.94109
 -5.00411
 -4.61997
 -7.60854
 -7.89929
 -7.96151
 -7.42454
 0.167333
 -0.0457302
 0.135671
 0.230276
 -0.736096
 -1.06208
 -0.637498
 -0.968612
 -4.753
 -4.43424
 -5.01889
 -4.62451
 -2.00095
 -2.31161
 -2.39678
 -1.9697
 0.177128
 0.0810691
 -0.00723544
 -0.243251
 -3.19844
 -3.3426
 -3.52422
 -3.67427
 -6.38813
 -6.45528
 -6.23034
 -4.50112
 -4.81852
 -4.60061
 -4.78938
 4.92778
 4.73295
 4.63951
 4.76549
 0.669951
 0.67101
 0.631265
 0.653943
 -1.82402
 -1.79399
 -1.80857
 -2.07481
 2.75699
 2.5718
 2.86706
 2.67739
 -9.94449
 -9.89313
 -9.61227
 -12.6596
 -12.413
 -12.1096
 -12.3785
 -8.19653
 -8.82374
 -8.56879
 -8.5709
 -4.39183
 -6.32871
 -6.71975
 -6.86678
 -6.57217
 -3.88627
 -4.11479
 -3.73874
 -3.75401
 0.399096
 0.653223
 0.508132
 -0.91848
 -0.996211
 -1.06901
 -0.706784
 4.8471
 5.04347
 4.87218
 5.12387
 2.32535
 2.34385
 2.24223
 2.32385
 -1.66699
 -1.66054
 -1.83928
 -2.0077
 -13.0056
 -12.5083
 -12.6622
 -12.6132
 4.35624
 4.35367
 4.16223
 4.22743
 -7.17695
 -7.47985
 -6.94208
 -7.2903
 -4.49763
 -4.51589
 -4.82341
 -4.54882
 -1.10407
 -0.664645
 -0.664548
 -3.487
 -3.16666
 -3.10196
 -3.11433
 -12.5042
 -12.5677
 -12.6818
 0.218286
 -0.171677
 -0.232177
 -2.86393
 -2.99955
 -3.32016
 -3.25569
 -1.65243
 -1.58113
 -1.51392
 -1.44021
 -1.93615
 -1.88215
 -2.196
 -2.26242
 0.681079
 0.827021
 0.827913
 0.56884
 -3.43739
 -3.64223
 -3.33852
 -3.67935
 -11.5778
 -10.9675
 -10.9974
 -10.697
 -10.4839
 -10.3436
 -10.2763
 -10.6696
 1.08257
 1.06544
 1.01399
 1.09229
 -9.57584
 -9.69902
 -9.65203
 -9.2561
 -11.136
 -11.6142
 -11.4591
 -10.9975
 -9.4802
 -9.47802
 -9.04278
 -9.09785
 -6.16463
 -6.06905
 -6.34629
 -6.19831
 -4.02336
 -3.79781
 -4.14132
 -1.67667
 -1.26644
 -1.40185
 -1.47087
 -7.8737
 -7.63612
 -7.3904
 -7.84153
 -8.23999
 -8.35375
 -8.55839
 -8.44091
 -14.134
 -14.1381
 -13.6564
 -13.9459
 2.44583
 2.29529
 2.34196
 2.30861
 1.47459
 1.57201
 1.5238
 1.37623
 0.58365
 0.613012
 0.299022
 0.62655
 -1.88779
 -1.52241
 -1.77645
 -1.76381
 -2.30607
 -2.33762
 -2.32162
 -11.3496
 -11.6309
 -12.0066
 -11.7784
 -8.62213
 -8.48151
 -8.28651
 -8.24705
 -3.51745
 -3.30415
 -3.21736
 -3.39557
 -10.6906
 -10.9462
 -5.33089
 -5.35348
 -5.34679
 -5.03883
 -10.3987
 -10.5777
 -10.986
 -10.6115
 -4.81032
 -5.2235
 -4.72108
 -5.27666
 -1.60277
 -1.79148
 -1.39668
 -1.56196
 1.43004
 1.6036
 1.45628
 1.27487
 5.03914
 4.861
 5.12393
 4.95236
 -9.87576
 -9.70339
 -9.64933
 -9.94244
 -10.8582
 -10.8868
 -10.9378
 -11.1844
 -2.78534
 -2.4325
 -2.6664
 -2.49721
 -4.24219
 -4.07437
 -4.02832
 -4.2648
 -0.583021
 -0.341823
 -0.753098
 -5.7739
 -5.52864
 -5.5534
 -5.40399
 -0.533323
 -0.47727
 -0.648587
 -0.6602
 -3.77163
 -3.47135
 -3.23575
 -3.42034
 -6.37253
 -6.18813
 -6.30119
 -6.40798
 -4.55143
 -4.44556
 -4.35104
 -9.65409
 -9.28172
 -9.42409
 -9.41653
 -5.93336
 -6.34554
 2.94843
 2.63832
 2.99914
 2.84712
 -7.84545
 -7.63076
 -7.79064
 -1.13725
 -1.21504
 -1.22695
 -1.12789
 -5.82122
 -5.79305
 -5.67357
 -3.88635
 -3.59379
 -3.93012
 -3.71534
 -5.7438
 -5.35602
 -5.92379
 -5.61695
 -6.03814
 -6.42265
 4.07889
 4.07275
 4.21311
 4.08293
 4.73235
 4.93741
 5.03766
 4.83682
 -4.18545
 -3.8087
 -3.95438
 -3.79808
 -5.56519
 -5.36371
 -5.53968
 -5.27812
 3.94523
 3.98031
 3.93984
 3.7759
 -0.947138
 -0.659706
 0.743837
 0.688179
 0.619845
 0.411982
 -6.10184
 -5.99546
 -6.44437
 -6.18458
 -5.31094
 -5.39103
 -5.69458
 -5.16961
 -5.84267
 -5.48083
 -5.40446
 -5.4758
 -1.64367
 -1.6703
 -1.90792
 -1.6402
 -0.0462058
 0.0379683
 0.247868
 -0.0684513
 1.9472
 1.69515
 1.7237
 1.94088
 -0.113759
 -0.114356
 -0.122784
 -0.509336
 -7.86228
 -7.62959
 -7.98737
 -7.80052
 -4.179
 -3.47356
 -3.83047
 2.65403
 2.53315
 2.36001
 -6.71492
 -7.24679
 -6.9669
 -6.96235
 -7.08519
 -6.48705
 -6.77793
 -6.91974
 -2.83514
 -2.6418
 -2.53644
 -3.26549
 -3.37706
 -3.64815
 -3.38096
 0.0535802
 0.197433
 0.250964
 0.247397
 -9.154
 -9.0194
 -9.30252
 -9.17465
 0.52394
 0.5722
 0.559743
 0.474139
 0.695046
 0.827592
 0.698913
 -12.5462
 -13.0551
 -13.2611
 -12.9048
 -9.26257
 -9.51901
 -1.23123
 -1.11079
 -1.37042
 -1.30043
 -3.91071
 -4.25019
 -3.92902
 -3.29041
 -3.14784
 -3.21369
 -2.93614
 0.16633
 -0.0462377
 0.0776218
 -8.79624
 -9.04175
 -8.50866
 -8.66694
 0.149672
 -0.191602
 0.0526151
 0.110187
 -7.26071
 -6.95797
 -6.78939
 -6.90835
 0.436934
 0.326837
 -0.129834
 0.142063
 -0.059838
 0.047959
 -1.06104
 -0.923157
 -0.995193
 -1.06934
 2.27579
 2.36802
 2.57673
 2.39974
 -8.01421
 -8.37944
 -1.87592
 -2.04625
 -2.08621
 -2.05703
 -12.3167
 -12.1653
 -12.2506
 -12.4355
 -1.71721
 -1.54307
 -1.87411
 -2.09721
 -8.62355
 -9.00511
 -9.10975
 -9.1043
 -10.78
 -11.212
 -10.5414
 -11.0799
 -7.21271
 -6.83069
 -11.2846
 -11.6289
 -11.5158
 -11.3698
 0.138861
 0.169581
 0.20038
 -0.0498533
 -11.276
 -11.3826
 -11.4146
 -11.2522
 -12.8287
 -13.2499
 -13.1382
 -12.867
 -5.36989
 -5.38293
 -5.69778
 -5.59437
 -3.48546
 -3.35486
 -3.69475
 -3.85401
 -10.3459
 -9.87678
 -10.1815
 -10.3552
 2.69714
 2.46062
 2.61764
 2.74905
 -10.1189
 -10.6148
 -1.89474
 -2.08708
 -2.12385
 -2.3922
 -9.95374
 -9.74613
 -9.43011
 -9.46994
 -0.00138497
 -0.240531
 -0.198569
 -0.182196
 -2.43977
 -2.02235
 -2.17346
 -2.384
 -0.454407
 -0.379267
 -0.704767
 0.0370455
 0.166088
 0.021309
 0.246021
 0.555001
 0.360267
 0.42181
 0.323426
 -5.54293
 -5.31201
 -5.20979
 -9.5609
 -9.59421
 -9.92053
 -9.90403
 -4.65396
 -4.47911
 -4.3385
 -0.00445735
 0.175109
 0.035825
 -3.96669
 -4.41006
 -4.02179
 -4.29585
 -5.87713
 -5.8211
 -5.89346
 -6.29213
 -3.06269
 -3.39483
 -3.44327
 -3.32189
 -2.72681
 -2.59101
 -2.49852
 -2.28266
 -2.11216
 -2.06257
 -2.52979
 -2.69768
 -2.87113
 -2.39321
 -9.68361
 -9.57021
 -9.69486
 -9.37333
 -6.89586
 -6.66324
 -6.87669
 -7.01274
 -3.34727
 -3.41736
 -3.25952
 -3.70839
 0.154022
 0.334457
 0.183147
 -4.72514
 -4.52104
 -4.70841
 -4.77686
 -1.33731
 -0.991505
 -1.13592
 -0.97156
 3.49702
 3.41703
 3.53361
 3.59729
 -2.2914
 -2.13681
 -2.23153
 -2.20582
 -10.1342
 -10.0307
 -10.4223
 -10.2756
 -2.13146
 -2.46153
 -2.27283
 -2.10512
 0.385295
 0.396895
 0.305269
 0.219211
 0.0716939
 0.221836
 0.215024
 -3.30516
 -3.35999
 -3.26791
 -6.12059
 -2.04326
 -1.60032
 -1.8593
 -1.84989
 -10.7944
 -10.7025
 -10.9407
 -10.1459
 -10.2287
 -10.3873
 -1.99829
 -2.27835
 -2.06479
 -2.23391
 -12.8108
 -12.9825
 -13.0956
 -13.1186
 -0.120038
 -5.25111
 -4.94596
 -5.17787
 -5.07678
 -0.233352
 -0.337866
 -0.300927
 -0.348672
 -10.6108
 -10.8561
 -10.3325
 -10.623
 -6.52123
 -7.02093
 -6.83347
 -6.62573
 -8.24441
 -8.46868
 -8.01042
 -8.11574
 0.539322
 0.467884
 0.373563
 0.542707
 -1.39493
 -1.62957
 -1.3761
 -1.39499
 -4.73862
 -4.53496
 -4.79495
 -4.46566
 -1.71982
 -1.42286
 -1.82514
 -1.53915
 -6.28784
 -6.43808
 -6.76444
 -6.68291
 -0.272054
 -0.179772
 -0.434017
 -0.412856
 -1.24091
 -1.35565
 -1.59256
 -1.45539
 -5.34767
 -5.38437
 -5.34362
 -5.73101
 -10.8216
 -11.2325
 -10.9993
 -11.2821
 0.622837
 0.54613
 0.361993
 0.425328
 2.15069
 2.4296
 2.13855
 2.17106
 -10.9063
 -11.2748
 -11.0989
 -11.1532
 2.02268
 2.22797
 1.7986
 1.90858
 1.9623
 1.73631
 -3.97395
 -4.12254
 -3.84959
 -3.66881
 -1.35332
 -1.5213
 -1.5145
 -1.25758
 -13.9559
 -14.0596
 -14.0435
 -13.8366
 -10.5596
 -10.5179
 -10.9798
 -6.45155
 -6.41658
 -6.72059
 -6.31747
 0.104226
 0.0402519
 0.283933
 -0.0388707
 -1.16444
 -1.11368
 -1.02671
 -0.931794
 -1.10493
 -1.28237
 -6.52102
 -7.08996
 -6.90436
 -6.6613
 -5.90218
 -5.89682
 -5.60469
 -5.9812
 -6.96546
 -6.91572
 -6.58949
 -6.94983
 -12.5749
 -12.6233
 -11.983
 -12.7954
 -7.71195
 -7.71083
 -7.36335
 -2.37843
 -4.53246
 -4.43867
 -4.52641
 -4.28932
 -4.68106
 -4.3215
 -4.43548
 -4.56534
 -9.19559
 -9.04132
 -9.00237
 -8.80127
 -7.73077
 -7.49874
 -7.52988
 -7.84799
 -5.53077
 -5.24512
 -5.21899
 -1.87353
 -1.66792
 -1.92732
 -1.53003
 -4.41864
 -4.92752
 -4.63077
 -4.67738
 -2.17345
 -2.35964
 -2.0315
 4.28812
 4.29592
 4.42181
 4.20308
 -9.47882
 -10.1076
 -9.83901
 -9.52031
 -8.99116
 -9.63399
 -9.28735
 4.10065
 -4.80236
 -4.86998
 -4.75691
 -5.1535
 -5.44837
 -5.50562
 1.603
 1.55834
 1.58694
 1.50652
 0.50266
 0.418942
 0.169896
 0.513677
 -0.860881
 -1.00433
 -0.930076
 -0.722415
 -0.453022
 -0.581989
 -0.726218
 -0.444913
 -0.417418
 -0.627267
 -2.46168
 -2.23144
 -2.1438
 -2.13992
 -2.73857
 -3.0392
 -14.2539
 -14.2629
 0.00712089
 -0.37706
 0.0439787
 -0.205562
 -3.27737
 -3.18155
 -3.40141
 -3.05652
 0.761044
 0.682871
 1.06481
 0.962109
 -9.86324
 -10.0978
 -9.52079
 -9.75978
 -8.88017
 -8.57421
 -8.85686
 -8.54578
 -6.22515
 -6.4796
 -6.52568
 -6.34713
 -4.66239
 -4.77792
 -5.22917
 -5.04332
 -4.17433
 -4.01857
 0.0750956
 -7.34981
 -7.7111
 -7.65676
 -7.71965
 -12.2677
 -12.1545
 -12.6973
 -12.066
 -9.21853
 -9.64031
 -9.1284
 -9.30365
 5.85426
 5.85818
 5.83
 5.77569
 -12.1598
 -12.2432
 -12.1099
 -12.123
 -0.750336
 -0.75493
 -0.506953
 -0.890061
 -1.89262
 -1.58372
 -1.70523
 -1.48256
 -6.91666
 -6.96025
 -7.14278
 -7.22215
 -6.97747
 -6.86941
 -6.70369
 -6.79428
 0.0820499
 -0.300211
 -0.101753
 -0.199426
 -11.7059
 -11.8352
 -11.6582
 -11.7208
 -10.0087
 -10.2017
 -10.1098
 -10.33
 -7.35523
 -7.41361
 -7.66949
 -7.68163
 -10.3206
 -10.0301
 -10.1992
 -10.3086
 -1.31226
 -1.59011
 -1.59218
 -1.68818
 0.0432006
 -0.00327997
 -0.0845141
 -0.145327
 -9.56113
 -9.30812
 -9.16349
 -9.25406
 -3.03457
 -2.96765
 -2.88539
 -2.62949
 -3.42428
 -3.28001
 -3.2152
 -3.39786
 4.74102
 4.6263
 4.55373
 4.61431
 -11.8571
 -11.9422
 -10.6275
 -10.6831
 -10.3778
 -10.9021
 1.06671
 1.28121
 1.3537
 1.01833
 -1.45287
 -1.09931
 -1.08619
 -0.965079
 -10.1129
 -9.8697
 -10.3263
 -10.3689
 -2.56252
 -2.65329
 -2.488
 -2.79705
 -2.14113
 -2.23104
 -1.9083
 -1.93195
 -12.3775
 -12.481
 -12.2809
 -12.2358
 -4.57169
 -4.47418
 -4.57627
 -4.70815
 -3.82587
 -3.92563
 -3.85272
 -3.63292
 -8.33492
 -8.49304
 -8.60408
 -8.35537
 -6.3704
 -6.25045
 -6.15341
 -5.9529
 -2.67667
 -2.71191
 -2.34891
 -1.46441
 -1.69144
 -1.54449
 -1.94928
 1.63576
 1.74151
 1.76707
 1.42703
 -1.8667
 -2.03411
 -2.08961
 -2.14122
 -4.2432
 -4.05785
 -4.19828
 -3.9778
 -12.4334
 -12.5695
 -12.529
 -12.0729
 -1.92316
 -2.41728
 -2.15435
 -2.13781
 0.906619
 0.912678
 1.09027
 1.23405
 -7.16208
 -7.5088
 -7.34132
 -7.09029
 -5.74537
 -5.67649
 -5.51445
 -4.38403
 -4.79416
 -4.8737
 -4.97679
 1.86761
 1.87799
 1.86404
 1.69072
 -4.86823
 -4.57949
 -4.68926
 -4.47278
 -11.5096
 -11.5464
 -11.5279
 -11.5904
 -4.54195
 -4.51825
 -4.62748
 -4.71306
 0.639101
 0.77972
 0.689836
 0.611183
 -0.316227
 -0.500975
 -0.301557
 -0.0893923
 -14.4134
 -14.2917
 -14.4244
 -14.4286
 -1.2824
 -1.34624
 -1.30299
 -0.944616
 -5.65053
 -5.16079
 -5.28992
 -5.43601
 -14.1064
 -14.1486
 -13.9184
 -13.8872
 -10.7736
 -11.2913
 -10.9921
 -7.2185
 -7.18439
 -7.59795
 -7.71553
 -9.82132
 -9.89543
 -10.3387
 -9.69333
 3.64506
 3.50122
 3.36814
 3.41845
 -0.483776
 -0.758712
 -0.365289
 -11.7023
 -12.0777
 -11.9993
 -12.0833
 -5.50488
 -5.40228
 -5.73165
 -5.28068
 -8.3174
 -8.21115
 -8.66605
 -7.98072
 0.518607
 0.543784
 0.751963
 0.853925
 -2.48599
 -2.82752
 -2.445
 -2.69299
 -6.34698
 -5.81446
 -5.99764
 1.41285
 1.32863
 1.21431
 1.23274
 -0.163846
 0.251543
 0.100959
 0.192577
 -2.14289
 -11.73
 -11.955
 -11.7769
 -12.049
 3.2578
 3.26041
 3.43711
 3.44183
 -8.20321
 -8.81069
 -8.5103
 -8.8905
 -5.84878
 -5.61439
 -5.69948
 -5.36552
 4.34998
 -9.13709
 -8.86876
 -9.31421
 -11.582
 -12.0706
 -11.7798
 -11.8151
 -3.39638
 -3.42635
 -3.88569
 -3.56594
 -6.47511
 -6.46766
 -6.73454
 -6.27868
 -0.684006
 -0.429698
 -3.94934
 -3.80164
 -3.79673
 -4.12191
 -0.694142
 -0.531811
 -0.379423
 -0.59066
 -1.62282
 -1.50752
 -1.9007
 -1.90072
 -7.18433
 -6.938
 -7.18022
 -7.27134
 2.5499
 2.57441
 2.57743
 2.31426
 0.114633
 0.249483
 0.150908
 0.317056
 2.12731
 1.95949
 0.806676
 0.808642
 0.785166
 0.79972
 1.08574
 1.25121
 0.99214
 1.20451
 -12.2822
 -12.1346
 -11.7904
 -11.802
 -5.34565
 -5.33077
 -5.19517
 -5.67898
 -2.4183
 -2.8242
 -2.56056
 -2.59206
 -4.48689
 -4.36517
 -4.28739
 -4.58335
 -12.1696
 -12.0946
 1.50424
 1.61351
 1.58876
 1.50204
 -12.0651
 -12.1841
 -11.8695
 3.01178
 3.07542
 3.02272
 3.12709
 -11.1434
 -10.7065
 -11.0369
 -10.7845
 -1.81716
 -1.62247
 -1.89934
 -1.60393
 -3.18725
 -3.21488
 -3.08662
 -11.8352
 -11.6146
 -11.7048
 -11.9027
 -5.12922
 -4.82132
 -5.16183
 -4.91373
 -3.34128
 -3.49599
 -3.74715
 -3.47601
 -1.93375
 -1.78888
 -2.63118
 -2.13725
 -2.49062
 -2.30563
 -5.8026
 -5.44849
 -5.61954
 -12.4637
 -11.9485
 -11.8903
 -12.3365
 -3.05045
 -3.24268
 -3.01825
 -3.10671
 -2.52711
 -2.35425
 -1.4181
 -1.16089
 -1.08747
 -1.34243
 2.72326
 2.69075
 2.48158
 -5.06711
 -5.14093
 -4.72327
 -4.71687
 -12.0487
 -12.0757
 -12.0971
 2.12107
 2.24154
 2.11889
 -3.09434
 -2.88479
 -3.02836
 -2.75725
 -6.6247
 -6.64131
 -6.25088
 -6.38639
 3.51454
 3.59731
 3.53669
 3.49393
 -9.81444
 -9.93461
 -9.73228
 -9.6699
 -6.8597
 -6.63282
 -6.67047
 -6.52303
 -9.20979
 -9.31738
 -9.07608
 -11.5831
 -11.6808
 -12.1641
 -11.8408
 -4.24422
 -3.87046
 -4.19607
 -4.25329
 -11.1936
 -11.0688
 -10.9836
 -10.885
 -1.83618
 -1.75077
 -1.93639
 -1.61479
 -12.3208
 -6.11816
 -3.791
 -3.66625
 -3.94471
 -3.58093
 -5.82604
 -5.73644
 -5.47455
 -5.41579
 -7.73179
 -7.81775
 -7.5999
 -7.32277
 -5.87176
 -5.74451
 -6.10405
 -5.93987
 -8.24507
 -8.00968
 -8.3147
 -8.26567
 -3.80456
 -3.61571
 -3.72383
 -3.98477
 -3.37345
 -3.46399
 -3.52307
 -3.66064
 -2.45333
 -2.37562
 -2.27722
 -2.61718
 -3.57858
 -3.56537
 -3.29835
 0.370356
 0.326193
 0.367074
 0.185139
 -4.09085
 -6.56336
 -6.95775
 -6.99725
 -6.8218
 -11.7425
 -11.7774
 -11.3124
 -1.5564
 -1.16471
 -1.31712
 -1.20371
 -4.50651
 -4.8939
 -4.77469
 -5.92573
 -5.84323
 -5.65096
 -5.58564
 -6.69107
 -6.82998
 -7.15528
 -7.26252
 -10.3765
 -10.5721
 -10.8147
 -10.4865
 -0.519747
 -0.467084
 -0.634276
 -0.245604
 -4.66779
 -4.46818
 -4.42108
 -4.28248
 -3.57518
 -3.42192
 -3.21586
 -3.57519
 -3.26107
 -3.08863
 -3.03573
 -2.8427
 -3.90537
 -3.8013
 -3.98228
 -3.64385
 -7.73313
 -7.13482
 -7.82783
 -7.41045
 -3.2972
 -2.83371
 -3.00806
 -3.07587
 1.56801
 1.55977
 1.57164
 1.49147
 1.89802
 1.75149
 1.79104
 -3.90104
 -3.9552
 -4.21262
 -4.2662
 -4.07677
 -4.16245
 -4.30701
 -4.42137
 -3.50927
 -3.25251
 -3.68548
 -3.67443
 -11.3068
 -11.3753
 -10.8847
 -10.9535
 -7.80769
 -7.4805
 -7.43635
 -7.81
 -1.16629
 -1.33849
 -1.29298
 -1.36489
 0.303917
 0.0168211
 0.0673841
 0.425582
 -10.1131
 -9.99501
 -9.77627
 -10.1215
 3.15296
 3.30835
 3.26448
 3.04647
 -2.09779
 -2.37686
 -2.21764
 -2.18425
 0.840903
 0.688849
 0.716233
 -0.408241
 -0.547557
 -0.586402
 -0.794228
 -7.20104
 -7.12679
 -7.39667
 -6.84581
 -0.468893
 -0.127383
 -0.243355
 -0.359731
 1.73619
 1.26471
 1.58163
 3.47662
 3.29164
 3.17846
 3.2697
 -12.8346
 -12.9624
 -13.0927
 -13.403
 -0.810008
 -0.633437
 -0.775154
 -0.880204
 -5.42089
 -4.97956
 -5.06601
 -5.32545
 -10.925
 -10.7037
 -10.3914
 -10.6613
 -8.86722
 -9.29616
 -8.71147
 -8.94198
 -1.02495
 -1.08485
 -0.897776
 -1.01339
 1.05696
 1.30591
 1.51311
 1.24433
 -4.84241
 -5.03449
 -4.69952
 -4.87238
 0.948477
 0.647251
 -2.71884
 -2.28202
 -2.37873
 -2.5999
 -3.02662
 -3.0009
 -2.82833
 -3.12018
 -2.65287
 -2.67736
 -2.52995
 0.368397
 0.284482
 0.367868
 -5.57318
 -5.58212
 -5.70012
 -5.79189
 -5.09201
 -5.04774
 -4.8279
 -5.35109
 -1.04055
 -1.34274
 -1.20178
 -1.07374
 -7.9892
 -8.34224
 -7.84178
 -7.99223
 -3.79101
 -3.41069
 -3.61553
 -3.90482
 0.571147
 0.572777
 0.618307
 0.580643
 -2.16709
 -2.39209
 -2.18824
 -5.31495
 -5.29536
 -5.02083
 -5.24441
 -4.16942
 -4.36645
 -4.54536
 -12.7238
 -12.6269
 -12.5135
 -12.4347
 2.17114
 2.28773
 2.14542
 2.45708
 -1.78812
 -2.06512
 -2.03826
 -1.84942
 -1.56708
 -1.50625
 -1.27676
 -1.58111
 -13.007
 -12.9029
 -13.3359
 -13.6034
 -8.39998
 -8.58218
 -8.54521
 -0.618753
 -0.584093
 -0.457677
 -0.610701
 -8.60578
 -8.19847
 -8.36788
 -0.81014
 -0.837164
 -0.644163
 -0.698767
 5.05053
 4.9327
 5.02253
 4.92009
 -10.9946
 -11.1225
 -11.4121
 -10.9196
 0.323556
 0.399235
 0.508726
 0.70178
 -12.3507
 -12.2691
 -12.2103
 -12.2941
 -0.281511
 -0.57349
 -0.342218
 -0.48083
 4.93566
 5.16115
 4.98269
 4.97295
 1.47927
 1.70022
 1.49654
 1.40024
 0.209328
 0.0336986
 -0.13527
 0.252467
 -3.77621
 -3.35875
 0.370027
 0.313406
 0.708443
 0.653431
 -5.63166
 -5.44512
 -5.34925
 -5.16451
 -3.43959
 -3.44289
 -3.30752
 -3.70864
 -10.7345
 -10.2847
 -11.0239
 -11.0989
 -9.87766
 -9.71362
 -10.0284
 -10.0616
 -9.04391
 -8.72455
 -8.9798
 -8.71947
 -10.2902
 -10.3702
 -10.4579
 -10.2088
 -6.71065
 -6.62899
 -6.93682
 -6.69425
 -9.20812
 -9.58508
 -9.48367
 -9.33426
 1.95037
 2.24756
 2.28119
 1.92441
 -10.2448
 -10.4786
 -10.3921
 -10.3379
 -2.58753
 -2.35879
 -2.20341
 -2.31908
 -8.27942
 -7.71922
 -7.84932
 -9.95036
 -10.2841
 -10.282
 -10.1714
 0.211412
 0.486399
 0.509428
 0.404339
 1.52466
 1.59418
 1.70497
 1.64924
 -7.32614
 -7.27257
 -7.08705
 -7.61156
 -2.90299
 -2.87202
 -2.81471
 -2.62893
 -6.73966
 -6.52838
 -6.71176
 -6.63623
 -6.64467
 -6.63149
 -7.26779
 -2.19874
 -2.11976
 -1.88958
 -6.47371
 -6.62774
 -4.68252
 -4.28445
 -12.4253
 -12.6643
 -12.6391
 -12.4466
 -4.33713
 -4.46261
 -4.28254
 -4.63469
 -6.45176
 -6.30974
 -6.73943
 -6.30932
 -5.28253
 -5.4558
 -5.28823
 -5.5705
 -9.18942
 -8.68927
 -8.85125
 -8.6286
 -8.5755
 -2.94205
 -3.00889
 -2.7146
 -2.71007
 0.729962
 0.72919
 0.727043
 0.712463
 -6.51826
 -6.19387
 -6.5439
 -6.34282
 -6.79657
 -6.63961
 -6.51426
 -6.91218
 4.53646
 4.40238
 4.33588
 4.20016
 -3.91096
 -4.17944
 -4.02873
 -3.8453
 -3.67833
 -3.41998
 -3.308
 -3.55945
 -6.25906
 -6.01279
 0.245983
 0.185281
 0.0860588
 0.219298
 -1.66007
 -1.81178
 -1.73558
 -1.5788
 -0.130384
 -0.0204068
 0.0646819
 0.0416658
 -1.31037
 -1.49772
 -1.46213
 -1.26451
 -0.213534
 -0.190213
 -0.0791145
 -0.237299
 -8.5381
 -8.35334
 -8.46775
 -8.70872
 -10.2754
 -10.2148
 -9.85711
 -10.0877
 -0.947375
 -0.82368
 -0.672322
 -0.947262
 -3.90733
 -3.65787
 -3.89386
 -3.75606
 -9.03774
 -8.64664
 -8.95696
 -8.76822
 -2.75896
 -2.58812
 -2.5628
 -2.92017
 -0.902946
 -1.09837
 1.22565
 1.12414
 1.06774
 1.25316
 -3.35879
 -3.26005
 -3.06696
 -2.95284
 -9.21617
 -9.05593
 -9.08863
 -9.50905
 -11.864
 -11.6056
 -11.6963
 -11.895
 3.97821
 3.98
 -2.60452
 -2.86169
 -2.93561
 -3.03375
 -2.17776
 -1.77831
 -2.03222
 -2.04616
 -1.8524
 -1.77678
 -0.339793
 -0.471181
 -0.43977
 -0.553453
 -3.42039
 -3.68339
 -3.81762
 1.90746
 1.75534
 1.74388
 1.62806
 -10.145
 -10.4196
 -9.88094
 -10.1974
 -11.6068
 -11.5754
 -11.5665
 -12.9661
 -12.698
 -12.3723
 -12.6595
 -5.07094
 -5.54206
 -5.38129
 -5.43069
 -3.8368
 -4.21667
 -3.6982
 -4.02739
 -8.15178
 -8.67562
 -8.86098
 -8.55255
 -6.24879
 -6.19013
 -6.51186
 -6.22244
 -5.6694
 -5.96132
 -5.79701
 -4.38495
 -4.43666
 -4.27813
 -4.66655
 -7.31619
 -7.99219
 -7.74558
 -7.38267
 -2.83298
 -2.66872
 -2.83314
 -2.88296
 -4.10879
 -4.02601
 -4.37372
 -3.94506
 -6.48837
 -6.40818
 -6.23805
 -6.53717
 -3.87914
 -3.68272
 -3.59598
 -3.92149
 4.86761
 4.92545
 4.72422
 4.73277
 -0.520974
 -0.416538
 -0.410637
 -0.242697
 -7.27028
 -7.25931
 -7.6523
 -7.69824
 -0.411558
 -0.456129
 -0.139271
 -0.0454222
 0.289162
 0.615074
 0.280653
 0.0700444
 -9.54634
 -9.47044
 -9.70642
 -9.23578
 -9.09056
 -8.71
 -9.06368
 -8.96395
 -10.4319
 -10.0968
 -10.4213
 -10.5337
 -7.93621
 -7.92331
 -8.24787
 -8.1095
 -2.48643
 -2.41785
 -2.24401
 -2.41743
 -0.611774
 -0.518268
 -0.725722
 -0.467214
 -6.74919
 -6.24225
 -6.78536
 -6.36624
 -0.73168
 -0.816261
 -0.844165
 -0.833736
 1.15215
 1.09419
 1.02328
 0.918614
 -3.5842
 -3.82395
 -3.62477
 -3.85011
 -1.91702
 -1.73901
 -1.53913
 -2.15427
 -2.25241
 -2.60484
 -2.32352
 0.965145
 1.1099
 1.31164
 1.11632
 -0.863471
 -0.82265
 -0.71579
 -0.775405
 -7.04876
 -7.259
 -7.07703
 -7.20528
 -4.2842
 -4.54527
 -4.60677
 -13.0931
 -12.7411
 -12.8112
 -12.9972
 -11.1937
 -11.5284
 -11.7972
 -11.4171
 -1.8536
 -2.06692
 -1.74125
 -2.05395
 -4.89838
 -5.14247
 0.543927
 0.565184
 0.821614
 0.455691
 -4.33364
 -4.03556
 -3.91104
 -4.16474
 -10.4706
 -10.5844
 -10.2308
 -10.5378
 -0.645608
 -0.703621
 -0.789685
 -2.68122
 -2.75076
 -2.79759
 -2.43759
 -1.99226
 -2.35868
 -2.31717
 -2.23882
 -3.68472
 -3.98906
 -4.03333
 -3.63407
 -3.32681
 -3.49938
 -3.70792
 -3.4634
 -4.3048
 -4.47976
 -4.25285
 -4.56199
 -3.03162
 -3.24499
 -8.38413
 -8.17161
 -8.73328
 -8.30981
 -3.25603
 -2.97961
 -3.07795
 -3.25752
 -5.69584
 -5.23005
 -5.4259
 -3.15726
 -3.43591
 -3.25023
 -3.41178
 -5.65511
 -5.48868
 -5.31961
 -5.5527
 -0.380481
 -0.127158
 -0.319964
 0.00127382
 -2.93768
 -2.88509
 -3.21531
 -4.96508
 -5.01593
 -5.38376
 -4.78172
 -3.42914
 -3.37389
 -3.5806
 -0.114638
 -0.19956
 0.025335
 -6.01226
 -5.96381
 -5.94779
 -5.60133
 -3.78493
 -4.00529
 -4.04431
 3.95974
 3.89628
 3.81266
 4.13623
 -6.21018
 -5.9783
 -5.81497
 -6.25227
 -2.12859
 -1.80923
 -1.85241
 -1.76794
 -8.91529
 -8.91694
 -9.05238
 -9.2468
 -9.66127
 -9.40278
 -9.84967
 -9.77563
 0.214592
 -0.11445
 0.29386
 0.22917
 -4.74595
 -4.52936
 -4.35319
 -1.39864
 -1.11866
 -1.31489
 -1.30523
 -9.89372
 -9.3613
 -9.6578
 -4.043
 -4.31073
 -4.1241
 -4.39934
 -6.85742
 -6.99896
 -6.99279
 -6.90253
 -10.7394
 -10.8547
 -11.0148
 -10.7062
 5.5952
 5.72749
 5.69688
 5.59511
 -1.14411
 -1.20078
 -1.35714
 -1.12013
 -4.675
 -5.22028
 -5.01436
 -5.14028
 1.27432
 1.45207
 1.51634
 -3.78677
 -4.0463
 -3.96834
 -3.72167
 -11.3888
 -6.36156
 -6.12208
 -5.74694
 -6.09192
 -9.39055
 -9.37918
 -9.44046
 -9.58591
 -8.0583
 -7.94921
 -7.87586
 -8.14152
 -4.78453
 -4.67432
 -4.24555
 -3.88867
 -3.89494
 -3.90741
 3.54931
 3.34913
 3.53588
 3.41778
 -1.60663
 -1.49864
 -1.38743
 -1.20694
 -1.22014
 -1.41982
 -1.25059
 -11.4504
 -12.0585
 -11.4831
 -11.4226
 -3.67901
 -3.65955
 -4.00043
 -3.98889
 -4.82432
 -4.6922
 -4.44274
 -4.6531
 -9.85537
 -9.5879
 -10.0473
 -9.60393
 -4.05563
 -3.97905
 -4.32101
 -4.05152
 2.05791
 1.98813
 2.20243
 2.12812
 -3.36413
 -3.26516
 -3.44553
 -3.32452
 -1.05727
 -1.06956
 -1.11117
 -1.28469
 -0.564798
 -0.364125
 -0.393503
 -0.500549
 0.868354
 0.787884
 0.877784
 0.885151
 2.50625
 2.60641
 2.65989
 2.3694
 -12.8996
 -12.6305
 -12.7609
 -12.6503
 3.11845
 3.04056
 3.24462
 2.93624
 -3.68284
 -3.49067
 -3.69485
 -3.42808
 -12.4556
 -12.4452
 -12.1743
 -12.2465
 -2.40389
 -2.34083
 -2.51783
 -2.60642
 0.763617
 -10.6097
 -10.4024
 -10.4733
 -10.8823
 -0.303724
 2.16789
 1.89824
 1.86705
 2.11966
 -5.23066
 -5.62382
 -8.28846
 -7.86915
 -8.38826
 -7.95239
 -9.38783
 -9.35959
 -9.60006
 -9.55313
 -13.2158
 -12.8622
 -13.2603
 -8.36929
 -8.80486
 -8.76153
 -8.71025
 -2.57371
 -11.9018
 -6.71016
 -6.61281
 -6.49262
 -11.6051
 -11.8691
 -11.9204
 -11.8015
 -2.54821
 -2.52446
 -2.52222
 -2.33035
 -1.15194
 -1.23779
 -1.01661
 -0.925982
 -6.52282
 -6.2977
 -6.40363
 -6.88003
 -11.4364
 -11.7119
 -11.3224
 -11.2757
 -10.2047
 -10.1061
 -10.3024
 -10.0752
 -5.6915
 -6.20706
 -6.14529
 2.5727
 2.71654
 2.28925
 2.57384
 5.41031
 5.20676
 5.31674
 5.22378
 1.04328
 1.33209
 1.37583
 1.21671
 -4.4972
 -4.76964
 -4.45124
 1.91586
 1.70419
 1.78818
 1.95671
 -8.7795
 -8.67237
 -9.08275
 -8.84509
 -8.8962
 -8.68152
 -8.83931
 -0.369816
 -0.267055
 -7.06816
 -7.29455
 -14.1081
 -13.8821
 -14.1756
 -12.8102
 -12.9679
 -12.8997
 -13.0787
 -3.04341
 -2.79473
 -3.21216
 -3.01179
 -1.51657
 -1.46045
 -1.32983
 -1.63854
 -3.46621
 -3.45959
 -3.75832
 -3.67778
 -12.2224
 -12.1848
 -12.2897
 -12.1967
 -7.00185
 -7.18661
 -7.07458
 -6.86273
 0.893236
 0.912676
 0.894374
 0.720504
 -7.17213
 -7.2974
 -7.04083
 -7.40274
 -4.90788
 -4.97272
 -4.68806
 -5.04637
 -6.52964
 -6.75699
 -6.72839
 5.93533
 5.89425
 5.87116
 -1.50605
 -1.3564
 -2.57494
 -2.58211
 -2.33185
 -2.7292
 -7.95637
 -8.32678
 -8.06524
 -7.95301
 -7.17223
 -7.31025
 -7.7197
 -7.42011
 -7.4352
 -7.25276
 -7.82558
 3.68888
 3.70094
 1.01106
 1.04564
 0.912627
 0.990891
 -4.89982
 3.84446
 4.0428
 3.96281
 3.95121
 -0.975391
 -1.28275
 -1.04981
 -1.0086
 -2.91793
 -2.77251
 2.43774
 2.04533
 2.08054
 2.2853
 -12.9104
 -13.3032
 -13.1707
 -12.9943
 -11.478
 -11.6167
 -11.4578
 -11.9069
 -0.00816842
 -0.466826
 -0.121802
 -0.358232
 -1.47198
 -1.32493
 -1.82772
 -1.72436
 -1.52167
 -1.3743
 -1.52246
 -7.65306
 -7.87564
 -7.37634
 -7.66144
 0.776754
 0.61201
 0.503275
 0.474558
 -3.62821
 -3.73402
 -3.58423
 -5.99475
 -6.08269
 -6.21895
 -6.48325
 -1.36793
 -1.42428
 -1.59512
 -1.47901
 -0.566546
 -0.812435
 -0.972651
 -0.695234
 -0.532019
 -0.355372
 -0.404982
 -0.608892
 -2.3926
 -2.48843
 -2.73619
 -2.51005
 -6.14625
 -5.90957
 -1.0427
 -1.0913
 -1.16062
 -0.936161
 -13.1373
 -12.5311
 -12.625
 -12.6575
 -0.180568
 -0.317589
 -0.189986
 -0.349469
 1.74352
 1.81046
 1.5588
 1.67836
 -5.01527
 -5.05394
 3.01244
 2.96715
 3.15797
 2.9105
 -1.95549
 -2.15229
 -1.83415
 -11.361
 -11.2629
 -11.5052
 -11.5475
 2.73528
 2.83815
 2.76368
 -0.446948
 -0.42954
 -0.661886
 -0.575018
 2.30254
 -0.382874
 -0.268927
 -0.321355
 -0.0655721
 -3.99146
 -3.78961
 -4.03052
 -3.9978
 -2.7723
 -2.83679
 -2.99263
 -2.75393
 -11.8155
 -12.2435
 -4.46464
 -4.64452
 -4.57883
 -4.47519
 -0.205956
 0.0902769
 -0.250154
 0.11122
 -1.64153
 -2.19233
 -1.9001
 -1.66405
 -10.4895
 -10.2291
 -10.2475
 -10.2854
 -2.83952
 -2.96757
 -3.24496
 -3.13463
 -5.02917
 -9.27425
 -9.46901
 -9.14805
 -1.7332
 -1.80282
 -1.53201
 -1.89895
 -6.97494
 -6.86562
 -7.03062
 -6.64421
 -2.18076
 -1.96922
 -1.99308
 -2.28375
 -11.7378
 -11.3717
 -11.2704
 -11.5311
 -13.9412
 -14.1061
 -13.8634
 -0.472149
 -0.642491
 -0.883986
 -0.715957
 -5.71413
 -5.84489
 -5.47142
 -5.61321
 -6.78967
 -6.9
 -7.11284
 -7.25869
 -1.36426
 -1.39517
 -0.538023
 -0.435692
 -0.348094
 -0.627617
 -2.33583
 -2.76847
 -5.35611
 -5.47563
 -5.31316
 -5.20146
 -6.03581
 -6.1582
 -6.41547
 -6.03137
 -2.56441
 -2.70867
 -2.92824
 -2.77773
 -5.03971
 -5.06709
 -5.0783
 -9.99653
 -9.57886
 -9.45402
 -9.6705
 -8.17533
 -8.05699
 -8.26564
 -2.51445
 -2.91342
 -2.48342
 -2.72591
 -0.76519
 -0.445353
 -0.296327
 -0.651195
 -6.85898
 -6.46791
 -6.4997
 -6.73998
 -2.82438
 -2.79342
 -2.48379
 0.710477
 0.739686
 0.700333
 0.734467
 -1.38346
 -1.35665
 -1.47256
 -1.56284
 -8.57005
 -8.43852
 -8.24222
 -12.9867
 -12.5816
 -12.6618
 -6.54589
 -6.70758
 -6.73608
 -1.36509
 -1.12141
 -1.46191
 -1.21692
 -12.7614
 -12.8463
 -12.7499
 -12.9612
 -6.05961
 -5.87102
 -6.04169
 -6.28213
 -9.11605
 -9.2802
 -9.76916
 -9.69434
 -8.63025
 -8.82685
 -8.64509
 -8.68118
 1.62773
 1.83048
 1.81321
 -2.36859
 -2.4377
 -2.24558
 -2.46463
 -9.08162
 -9.22948
 -8.91925
 -8.92871
 -3.21367
 -3.34606
 -3.38136
 -3.69187
 -7.18366
 -7.18764
 -7.11777
 -6.74955
 -10.8417
 -11.0992
 0.950104
 0.77307
 0.806613
 0.696817
 -7.84977
 -7.63769
 -8.13595
 -7.75553
 -2.38182
 -2.26963
 -2.17474
 -2.4612
 -6.57539
 -6.1471
 -12.3668
 -12.3517
 -12.0237
 -12.4791
 -9.06583
 -9.5216
 -8.91664
 -9.6842
 -13.0416
 -13.104
 -13.3815
 -13.5238
 -7.6398
 -7.60334
 -7.78943
 -6.61989
 -7.05668
 -6.994
 -6.85599
 -7.04809
 -6.8137
 -6.92991
 -6.5655
 -0.962924
 -1.03644
 -0.798544
 -0.728127
 2.10665
 2.20353
 1.95464
 -3.8811
 -3.90772
 -3.93708
 -9.90198
 -9.53558
 -9.74881
 -9.45034
 -2.6214
 -2.80733
 -3.0513
 -2.82352
 -0.181383
 0.118575
 0.0587814
 -0.198949
 -4.01243
 -3.72848
 -3.56526
 -3.58151
 -2.10151
 -2.47072
 -2.11932
 -12.4157
 -12.5445
 -12.0895
 -12.08
 0.690196
 0.609822
 0.104635
 -0.0325178
 -0.0506111
 -7.20732
 -7.34136
 -6.99467
 -7.5492
 -3.61096
 -3.95105
 -3.92525
 -3.82428
 0.189245
 0.141922
 -0.0499824
 0.148655
 -4.87464
 -4.33863
 -4.37568
 -4.69071
 -1.78651
 -1.5883
 -1.93563
 -1.92487
 -10.3834
 -10.513
 -11.0407
 -1.40053
 -1.36402
 -1.57697
 -1.556
 -4.75229
 -4.98205
 0.332129
 0.0437812
 0.141299
 0.283768
 -0.051702
 0.174705
 0.0650222
 0.15799
 -10.82
 -10.6176
 -0.411711
 -0.643458
 -0.511904
 -0.314816
 -4.04195
 -3.75624
 -3.90775
 -4.05793
 -2.20646
 1.81231
 2.01776
 1.95176
 -5.09008
 -5.01663
 -5.10374
 -4.85232
 -11.0103
 -11.0468
 -10.7906
 -11.2018
 1.59779
 1.54787
 1.47207
 1.68139
 -0.0305691
 -0.212661
 0.0238659
 -0.0216299
 -6.62828
 -6.78114
 -6.79156
 1.33085
 1.32248
 1.17659
 1.12495
 -13.0589
 -12.7192
 -12.8958
 -13.1361
 0.890253
 0.738003
 0.680159
 0.989313
 -6.1744
 -5.83409
 -6.08099
 -6.41507
 -2.29662
 -2.4812
 -2.41049
 -2.22602
 0.152067
 0.0625923
 0.116416
 -1.90684
 -2.21352
 -1.88939
 -2.1392
 0.342448
 0.555419
 0.411625
 0.4133
 -0.211381
 -0.0463965
 -0.156661
 -8.03193
 -7.69917
 -8.11021
 -7.69632
 -7.35612
 -3.50923
 -4.1054
 -3.71506
 -3.73132
 -11.4559
 -11.3343
 -11.0899
 -11.3362
 -5.11248
 -5.46793
 -4.92148
 -5.34531
 -6.17637
 -6.42137
 -6.16526
 -6.08026
 0.0236174
 0.124611
 -0.127602
 -0.503155
 -0.421744
 -5.92683
 -5.5295
 -5.81349
 -5.9951
 -11.14
 -11.6541
 -4.44637
 -4.53342
 -4.23515
 -4.59808
 0.364223
 0.418329
 0.220164
 -10.2201
 -10.4709
 -10.124
 -10.2545
 -4.41515
 -4.00731
 -4.14723
 -4.21889
 0.130625
 0.255678
 0.125802
 0.0344079
 -3.65282
 -3.61018
 -4.0367
 -3.73187
 -5.92421
 -6.47878
 1.29408
 1.40529
 1.34877
 1.4662
 -0.372218
 -0.780157
 -0.946566
 -0.81946
 -1.01874
 -0.95227
 -0.884153
 -0.581642
 -0.668965
 -0.833108
 -4.2418
 -4.20342
 -4.15323
 -5.58636
 -5.45538
 -5.33253
 -5.19196
 -0.898776
 -0.863863
 -0.913943
 -0.874996
 -2.35579
 -2.3017
 -4.8408
 -4.62034
 -4.75847
 -4.5347
 -4.84315
 -4.87507
 -3.51988
 -3.84265
 -3.89408
 -3.59182
 2.97196
 2.71507
 2.76146
 2.64909
 -4.72727
 0.340919
 0.131164
 0.280116
 0.333426
 -12.2436
 -12.5739
 -12.2085
 -7.5282
 -7.44438
 -7.22056
 -7.57842
 -3.49078
 -3.64364
 -3.53066
 -3.11475
 -4.25188
 -4.49035
 -4.1249
 -0.375198
 -0.563464
 -0.467704
 -0.331867
 -10.5701
 -10.8626
 -10.2181
 -10.6702
 -6.12374
 -6.00739
 -6.27945
 -6.17139
 -10.5759
 -10.717
 -10.1506
 -10.4561
 0.734636
 0.709367
 0.910682
 0.898028
 -0.877593
 -1.07014
 -7.88012
 -7.74477
 -7.57735
 -7.79776
 -11.2388
 -11.2666
 -11.3485
 -11.1226
 -13.9711
 -14.126
 -13.8258
 -14.2065
 -10.8881
 -10.5977
 -10.8893
 -5.98304
 -6.26738
 -5.92576
 -6.13278
 -10.7282
 -10.8897
 -11.0034
 -10.9093
 0.840749
 0.645831
 0.450094
 0.6829
 -9.20748
 -9.47796
 -9.53936
 -6.01908
 -5.91883
 -5.8264
 -5.81628
 0.385299
 0.478571
 0.381758
 0.541487
 -6.63905
 -6.98658
 -6.78366
 -6.80509
 -5.21684
 -5.46129
 -5.56551
 -5.2568
 -1.23965
 -1.34971
 -1.49475
 -1.6577
 1.02594
 0.984845
 1.24844
 1.23271
 -2.90042
 -2.98758
 -3.22554
 -2.95303
 3.41412
 3.37045
 3.07883
 3.22764
 -0.12668
 -0.28508
 -0.103207
 -0.643266
 -0.389015
 -0.379148
 -0.311806
 4.23419
 4.16723
 4.37467
 4.13976
 -10.1506
 -9.90235
 -9.94148
 -8.6902
 -8.74467
 -9.04888
 -8.98399
 -0.856925
 -1.24628
 -1.12152
 2.04073
 1.97014
 2.08858
 0.950997
 1.15395
 0.943012
 0.918984
 -0.985532
 -0.951615
 -1.16212
 -0.779893
 -6.16699
 -6.62786
 -6.39523
 -6.33374
 2.89524
 2.90976
 2.76651
 2.98891
 -5.5186
 -5.01782
 -4.96485
 -5.38473
 -8.67194
 -8.9097
 -8.39984
 -8.67535
 -4.85212
 -4.82362
 -5.30298
 -5.07885
 -2.91888
 -2.71893
 -3.13056
 0.20354
 0.22718
 0.199025
 0.0653554
 -10.6973
 -10.9835
 -11.1076
 -10.9683
 -9.22882
 -9.43343
 -9.18721
 -8.96283
 -1.10143
 -1.30175
 -1.17411
 -0.990854
 -11.5101
 -11.7034
 -11.8934
 -11.0474
 -11.5938
 -11.1749
 -11.2455
 -11.6039
 -11.6279
 -11.3398
 -11.4399
 2.5612
 2.61781
 4.25749
 4.21634
 4.33323
 4.08984
 -5.80499
 -5.66413
 -5.44558
 -3.5857
 -3.38558
 -3.82663
 -3.45166
 -4.11915
 -4.44597
 -4.34495
 -4.15841
 5.80577
 -2.67687
 -5.47294
 -5.7763
 -9.1526
 -9.34865
 -9.26638
 -9.24088
 2.03768
 -1.98558
 -2.22495
 -1.97952
 -14.3168
 -14.137
 -14.1495
 -14.1529
 -4.19953
 -3.98074
 -4.20584
 -4.46365
 -11.8137
 -11.6171
 -11.8425
 -11.489
 -2.90715
 -3.21428
 -2.67146
 -2.14075
 -2.46583
 -2.26061
 -10.1813
 -10.2707
 -9.86018
 -10.2293
 -5.492
 -5.31259
 -5.09105
 -4.95417
 0.75634
 0.91686
 0.602736
 0.665426
 -8.99612
 -9.58937
 -9.36589
 -11.8706
 -12.409
 -12.4135
 -11.8916
 -8.97785
 -8.88611
 -8.62336
 -8.92219
 -0.858512
 -0.828518
 -1.27069
 -0.804232
 -1.3919
 -1.21093
 -1.24655
 -1.23474
 -10.375
 -10.6286
 -10.6081
 -10.6539
 -2.59553
 -2.6381
 -2.36529
 -8.13802
 -8.17244
 -8.05017
 -7.85051
 0.281293
 0.0606492
 0.403591
 0.373345
 -5.80617
 -5.97493
 -5.53422
 -5.7157
 0.487165
 0.326071
 0.481944
 0.466639
 -4.70402
 -4.90833
 -4.64645
 -4.80327
 -8.5256
 -8.55354
 -8.87321
 -8.28382
 0.955549
 1.02688
 0.858617
 -4.37458
 -4.64431
 -9.60009
 -9.44321
 -9.40094
 -9.17784
 -2.60172
 -2.43135
 -2.40269
 0.6899
 0.901458
 0.958386
 0.854272
 -6.68297
 -6.8087
 -6.65631
 -6.93231
 -5.96941
 -5.93069
 -6.44294
 -6.06226
 5.09982
 5.10225
 4.91564
 5.04388
 -3.99134
 -3.65715
 -3.85708
 3.69665
 3.53184
 3.47225
 -4.16127
 -4.09448
 -3.93038
 -4.09461
 -3.76747
 0.68745
 0.624862
 0.976552
 0.853543
 -3.01559
 -3.28803
 -3.38754
 -9.15724
 -9.16883
 -9.15744
 -8.99909
 -3.3955
 -3.53464
 -3.69818
 -3.69335
 -3.72136
 -3.6106
 -3.55238
 -13.7776
 -13.6235
 -13.5734
 -13.3303
 -0.535172
 -1.01707
 -0.905531
 -0.758442
 1.28429
 1.27513
 1.18467
 1.19379
 -2.01819
 -1.92849
 -2.34514
 -2.05384
 -9.93018
 -10.0732
 -10.1614
 -9.65144
 5.21458
 5.05325
 5.19161
 4.96202
 -8.0837
 -7.70723
 -7.93222
 -7.95306
 1.32255
 1.47497
 1.36439
 1.39621
 -9.26228
 -8.47502
 -8.69801
 -9.05446
 -8.12267
 -7.93155
 -7.74835
 -7.97022
 -8.06798
 -8.23316
 -0.942201
 -0.775843
 -0.758483
 -0.898999
 -10.7132
 -10.7643
 -10.7347
 -7.78744
 -7.29737
 -7.50068
 -7.87612
 -0.460866
 -0.718623
 -0.546912
 -0.311663
 -1.93351
 -1.82675
 -2.16181
 5.94943
 5.94396
 6.00773
 5.94672
 -3.7164
 -3.34614
 -3.76094
 -10.7751
 -11.0187
 -10.6708
 -10.5791
 -8.60943
 -8.35633
 -10.2045
 -10.5907
 -10.828
 -10.3608
 -7.25098
 -7.28113
 1.47361
 1.42102
 1.67846
 1.26889
 -8.22573
 -8.16685
 -8.19766
 -7.81831
 -4.18298
 -4.34753
 -1.76284
 -1.9555
 -1.88465
 -1.78114
 -8.73976
 -8.93162
 -9.01211
 -8.90988
 -1.06833
 -0.621405
 -0.648571
 -0.977009
 -10.4622
 -10.4437
 -10.8085
 -11.2382
 -5.24069
 -5.31702
 -4.97591
 1.75199
 1.85227
 1.88441
 1.74821
 -6.07132
 -6.01939
 -5.87844
 -5.68651
 -0.541461
 -0.3001
 -0.25128
 -0.142665
 -0.807609
 -0.506507
 -0.709416
 5.39072
 5.407
 5.39286
 5.28914
 0.984782
 0.645776
 0.56127
 0.865975
 -8.61611
 -8.44877
 -8.79572
 -8.42375
 -3.69802
 -3.79553
 -3.49165
 -2.22565
 0.196924
 0.0707639
 0.153847
 -0.00635741
 -2.43484
 -2.20486
 -2.41422
 -2.52017
 -7.20858
 -7.70697
 -7.75874
 -7.30181
 0.337065
 0.329127
 -0.104117
 2.08908
 -5.15092
 -5.28084
 -4.93269
 -5.43802
 0.096122
 -0.229464
 3.93771
 4.09035
 0.186158
 -0.00436469
 0.184752
 0.451101
 -7.25523
 -7.53506
 -9.66815
 -9.64179
 -9.76974
 -9.58688
 -1.77734
 -2.01673
 -2.03334
 -2.00785
 -11.978
 -12.0629
 -12.3167
 -12.0891
 -1.75317
 -1.79962
 -1.2796
 -1.29756
 -8.00108
 -8.05141
 -7.84211
 -7.45486
 -0.487755
 -0.50184
 -0.62711
 -0.632747
 -8.17865
 -8.37072
 -7.94503
 -8.21174
 -2.71141
 -2.9729
 -11.1993
 -11.0095
 -6.69881
 -6.95613
 -6.59126
 -7.03535
 -6.64818
 -6.4932
 -6.51927
 -6.88538
 -4.63797
 -4.45356
 -4.73783
 -4.73763
 -8.12453
 -7.73283
 -8.20157
 -8.44468
 -0.387567
 -0.14576
 -0.287876
 -0.272393
 -10.9272
 -10.763
 -10.7417
 -11.3425
 -11.5216
 -11.1766
 -11.4051
 0.412968
 0.149926
 0.157855
 0.280456
 -7.12655
 -6.74718
 -6.79744
 -6.97599
 0.486849
 0.266392
 0.249322
 0.0361903
 -4.25591
 -3.38439
 -3.77973
 -3.78621
 -3.41755
 -9.16661
 -9.21343
 -9.2015
 -8.80643
 3.35112
 3.51133
 3.40771
 3.21276
 -6.93825
 -7.13152
 -7.36618
 -7.06995
 -4.01792
 -4.28397
 -3.7151
 -3.93635
 -7.42382
 -7.16934
 -7.12005
 -7.0921
 -6.29467
 -13.7384
 -13.5693
 -13.117
 -13.3269
 -8.44087
 -8.48226
 -7.98333
 -8.08811
 3.92626
 3.83455
 3.68687
 3.9559
 -2.68588
 -2.38168
 -2.25336
 -2.51098
 -1.35137
 -4.225
 -4.22108
 -4.30608
 -4.54351
 -10.4198
 -10.4254
 -10.0656
 -9.90202
 -9.25995
 -9.18668
 -9.60258
 -10.3592
 -9.61643
 -9.96303
 -9.81435
 5.16029
 5.0748
 -8.00534
 -7.9177
 -7.90566
 -1.10405
 -1.09416
 -1.01701
 -1.31407
 -7.48941
 -7.32545
 -7.5158
 -7.22256
 -4.63659
 -6.76087
 -6.4222
 -6.76596
 -6.68656
 -11.2374
 -10.6068
 -10.8074
 -11.1949
 -6.6569
 -6.9
 -7.31224
 -6.7341
 -2.56728
 -2.67806
 -2.28234
 -2.88565
 0.440941
 0.397292
 0.510701
 0.350563
 -13.2497
 -12.8576
 -13.3158
 -13.1871
 -7.37314
 -7.23624
 -7.4966
 -7.10129
 -12.8047
 -12.6607
 -12.7143
 -12.9457
 -1.17543
 -0.808819
 -1.17518
 -1.22416
 -4.526
 -4.37244
 -11.1853
 -11.7014
 -11.163
 -11.4142
 -4.57743
 -4.6493
 -4.64185
 -4.94723
 -3.52603
 -3.84662
 -4.47469
 -4.56324
 -4.79827
 -4.46216
 -9.48236
 -9.46794
 -9.3365
 -9.74282
 -1.78237
 -1.4554
 -1.31213
 -1.60054
 1.65702
 1.47978
 1.63207
 1.63454
 0.780719
 0.85881
 0.861306
 0.876466
 -1.53557
 -1.6988
 -1.72097
 -1.48228
 -2.84125
 -2.46642
 -2.7181
 -3.15288
 -2.73098
 -2.94475
 -3.04923
 -4.13358
 -3.951
 -3.82966
 -4.09039
 1.74157
 1.77578
 1.689
 -2.36328
 -2.16301
 -2.5041
 -2.43631
 -4.65044
 -4.95391
 -4.91292
 -4.5341
 -0.860357
 -0.592916
 -0.968144
 -0.579951
 -1.47605
 -1.70268
 -1.65327
 -1.62577
 -5.05063
 -5.05223
 -5.28424
 -5.50643
 -3.84597
 -3.58352
 -3.82158
 -3.75891
 -6.97638
 -6.81674
 -6.92854
 -6.79214
 0.92072
 0.852979
 0.772598
 -8.88496
 -8.679
 -9.12007
 -8.74766
 -0.877652
 -1.11943
 -0.92567
 -0.753167
 -2.87312
 -2.74037
 -2.59653
 -2.97007
 -3.38895
 -3.65282
 -3.71963
 -5.6398
 -5.63258
 -5.74525
 -5.97888
 -6.51036
 -6.5338
 -6.7611
 -6.35827
 -7.00547
 -7.11838
 -7.36193
 -9.6811
 -9.74694
 -9.80294
 -6.44525
 -6.29757
 -6.07593
 -6.26244
 -9.85944
 -10.0151
 -9.59379
 -10.7944
 -10.8154
 -10.7291
 -10.4274
 -3.56882
 -3.03691
 -3.35306
 -3.20008
 -1.2813
 -1.09891
 -1.35584
 -1.13116
 -0.245504
 -9.66195
 -9.51764
 -10.0881
 -9.5915
 -9.86434
 -9.22688
 5.51554
 5.60142
 5.50356
 5.42742
 -8.08674
 -7.80297
 -2.85363
 -2.63051
 -2.96571
 -12.7735
 -13.0814
 -5.73718
 -5.27723
 -5.41531
 -5.50682
 -2.63659
 -2.7838
 -2.79051
 -8.19637
 -8.82446
 -8.49617
 -8.6632
 -1.30458
 -1.37524
 -1.1894
 -1.48872
 4.3293
 4.16045
 4.20388
 4.38565
 -5.28746
 -5.34676
 -5.22124
 -5.61169
 -9.36746
 -10.0289
 -9.42808
 -8.57308
 -8.52298
 -8.63128
 -8.34222
 -0.721588
 -0.357514
 -0.417554
 -0.208877
 -0.840976
 -1.02505
 0.209804
 0.00660586
 0.281271
 -12.7696
 -12.5031
 -9.2116
 -8.83284
 -9.23331
 -8.80045
 -4.44031
 -4.83254
 -4.76008
 -7.86456
 -7.47336
 -8.17733
 -8.14308
 -0.881963
 -0.485692
 -0.558554
 -0.747997
 -3.86238
 -3.82592
 -4.11134
 -4.17364
 -3.73438
 -3.9564
 -3.98788
 -3.73087
 -0.408825
 -0.526134
 -0.393834
 -1.04134
 -0.892244
 -1.01561
 -0.981085
 -13.984
 -14.2517
 -14.0965
 -14.411
 1.19763
 1.49479
 -10.5222
 -10.7665
 -10.6904
 -10.4843
 -2.96072
 -3.24574
 -3.11838
 -2.97174
 -4.63849
 -4.85689
 -4.84471
 -4.88878
 0.82033
 0.649586
 -4.17791
 -3.96776
 -3.95764
 -3.76653
 -2.86662
 -2.75196
 -2.67105
 -2.96205
 -9.24317
 -9.20466
 -9.08082
 -9.30179
 -3.41046
 -3.64253
 -3.68344
 -3.28867
 -1.13679
 -1.16148
 -5.82928
 -5.83837
 -5.65328
 -5.90561
 -7.33392
 -7.21975
 -7.49438
 -4.46389
 -4.78018
 -4.66524
 -4.8467
 -0.0259978
 -0.169118
 0.0408456
 -0.299117
 4.55824
 4.36995
 4.3982
 4.5824
 -3.56863
 -3.40401
 -3.65704
 -3.98159
 -4.96173
 -5.36445
 -5.03847
 -4.99122
 -2.52292
 -2.68469
 -2.37114
 -2.43454
 -1.54047
 -1.38663
 -1.58521
 -1.70942
 -9.37064
 -9.69074
 -5.89973
 -5.73273
 -5.59924
 2.95358
 3.04203
 3.15844
 2.91057
 -0.491678
 -0.282832
 -0.622472
 -0.182873
 -4.4302
 -4.51492
 -4.34719
 -4.22003
 -9.36598
 -9.51493
 -9.48468
 -3.06976
 -2.94087
 -2.61271
 -2.60676
 -0.959233
 -1.30524
 -1.18065
 -0.942897
 -7.75839
 -7.33463
 -7.31992
 -7.55343
 -5.59992
 -5.50635
 -5.38001
 -5.40245
 -8.69399
 -8.75456
 -8.71254
 -8.2543
 -8.30286
 -8.32127
 -8.29993
 -2.20746
 -2.28889
 -2.04989
 -1.952
 -3.33799
 -3.23191
 -3.48945
 4.25732
 4.22265
 4.2491
 4.37124
 -1.08535
 -1.108
 1.46445
 1.62413
 1.39018
 1.23512
 -0.274788
 0.642646
 -10.1993
 -1.24104
 -0.960664
 -1.17146
 -0.841192
 -13.2015
 -5.89842
 -5.63027
 -5.88816
 -5.48534
 -1.18571
 -1.42596
 -1.29293
 -2.2635
 -2.50789
 -2.51416
 -8.93365
 -8.98951
 -8.53835
 -8.94127
 -8.86421
 -8.67037
 -8.91712
 -8.65588
 0.262056
 0.579349
 0.588497
 0.360947
 -11.4966
 -11.547
 -11.7564
 -11.3049
 -3.91381
 -3.64686
 -3.3955
 -8.77029
 -9.01401
 -8.87939
 -4.94452
 -4.66824
 -4.77337
 -5.00296
 -1.25545
 -1.399
 -1.07778
 -1.1745
 -5.0258
 -5.47978
 -5.03865
 -1.57028
 -1.6705
 -1.67542
 -1.38362
 -2.97584
 -3.37901
 -9.15264
 -9.40483
 -9.48654
 -9.79989
 -10.2515
 -10.6983
 -10.4367
 -10.3408
 -0.317056
 -0.565208
 -0.236782
 -0.470854
 -7.41243
 -6.95098
 -7.19705
 -7.52471
 -5.68515
 -5.20728
 -5.58376
 -5.83567
 -2.52009
 -2.2607
 -2.64698
 -2.46653
 -9.7776
 -9.58888
 -9.48175
 -9.27387
 -3.1408
 -2.85813
 -3.31498
 -3.16405
 -3.91634
 -3.70715
 -3.69775
 -4.16861
 -3.08436
 -2.89613
 -3.14666
 -3.18231
 -0.574436
 -0.848784
 -0.0419645
 -0.223311
 -0.399832
 -0.0932307
 1.82062
 2.12556
 1.89205
 1.81569
 -5.86354
 -5.83665
 -5.74539
 -6.12471
 -5.31566
 -5.03856
 -5.01233
 -11.8376
 -11.897
 -11.947
 -11.9012
 -12.7015
 -12.9223
 -12.5541
 -10.7398
 -10.9237
 -10.4095
 -4.95893
 -5.32414
 -5.54304
 -5.0866
 -6.8472
 -7.04441
 -7.24418
 -6.67332
 -9.03045
 -9.33597
 -9.11954
 -9.39263
 -1.46418
 -1.1948
 -1.25844
 -1.42496
 1.31063
 1.12891
 1.00249
 1.01171
 -12.9317
 -13.0171
 -12.631
 -13.274
 -0.881434
 -0.79665
 -0.662972
 -0.925971
 -4.55417
 -4.53851
 -4.7018
 -4.46541
 -13.2244
 -13.1755
 -12.7091
 -13.5281
 -6.02532
 -5.69669
 -6.13543
 -6.02169
 -2.72346
 -2.59478
 -2.72668
 -2.60935
 -0.989436
 -0.773579
 -0.811203
 0.632231
 0.361146
 0.525252
 0.672986
 -0.0712696
 0.0254307
 -0.100698
 0.0501918
 -0.0623899
 0.0305907
 -0.737423
 -0.899638
 -0.44808
 -8.50907
 -8.28517
 -8.23968
 -8.19391
 -11.3939
 -11.1944
 -11.2502
 -11.2276
 -6.47882
 -6.34655
 -6.44701
 -5.98973
 -3.28727
 -9.96809
 -10.1246
 -10.0877
 -9.83124
 0.62399
 0.637163
 0.650106
 0.692935
 -12.0675
 -12.2468
 -12.0029
 -12.4568
 -2.13052
 -1.93893
 -2.3198
 -7.23041
 0.541233
 0.574315
 0.748682
 -0.465725
 -0.316801
 -0.159844
 -0.560866
 -4.32383
 -4.2834
 -3.86581
 -4.17167
 -7.8542
 -7.85255
 -7.60247
 -8.11529
 -3.27517
 -7.14585
 -6.97264
 -6.92987
 -3.4244
 -3.37742
 -3.44115
 -3.74302
 -1.56204
 -1.63967
 -1.42867
 -1.41982
 -2.31135
 -1.97331
 -2.21978
 -2.27557
 -7.29111
 -0.701196
 -0.751747
 -0.860508
 -8.35831
 -8.12606
 -8.46771
 -8.23068
 -9.67832
 -9.54641
 -9.98671
 -9.43233
 -11.1672
 -11.3908
 -11.1266
 -1.50906
 -1.52781
 -1.34374
 -1.53072
 0.996537
 1.14992
 1.01156
 -8.93114
 -8.90485
 -9.62666
 -9.48471
 -9.31923
 -9.29578
 -3.35855
 -3.43113
 -3.61735
 -12.2621
 -12.1728
 -12.4691
 -12.1583
 -9.44292
 -9.34032
 -9.4973
 -9.6075
 -6.08947
 -6.18389
 -6.325
 -6.41355
 -4.64939
 -4.74393
 -4.54553
 -4.30016
 -0.936428
 -0.907568
 -0.828688
 -1.02376
 -9.50656
 -9.51021
 -9.32021
 -9.77521
 -1.70403
 -1.78581
 -1.43866
 -2.3334
 -2.57046
 -2.62487
 -2.68011
 -11.2744
 -11.1662
 -11.6593
 -11.4373
 -7.03894
 -7.08543
 -6.98643
 -6.84569
 -12.5472
 -12.2926
 -11.9904
 -12.3892
 -2.21132
 -2.39186
 -2.51001
 -2.47144
 -4.52311
 -4.61574
 -4.28259
 -4.85215
 -10.0642
 -10.0003
 -10.2494
 -10.1183
 -4.274
 -4.49587
 -4.1522
 -4.21604
 -12.5141
 -12.8696
 -12.5607
 -1.36946
 -1.27131
 -1.23588
 -1.27654
 -5.23751
 -5.23252
 -5.10541
 -4.92486
 -5.88101
 -6.19716
 -5.93234
 -5.99957
 -3.88301
 -3.72287
 -4.17612
 -3.83737
 -9.59168
 -9.59078
 -10.0109
 -9.72036
 -3.56359
 -3.23632
 -3.44867
 -3.35136
 -5.71662
 -5.63229
 -5.65382
 -5.46055
 0.755512
 0.742802
 0.784016
 0.754949
 -8.56898
 -8.63118
 -8.34994
 -8.17929
 0.856812
 0.862535
 0.867747
 -0.919231
 -0.789671
 -0.789269
 -0.942941
 0.0500337
 -0.0869045
 -0.536891
 -0.16715
 -7.82925
 -7.72286
 -7.94294
 -8.15584
 -6.64693
 -7.0709
 -6.71471
 -6.80536
 -2.07857
 -1.82323
 -1.85964
 -1.69477
 -13.5839
 -13.3505
 -13.1003
 4.14267
 4.18327
 -5.68469
 -5.94353
 -5.50767
 -5.67202
 2.34052
 2.55534
 2.79115
 2.59157
 -6.59892
 -6.6774
 -7.03695
 -6.85084
 -2.50076
 -1.70003
 -1.58432
 -1.51962
 -1.36278
 -7.99766
 -8.05483
 -8.13028
 -8.27235
 -10.3017
 -10.0888
 -10.499
 -10.2023
 0.745254
 0.745777
 -7.24579
 -7.42042
 -7.92715
 -7.37384
 -5.18055
 -4.62424
 -5.25591
 -4.94901
 -1.04194
 -1.03913
 -0.879873
 -1.38052
 -3.56889
 -3.2799
 -3.22845
 -3.57832
 -9.12631
 -8.72772
 -9.55179
 -11.5043
 -11.403
 -11.4387
 -11.4178
 -13.1027
 -13.0924
 -13.2288
 -1.86559
 -1.71203
 -1.75615
 -1.92934
 -10.7705
 -10.5469
 -10.4016
 -10.3719
 0.157663
 0.342426
 0.267557
 0.21715
 -6.42683
 -6.30959
 -6.47342
 -6.06196
 -4.99002
 -5.36646
 -5.06511
 -5.07511
 -11.4956
 -11.5202
 -11.4881
 -11.7036
 -6.87677
 -7.04868
 -6.80416
 -6.59643
 2.91032
 3.02471
 3.07435
 2.91437
 -3.28476
 -2.85212
 -3.2402
 -2.96447
 -1.95577
 -2.28959
 -2.29793
 -1.93786
 -7.78476
 -7.93062
 -7.60321
 -7.37435
 -0.146057
 0.0215013
 0.0884942
 0.0774729
 -5.61239
 -5.3865
 -5.38448
 -5.75134
 -1.61071
 -1.4281
 -1.36124
 1.18952
 1.31511
 1.31333
 1.3839
 -5.68044
 -5.9812
 -5.4947
 -6.3205
 -6.29468
 -6.12364
 -0.711316
 -0.4821
 -0.307372
 -0.208013
 -0.191283
 -0.298191
 -0.393331
 -10.5587
 5.7091
 5.62037
 5.65109
 5.78899
 -9.49262
 -9.27691
 -9.76379
 -9.45988
 0.430162
 -2.36238
 -2.30372
 -2.25249
 -2.60353
 -1.93408
 -1.75054
 -2.28895
 -0.698824
 -1.04718
 -0.884299
 -0.779757
 2.79949
 2.83609
 2.69335
 2.99961
 0.176055
 -0.00570743
 0.0135087
 -4.58498
 -4.42764
 -4.42845
 -1.83275
 -1.73073
 -14.0233
 -13.639
 -13.6285
 0.0499195
 -0.176586
 0.144563
 -2.19913
 -2.41242
 -2.5273
 -10.7539
 -11.0894
 -11.0776
 -8.06212
 -8.07689
 -8.38874
 -8.11237
 -0.90263
 -1.02632
 -1.12543
 0.888945
 1.12304
 -11.7198
 -11.4952
 -11.905
 -11.7629
 2.10111
 2.02839
 2.29095
 1.86964
 0.00786481
 0.0936614
 4.55606
 4.70422
 3.64981
 3.67958
 3.59042
 -2.2797
 -2.45895
 -2.15329
 -11.4154
 -11.0688
 -10.8183
 -7.07959
 -7.08864
 -7.3978
 -1.0793
 -1.20252
 -1.45039
 -1.60246
 -1.36463
 -10.0883
 0.974126
 0.976744
 0.883043
 0.875794
 -2.038
 -2.51916
 -2.16498
 -2.21306
 -7.71418
 -7.6919
 -7.92027
 -7.10241
 -7.15868
 -6.95493
 -7.04519
 -2.2623
 -2.16197
 -2.42626
 -2.64199
 -7.33911
 -7.41582
 -7.72864
 -7.70501
 -8.2996
 -8.03783
 -8.21401
 -8.57941
 -3.88791
 -7.23629
 -7.40467
 -7.41961
 -7.54125
 -12.3269
 -12.5062
 -12.3047
 -12.1181
 -0.507438
 -0.0734808
 -0.00127939
 -0.312034
 -11.5943
 -11.896
 -11.7215
 -11.6773
 4.73494
 4.63445
 4.7799
 -11.4703
 -11.2421
 -11.7935
 -11.6826
 -0.588344
 -0.537283
 -0.296944
 -0.321654
 -8.67242
 -8.33575
 -8.58737
 -8.83395
 -0.0374172
 -0.0573693
 0.467762
 0.351509
 -12.5491
 -8.95704
 -8.49594
 -8.69912
 -8.36511
 -10.2853
 -10.5901
 -10.4836
 0.791352
 0.679843
 0.865867
 0.949754
 -7.75538
 -7.51952
 -7.50666
 -7.32432
 -5.39574
 -5.72708
 -5.74225
 -5.60218
 -4.93118
 -5.11069
 -4.71037
 -4.67267
 -13.4247
 -13.0608
 -2.76693
 -2.79181
 -2.75194
 -2.3293
 -2.56473
 -2.67314
 -2.7963
 -7.47723
 -7.23436
 -7.76245
 -7.84777
 -7.28448
 -7.43154
 -7.41449
 -7.71144
 -5.78752
 -5.86318
 -6.0612
 -5.69051
 -0.707569
 -0.685797
 -1.34571
 -1.17912
 -1.16198
 -2.2148
 -2.41073
 -2.41055
 -2.44189
 1.31308
 1.50156
 1.45252
 1.45996
 -2.07172
 -1.84756
 -1.63048
 2.73169
 2.72914
 2.52784
 -2.03864
 -2.01297
 -1.77801
 -2.21175
 -0.671377
 -0.981236
 -0.572165
 -3.54383
 -7.5802
 -7.40457
 -7.83011
 -2.71958
 -2.65639
 -2.85323
 -2.9967
 0.153512
 0.144223
 -0.441017
 -0.147587
 -4.00311
 -4.21883
 -4.31439
 -4.3176
 -8.77488
 -8.54671
 -13.6164
 -13.3517
 -13.1712
 -13.6444
 -7.5694
 -7.53415
 -7.7698
 -7.30597
 -2.90381
 -2.86094
 -2.82503
 -2.99938
 -12.4754
 -12.5193
 -13.1218
 -12.2556
 -11.9397
 -12.0781
 -12.1839
 -4.3163
 -3.95244
 -3.81463
 -4.15627
 0.506374
 0.565307
 0.391816
 -2.92044
 -2.89426
 -3.22567
 -2.90997
 0.83893
 1.10519
 0.800962
 1.12981
 -6.59651
 -6.60217
 -6.69716
 -5.96081
 0.707914
 0.704359
 0.724725
 0.658845
 -0.826597
 -0.970712
 -1.03845
 -0.931013
 -11.5448
 -11.1577
 -11.6671
 -11.2658
 -4.3679
 -4.38513
 -4.11801
 -4.40162
 -1.96746
 -1.81192
 -2.05662
 -1.84196
 -7.81804
 -7.84776
 -8.48762
 -9.02979
 -8.83794
 -8.78397
 -2.52692
 -2.83572
 -2.7433
 -3.1186
 -3.20439
 -3.39499
 -3.27805
 -3.2543
 0.357708
 0.195905
 0.403774
 -2.35624
 -2.16277
 -2.01029
 5.28192
 5.44823
 5.30352
 5.39611
 -0.989754
 -1.0865
 0.802432
 0.691947
 0.797443
 1.01674
 -5.22789
 -4.91461
 -5.19261
 -4.83404
 2.69923
 2.44593
 2.34446
 2.56072
 -0.263873
 -0.20051
 0.0390629
 -6.74251
 -6.81576
 -6.75543
 -6.60159
 -0.30473
 -0.521807
 -0.223022
 0.13146
 0.104691
 0.353548
 0.286117
 -2.12821
 -1.989
 -2.02278
 -2.30363
 -8.21938
 -9.06281
 3.75069
 3.65831
 -0.821493
 -0.62447
 -3.08433
 -2.82963
 -2.93745
 -2.88067
 -6.37299
 -6.63935
 -6.39472
 -6.79959
 -3.73602
 -3.77068
 -3.92793
 -3.97769
 0.800353
 1.17369
 0.889625
 0.997081
 -5.23798
 -4.88299
 -5.05531
 0.427604
 0.50115
 0.40851
 0.420575
 -10.5674
 -10.5225
 -10.8262
 -10.35
 -6.43668
 -6.43584
 -6.46802
 -6.13507
 0.132607
 -0.0163984
 0.208362
 -3.0968
 -2.76768
 -3.06367
 -3.19804
 0.90649
 0.949224
 0.861231
 -0.212181
 -0.479186
 -0.393308
 -0.248485
 -0.0977098
 -0.0490831
 -0.285486
 -0.125823
 -2.85879
 -2.61232
 -2.56237
 -2.45277
 -12.0944
 -11.9365
 -11.7572
 -11.8059
 -5.7083
 -6.06603
 -5.88943
 -6.0248
 -2.77042
 -2.41399
 -2.66591
 -4.4331
 -4.29088
 -4.28701
 -10.2602
 -9.77253
 -10.2229
 -9.91575
 -5.84732
 -5.89132
 -5.58412
 -6.03715
 -2.53244
 -2.76043
 -2.81009
 -2.83327
 1.23078
 1.19201
 0.18982
 0.326883
 0.0641783
 0.0581809
 4.14853
 4.21374
 4.39753
 4.16204
 -7.75102
 -7.79228
 -7.81184
 -7.62711
 -0.499033
 -0.24391
 -0.31074
 -0.292271
 -3.80018
 -3.52726
 -3.69736
 -3.36546
 1.62465
 1.73643
 1.68926
 1.77038
 -4.67524
 -4.52967
 -4.3734
 -4.38614
 -3.0549
 -7.30277
 -7.1814
 -6.90798
 -7.01105
 -2.61081
 -2.28543
 -2.23075
 -2.51147
 -2.43732
 -2.59473
 -2.78908
 -2.68858
 -1.70173
 -1.44603
 -1.53057
 -1.39164
 0.0986232
 0.343006
 -0.0465338
 -9.14331
 -9.21423
 -9.30414
 -8.66802
 -2.38811
 -2.30093
 -2.3004
 -2.20074
 -8.81258
 -8.93576
 -9.21496
 -6.64828
 -6.39097
 -6.59775
 -6.47302
 -8.19276
 -8.71976
 -8.44708
 -8.7661
 0.378871
 0.166045
 0.42271
 5.80543
 5.72839
 5.70728
 -7.03962
 -7.46074
 -7.35106
 -4.75261
 -5.27072
 -5.02232
 -5.35378
 -1.99979
 -2.10297
 -2.22286
 -1.98204
 -2.82601
 -2.9157
 -2.54343
 -2.62948
 3.16617
 3.019
 3.36592
 2.99992
 -3.86006
 -3.71682
 -3.68019
 -3.64855
 -5.43828
 -5.48616
 -5.68893
 -5.28706
 -0.393833
 -0.420847
 -1.025
 -0.553483
 -0.787279
 -0.819142
 -6.89567
 -6.63893
 -6.83131
 -6.78363
 -0.173423
 -0.431044
 -5.72956
 -5.5714
 0.680383
 5.46098
 5.49562
 5.46318
 5.32951
 1.66771
 1.43582
 -12.8641
 -13.2955
 -12.9521
 1.08832
 0.882796
 0.686319
 0.885162
 -7.29387
 -7.27226
 -0.825229
 -0.763929
 -0.798304
 -0.820534
 -1.60171
 -2.06231
 -1.89634
 -7.40547
 -7.60562
 -7.47653
 -7.83318
 -6.01072
 -6.33937
 -6.04492
 -6.16862
 -9.47967
 -9.51868
 -9.90716
 -2.73072
 -2.46866
 -2.75998
 -2.36572
 -3.57847
 -9.61845
 -9.05213
 -9.48931
 -9.36412
 0.854015
 0.905652
 0.786805
 0.688877
 -4.26656
 -3.9881
 -4.28969
 -4.0043
 -7.84086
 -7.35732
 -7.70341
 -7.42622
 4.60471
 4.5518
 4.49205
 4.46399
 0.121297
 -12.4425
 -2.19654
 -2.58654
 -2.32946
 -2.06478
 -4.25919
 -4.50684
 -4.15468
 -4.06722
 -0.671821
 -0.356334
 -0.520937
 -0.608278
 -4.60927
 -4.46494
 -4.60127
 -4.66386
 0.352365
 0.301289
 0.0940255
 0.444632
 0.254199
 0.101514
 0.270863
 -2.78471
 -3.03057
 -2.62033
 -2.79842
 -7.97328
 -8.23063
 -7.59727
 -13.6389
 -14.0115
 -13.6963
 -13.54
 3.34789
 3.53519
 3.57272
 -3.33152
 -3.33673
 -2.94824
 -3.05895
 -2.77157
 -3.1697
 -10.9631
 -10.8666
 -10.8758
 -11.1636
 -7.01504
 -6.7648
 -6.89439
 -6.63774
 0.120591
 -0.243512
 0.0107555
 2.11461
 -2.51004
 -2.2009
 -2.30322
 -2.50592
 -3.19792
 -3.37069
 -3.31661
 -6.59264
 -6.43077
 -6.44513
 -6.69849
 -7.86269
 -7.46721
 -7.75298
 -7.55397
 -2.3083
 -2.12913
 -7.15633
 -7.11287
 -7.28287
 -7.51981
 -4.81719
 -4.72224
 -4.77767
 -5.05814
 -11.8495
 -12.0322
 -5.56899
 -5.27758
 -5.57566
 -5.4282
 -7.05597
 -7.21825
 -7.30453
 -7.42458
 -6.49969
 -6.70843
 -6.48842
 -6.52047
 -3.44085
 -3.59454
 -2.67278
 -2.84622
 -2.62191
 -2.46282
 -1.5819
 -1.34613
 -1.46374
 -1.51119
 -4.80854
 -5.00801
 -5.02616
 -4.81475
 0.330108
 0.145492
 0.0323553
 -0.0790712
 -0.628294
 -0.585286
 -0.488302
 -0.581108
 3.79828
 3.69572
 3.71773
 3.90962
 -1.57043
 -1.16921
 -4.57244
 -4.12559
 -4.46885
 -4.31168
 -2.25546
 -2.18815
 -2.34929
 -2.51571
 -4.05752
 -4.24923
 -4.36644
 -4.16548
 -2.80544
 -2.8342
 -7.40422
 -7.25401
 -12.8105
 -12.8883
 -12.8934
 -13.006
 0.913121
 -2.61919
 -2.59604
 -2.68973
 -2.88327
 -3.87327
 -3.58086
 -3.65812
 -3.68256
 -1.09968
 -0.944031
 -0.872766
 -0.671931
 -6.6744
 -6.27064
 -6.64895
 -6.29236
 -4.25894
 -4.0598
 -3.96011
 -4.23903
 0.371307
 0.448137
 0.271733
 0.46588
 0.575285
 -2.00417
 -2.31434
 -1.96788
 -2.16226
 -1.87417
 -2.26545
 -1.92896
 -1.86853
 0.0848459
 0.0794116
 0.284908
 0.0950136
 -0.557615
 -0.638313
 -0.961123
 -0.817258
 -3.01314
 -3.25934
 -2.8638
 -2.84093
 0.239945
 0.375573
 0.44977
 0.368007
 -4.59305
 -4.70748
 -4.29886
 -1.03517
 -1.02916
 -0.995606
 -0.941372
 2.6285
 2.48251
 -4.50024
 -4.70619
 -4.7835
 -4.18107
 -4.53685
 -4.3852
 -4.55263
 0.794402
 0.623735
 0.527908
 1.45898
 1.35317
 1.34407
 1.43877
 -5.68595
 -5.64766
 -5.84517
 -5.5254
 -4.28133
 -3.89307
 -4.31621
 -8.45471
 -7.87181
 -8.12105
 -3.35974
 -3.13639
 -3.19391
 -9.43064
 -9.42519
 -9.47253
 4.12038
 4.2562
 4.24383
 4.13074
 -11.952
 -12.0706
 -11.8887
 -12.1
 -1.48639
 -1.26672
 -4.87874
 -4.57501
 0.0773206
 0.0456854
 0.0986618
 -0.120301
 -5.37151
 -5.27115
 -5.62873
 -7.57464
 -7.84285
 -7.79488
 -7.84822
 -9.47587
 -8.96544
 0.79103
 0.764188
 0.857898
 -4.53256
 -4.48122
 -4.2092
 -0.683683
 -0.42793
 -0.699281
 0.682205
 0.681321
 0.754047
 0.852927
 -2.5257
 -2.63453
 -2.36442
 -2.72945
 -2.1742
 -1.87373
 -1.95604
 -2.13435
 -6.39629
 -6.29106
 -6.26575
 -6.61708
 -7.42303
 -7.19483
 -7.33712
 -6.96474
 -1.93888
 -1.92999
 -2.15971
 -5.66833
 -5.58597
 -5.40044
 -6.77761
 -7.03704
 -6.83056
 -6.88874
 -14.3188
 -14.1293
 -14.4214
 -3.54631
 -3.49152
 -3.47912
 -6.65189
 -6.84351
 -6.42766
 -3.22654
 -3.39838
 -3.03861
 -1.35437
 -1.05308
 -1.11941
 0.776755
 0.675584
 0.733201
 0.691436
 -3.36956
 -2.99894
 -3.29149
 -3.07471
 -0.91888
 -0.823121
 -0.640174
 0.2143
 -0.0371289
 -6.35769
 -6.14972
 -6.63979
 -6.32375
 -6.37414
 -6.64027
 -6.25374
 -6.031
 0.017074
 -0.22435
 -0.348768
 -0.43536
 0.274825
 0.507508
 0.376969
 0.518822
 1.93287
 2.04577
 1.92289
 2.12231
 -10.9815
 -11.1527
 -8.97329
 -8.53606
 -8.76418
 -9.01207
 -11.941
 -1.21583
 -1.4941
 -1.18978
 -3.77196
 -3.86705
 -3.63093
 -3.5552
 0.112808
 0.149336
 -3.05164
 -2.99767
 -3.22822
 0.988818
 0.898566
 -8.48359
 -8.52352
 -8.87284
 -8.25294
 -9.75534
 -9.67122
 -10.2448
 -9.951
 -7.72923
 -7.79896
 -7.43282
 -1.43072
 -1.62329
 -1.60866
 -9.53379
 -9.49763
 -9.62839
 -9.72471
 -0.784584
 -0.46412
 -0.708527
 -0.823127
 -8.00349
 -7.78365
 -7.73991
 -7.99489
 -0.912031
 -0.62835
 -0.566172
 -1.02323
 0.396225
 0.299992
 0.490739
 -11.9886
 -12.58
 -12.283
 -12.1643
 0.633867
 0.552112
 0.592283
 -2.46539
 -2.57806
 -2.82591
 -2.67852
 -11.4608
 -11.8335
 -11.6291
 -0.871703
 -0.670988
 -0.911733
 -0.753664
 -5.78764
 -10.6785
 -10.8806
 -10.145
 -10.5807
 1.10673
 1.04783
 0.93674
 1.05741
 -6.55267
 -6.0521
 -6.41918
 -6.56858
 -3.47765
 -3.58167
 -3.17425
 0.381111
 0.535482
 0.343119
 0.817404
 -5.93848
 -5.87453
 -6.09897
 -0.514668
 -0.421116
 3.93519
 4.11343
 3.91778
 3.81316
 1.76717
 2.25881
 2.28622
 -9.7695
 -9.60283
 -10.4051
 -9.89624
 -9.83685
 -10.044
 1.5172
 1.44005
 1.68176
 1.3828
 -2.10341
 -2.23492
 -2.21766
 -2.32986
 -2.95375
 -2.5797
 -2.60924
 -2.72332
 -4.44537
 -4.33655
 -4.6756
 -4.36152
 -4.55395
 -4.08251
 -4.388
 -4.14024
 -11.1525
 0.413067
 0.505167
 0.398974
 0.469639
 -11.4547
 -11.227
 -11.6197
 -4.79386
 -4.47064
 -4.33871
 -4.45968
 0.731233
 0.501119
 0.431662
 -4.10061
 -3.85219
 -4.04654
 -3.83368
 -3.32482
 -6.30432
 -6.41082
 -6.7509
 -6.63
 -0.816882
 -0.819869
 -0.812359
 -3.32191
 -3.8137
 -3.64043
 -11.6768
 -11.511
 -11.1554
 -11.4753
 -3.20674
 -3.11454
 -3.0305
 4.64894
 4.57546
 4.7676
 -3.19093
 -2.99636
 -3.16008
 -2.74145
 -6.496
 -6.7942
 -6.72327
 -3.59369
 -3.63833
 -9.38478
 -9.5255
 -9.18701
 -9.22267
 -7.69365
 -7.97746
 -7.80511
 -7.77179
 -12.2499
 -12.1468
 -11.9237
 -11.7273
 -4.38742
 -3.83568
 -4.23231
 -4.34269
 -7.07729
 -7.01169
 -6.87506
 -6.72846
 -9.39289
 -9.64139
 -9.87572
 -0.482642
 -0.6357
 -0.250282
 -0.385183
 -2.89297
 -3.17178
 -1.62431
 -1.43558
 -1.66137
 -1.5549
 -6.28983
 -6.22818
 -6.24028
 -6.44004
 -3.16062
 -3.43185
 -3.33814
 -3.07969
 -6.04805
 -5.88148
 -6.29776
 -5.93681
 -3.50986
 -3.58894
 -3.83399
 -3.86244
 -3.17238
 -2.93215
 -2.9608
 -9.06057
 -8.80791
 -9.01282
 -10.7295
 -10.6859
 -10.5843
 -11.1764
 -9.71503
 -9.67252
 -9.93228
 -7.11924
 -7.55032
 -7.18215
 3.37792
 3.41465
 3.56122
 -2.8297
 -3.17595
 -2.90242
 -8.75799
 -8.92973
 -8.76826
 -8.71245
 -2.81816
 -2.94864
 -2.79446
 -4.52937
 -4.65843
 -4.59718
 -4.36461
 -5.84729
 -5.19478
 -5.42574
 -5.38681
 -3.35337
 -3.57151
 -3.52334
 -3.72824
 -0.120949
 -0.280034
 -0.147455
 -0.0384995
 -2.92891
 -4.5337
 -4.52155
 -4.69063
 -4.14112
 0.665392
 0.596499
 0.568909
 0.580206
 0.711806
 0.527793
 0.653367
 0.535917
 0.249751
 0.124787
 0.19051
 0.316058
 -5.88075
 -5.84802
 -6.21651
 -6.38984
 -0.605488
 -0.443969
 -0.551249
 -0.592139
 -12.5633
 -12.2042
 -12.5114
 -12.2292
 2.13779
 2.03005
 1.8746
 1.89473
 -0.517973
 -0.542572
 -0.491022
 1.12593
 1.27842
 1.38298
 1.34757
 0.272522
 0.421274
 0.118605
 0.483225
 0.452643
 -3.78765
 -3.73565
 -3.92373
 -4.3644
 -10.7152
 -10.3689
 -10.2435
 -10.7061
 -10.6397
 -10.8703
 -10.5338
 0.116726
 0.272807
 -11.98
 -12.2531
 -11.8754
 -9.19207
 -9.11405
 -9.18054
 -9.46993
 0.302516
 0.416279
 0.278255
 -12.0886
 -12.217
 -11.974
 -12.3153
 -1.63813
 -1.70162
 -1.8915
 -1.47836
 0.0892782
 0.400226
 0.279366
 0.0515992
 1.27513
 0.940028
 1.07701
 1.14711
 2.85852
 2.79381
 2.97783
 2.97004
 -5.2179
 -5.76509
 -5.49669
 -5.6906
 -1.86795
 -1.88827
 -1.77392
 -1.43594
 -12.049
 -11.6616
 -12.0238
 4.83202
 4.62489
 4.7625
 4.52993
 1.80041
 1.56783
 1.7143
 1.51553
 -11.9011
 -12.3628
 -12.1296
 -12.0879
 -3.4324
 -3.4753
 -3.72107
 -9.72389
 -10.2243
 -10.2999
 -0.127708
 -0.104718
 0.199967
 -12.1408
 -11.8508
 -11.7854
 -11.9913
 -9.23739
 -9.07386
 -8.98527
 -8.71022
 -0.846515
 -0.992455
 -1.20363
 -0.983423
 -1.85928
 -1.59291
 -1.83358
 -1.51243
 -7.89671
 -7.90291
 -7.97375
 -8.33823
 -4.08022
 -3.91392
 -3.70869
 -3.85018
 2.31886
 2.1047
 2.0954
 2.12184
 -9.54906
 -8.85027
 -9.30172
 -9.10935
 -12.546
 -3.82377
 -3.90243
 -4.10052
 -4.08992
 -10.5883
 -10.8254
 -10.7233
 -11.1244
 0.611523
 0.608484
 0.580722
 0.573885
 -11.863
 -12.1319
 -11.7225
 -11.5778
 -3.17009
 -3.08802
 -1.95992
 -1.81569
 -2.01786
 -2.10042
 -7.70842
 -7.35554
 -7.33653
 -7.34831
 -4.56797
 -4.90549
 -4.83077
 -1.80008
 -1.7574
 -1.85872
 -7.7703
 -7.71176
 -7.34972
 -7.37196
 -7.10509
 -6.92767
 -7.26741
 -7.00169
 -0.0346076
 0.165757
 0.194158
 -3.33553
 -3.95311
 -3.96505
 -3.59431
 2.27231
 2.16367
 1.94097
 2.24879
 2.43519
 -12.1745
 -11.4807
 -12.191
 -11.6878
 -3.82737
 -3.66084
 -3.53175
 -3.81779
 -10.0141
 -10.2653
 -2.67689
 -2.27324
 -2.30499
 -0.663616
 -0.42859
 -0.812142
 -0.745057
 -11.7491
 -11.5835
 -11.9187
 -11.8816
 0.362076
 0.289677
 0.319741
 -0.759934
 -0.664883
 -0.864636
 -0.687207
 -1.73582
 -2.03061
 -1.80575
 -1.48335
 -6.36214
 -6.94309
 -6.56517
 -6.71572
 -0.373684
 -0.702634
 -0.523095
 -0.48545
 -7.5119
 -5.21121
 -5.58011
 -5.68024
 -5.13111
 -10.5835
 -10.7035
 -10.3068
 -11.4597
 -11.3065
 -11.2841
 -11.016
 -5.39143
 -5.5738
 -5.17586
 -5.36575
 -13.1008
 -13.0636
 -13.0369
 -12.6654
 -1.63866
 -4.81986
 -4.3982
 -4.3969
 -4.70668
 -3.88965
 -3.44211
 -3.65763
 -3.7344
 2.82233
 2.59917
 2.54098
 2.76574
 -3.04884
 -3.1252
 -3.22676
 -2.88661
 -2.4196
 -2.4592
 -2.54924
 -2.68919
 -2.71729
 -2.75457
 -2.9864
 -9.86711
 -9.54459
 -9.4088
 -2.49681
 -2.1881
 -2.24515
 -2.40784
 -9.56915
 -10.07
 -9.80281
 -3.4536
 -3.24213
 -3.98855
 -4.18618
 -4.09486
 -4.14282
 -4.04734
 -4.13606
 -3.69635
 -3.76374
 -4.13529
 -4.00665
 -10.2468
 -10.421
 -10.4131
 -1.71985
 -11.1362
 -4.55408
 -4.76034
 -4.51173
 -4.24508
 0.170957
 0.148506
 0.403871
 -0.346654
 -0.591085
 -0.702799
 -3.96405
 -4.08405
 -3.76882
 -3.28222
 -3.26884
 -3.4025
 -3.55958
 -3.70547
 -3.46984
 -3.90286
 -3.52942
 4.84373
 4.80248
 4.98371
 -7.81977
 -7.44827
 -7.77758
 -3.1596
 -3.23675
 -8.8299
 -8.34998
 -8.49672
 -8.33156
 -4.98272
 -5.24669
 -4.98406
 2.67735
 2.63297
 2.87171
 2.78254
 -2.52361
 -2.20971
 -2.47522
 -2.25293
 -0.145091
 -0.0293785
 0.0856997
 0.156915
 -6.25554
 -5.81193
 -6.06216
 -6.23549
 -1.3183
 -1.10266
 -1.28169
 -0.972676
 2.19308
 2.22512
 2.22933
 -1.74106
 -1.64347
 -1.50188
 -1.57091
 -6.29597
 -6.67002
 -6.53284
 -6.56032
 -3.50843
 -3.82439
 -3.85956
 -3.68085
 -0.472034
 -0.35433
 -0.496742
 -2.12728
 -1.91262
 -2.00923
 -1.96797
 -0.310634
 -0.0482914
 -0.349419
 -0.122572
 0.765747
 0.482059
 0.534484
 0.837285
 -11.6801
 -11.8668
 -11.7274
 -11.8377
 0.250647
 0.0672396
 0.1315
 0.0613779
 -0.357345
 -0.187287
 -0.432725
 -0.416018
 -5.58493
 -5.98406
 -5.85993
 -6.09548
 -1.69147
 -1.62154
 -1.87963
 -1.76387
 -14.0102
 -14.1109
 -14.0796
 -14.1754
 -2.63217
 -2.50908
 -2.76461
 0.648953
 0.809456
 0.74749
 0.534737
 0.346191
 0.448498
 0.379272
 0.453395
 0.0560155
 0.427496
 -6.75012
 -6.40307
 -6.69658
 -6.25661
 -13.5056
 -13.3185
 -13.4547
 -13.3951
 -2.16288
 -1.89857
 -2.04102
 -1.88581
 0.00405595
 0.148536
 0.168238
 -6.05878
 -5.71454
 -5.69934
 -5.98223
 -2.80359
 -2.77588
 -2.89139
 -3.12544
 -0.649912
 -0.668564
 -0.635035
 -0.850449
 0.767867
 0.427225
 0.632087
 -8.19249
 -8.55554
 -8.71521
 -8.26571
 -9.06107
 -9.019
 -8.69756
 -2.23948
 -2.21315
 -2.40004
 -2.55675
 -2.45755
 -2.33926
 -2.64701
 -0.622207
 -0.876544
 -0.994805
 -0.909248
 -5.93427
 -5.81582
 -5.60356
 0.0973762
 0.101946
 0.350752
 -3.78272
 -4.09197
 -3.9718
 -9.10251
 -8.67068
 -8.94618
 -6.51573
 -6.44436
 -1.6293
 -1.80893
 -1.58661
 -1.80731
 -1.90508
 -1.78898
 -3.10441
 -2.76309
 -0.848085
 1.02162
 0.986082
 1.17124
 -9.76998
 -9.71808
 -9.17552
 -2.18997
 -2.41047
 -2.32776
 -2.153
 -0.839696
 -3.54044
 -3.74049
 -6.12407
 -6.25044
 -6.04852
 -6.35996
 -3.4729
 -3.25486
 -3.54995
 -2.35986
 -2.50719
 -2.10478
 -2.39481
 -1.73065
 -2.19755
 -2.5095
 -2.29326
 -2.16518
 -2.62726
 -9.97023
 -9.61673
 -9.53294
 -9.80165
 -10.2059
 -10.4617
 -10.8925
 -10.7721
 0.151915
 -0.0460655
 -3.47602
 -3.44487
 -3.3353
 -3.10455
 -4.57656
 -4.65728
 -4.78335
 -4.9082
 -5.67139
 -5.95763
 -5.66047
 -5.59969
 -3.02504
 -2.84033
 -2.7435
 -3.05391
 -2.53985
 -2.73452
 -2.59212
 -2.46818
 -9.05564
 -8.55932
 -9.0271
 -8.93345
 -0.186239
 -0.471807
 -0.531168
 -0.717176
 -0.173144
 -0.453293
 -0.305402
 -7.99168
 -8.3058
 -8.69745
 -8.84733
 -0.52742
 -0.71645
 -0.645062
 -0.823964
 -10.9205
 -10.7212
 -10.9769
 -10.8372
 -9.24215
 -9.04257
 -9.17727
 -8.95199
 -1.95288
 -2.09425
 -1.85234
 -1.97497
 -6.66264
 -6.78208
 -6.59322
 -6.26643
 -0.741181
 -0.879274
 -1.07768
 -1.14206
 -7.7227
 -7.51612
 -7.5793
 0.190382
 0.0393298
 0.225927
 0.121982
 -5.0632
 -4.93889
 -5.13694
 -5.25639
 -1.73336
 -1.81082
 -7.30538
 -7.84713
 -7.59375
 -7.4807
 -7.85224
 -7.77491
 -7.5388
 -2.71196
 -3.09453
 -2.7563
 -8.34644
 -8.34776
 -8.49094
 -8.75407
 2.13069
 2.06006
 1.90771
 1.97016
 -0.717221
 -0.812604
 -1.02009
 -1.08918
 -5.22506
 -4.81793
 -4.87025
 -5.24955
 -10.2643
 -10.3643
 -10.1022
 -10.3974
 -9.31261
 -9.64437
 -9.69163
 -9.40365
 -10.4961
 -10.4449
 -10.5513
 -10.1201
 -10.2726
 -1.29811
 -1.45869
 -1.27179
 -1.51938
 -0.133171
 -0.208571
 0.147927
 -0.083197
 -1.07808
 -1.08497
 -1.68084
 -1.96081
 -1.75101
 -1.7302
 -2.40065
 -2.42217
 -2.73044
 -2.42076
 -0.16206
 -0.167241
 0.0215819
 -3.9921
 -3.80039
 -3.8511
 -3.73419
 -14.127
 -14.0188
 -13.7461
 -1.4173
 -1.36659
 -1.45666
 -1.7066
 -8.70894
 -8.24556
 -8.53101
 -8.64793
 -6.35529
 -6.7385
 -6.60171
 -3.57084
 -3.40202
 -3.70759
 -6.54825
 -6.91604
 -6.57293
 -9.03573
 -8.77806
 -6.22709
 -6.26573
 -6.26071
 -0.806433
 -0.907666
 -0.972104
 -0.685954
 -10.7087
 -10.9396
 -10.7123
 -10.594
 -5.14066
 -5.49797
 -5.30184
 3.14512
 3.37812
 3.45134
 3.17372
 0.443269
 0.563792
 -4.48263
 -1.74402
 -2.10765
 -1.85995
 -1.74692
 -3.86867
 -4.1966
 -4.18262
 -7.42545
 -7.47011
 -7.20886
 -7.45381
 -11.2197
 -11.3808
 -3.31264
 -3.20301
 -3.21525
 -3.02072
 0.724643
 0.918453
 0.932349
 0.684456
 -9.48944
 -9.69161
 -9.66017
 -9.49866
 -5.24129
 -5.37835
 -5.18182
 4.47242
 4.56626
 4.71101
 4.70803
 0.132756
 0.175803
 0.369718
 -1.24087
 -1.45013
 -1.09164
 -1.31177
 -5.02862
 -5.07194
 -4.8961
 -5.29344
 -3.47155
 -3.70085
 0.73515
 0.66822
 0.69063
 0.680434
 -5.48004
 -5.81785
 -1.19267
 -0.869794
 -1.01006
 -1.10639
 -2.1787
 -2.29546
 -1.97343
 -2.19503
 -3.54195
 -3.84937
 -3.95825
 -3.72051
 -1.0815
 -0.952017
 -0.672411
 -6.29985
 -5.87206
 -6.31978
 -5.95948
 -8.18362
 -8.49621
 -8.78761
 -8.25176
 -7.71875
 -7.71198
 -7.75971
 -8.05898
 0.86926
 1.09326
 0.945803
 1.12968
 -3.55118
 -3.35713
 3.63733
 3.8334
 3.76418
 3.9591
 -2.13395
 -1.88676
 -1.75936
 -11.879
 5.31161
 5.25695
 5.25312
 5.51113
 -3.17417
 -3.32509
 -3.16335
 -3.18794
 -1.49688
 -1.75652
 -1.59887
 -7.95302
 -8.25688
 -8.28313
 -7.92543
 -8.05597
 -7.92624
 -8.3199
 -8.31569
 -7.72039
 -7.8881
 -7.59035
 -7.46215
 -0.890806
 -1.10583
 -0.754107
 -1.09717
 0.0650472
 0.146491
 0.291284
 0.262554
 -5.55142
 -5.55549
 -5.92647
 -5.52854
 -2.33248
 -1.95975
 -2.45948
 -2.20913
 -13.5288
 -10.4949
 -10.5945
 -4.89574
 -4.87808
 -2.49777
 -2.27064
 -2.33275
 -10.8018
 -11.3648
 -11.0189
 -10.8941
 -2.99014
 -2.86688
 -4.71025
 -4.45467
 2.68704
 2.47586
 2.71584
 2.48879
 -0.853437
 -0.754564
 -0.573681
 -0.699226
 -5.3831
 -5.78053
 -5.45311
 -5.67049
 2.25248
 2.47496
 2.30155
 2.20406
 -12.7143
 -12.5848
 -12.9372
 -12.6453
 -10.3996
 -9.99595
 -11.3094
 -11.0413
 -10.7197
 -11.3443
 -8.22467
 -8.5166
 -1.85155
 -1.97312
 -1.78262
 4.97482
 4.79964
 5.03059
 5.00793
 1.99651
 1.84589
 1.79829
 1.99017
 -10.5931
 -10.8701
 -10.592
 -10.4115
 -6.81771
 -7.29063
 -7.01727
 -4.11559
 -3.82464
 -3.62916
 -3.9456
 -1.18606
 -1.51313
 -1.23806
 -1.14653
 -9.22466
 -9.56801
 -9.37726
 -10.677
 -3.79244
 -4.16335
 -1.01763
 -1.10805
 -6.16697
 -6.55823
 -6.08349
 -6.21695
 -0.0345358
 0.25534
 -0.127005
 0.277641
 0.327616
 0.55789
 0.481901
 4.70183
 4.4077
 4.459
 4.54388
 -1.26106
 -1.41344
 -1.39252
 -1.622
 -9.30149
 -9.352
 -8.60321
 -8.8967
 -8.76828
 -8.89568
 -0.719137
 -0.701087
 -0.947593
 -0.551813
 -7.54436
 -7.34582
 -7.66483
 -6.33716
 -6.36238
 -6.43514
 -6.1535
 -8.78909
 -9.0279
 -8.65381
 -9.09537
 -1.12385
 -1.3766
 -1.28887
 -1.16693
 -11.5116
 -10.9345
 -2.53914
 3.22036
 3.12338
 3.00338
 2.91575
 -7.50523
 -7.43198
 -7.70922
 2.00597
 2.15633
 2.06787
 2.22867
 -6.30598
 -6.2667
 -6.25661
 -6.5648
 0.544935
 0.554606
 0.796498
 0.483002
 -0.238671
 -0.195872
 -0.411045
 -0.456977
 -5.79073
 -6.02846
 -6.04633
 -1.69774
 -1.81498
 -1.63491
 -1.4763
 -5.25567
 -5.18005
 -5.39241
 -4.91399
 -4.5973
 -4.38723
 -8.46319
 -8.5827
 -8.551
 -6.40569
 -6.44829
 -6.17498
 3.37665
 3.34408
 3.15178
 3.31363
 0.129565
 -0.0902671
 0.242216
 -0.168777
 -9.41587
 -8.9245
 -8.94124
 -8.91532
 -8.29705
 -8.20469
 -0.538771
 -1.01985
 -0.580217
 -6.35156
 -5.97918
 -6.06975
 -5.8955
 -6.20738
 -6.12933
 -5.98685
 -0.923472
 -0.796405
 -0.956404
 -1.00631
 -11.0182
 -11.0488
 -1.90991
 -1.81191
 -1.91213
 -2.07414
 -0.745003
 -0.765992
 -0.858043
