 21.8244
 21.7317
 21.7608
 21.6968
 20.1042
 20.0934
 20.0352
 20.0066
 20.5778
 20.638
 20.5616
 20.644
 20.5113
 20.5584
 20.6035
 20.6188
 19.5205
 19.4306
 19.5585
 19.5783
 19.5526
 19.621
 19.4981
 19.5955
 22.168
 22.2393
 22.2167
 22.1671
 22.1422
 22.113
 22.1129
 22.1624
 19.5017
 19.5369
 19.6116
 19.5281
 19.5772
 19.5663
 19.5957
 19.4739
 22.3944
 22.4399
 22.3702
 22.3575
 20.5345
 20.5302
 20.5925
 20.5499
 21.475
 21.4882
 21.539
 21.4281
 20.1126
 20.2075
 20.2371
 20.1796
 20.8608
 20.8722
 20.8329
 20.7819
 21.9489
 21.9994
 21.9135
 21.9981
 19.8129
 19.7568
 19.8093
 19.7216
 20.3686
 20.4107
 20.3502
 20.3973
 20.8668
 20.8554
 20.8443
 20.8045
 19.7741
 19.7824
 19.7447
 19.6812
 22.0919
 22.1689
 22.0874
 22.1415
 19.32
 19.3241
 19.2342
 19.2166
 22.9235
 22.9668
 22.9634
 22.9032
 20.289
 20.2436
 20.3068
 20.3223
 20.962
 21.0004
 20.9284
 20.9175
 20.7701
 20.7628
 20.8
 20.8218
 21.2469
 21.1789
 21.1457
 21.2358
 21.9604
 22.0108
 21.9489
 21.952
 21.5167
 21.5352
 21.5983
 21.5587
 20.1901
 20.2043
 20.2256
 20.2786
 20.9175
 20.8051
 20.9345
 20.8995
 21.4672
 21.4094
 21.4163
 21.4637
 20.4433
 20.518
 20.4431
 20.5053
 20.0777
 20.1128
 20.1123
 20.1038
 21.4809
 21.5546
 21.4748
 21.5819
 21.8869
 21.8924
 21.9061
 21.9034
 20.4876
 20.5733
 20.5121
 20.5149
 22.2355
 22.2098
 22.1929
 22.1864
 20.301
 20.2898
 20.17
 20.1991
 19.069
 19.1623
 19.0932
 19.18
 20.6962
 20.72
 20.6858
 20.7703
 20.2277
 20.1675
 20.1927
 20.2339
 22.176
 22.1786
 22.1166
 22.2224
 20.4182
 20.4803
 20.4538
 20.3883
 19.4991
 19.5275
 19.4565
 19.5004
 21.6529
 21.5962
 21.622
 21.6489
 20.4283
 20.3233
 20.3519
 20.3319
 21.8612
 21.7959
 21.8406
 21.9074
 21.4783
 21.5207
 21.5449
 21.5626
 20.8555
 20.9058
 20.9156
 20.9755
 21.978
 22.0074
 22.0282
 21.9674
 20.7165
 20.778
 20.7685
 20.7286
 21.3572
 21.4262
 21.3433
 21.4522
 20.698
 20.6562
 20.688
 20.6598
 21.5523
 21.4945
 21.5405
 21.4555
 20.5833
 20.5913
 20.5338
 20.6407
 20.2357
 20.2359
 20.1917
 20.1467
 20.2024
 20.2595
 20.2274
 20.3196
 21.6106
 21.6301
 21.7033
 21.5849
 21.197
 21.2322
 21.2316
 21.1486
 22.8185
 22.848
 22.8894
 22.8418
 21.551
 21.5722
 21.6312
 21.5602
 20.9529
 20.8563
 20.9061
 20.8953
 21.3435
 21.3444
 21.2527
 21.3907
 21.4286
 21.3608
 21.4313
 21.3696
 22.0378
 22.0772
 22.02
 22.0232
 19.743
 19.6568
 19.6151
 19.7469
 19.5539
 19.5272
 19.4879
 19.4594
 20.816
 20.7291
 20.8696
 20.8203
 21.5259
 21.5446
 21.5016
 21.5816
 20.2755
 20.2499
 20.2083
 20.2809
 22.0642
 22.1993
 22.1456
 22.1432
 22.0933
 22.1488
 22.1747
 22.0892
 22.9574
 23.0048
 22.9484
 22.9585
 20.64
 20.552
 20.6099
 20.5426
 21.6494
 21.5785
 21.5658
 21.6404
 21.7958
 21.8442
 21.7613
 21.7621
 19.4013
 19.3101
 19.3434
 19.2975
 21.9426
 21.9781
 22.0316
 21.9609
 21.8127
 21.8466
 21.8846
 21.8161
 21.69
 21.6414
 21.7001
 21.7521
 21.0886
 21.1018
 21.0453
 21.0527
 21.762
 21.686
 21.7425
 21.717
 21.4892
 21.4562
 21.4353
 21.4678
 21.1912
 21.2108
 21.2398
 21.2613
 21.8959
 21.9789
 21.8801
 21.9756
 23.1103
 23.1171
 23.0483
 23.0492
 22.0469
 22.0241
 21.9797
 22.0149
 20.5744
 20.6326
 20.5586
 20.6636
 20.5674
 20.6032
 20.5467
 20.6195
 20.2093
 20.272
 20.2722
 20.2206
 22.2113
 22.222
 22.2012
 22.1711
 19.2179
 19.2318
 19.2975
 19.1736
 20.3212
 20.2557
 20.3369
 20.3098
 22.2143
 22.2096
 22.271
 22.2883
 21.4528
 21.4608
 21.4803
 21.3756
 21.83
 21.7814
 21.8868
 21.8453
 21.8152
 21.8459
 21.8512
 22.1789
 22.1878
 22.1955
 22.2251
 20.4249
 20.471
 20.5204
 20.4023
 21.2232
 21.1301
 21.1592
 21.2048
 20.5498
 20.4761
 20.5458
 21.5389
 21.63
 21.5672
 21.5928
 21.0629
 21.0006
 21.0221
 21.1006
 19.8469
 19.9704
 19.9606
 19.8116
 22.0688
 22.0619
 21.9795
 22.0098
 21.8603
 21.907
 21.9481
 21.8993
 20.643
 20.7245
 20.7358
 20.7056
 20.3304
 20.3776
 20.2664
 20.2718
 22.1649
 22.1455
 22.1736
 22.22
 21.8932
 21.872
 21.7654
 21.7972
 21.2694
 21.1925
 21.1497
 21.2588
 19.6233
 19.5747
 19.601
 19.5825
 20.6064
 20.5297
 20.4964
 20.5351
 20.9847
 21.0892
 21.0103
 20.9845
 22.8535
 22.9267
 22.8543
 22.8563
 21.1496
 21.1968
 21.1136
 21.0748
 19.8524
 19.94
 19.8535
 19.9595
 21.7111
 21.8105
 21.6722
 21.6952
 21.929
 21.9162
 21.9811
 21.9418
 21.9215
 21.9871
 21.9747
 21.9563
 22.498
 22.5056
 22.5035
 22.4699
 21.7395
 21.8409
 21.8314
 21.8336
 20.6297
 20.6321
 20.6202
 20.6785
 22.2068
 22.1787
 22.1579
 22.1367
 19.7518
 19.8234
 19.7566
 19.7371
 22.0874
 22.1678
 22.1633
 22.0924
 19.8935
 20.0074
 19.8783
 19.9521
 21.2257
 21.2805
 21.2777
 21.2373
 21.3521
 21.2833
 21.2659
 21.3272
 21.6205
 21.6204
 21.5291
 21.5955
 21.7573
 21.7573
 21.8197
 21.8296
 19.3118
 19.2253
 19.2013
 19.2155
 21.7026
 21.7518
 21.7007
 21.7406
 19.0752
 19.1557
 19.1034
 19.2172
 20.2995
 20.331
 20.2395
 20.3075
 22.6822
 22.6153
 22.6276
 22.6831
 19.4272
 19.4382
 19.3838
 19.3561
 21.9473
 21.8836
 21.9464
 22.0018
 22.6351
 22.684
 22.7075
 22.6389
 20.0621
 20.0899
 20.1306
 20.0969
 19.4709
 19.3668
 19.4467
 19.4918
 20.7878
 20.7803
 20.8045
 20.831
 20.1482
 20.2353
 20.133
 20.2303
 21.8591
 21.9374
 21.8903
 21.9152
 20.665
 20.6968
 20.6717
 20.6104
 21.4161
 21.4273
 21.3741
 21.3687
 22.1241
 22.0882
 22.1402
 22.1415
 22.361
 22.3729
 22.383
 22.3169
 21.1832
 21.2066
 21.1423
 21.2307
 20.9906
 21.0072
 21.021
 21.0708
 21.8913
 21.8995
 21.8424
 21.8393
 21.8799
 21.9782
 21.8928
 21.8986
 20.5319
 20.5102
 20.5618
 20.5732
 19.5241
 19.5889
 19.471
 19.4467
 19.6843
 19.7257
 19.6653
 19.6393
 19.7276
 19.8104
 19.7897
 19.7431
 20.3332
 20.3774
 20.3078
 20.3764
 21.8783
 21.9747
 21.904
 21.9297
 21.8438
 21.7926
 21.7756
 21.7646
 20.9791
 21.0279
 21.0917
 21.1129
 20.3482
 20.3853
 20.2895
 20.344
 20.3702
 20.4093
 20.3759
 20.3213
 20.8252
 20.8916
 20.8389
 20.8246
 20.5888
 20.525
 20.6014
 20.591
 22.2615
 22.2695
 22.2322
 22.1719
 23.3204
 23.366
 23.3117
 23.3828
 21.6981
 21.7051
 21.7759
 21.7333
 23.1549
 23.0878
 23.102
 21.7479
 21.7642
 21.7188
 21.7899
 19.7425
 19.7938
 19.7575
 19.8078
 20.8922
 20.8626
 20.8392
 20.7836
 19.6225
 19.6612
 19.5821
 19.678
 21.9069
 21.8974
 21.9752
 21.9168
 20.3719
 20.369
 20.2438
 20.2766
 20.8093
 20.832
 20.9082
 20.8503
 19.3382
 19.2855
 19.2691
 19.4199
 20.0596
 20.0778
 20.0441
 19.9795
 21.6733
 21.6076
 21.6523
 21.6753
 20.3368
 20.3441
 20.4142
 20.3238
 19.9281
 20.0417
 19.9856
 20.0215
 22.6169
 22.6926
 22.6759
 22.6874
 20.908
 20.8836
 20.836
 20.8268
 19.9067
 19.8777
 19.8751
 19.9475
 20.5545
 20.4902
 20.6007
 20.4464
 19.9026
 19.9866
 19.8954
 19.8984
 21.8174
 21.7521
 21.7166
 21.7343
 20.022
 19.8925
 20.0387
 19.9181
 21.2221
 21.1858
 21.2925
 21.2222
 21.0903
 21.0641
 21.0204
 21.1061
 20.0581
 20.0937
 20.1435
 20.0206
 19.1168
 19.1841
 19.1861
 19.1384
 22.2897
 22.2527
 22.2142
 22.1906
 21.5142
 21.4478
 21.4172
 21.4979
 20.6231
 20.6732
 20.7001
 20.6801
 20.1073
 20.0504
 20.0735
 20.0399
 21.676
 21.7406
 21.7094
 21.7009
 22.1441
 22.0747
 22.0393
 22.1299
 20.3052
 20.3003
 20.3988
 20.3868
 20.4644
 20.4035
 20.4698
 20.4399
 19.4124
 19.3366
 19.2715
 19.404
 21.9862
 21.8974
 22.003
 21.9486
 19.5143
 19.4323
 19.4444
 19.4997
 21.5228
 21.4565
 21.5163
 21.5375
 23.2749
 23.282
 23.247
 23.2346
 19.7448
 19.7169
 19.6521
 19.6997
 20.4549
 20.4145
 20.4971
 20.5568
 19.8252
 19.8126
 19.8658
 19.8672
 21.0386
 21.1223
 21.0753
 21.0357
 21.2027
 21.1715
 21.1569
 21.1943
 20.147
 20.2397
 20.235
 20.1996
 21.8899
 21.8564
 21.9249
 21.8749
 22.0348
 21.9992
 21.9885
 22.027
 22.9248
 22.9545
 22.9698
 22.9822
 20.7514
 20.71
 20.674
 20.6488
 20.9684
 20.9941
 20.8763
 20.9581
 20.5973
 20.7139
 20.6203
 20.5735
 21.4709
 21.373
 21.3618
 21.4838
 19.4645
 19.4637
 19.4175
 19.5545
 19.4477
 19.3241
 19.4484
 19.465
 20.5259
 20.4943
 20.4371
 20.4297
 23.7168
 23.7287
 23.7039
 23.6576
 21.2062
 21.2473
 21.1955
 21.2869
 21.1783
 21.1945
 21.2755
 21.1948
 21.2135
 21.1942
 21.286
 21.2792
 20.0609
 20.0946
 19.9947
 20.1006
 22.7718
 22.6983
 22.8089
 22.7732
 22.9437
 22.9587
 22.9956
 23.0319
 19.9781
 20.0346
 19.9819
 20.0661
 21.5783
 21.4916
 21.6112
 21.5093
 21.3751
 21.3917
 21.3624
 21.3589
 20.4093
 20.4379
 20.4714
 20.5362
 21.9803
 21.9405
 21.9163
 21.9536
 20.0262
 20.0841
 20.0747
 20.0132
 21.4572
 21.5772
 21.5242
 21.6196
 21.5505
 21.5534
 21.6143
 21.5724
 22.1548
 22.1936
 22.1241
 22.1993
 21.2863
 21.2022
 21.243
 21.1853
 19.8919
 19.8536
 19.8639
 19.9144
 20.3726
 20.2951
 20.2654
 20.3356
 21.9552
 21.9627
 21.9036
 21.9072
 21.6985
 21.6142
 21.6146
 21.6953
 19.6858
 19.6508
 19.5938
 19.635
 20.0915
 20.1593
 20.122
 20.1371
 21.1448
 21.1729
 21.2159
 21.1698
 22.2451
 22.2284
 22.2313
 22.2048
 22.5083
 22.4125
 22.4373
 22.5026
 20.4959
 20.5817
 20.6136
 20.5478
 22.0733
 22.1367
 22.0751
 22.2008
 19.7575
 19.8547
 19.8478
 19.7653
 20.6464
 20.5449
 20.6019
 20.6613
 20.0562
 20.0836
 20.1148
 20.0638
 20.3286
 20.4245
 20.413
 20.3552
 21.2033
 21.2466
 21.1969
 21.151
 21.8212
 21.9413
 21.915
 21.8607
 22.4016
 22.3022
 22.3857
 22.381
 22.1731
 22.2592
 22.1665
 22.1903
 21.8398
 21.9114
 21.9234
 21.8753
 21.1086
 21.0818
 21.0769
 21.2049
 21.1237
 21.0654
 21.0922
 21.1454
 21.0512
 21.1107
 21.0004
 21.0614
 20.5706
 20.611
 20.5361
 20.5496
 22.7071
 22.7795
 22.7359
 22.7417
 20.8663
 20.8432
 20.877
 20.8
 21.9683
 22.0372
 22.0054
 21.9903
 21.3856
 21.2939
 21.3607
 21.3116
 19.5306
 19.6678
 19.5543
 19.5976
 21.0815
 21.1168
 21.1199
 21.1528
 22.0904
 22.1287
 22.1063
 22.1812
 21.3462
 21.3676
 21.3084
 21.2723
 21.8028
 21.7637
 21.7667
 21.8291
 21.1494
 21.2405
 21.1539
 21.2291
 22.6576
 22.7122
 22.6868
 22.6304
 21.3922
 21.384
 21.3344
 21.3237
 20.4872
 20.5085
 20.448
 20.5139
 20.5609
 20.553
 20.5248
 20.5476
 19.6101
 19.7646
 19.6454
 19.7012
 21.663
 21.6711
 21.602
 21.6506
 21.8268
 21.7798
 21.8404
 21.7103
 19.5686
 19.6851
 19.5785
 19.6018
 21.8141
 21.8137
 21.7431
 21.8102
 19.933
 19.9584
 19.8703
 19.9697
 20.8569
 20.7536
 20.8137
 20.7633
 21.1261
 21.2298
 21.1333
 21.1122
 21.8702
 21.7945
 21.8024
 21.8707
 21.1606
 21.1541
 21.0612
 21.1469
 19.9172
 19.9352
 19.9044
 19.896
 23.3352
 23.3083
 23.2871
 23.3769
 22.276
 22.2925
 22.2931
 22.2695
 22.1937
 22.1756
 22.1955
 22.2451
 21.5707
 21.5368
 21.6085
 21.5103
 21.3963
 21.4551
 21.4124
 21.4465
 21.6608
 21.706
 21.722
 21.6592
 19.39
 19.4269
 19.2962
 19.434
 21.8968
 21.9448
 21.9415
 21.8449
 20.6168
 20.6195
 20.5909
 20.6742
 21.0528
 20.0157
 20.0976
 20.0946
 20.1169
 20.6921
 20.6241
 20.5694
 20.6255
 22.3364
 22.3026
 22.2887
 22.3159
 21.5073
 21.537
 21.4793
 21.4352
 21.7004
 21.7756
 21.7292
 21.7305
 19.8554
 19.9417
 19.9243
 19.9146
 21.3253
 21.4307
 21.3564
 21.383
 19.7585
 19.7487
 19.8334
 19.8217
 20.3673
 20.3215
 20.4019
 20.3022
 22.3083
 22.2609
 22.2873
 22.2016
 21.8616
 21.9339
 21.8135
 21.8668
 20.5846
 20.533
 20.521
 20.5743
 21.1406
 21.2285
 21.1241
 22.1516
 22.1832
 22.1508
 22.1242
 20.4946
 20.6326
 20.5361
 20.5975
 21.7376
 21.827
 21.8063
 21.7777
 21.1714
 21.275
 21.2185
 21.1621
 19.7046
 19.7055
 19.8305
 19.7282
 21.5809
 21.61
 21.6531
 21.5947
 20.051
 20.1597
 20.0788
 20.044
 21.0369
 21.0939
 21.0424
 21.1269
 20.1732
 20.2251
 20.2934
 20.2466
 19.8055
 19.8047
 19.7077
 19.7525
 21.5302
 21.5417
 21.4835
 21.4892
 23.2787
 23.191
 23.1936
 23.1517
 19.2508
 19.3037
 19.3127
 19.3183
 20.5523
 20.5947
 20.6154
 20.5667
 21.9799
 21.9886
 21.8583
 21.9585
 21.3701
 21.3069
 21.3019
 21.3723
 22.5879
 22.5693
 22.5836
 22.6352
 19.7724
 19.7156
 19.6173
 19.6927
 22.1948
 22.2432
 22.217
 22.2072
 20.7788
 20.7087
 20.8102
 20.7578
 21.9109
 22.0402
 21.9359
 21.9471
 19.1894
 19.2025
 19.1977
 19.287
 19.3128
 19.3336
 19.3914
 19.4446
 20.2849
 20.3558
 20.3814
 20.2625
 20.7367
 20.7125
 20.7318
 20.7922
 20.7238
 22.0351
 22.0241
 22.0985
 22.0513
 21.9482
 21.9749
 21.9996
 21.93
 20.4682
 20.4008
 20.3959
 20.3857
 22.0833
 22.0223
 22.0238
 22.0869
 21.8032
 21.8321
 21.8375
 21.7739
 20.3098
 20.2787
 20.2881
 20.3678
 21.4913
 21.4038
 21.4896
 21.408
 20.4754
 20.4691
 20.4667
 20.4063
 21.7652
 21.7792
 21.8347
 21.7839
 21.5953
 21.553
 21.5319
 21.5257
 21.246
 21.1707
 21.2702
 21.1989
 20.7694
 20.6844
 20.7272
 20.648
 20.1112
 20.1513
 20.0292
 20.0547
 20.8332
 20.8549
 20.8953
 20.8853
 20.8619
 20.817
 20.8036
 20.8168
 22.3583
 22.3595
 22.3177
 22.2942
 20.5973
 20.5956
 20.5509
 20.5851
 21.0777
 21.0639
 21.0226
 21.0742
 20.9843
 20.9972
 21.045
 21.0047
 21.5093
 21.4949
 21.5659
 21.5166
 22.1409
 22.1504
 22.1099
 22.2095
 20.2492
 20.2804
 20.2429
 20.2052
 22.1156
 22.1657
 22.1473
 22.0675
 19.4137
 19.4196
 19.3028
 19.3738
 20.1182
 20.1759
 20.0786
 20.1156
 20.0951
 20.0807
 20.0698
 20.1041
 19.9286
 19.9676
 19.9742
 19.8835
 20.3729
 20.338
 20.4086
 20.3402
 22.601
 22.6395
 22.7045
 20.8926
 20.9967
 20.9094
 20.9182
 20.1521
 20.1935
 20.2144
 20.1671
 21.5368
 21.6162
 21.575
 21.5565
 21.7886
 21.7597
 21.8174
 21.7539
 20.345
 20.3291
 20.2781
 20.4115
 21.2512
 21.2727
 21.2514
 21.1763
 21.7227
 21.716
 21.7527
 21.7555
 19.4272
 19.3145
 20.6097
 20.6191
 20.6993
 20.6871
 21.216
 21.2446
 21.283
 20.8484
 20.8212
 20.8292
 20.9104
 22.4104
 22.4427
 22.3675
 22.3772
 20.0518
 19.9981
 19.9957
 20.0901
 20.8777
 20.8967
 20.9413
 20.9295
 21.5437
 21.6024
 21.5629
 21.5007
 20.921
 20.9936
 20.9715
 20.9372
 22.1277
 22.1638
 22.0979
 22.1283
 22.2695
 22.1537
 22.2387
 22.2152
 21.2475
 21.1917
 21.1651
 21.2084
 22.0592
 22.0723
 22.0729
 22.0176
 21.1461
 21.1844
 21.1686
 21.1962
 19.94
 19.9626
 20.0497
 20.0589
 22.0333
 21.9931
 21.9609
 22.0084
 22.9025
 22.8418
 22.8644
 22.8337
 20.6367
 20.7758
 20.6981
 20.6562
 21.3341
 21.2828
 21.3487
 21.285
 22.1137
 22.1259
 22.0547
 22.0698
 21.218
 21.2533
 21.1764
 21.1902
 19.8016
 19.8291
 19.7818
 19.7959
 21.8517
 21.8586
 21.8943
 21.8642
 20.7311
 20.7669
 20.7652
 20.7968
 21.3902
 21.3016
 21.3569
 21.2591
 20.4015
 20.3435
 20.3467
 20.2941
 20.0046
 20.0045
 19.9643
 20.0392
 21.9867
 21.9305
 21.9679
 21.8683
 21.6088
 21.5554
 21.5692
 21.5867
 20.7508
 20.7584
 20.8534
 20.7902
 22.1485
 22.1205
 22.1316
 22.1092
 23.2926
 23.3544
 23.349
 23.3151
 20.9328
 20.9935
 21.003
 21.0016
 23.4301
 23.447
 23.4095
 23.368
 23.3193
 23.252
 23.2471
 23.2767
 22.3976
 22.3558
 22.359
 22.417
 20.5807
 20.6331
 20.6801
 20.7034
 20.6304
 20.5596
 20.5604
 20.5071
 20.5086
 20.578
 20.5267
 20.609
 20.6794
 20.7592
 20.7431
 20.6495
 22.6631
 22.7146
 22.6784
 22.6971
 22.003
 22.0409
 21.963
 21.9898
 21.99
 22.0855
 22.0758
 22.0452
 21.4623
 21.3839
 21.4579
 21.375
 20.8403
 20.8856
 20.8392
 20.8705
 20.4127
 20.4153
 20.4511
 20.3834
 21.9043
 21.8284
 21.8181
 21.8927
 20.5581
 21.2437
 21.1952
 21.1901
 21.2356
 19.2925
 19.2758
 19.1746
 19.2368
 21.3269
 21.3291
 21.2713
 21.3235
 19.8278
 19.7336
 19.8027
 22.0646
 22.0198
 21.999
 22.0785
 23.1586
 23.1009
 23.1168
 23.0817
 21.1257
 21.1378
 21.0565
 21.1787
 21.5176
 21.6049
 21.588
 21.5978
 22.0721
 22.0195
 21.9816
 21.968
 21.9471
 21.9202
 21.9845
 21.9145
 22.4608
 22.5659
 22.5031
 22.5083
 20.7776
 20.7868
 20.7326
 20.6336
 21.1688
 21.0973
 21.184
 21.1292
 21.7011
 21.7543
 21.7003
 21.7203
 21.2436
 21.3026
 21.1601
 20.2262
 20.2736
 20.2893
 21.8333
 21.8291
 21.9131
 21.9268
 22.5105
 22.5417
 22.54
 22.5142
 21.7002
 21.6568
 21.6567
 21.7164
 22.4182
 22.4793
 22.4045
 22.5058
 20.2493
 20.126
 20.2164
 20.195
 20.2839
 20.2561
 20.2314
 20.187
 22.1543
 22.183
 22.1701
 22.1803
 22.5261
 22.6116
 22.559
 22.5347
 20.9172
 21.0135
 20.9355
 20.9761
 19.5193
 19.5875
 19.4734
 19.568
 22.478
 22.4784
 22.5163
 22.4724
 20.5432
 20.6217
 20.6231
 20.5279
 22.9496
 22.9858
 22.9383
 22.9672
 20.4045
 20.3518
 20.4267
 20.2921
 21.4214
 21.4767
 21.3915
 21.4999
 20.256
 20.2542
 20.1699
 20.1824
 22.074
 22.051
 22.034
 21.9694
 21.5434
 21.6017
 21.5909
 21.599
 21.7752
 21.8002
 21.7317
 21.7308
 21.7514
 21.7839
 21.7032
 21.8063
 20.945
 20.8987
 20.9089
 20.9731
 21.2963
 21.359
 21.2894
 21.293
 20.1366
 20.2114
 20.2408
 20.1997
 19.389
 19.3162
 19.4777
 19.4913
 21.3518
 21.3595
 21.4128
 21.366
 19.9473
 19.9732
 20.0128
 19.8947
 20.4432
 20.3345
 20.3009
 20.3463
 22.6724
 22.7114
 22.772
 22.6894
 22.1254
 22.0096
 22.0299
 22.0677
 21.4373
 21.4884
 21.5081
 21.4756
 22.4471
 22.497
 22.5102
 22.5406
 20.8702
 20.79
 20.8017
 20.8384
 20.2454
 20.111
 20.1853
 20.1644
 22.4055
 22.3171
 22.3987
 22.4066
 21.212
 21.1533
 21.1971
 21.1843
 21.7206
 21.7323
 21.7301
 21.7654
 23.2584
 23.2144
 23.1912
 23.2456
 21.5744
 21.5869
 21.5884
 21.5288
 21.171
 21.1258
 21.1406
 21.113
 20.5267
 20.4611
 20.5059
 20.4388
 21.81
 21.794
 21.7834
 21.1548
 21.1673
 21.1855
 21.1724
 21.6025
 21.6458
 21.5166
 21.5889
 20.6274
 20.6982
 20.6307
 20.6713
 20.5846
 20.4947
 20.5327
 20.5275
 19.7972
 19.8533
 19.8148
 19.9102
 21.9474
 21.959
 21.9047
 21.9686
 19.5236
 19.5041
 19.4733
 19.5058
 21.8326
 21.7717
 21.8272
 21.8635
 21.1754
 21.0968
 21.1071
 21.0674
 21.0924
 21.172
 21.1409
 21.1872
 23.3693
 23.4243
 23.3696
 23.3896
 21.6216
 21.6639
 21.615
 21.6026
 21.1846
 21.207
 21.1354
 21.0559
 21.245
 21.2264
 21.2097
 21.3086
 19.2548
 19.2613
 19.3463
 19.2953
 21.8377
 21.7637
 21.7212
 21.8166
 21.7495
 21.7914
 21.7111
 21.8092
 20.4523
 20.3629
 20.4284
 20.3972
 22.013
 22.0277
 22.0669
 22.0753
 22.0481
 22.0619
 22.0202
 22.0707
 20.6217
 20.7149
 20.6308
 20.6904
 20.6223
 20.6133
 20.6814
 20.6129
 21.0233
 21.013
 20.9044
 20.9506
 21.7682
 21.8023
 20.8008
 20.8576
 20.7694
 20.8419
 21.7654
 21.7255
 21.7705
 21.7465
 21.4047
 21.3306
 21.3029
 21.3235
 19.7896
 19.8415
 19.8738
 19.7867
 21.321
 21.2995
 21.264
 21.2493
 20.3299
 20.2797
 20.2512
 20.3515
 21.871
 21.7615
 21.7997
 21.7691
 21.5208
 21.5878
 21.5949
 21.5682
 21.2146
 21.0816
 21.1479
 21.1472
 21.998
 22.0572
 22.08
 22.0326
 22.8554
 22.816
 22.8563
 22.8853
 19.6529
 19.6706
 19.7145
 19.681
 22.4227
 22.422
 22.3945
 22.4465
 20.822
 20.7942
 20.8685
 20.8653
 22.8508
 22.8378
 22.8212
 22.888
 20.8428
 20.7679
 20.8137
 20.8233
 21.8377
 21.8464
 21.8722
 21.8549
 21.8581
 21.8365
 21.9039
 21.8632
 20.9671
 20.9411
 21.0218
 20.9768
 20.0804
 20.1567
 20.0846
 20.1728
 21.5377
 21.43
 21.4471
 21.4494
 22.1729
 22.1973
 22.1689
 22.1345
 20.0902
 19.979
 20.0303
 19.952
 21.8071
 21.8363
 21.7593
 21.7484
 21.4785
 21.4093
 21.4313
 21.387
 20.4069
 20.258
 20.2955
 20.34
 21.0533
 20.9858
 20.9626
 20.9615
 21.2674
 21.2887
 21.2559
 21.2144
 19.7766
 19.7313
 19.6804
 19.6497
 20.1051
 20.0678
 20.0805
 20.1162
 20.9204
 20.9025
 20.9983
 20.9637
 21.2894
 21.2499
 21.321
 21.1736
 21.6375
 21.6141
 21.6136
 21.5225
 22.1648
 22.1676
 22.2239
 20.2969
 20.2621
 20.2597
 20.2113
 22.8734
 22.9114
 22.9786
 22.9531
 20.5004
 20.5912
 20.5427
 20.5661
 21.9375
 22.0263
 21.9765
 21.9696
 22.0937
 22.1673
 22.1431
 22.1535
 19.9163
 19.994
 19.9569
 19.8537
 21.0919
 21.1325
 21.0689
 21.1169
 21.2143
 21.239
 21.7753
 21.3681
 21.2962
 21.3863
 21.3356
 22.8698
 22.8138
 20.6295
 20.6043
 20.5818
 22.2571
 22.2297
 22.3094
 22.2605
 20.5574
 20.6383
 20.6134
 20.6074
 21.4605
 21.394
 21.4134
 21.4238
 21.794
 21.6904
 21.751
 21.7368
 19.8766
 19.876
 19.7783
 19.8471
 22.2569
 22.1934
 22.2637
 22.1877
 20.7374
 20.7421
 20.7115
 20.6697
 19.6331
 19.6214
 19.719
 19.7204
 21.0947
 21.1741
 21.1164
 21.1645
 20.6785
 20.7947
 20.7598
 20.7593
 21.2337
 21.1785
 21.2332
 21.3397
 19.2857
 19.4476
 19.3081
 19.4438
 19.4422
 19.4294
 19.4753
 19.5536
 19.603
 19.6509
 19.6597
 19.5965
 21.4008
 21.4597
 21.3892
 21.3996
 20.8735
 20.9722
 20.9322
 20.8929
 21.2909
 21.2995
 21.3502
 21.311
 21.4507
 21.4618
 21.3838
 21.4762
 20.5612
 20.5424
 20.5327
 20.6213
 20.1113
 20.0302
 20.073
 20.0133
 20.0629
 20.0318
 20.1077
 19.9882
 21.0468
 21.0108
 21.0645
 21.0153
 21.274
 21.2682
 21.2967
 21.3302
 21.8542
 21.8893
 21.8693
 21.7925
 20.35
 20.2859
 20.2785
 20.3747
 22.3959
 22.3873
 22.4552
 22.3863
 20.3153
 20.2758
 20.3132
 20.3193
 20.985
 20.8653
 20.9708
 20.8908
 21.0063
 20.9982
 20.9895
 21.0686
 22.1936
 22.1957
 22.2226
 22.2796
 23.5088
 23.4621
 23.5341
 23.5246
 21.5987
 21.5302
 21.5982
 21.5837
 20.2784
 20.3598
 20.3182
 20.2756
 22.072
 22.1389
 22.0887
 22.0453
 20.8545
 20.8119
 20.9032
 20.8175
 20.7899
 20.7367
 20.6664
 20.6896
 20.4305
 20.3905
 20.5022
 20.472
 22.5434
 22.5711
 22.5796
 22.5235
 22.5292
 22.5149
 22.5484
 22.5638
 20.2304
 20.1208
 20.1505
 20.1811
 20.5579
 20.6636
 20.6881
 20.6174
 21.6602
 21.6492
 21.6892
 21.6896
 21.2059
 21.224
 21.1571
 21.1224
 21.0278
 21.0088
 21.0116
 21.0589
 21.6507
 21.7082
 21.5899
 21.6855
 20.6999
 20.7565
 20.7249
 20.7836
 18.9612
 19.0821
 18.9954
 18.9771
 20.8142
 20.7134
 20.7288
 20.6822
 21.1974
 21.1666
 21.2148
 21.1306
 21.164
 21.1664
 21.2268
 21.1704
 21.0022
 20.9481
 20.9917
 21.0543
 19.5401
 19.5409
 19.6126
 19.552
 20.156
 20.2301
 20.189
 20.7204
 20.7116
 20.6788
 20.7287
 22.1701
 22.1809
 22.1117
 22.1821
 21.4099
 21.4122
 21.4657
 21.3869
 20.084
 20.1877
 20.229
 20.1815
 21.8526
 21.8226
 21.8123
 21.7821
 21.5449
 21.59
 21.5957
 21.5225
 21.4388
 21.4762
 21.5519
 21.4792
 20.5615
 20.6193
 20.6384
 20.622
 20.964
 21.0199
 20.9588
 21.0795
 20.7152
 20.8394
 20.793
 20.7699
 22.0378
 21.9986
 21.9947
 22.0235
 21.5211
 21.477
 21.4615
 21.5295
 20.6301
 20.6823
 20.6148
 20.5472
 21.542
 21.514
 21.4738
 21.5723
 20.8112
 20.7327
 20.7377
 20.7724
 22.0683
 22.0945
 22.0507
 22.1063
 19.7357
 19.7145
 19.7999
 19.7372
 21.8773
 21.9179
 21.851
 21.8271
 21.9309
 22.0591
 21.9799
 21.9793
 20.4005
 20.3949
 20.3403
 20.3249
 21.8961
 21.8829
 21.8684
 21.8722
 20.8026
 20.8435
 20.8065
 20.8812
 22.2185
 22.218
 22.2949
 22.2817
 20.9953
 21.033
 21.0199
 20.947
 19.8286
 19.6984
 19.8028
 19.7341
 20.9458
 21.0481
 21.0461
 21.0013
 20.4823
 20.452
 20.4742
 20.4878
 20.8025
 20.8279
 20.8016
 20.7709
 20.8075
 20.7884
 20.7605
 20.7091
 19.6053
 19.5802
 19.5514
 19.6801
 21.9959
 22.037
 22.0767
 22.0795
 21.906
 21.9372
 22.0006
 21.9423
 19.9798
 19.9662
 20.021
 19.907
 19.8793
 19.8345
 19.8834
 21.7021
 21.7344
 21.7367
 21.6837
 20.8259
 20.7428
 20.8089
 20.8215
 20.8462
 20.8239
 20.898
 20.8137
 21.9314
 21.8723
 21.9671
 21.9171
 20.4366
 20.3852
 20.402
 20.3815
 21.254
 21.3271
 21.3216
 21.2394
 20.9724
 21.0533
 21.0389
 21.0688
 20.3719
 20.3163
 20.2984
 20.315
 22.2266
 22.2553
 22.2211
 22.1859
 21.6853
 21.7658
 21.7544
 21.7424
 19.5493
 19.6791
 19.5801
 19.6125
 21.9939
 22.0056
 21.9824
 21.8855
 22.2286
 22.2626
 22.2463
 22.2401
 21.2398
 21.2071
 21.2438
 21.1484
 22.8702
 22.8505
 22.8889
 22.8099
 21.0892
 21.0743
 21.1102
 21.0826
 20.3168
 20.3604
 20.3811
 20.3931
 20.0763
 20.125
 20.1049
 22.2728
 22.2638
 22.2497
 22.2723
 21.8457
 21.7687
 21.859
 21.7848
 21.9208
 21.9446
 21.9652
 21.9974
 21.7494
 21.8037
 21.7677
 21.7909
 19.4891
 19.4278
 19.3967
 19.4198
 22.166
 22.1589
 22.1831
 22.2239
 21.7822
 21.838
 21.7925
 21.7216
 20.1529
 20.1168
 20.1603
 20.1946
 21.5375
 21.5673
 21.52
 21.7108
 21.7921
 21.7389
 20.8969
 20.9772
 21.0282
 22.7404
 22.6731
 22.6616
 22.7162
 21.0791
 21.0439
 21.0802
 21.0156
 21.0847
 21.0522
 21.1528
 21.1251
 19.9464
 19.9016
 19.9857
 20.0022
 19.7668
 19.8022
 19.6558
 19.7887
 21.9821
 22.0318
 22.0393
 21.9349
 20.9178
 20.8322
 20.8391
 20.8429
 20.8795
 20.8245
 20.7917
 20.8174
 21.2254
 21.1393
 21.1774
 21.1148
 21.5757
 21.5393
 21.537
 21.6212
 20.9316
 20.9954
 20.9652
 20.9165
 22.0171
 22.0012
 22.0333
 21.9822
 19.9271
 19.9565
 19.9209
 19.8974
 21.7757
 21.7851
 21.7478
 21.7208
 20.0648
 20.1423
 20.1032
 20.0622
 19.7006
 19.7538
 19.7931
 19.7127
 19.8479
 19.8779
 19.8724
 19.8938
 21.8625
 21.9106
 20.5446
 20.554
 20.6112
 20.5769
 21.9514
 21.8657
 21.9101
 21.9366
 20.3277
 20.1981
 20.2455
 20.2173
 20.0385
 20.1206
 20.0143
 20.1091
 21.6138
 21.5749
 21.5607
 21.598
 20.9808
 20.9835
 20.9195
 20.9563
 21.7522
 21.7454
 21.6982
 21.7446
 21.3674
 21.3628
 21.3546
 21.2919
 23.1815
 23.0881
 23.1958
 23.1122
 19.8408
 19.884
 19.7781
 19.8627
 21.7113
 21.7849
 21.7002
 21.6829
 22.259
 22.3124
 22.3089
 22.2388
 21.292
 21.3189
 21.2545
 21.2221
 22.1942
 22.2866
 22.2983
 22.2007
 21.3664
 21.4463
 21.4573
 21.404
 20.5077
 20.5351
 20.4452
 20.5586
 21.1688
 21.2163
 21.2176
 21.1873
 19.9452
 19.8171
 19.9461
 21.2852
 21.2139
 21.3255
 21.2376
 23.221
 23.2471
 23.2469
 23.2755
 19.3976
 19.3638
 19.3358
 19.4051
 21.0511
 21.0559
 21.0139
 21.0658
 20.3561
 20.4098
 20.4679
 20.3923
 22.0217
 21.9611
 22.1072
 22.0429
 21.5684
 21.5177
 21.6314
 21.5723
 21.5857
 21.4866
 21.5334
 21.4883
 19.8208
 19.8755
 19.8075
 19.76
 21.5008
 21.5569
 21.5943
 21.5755
 19.4236
 19.4511
 19.4009
 19.4962
 20.5486
 20.6285
 20.6309
 20.5409
 21.9908
 21.9747
 21.9486
 21.9849
 22.8979
 22.8859
 22.834
 22.92
 21.3512
 21.4485
 21.3918
 21.4642
 21.1396
 21.1435
 21.0804
 21.1581
 20.4212
 20.4317
 20.4682
 20.5375
 23.1268
 23.1761
 23.0967
 23.1433
 21.3395
 21.3942
 21.302
 21.3256
 19.5933
 19.6404
 19.6612
 19.6395
 20.2324
 20.1592
 20.1868
 20.212
 20.1631
 20.185
 20.1085
 20.2048
 20.1676
 20.2334
 20.2498
 20.2191
 20.1648
 20.0672
 20.13
 20.1348
 20.8367
 20.807
 20.8413
 20.842
 21.9211
 21.7997
 21.7293
 21.7136
 21.7636
 20.6492
 20.7468
 20.7131
 20.7064
 20.6689
 20.6456
 20.7391
 20.7325
 22.518
 22.482
 22.4847
 22.5171
 20.0157
 20.0194
 20.0586
 20.0233
 20.3478
 20.2868
 20.2159
 20.2663
 22.0116
 21.9091
 21.9298
 21.813
 21.815
 21.8299
 21.7919
 21.7471
 21.761
 21.7194
 21.8681
 21.944
 22.0383
 21.9853
 20.6566
 20.5773
 20.5968
 20.6794
 19.5957
 19.5735
 19.6176
 19.5738
 21.1639
 21.1946
 21.1443
 21.2314
 19.7375
 19.8671
 19.8963
 19.9104
 21.3275
 21.3471
 21.3729
 21.2982
 20.619
 20.6886
 20.7305
 20.719
 21.9107
 21.9216
 21.9384
 21.9865
 20.956
 20.8665
 20.9831
 20.9099
 20.8202
 20.7402
 20.6966
 20.8173
 21.8789
 21.9105
 21.9712
 21.9413
 21.5322
 21.576
 21.445
 21.4856
 21.2893
 21.299
 21.3525
 21.3939
 20.8836
 20.8553
 20.8851
 20.8463
 22.336
 22.3363
 22.3122
 22.2609
 20.6901
 20.7686
 20.7303
 20.6742
 21.5307
 21.6163
 21.5168
 21.4841
 20.5514
 20.5635
 20.5516
 20.6006
 19.9051
 19.978
 19.9205
 19.9513
 19.7613
 19.8182
 19.8071
 19.7856
 19.7437
 19.6936
 19.8278
 19.4105
 19.3545
 19.3192
 19.277
 20.1455
 20.2311
 20.3068
 20.2015
 21.1567
 21.1719
 21.1214
 21.1328
 19.6664
 19.7124
 19.7588
 19.6774
 21.0897
 21.0884
 21.1293
 21.138
 20.8324
 20.7934
 20.8132
 19.9424
 19.8615
 19.9074
 19.9129
 19.9281
 20.0167
 19.9797
 20.9208
 20.9331
 20.8794
 20.8636
 21.5707
 21.5371
 21.5808
 21.4908
 20.5966
 20.6567
 20.6772
 20.6876
 19.7937
 19.7382
 19.7816
 19.8141
 21.7612
 21.787
 21.7621
 21.8234
 21.213
 21.2381
 21.2846
 21.3058
 21.0949
 20.9887
 21.0887
 21.0929
 20.4795
 20.5541
 20.5071
 20.5057
 21.8181
 21.8673
 21.775
 21.853
 22.0529
 22.11
 22.0469
 22.0467
 21.1753
 21.1765
 21.1863
 21.1217
 19.4337
 19.4815
 19.4898
 19.4799
 21.7159
 21.7925
 21.706
 21.7543
 21.9752
 21.9254
 22.0031
 21.9238
 20.726
 20.8182
 20.7218
 20.741
 21.7352
 21.6953
 21.7371
 22.0435
 21.9839
 22.0106
 20.8701
 20.9309
 20.8164
 20.9029
 21.9449
 21.9782
 22.0212
 21.9485
 21.9992
 22.0744
 22.0085
 22.0164
 20.68
 20.6616
 20.6967
 21.8465
 21.8552
 20.0009
 19.9789
 19.8804
 19.8653
 20.5939
 20.4911
 20.4954
 20.5234
 22.3723
 22.3264
 22.4117
 22.306
 22.7513
 22.7144
 22.7971
 22.7273
 21.686
 21.8088
 21.7381
 21.7263
 19.915
 19.917
 19.8694
 19.9027
 20.566
 20.6191
 20.6513
 20.6232
 22.2591
 22.2741
 22.2803
 22.2901
 21.7416
 21.7398
 21.6994
 21.6708
 21.7304
 21.7066
 21.7216
 21.9085
 21.8614
 21.855
 21.8581
 21.8619
 21.914
 21.8564
 21.8309
 22.0225
 22.1036
 22.0439
 22.0895
 19.7342
 19.6475
 19.7164
 19.7024
 19.6908
 19.6194
 19.741
 21.2052
 21.2537
 21.1945
 21.2708
 21.7566
 21.8437
 21.744
 21.7654
 19.4097
 19.3399
 22.0396
 22.0907
 22.0755
 22.1172
 20.9721
 20.8568
 20.93
 20.8716
 20.7667
 20.7961
 21.9553
 21.966
 21.9029
 21.9501
 19.6821
 19.6188
 19.7126
 19.5678
 19.4842
 19.5481
 19.4949
 19.3713
 21.3185
 21.2887
 21.3106
 22.4932
 22.4366
 22.4601
 21.8182
 21.7322
 21.8253
 21.8066
 20.331
 20.4042
 20.2812
 20.3885
 21.572
 21.6144
 21.6411
 21.6762
 21.6827
 21.7199
 21.6589
 21.7291
 20.6311
 20.6239
 20.6022
 20.513
 23.0794
 23.0216
 23.0825
 23.1315
 20.4478
 20.4381
 20.3655
 20.374
 20.4151
 20.4231
 20.3604
 20.3393
 22.0588
 22.0507
 22.1472
 22.0781
 19.9582
 19.9009
 19.8919
 19.9742
 23.1951
 23.2598
 23.2692
 23.3136
 19.7372
 19.8775
 19.8781
 19.8711
 20.0862
 20.1665
 21.6793
 21.6299
 21.6387
 21.5927
 22.1299
 22.2
 22.1581
 22.1065
 20.0121
 19.9367
 19.9429
 19.9797
 21.6098
 21.5972
 21.6018
 21.6428
 19.4004
 19.4498
 19.4198
 21.7897
 21.8517
 21.867
 22.2193
 22.1395
 22.1194
 19.7976
 19.746
 19.7748
 19.808
 21.7805
 21.825
 21.829
 21.8163
 19.9754
 19.967
 22.2526
 22.199
 22.2511
 22.2326
 21.1307
 21.0527
 21.0612
 21.1079
 21.7145
 21.7386
 21.4433
 21.3151
 21.323
 21.3948
 21.6392
 21.6468
 21.6407
 21.7141
 19.477
 19.4091
 19.5288
 19.4994
 22.1818
 22.2166
 22.2016
 20.2003
 23.1541
 23.1836
 23.175
 23.198
 19.9772
 19.9471
 19.9123
 20.0402
 21.6786
 21.6709
 21.5562
 21.589
 20.4014
 20.4453
 20.4315
 20.4107
 21.652
 21.7038
 21.7333
 21.671
 20.6623
 22.5095
 22.5313
 22.532
 22.5009
 20.6287
 20.6364
 20.6508
 20.7083
 20.1265
 20.0964
 20.0476
 20.1899
 20.174
 20.2622
 20.17
 19.9518
 19.8527
 19.9304
 19.9079
 22.0237
 22.0033
 21.9246
 21.9672
 19.8989
 19.8972
 19.9116
 19.8375
 22.2421
 22.256
 22.2427
 22.3113
 19.9722
 19.9255
 19.9021
 19.8996
 21.2429
 21.2813
 21.2901
 21.3056
 20.4463
 20.4039
 20.3778
 20.3605
 20.9133
 20.9495
 20.9708
 20.99
 19.6774
 19.7854
 21.0842
 21.1491
 21.1321
 21.0856
 22.4311
 22.4595
 22.3782
 22.4566
 22.2253
 22.2524
 22.1633
 22.2401
 20.9252
 20.8682
 20.8527
 20.85
 20.4056
 20.411
 20.416
 20.3253
 20.2445
 20.3172
 20.2703
 20.2276
 19.8696
 19.9538
 19.9332
 19.9896
 20.2566
 20.1611
 20.2151
 20.2555
 22.1964
 22.2121
 22.1659
 22.2533
 21.9559
 21.9633
 21.9764
 21.8842
 19.3418
 19.4125
 19.4429
 19.4323
 20.8449
 20.8
 20.8275
 20.719
 21.8556
 21.7687
 21.843
 21.8067
 22.9099
 22.9167
 22.8485
 22.9576
 19.9471
 19.9112
 19.9782
 19.8405
 21.8415
 21.8177
 21.8014
 21.7596
 21.3892
 21.3332
 21.4273
 21.3761
 22.318
 22.3327
 22.3226
 22.2693
 20.7242
 20.7682
 20.7359
 20.7336
 19.794
 19.7867
 19.8214
 19.7954
 20.8242
 20.9347
 20.8929
 20.9101
 21.3324
 21.3004
 21.2465
 21.2841
 22.3886
 22.3517
 22.3191
 22.4121
 19.7615
 20.5292
 20.4776
 20.5646
 20.4735
 21.3571
 21.392
 21.4517
 21.4123
 20.3336
 20.2926
 20.308
 20.2362
 21.827
 21.9019
 21.8564
 21.8185
 20.7797
 20.7246
 20.8064
 22.4185
 22.3163
 22.3916
 22.3858
 20.1168
 20.252
 20.1719
 20.2114
 22.1481
 22.1621
 22.1093
 22.1492
 19.0795
 19.1196
 19.0904
 19.0321
 21.8696
 21.8615
 21.8467
 21.8632
 22.7861
 22.6474
 22.6657
 22.7186
 22.4415
 22.4495
 22.3989
 22.3878
 19.3723
 19.4321
 19.4559
 19.4921
 19.6788
 19.6865
 19.6472
 19.6354
 21.2068
 21.1466
 21.1715
 21.133
 21.7748
 21.8053
 21.7623
 21.0082
 21.0175
 21.1075
 21.0761
 20.5689
 20.6121
 20.5155
 20.5289
 20.9369
 20.8039
 20.849
 20.867
 21.0863
 21.0727
 20.9513
 21.008
 19.3226
 19.3836
 19.385
 19.4177
 22.0008
 22.03
 21.9273
 21.9998
 22.4074
 22.5059
 22.4995
 20.3846
 20.4271
 20.4262
 20.4736
 20.0675
 19.9964
 20.0359
 20.0503
 21.8381
 21.8428
 21.8245
 21.9712
 21.9577
 21.917
 22.0191
 19.8589
 19.906
 19.8214
 19.9406
 21.2266
 21.2457
 21.1727
 21.2219
 21.9239
 21.9973
 21.9389
 21.947
 21.3842
 21.4226
 21.4173
 21.3672
 20.1406
 20.1312
 20.2023
 20.1348
 21.8262
 21.7377
 21.8663
 21.7686
 21.308
 21.42
 21.401
 21.3436
 21.6538
 21.5677
 21.6276
 19.7132
 19.7293
 19.7737
 19.7923
 21.1415
 21.1451
 21.1867
 21.1042
 19.3102
 19.3527
 19.196
 21.0622
 21.0147
 21.0432
 21.0618
 22.3367
 22.2876
 22.3689
 22.3395
 20.8634
 20.8477
 20.8105
 20.7472
 21.1054
 21.0084
 21.13
 21.8143
 21.8026
 21.734
 21.7532
 22.186
 22.165
 22.2112
 22.1439
 21.8461
 21.8037
 21.7624
 21.8486
 22.8252
 22.803
 22.7478
 22.7384
 21.4651
 21.4786
 21.5083
 21.5198
 21.6791
 21.7081
 21.6175
 21.724
 19.7472
 19.8673
 19.8429
 19.7111
 22.1398
 22.0552
 22.0797
 22.1023
 20.6774
 20.7017
 20.659
 20.6216
 19.4288
 19.408
 19.455
 19.4992
 19.4139
 19.5327
 19.4782
 19.4563
 20.21
 20.1659
 20.1997
 20.1971
 19.4196
 19.3132
 19.3242
 19.4707
 19.7994
 19.7978
 19.8081
 19.2829
 19.4147
 19.3814
 19.3825
 22.3568
 22.3906
 22.3573
 22.4161
 21.3698
 21.4624
 21.4723
 21.4484
 21.6077
 21.531
 21.5903
 21.5294
 21.5673
 21.6103
 21.6072
 21.6264
 19.7096
 19.7603
 19.69
 19.6743
 21.4561
 21.4526
 21.5204
 21.5294
 21.8219
 21.8976
 21.9082
 21.8435
 20.4545
 20.4745
 20.4017
 20.5036
 21.7299
 21.6729
 21.7339
 21.6687
 20.3673
 20.4261
 20.4618
 21.0084
 20.9344
 20.9139
 19.8487
 19.9368
 19.9446
 19.9082
 21.3781
 21.3494
 21.4032
 21.4024
 20.6565
 20.7222
 20.698
 20.6363
 21.5879
 21.6731
 21.6368
 21.5646
 19.2981
 19.3532
 19.5873
 19.6168
 19.6461
 19.5395
 22.3969
 22.4244
 22.4214
 22.4668
 20.6582
 20.6036
 20.5853
 20.5326
 21.8071
 21.7436
 21.8156
 21.8435
 23.4025
 23.4925
 23.4059
 23.4346
 21.8294
 21.862
 21.9042
 21.8542
 20.4408
 20.5149
 20.4432
 22.1765
 22.1869
 22.097
 22.1023
 19.4719
 19.5604
 19.4607
 19.5408
 21.8294
 21.7965
 21.8191
 21.7831
 20.7409
 20.6668
 20.6881
 20.7336
 22.2718
 22.2606
 22.3236
 22.2744
 23.0265
 23.0041
 22.9997
 22.9665
 21.9258
 21.8693
 21.9251
 21.9461
 21.4575
 21.4864
 21.4324
 20.9119
 21.0339
 20.9203
 20.9703
 22.0378
 22.028
 22.0876
 20.3092
 20.3438
 20.289
 20.2421
 20.2135
 20.1109
 20.2215
 20.1344
 20.4602
 20.5486
 20.4824
 20.4657
 19.5802
 19.7574
 19.7025
 19.6704
 20.2234
 20.2551
 20.1895
 21.6384
 21.5875
 21.6033
 21.5651
 20.3161
 20.386
 20.5941
 20.6586
 20.6828
 20.6357
 20.474
 20.5006
 20.4802
 20.4404
 21.8851
 21.8572
 21.872
 21.9284
 21.8817
 21.8261
 21.8741
 21.8164
 23.4246
 23.3826
 23.3648
 23.3952
 21.873
 21.8133
 21.873
 21.5862
 21.6122
 21.6308
 21.6049
 21.0671
 21.0671
 21.1063
 21.1209
 21.6026
 21.5374
 21.5299
 21.5781
 22.3494
 22.3118
 22.3618
 22.3591
 20.0955
 20.21
 20.1294
 20.1724
 21.239
 21.1867
 21.2326
 21.2838
 19.8506
 19.8547
 19.8769
 19.8171
 20.9366
 20.9937
 20.938
 20.9823
 19.6362
 19.5859
 19.6262
 22.9602
 22.9034
 22.9182
 22.9183
 20.4847
 20.3692
 20.4574
 20.445
 21.277
 21.3363
 21.2636
 21.2962
 21.9798
 22.0237
 21.5823
 21.5643
 21.5283
 21.5439
 21.357
 21.4377
 21.4248
 19.8175
 19.79
 19.8667
 19.8136
 19.7212
 19.7668
 19.8276
 19.805
 22.0191
 22.0363
 21.9955
 22.0281
 21.2701
 21.2869
 21.7421
 21.676
 21.7199
 21.7774
 20.2588
 20.3278
 20.2032
 20.1953
 22.3144
 22.2904
 22.3223
 22.2696
 21.93
 21.9145
 21.9702
 21.9778
 21.7719
 21.6978
 21.6646
 21.7022
 21.0032
 21.0105
 21.0227
 20.9115
 20.4102
 20.415
 20.4617
 20.4736
 20.2528
 20.2848
 20.3463
 20.2837
 23.2151
 23.2249
 23.2528
 23.2736
 22.1662
 22.1019
 22.071
 20.8708
 20.999
 20.9229
 20.8161
 20.7626
 20.8315
 20.7346
 19.7798
 19.7166
 19.764
 19.6911
 21.1773
 21.808
 21.8063
 21.8721
 21.8641
 20.595
 20.634
 20.6956
 20.6685
 20.1486
 20.2367
 20.2339
 20.1381
 20.1374
 20.1329
 22.0302
 22.0639
 22.0914
 22.0993
 21.0423
 20.9806
 21.0002
 20.9759
 22.2355
 22.2613
 22.2415
 22.2096
 20.7732
 21.4939
 21.5324
 21.4238
 21.399
 21.621
 21.5753
 21.5462
 21.592
 19.7827
 19.865
 19.6315
 19.5722
 19.5254
 19.5938
 22.607
 22.6658
 22.6288
 22.608
 20.239
 20.2319
 20.3269
 20.2072
 20.8333
 20.9126
 20.8666
 20.788
 23.1166
 23.0959
 23.0991
 23.1435
 21.0935
 21.0931
 21.0569
 21.1274
 21.1585
 21.2365
 21.2817
 21.2818
 22.0051
 22.0677
 21.9704
 22.0027
 19.3999
 19.312
 19.3047
 19.284
 21.2195
 21.2946
 21.2898
 21.6539
 21.587
 21.5816
 21.647
 19.5877
 19.4833
 19.5628
 19.549
 21.6895
 21.7335
 21.7856
 21.6844
 21.2986
 21.2496
 20.0861
 20.0955
 20.0315
 20.1574
 20.9023
 20.8876
 20.8036
 20.8016
 19.5932
 19.6369
 19.5335
 19.5928
 21.2677
 21.1574
 21.9191
 21.8971
 21.8801
 21.8812
 21.7097
 21.6964
 21.6492
 21.6283
 20.0112
 19.9927
 20.0872
 20.0528
 20.2494
 20.2929
 20.2158
 20.2259
 20.2789
 20.3612
 20.2879
 20.2887
 21.7107
 21.6265
 21.6602
 21.702
 22.671
 22.7171
 22.6996
 22.6777
 19.4138
 19.3229
 19.4025
 19.3604
 22.0291
 22.027
 22.0182
 21.9844
 20.9578
 20.892
 20.8899
 20.9357
 21.5562
 21.4533
 21.525
 21.4873
 20.959
 21.0455
 20.9619
 20.6687
 20.5834
 20.6634
 20.5562
 21.1585
 21.1095
 21.1418
 21.2024
 20.4284
 20.396
 20.3453
 20.4461
 20.4168
 20.4472
 20.4145
 20.533
 23.0915
 23.0065
 23.0875
 22.2409
 22.1782
 22.1362
 22.1628
 20.9231
 20.9718
 20.9514
 20.9577
 20.1146
 20.0263
 20.0734
 20.026
 21.78
 21.8686
 21.782
 21.7599
 21.7148
 21.7083
 20.7971
 20.8416
 20.7942
 20.7891
 20.9911
 20.9185
 20.9029
 20.8912
 18.9361
 18.9628
 19.013
 18.9067
 22.4176
 22.3869
 22.4345
 22.5085
 20.3505
 20.3437
 21.4586
 21.3941
 21.3835
 21.4551
 20.4945
 20.4572
 20.4632
 20.4433
 20.8231
 20.812
 20.7646
 20.7847
 21.3992
 21.3929
 21.3297
 21.4414
 20.6216
 20.5528
 20.5676
 20.5604
 22.0146
 21.9846
 21.9948
 21.9426
 22.2059
 22.2727
 22.1965
 22.2328
 20.0755
 20.0418
 19.9942
 19.8824
 20.9728
 20.9402
 20.8833
 22.7299
 22.7641
 22.708
 19.9641
 19.9262
 19.9116
 19.8806
 19.9001
 19.9292
 19.96
 19.9632
 21.1338
 21.1199
 21.1103
 21.0614
 19.7738
 19.7221
 19.7436
 19.7342
 19.5331
 19.4253
 19.5215
 19.4197
 21.3569
 21.3252
 21.2698
 21.3429
 20.1251
 20.0869
 20.0599
 20.067
 18.9937
 18.959
 19.053
 18.9433
 20.3034
 20.2897
 20.3377
 20.2243
 20.9047
 21.0103
 20.9638
 21.0335
 20.0298
 19.9796
 20.0408
 20.0604
 20.4991
 20.5148
 20.4673
 20.7114
 20.6483
 22.5007
 22.4973
 22.5149
 22.5397
 20.7265
 20.6572
 20.671
 20.6895
 22.6455
 22.6314
 22.6194
 22.6179
 22.5587
 22.5675
 22.5054
 22.4755
 20.8336
 20.8022
 20.7938
 20.8588
 21.481
 21.4814
 21.5396
 21.4498
 20.5918
 20.516
 20.5346
 20.5449
 21.0852
 21.1345
 22.2887
 22.3247
 22.3081
 22.2522
 19.4906
 19.4615
 19.4211
 19.4919
 21.4447
 21.5029
 21.3938
 21.4373
 19.9254
 19.9516
 20.0131
 19.9657
 22.2718
 22.3272
 22.2727
 22.2946
 19.8468
 19.7215
 19.7615
 19.7402
 20.7047
 20.8004
 20.7262
 20.7382
 21.7575
 21.8229
 21.871
 21.834
 19.1583
 19.2041
 19.1926
 19.2596
 21.6498
 21.569
 21.6304
 21.6509
 21.3216
 21.4289
 21.3599
 21.3918
 19.4901
 19.4752
 19.5506
 19.473
 21.1306
 21.2342
 21.2092
 21.2128
 20.0588
 19.9966
 20.03
 20.0664
 20.0486
 20.1018
 20.0781
 21.3132
 21.4399
 21.379
 21.4099
 20.1117
 20.0355
 20.0831
 20.0609
 22.0805
 22.0066
 22.0126
 22.0871
 19.9311
 19.8793
 19.8856
 19.9245
 19.9634
 19.9907
 19.9423
 19.9787
 21.9263
 21.9408
 21.814
 21.8802
 21.8859
 21.9142
 21.847
 21.9436
 23.6481
 23.6302
 23.6872
 23.674
 20.2097
 20.2979
 20.2846
 22.5119
 22.4214
 22.4265
 22.4595
 19.6525
 19.7139
 19.6998
 19.6808
 21.9462
 19.9773
 20.0529
 20.0209
 19.9621
 19.9778
 20.0301
 20.0445
 23.1868
 23.2626
 23.2446
 23.211
 23.2662
 23.2787
 23.2841
 23.3048
 19.6268
 19.6917
 19.6291
 19.5814
 21.8741
 21.9052
 21.8396
 21.917
 20.5186
 20.559
 20.4712
 21.5709
 21.629
 21.5754
 21.6695
 21.3105
 21.3053
 21.3382
 19.9485
 19.9848
 19.8676
 20.8459
 20.7966
 20.7807
 20.8294
 21.5571
 21.627
 21.6345
 21.5817
 21.9567
 21.9351
 21.9697
 21.9413
 20.546
 20.5015
 20.4928
 22.2963
 22.264
 22.354
 22.3576
 21.8998
 21.7656
 21.8452
 21.3681
 21.2583
 21.2733
 21.3324
 21.9332
 21.8669
 21.8748
 21.899
 21.927
 21.8384
 21.8231
 21.8444
 19.8973
 19.9451
 19.9434
 19.9542
 21.2591
 21.3217
 21.267
 21.2373
 21.6408
 21.6656
 20.8973
 20.9501
 20.9128
 20.9845
 19.6495
 19.7583
 19.7222
 19.7479
 19.7615
 23.7194
 23.7413
 23.7534
 23.7213
 20.1685
 20.089
 20.1299
 19.4158
 19.4496
 19.4761
 19.4354
 20.3347
 20.4386
 20.4251
 20.4337
 21.9708
 21.9439
 21.9076
 21.9759
 21.3059
 21.3536
 21.3838
 21.354
 19.351
 19.3634
 19.3925
 19.4023
 20.2
 20.2546
 20.304
 20.2481
 22.3283
 22.3762
 22.3813
 22.2994
 21.4027
 21.3788
 21.3654
 21.4714
 21.5136
 21.4805
 21.4386
 21.4936
 23.7401
 23.7527
 23.751
 23.7355
 22.0882
 22.1002
 22.1232
 22.0562
 20.2251
 20.1362
 20.2357
 20.1845
 20.7718
 20.7779
 20.7123
 20.7999
 21.1966
 21.1441
 21.0886
 21.1873
 20.4476
 20.375
 20.3997
 20.4016
 20.7017
 20.7107
 20.642
 20.7155
 20.3673
 20.3634
 20.4212
 20.2836
 19.1296
 19.2668
 19.2213
 19.0898
 20.1281
 20.1605
 20.18
 20.2823
 20.4008
 20.4414
 20.502
 20.4284
 20.538
 20.9434
 20.9426
 20.9908
 20.8781
 19.6822
 19.7167
 19.73
 19.7257
 21.2687
 21.3065
 21.2387
 21.2643
 20.8343
 20.8039
 20.7663
 20.8753
 21.0503
 21.1247
 21.0769
 21.0184
 21.5198
 21.6181
 21.5449
 21.6102
 22.8791
 22.8493
 22.7809
 22.8951
 19.0179
 19.1445
 20.6336
 20.6732
 20.6818
 23.474
 23.476
 23.4842
 21.7777
 21.8252
 21.7944
 21.8513
 22.5268
 22.5251
 22.6138
 22.6131
 22.0786
 22.1116
 22.0622
 22.1456
 19.5545
 19.6587
 19.6176
 19.6004
 20.9763
 21.0653
 21.0252
 21.0788
 20.4744
 20.3955
 20.3944
 20.3263
 20.7129
 20.7488
 20.786
 20.8502
 20.4138
 20.3743
 20.4419
 20.4164
 21.1871
 21.1827
 20.0104
 20.1675
 20.0285
 20.1603
 20.3074
 20.3545
 20.3907
 20.2464
 21.7966
 21.8789
 21.7854
 21.868
 21.8533
 21.8359
 21.8377
 21.8267
 20.8993
 20.8851
 20.9163
 20.8697
 20.8935
 20.8447
 20.7999
 20.7476
 22.1024
 22.1908
 22.215
 22.0808
 20.3565
 20.417
 20.4437
 20.4498
 19.1885
 19.2332
 19.1886
 19.2295
 19.9611
 20.0032
 20.0033
 20.0386
 19.12
 19.0758
 19.1621
 19.0519
 19.8887
 19.8038
 19.8247
 19.8211
 20.9987
 20.9037
 20.9816
 20.9586
 20.4937
 20.5389
 21.1507
 21.0642
 21.1742
 21.128
 21.8466
 21.7813
 21.7923
 21.7672
 20.2166
 20.1044
 20.1029
 20.1736
 21.1757
 21.1917
 21.1729
 21.2528
 21.3385
 21.3935
 21.4126
 21.3804
 21.9431
 21.9421
 21.9095
 21.8506
 21.6937
 21.6861
 21.7314
 21.6262
 21.8953
 21.8451
 21.8436
 21.8722
 22.8493
 22.842
 22.8896
 22.8689
 20.2743
 20.2466
 20.3231
 20.2599
 20.5525
 20.5351
 22.6729
 22.6697
 22.6739
 22.7351
 21.5926
 21.5653
 20.6096
 20.6694
 20.5994
 20.0537
 20.0283
 22.0846
 22.0945
 22.1301
 22.0445
 22.7544
 22.7219
 22.7217
 22.7041
 22.171
 22.1336
 22.0953
 22.0825
 21.6084
 21.544
 21.53
 21.5232
 20.7372
 20.8228
 20.8272
 20.8206
 20.4396
 20.4709
 20.4824
 20.4936
 21.6316
 21.5726
 21.5615
 21.5778
 20.8787
 20.88
 20.8481
 20.9545
 20.9828
 21.0318
 21.049
 21.0113
 20.9512
 20.8993
 20.8667
 20.8956
 20.856
 20.9685
 20.8581
 21.154
 21.2092
 21.1003
 21.1461
 21.4595
 21.4279
 21.5214
 21.4618
 21.8882
 21.8318
 21.9259
 21.8331
 19.6417
 19.6662
 19.6184
 19.5704
 21.272
 21.2712
 21.1917
 21.2028
 22.2018
 22.1991
 22.3094
 22.2252
 22.3389
 22.3199
 22.3494
 22.3655
 22.1852
 22.238
 22.2337
 22.2021
 21.8926
 21.8979
 21.8227
 21.8077
 21.9335
 21.9747
 21.9932
 21.9619
 19.8671
 19.8214
 19.813
 19.7895
 21.3028
 21.3041
 21.3182
 21.2486
 20.3483
 20.2696
 20.3321
 20.3722
 21.8823
 21.802
 21.8974
 21.8392
 19.5677
 19.5394
 19.5455
 19.4975
 19.4653
 19.4844
 19.3888
 20.3342
 20.4765
 20.4319
 20.4243
 21.7796
 21.7432
 21.8168
 21.7583
 19.2517
 19.3685
 19.345
 21.4112
 21.4684
 21.4187
 21.5115
 19.9046
 19.8906
 20.056
 20.0316
 19.9682
 20.0583
 21.5183
 21.5601
 21.5318
 22.192
 22.1666
 22.2411
 22.2182
 21.8729
 21.8999
 21.8302
 21.8325
 21.0437
 20.9634
 21.0693
 19.4691
 19.6082
 19.595
 20.3616
 20.4551
 20.4765
 20.4262
 19.4671
 19.4995
 19.5912
 19.4039
 21.373
 21.2973
 21.2619
 21.3055
 19.77
 19.7575
 19.7208
 19.8276
 20.966
 20.9488
 20.9983
 21.0377
 21.707
 21.7803
 21.7443
 19.3281
 19.4006
 19.3608
 19.251
 20.5894
 20.8256
 20.7382
 20.775
 20.8122
 20.6538
 20.6428
 20.7004
 21.7378
 21.7836
 21.7704
 21.7729
 21.7757
 21.6868
 21.3542
 21.4251
 21.4225
 21.4304
 21.3062
 21.2213
 21.284
 21.2332
 20.4091
 19.2366
 19.3626
 19.3763
 19.2937
 23.0232
 23.0932
 23.0656
 23.0729
 21.6346
 21.6708
 21.7795
 21.8025
 21.7645
 21.747
 21.7864
 21.7809
 21.8729
 21.8398
 20.3069
 20.402
 20.3956
 20.3456
 20.2511
 20.2241
 20.3144
 20.2357
 21.606
 21.669
 20.4775
 20.4585
 20.3655
 20.4256
 20.4625
 20.3797
 20.4547
 20.8183
 20.8755
 20.9151
 20.9377
 21.2322
 21.2962
 21.2339
 21.303
 20.3103
 20.2013
 20.2167
 20.3026
 20.0644
 20.0568
 19.9953
 20.0818
 20.1437
 20.066
 20.1214
 20.2833
 20.2653
 20.2667
 20.3292
 21.3599
 21.3413
 21.3286
 21.3873
 22.5114
 22.5373
 22.4907
 22.4824
 21.5227
 21.5299
 21.5657
 21.5477
 20.0472
 20.1248
 20.1769
 20.1088
 20.5064
 20.5503
 20.5517
 20.4919
 21.5092
 21.4723
 21.4419
 21.4393
 20.5392
 20.6139
 20.5606
 20.5422
 20.9009
 20.8753
 20.9732
 20.8659
 20.918
 20.8467
 20.8752
 20.8444
 20.5673
 20.5082
 20.5198
 19.7932
 19.7662
 19.8164
 19.8005
 21.5479
 21.4772
 21.5089
 21.5051
 21.1698
 21.1008
 21.107
 21.121
 22.4171
 22.453
 22.4408
 22.3848
 21.9456
 21.9
 21.9018
 21.9413
 21.8728
 21.9748
 21.922
 21.9858
 21.9768
 21.9394
 21.9496
 21.9193
 20.9177
 20.9553
 20.9424
 22.2554
 22.2709
 22.233
 22.2189
 22.0552
 22.0297
 21.9859
 22.051
 19.2912
 19.3837
 19.3864
 19.3192
 20.8723
 20.9105
 20.9551
 20.9846
 20.0879
 20.0859
 20.1341
 20.1518
 20.7561
 20.7214
 20.7703
 20.8155
 20.5831
 20.5283
 20.5894
 20.5744
 21.7337
 21.7909
 21.7639
 21.844
 21.074
 20.9374
 21.0461
 21.0259
 20.0059
 19.9484
 19.9999
 19.9735
 20.7174
 20.7467
 20.6431
 20.6579
 21.9983
 22.0396
 21.9697
 21.9361
 19.7563
 19.7278
 19.7515
 19.7131
 21.4296
 21.4908
 22.082
 21.0735
 21.0414
 20.9874
 21.0885
 21.2581
 21.1882
 21.266
 21.2829
 22.7287
 22.7388
 22.6757
 21.5399
 21.6078
 21.6228
 21.6642
 20.7237
 20.6089
 20.6597
 20.5903
 20.9658
 20.9158
 20.9443
 20.9714
 19.7738
 19.7347
 19.7262
 19.7519
 21.9094
 21.7984
 21.8766
 21.7688
 21.7732
 21.7894
 21.7049
 22.5754
 22.6682
 22.6128
 22.5874
 21.9457
 21.8633
 21.9233
 20.7405
 20.6027
 20.7186
 21.9935
 22.0041
 22.0613
 22.0315
 21.2307
 21.1638
 21.1509
 21.1508
 23.7294
 23.7339
 23.7262
 23.6759
 21.3411
 21.3631
 21.3651
 22.2302
 22.2461
 22.2313
 22.231
 21.3597
 21.392
 21.4511
 21.3982
 22.0584
 22.0015
 22.0067
 21.9714
 20.384
 20.3511
 20.3963
 20.3334
 20.2078
 20.2737
 20.2236
 20.1852
 19.4751
 19.473
 19.4286
 19.5368
 20.8436
 20.937
 20.8662
 20.842
 22.0665
 22.1445
 22.0734
 22.1176
 21.6834
 21.7102
 22.4913
 22.4882
 22.4655
 22.4673
 21.213
 21.1837
 21.5311
 21.4226
 21.4473
 21.8411
 21.7986
 21.7684
 21.8026
 19.5634
 19.5211
 19.6411
 19.6265
 19.7132
 19.7305
 19.7624
 19.7267
 21.7551
 21.734
 21.7809
 21.8313
 22.2717
 22.2491
 20.7556
 20.7253
 20.7446
 20.6773
 21.8483
 21.8718
 21.818
 21.8189
 21.4323
 21.5233
 21.3781
 19.0196
 18.9872
 19.0783
 21.0137
 20.919
 20.9511
 20.9517
 19.8572
 19.7691
 19.8769
 19.9179
 20.8814
 20.8197
 20.8027
 20.8919
 20.3313
 20.2751
 20.2659
 20.3707
 22.0944
 22.0301
 22.0841
 22.1161
 21.806
 21.7148
 21.8336
 21.7431
 20.8725
 20.9449
 20.8029
 20.8968
 21.5031
 21.4282
 21.4086
 21.5084
 22.0758
 22.0536
 22.0266
 21.9715
 21.2203
 21.1892
 21.1459
 21.1084
 20.4893
 20.4798
 20.5301
 20.9392
 20.8636
 20.9145
 20.8747
 23.3842
 23.3267
 23.2825
 23.3228
 22.2668
 22.2707
 22.2526
 22.2625
 21.5546
 21.5536
 21.5643
 21.4924
 22.764
 22.7026
 22.7837
 22.7419
 19.8052
 19.8049
 19.8718
 19.3739
 19.4422
 19.518
 19.4527
 20.1842
 20.0534
 20.1038
 20.101
 20.9706
 20.5277
 20.4283
 20.4052
 20.4719
 21.0758
 21.02
 21.1109
 21.1175
 22.097
 22.154
 22.1245
 21.7615
 21.7442
 21.7214
 21.8188
 23.3829
 23.4454
 23.3896
 23.4662
 22.6482
 22.6484
 22.6281
 22.6241
 21.5857
 21.586
 21.5439
 21.504
 19.2926
 19.417
 19.3728
 19.3899
 23.215
 23.196
 23.142
 23.1507
 20.4022
 20.3266
 20.4478
 20.364
 20.99
 20.9807
 20.916
 20.9777
 21.7323
 21.855
 21.844
 21.132
 21.2125
 21.2202
 21.2148
 19.4495
 19.4098
 19.3911
 22.0536
 21.9494
 21.9361
 21.3708
 21.3524
 21.2718
 21.288
 21.5924
 21.6118
 21.6331
 21.6469
 21.5376
 21.5514
 21.4726
 21.4584
 22.1886
 22.2321
 22.2215
 22.1531
 21.1699
 21.1195
 21.1921
 21.1211
 19.5
 19.6179
 19.6167
 19.6749
 19.8254
 19.8402
 19.8404
 19.7805
 22.3332
 22.3145
 22.3167
 22.3258
 19.8983
 19.8612
 19.8656
 19.9599
 19.6302
 19.5197
 19.5483
 19.649
 19.874
 19.8851
 19.9735
 19.9652
 20.6294
 20.6362
 20.5771
 20.6072
 21.048
 21.1005
 21.0273
 21.5784
 21.6821
 21.6556
 21.6284
 20.2003
 20.2503
 20.2894
 20.1845
 20.2318
 20.1875
 20.153
 20.1749
 19.0001
 19.0036
 19.1434
 19.0612
 22.717
 22.6718
 22.6837
 22.6719
 22.465
 22.5002
 22.4837
 22.435
 22.1667
 22.1895
 22.1068
 22.1928
 21.4991
 21.5997
 21.532
 21.5402
 21.4757
 21.4679
 21.4697
 19.5933
 19.5419
 19.4628
 19.5101
 20.1568
 20.1951
 20.2375
 20.2278
 21.1892
 21.2423
 21.2657
 21.2256
 19.7767
 19.7299
 20.7977
 20.7994
 20.804
 20.8683
 19.8594
 19.824
 19.7178
 19.7963
 20.9049
 20.8116
 20.9233
 20.8042
 21.5973
 21.5584
 21.6607
 21.6337
 22.4067
 22.4479
 22.4134
 22.3566
 23.4446
 23.3767
 23.4648
 23.4168
 19.9273
 19.9539
 19.9645
 19.9131
 19.598
 19.5852
 19.5806
 19.5257
 21.3451
 21.4289
 21.381
 21.4271
 21.031
 21.0696
 21.0816
 21.0314
 21.8668
 21.9356
 21.8195
 20.619
 20.6781
 20.6676
 20.6982
 21.9009
 21.914
 21.8645
 21.8698
 21.1426
 21.2073
 21.2648
 21.2195
 20.5846
 20.6225
 20.6072
 20.5715
 20.9424
 20.9652
 21.0002
 19.8311
 19.9055
 19.8836
 19.8858
 20.6305
 20.5421
 22.7837
 22.6768
 22.7828
 22.7413
 20.3004
 20.3585
 20.3276
 21.7475
 21.7211
 21.7279
 21.7384
 20.7296
 20.7469
 20.7678
 21.0433
 21.1174
 21.0411
 21.0831
 20.672
 20.7514
 20.6245
 20.7013
 20.602
 20.5209
 23.1548
 23.1553
 23.2052
 23.1488
 23.2994
 23.3757
 23.3991
 23.3334
 21.0039
 21.0853
 21.0519
 21.0898
 20.7589
 20.8041
 20.7574
 20.8069
 23.1005
 23.1133
 23.0873
 23.0458
 21.7686
 21.8464
 22.2006
 22.1896
 22.1551
 22.0966
 20.5751
 20.6092
 20.5071
 20.5618
 20.791
 20.76
 20.6964
 20.8185
 20.6325
 20.7187
 20.7395
 20.7155
 21.6142
 21.6127
 21.544
 21.6145
 22.0282
 22.0264
 22.1007
 22.0167
 22.4909
 22.4217
 22.4249
 22.4826
 22.0209
 22.0303
 22.0277
 21.9191
 20.2408
 20.3098
 20.2374
 20.2895
 21.0007
 21.169
 21.0872
 22.754
 22.7121
 22.67
 20.4828
 20.3645
 20.4309
 20.4367
 20.3884
 20.5335
 20.455
 20.4342
 21.2924
 21.34
 21.3657
 21.2448
 21.2231
 21.1552
 21.2121
 22.0572
 22.1023
 22.1197
 22.1202
 20.0818
 20.1084
 20.0462
 20.0846
 22.2319
 22.2507
 22.2443
 22.2126
 22.2419
 22.2853
 22.2484
 19.3196
 19.2144
 19.1593
 19.2453
 19.9158
 19.864
 21.7222
 21.7503
 21.6852
 21.7117
 21.0728
 20.9945
 21.0774
 21.1997
 21.2406
 21.2201
 21.2841
 22.069
 22.016
 22.0386
 20.1479
 20.0996
 20.1999
 20.1679
 22.0675
 21.9757
 22.0385
 22.0513
 20.3805
 20.4538
 20.4749
 20.43
 22.2005
 22.1609
 21.991
 22.07
 22.0108
 22.0455
 21.78
 21.8154
 21.7989
 21.7718
 22.6479
 22.6646
 22.7278
 22.6923
 20.2592
 20.1702
 21.5713
 21.5279
 21.5215
 21.5271
 19.4337
 19.4709
 19.4435
 19.4175
 21.5865
 21.6181
 21.5239
 21.4766
 20.1105
 20.0316
 20.0066
 19.9991
 19.692
 19.6052
 19.7499
 19.6214
 20.3889
 20.4682
 19.7328
 19.6632
 19.6892
 19.7069
 22.051
 22.0637
 22.0606
 21.9984
 19.7717
 19.736
 19.7237
 19.7777
 19.3449
 19.2333
 19.2396
 19.3213
 20.7113
 20.7052
 20.6397
 20.6589
 21.1418
 21.169
 21.0866
 21.0535
 19.7501
 19.8533
 19.7924
 19.7444
 22.7155
 22.6349
 22.6734
 22.7355
 19.7905
 19.6776
 21.5575
 21.51
 21.5036
 21.4391
 19.8936
 19.9161
 20.0037
 19.9934
 22.0468
 21.9802
 21.9921
 21.9946
 21.3851
 21.4896
 21.455
 21.398
 21.8842
 21.9081
 21.8228
 22.0528
 22.0945
 22.0557
 22.1245
 22.2082
 22.1436
 22.1622
 22.1302
 20.7347
 20.7802
 20.8026
 19.9755
 19.9645
 19.8942
 19.9137
 20.9404
 20.9793
 20.9963
 22.0534
 22.1054
 22.073
 21.0327
 20.9214
 21.0155
 20.9543
 20.6699
 20.6892
 20.6586
 20.5744
 21.2368
 21.1535
 21.1426
 21.1751
 21.3667
 21.4054
 21.4214
 21.4603
 21.497
 21.5003
 21.3664
 21.3364
 21.2878
 21.4052
 19.9087
 19.969
 19.9225
 19.9802
 20.3891
 20.4417
 20.4003
 20.3656
 21.2423
 21.2005
 21.2342
 21.1299
 22.0282
 22.0765
 22.0459
 20.9298
 20.9749
 20.9263
 20.9204
 21.655
 21.7458
 21.7161
 21.7554
 22.9653
 22.9531
 22.9846
 23.0057
 21.474
 21.5112
 21.4945
 21.4998
 19.8485
 19.8585
 19.7873
 19.8132
 21.4809
 21.3908
 21.4383
 21.4814
 22.1625
 22.1669
 22.1356
 22.1078
 22.0599
 22.0965
 22.0882
 21.1698
 21.1557
 21.1677
 20.6328
 21.532
 21.6367
 21.5701
 21.5738
 19.7274
 19.7447
 19.6937
 19.8795
 19.8624
 19.8217
 21.5002
 21.4266
 21.4783
 21.435
 19.2614
 19.2314
 19.2068
 19.1968
 22.0312
 20.8361
 20.9004
 20.8503
 20.8706
 21.9803
 21.9526
 21.962
 21.9429
 19.7291
 19.6958
 19.8149
 19.7341
 20.4892
 20.3744
 20.4246
 20.4628
 20.1997
 20.1563
 20.2428
 20.2287
 22.2101
 22.1839
 22.1497
 22.2072
 21.6663
 21.6057
 21.6717
 21.672
 20.9569
 20.9986
 20.9259
 20.998
 21.5491
 21.6256
 21.5148
 21.5944
 20.5455
 20.5213
 20.4505
 20.4677
 21.9808
 22.0184
 21.9479
 21.9446
 21.694
 21.6489
 21.5932
 21.6347
 20.7577
 20.7502
 20.7652
 20.6698
 19.6285
 19.5261
 19.5864
 19.5338
 22.1488
 22.1471
 22.0734
 22.1143
 22.588
 22.6636
 22.5825
 22.5882
 19.6959
 19.6383
 19.6635
 19.6239
 22.5822
 22.6414
 22.4662
 22.4939
 22.4968
 22.4328
 21.0607
 21.0153
 21.0812
 21.1336
 21.6615
 21.6203
 21.6211
 21.6928
 19.0555
 19.0122
 19.0227
 19.0898
 19.7645
 19.7715
 19.6691
 20.4872
 20.4933
 20.4332
 20.5219
 22.1013
 22.0795
 22.1498
 22.059
 21.7132
 21.7252
 21.7509
 21.783
 21.7405
 21.689
 20.5007
 20.3855
 20.421
 20.4643
 20.5988
 20.5944
 20.6617
 20.5816
 20.3826
 20.3856
 20.4662
 20.3839
 19.3769
 19.3585
 19.5095
 19.3313
 20.2236
 20.2158
 20.2937
 21.4218
 20.9165
 20.928
 20.9025
 20.9625
 20.8842
 20.9631
 20.9432
 20.9363
 20.0371
 20.0873
 20.0888
 20.1314
 20.2535
 20.296
 20.2972
 20.221
 20.7704
 20.8374
 20.831
 21.558
 21.5879
 21.5266
 21.6448
 20.942
 20.8202
 20.898
 20.8726
 21.4958
 21.4545
 21.5318
 23.1632
 23.1621
 23.2006
 23.1302
 19.9824
 19.8681
 19.9095
 19.9062
 20.0089
 19.8808
 19.9514
 23.1419
 20.8728
 20.8525
 20.8813
 20.7886
 20.7963
 20.7753
 22.497
 22.4797
 22.4864
 22.4614
 22.1499
 22.1288
 22.0708
 22.1609
 21.8047
 21.7643
 21.7585
 21.8406
 21.9146
 21.8823
 21.8358
 21.9124
 21.9215
 21.8605
 21.3817
 21.4266
 21.4461
 21.4636
 21.3422
 21.2746
 18.9246
 18.924
 22.0372
 21.9234
 22.0328
 21.9654
 21.209
 21.2291
 21.1917
 21.268
 22.1738
 22.16
 22.2726
 22.2284
 19.9052
 19.8582
 19.9947
 19.9413
 19.9952
 20.0589
 19.9968
 20.0649
 20.5524
 20.5045
 20.4911
 20.5245
 20.9862
 20.9658
 20.8616
 20.913
 21.0097
 21.0559
 22.0433
 20.3383
 20.2568
 20.2796
 20.259
 19.4056
 19.4157
 19.2961
 19.4416
 19.9522
 19.8704
 19.9677
 19.9343
 23.7234
 23.7209
 23.7105
 23.6882
 19.5089
 19.4951
 19.538
 19.532
 21.8307
 21.8272
 21.8947
 21.7924
 21.5644
 21.6417
 21.6108
 21.6673
 20.4828
 20.4729
 20.4275
 20.4202
 20.4826
 20.495
 20.537
 20.5197
 22.0632
 21.9491
 22.0073
 21.9804
 19.624
 19.5808
 19.6315
 19.6202
 19.8972
 19.8429
 19.8694
 19.8188
 20.3085
 20.2927
 20.2399
 20.2397
 19.7311
 19.7869
 19.7675
 19.7299
 21.6707
 21.6011
 21.6026
 21.5719
 22.0802
 22.0577
 22.0454
 22.014
 19.9464
 20.0154
 20.0338
 20.0155
 21.2892
 21.2836
 21.3198
 21.3806
 21.1451
 21.1793
 21.1925
 21.1491
 23.3413
 23.3165
 23.2701
 23.3126
 19.5254
 19.5074
 19.7207
 19.7027
 19.7764
 19.6643
 22.3186
 22.3902
 22.414
 22.3063
 21.6648
 21.7545
 21.7521
 21.7883
 19.8623
 19.9181
 19.838
 19.8088
 21.4344
 21.4095
 21.4505
 21.3758
 21.4582
 21.4358
 21.518
 21.511
 19.4149
 19.3984
 19.4454
 19.4812
 20.9639
 20.9793
 20.9569
 20.9278
 21.125
 21.0998
 21.1212
 21.1686
 20.2192
 20.175
 20.1505
 20.18
 20.5419
 20.5587
 20.5861
 20.6279
 21.3624
 21.3493
 21.442
 21.6576
 21.6018
 21.6402
 21.5448
 22.4394
 22.452
 22.4761
 22.369
 21.5315
 21.4851
 21.4724
 21.4586
 21.0391
 21.084
 21.0421
 21.1028
 19.3168
 19.2941
 19.3096
 19.4103
 21.5446
 21.4209
 21.4866
 21.4862
 22.2677
 22.2647
 22.317
 22.347
 20.3427
 20.2811
 20.3141
 20.3714
 20.6631
 20.6684
 20.7068
 20.9836
 20.8757
 20.8748
 20.8449
 22.4661
 22.4621
 22.4576
 22.4101
 20.8654
 20.9339
 20.9026
 20.9664
 19.6968
 19.6893
 19.684
 19.6734
 20.9481
 20.9264
 20.9275
 20.8754
 22.225
 22.2714
 22.2429
 22.2154
 21.9753
 21.9319
 21.9881
 22.0413
 18.8604
 18.8875
 18.8445
 18.84
 21.6943
 21.6806
 21.6905
 21.7775
 20.6997
 20.8175
 20.7796
 20.7571
 18.9922
 18.9803
 19.0482
 19.0456
 19.7442
 19.6441
 19.6912
 20.3458
 20.3541
 20.2688
 20.2449
 19.8495
 19.8579
 19.7502
 19.8783
 23.0407
 22.9992
 22.9521
 22.9699
 21.8814
 21.8089
 21.903
 19.4828
 19.3855
 19.4024
 19.4007
 20.7444
 20.7611
 20.6829
 20.7807
 20.1344
 20.1495
 20.0609
 20.1959
 22.1172
 22.1247
 22.1786
 22.2144
 21.4552
 21.3811
 21.4718
 21.4108
 20.5209
 20.6333
 20.6026
 22.4479
 22.4226
 22.3832
 22.388
 22.0045
 22.0798
 22.0387
 22.0644
 21.4915
 19.4578
 19.4181
 19.4374
 19.3786
 22.9033
 22.9007
 22.9524
 22.9592
 20.2189
 20.1031
 20.1622
 20.0881
 20.6398
 20.6915
 20.6556
 20.7369
 23.2304
 19.99
 20.054
 19.956
 19.5108
 19.4129
 19.4751
 19.4611
 21.2256
 21.1952
 21.0912
 21.1759
 20.5903
 20.5954
 20.5362
 20.6345
 21.8479
 21.9179
 21.0791
 21.1138
 21.1085
 21.0311
 21.8633
 21.9046
 21.9363
 21.8752
 21.5928
 21.6255
 21.5239
 21.5267
 20.4081
 20.4541
 20.4033
 20.3788
 22.6626
 22.6616
 22.6606
 22.5859
 22.0889
 22.1331
 22.1015
 22.1557
 22.5734
 22.5111
 22.2951
 22.2981
 22.2868
 22.289
 22.3586
 22.4051
 22.3264
 22.3933
 19.4467
 19.4868
 19.5508
 19.5547
 20.7571
 20.7518
 20.7832
 20.6731
 21.4419
 21.3486
 21.4072
 21.4006
 20.907
 20.9333
 20.9498
 20.8826
 19.3969
 19.4019
 22.4813
 22.5201
 22.5116
 22.4776
 19.4046
 19.381
 19.4414
 22.8105
 22.8407
 22.8117
 22.8484
 19.5651
 19.642
 19.5852
 19.6462
 21.5232
 21.5769
 21.5005
 21.5747
 21.2604
 21.2409
 21.2776
 19.4059
 19.4495
 19.4391
 19.392
 20.8232
 20.89
 20.8077
 20.8731
 21.1986
 21.1661
 21.0967
 21.1662
 21.489
 21.531
 21.3383
 21.463
 21.3665
 21.4191
 20.6691
 20.7454
 20.7099
 19.3387
 19.4637
 19.4768
 19.3876
 21.2987
 21.2497
 21.3042
 21.2904
 21.4087
 21.4462
 21.6588
 21.7401
 21.7555
 21.7002
 22.7815
 22.7703
 22.714
 20.8778
 20.8609
 20.953
 20.9575
 19.5102
 19.5048
 19.4944
 22.5536
 22.6107
 22.5513
 21.2292
 21.2875
 21.2492
 21.3153
 20.4858
 20.4903
 20.577
 20.547
 22.9632
 22.9854
 22.9666
 22.9594
 19.9238
 19.9041
 19.9553
 19.9643
 20.438
 20.5026
 20.4914
 20.5094
 19.9293
 19.9053
 19.9569
 19.488
 19.4749
 19.3491
 19.4177
 20.9987
 21.0802
 21.0059
 21.003
 19.7124
 19.7304
 19.7664
 19.7726
 21.556
 21.581
 21.5343
 21.6114
 19.3791
 20.6409
 21.1165
 21.1522
 21.0861
 21.1746
 20.6541
 20.6678
 20.7371
 20.746
 20.2736
 20.2522
 20.2964
 20.3666
 20.6629
 20.6994
 20.6127
 20.6474
 20.1281
 20.1773
 20.1082
 20.1211
 21.1109
 21.1545
 21.1202
 21.062
 21.1968
 21.1687
 21.1565
 21.1267
 21.4304
 21.4428
 21.4705
 21.3832
 21.1265
 21.1295
 21.1937
 22.1737
 22.1578
 22.1759
 22.1233
 21.0691
 20.5079
 20.3986
 20.3935
 20.4632
 19.5375
 19.5326
 19.6245
 21.6002
 21.7027
 21.6564
 21.6896
 20.9596
 20.8704
 20.8903
 20.6126
 20.6111
 20.6777
 20.6745
 20.474
 20.4534
 20.3772
 20.3639
 19.8076
 19.7672
 19.7182
 19.7787
 21.8914
 21.9055
 21.8599
 21.9668
 20.8706
 20.927
 20.9469
 20.964
 21.1523
 21.2026
 21.2437
 21.1732
 21.239
 21.2919
 21.2954
 21.3449
 21.0968
 21.1277
 21.0862
 21.1603
 20.2446
 20.3649
 20.2266
 20.3102
 21.2148
 21.3297
 21.2859
 21.2751
 22.5002
 22.4989
 22.5004
 22.4701
 22.5145
 22.467
 22.4713
 21.0899
 21.0805
 21.0171
 21.0116
 21.0621
 21.0146
 20.9972
 20.9811
 21.1488
 21.212
 21.1097
 21.1065
 19.5869
 19.583
 19.6787
 19.6704
 20.2439
 20.3225
 20.3205
 20.2365
 21.7197
 21.678
 21.6847
 21.6675
 22.0914
 22.0186
 22.0248
 22.1186
 19.8955
 19.9115
 19.9564
 19.891
 22.8817
 22.9101
 22.8955
 22.8372
 21.4644
 21.3944
 21.4341
 21.4434
 22.2542
 22.2081
 22.2143
 21.9364
 21.8842
 21.8818
 21.8381
 20.3832
 20.4145
 20.3548
 20.4628
 21.8702
 21.9738
 21.9313
 21.9089
 22.471
 22.3437
 22.4297
 22.9621
 22.8983
 22.8612
 22.8778
 19.3176
 19.2915
 19.2395
 19.179
 21.8317
 21.8771
 21.8384
 21.8147
 20.7239
 20.8247
 20.8086
 20.7397
 19.6689
 19.7261
 19.7847
 19.7352
 20.0896
 19.9836
 20.1259
 20.0585
 21.7593
 21.7531
 21.7975
 21.7676
 22.2908
 22.3583
 22.4122
 22.3423
 20.9129
 20.8656
 20.936
 20.8946
 22.2633
 22.1746
 21.3591
 21.4645
 21.4477
 21.3867
 21.2467
 21.2528
 21.2942
 21.224
 21.3273
 21.3204
 21.356
 22.1322
 22.1062
 22.1312
 20.6797
 20.6777
 20.6565
 20.6326
 20.8158
 20.8239
 20.8812
 20.757
 21.7579
 21.6761
 21.7113
 21.7526
 20.2257
 20.1384
 20.2542
 20.2118
 21.1085
 21.1966
 21.1493
 21.0799
 22.2464
 22.2473
 22.2637
 22.2492
 21.5211
 21.4808
 21.5234
 20.7964
 20.7954
 20.8639
 20.7964
 21.0351
 20.9974
 20.9453
 19.312
 19.359
 19.3693
 19.3944
 22.6012
 22.6283
 22.5963
 22.6836
 21.5914
 21.5154
 21.5284
 21.5723
 21.6137
 21.6318
 21.6916
 21.6141
 19.2316
 19.2649
 19.1658
 19.0966
 20.2182
 20.1727
 20.1818
 21.8621
 21.8873
 21.9072
 21.8812
 20.0539
 20.145
 20.105
 21.8262
 21.8245
 21.8747
 21.8596
 23.4205
 23.375
 23.4219
 23.3829
 19.6919
 19.6627
 19.6158
 19.7108
 22.1208
 22.14
 22.1711
 22.2348
 19.4665
 19.5046
 19.5173
 19.4942
 21.9536
 21.8653
 21.9284
 21.8986
 23.4132
 23.4847
 23.4184
 23.4245
 22.4002
 22.4794
 22.4205
 22.3751
 22.1051
 22.0468
 22.0075
 22.1161
 21.0845
 21.1913
 22.0899
 22.0829
 22.1872
 22.1702
 20.7336
 20.7699
 20.7953
 20.8347
 21.1866
 21.1852
 21.2355
 21.137
 19.731
 19.8285
 19.6617
 19.6461
 19.8834
 19.937
 19.8872
 19.8416
 20.0615
 20.0964
 20.066
 20.1372
 19.8492
 19.8361
 19.8151
 19.87
 20.4499
 20.4778
 20.4047
 20.4625
 20.0253
 19.9426
 19.9693
 20.0109
 22.5342
 22.6187
 22.6315
 22.5239
 19.7329
 19.6913
 19.709
 19.7223
 21.3955
 21.4536
 21.4777
 21.4453
 20.1998
 20.3209
 20.283
 19.8765
 19.8027
 19.81
 19.8479
 22.0826
 22.157
 22.1651
 22.1365
 22.4454
 22.4721
 22.5112
 22.4894
 20.299
 20.3143
 20.3635
 20.2437
 21.2588
 21.2714
 21.2939
 21.3293
 20.4799
 20.5368
 20.4834
 20.4853
 20.4834
 20.4814
 20.3483
 21.4627
 21.4834
 21.5463
 20.5179
 20.4958
 20.905
 21.0056
 19.3342
 19.2919
 19.2891
 19.3281
 20.9667
 20.9309
 20.9701
 20.889
 20.5054
 20.5478
 20.4482
 20.5427
 20.8192
 20.7761
 20.8017
 20.7389
 20.05
 20.051
 20.0105
 20.0586
 20.0635
 21.3062
 21.3027
 21.374
 21.3774
 22.2543
 22.2545
 22.2525
 22.2446
 20.481
 20.5605
 20.483
 20.5289
 20.4881
 20.5493
 20.5592
 20.484
 23.2713
 23.235
 23.2085
 23.1586
 21.0929
 21.0349
 21.0643
 21.1051
 21.1032
 21.1663
 21.1907
 21.1274
 20.5694
 20.6244
 22.1202
 22.1002
 22.0685
 22.1104
 21.6083
 21.5663
 21.5946
 21.6369
 22.0074
 22.0393
 22.0688
 22.0605
 21.6767
 21.6266
 21.637
 21.6892
 21.983
 21.9882
 22.0199
 21.9706
 20.2161
 20.2436
 20.2119
 20.1648
 19.7311
 19.7308
 19.8103
 19.7608
 21.7993
 21.8281
 21.8681
 21.7883
 21.1034
 21.1794
 21.1163
 21.1329
 20.0572
 20.1551
 20.0914
 20.1374
 21.3979
 21.4253
 21.4307
 21.3504
 21.8011
 21.7535
 22.3726
 22.3421
 22.3231
 22.3785
 21.2683
 21.2921
 21.3162
 21.3547
 19.9767
 20.0149
 20.018
 19.9233
 19.5744
 19.628
 19.6148
 19.5574
 23.0836
 23.0747
 21.3515
 21.2955
 21.2645
 21.257
 21.4472
 21.55
 21.4833
 21.483
 21.5496
 21.5787
 21.9362
 21.8951
 21.9093
 21.8691
 21.206
 21.1342
 21.1119
 22.515
 22.4739
 22.4705
 22.4361
 19.8174
 19.7579
 19.8656
 19.8106
 19.6449
 19.6437
 19.6382
 19.2701
 19.3385
 19.4016
 19.3497
 20.8662
 20.7515
 20.8028
 20.7811
 21.0944
 21.0081
 21.1334
 21.056
 20.1807
 20.0723
 20.0306
 20.0986
 20.5449
 20.5479
 20.4797
 20.5445
 20.6924
 20.6204
 20.6534
 20.9968
 20.9829
 21.0232
 20.9384
 20.3872
 20.2558
 20.301
 20.374
 21.3452
 21.3698
 21.3294
 21.3209
 21.0396
 21.0586
 20.9858
 21.09
 20.5769
 20.5932
 20.6265
 20.5504
 21.0951
 21.1522
 21.1743
 21.0908
 23.3844
 23.4044
 23.3455
 23.3447
 21.9005
 21.9293
 21.9253
 21.9765
 20.3899
 20.3831
 20.3095
 20.301
 21.8916
 21.8736
 21.9556
 21.982
 22.0828
 22.1736
 22.0793
 22.0247
 19.8913
 19.8976
 19.8445
 19.9491
 19.952
 20.0296
 19.9591
 19.9732
 19.7088
 19.7812
 19.6999
 19.6931
 20.1761
 20.1816
 20.1136
 20.137
 21.4168
 21.4136
 21.4709
 21.413
 21.9162
 21.9403
 21.883
 21.9475
 20.4958
 20.6055
 20.4945
 20.578
 21.8814
 21.861
 21.8498
 21.8557
 22.3771
 22.3571
 22.3404
 22.3021
 21.1809
 21.1254
 21.1676
 21.1118
 21.5398
 21.5843
 21.6361
 21.4836
 21.4666
 21.3825
 21.457
 22.2829
 22.3206
 22.3842
 22.3254
 21.8104
 21.8204
 21.853
 21.8302
 20.464
 20.4162
 20.4551
 20.4133
 21.0264
 20.962
 20.9548
 19.2865
 19.3677
 19.3695
 19.312
 19.5716
 19.5049
 19.4549
 19.5278
 21.5709
 21.5213
 21.5986
 21.5198
 20.8217
 20.7692
 22.146
 22.1487
 22.2197
 22.1241
 21.0024
 21.058
 21.1061
 21.0527
 19.6708
 19.6515
 19.7274
 19.6652
 21.8756
 21.8627
 21.8298
 21.3781
 21.375
 21.3482
 21.4375
 21.5174
 21.4142
 21.4354
 21.4618
 21.1364
 21.062
 21.0554
 21.156
 21.1682
 21.1286
 21.0808
 21.1387
 20.945
 20.8968
 20.947
 20.8857
 21.2458
 21.1949
 20.1171
 20.1422
 20.018
 20.1221
 21.1823
 21.2539
 21.2281
 21.185
 20.6724
 20.7822
 20.7476
 21.2171
 21.1502
 21.1904
 21.1533
 20.7418
 20.7764
 20.8131
 20.757
 21.9093
 21.9779
 21.9258
 22.0107
 21.3334
 21.3451
 21.269
 20.8562
 20.8536
 20.7529
 20.8988
 21.2206
 21.2283
 21.1781
 22.0093
 21.9855
 22.0521
 20.6464
 20.6523
 20.6505
 20.7288
 21.0747
 21.0223
 21.0174
 23.1201
 23.1069
 23.0754
 23.1832
 20.5562
 20.6068
 20.6405
 20.5552
 21.4811
 21.5681
 21.5585
 21.5736
 20.108
 20.1152
 20.0888
 20.0262
 19.9789
 20.0305
 19.943
 19.9548
 22.0576
 21.9667
 22.0723
 22.0578
 20.9215
 20.9818
 21.0113
 21.6331
 21.7108
 21.6614
 21.6599
 19.8193
 19.9353
 19.8755
 21.0682
 21.0128
 21.054
 20.9813
 20.4979
 20.4717
 20.4717
 20.4773
 19.7744
 19.7282
 19.7258
 19.7853
 23.6043
 23.663
 23.6464
 23.6038
 21.7447
 21.7342
 21.6915
 21.7486
 20.8879
 20.7679
 20.8116
 20.7862
 22.3632
 22.4234
 22.4276
 21.0586
 20.9948
 21.0182
 21.0705
 19.59
 20.5727
 20.6152
 20.7154
 20.6415
 20.037
 20.039
 20.0147
 19.9874
 20.2202
 20.2711
 20.2831
 20.2392
 20.8941
 20.9233
 20.9904
 21.0749
 21.0795
 21.0683
 22.9541
 22.8983
 22.9468
 22.9102
 21.6325
 21.6636
 21.6907
 21.7314
 21.7187
 21.6696
 21.717
 19.6358
 19.475
 19.6434
 19.6428
 21.141
 21.1492
 21.0615
 21.0713
 20.8318
 20.8618
 20.9175
 20.8691
 19.9143
 19.9543
 19.88
 19.962
 21.0423
 21.0593
 20.9871
 21.0675
 22.5675
 22.5325
 22.5961
 22.5749
 21.2166
 21.244
 21.2065
 21.2331
 21.7609
 21.7592
 21.7489
 21.7032
 21.9077
 21.9592
 21.9403
 21.9168
 22.3038
 22.279
 22.3077
 22.3042
 22.677
 22.708
 22.7154
 22.6344
 19.2205
 19.3094
 19.2711
 19.2895
 22.8564
 22.8304
 22.8853
 22.782
 21.1515
 21.1933
 21.1431
 21.2114
 19.3116
 19.3348
 19.3758
 19.3705
 21.4313
 21.4371
 21.3988
 21.3708
 22.258
 19.7644
 19.8115
 19.7943
 19.7254
 21.9564
 22.5947
 22.5222
 22.5043
 22.5677
 20.798
 20.7154
 20.1834
 20.2787
 20.1858
 20.2719
 19.9067
 19.9211
 19.869
 19.8776
 19.1822
 19.2688
 19.1841
 20.1651
 20.0804
 20.0797
 20.0791
 21.3659
 19.4751
 20.5026
 20.5367
 20.5572
 19.6583
 19.6029
 19.5858
 19.6263
 21.4089
 21.4056
 21.4155
 21.4575
 21.7384
 21.7267
 21.7609
 21.8056
 20.4999
 20.55
 20.5328
 20.4278
 19.5329
 19.4598
 19.5481
 19.5395
 19.8712
 19.8941
 19.8445
 19.8988
 20.6801
 20.574
 20.5863
 22.6705
 22.7083
 22.5904
 22.6621
 23.5522
 23.4868
 23.5239
 23.4822
 22.2383
 22.3236
 22.3269
 22.2846
 20.9162
 20.8575
 20.9348
 22.4814
 22.4179
 22.4436
 22.4998
 20.0254
 20.0474
 19.9607
 20.1422
 20.1133
 20.1692
 20.1393
 21.9054
 21.9347
 20.4221
 20.3285
 18.9959
 19.0737
 18.9844
 19.2748
 19.2536
 19.2628
 19.2205
 21.2628
 21.3265
 21.2255
 21.2748
 21.6511
 21.6647
 21.6988
 21.623
 21.2129
 21.2211
 21.1538
 21.1555
 19.5017
 19.5042
 19.4884
 19.5099
 20.4489
 20.4219
 20.4447
 20.4908
 22.2801
 22.2819
 22.2823
 22.2226
 20.4098
 20.3929
 20.4439
 20.3582
 20.8927
 20.8713
 20.936
 20.861
 20.5213
 20.4609
 20.4753
 23.7573
 23.7358
 23.7264
 21.6281
 21.6647
 21.3958
 21.395
 21.4567
 21.3645
 20.3001
 20.225
 20.2747
 20.2962
 20.4012
 20.3655
 20.2761
 20.3678
 20.3589
 20.3978
 20.2813
 23.0409
 23.0471
 22.3456
 22.3512
 22.3084
 22.3398
 20.8602
 23.0967
 23.1569
 23.1297
 23.1237
 21.7818
 21.7001
 21.7685
 21.7778
 21.3341
 21.3594
 22.6584
 22.552
 22.5591
 22.6131
 19.2034
 19.103
 19.1579
 19.185
 19.4927
 19.4781
 19.5183
 19.4008
 22.0085
 21.892
 21.9748
 21.9117
 21.6559
 21.6998
 21.565
 21.5997
 21.6324
 21.6795
 21.6347
 20.3063
 20.274
 20.3649
 20.3028
 22.2509
 22.2118
 22.1809
 22.167
 21.146
 21.1052
 21.1569
 20.6908
 20.6849
 20.6441
 20.5927
 21.6725
 21.6609
 21.61
 21.6441
 21.8744
 21.8028
 21.7647
 21.8342
 21.9032
 21.9532
 21.9415
 21.8858
 21.429
 21.3892
 21.3476
 21.4105
 20.5661
 20.6199
 21.7682
 21.7507
 21.7262
 21.7861
 19.2266
 19.3564
 19.3422
 19.3331
 21.9927
 21.957
 21.993
 21.9481
 22.5211
 22.5394
 22.4589
 22.5026
 20.8482
 20.8125
 22.85
 22.8243
 22.8947
 22.8113
 21.5247
 21.497
 21.5558
 19.6713
 19.7082
 19.6452
 19.6368
 22.765
 22.7839
 22.7669
 21.9121
 21.9134
 21.8492
 21.8712
 22.6065
 21.9432
 21.9695
 21.9632
 22.0336
 21.0526
 21.0961
 21.0458
 21.0617
 21.303
 21.2871
 21.2495
 21.3083
 19.5625
 19.465
 20.9888
 20.9591
 20.9769
 20.9937
 21.9617
 22.0411
 21.9502
 22.046
 21.5994
 21.4598
 21.5313
 21.598
 19.7612
 19.8233
 19.8141
 19.8197
 21.3343
 21.314
 21.2416
 21.2599
 20.8659
 19.9649
 19.9108
 19.9804
 21.5726
 21.5567
 21.622
 21.526
 20.4462
 20.4659
 20.424
 20.5228
 21.4555
 21.498
 21.5045
 21.4206
 19.5405
 19.6298
 19.6374
 19.5985
 19.01
 18.9618
 19.0454
 21.9137
 21.8616
 21.7971
 21.8449
 20.7214
 20.6721
 20.7647
 20.7374
 20.4415
 20.4236
 20.3709
 20.337
 21.6411
 21.6433
 21.8759
 21.9158
 21.9362
 21.8598
 21.4554
 21.3499
 20.7119
 20.6908
 20.7252
 20.7507
 20.5744
 20.5445
 20.4932
 20.5809
 21.3567
 21.339
 21.2757
 21.304
 20.7815
 20.774
 20.7694
 19.8167
 19.9145
 19.934
 19.8938
 20.1785
 20.2007
 20.1543
 21.3774
 21.2627
 21.3646
 21.3171
 21.8051
 21.8871
 21.93
 21.8421
 20.4483
 20.5263
 20.5279
 20.4675
 21.3154
 21.3224
 21.3938
 22.2836
 22.2949
 22.2801
 22.2942
 21.6633
 21.675
 21.6397
 21.615
 20.1459
 20.139
 20.2147
 19.258
 19.3565
 19.3551
 20.518
 20.481
 20.4801
 21.6681
 21.7337
 21.6449
 21.7125
 19.3973
 19.4014
 19.4089
 19.3526
 20.6454
 20.6811
 20.6376
 20.5856
 20.0285
 19.9926
 19.8802
 19.9076
 20.1529
 20.1191
 20.1601
 20.1523
 22.4514
 22.4879
 22.5003
 21.4053
 21.3886
 21.437
 21.3807
 20.0969
 20.0492
 20.1263
 20.1249
 21.2371
 21.2025
 21.191
 21.1169
 20.3816
 20.3796
 20.4006
 20.4823
 19.6106
 19.5645
 22.2934
 22.246
 22.2529
 22.2199
 20.2562
 20.2953
 20.2031
 20.2782
 21.4406
 21.4783
 21.497
 21.4241
 20.5307
 20.6045
 19.4314
 19.4342
 19.4928
 19.3898
 20.0304
 19.9413
 20.0572
 19.8911
 19.307
 19.3119
 19.2415
 19.1814
 20.3331
 20.3544
 20.3118
 20.5073
 20.4079
 20.4352
 20.454
 20.3885
 20.448
 20.4285
 20.5023
 21.7753
 21.7565
 21.823
 21.8413
 22.5842
 22.6214
 22.5404
 21.0893
 21.0718
 21.0763
 19.8503
 19.9172
 19.8711
 19.9416
 21.3432
 21.2968
 21.239
 21.2925
 21.996
 22.0711
 22.0538
 21.992
 21.0769
 21.1499
 21.1781
 21.1858
 21.462
 21.3677
 21.4534
 19.4564
 19.42
 19.5175
 19.51
 22.2247
 22.1986
 22.0797
 22.0404
 22.0338
 20.4147
 20.3889
 20.4587
 20.3463
 21.1674
 21.1029
 21.0832
 21.1371
 22.1001
 22.0895
 22.0302
 22.0881
 20.8367
 20.954
 20.9551
 20.8688
 21.57
 21.6167
 21.5329
 21.5363
 19.7793
 19.7656
 19.6607
 21.6658
 21.6839
 21.6191
 21.6251
 20.8629
 20.8152
 22.1206
 22.0346
 22.0538
 22.1082
 22.0219
 22.0792
 22.0506
 22.0776
 19.6566
 19.7123
 21.9061
 21.8484
 21.8792
 21.9303
 21.0607
 21.1334
 21.0908
 21.0638
 21.4827
 22.5324
 22.5873
 22.5702
 20.8302
 20.8342
 20.8077
 20.8776
 19.6771
 19.6682
 19.7247
 19.6357
 22.4019
 22.4043
 22.3648
 22.4209
 22.0347
 21.9791
 22.0501
 22.0376
 20.4531
 20.4124
 20.4088
 22.3323
 22.3186
 22.2868
 22.2662
 19.2591
 19.3524
 19.2847
 19.2458
 22.274
 22.2254
 22.2087
 22.3031
 20.5946
 20.6706
 20.6118
 20.533
 21.4625
 21.425
 21.4366
 21.4843
 22.0683
 22.0442
 22.0561
 21.5241
 21.445
 21.5334
 21.4673
 22.1598
 22.232
 22.1878
 22.1861
 21.9615
 22.0057
 21.9686
 20.2616
 20.3195
 20.2407
 20.2705
 20.3459
 21.1608
 21.0137
 21.1047
 21.103
 19.64
 19.6783
 19.7141
 19.6796
 20.8355
 20.7632
 20.8793
 20.7926
 20.5469
 20.4925
 20.5464
 20.5721
 22.0544
 22.0854
 22.0082
 21.8994
 21.9161
 20.697
 20.7811
 20.7189
 20.6874
 19.6935
 19.5891
 20.9243
 20.9043
 20.9671
 20.8859
 22.1459
 22.1638
 22.0995
 19.8258
 19.8005
 19.8627
 19.8344
 20.9619
 21.0483
 21.0269
 21.0073
 22.0871
 22.128
 22.0884
 22.0597
 21.133
 21.1458
 21.0478
 21.1129
 20.6319
 20.5144
 22.3989
 22.4326
 22.4122
 22.4562
 21.9124
 21.8094
 21.7544
 21.7942
 21.7391
 21.7536
 21.7567
 21.8361
 21.8019
 21.762
 21.0319
 21.0214
 21.043
 20.6694
 20.7007
 20.7246
 20.7588
 21.8435
 21.8497
 21.8348
 21.8505
 21.4654
 21.4704
 20.8353
 20.8951
 20.8807
 20.9358
 20.8674
 20.8553
 21.1803
 21.0951
 21.0873
 21.1555
 22.8095
 22.7405
 22.7533
 22.7157
 20.8682
 22.1639
 22.0943
 22.1435
 22.1571
 19.4677
 19.4091
 19.4831
 20.3137
 20.3502
 20.3816
 20.3039
 21.1435
 21.0967
 21.1228
 21.2252
 21.0431
 20.9828
 21.0627
 21.9427
 21.8907
 21.9215
 21.959
 19.7066
 19.649
 19.7945
 19.688
 20.6522
 20.6746
 20.6083
 20.6257
 19.733
 19.7148
 19.8207
 19.7659
 22.1835
 22.1703
 22.2384
 22.2346
 21.789
 21.7375
 20.3026
 20.334
 20.3735
 20.3312
 19.6353
 19.6321
 19.6215
 19.6654
 19.0456
 19.0115
 19.0686
 18.971
 19.7193
 19.7713
 19.7026
 20.6451
 20.6043
 20.67
 20.6305
 19.8807
 19.8521
 19.8041
 19.8411
 22.2657
 22.2026
 22.1602
 22.2175
 20.0037
 19.9647
 19.9436
 20.6623
 20.6828
 20.6999
 20.6954
 22.1691
 22.2046
 22.1692
 22.2223
 20.4562
 20.3753
 20.4302
 20.4219
 20.7758
 20.7229
 20.7036
 20.7608
 21.6728
 21.6298
 21.6172
 21.5624
 22.3054
 22.2937
 22.3754
 22.3692
 21.2707
 21.2465
 21.1894
 21.2562
 22.9424
 22.9133
 22.8449
 22.8691
 22.0022
 21.9621
 22.0115
 21.859
 21.9295
 21.9264
 21.9403
 23.1923
 23.1536
 23.2328
 23.1667
 19.873
 19.9326
 19.9294
 20.1025
 20.0965
 20.0347
 20.0513
 21.8118
 21.709
 21.7408
 22.566
 22.5588
 22.5864
 22.2576
 22.3287
 22.2569
 22.257
 21.7636
 21.7741
 21.7161
 21.8218
 20.6117
 20.5279
 20.5817
 20.5908
 22.7907
 22.7798
 22.7246
 22.7953
 20.7452
 20.8521
 20.8683
 20.7843
 20.0978
 20.0347
 20.1497
 20.0941
 20.9001
 20.8974
 20.7983
 20.8264
 21.3281
 21.3683
 21.2688
 22.1225
 22.1274
 22.1263
 22.0797
 19.7121
 19.6444
 19.6295
 19.6419
 20.031
 19.9846
 20.0327
 20.0716
 21.7031
 21.6488
 21.6823
 21.7364
 19.5156
 19.4745
 19.4435
 19.7041
 19.5967
 19.6903
 19.6645
 19.6236
 19.5967
 19.6716
 19.6428
 22.7323
 22.7487
 23.1834
 23.1752
 23.2164
 23.1301
 20.6265
 20.6572
 20.7033
 21.1215
 21.1728
 21.0658
 21.153
 21.0509
 20.9781
 21.0032
 21.0413
 23.6967
 21.3502
 20.7122
 20.6455
 20.084
 20.0326
 20.0649
 20.0523
 22.5768
 21.4941
 21.4314
 21.4956
 18.9509
 19.0068
 19.0047
 19.0024
 21.0124
 21.0655
 21.0165
 20.9602
 19.4109
 19.4683
 19.428
 19.4856
 21.3186
 21.2428
 21.3634
 21.5093
 21.4359
 21.4797
 19.9181
 19.8799
 19.9746
 19.9105
 20.7659
 20.7921
 20.8413
 20.8873
 22.2507
 22.3024
 22.203
 22.2258
 20.014
 19.8889
 19.9363
 19.4953
 19.3829
 19.382
 19.4921
 20.061
 20.0728
 20.1421
 20.0582
 21.8209
 21.8342
 21.7245
 21.8398
 21.6614
 21.7099
 21.7
 21.7093
 19.8301
 19.7694
 19.7756
 19.7641
 21.3594
 21.3775
 21.4309
 20.2361
 20.2204
 20.2594
 20.2946
 22.0974
 22.0378
 22.1334
 22.1301
 20.6937
 20.6653
 20.7521
 20.7165
 22.1797
 22.1329
 22.1733
 22.1692
 20.8887
 20.8181
 20.8719
 20.855
 20.1511
 20.1292
 20.0633
 20.2155
 22.3194
 22.3394
 22.2856
 20.9403
 20.8811
 20.0002
 20.0446
 20.0434
 20.0921
 21.3575
 21.3972
 21.405
 22.2126
 22.2728
 22.2927
 22.2609
 20.5253
 20.4958
 20.5407
 20.4719
 20.6224
 20.6366
 20.5243
 20.6067
 23.4526
 23.4609
 23.3956
 23.4275
 21.1038
 21.1729
 21.1257
 23.0581
 23.0065
 22.9924
 21.004
 21.0066
 21.0486
 21.0317
 21.1075
 22.1594
 22.1567
 22.2505
 22.2284
 21.2816
 21.2282
 21.1935
 20.0694
 20.0758
 20.0787
 20.1071
 21.1884
 21.1528
 21.119
 21.1204
 21.1293
 21.1552
 21.1707
 19.0593
 19.1076
 19.1258
 19.1914
 21.8603
 21.7299
 21.7644
 21.8115
 22.3955
 22.3912
 22.3616
 22.3717
 21.5227
 21.5486
 21.44
 21.5098
 19.881
 19.8336
 19.8311
 19.9322
 23.4967
 23.4384
 23.476
 23.398
 20.3079
 20.3847
 20.3274
 20.3201
 22.3678
 22.4199
 22.3964
 22.403
 20.0102
 20.1629
 20.1335
 20.0674
 20.1406
 20.1904
 20.226
 20.1702
 20.2927
 20.2505
 21.8196
 21.8583
 21.863
 21.8269
 19.7248
 19.7344
 19.7318
 20.2417
 20.3529
 20.2998
 20.2222
 21.9138
 21.8411
 21.8883
 21.9566
 21.5072
 21.5363
 21.4486
 23.7638
 23.7628
 23.7883
 23.763
 21.0976
 21.2065
 21.1081
 19.7629
 19.7064
 19.7587
 19.7832
 20.0858
 20.135
 19.7828
 19.7135
 19.6518
 19.7659
 20.3235
 20.3149
 22.4032
 22.3623
 22.4548
 22.3231
 20.1834
 20.2044
 20.1921
 20.2803
 20.9893
 20.9449
 21.5827
 21.5277
 21.541
 21.5724
 20.2219
 20.1909
 20.1492
 20.1893
 21.7689
 21.8806
 21.8762
 21.7917
 19.7869
 19.8007
 19.7319
 19.6126
 20.7459
 20.7244
 20.8093
 22.5387
 22.5734
 22.5801
 22.5332
 20.6295
 20.651
 20.6852
 20.7197
 21.8468
 21.9087
 21.9368
 21.9618
 21.8067
 21.8817
 21.8284
 23.552
 23.5533
 23.5616
 23.5205
 22.2966
 22.1911
 22.1669
 22.264
 20.0471
 20.0932
 20.0196
 20.0944
 21.1745
 21.1583
 21.2211
 21.4374
 22.0934
 22.0573
 22.0819
 22.0325
 21.4306
 21.4826
 21.4402
 21.4177
 20.4314
 20.335
 20.3207
 20.4067
 22.1041
 22.104
 21.9873
 22.5986
 20.7667
 20.7346
 20.8157
 20.7037
 22.0694
 21.9716
 23.1001
 23.1503
 22.0729
 22.0225
 22.0757
 22.1568
 20.3685
 20.3086
 19.9898
 19.9922
 19.9562
 20.0051
 21.6161
 21.5593
 21.5411
 21.5647
 19.5413
 19.5254
 19.4558
 19.5302
 21.5491
 21.544
 21.68
 21.666
 20.2577
 20.2483
 20.2784
 20.3786
 21.9144
 21.9106
 21.878
 21.8726
 20.1564
 20.1098
 20.1995
 20.1411
 21.3138
 21.2626
 19.6451
 19.6849
 20.5535
 20.5052
 20.5756
 20.4895
 20.5288
 20.5582
 20.5551
 20.4805
 20.9096
 20.9542
 20.8897
 20.8849
 20.1516
 20.2498
 20.1581
 20.085
 21.9345
 22.0025
 21.9615
 21.965
 19.6922
 19.7195
 19.7377
 19.5651
 19.5493
 19.6281
 19.5743
 22.1486
 22.0699
 22.0696
 22.1018
 20.346
 20.4377
 20.4238
 20.3911
 22.1379
 22.0831
 22.0766
 22.0195
 21.0336
 21.1797
 21.0838
 21.0825
 21.1807
 19.9913
 19.9799
 19.9755
 20.0632
 22.9383
 22.9853
 22.9466
 22.8947
 20.3936
 20.3483
 20.294
 20.3591
 21.0438
 20.9751
 21.1077
 21.0536
 20.4144
 20.4679
 20.4766
 20.4768
 20.5151
 19.097
 19.154
 19.2608
 19.1997
 20.1254
 20.1253
 20.2387
 20.2049
 23.0633
 23.0236
 22.9772
 23.0727
 21.3429
 21.4194
 21.4506
 21.3823
 21.6773
 20.9648
 20.9859
 20.96
 20.903
 19.7804
 19.7828
 19.8518
 19.8945
 20.0083
 20.0049
 19.9381
 19.7833
 19.9502
 19.8675
 19.9044
 23.4586
 23.4232
 20.2315
 20.2283
 20.2107
 21.7082
 21.7139
 21.7297
 21.6514
 20.3095
 20.3445
 20.2886
 20.3533
 20.9001
 20.4944
 20.5612
 20.4873
 20.5167
 19.5617
 19.684
 19.6529
 19.5686
 20.4948
 20.4442
 20.3449
 20.4775
 21.372
 21.3496
 21.4431
 21.2989
 22.1829
 22.1687
 22.2068
 22.1526
 19.2137
 19.3157
 19.1817
 19.2236
 20.3512
 20.385
 20.3176
 20.4069
 19.3325
 19.3734
 19.3522
 19.2794
 21.7053
 21.8022
 21.7047
 21.6924
 20.8961
 20.933
 19.6172
 19.514
 19.6293
 19.5701
 20.9053
 20.8811
 20.8814
 20.8154
 21.1641
 21.083
 20.9825
 20.9254
 20.8969
 20.9775
 19.9635
 19.9846
 20.0069
 19.9312
 21.5534
 21.638
 21.6775
 21.6015
 22.4113
 22.3539
 22.3965
 22.3948
 22.2554
 22.2796
 22.2848
 22.2804
 21.6354
 21.6029
 21.6002
 21.6674
 21.2878
 21.385
 21.3152
 21.2663
 21.3731
 21.325
 21.2909
 21.0428
 21.0969
 21.1152
 21.0651
 22.4534
 22.4822
 22.4479
 21.4488
 21.4733
 21.3926
 21.4046
 20.9436
 20.8891
 20.8897
 20.9734
 21.7873
 21.8479
 21.7491
 21.8575
 21.6648
 21.6055
 21.622
 21.627
 20.8127
 20.8081
 20.754
 20.7056
 21.1592
 21.2177
 21.1668
 21.1887
 20.4629
 20.4925
 20.4484
 20.4717
 22.2762
 22.2589
 22.234
 20.0689
 20.1015
 20.0139
 20.0981
 21.7844
 21.7189
 21.7578
 21.81
 21.3326
 21.379
 21.4068
 21.3122
 21.1843
 21.1266
 21.1039
 20.6598
 20.6695
 20.6411
 20.5849
 20.5351
 20.5216
 20.4784
 20.5597
 20.4072
 20.3996
 20.3317
 19.9433
 19.9039
 19.9225
 20.5957
 20.629
 20.6772
 20.6129
 19.8254
 19.7845
 19.8792
 19.7145
 19.7107
 19.7337
 19.8015
 21.1349
 21.2662
 21.1971
 21.2223
 21.6597
 21.7122
 21.6536
 21.7081
 21.9829
 19.9114
 19.9515
 19.8337
 19.8985
 19.8398
 19.9757
 23.5944
 23.6303
 23.59
 23.5704
 20.2259
 20.2877
 21.284
 21.3724
 21.2878
 19.3185
 19.2285
 20.656
 20.7627
 20.7335
 20.7179
 21.3362
 21.3009
 21.2985
 20.2211
 20.0872
 20.176
 20.1233
 21.6962
 21.6783
 21.7281
 21.6572
 23.1775
 23.1208
 23.1347
 23.1921
 20.7784
 20.7652
 20.8018
 20.706
 19.958
 19.8312
 19.9621
 20.1429
 20.1419
 20.1262
 20.1922
 21.8256
 21.9298
 21.9003
 21.9708
 21.8528
 21.7915
 22.0632
 22.0102
 22.0841
 19.2667
 19.3182
 19.9565
 20.0316
 19.946
 20.052
 20.9529
 20.8448
 20.8622
 20.2928
 20.377
 20.2401
 20.2305
 21.7918
 21.8901
 21.8717
 21.8227
 21.0604
 21.0661
 21.0039
 20.9884
 21.1128
 21.0589
 21.0564
 21.1155
 21.9142
 21.8769
 21.8939
 21.7951
 21.8293
 21.8052
 21.8112
 18.9918
 18.8999
 18.9659
 18.8603
 22.3324
 22.4174
 19.7481
 19.731
 19.7379
 19.792
 21.3165
 21.25
 21.2793
 21.3104
 20.9522
 20.9041
 20.9013
 20.9017
 22.2837
 22.2224
 20.9756
 21.0251
 21.0284
 21.069
 21.3013
 21.3235
 21.3459
 21.2769
 20.0468
 20.0675
 20.0937
 20.0522
 21.167
 21.1222
 21.1054
 21.2083
 21.7375
 21.7371
 20.704
 20.7029
 20.7408
 20.6805
 20.366
 20.4008
 20.3375
 20.9471
 20.8748
 20.8958
 20.8634
 22.0191
 21.9873
 22.0348
 21.9449
 23.2973
 23.2388
 23.2469
 23.302
 21.1558
 21.2005
 21.1536
 21.0686
 20.8601
 20.7621
 20.8333
 20.8585
 21.3663
 21.329
 21.4079
 21.3912
 21.5779
 21.6214
 21.5722
 21.5371
 20.0154
 19.9312
 20.6749
 20.7082
 20.7345
 22.8095
 22.8371
 22.8741
 22.8052
 21.9017
 21.9572
 21.8591
 21.9788
 20.9744
 20.9466
 20.9953
 21.0178
 20.0362
 20.0061
 20.0008
 21.2724
 21.2961
 21.3809
 21.3856
 21.7713
 21.6758
 21.711
 21.7766
 20.2671
 20.3507
 20.3591
 20.3021
 20.6629
 20.6863
 20.7125
 20.7057
 20.0257
 20.0121
 20.0152
 20.2122
 20.1991
 20.2058
 20.1921
 21.4794
 21.4698
 21.5163
 21.5585
 21.2157
 21.2229
 21.1579
 23.2076
 23.1975
 23.2136
 23.2513
 21.7806
 21.7801
 22.4077
 22.4515
 22.3842
 22.3508
 21.9565
 22.2255
 19.7834
 21.7031
 21.7755
 21.7192
 21.809
 19.2482
 20.6455
 20.7152
 20.6448
 20.7382
 21.7402
 21.6644
 21.7041
 21.4511
 21.3955
 21.3948
 20.0128
 20.0046
 20.1083
 20.0213
 20.1171
 20.1676
 20.1012
 20.1576
 22.0946
 22.1837
 22.1858
 22.1235
 19.554
 19.5351
 19.5153
 19.6083
 21.0703
 21.1363
 21.1877
 20.1211
 20.0597
 20.1041
 20.8089
 20.879
 20.8535
 20.7977
 21.6999
 21.6611
 21.749
 21.7188
 20.8662
 20.7602
 20.8521
 21.6317
 21.613
 21.6072
 21.6856
 21.2928
 21.1975
 20.0208
 19.9782
 19.9578
 19.8939
 19.7724
 19.6758
 19.7266
 19.7566
 21.8995
 21.8288
 21.9306
 21.8743
 20.3119
 20.4148
 20.3767
 20.2929
 20.7145
 20.826
 20.7292
 20.6881
 21.4289
 21.4827
 21.392
 21.4302
 19.8618
 19.8907
 19.9198
 19.9533
 21.2823
 21.3426
 21.2403
 21.2588
 21.0669
 21.1235
 21.125
 21.0137
 21.2298
 21.275
 21.2155
 21.2067
 21.8649
 21.7978
 21.964
 21.9177
 21.8688
 21.9493
 22.5092
 22.6065
 22.5449
 22.5191
 20.6772
 20.6799
 20.6746
 20.6015
 20.7246
 20.8054
 20.792
 19.6056
 19.5848
 19.5669
 19.572
 19.2258
 19.1881
 19.2571
 19.664
 19.6297
 19.74
 20.8377
 20.7565
 20.6982
 20.8035
 20.4355
 20.3853
 20.34
 20.4694
 20.0715
 20.0009
 20.0642
 19.9902
 21.6326
 21.7063
 21.6876
 21.6412
 22.3849
 22.3275
 22.298
 22.2976
 19.2784
 19.2778
 19.3331
 19.1868
 21.7826
 21.8108
 21.8374
 21.7661
 20.8931
 20.8925
 20.855
 20.9108
 19.2055
 19.2508
 19.344
 19.1584
 20.5666
 20.6401
 20.5463
 20.5703
 21.3588
 21.3944
 21.367
 21.3901
 21.7613
 21.8194
 21.8121
 22.2013
 22.1283
 22.1736
 22.2144
 22.0321
 22.0637
 22.026
 22.0693
 21.9729
 22.0353
 21.8277
 21.7899
 21.9061
 20.0627
 20.1054
 20.1204
 20.1321
 19.7174
 19.7807
 19.7543
 19.7716
 20.5518
 20.5686
 20.568
 20.6586
 21.1776
 19.7673
 19.7355
 19.7496
 19.7935
 22.2557
 22.2587
 22.2654
 22.2792
 19.4126
 19.3512
 19.4334
 19.315
 21.4482
 21.5193
 21.412
 20.4008
 22.1486
 22.1486
 22.1955
 21.9451
 21.9787
 22.0202
 21.9106
 20.9674
 20.9818
 21.0782
 21.0181
 20.2564
 20.2494
 20.3099
 20.2048
 21.1846
 20.4378
 20.4701
 20.493
 21.1634
 21.1845
 21.1637
 21.0929
 21.646
 21.6263
 21.6815
 21.6808
 21.4376
 21.5248
 21.4607
 21.4519
 20.3957
 21.8634
 21.8581
 21.8181
 20.1186
 20.1679
 20.107
 20.149
 19.9316
 19.9554
 19.868
 19.9774
 19.6729
 19.6352
 19.6857
 21.6394
 21.6353
 21.6881
 21.6292
 22.2924
 22.3347
 22.2947
 19.9836
 20.0043
 19.8478
 19.878
 19.9181
 19.9182
 21.1931
 21.1917
 21.1414
 19.3994
 19.4315
 19.3659
 19.4463
 20.0082
 20.0429
 20.0127
 19.9733
 20.6007
 20.6134
 20.5643
 20.5524
 20.935
 20.9131
 20.9518
 21.0119
 21.7978
 21.8151
 21.8315
 21.7716
 19.8868
 19.8804
 19.9182
 19.8175
 21.6014
 21.5821
 21.6678
 21.4635
 21.4034
 21.3965
 21.3761
 19.715
 19.7212
 19.6206
 19.6814
 20.4339
 20.4296
 20.4605
 20.4819
 19.385
 19.4416
 19.5034
 19.4305
 21.4496
 21.3985
 21.3717
 21.3809
 20.9331
 20.9048
 20.9883
 20.8523
 19.9431
 19.951
 19.9045
 19.9387
 20.9589
 20.9
 20.9734
 20.9594
 19.391
 19.2809
 19.3715
 21.6586
 21.682
 21.6978
 21.6866
 20.8044
 20.8075
 20.8198
 20.878
 20.6303
 20.5518
 20.6124
 20.6044
 21.0463
 21.0934
 20.9836
 21.0601
 19.951
 19.9555
 19.8609
 19.9132
 21.1841
 21.256
 21.215
 21.2393
 20.7058
 20.7254
 20.7107
 20.7729
 22.2976
 22.2942
 22.3092
 22.2963
 20.1739
 20.1571
 20.2199
 20.2528
 22.3004
 22.302
 22.3012
 21.8362
 21.8681
 21.8658
 21.8266
 22.0455
 22.0181
 21.8977
 21.9908
 20.2123
 20.2493
 20.1971
 20.1483
 20.4648
 20.3638
 20.4414
 20.4316
 21.4428
 21.5075
 21.5057
 21.5443
 19.1507
 19.2056
 19.2746
 23.178
 23.1928
 20.6962
 20.6291
 20.7316
 20.7062
 22.6148
 22.6689
 22.732
 22.6688
 20.4782
 20.4728
 20.3871
 20.4182
 21.4208
 21.6125
 21.6367
 21.6551
 21.6942
 20.2812
 20.2544
 20.2413
 20.2152
 19.9063
 19.9295
 19.8564
 19.927
 22.296
 22.2962
 20.3864
 20.3546
 20.2436
 20.3651
 20.7664
 20.8949
 20.7591
 20.8252
 21.7307
 21.7273
 21.7766
 21.6356
 21.1943
 21.2524
 21.2668
 21.1856
 20.0202
 20.1053
 19.9501
 19.6919
 19.72
 19.7083
 19.7226
 19.2178
 19.213
 19.1923
 21.5702
 21.6142
 21.6001
 21.5612
 19.6542
 19.7196
 19.7384
 19.7538
 22.0904
 22.1499
 22.1257
 22.1082
 20.5388
 20.5269
 20.5171
 20.5991
 20.8764
 20.7911
 20.8536
 20.8491
 19.6576
 19.6654
 19.673
 19.6048
 20.4541
 20.4074
 20.4801
 20.5208
 22.7461
 22.7795
 22.8008
 22.7558
 21.1763
 21.2778
 21.1825
 21.262
 21.5333
 21.4253
 21.4404
 21.521
 20.2768
 20.2327
 20.306
 20.3725
 22.0052
 22.0564
 22.0844
 22.0727
 20.708
 20.7631
 20.7359
 20.653
 21.5765
 21.6348
 21.6402
 22.3009
 22.3477
 22.3224
 22.3708
 20.629
 20.5635
 20.6784
 20.5213
 20.5346
 20.5779
 21.839
 21.9087
 21.9546
 21.9788
 21.9879
 21.9555
 21.9315
 19.7045
 23.6623
 23.6259
 23.6296
 23.6879
 19.9735
 20.0366
 19.9142
 19.982
 22.1407
 21.4273
 21.4398
 21.4594
 21.3631
 21.5533
 21.5934
 21.4621
 21.794
 21.7064
 21.7477
 21.7801
 22.7532
 22.775
 22.7342
 22.8175
 22.0925
 22.0377
 22.0416
 20.9598
 20.9984
 20.9903
 21.5841
 21.6081
 19.0431
 19.139
 19.1473
 22.0366
 21.9823
 22.0657
 21.4378
 21.3833
 21.3573
 19.6425
 19.5683
 19.5809
 20.2288
 20.2243
 20.1498
 20.2272
 21.7794
 21.7359
 21.7161
 22.2716
 22.3433
 19.5252
 19.5979
 19.4988
 19.5288
 22.5599
 22.5344
 22.6055
 22.4898
 22.0192
 22.0428
 23.2862
 23.341
 23.0195
 23.0314
 22.994
 21.4493
 21.4126
 21.4863
 19.5519
 19.6425
 19.6681
 20.4097
 20.3958
 20.3286
 21.7394
 21.6827
 21.6127
 21.5741
 21.639
 19.8491
 22.3383
 22.3402
 22.3085
 22.3041
 21.5319
 21.4081
 21.488
 21.4944
 20.3126
 20.3431
 20.2913
 20.3404
 20.3343
 20.3772
 20.3546
 21.4671
 21.4919
 21.4302
 21.3816
 20.4269
 20.3945
 20.3487
 20.3517
 20.1712
 20.236
 20.199
 20.1172
 21.0909
 20.3699
 20.3706
 20.3459
 20.3207
 19.4433
 19.4012
 19.4398
 19.4995
 21.8789
 21.9948
 22.0097
 21.9235
 19.5867
 19.5451
 19.5877
 19.5961
 23.3303
 23.3165
 23.3634
 19.5112
 19.5579
 19.4271
 19.4754
 21.8501
 21.8667
 21.9301
 21.9198
 20.1682
 20.2362
 20.1872
 20.1379
 22.0277
 22.0258
 22.1586
 22.1294
 19.3076
 20.0119
 20.1155
 20.0771
 20.1493
 19.8484
 19.7711
 19.8064
 22.2396
 22.2013
 22.2607
 22.2869
 20.2223
 20.2808
 20.2729
 20.3142
 20.7656
 20.7057
 20.6969
 20.7217
 20.8551
 20.8138
 20.9152
 20.918
 19.2163
 19.3063
 21.3169
 21.3084
 21.3145
 21.4706
 21.4151
 21.3917
 21.3497
 20.346
 20.3904
 20.2655
 20.2631
 20.3268
 20.2882
 20.2877
 20.2318
 20.6347
 20.6306
 20.5683
 20.6513
 21.8687
 21.8582
 21.6921
 21.7384
 21.741
 21.4392
 21.392
 21.3883
 21.378
 22.3561
 22.4101
 22.4055
 22.4072
 21.5291
 21.5629
 21.6243
 22.7229
 22.7279
 22.6578
 21.506
 21.5141
 21.573
 21.4668
 21.8415
 21.7506
 21.8563
 21.1855
 20.3402
 20.3564
 20.2732
 21.3685
 21.3951
 21.3499
 21.3043
 22.0578
 22.0503
 21.8951
 21.9779
 21.1056
 21.0628
 21.039
 21.0354
 20.0404
 20.087
 19.1191
 19.1881
 19.2364
 19.111
 20.2826
 20.3257
 20.2545
 20.3712
 21.3257
 21.341
 21.347
 21.3093
 19.3622
 19.3547
 19.2174
 19.4105
 19.5598
 19.5197
 19.5038
 21.005
 21.0961
 21.121
 21.0352
 22.2054
 22.2285
 22.167
 21.2692
 21.2774
 21.1945
 21.2659
 22.2067
 22.3011
 22.2174
 22.2991
 20.4748
 20.4826
 20.4631
 20.6168
 22.2853
 22.283
 22.2894
 22.2666
 21.8411
 21.7926
 21.7756
 21.8139
 19.4999
 19.584
 19.4879
 19.5592
 20.9294
 20.9285
 20.9894
 20.9248
 21.5131
 21.5586
 21.4919
 21.5468
 20.3762
 20.3569
 20.094
 19.9776
 20.0094
 20.0199
 21.3925
 21.3167
 21.3371
 21.2519
 21.2204
 21.1758
 21.2075
 21.2165
 22.154
 22.1153
 22.1701
 21.3972
 21.446
 21.4839
 23.5154
 23.585
 23.533
 23.5681
 21.7914
 21.7567
 22.2451
 22.2076
 22.2332
 22.2892
 20.7451
 20.8114
 20.7515
 20.8323
 22.7389
 22.6738
 22.6379
 22.7028
 21.9652
 21.9842
 22.0577
 20.5283
 20.503
 20.5099
 20.5459
 21.9206
 21.8664
 21.9458
 22.0065
 22.0021
 22.0608
 22.0558
 21.4447
 21.4872
 21.4764
 21.4033
 20.1457
 19.9654
 23.0699
 23.0434
 21.8082
 21.8659
 21.293
 21.3505
 21.3272
 21.336
 20.561
 20.5115
 20.5621
 20.4672
 21.0804
 21.0771
 21.0383
 21.0241
 22.1956
 22.304
 22.2114
 22.2636
 20.7949
 20.8792
 20.8321
 22.191
 22.21
 22.1763
 22.1786
 19.7433
 19.7264
 19.6741
 19.7684
 20.5829
 20.5864
 20.5939
 20.6587
 22.109
 22.0581
 22.1304
 21.259
 21.3373
 21.2676
 21.2282
 22.2792
 22.2816
 22.2543
 21.9436
 21.8818
 21.9014
 21.9424
 22.0501
 22.063
 21.997
 22.0389
 21.3717
 21.4261
 21.4482
 21.4668
 19.5082
 19.5535
 19.6189
 19.5892
 20.7136
 20.6223
 20.6538
 20.6552
 21.3325
 21.4182
 21.3522
 20.9674
 21.0015
 20.9956
 19.8244
 19.9109
 19.8311
 19.8835
 20.6468
 20.6255
 20.7053
 20.5995
 21.4255
 21.3737
 21.3381
 21.3576
 22.3598
 22.3354
 22.1263
 22.1705
 22.0913
 22.0903
 23.1722
 23.1918
 23.2447
 23.1628
 20.3203
 20.3041
 20.3035
 20.3346
 21.9065
 21.9836
 21.9557
 21.9624
 21.0801
 21.1528
 21.1045
 21.1854
 22.4631
 22.4906
 22.4814
 22.5089
 20.9039
 20.9428
 20.9819
 20.9737
 21.2427
 20.3094
 20.379
 20.3968
 20.376
 21.3843
 21.4621
 21.4807
 21.3957
 21.38
 21.3455
 21.3004
 21.3192
 21.5591
 21.6221
 21.5967
 21.6455
 22.0593
 22.1318
 22.0229
 19.9834
 19.9638
 19.9374
 20.0741
 21.4022
 21.425
 21.426
 21.4503
 20.0634
 20.0253
 19.9784
 20.5425
 20.5905
 20.5419
 20.586
 20.1906
 20.0848
 20.1447
 20.0791
 22.0618
 22.0041
 22.0722
 23.6998
 23.6692
 23.6599
 20.3824
 20.2971
 20.3176
 20.8895
 20.7693
 20.8349
 20.77
 21.5196
 21.4844
 21.4512
 21.5003
 21.3272
 21.2948
 21.3894
 21.3679
 22.8719
 22.8254
 22.9302
 22.8234
 21.045
 21.0803
 21.0861
 21.0953
 20.7814
 20.7851
 20.7065
 20.7848
 21.9101
 21.9114
 21.7454
 21.875
 21.8102
 21.8014
 20.4872
 20.5473
 20.5102
 20.5027
 21.9897
 21.9171
 20.7223
 20.7528
 22.1808
 23.5678
 23.5827
 23.5741
 23.5286
 22.4377
 22.3728
 19.3108
 19.2217
 19.2983
 22.3007
 22.2421
 22.1909
 22.2499
 20.3962
 20.3771
 21.8606
 21.8755
 21.8651
 21.8628
 21.6118
 21.4951
 21.5476
 20.302
 20.283
 20.2959
 20.2132
 20.6382
 20.5709
 20.6316
 20.6103
 19.9758
 19.9739
 19.9001
 21.3541
 21.4149
 21.3498
 21.4486
 21.1572
 19.9055
 20.0358
 19.9377
 19.9707
 22.2848
 22.3068
 22.2591
 22.2302
 21.0132
 21.0665
 20.9732
 21.0401
 20.2774
 20.3941
 20.3091
 20.3665
 23.2642
 23.2539
 23.2326
 23.2316
 22.0749
 19.3416
 21.4615
 21.359
 21.425
 21.4905
 20.9858
 20.9195
 21.0012
 21.0282
 21.8437
 21.9378
 21.8847
 21.867
 20.9512
 20.9882
 20.9611
 20.9461
 22.1536
 22.1394
 22.0704
 22.1611
 22.1034
 22.0595
 22.1093
 21.3153
 21.2443
 21.3454
 21.308
 20.2446
 20.1696
 20.3167
 19.0581
 18.9644
 19.0509
 19.1032
 22.916
 22.9877
 22.9915
 21.2276
 21.2335
 21.2764
 21.2453
 21.3197
 21.2241
 19.7205
 19.7207
 19.755
 19.652
 20.403
 20.4553
 20.4373
 20.4928
 22.06
 21.9594
 22.0347
 22.5875
 21.395
 21.4802
 21.4485
 21.4026
 21.2221
 21.1755
 21.1862
 20.5433
 20.5854
 20.5656
 20.5199
 20.3272
 20.4057
 20.3489
 20.3873
 21.4271
 21.476
 20.4257
 20.4305
 20.4241
 20.368
 20.9136
 20.9342
 20.9136
 20.8526
 19.585
 19.5336
 20.6838
 20.7507
 20.697
 20.7247
 20.4542
 20.4188
 20.4095
 20.3629
 20.5792
 20.5361
 20.576
 20.5835
 21.1896
 21.1484
 21.3757
 21.3257
 21.3784
 21.421
 21.5941
 21.6572
 21.6295
 21.6105
 20.8835
 20.831
 20.8355
 20.8666
 22.1252
 22.0778
 22.0326
 22.0042
 21.8616
 21.8781
 21.9038
 21.8812
 23.0617
 23.012
 23.018
 23.0836
 21.5916
 21.6999
 20.9049
 21.0161
 20.9329
 20.9659
 21.4481
 21.4624
 21.4367
 21.3864
 21.0217
 20.9749
 20.9425
 20.9998
 21.3419
 21.3291
 20.3
 20.3265
 19.3836
 19.3689
 19.3539
 19.3456
 22.2598
 21.3876
 21.3958
 21.3743
 21.3261
 21.1464
 21.2086
 21.1832
 21.1647
 21.7207
 21.7647
 21.7783
 21.84
 20.4511
 20.5406
 20.4648
 20.5437
 20.9602
 21.0058
 21.0275
 20.9633
 22.1597
 22.1849
 22.1276
 22.1914
 22.2234
 21.491
 21.4218
 21.5115
 21.4879
 21.5671
 21.4756
 21.5426
 21.5609
 22.0568
 22.0528
 22.115
 22.0555
 21.8846
 21.8667
 21.7791
 21.8204
 21.2492
 21.1846
 21.2759
 21.2806
 22.1381
 22.1782
 22.2068
 22.1827
 20.9453
 20.9272
 21.0157
 21.8039
 21.804
 21.8198
 21.8272
 22.7548
 22.7142
 20.9417
 20.8947
 20.8794
 21.0617
 20.9839
 21.0141
 20.9774
 22.2366
 22.1879
 22.1651
 22.4547
 22.4202
 22.422
 22.4432
 20.6956
 20.7172
 20.651
 20.7067
 20.9795
 21.0724
 20.9781
 20.1927
 20.3298
 20.2645
 21.1899
 21.2431
 21.2306
 19.9684
 19.9885
 19.9515
 23.1076
 23.1537
 23.1569
 23.1121
 19.5883
 19.5557
 19.6033
 19.5479
 21.6507
 21.7123
 20.8735
 20.9162
 22.022
 22.0217
 22.0381
 21.9766
 20.7515
 20.7878
 20.7052
 20.2639
 20.2091
 20.2235
 20.2122
 19.9103
 20.0161
 22.2771
 22.2694
 22.3026
 20.9383
 20.9423
 21.0071
 21.8807
 21.9363
 21.8628
 22.2089
 22.2083
 22.2264
 22.2499
 21.3938
 21.3647
 21.4309
 21.3379
 21.4757
 21.5472
 21.535
 21.4821
 20.498
 20.5159
 20.5266
 20.4507
 20.3294
 20.3927
 20.3568
 20.4428
 21.532
 21.5146
 21.4739
 20.7321
 20.7608
 20.7983
 20.5275
 20.4584
 20.4918
 20.4606
 18.8648
 18.9222
 18.8437
 21.1747
 21.2009
 21.2009
 20.4734
 20.4311
 20.5185
 21.2382
 21.2025
 21.2835
 21.6624
 21.7378
 21.7204
 22.2697
 22.2458
 22.2545
 22.2351
 21.1715
 21.3401
 21.2679
 21.315
 21.8038
 21.8225
 21.8691
 22.0918
 22.0201
 20.5925
 20.6381
 20.5369
 20.6012
 20.5753
 20.5134
 20.6107
 20.6504
 22.0355
 21.9627
 21.9282
 21.9133
 22.1158
 22.1929
 22.1446
 22.1988
 22.5665
 22.603
 22.5646
 22.6293
 19.6087
 19.5751
 20.0402
 20.1407
 20.0823
 20.0282
 19.496
 21.7044
 21.6256
 21.6981
 21.1217
 21.1041
 21.1539
 21.1833
 22.0983
 22.0978
 21.2775
 21.2979
 21.2176
 22.3166
 22.292
 20.1283
 20.1248
 20.0478
 20.1885
 19.8493
 19.8773
 19.7414
 19.8289
 20.3197
 20.3075
 20.3756
 21.6492
 21.5987
 21.6026
 19.8653
 19.8799
 19.8505
 19.8354
 21.8375
 21.9152
 21.8568
 21.8252
 20.2592
 20.3044
 20.3287
 20.2646
 21.784
 21.8534
 21.8667
 21.7554
 22.1228
 22.0961
 22.1436
 19.5031
 19.3775
 19.4367
 19.4768
 22.2648
 22.2308
 22.247
 21.4248
 21.4063
 21.3146
 21.3812
 19.5213
 19.4436
 19.4826
 21.7747
 21.8251
 21.7432
 21.7865
 20.6268
 19.6992
 19.6517
 19.8092
 19.7234
 22.3708
 22.3524
 22.3175
 22.3578
 20.5818
 20.6872
 20.6045
 20.5805
 21.2197
 21.1985
 21.281
 22.1024
 22.1428
 22.0936
 22.2198
 20.6517
 20.6848
 20.6162
 21.8777
 21.9077
 23.059
 23.1224
 23.069
 23.0258
 22.475
 22.6144
 22.62
 19.8145
 19.8487
 19.7212
 19.8225
 19.848
 19.799
 22.447
 22.4318
 22.4941
 22.4091
 21.5059
 21.4779
 21.4865
 21.4439
 21.3017
 21.3916
 21.3889
 21.3674
 20.9228
 20.9514
 20.8712
 20.9386
 20.928
 21.0373
 20.9685
 21.0306
 19.6262
 22.1765
 22.2085
 22.1715
 22.1952
 19.6119
 19.6727
 19.5829
 20.9096
 20.9771
 21.0162
 20.9878
 22.2327
 22.1693
 22.1473
 21.0029
 21.0619
 21.0193
 21.0628
 21.2131
 20.5226
 20.5032
 20.4203
 20.4513
 21.845
 21.8546
 21.8466
 21.2127
 21.1059
 21.158
 19.5368
 19.5679
 19.6508
 19.5789
 21.2099
 21.2172
 21.2513
 23.3221
 23.305
 23.3622
 21.2167
 21.2635
 21.2184
 21.3276
 20.4928
 20.4218
 20.4488
 21.1506
 21.1287
 20.0169
 19.9673
 20.0576
 20.0368
 20.3401
 20.2708
 20.3027
 20.3217
 19.452
 19.4812
 19.5334
 19.5923
 20.9916
 21.1188
 21.0273
 21.0066
 20.3905
 20.4149
 20.4355
 20.4568
 20.0232
 19.9651
 19.9069
 21.9395
 21.9007
 22.0038
 21.9606
 21.2781
 21.2128
 21.6239
 21.6746
 21.6193
 21.6429
 20.5891
 20.5917
 20.6042
 20.5513
 21.2292
 21.1697
 21.1823
 21.2551
 20.6732
 20.7144
 20.6314
 20.7126
 21.1679
 21.1527
 21.0849
 21.086
 21.2717
 21.324
 21.3259
 20.0401
 20.0937
 20.062
 19.7627
 19.7577
 19.7802
 19.6702
 20.0626
 20.0622
 20.0082
 20.4341
 20.3226
 20.4107
 22.9321
 22.9181
 22.9792
 21.2924
 21.2074
 21.2726
 20.1236
 20.0916
 20.1389
 20.1338
 21.2945
 21.2628
 21.3005
 20.9343
 20.9209
 20.8979
 20.9815
 20.6125
 20.7561
 20.7106
 20.7103
 21.2261
 21.168
 21.1919
 21.1429
 22.0033
 21.9613
 21.995
 22.0327
 21.2688
 20.9497
 20.9625
 20.9208
 21.0504
 22.2664
 22.2405
 22.2301
 22.2347
 22.2046
 22.1488
 22.1846
 22.1503
 22.1072
 22.0562
 22.0908
 22.1171
 20.6314
 20.6554
 20.5576
 20.5193
 21.9035
 21.9408
 21.9166
 21.909
 19.2532
 19.3368
 19.2798
 19.3358
 22.564
 22.5278
 22.4847
 22.4869
 21.8887
 21.8813
 21.9003
 22.3433
 22.3972
 22.4315
 22.4196
 22.0813
 22.13
 22.0404
 22.2206
 22.2067
 21.1187
 21.1279
 21.0773
 20.985
 19.8104
 19.8717
 19.8905
 19.7491
 19.7661
 19.7136
 19.792
 22.0801
 22.1309
 19.418
 19.3721
 19.4395
 20.0205
 20.0341
 20.0073
 19.9714
 22.0926
 22.1267
 22.0828
 19.5369
 19.4983
 19.5735
 19.4763
 21.5772
 21.5628
 21.5148
 21.6207
 22.0729
 22.1531
 22.1098
 22.0544
 22.3893
 22.2858
 22.3291
 22.3472
 22.7933
 22.7639
 22.8237
 22.8262
 20.7701
 20.6498
 20.7207
 20.6583
 21.5339
 21.5343
 21.5594
 21.6493
 19.4855
 19.5932
 19.4923
 23.3461
 23.2817
 23.3259
 23.2479
 22.5028
 22.4429
 22.4736
 22.4218
 19.59
 19.4644
 19.5344
 19.5371
 21.2289
 21.2192
 21.1642
 19.9736
 19.8794
 19.8614
 21.972
 21.9761
 22.0604
 19.4508
 19.5501
 19.5468
 19.4866
 19.9319
 19.9583
 19.9754
 20.0403
 21.801
 21.7663
 21.7069
 21.7622
 21.557
 21.63
 21.5577
 21.6389
 20.2701
 20.2658
 20.2395
 20.1665
 21.0596
 21.0993
 21.143
 21.1147
 22.6087
 22.5447
 22.5508
 22.541
 19.9199
 20.0732
 19.9747
 20.0096
 19.3669
 21.0592
 21.0412
 20.9966
 20.9977
 19.7489
 19.7083
 19.7167
 19.6413
 22.2616
 22.2616
 22.2484
 22.2482
 19.4911
 19.4261
 19.5131
 19.5444
 21.264
 21.2773
 21.5213
 21.5578
 21.5128
 21.4865
 20.2748
 20.3475
 20.357
 20.356
 20.922
 20.8407
 20.8488
 21.547
 21.5606
 21.5312
 20.295
 20.2941
 20.3812
 20.3896
 20.3478
 20.3866
 20.3121
 20.3671
 22.0182
 22.0837
 22.0886
 21.2211
 21.0791
 21.0821
 21.1594
 22.6509
 22.5859
 22.5248
 22.6115
 22.6623
 19.4226
 19.5528
 19.4138
 19.5414
 21.1156
 21.155
 21.1862
 21.1207
 19.7823
 19.7311
 21.3634
 21.4674
 21.4668
 21.8524
 21.9161
 21.809
 21.828
 19.5414
 19.562
 19.5149
 19.5067
 22.172
 22.1474
 22.1581
 21.8462
 21.8749
 21.8244
 21.8695
 21.5942
 21.5247
 21.5745
 21.6593
 20.5391
 20.3976
 20.4695
 20.4368
 21.9404
 21.8486
 21.9026
 21.908
 20.2996
 20.8235
 20.7426
 20.7189
 20.8333
 19.7759
 19.7474
 19.8239
 19.5746
 19.6055
 19.6146
 19.6713
 20.7756
 20.746
 20.8359
 20.7946
 19.21
 19.211
 19.2062
 19.2979
 21.62
 20.8454
 20.9413
 20.9498
 20.8748
 21.0977
 21.202
 21.1627
 21.1249
 22.7857
 22.7219
 22.7051
 22.77
 21.2385
 21.2207
 21.1965
 21.2776
 21.444
 21.4263
 21.4033
 21.3785
 21.3905
 21.3759
 21.3296
 19.8975
 19.9781
 20.011
 21.4334
 21.5027
 21.4937
 21.442
 19.8733
 19.7601
 19.8213
 21.1523
 21.193
 21.0867
 21.0442
 21.0655
 20.9944
 21.0129
 20.9912
 21.1537
 21.1363
 21.0451
 21.0766
 19.8596
 19.8119
 19.8168
 21.5925
 19.7071
 20.9093
 20.8575
 20.9096
 20.9842
 22.0309
 22.0108
 22.0905
 21.9139
 21.8474
 21.8235
 21.0694
 21.0493
 21.1128
 21.1915
 21.1954
 21.1572
 21.1236
 21.1516
 21.2043
 21.1078
 21.1955
 23.3947
 23.3841
 23.4429
 20.2672
 20.3572
 20.2673
 21.2827
 21.2535
 20.0142
 20.1255
 20.0984
 20.122
 20.8087
 20.7506
 20.8048
 22.7172
 22.7301
 22.7937
 22.7675
 21.399
 21.4909
 21.4323
 21.431
 21.9982
 22.0309
 22.0684
 22.0893
 20.5807
 20.68
 20.6326
 20.5921
 21.7048
 21.7501
 21.7163
 21.7918
 22.6108
 22.6242
 22.6331
 21.5601
 21.5869
 21.6241
 21.6084
 20.5433
 20.4635
 20.4886
 20.4913
 21.194
 21.124
 21.1098
 21.1522
 21.9162
 21.952
 21.9144
 21.5094
 21.5616
 21.5354
 21.5499
 21.9341
 22.0043
 21.9206
 21.987
 22.2058
 22.1187
 22.1158
 22.2159
 19.6391
 19.5866
 19.6112
 19.5839
 22.1222
 22.067
 22.0873
 22.0663
 21.9443
 21.991
 21.9188
 21.929
 20.7497
 20.6492
 20.693
 20.6389
 21.5573
 21.5844
 21.5167
 21.5373
 18.9979
 18.9511
 18.9596
 18.9525
 21.4188
 21.453
 21.3892
 22.2243
 22.2748
 22.2522
 22.1969
 22.1525
 22.1863
 22.1631
 22.188
 22.0412
 22.1388
 20.5379
 20.596
 20.5398
 20.6366
 19.205
 19.2753
 19.2378
 19.2471
 21.4692
 21.5354
 21.4976
 21.5376
 22.0561
 22.1
 22.1087
 20.6253
 20.6976
 20.7134
 20.6394
 21.3176
 21.3419
 21.2831
 21.2506
 21.8649
 21.8656
 21.8732
 21.8135
 22.2601
 22.1573
 22.2198
 20.1757
 20.1052
 20.0749
 20.1536
 20.1196
 20.1082
 20.1859
 21.4497
 21.4374
 21.3929
 21.3746
 21.4134
 21.4581
 21.3724
 21.8743
 21.8144
 21.7895
 21.7906
 20.6416
 20.6527
 20.7112
 22.0592
 22.0545
 22.1294
 21.0887
 21.0071
 21.0431
 20.0761
 20.1685
 20.1273
 20.5151
 20.5361
 21.6025
 21.5547
 21.6026
 21.5475
 21.52
 21.5507
 21.2944
 21.3783
 21.8022
 22.3299
 22.3155
 22.3737
 19.8449
 19.8547
 19.9627
 21.4432
 21.3927
 21.4131
 21.4609
 21.8496
 21.1581
 21.1041
 20.6162
 20.606
 20.6293
 20.5669
 21.1801
 21.2481
 21.1729
 21.4077
 21.3725
 21.4783
 21.3911
 21.5661
 21.4439
 21.411
 21.4622
 21.4864
 21.3707
 19.9089
 19.9776
 19.9964
 19.9472
 19.8702
 19.8118
 19.7049
 19.7446
 22.089
 22.0292
 21.1359
 21.1692
 21.1851
 21.2352
 20.963
 20.9433
 20.9228
 20.8915
 20.6588
 20.5967
 20.6681
 20.6788
 21.3093
 21.3436
 21.3717
 21.2949
 21.4023
 21.3588
 21.3897
 21.4283
 20.0637
 20.1741
 20.0852
 20.1146
 21.94
 21.8605
 21.8548
 21.8043
 21.9722
 21.8929
 21.936
 20.2138
 20.1456
 20.0654
 20.0444
 21.8958
 21.8458
 21.8628
 21.8133
 19.8139
 19.8474
 19.7898
 19.8279
 20.094
 20.1386
 20.1176
 20.1475
 21.5122
 21.478
 21.5409
 21.5061
 20.485
 20.462
 20.5106
 20.578
 21.8387
 21.7999
 21.7478
 21.7287
 20.3404
 20.378
 20.3565
 22.1113
 22.0707
 22.1218
 22.0849
 20.8618
 20.8801
 20.8432
 20.8133
 21.5601
 21.5397
 20.377
 20.2776
 20.3222
 20.36
 20.3114
 20.3238
 20.3681
 21.3675
 21.2766
 21.3613
 20.2035
 20.2147
 20.186
 20.1152
 22.6023
 22.5693
 22.5262
 22.5536
 21.8316
 21.8099
 21.7464
 21.7395
 20.7806
 20.874
 20.8619
 20.7715
 19.8055
 19.7976
 19.8487
 19.8022
 20.0268
 19.9583
 19.9407
 20.0178
 19.6823
 19.6762
 19.6641
 19.8682
 19.8474
 21.6549
 21.6075
 21.6577
 21.593
 21.9965
 21.9681
 22.0704
 22.0132
 21.7565
 21.7534
 21.6189
 21.5477
 21.6021
 21.5959
 21.4196
 21.4108
 21.334
 21.4091
 22.0338
 22.0316
 22.0831
 21.0208
 21.0654
 21.0521
 21.0822
 18.9997
 19.0271
 19.1029
 21.6495
 21.6605
 21.6379
 21.5788
 20.0224
 20.1157
 20.0562
 20.0313
 20.5365
 20.4469
 20.4726
 21.1205
 21.1609
 21.0861
 20.5378
 20.4558
 20.5491
 20.0612
 20.1382
 20.5944
 20.5821
 20.5812
 21.8142
 21.789
 21.7707
 21.8484
 19.7558
 19.7031
 19.7605
 19.7854
 20.841
 20.7515
 20.8107
 22.848
 22.9114
 22.9318
 22.8523
 22.1201
 22.1567
 20.9371
 21.6021
 21.5173
 21.572
 21.6007
 21.1186
 21.0486
 21.0531
 20.4231
 20.3973
 20.4575
 20.4224
 19.7873
 19.7375
 21.2273
 21.2597
 21.2554
 21.2988
 22.1858
 22.2299
 22.2375
 22.1532
 20.0215
 19.9694
 19.9879
 20.0194
 20.7424
 20.7125
 20.7544
 23.2455
 23.2681
 23.3269
 23.3297
 22.0795
 22.0931
 22.1561
 21.7124
 21.6635
 21.7503
 21.6962
 20.8475
 20.8419
 20.889
 20.7952
 21.1651
 21.1073
 22.2937
 22.2715
 22.278
 22.2763
 20.697
 20.6195
 21.7579
 21.8332
 21.7783
 21.7617
 21.4533
 21.4242
 21.5069
 21.4503
 21.1711
 21.1041
 21.0665
 21.1252
 21.7114
 21.7452
 21.8198
 20.5305
 20.6354
 20.5326
 20.6075
 20.1619
 20.1015
 20.0403
 20.157
 20.2422
 20.252
 20.2494
 20.1687
 22.202
 22.2735
 22.2161
 22.266
 21.1894
 21.2337
 22.984
 23.0601
 23.0187
 23.0872
 21.5063
 21.5765
 21.6035
 19.4426
 23.5251
 23.5095
 23.514
 23.6061
 21.2046
 21.1625
 21.2031
 21.1937
 21.6478
 21.5824
 21.6134
 20.1897
 20.1312
 20.1134
 20.1989
 20.1937
 20.2208
 20.144
 20.1524
 20.2193
 20.1885
 20.2504
 20.2786
 21.7971
 21.7392
 21.8341
 21.7398
 22.0329
 22.0613
 22.0857
 22.0854
 20.7124
 20.7181
 20.6318
 20.7228
 21.4333
 21.5313
 21.4132
 21.4764
 19.1286
 19.7424
 19.7024
 20.8549
 20.8616
 21.3646
 21.4195
 21.406
 19.6999
 19.5836
 19.6607
 19.6778
 21.2457
 21.2776
 20.934
 20.9911
 22.7113
 22.6543
 22.7262
 22.6666
 21.8059
 21.8304
 21.8807
 21.8446
 20.7149
 20.6281
 20.7053
 20.6463
 22.5707
 22.6422
 22.5895
 22.5613
 19.2367
 19.2802
 19.1932
 19.2738
 19.807
 19.907
 19.6668
 19.7173
 19.7772
 19.6649
 20.1861
 20.1265
 21.5441
 21.5033
 21.5473
 23.3782
 23.32
 23.3963
 23.395
 22.4989
 22.4567
 22.4481
 22.5031
 19.7783
 19.7126
 19.7775
 19.8205
 20.4329
 20.3256
 20.3797
 21.0406
 21.1046
 21.1541
 21.0701
 21.7296
 21.6505
 21.7089
 21.7363
 19.9291
 19.8608
 19.9224
 19.7583
 21.0859
 21.0021
 21.7329
 21.7079
 20.6076
 20.5363
 20.6378
 20.6106
 21.9956
 22.0768
 21.9719
 22.0883
 22.1315
 22.2056
 22.1747
 23.3132
 23.2089
 23.2181
 23.26
 21.6862
 21.6485
 21.6563
 21.5971
 20.019
 20.0034
 20.1471
 20.0738
 20.1226
 20.074
 21.8371
 21.8394
 21.7757
 21.8862
 20.3362
 20.3797
 20.3111
 20.5914
 20.5988
 20.5666
 20.6275
 20.0943
 20.0138
 20.0953
 20.0115
 21.7515
 21.6891
 21.7103
 21.7377
 19.5802
 19.7067
 21.4001
 22.8775
 22.8589
 22.8109
 22.793
 20.3208
 20.3453
 20.283
 22.5483
 22.5882
 22.5441
 22.6131
 20.5224
 20.5291
 20.5237
 20.4578
 22.2007
 22.2036
 22.2777
 22.1775
 21.9797
 21.9872
 21.9255
 21.9111
 20.6606
 20.6045
 20.5942
 21.5959
 21.5618
 21.6146
 21.6513
 20.8298
 20.8384
 20.7932
 20.8985
 20.8866
 20.9591
 20.0678
 20.0427
 20.0546
 20.5566
 20.5429
 20.5855
 22.9618
 22.9552
 22.8974
 22.9438
 22.0866
 22.0179
 22.115
 21.9968
 19.9024
 20.0039
 20.0094
 20.0163
 20.2406
 20.271
 21.8989
 21.7776
 21.8939
 20.5689
 20.6611
 20.6518
 20.6979
 20.6257
 20.6509
 20.6787
 21.802
 21.8364
 21.7953
 21.7788
 19.6141
 19.6179
 21.5563
 21.5833
 21.5533
 21.5214
 21.8766
 21.8723
 21.8501
 20.5481
 20.5264
 21.1938
 21.2186
 21.2235
 21.1456
 22.212
 22.2404
 20.7316
 20.7734
 21.5446
 21.6313
 21.6134
 21.5674
 21.0161
 21.0169
 21.0685
 20.9737
 21.0244
 21.0686
 21.0312
 22.34
 22.3246
 22.3586
 22.244
 22.5251
 22.5272
 22.4794
 22.5069
 20.4966
 20.5391
 20.5972
 20.5555
 19.8511
 19.846
 19.8961
 19.8942
 20.8968
 20.8594
 20.9232
 21.159
 21.2034
 21.2324
 21.1823
 21.136
 20.2629
 20.2441
 21.6866
 21.6203
 21.6815
 21.7009
 21.9487
 19.858
 19.8785
 19.9332
 19.9012
 21.1422
 21.2507
 21.2221
 21.163
 23.2116
 23.1735
 21.3533
 21.4372
 21.3513
 22.9534
 22.9369
 22.9721
 22.9111
 20.7955
 20.8469
 20.8034
 20.8347
 22.222
 22.1441
 22.1302
 21.8062
 21.7468
 19.5397
 19.548
 19.5482
 19.7056
 19.6984
 19.7398
 22.0629
 21.9708
 21.8395
 21.8456
 23.0791
 23.1177
 23.1277
 23.1448
 19.8518
 19.9591
 19.8355
 21.9917
 21.9819
 21.9409
 22.0331
 21.8676
 21.8954
 21.8185
 21.8946
 20.5439
 20.5103
 20.4847
 20.5238
 20.8105
 20.6596
 20.7371
 20.5433
 20.5349
 20.6112
 20.5374
 20.2777
 20.3608
 20.2128
 20.3912
 22.2559
 22.2495
 22.0696
 22.0673
 22.029
 20.8677
 20.9041
 20.9683
 20.9411
 21.9294
 21.9362
 21.8608
 21.886
 20.4585
 20.506
 20.4919
 20.453
 22.224
 22.1383
 19.9201
 19.9693
 19.9373
 20.0065
 20.4398
 20.5557
 20.5041
 20.421
 21.7089
 21.7014
 21.7247
 21.6645
 20.0775
 19.9927
 21.3921
 21.3761
 21.3507
 21.3375
 22.6076
 22.5907
 22.6024
 22.5915
 22.2287
 22.1902
 22.2301
 22.1733
 19.5133
 19.4796
 19.443
 19.4578
 19.8058
 19.8393
 19.8693
 21.7443
 21.7572
 21.7657
 19.5513
 19.4985
 21.3458
 21.309
 21.3535
 21.2577
 20.0132
 20.0632
 20.0018
 20.066
 21.9118
 21.9462
 21.8999
 21.9511
 22.3499
 22.286
 22.3275
 20.1538
 20.07
 20.0755
 20.1076
 21.4923
 21.4016
 21.4166
 21.4429
 22.0183
 21.9949
 21.9499
 22.062
 22.2198
 22.3297
 22.2027
 20.853
 20.9321
 20.8193
 21.0955
 21.0817
 21.136
 21.054
 20.9078
 20.9147
 20.8408
 20.9278
 21.5641
 21.4943
 21.5599
 21.5026
 21.8345
 21.8183
 21.7813
 21.8653
 22.0896
 22.154
 20.633
 20.5342
 20.6356
 20.6333
 21.0266
 21.1209
 21.0467
 21.0899
 21.0007
 21.0985
 21.114
 21.1561
 21.0336
 21.0707
 22.9102
 22.8796
 22.8367
 22.8687
 19.7984
 19.7103
 19.7849
 21.4813
 21.4897
 21.4946
 21.5533
 21.2431
 21.2983
 21.2449
 22.1606
 22.1123
 22.19
 22.1669
 21.9795
 22.043
 21.9979
 22.0156
 21.5027
 21.4825
 21.4301
 21.8945
 21.9302
 20.4191
 20.4623
 20.3621
 19.4219
 19.3984
 19.4728
 19.433
 21.9824
 22.0448
 22.046
 21.9552
 21.2504
 21.1917
 21.1733
 21.246
 20.2608
 20.2429
 20.3074
 20.3097
 21.9192
 21.8952
 21.9458
 21.8499
 21.7541
 21.7164
 21.6944
 21.6379
 20.134
 20.1995
 20.2805
 20.2674
 21.7745
 21.6989
 19.9091
 19.9355
 19.8675
 20.9179
 20.9764
 22.4131
 22.4496
 22.456
 22.4788
 21.4876
 21.4575
 21.4381
 21.4533
 22.4707
 22.5045
 22.4699
 21.2891
 21.3024
 20.7672
 20.7248
 20.6473
 20.7612
 21.4754
 21.4705
 20.6263
 20.5593
 21.5421
 21.5838
 21.5486
 21.5259
 20.6331
 20.6918
 20.6127
 20.592
 20.3331
 20.254
 20.1862
 20.2388
 19.5897
 19.5764
 19.616
 19.61
 21.2147
 21.1768
 21.9531
 21.9538
 22.0615
 22.0908
 20.2815
 20.3596
 22.1215
 22.0568
 22.0974
 22.7792
 22.7672
 22.672
 22.7128
 22.8854
 22.8384
 22.8673
 21.0954
 21.0139
 21.0198
 21.0324
 21.532
 21.4723
 21.5212
 22.0128
 21.7273
 21.6741
 21.7565
 21.6849
 22.0265
 21.9802
 22.0733
 22.0083
 21.5794
 21.6326
 21.5678
 21.6299
 20.5563
 20.6855
 20.6831
 20.5768
 19.5884
 19.6204
 19.6233
 19.5473
 21.3727
 21.3934
 21.2981
 21.3255
 20.1386
 20.1758
 20.0512
 20.0753
 21.7332
 20.52
 20.6199
 20.5732
 20.59
 22.3964
 22.4374
 22.3997
 22.3998
 20.4967
 20.4257
 20.4195
 21.6329
 19.8417
 19.8334
 19.8764
 19.7599
 19.679
 19.6712
 19.6667
 19.6813
 19.7766
 19.7073
 19.682
 21.136
 21.1475
 21.1318
 21.217
 19.754
 19.7447
 19.7111
 19.7128
 22.0187
 22.0629
 22.0759
 22.0891
 20.6832
 20.7132
 20.7065
 20.78
 21.3864
 21.3057
 21.3195
 21.3794
 22.6453
 22.5954
 22.6409
 20.779
 21.2713
 21.2894
 21.3199
 21.2377
 19.7271
 19.666
 19.6655
 19.6453
 19.7118
 19.6589
 19.5953
 19.6219
 20.7101
 20.7322
 20.6866
 20.7425
 21.7138
 21.7594
 21.7831
 21.758
 21.4561
 21.3824
 21.4312
 19.8029
 19.7638
 19.812
 19.886
 19.6787
 19.6342
 19.6491
 19.6992
 22.0397
 22.0737
 22.0734
 20.1989
 20.1339
 19.7266
 19.7495
 19.7365
 21.9996
 22.0437
 21.9652
 21.9603
 20.4164
 20.3111
 20.4383
 20.4529
 21.4847
 20.9031
 20.886
 20.8443
 20.9009
 20.7207
 20.7806
 20.7077
 20.8218
 19.7006
 19.6604
 20.0308
 19.9403
 20.002
 19.9313
 20.0521
 19.9463
 19.9917
 19.913
 20.122
 20.1992
 20.0953
 20.1881
 20.4161
 20.3599
 20.4051
 20.3699
 22.5382
 22.4602
 19.7696
 19.7381
 19.6875
 22.2751
 22.29
 22.2725
 21.8403
 21.9303
 21.9484
 21.8669
 20.3599
 20.4053
 20.3504
 20.282
 21.349
 21.417
 21.3866
 21.3781
 19.3632
 19.4321
 19.3587
 19.301
 20.9374
 20.9553
 20.9065
 20.926
 20.1034
 20.0481
 20.1131
 20.6085
 20.6104
 20.9604
 21.0682
 20.9857
 20.9859
 21.0624
 21.167
 21.0757
 21.1364
 22.0954
 22.0604
 22.0517
 20.6882
 20.6249
 20.6569
 20.5965
 21.5595
 21.5294
 21.4783
 19.9021
 19.9191
 19.8229
 19.939
 19.6682
 20.8416
 20.9416
 20.9526
 20.8856
 20.6305
 20.5799
 20.5726
 20.5973
 20.7301
 20.7723
 20.7989
 23.393
 23.4396
 23.3783
 23.379
 21.8615
 21.807
 22.1923
 22.2507
 21.2806
 21.3887
 21.3626
 21.3129
 23.7131
 23.6892
 19.4148
 19.3895
 19.3653
 19.3032
 20.3993
 20.2595
 22.1093
 22.1203
 22.0784
 22.0807
 21.2754
 21.2663
 21.2142
 21.2386
 20.0496
 19.9753
 20.0074
 20.089
 21.7867
 21.8116
 21.7562
 21.7796
 21.3431
 21.3922
 21.3154
 21.349
 19.9853
 19.9444
 19.9422
 19.8709
 21.3538
 21.3299
 21.3242
 21.4195
 19.6167
 19.6883
 19.6669
 19.6951
 20.6933
 20.6357
 20.6538
 21.8679
 21.8671
 21.9603
 21.8795
 20.8063
 20.8745
 20.8297
 20.8775
 21.0175
 21.0711
 21.6065
 21.5034
 21.488
 20.6568
 20.6737
 20.5901
 20.5757
 19.5488
 19.5548
 19.4813
 19.4812
 19.8511
 19.7939
 19.7456
 19.865
 21.938
 21.9486
 22.0075
 21.9854
 22.2596
 22.2658
 22.2825
 22.2737
 22.0868
 22.1713
 22.1063
 22.1432
 22.3238
 22.3143
 22.3417
 21.1193
 21.1336
 21.1166
 21.2182
 20.2024
 20.1657
 20.4366
 20.3429
 20.4019
 20.4042
 20.2572
 20.2075
 20.2943
 21.8838
 21.9385
 21.9176
 21.9589
 21.1443
 21.1319
 21.0852
 21.0983
 19.3631
 19.3548
 19.333
 19.2867
 20.9681
 21.0071
 21.0395
 20.9637
 20.8643
 20.9468
 20.8556
 20.9262
 19.8267
 19.7823
 19.8488
 19.8468
 22.1426
 22.2372
 22.204
 22.1687
 20.4278
 20.4406
 22.1819
 22.2307
 20.1081
 20.1816
 20.1141
 20.0524
 21.0139
 21.0255
 20.9951
 21.0853
 22.4327
 22.3675
 22.4108
 22.2071
 22.232
 22.2582
 22.2604
 21.6844
 21.7644
 21.0093
 21.0418
 20.9898
 21.0354
 20.6114
 20.6217
 20.566
 21.479
 21.5376
 21.5371
 21.4698
 21.5331
 21.4308
 21.5356
 21.4682
 20.2976
 20.3717
 20.346
 20.3395
 22.3421
 22.3451
 22.3178
 19.4772
 19.4577
 19.5622
 19.544
 20.7632
 20.7844
 20.7718
 21.9772
 21.9526
 21.9288
 19.6839
 19.6826
 19.7542
 19.6462
 20.1347
 21.6989
 21.7758
 21.7639
 21.7376
 19.7466
 19.8765
 19.8275
 19.7673
 20.7485
 20.6611
 20.6904
 19.5241
 19.511
 19.5103
 19.5161
 19.769
 19.8272
 19.8216
 19.7449
 19.7177
 22.419
 22.3758
 21.2738
 21.2973
 21.2074
 21.2612
 22.5285
 22.5712
 22.5681
 22.5455
 21.6325
 20.7459
 20.7156
 20.8271
 20.4336
 20.3739
 20.3132
 20.4306
 21.6252
 21.6153
 21.6676
 21.6862
 21.8439
 21.8605
 20.8239
 20.7874
 20.7866
 21.7664
 21.8062
 21.7583
 21.7189
 21.8487
 21.8453
 21.8117
 21.7946
 19.7202
 19.6832
 21.5986
 21.5462
 21.5948
 21.6041
 22.3306
 22.2275
 22.3294
 22.2494
 21.8656
 21.8545
 21.7184
 21.8319
 22.3142
 22.3604
 22.3145
 20.1933
 20.2631
 20.1706
 20.4662
 20.4609
 19.7674
 19.7487
 19.8097
 22.0848
 22.1599
 22.1367
 22.1486
 22.0033
 21.9671
 21.938
 23.4815
 23.4033
 23.4766
 23.5162
 20.2372
 20.3437
 20.2363
 20.1884
 21.7592
 21.729
 21.7665
 21.6642
 20.7706
 20.8282
 20.8064
 20.763
 20.2941
 20.3151
 20.3945
 20.3494
 21.9887
 21.983
 21.9574
 21.9265
 21.2914
 21.2298
 21.2963
 20.5075
 20.496
 20.4467
 20.7426
 20.7485
 20.7702
 20.6864
 21.33
 21.4063
 21.4094
 21.401
 20.7279
 20.6913
 20.6635
 22.3413
 22.2213
 22.3218
 22.3078
 21.1972
 21.1908
 21.1774
 21.2494
 22.0332
 22.0952
 22.0926
 22.0704
 22.135
 22.2299
 22.1212
 22.1425
 19.2596
 19.1574
 19.2971
 22.0362
 22.0903
 22.0391
 19.2717
 20.1656
 20.1531
 20.2552
 20.2184
 22.2066
 20.4547
 21.7174
 21.7259
 21.772
 21.7588
 22.3406
 22.3832
 22.4159
 22.379
 20.6018
 21.3204
 19.486
 19.5112
 19.5023
 19.5162
 23.4067
 23.3598
 23.3814
 21.7474
 21.8031
 21.82
 22.2655
 22.328
 19.1284
 19.0796
 19.1893
 19.1476
 21.4603
 21.5671
 21.4979
 21.4806
 20.0898
 20.009
 20.0022
 20.7152
 20.778
 20.5657
 20.5974
 20.4817
 20.5574
 19.6989
 19.7544
 19.7727
 19.7182
 21.3181
 21.3203
 21.2192
 21.2545
 19.8539
 19.8086
 19.8853
 19.844
 21.1732
 21.1273
 21.0548
 21.1503
 20.2942
 20.28
 20.2463
 20.3332
 20.1734
 20.253
 20.1802
 20.0322
 21.9049
 22.0039
 21.8807
 21.8431
 21.0934
 19.5981
 19.4816
 19.5316
 19.515
 20.9018
 20.8866
 20.9792
 20.8616
 20.7863
 20.7762
 22.0787
 22.1235
 22.1408
 22.0622
 21.6317
 21.6963
 21.6302
 21.1362
 21.1538
 21.1815
 21.2266
 19.329
 19.4128
 19.4254
 19.3978
 21.8071
 21.8084
 21.859
 21.8744
 20.4688
 20.5763
 20.5721
 20.529
 21.1837
 21.1689
 21.2263
 22.1427
 22.0794
 22.1073
 22.0932
 22.7357
 22.7239
 22.7982
 22.6979
 21.6461
 21.7027
 21.7224
 20.0277
 20.025
 19.9754
 20.9094
 20.3028
 20.3947
 20.3543
 20.3546
 21.7944
 21.8145
 21.8055
 21.8074
 19.9046
 19.7773
 19.8437
 19.8662
 20.9913
 21.0949
 20.6216
 20.6699
 20.647
 20.6078
 20.5583
 20.5846
 20.7028
 22.8356
 22.8038
 22.8944
 22.8316
 19.0584
 18.9194
 18.9651
 19.0462
 21.6067
 21.5432
 21.573
 21.9484
 21.9024
 21.9989
 21.8823
 20.5386
 20.632
 20.5928
 23.2178
 23.2757
 23.3109
 23.2526
 20.3206
 20.3177
 20.2121
 20.1921
 20.2605
 20.2447
 22.2348
 22.2801
 22.2553
 22.2972
 22.0744
 22.0736
 22.0473
 22.1014
 22.5923
 22.5353
 22.5012
 22.5871
 21.334
 22.6443
 22.5921
 22.6019
 22.5785
 20.281
 20.361
 20.3741
 20.4072
 22.0528
 21.9816
 20.4355
 20.3897
 20.3914
 20.4795
 20.0165
 19.9722
 20.0198
 19.9786
 19.3773
 19.3283
 19.3375
 19.2368
 23.3911
 23.4145
 23.3376
 20.7594
 20.6826
 20.7088
 20.7209
 20.1493
 20.1305
 20.2015
 20.1627
 22.8497
 22.8018
 22.7825
 22.8555
 20.7741
 20.2952
 20.265
 20.2401
 20.3173
 19.7445
 19.7057
 19.7452
 21.3268
 21.2992
 21.3077
 21.2593
 19.457
 19.3518
 19.3055
 19.3547
 20.8994
 20.8635
 20.9029
 20.9134
 20.8103
 21.8418
 21.9288
 21.8241
 20.9656
 21.0477
 21.015
 20.9351
 21.0406
 21.019
 20.9876
 21.0832
 21.6066
 21.6939
 21.6689
 22.2997
 22.7062
 22.6462
 22.7673
 20.6409
 20.585
 20.6114
 20.3249
 20.3057
 20.3483
 21.9099
 21.839
 21.8786
 21.7787
 20.4599
 20.5073
 19.833
 19.8713
 19.899
 19.8667
 19.6248
 19.6449
 19.649
 19.9287
 19.8736
 20.7094
 20.6502
 20.7006
 20.0305
 20.1317
 20.0685
 22.0533
 23.2613
 23.293
 23.238
 23.2489
 20.7978
 20.7779
 20.8409
 20.8224
 23.0841
 23.0659
 23.0042
 23.0924
 20.4009
 20.396
 20.3528
 21.1214
 21.1519
 21.2083
 21.2225
 21.7956
 21.75
 21.8625
 21.8231
 20.8621
 20.8409
 20.7771
 20.372
 20.3199
 21.2635
 21.1835
 21.2413
 21.2274
 21.5922
 21.5436
 21.5756
 22.0647
 22.0598
 22.0565
 20.7541
 20.7334
 20.681
 20.775
 20.2472
 20.1697
 20.2281
 20.185
 19.0553
 19.1137
 19.0293
 19.1048
 21.0255
 21.0362
 19.0137
 19.0797
 19.1109
 20.5892
 22.2328
 22.1769
 22.1259
 22.1539
 21.7905
 21.7432
 21.7901
 21.7579
 20.6171
 20.6682
 20.6362
 19.8567
 19.7963
 22.3002
 22.2763
 22.3401
 22.2597
 20.332
 20.3659
 22.2383
 22.2697
 20.9013
 20.9073
 20.9421
 22.4023
 22.4546
 22.3744
 21.7763
 21.789
 21.8177
 21.8121
 19.8582
 19.8521
 19.8155
 19.8661
 21.4531
 21.4441
 21.4386
 21.2949
 21.3884
 21.3366
 21.327
 19.6684
 19.7604
 19.7586
 19.769
 22.7457
 22.7188
 22.7698
 21.1289
 21.2048
 21.1692
 20.2195
 20.1746
 20.5019
 20.519
 20.5966
 20.5822
 22.8707
 22.8209
 22.8391
 22.8606
 21.8616
 21.8597
 21.8521
 21.8016
 20.123
 20.0966
 20.0662
 20.0566
 20.0525
 20.0854
 20.0816
 20.126
 21.3739
 21.4526
 21.3824
 21.3999
 19.2754
 19.1582
 19.1828
 19.2704
 22.0422
 21.9863
 22.0655
 22.9007
 22.9607
 22.9455
 20.8794
 20.8426
 20.4931
 20.4741
 20.5304
 20.4977
 19.8822
 19.9213
 19.8096
 19.8051
 21.5384
 21.0389
 21.3965
 21.3382
 21.306
 21.2664
 23.4857
 23.5648
 23.5564
 23.4722
 20.2598
 20.2912
 21.8775
 21.8455
 21.8018
 21.6463
 21.6765
 21.6014
 21.5802
 22.2367
 22.2887
 21.5513
 21.5617
