 -63.3256
 -65.4322
 -65.0996
 -66.0975
 -83.2698
 -83.3735
 -83.4358
 -83.4961
 -81.758
 -81.4137
 -81.8043
 -81.5665
 -82.0814
 -81.6501
 -81.7971
 -81.5126
 -84.7854
 -84.8048
 -84.7602
 -84.7501
 -84.6302
 -84.5985
 -84.6631
 -84.608
 -56.1668
 -55.1512
 -55.4691
 -56.0527
 -58.197
 -58.4511
 -58.4845
 -57.9561
 -84.5767
 -84.5546
 -84.49
 -84.5369
 -84.6076
 -84.6126
 -84.6002
 -84.6653
 -52.0809
 -51.4823
 -52.3933
 -52.5583
 -81.07
 -81.1794
 -80.7701
 -81.0028
 -69.2692
 -69.2883
 -68.2786
 -70.2169
 -83.9179
 -83.6883
 -83.6016
 -83.7764
 -79.4773
 -79.1591
 -79.542
 -79.9348
 -59.8573
 -58.9037
 -60.5999
 -59.0011
 -84.5176
 -84.5463
 -84.4888
 -84.5424
 -82.1061
 -81.8873
 -82.1849
 -81.9927
 -80.0901
 -80.353
 -80.4176
 -80.7636
 -84.1246
 -84.1568
 -84.1998
 -84.2286
 -57.0406
 -55.5042
 -57.1292
 -56.0281
 -84.8283
 -84.8455
 -84.8691
 -84.8571
 -37.464
 -36.9844
 -36.6971
 -37.5205
 -83.5227
 -83.5383
 -83.3169
 -83.3108
 -78.8727
 -78.3161
 -78.6455
 -79.0806
 -80.943
 -81.1302
 -80.9074
 -80.7762
 -75.6064
 -76.6593
 -77.1044
 -75.6471
 -58.9713
 -57.9283
 -59.1141
 -58.7847
 -68.9165
 -68.5713
 -67.5261
 -68.2799
 -83.7724
 -83.7789
 -83.6521
 -83.5515
 -79.1587
 -79.8349
 -78.8823
 -79.2828
 -69.3928
 -70.3099
 -70.3634
 -69.3846
 -83.0993
 -82.9047
 -83.2101
 -82.9315
 -83.2177
 -83.1422
 -83.0999
 -83.1719
 -70.1742
 -69.3641
 -70.5275
 -68.5218
 -61.8001
 -61.5263
 -61.4971
 -61.6492
 -82.9359
 -82.5212
 -82.9175
 -82.785
 -50.1425
 -50.853
 -50.8967
 -51.4383
 -83.0248
 -83.0074
 -83.3465
 -83.2346
 -84.8637
 -84.8501
 -84.8551
 -84.8376
 -81.5134
 -81.4248
 -81.61
 -81.0174
 -83.5943
 -83.7351
 -83.654
 -83.6665
 -53.3281
 -53.0881
 -53.8869
 -52.5354
 -82.5489
 -82.3786
 -82.4537
 -82.7436
 -84.5155
 -84.5138
 -84.5721
 -84.5627
 -66.4164
 -67.415
 -67.0003
 -66.5665
 -82.7838
 -83.0824
 -83.0142
 -82.9645
 -59.8746
 -60.9663
 -59.7047
 -58.393
 -71.8062
 -71.0116
 -70.6773
 -70.1314
 -80.2214
 -79.7975
 -79.6333
 -79.3936
 -58.0751
 -57.7088
 -57.271
 -57.8785
 -80.0525
 -79.6295
 -79.5668
 -79.9842
 -72.7631
 -71.2278
 -72.5066
 -70.6765
 -81.6019
 -81.8014
 -81.476
 -81.8222
 -68.1539
 -69.2308
 -68.7032
 -70.1678
 -81.065
 -80.9771
 -81.364
 -80.8205
 -82.9425
 -83.0508
 -83.1297
 -83.2023
 -83.4437
 -83.3934
 -83.4987
 -83.199
 -66.2876
 -66.5705
 -64.5821
 -67.155
 -74.2851
 -73.8
 -74.1307
 -75.2962
 -39.351
 -38.6178
 -38.1996
 -38.8226
 -69.1389
 -69.1173
 -67.9041
 -68.8061
 -79.4584
 -80.0888
 -79.9151
 -80.0893
 -73.5
 -73.2261
 -74.7544
 -72.4154
 -73.3611
 -74.6621
 -73.1355
 -74.4661
 -59.0624
 -58.3032
 -59.4427
 -59.3826
 -84.2801
 -84.3695
 -84.3647
 -84.26
 -84.8248
 -84.8363
 -84.8382
 -84.8432
 -80.7259
 -81.2268
 -80.2595
 -80.5618
 -69.4803
 -69.2358
 -70.3283
 -68.9893
 -82.8057
 -82.9207
 -83.0486
 -82.7856
 -56.8374
 -54.7739
 -55.4145
 -55.3296
 -56.5017
 -55.4341
 -55.2794
 -56.8055
 -38.3009
 -37.7971
 -38.6851
 -38.4918
 -81.6277
 -81.8729
 -81.796
 -82.1086
 -65.3982
 -67.0152
 -67.3908
 -65.5361
 -62.851
 -61.6132
 -62.8788
 -64.0811
 -84.8234
 -84.8424
 -84.8266
 -84.8505
 -61.7766
 -61.492
 -60.5519
 -61.7644
 -63.7739
 -63.0581
 -62.0715
 -63.6109
 -65.8209
 -66.8736
 -65.9172
 -64.8442
 -76.2283
 -75.926
 -76.7623
 -76.5324
 -64.1465
 -65.5038
 -64.6072
 -64.9585
 -71.5493
 -72.4124
 -72.6993
 -71.8802
 -73.909
 -73.6742
 -73.3252
 -72.8149
 -60.5771
 -59.2258
 -61.1492
 -59.7934
 -35.9658
 -35.677
 -36.9744
 -37.0235
 -58.0371
 -58.5323
 -59.239
 -58.5908
 -81.593
 -81.5139
 -81.8543
 -81.1844
 -81.7666
 -81.7392
 -82.0654
 -81.8673
 -83.3754
 -83.397
 -83.2685
 -83.5976
 -57.5148
 -57.4278
 -57.6557
 -58.0641
 -84.8118
 -84.8218
 -84.8089
 -84.8434
 -83.4324
 -83.592
 -83.4491
 -83.4576
 -51.091
 -50.9749
 -49.9415
 -50.1037
 -72.0337
 -72.0682
 -71.4734
 -73.6248
 -63.0539
 -63.8066
 -62.0335
 -62.655
 -63.6146
 -62.847
 -62.9873
 -57.9271
 -57.7781
 -57.7246
 -57.375
 -82.4477
 -82.2857
 -82.1692
 -82.5895
 -75.67
 -76.9085
 -76.3397
 -75.6059
 -82.1503
 -82.431
 -82.3219
 -69.0897
 -67.4068
 -68.3472
 -67.6986
 -78.2548
 -78.522
 -78.386
 -77.7072
 -84.0716
 -84.0582
 -84.0433
 -84.1709
 -57.3599
 -57.6841
 -59.53
 -58.7476
 -60.6596
 -59.7099
 -59.2804
 -59.9016
 -81.8903
 -81.5039
 -81.3599
 -81.4814
 -83.1048
 -82.9764
 -83.3665
 -83.3282
 -53.0923
 -52.9674
 -52.4398
 -51.5582
 -59.7905
 -60.0864
 -62.0419
 -61.45
 -73.5579
 -74.789
 -75.4571
 -73.8387
 -84.6957
 -84.7377
 -84.7067
 -84.7167
 -81.5482
 -81.9233
 -81.953
 -81.8415
 -78.0861
 -76.7961
 -78.0901
 -78.0043
 -41.2903
 -40.075
 -41.4147
 -41.2624
 -76.6202
 -75.6153
 -76.7463
 -77.3666
 -83.9851
 -83.9098
 -83.9949
 -83.8024
 -64.5879
 -62.5304
 -65.7068
 -64.7651
 -62.5268
 -62.8095
 -61.4514
 -62.1908
 -61.3085
 -59.8997
 -60.2747
 -60.7173
 -50.6582
 -50.5416
 -50.5197
 -50.9111
 -62.556
 -60.6697
 -60.7118
 -60.7058
 -82.0983
 -81.9996
 -82.0588
 -81.8173
 -55.6881
 -56.0587
 -56.5544
 -56.9634
 -84.7115
 -84.6764
 -84.6776
 -84.6998
 -55.9816
 -54.4734
 -54.73
 -55.7834
 -84.056
 -83.8953
 -84.0107
 -83.9236
 -76.4866
 -75.6732
 -75.6658
 -76.1982
 -71.003
 -71.8891
 -72.4848
 -71.1883
 -67.5418
 -67.7188
 -69.1741
 -67.8892
 -64.9613
 -64.9057
 -64.0789
 -63.5289
 -84.8322
 -84.84
 -84.845
 -84.8463
 -66.208
 -65.6835
 -66.1399
 -65.7727
 -84.8643
 -84.8534
 -84.8595
 -84.8462
 -83.0915
 -83.116
 -83.3424
 -83.1858
 -45.0113
 -46.338
 -46.0494
 -44.8503
 -84.5894
 -84.5727
 -84.6261
 -84.6512
 -59.9057
 -61.6241
 -60.2925
 -59.1267
 -43.4005
 -42.9088
 -42.7089
 -43.2284
 -83.8936
 -83.8844
 -83.8242
 -83.9098
 -84.7854
 -84.8018
 -84.8006
 -84.8046
 -79.4105
 -79.7573
 -79.2692
 -79.3165
 -83.5954
 -83.418
 -83.6563
 -83.5214
 -63.4493
 -61.945
 -62.6619
 -62.5977
 -80.8205
 -80.689
 -80.8991
 -81.3518
 -70.8068
 -69.8311
 -70.9642
 -71.0289
 -58.5824
 -59.0797
 -58.4408
 -58.364
 -52.8691
 -52.6762
 -52.6818
 -53.5452
 -75.6471
 -75.196
 -76.2066
 -74.909
 -78.1215
 -78.2982
 -77.938
 -77.4474
 -62.7584
 -62.3939
 -63.3026
 -64.0955
 -62.3912
 -60.92
 -62.4906
 -62.1002
 -82.3204
 -82.2909
 -81.985
 -82.1058
 -84.6431
 -84.6667
 -84.6881
 -84.6872
 -84.5525
 -84.4901
 -84.5631
 -84.5731
 -84.5522
 -84.4591
 -84.4726
 -84.5125
 -82.2977
 -82.1853
 -82.3986
 -82.0595
 -62.183
 -60.6807
 -61.8557
 -61.3941
 -62.7908
 -63.5371
 -63.9053
 -64.275
 -77.4695
 -77.4469
 -75.8721
 -76.07
 -83.3853
 -83.242
 -83.6073
 -83.4877
 -83.2933
 -83.1464
 -83.1864
 -83.3455
 -80.352
 -79.8808
 -80.1338
 -80.2064
 -81.2908
 -81.5895
 -81.0643
 -81.234
 -53.0094
 -52.7983
 -53.3211
 -54.4146
 -31.9817
 -31.5421
 -32.049
 -31.0258
 -65.5126
 -65.2796
 -63.5448
 -64.4927
 -35.2628
 -36.4147
 -36.0789
 -65.8591
 -65.718
 -66.4437
 -64.6481
 -84.0354
 -83.9688
 -84.0069
 -83.9156
 -79.7146
 -80.1119
 -80.1325
 -80.5133
 -84.686
 -84.6591
 -84.7255
 -84.6648
 -62.1633
 -62.4084
 -61.1265
 -62.3758
 -82.863
 -82.6836
 -82.9869
 -82.9335
 -80.3963
 -80.5557
 -79.8592
 -79.9693
 -84.7575
 -84.7692
 -84.7902
 -84.7696
 -84.0495
 -84.049
 -84.0972
 -84.2131
 -65.3326
 -66.8112
 -65.7932
 -65.2709
 -82.5294
 -82.4749
 -82.2344
 -82.4402
 -84.2197
 -84.0274
 -84.1656
 -84.0404
 -43.2036
 -41.7963
 -42.5675
 -41.9114
 -79.2918
 -79.6517
 -79.851
 -79.8988
 -84.1288
 -84.1374
 -84.2635
 -84.2117
 -82.0512
 -82.3597
 -81.7807
 -82.4787
 -83.7665
 -83.6214
 -83.8037
 -83.7501
 -62.4917
 -63.7318
 -64.4391
 -64.6695
 -83.9722
 -84.2288
 -83.9861
 -84.1893
 -74.4575
 -75.1207
 -73.0501
 -74.1963
 -76.8572
 -77.3123
 -77.8239
 -76.6225
 -83.975
 -84.0175
 -83.8848
 -84.0214
 -84.8798
 -84.866
 -84.8731
 -84.8845
 -53.5438
 -54.2582
 -54.7395
 -55.0889
 -70.675
 -71.4882
 -72.2787
 -70.9816
 -80.5291
 -80.3348
 -79.9584
 -80.1118
 -84.1292
 -84.193
 -84.1955
 -84.1878
 -66.8116
 -65.9329
 -66.1963
 -66.257
 -55.0739
 -56.6764
 -57.3675
 -55.4068
 -82.8857
 -82.8923
 -82.6367
 -82.5925
 -81.4885
 -81.8371
 -81.5349
 -81.642
 -84.6602
 -84.6718
 -84.6968
 -84.6543
 -58.5239
 -60.0704
 -58.1588
 -59.5797
 -84.8152
 -84.8328
 -84.825
 -84.8125
 -69.2997
 -71.0995
 -70.4107
 -69.8249
 -32.6641
 -32.4718
 -32.7386
 -33.0301
 -84.4445
 -84.5196
 -84.5307
 -84.5164
 -82.6097
 -82.7942
 -82.4899
 -82.0963
 -84.6619
 -84.6547
 -84.6276
 -84.6071
 -77.7752
 -76.8927
 -77.725
 -77.9989
 -75.9987
 -76.7193
 -76.8774
 -76.2475
 -83.7974
 -83.6183
 -83.7013
 -83.6743
 -62.1671
 -62.6787
 -61.5414
 -62.3843
 -60.3272
 -61.1553
 -61.1502
 -60.7819
 -39.1424
 -38.602
 -38.7489
 -38.4614
 -79.9741
 -80.3858
 -80.5537
 -80.8342
 -78.3492
 -77.8183
 -78.9222
 -78.2633
 -82.3111
 -81.7971
 -82.0113
 -82.3801
 -70.6912
 -72.193
 -72.3086
 -70.2391
 -84.5921
 -84.5689
 -84.6192
 -84.566
 -84.787
 -84.8236
 -84.7907
 -84.7716
 -82.2525
 -82.4825
 -82.7118
 -82.698
 -27.7098
 -27.6405
 -27.8262
 -28.088
 -73.7148
 -73.0553
 -74.0123
 -72.5844
 -74.7885
 -74.4212
 -73.3769
 -74.4335
 -73.9575
 -74.0407
 -72.9498
 -72.8747
 -83.778
 -83.7201
 -83.8862
 -83.668
 -42.1814
 -43.2245
 -41.3788
 -42.0716
 -36.9071
 -37.0559
 -36.0496
 -35.9829
 -83.5531
 -83.4148
 -83.6009
 -83.4157
 -67.9957
 -69.6146
 -67.3167
 -69.5818
 -73.5953
 -73.604
 -73.9853
 -74.0353
 -82.0466
 -81.7085
 -81.753
 -81.2911
 -61.2964
 -61.9677
 -62.5812
 -61.8561
 -84.1352
 -83.9486
 -84.0075
 -84.076
 -70.8898
 -68.3946
 -69.818
 -68.0577
 -68.3874
 -67.9764
 -66.8062
 -68.1501
 -55.4007
 -54.5202
 -56.0109
 -54.1101
 -74.1754
 -75.689
 -74.491
 -75.6469
 -84.2792
 -84.3391
 -84.3356
 -84.2542
 -82.6117
 -82.9542
 -83.0209
 -82.7269
 -60.3586
 -60.0183
 -61.452
 -61.3493
 -66.5228
 -68.2214
 -68.2722
 -66.4831
 -84.6371
 -84.6467
 -84.6658
 -84.6819
 -84.1124
 -84.0453
 -84.1071
 -84.0259
 -74.6487
 -74.2614
 -73.529
 -74.2081
 -57.3224
 -57.5277
 -57.4519
 -57.8807
 -46.4356
 -48.4819
 -48.1851
 -46.8254
 -82.4195
 -82.146
 -81.9535
 -82.3412
 -55.9084
 -54.543
 -55.7912
 -52.826
 -84.3127
 -84.2293
 -84.2043
 -84.3018
 -81.0719
 -81.5659
 -81.2334
 -80.7899
 -84.4882
 -84.4721
 -84.4459
 -84.437
 -83.0201
 -82.79
 -82.7482
 -82.8729
 -74.9145
 -74.485
 -74.789
 -75.5505
 -62.933
 -60.8947
 -61.3945
 -62.2083
 -48.3587
 -50.3509
 -48.5145
 -48.7218
 -53.0275
 -51.1734
 -53.1524
 -52.5873
 -61.8555
 -59.927
 -59.5998
 -60.1254
 -77.1962
 -77.4773
 -77.2116
 -75.9479
 -77.6764
 -77.4724
 -78.0617
 -76.8879
 -78.5372
 -77.8015
 -79.1487
 -78.3786
 -82.8627
 -82.6659
 -82.9139
 -82.8823
 -41.9846
 -40.9363
 -41.0232
 -40.9309
 -80.3703
 -80.4414
 -80.2006
 -80.6739
 -60.0646
 -58.4275
 -59.0453
 -59.5287
 -73.2725
 -74.6575
 -73.7823
 -74.5861
 -84.7655
 -84.7177
 -84.7716
 -84.7669
 -75.9997
 -75.4677
 -75.4432
 -75.0859
 -56.7446
 -56.1945
 -56.5527
 -55.0415
 -72.0845
 -72.1487
 -72.8744
 -73.5235
 -63.4993
 -64.3203
 -64.1605
 -63.165
 -74.9736
 -73.7678
 -75.3546
 -74.5405
 -42.47
 -41.6248
 -42.0068
 -42.6365
 -74.1032
 -74.1713
 -75.2866
 -75.2832
 -82.7843
 -82.7086
 -82.8677
 -82.7838
 -81.0675
 -81.1046
 -81.3284
 -81.1017
 -84.5294
 -84.4307
 -84.5267
 -84.4662
 -66.3433
 -66.0296
 -67.1899
 -66.3567
 -62.3093
 -63.3796
 -62.4267
 -64.8483
 -84.3058
 -84.2308
 -84.3441
 -84.3328
 -64.154
 -64.0456
 -65.7474
 -64.1701
 -84.3399
 -84.2902
 -84.3684
 -84.2974
 -79.2461
 -80.0857
 -79.4984
 -79.7552
 -77.4855
 -76.2136
 -77.436
 -77.7351
 -63.1804
 -64.4297
 -64.0738
 -63.0272
 -75.8419
 -75.6473
 -76.4312
 -75.4359
 -84.4095
 -84.3541
 -84.4123
 -84.4134
 -32.4903
 -32.5887
 -32.7282
 -31.9356
 -57.011
 -56.8393
 -56.8468
 -57.0929
 -56.0292
 -56.077
 -55.9934
 -55.1532
 -68.1753
 -68.606
 -67.5932
 -69.4209
 -73.4769
 -72.603
 -73.3752
 -72.8063
 -67.0363
 -66.408
 -65.8539
 -67.4012
 -84.6829
 -84.6518
 -84.7192
 -84.6305
 -62.2643
 -61.4981
 -61.7975
 -63.2141
 -82.3557
 -82.4568
 -82.6074
 -82.3292
 -76.8817
 -83.8982
 -83.7233
 -83.8196
 -83.837
 -81.4517
 -81.6936
 -81.9252
 -81.8425
 -52.8791
 -54.0327
 -54.4416
 -53.5842
 -69.6012
 -68.9624
 -69.8092
 -70.795
 -63.964
 -62.5171
 -63.6686
 -64.2734
 -84.0812
 -84.0092
 -83.9819
 -83.9894
 -74.6865
 -72.7798
 -74.1423
 -73.5672
 -84.1981
 -84.2433
 -84.1096
 -84.074
 -82.9134
 -83.0927
 -82.7848
 -83.1562
 -53.5305
 -54.2215
 -53.7159
 -54.9841
 -61.3324
 -59.7055
 -62.5337
 -61.4793
 -83.1152
 -83.2742
 -83.2562
 -83.0861
 -75.95
 -74.5166
 -75.4874
 -56.6197
 -55.726
 -56.0443
 -57.2126
 -82.256
 -81.7175
 -82.028
 -81.6731
 -64.7575
 -63.2682
 -63.1268
 -64.5547
 -76.5228
 -75.006
 -75.7013
 -76.547
 -84.5155
 -84.5131
 -84.4481
 -84.5171
 -67.6616
 -67.0785
 -66.4317
 -67.5957
 -83.9875
 -83.8867
 -84.0044
 -84.0346
 -78.1029
 -77.7669
 -78.2367
 -77.3813
 -83.4052
 -83.3021
 -83.1475
 -83.2607
 -84.4797
 -84.4832
 -84.5352
 -84.5054
 -68.2622
 -68.1091
 -69.0012
 -68.9604
 -32.174
 -33.4485
 -33.1036
 -33.8316
 -84.6139
 -84.5694
 -84.5981
 -84.5607
 -81.901
 -81.8194
 -81.4379
 -81.5991
 -58.1461
 -58.1504
 -60.4258
 -58.5797
 -72.4192
 -72.9634
 -73.5063
 -72.2096
 -44.3653
 -44.6775
 -44.8386
 -43.7668
 -84.3102
 -84.3287
 -84.429
 -84.3177
 -58.2968
 -57.7838
 -58.0584
 -58.1217
 -79.3561
 -79.8448
 -79.05
 -79.486
 -60.1979
 -57.6138
 -59.4705
 -59.8443
 -84.7511
 -84.7457
 -84.7569
 -84.6951
 -84.7887
 -84.7901
 -84.7661
 -84.7501
 -82.6803
 -82.3645
 -82.3484
 -82.6465
 -79.9846
 -80.2254
 -80.007
 -79.6626
 -80.2917
 -55.9878
 -56.3256
 -54.4272
 -55.7157
 -59.7698
 -59.1426
 -58.7515
 -60.3674
 -82.1978
 -82.5223
 -82.5557
 -82.4838
 -59.1552
 -60.0302
 -60.043
 -59.12
 -63.0716
 -62.8371
 -62.5322
 -64.0086
 -82.5674
 -82.6769
 -82.5337
 -82.3646
 -69.4002
 -70.8275
 -69.3605
 -70.8499
 -82.5562
 -82.5926
 -82.7074
 -82.8486
 -64.4153
 -64.1668
 -62.8495
 -64.4995
 -68.7648
 -70.0293
 -69.8566
 -70.0584
 -74.7412
 -75.4981
 -74.1877
 -75.415
 -80.1086
 -80.6528
 -80.1989
 -80.7098
 -83.6431
 -83.559
 -83.7522
 -83.7944
 -78.7369
 -78.5398
 -78.1416
 -78.1897
 -79.1073
 -79.1903
 -79.5841
 -79.31
 -53.7653
 -53.7453
 -54.2705
 -54.6716
 -82.2002
 -82.3332
 -82.3786
 -82.371
 -77.513
 -77.7725
 -77.97
 -77.3411
 -78.9383
 -79.0538
 -78.5084
 -78.9859
 -71.2063
 -71.6637
 -70.0533
 -70.8933
 -56.4054
 -56.3071
 -56.9228
 -55.4684
 -83.4873
 -83.5232
 -83.6633
 -83.5957
 -57.0091
 -55.8944
 -56.3842
 -57.8449
 -84.7643
 -84.7624
 -84.7799
 -84.7802
 -84.1699
 -84.1073
 -84.2485
 -84.226
 -84.3315
 -84.3207
 -84.3094
 -84.2854
 -83.8933
 -83.9293
 -83.8789
 -83.9711
 -82.805
 -82.9655
 -82.6842
 -82.9894
 -46.6737
 -45.9558
 -44.6087
 -79.0408
 -78.1473
 -78.9676
 -78.6043
 -83.9678
 -83.938
 -83.8806
 -84.0017
 -70.5825
 -69.1322
 -70.0032
 -70.4008
 -64.9051
 -65.0274
 -64.4589
 -65.3386
 -83.231
 -83.2526
 -83.4761
 -83.0352
 -74.1985
 -73.8039
 -74.5935
 -75.0951
 -66.2226
 -66.2898
 -66.0724
 -65.6134
 -84.6257
 -84.6576
 -81.5108
 -81.3609
 -81.0574
 -80.9723
 -75.092
 -75.1631
 -74.3616
 -80.3561
 -80.4451
 -80.2372
 -79.9086
 -48.2307
 -48.0733
 -49.4188
 -49.3239
 -84.0083
 -84.123
 -84.0982
 -84.0099
 -80.2798
 -80.1352
 -79.8394
 -79.8564
 -70.3607
 -69.07
 -69.5547
 -70.6169
 -78.1017
 -77.1965
 -77.5255
 -77.7963
 -58.879
 -58.4999
 -58.8931
 -58.6597
 -54.4233
 -56.3692
 -54.9798
 -55.3271
 -73.3604
 -74.3195
 -74.4399
 -73.8847
 -57.1993
 -56.8547
 -57.1681
 -58.4042
 -74.58
 -74.0395
 -74.2323
 -73.7992
 -84.1414
 -84.1439
 -84.0262
 -84.0006
 -59.8103
 -60.4918
 -60.8885
 -60.3754
 -39.0534
 -40.0445
 -38.9029
 -39.6139
 -80.676
 -79.7953
 -80.506
 -80.3929
 -72.1894
 -73.0105
 -72.0479
 -73.0775
 -58.4571
 -58.1997
 -59.2476
 -58.9204
 -75.7617
 -74.9812
 -75.9238
 -76.0868
 -84.7206
 -84.6978
 -84.7326
 -84.7172
 -63.661
 -63.651
 -63.0506
 -63.819
 -81.55
 -81.0972
 -81.0687
 -81.0634
 -72.06
 -73.0697
 -72.1577
 -73.952
 -82.8889
 -82.978
 -82.9162
 -83.152
 -84.2553
 -84.2138
 -84.2785
 -84.2006
 -58.6093
 -59.682
 -58.9329
 -60.9776
 -67.1874
 -68.0998
 -67.8696
 -67.6615
 -79.6938
 -79.6374
 -78.9565
 -79.2923
 -57.9245
 -58.2347
 -58.1801
 -58.553
 -32.999
 -32.4406
 -32.5099
 -32.8978
 -77.8535
 -77.0823
 -77.309
 -76.8671
 -31.3065
 -31.1684
 -31.2523
 -31.876
 -32.8348
 -33.8231
 -33.5725
 -33.0426
 -48.6943
 -49.6169
 -49.2584
 -48.3089
 -82.0455
 -81.7757
 -81.5545
 -81.3333
 -82.0263
 -82.1639
 -82.2567
 -82.4128
 -82.4362
 -82.2979
 -82.4318
 -82.0976
 -81.0642
 -80.5578
 -80.7008
 -81.1021
 -44.1802
 -43.3447
 -44.0759
 -43.936
 -60.4995
 -60.0139
 -61.2624
 -60.6954
 -57.7112
 -56.5808
 -57.1861
 -56.4843
 -69.5528
 -70.9381
 -69.659
 -71.0224
 -78.5348
 -78.1344
 -78.6122
 -78.1961
 -83.0321
 -82.9103
 -82.8292
 -83.0018
 -61.7693
 -63.4936
 -64.3104
 -62.5927
 -82.0933
 -76.8192
 -77.555
 -77.5594
 -77.1772
 -84.7516
 -84.7751
 -84.7979
 -84.7791
 -74.1445
 -74.5785
 -75.0172
 -74.3674
 -84.4126
 -84.5085
 -84.4379
 -59.9981
 -60.4806
 -61.05
 -59.811
 -35.5557
 -36.408
 -35.9425
 -36.4036
 -75.9642
 -76.0241
 -77.2687
 -75.4319
 -71.0691
 -69.1061
 -69.354
 -69.3441
 -57.7686
 -58.4705
 -59.3461
 -59.9149
 -59.2641
 -59.7213
 -58.7638
 -59.9087
 -47.1927
 -46.1526
 -46.8608
 -46.9219
 -80.1543
 -79.9592
 -80.1739
 -80.9323
 -76.5515
 -77.5879
 -76.2518
 -77.0911
 -67.6809
 -66.2186
 -67.7293
 -66.9588
 -73.788
 -73.2227
 -74.9861
 -82.8503
 -82.7829
 -82.7601
 -61.7536
 -62.0921
 -60.1186
 -59.7694
 -50.8019
 -50.5074
 -50.5126
 -50.764
 -64.0214
 -65.129
 -64.8243
 -63.7719
 -50.071
 -48.836
 -50.4585
 -48.4823
 -83.7666
 -83.92
 -83.7994
 -83.874
 -82.5004
 -82.6703
 -82.7098
 -82.8844
 -58.2974
 -57.9199
 -58.1165
 -57.9214
 -45.2035
 -43.6879
 -44.824
 -45.1716
 -78.1032
 -77.0129
 -78.0238
 -77.6682
 -84.6207
 -84.5411
 -84.6078
 -84.5507
 -49.5405
 -49.4149
 -48.8543
 -49.4576
 -81.633
 -81.3144
 -81.1838
 -81.7264
 -38.7843
 -38.1329
 -38.6563
 -38.2105
 -82.854
 -82.9043
 -82.8499
 -83.0914
 -70.7161
 -69.5441
 -71.3181
 -69.2667
 -83.8408
 -83.8621
 -83.9341
 -83.9752
 -59.4931
 -59.8727
 -59.9821
 -60.9947
 -68.0667
 -66.9512
 -67.0324
 -67.0666
 -60.9562
 -60.4037
 -62.0749
 -61.9023
 -64.7726
 -64.3381
 -66.028
 -63.307
 -78.0303
 -78.5538
 -78.5288
 -77.8163
 -73.4657
 -72.639
 -73.7915
 -73.7492
 -83.9029
 -83.7921
 -83.6387
 -83.6183
 -84.7179
 -84.736
 -84.6943
 -84.7177
 -71.2512
 -71.0923
 -70.1912
 -70.9766
 -84.0954
 -84.0321
 -84.0351
 -84.1493
 -82.5312
 -82.8229
 -83.0293
 -82.7418
 -42.6669
 -42.257
 -41.234
 -42.6744
 -55.1468
 -57.4699
 -56.8644
 -56.2149
 -70.3326
 -69.5807
 -69.2466
 -69.4777
 -47.5091
 -46.7991
 -46.6078
 -45.8655
 -78.5061
 -79.1596
 -79.1028
 -78.9551
 -83.572
 -83.8819
 -83.711
 -83.7213
 -48.2434
 -50.0881
 -48.2769
 -48.2087
 -73.9141
 -74.7916
 -74.2577
 -74.369
 -65.2795
 -65.257
 -65.2934
 -64.6295
 -33.0911
 -33.778
 -33.6378
 -33.0202
 -69.8175
 -69.6576
 -69.3173
 -70.7228
 -77.0962
 -77.6853
 -77.635
 -77.7063
 -82.9757
 -83.2733
 -83.111
 -83.2869
 -64.6146
 -65.0059
 -65.4871
 -76.8209
 -76.6263
 -76.293
 -76.7989
 -67.0704
 -67.4447
 -68.7521
 -67.6678
 -82.0745
 -81.7774
 -81.9695
 -82.0076
 -81.7615
 -82.0909
 -82.1875
 -81.9502
 -84.1554
 -84.0448
 -84.1207
 -84.0419
 -60.5604
 -61.1103
 -61.7984
 -60.7378
 -84.4807
 -84.5108
 -84.5388
 -84.4992
 -63.0634
 -64.2442
 -63.3617
 -62.7873
 -76.4068
 -77.4277
 -77.3345
 -77.941
 -78.2843
 -77.5143
 -77.6037
 -77.2989
 -32.0815
 -31.4155
 -31.9713
 -31.9814
 -65.5137
 -64.5776
 -65.5913
 -65.7433
 -75.2346
 -75.2618
 -76.0354
 -77.022
 -74.594
 -75.0123
 -74.9078
 -73.9427
 -84.6566
 -84.6656
 -84.6219
 -84.6863
 -62.9944
 -64.2358
 -64.9508
 -63.4156
 -65.4744
 -64.6499
 -65.8417
 -64.3259
 -82.8498
 -83.0234
 -82.8219
 -83.03
 -58.7382
 -58.446
 -57.6399
 -57.4567
 -58.4446
 -58.1206
 -58.958
 -58.1094
 -81.3358
 -80.7676
 -81.2847
 -81.1101
 -82.1758
 -82.0934
 -81.824
 -82.1136
 -78.454
 -78.4127
 -79.2434
 -79.1069
 -64.0395
 -63.44
 -80.757
 -80.3017
 -81.0169
 -80.4128
 -65.0379
 -65.7024
 -65.1728
 -65.3187
 -72.594
 -73.7567
 -74.0715
 -73.4593
 -84.4117
 -84.3636
 -84.3152
 -84.44
 -72.1046
 -72.4534
 -73.0346
 -73.2321
 -83.2944
 -83.4776
 -83.5828
 -83.2353
 -60.6293
 -63.3319
 -62.3748
 -63.2039
 -70.7387
 -69.7218
 -69.3385
 -70.1325
 -75.1989
 -76.5612
 -75.7579
 -76.3809
 -61.2043
 -60.1341
 -59.6777
 -60.3504
 -39.3928
 -39.3745
 -39.0995
 -38.4757
 -84.7642
 -84.762
 -84.763
 -84.7748
 -49.4874
 -49.1324
 -49.7745
 -49.0455
 -78.866
 -79.1788
 -78.5146
 -78.5938
 -39.134
 -39.0927
 -39.9917
 -39.0408
 -80.5251
 -80.9335
 -80.5321
 -80.4921
 -63.471
 -63.2447
 -62.9064
 -62.8048
 -63.8164
 -64.073
 -62.847
 -63.5284
 -77.303
 -77.7083
 -76.5763
 -77.4527
 -83.8637
 -83.6604
 -83.7856
 -83.6256
 -69.6586
 -71.2067
 -70.8046
 -71.1859
 -58.1421
 -57.772
 -58.1736
 -58.6019
 -83.6955
 -83.8923
 -83.7776
 -83.9217
 -61.5715
 -59.8093
 -62.019
 -62.0197
 -69.0817
 -70.423
 -70.1613
 -70.8626
 -82.4697
 -82.8705
 -82.843
 -82.6208
 -77.2045
 -77.9993
 -78.0278
 -78.0238
 -73.4454
 -72.568
 -73.5182
 -73.8841
 -84.357
 -84.438
 -84.4631
 -84.4856
 -84.1361
 -84.1629
 -84.1804
 -84.114
 -79.5909
 -79.5671
 -78.8046
 -79.2685
 -73.7542
 -74.4688
 -73.5388
 -75.5784
 -66.3918
 -66.8783
 -67.1199
 -68.9613
 -56.2339
 -56.0413
 -55.3172
 -83.0105
 -83.224
 -83.048
 -83.3206
 -38.0931
 -37.4787
 -36.8825
 -36.8221
 -81.4487
 -80.8989
 -81.1951
 -81.2202
 -61.6787
 -60.1855
 -60.9297
 -61.0129
 -59.3925
 -58.5751
 -58.8234
 -58.7537
 -83.897
 -83.7584
 -83.8043
 -84.011
 -78.2208
 -77.6391
 -78.4815
 -77.9012
 -73.4823
 -73.1267
 -64.8864
 -71.7902
 -73.0298
 -71.7378
 -72.4377
 -39.6225
 -40.266
 -81.0836
 -81.3225
 -81.5751
 -52.3844
 -53.2718
 -51.461
 -52.5093
 -80.9873
 -80.4852
 -80.6064
 -80.6038
 -68.6621
 -70.0366
 -69.7434
 -69.7204
 -64.4618
 -66.2774
 -65.1422
 -65.1097
 -84.4621
 -84.4718
 -84.5702
 -84.5084
 -53.0862
 -54.1818
 -52.9481
 -54.2572
 -81.123
 -81.2409
 -81.2125
 -81.5081
 -84.5028
 -84.532
 -84.455
 -84.4681
 -77.3823
 -76.5473
 -77.5508
 -76.8797
 -80.8412
 -80.2812
 -80.6125
 -80.5014
 -75.6518
 -76.6307
 -76.0086
 -74.5291
 -84.8121
 -84.7756
 -84.7846
 -84.7453
 -84.8034
 -84.788
 -84.777
 -84.7709
 -84.8099
 -84.8014
 -84.7995
 -84.8076
 -72.6788
 -71.5271
 -72.4971
 -72.4569
 -79.3521
 -78.7543
 -78.9251
 -79.3677
 -72.8935
 -72.6899
 -71.8602
 -72.5064
 -71.5746
 -70.9715
 -72.769
 -71.1471
 -82.0367
 -82.2148
 -82.2783
 -81.9783
 -83.8586
 -84.0624
 -84.0193
 -84.0523
 -83.5809
 -83.6472
 -83.4375
 -83.6368
 -76.1572
 -76.7195
 -76.0764
 -76.5154
 -74.8986
 -74.6533
 -74.5738
 -74.0814
 -63.1926
 -62.3522
 -62.852
 -64.1776
 -82.6933
 -82.9369
 -82.8851
 -82.644
 -47.3139
 -47.2866
 -46.4074
 -48.2393
 -83.5754
 -83.7109
 -83.5261
 -83.4584
 -78.9462
 -79.9053
 -78.8298
 -79.6626
 -78.0837
 -78.7523
 -78.1989
 -78.0737
 -53.3653
 -53.1883
 -52.2964
 -51.3277
 -29.7321
 -30.1671
 -29.6969
 -29.7484
 -67.2061
 -68.431
 -67.2089
 -67.5527
 -83.4363
 -83.1018
 -83.1628
 -83.4121
 -59.4359
 -58.5078
 -59.1446
 -59.9646
 -78.964
 -79.226
 -78.6135
 -79.4835
 -80.1606
 -80.6309
 -81.0486
 -80.8243
 -82.755
 -82.8919
 -82.5144
 -82.6809
 -45.5686
 -44.6602
 -44.8364
 -45.4359
 -46.7294
 -46.6845
 -46.2652
 -46.1936
 -83.3417
 -83.6419
 -83.4573
 -83.534
 -82.2401
 -81.6842
 -81.8306
 -82.1696
 -67.1275
 -67.2629
 -66.5894
 -66.7442
 -75.8525
 -75.3521
 -76.1555
 -76.6831
 -79.0535
 -79.3082
 -79.0334
 -79.0117
 -65.6169
 -65.0928
 -66.7705
 -65.1998
 -81.1817
 -80.9621
 -80.8695
 -80.565
 -84.9105
 -84.8983
 -84.907
 -84.9089
 -79.735
 -80.2078
 -80.2726
 -80.6872
 -76.0182
 -76.5724
 -75.8025
 -77.0312
 -75.9628
 -75.7956
 -74.9275
 -76.1004
 -78.9512
 -79.2463
 -78.9121
 -78.328
 -84.6078
 -84.6255
 -84.5715
 -84.6129
 -83.9675
 -83.8493
 -83.9494
 -80.8666
 -80.7853
 -81.1997
 -80.8015
 -58.3237
 -58.2372
 -58.98
 -58.0684
 -70.5645
 -70.7903
 -69.756
 -70.9851
 -83.7121
 -83.4875
 -83.5351
 -83.4746
 -63.2738
 -63.5927
 -63.9659
 -64.5014
 -69.0083
 -67.7979
 -67.7244
 -69.1412
 -70.3959
 -69.9726
 -68.2467
 -69.4909
 -81.8599
 -81.6255
 -81.5589
 -81.4417
 -78.9398
 -78.2516
 -79.0908
 -77.6888
 -80.8266
 -79.7974
 -80.199
 -80.311
 -60.4108
 -60.671
 -61.0746
 -60.4739
 -71.1109
 -72.036
 -72.3172
 -71.2642
 -81.4625
 -81.1137
 -81.4922
 -81.6775
 -67.4244
 -68.1016
 -68.7397
 -66.889
 -79.504
 -79.8458
 -79.9747
 -79.5331
 -59.6743
 -59.3633
 -59.9647
 -59.2099
 -84.5877
 -84.6027
 -84.5275
 -84.585
 -62.2548
 -61.1697
 -62.5218
 -63.0817
 -59.7964
 -57.6192
 -58.971
 -58.9583
 -82.1691
 -82.0868
 -82.3073
 -82.4226
 -63.1257
 -63.4746
 -63.7201
 -63.4716
 -80.5539
 -80.4769
 -80.6409
 -80.1188
 -51.8953
 -52.2576
 -50.6789
 -51.0388
 -78.0094
 -77.7436
 -77.9823
 -78.5576
 -84.2364
 -84.3474
 -84.222
 -84.3083
 -78.2177
 -77.2526
 -77.164
 -78.0052
 -82.8736
 -83.0192
 -82.844
 -82.8786
 -80.1521
 -79.8452
 -79.9055
 -80.4019
 -79.4935
 -79.8334
 -79.7954
 -80.3236
 -84.6342
 -84.6191
 -84.6488
 -84.5401
 -59.9269
 -59.3641
 -58.8524
 -58.596
 -60.5018
 -59.9844
 -58.953
 -59.9455
 -83.9729
 -83.9228
 -83.8773
 -84.0342
 -84.4525
 -84.4963
 -84.4257
 -65.3889
 -65.0527
 -64.9238
 -65.6867
 -81.5226
 -81.9212
 -81.3862
 -81.3859
 -78.4618
 -78.7725
 -77.9646
 -78.8531
 -58.4624
 -59.5945
 -57.399
 -58.4235
 -82.8848
 -83.0744
 -82.9993
 -82.9524
 -75.2642
 -73.9785
 -74.2679
 -75.1099
 -77.7912
 -77.0158
 -77.0025
 -76.99
 -83.1259
 -83.3214
 -83.2768
 -83.2327
 -56.708
 -56.3714
 -56.8454
 -57.3128
 -65.1798
 -63.4965
 -64.2025
 -63.7706
 -84.7694
 -84.7369
 -84.7753
 -84.7549
 -60.5868
 -60.4373
 -60.7347
 -62.2635
 -57.7356
 -57.3813
 -57.5253
 -57.6214
 -76.074
 -76.255
 -75.8548
 -77.0104
 -40.1666
 -40.5575
 -39.7459
 -41.2047
 -77.5831
 -77.7456
 -77.2723
 -77.7087
 -83.4043
 -83.3566
 -83.2846
 -83.2291
 -83.9468
 -83.832
 -83.8992
 -53.4738
 -53.5009
 -54.3822
 -53.7856
 -62.8454
 -64.1186
 -62.364
 -63.6262
 -58.7652
 -58.3791
 -57.1373
 -57.3627
 -64.8689
 -63.826
 -64.5479
 -64.4139
 -84.7683
 -84.7907
 -84.8069
 -84.7896
 -54.9864
 -55.0586
 -54.5488
 -53.7465
 -61.6328
 -60.6857
 -61.6157
 -63.317
 -83.9468
 -84.068
 -83.965
 -83.9181
 -69.4779
 -69.3386
 -70.2313
 -62.7794
 -61.7685
 -63.1369
 -77.9985
 -77.9988
 -77.1367
 -41.6496
 -43.0352
 -43.209
 -42.0972
 -78.1152
 -78.7276
 -78.5054
 -78.9168
 -77.2233
 -77.8564
 -76.6268
 -76.6494
 -83.9387
 -84.0362
 -83.9364
 -83.9361
 -84.3754
 -84.3778
 -84.4807
 -84.3689
 -57.4638
 -55.9735
 -55.8895
 -58.5045
 -79.1396
 -79.7199
 -79.9025
 -79.3603
 -78.2755
 -78.8594
 -79.0716
 -78.9631
 -73.7962
 -75.2105
 -74.5579
 -75.3588
 -67.278
 -67.6797
 -68.1553
 -66.0523
 -79.3218
 -78.4614
 -79.2688
 -79.2511
 -60.4452
 -60.8343
 -60.3779
 -61.2045
 -84.3798
 -84.3394
 -84.3831
 -84.3926
 -65.8901
 -65.3506
 -65.9251
 -67.113
 -83.872
 -83.7436
 -83.8516
 -83.7106
 -84.5134
 -84.4891
 -84.393
 -84.4772
 -84.6728
 -84.6656
 -84.6409
 -84.6256
 -62.4912
 -61.7002
 -82.696
 -82.5733
 -82.4282
 -82.6046
 -59.2387
 -61.0286
 -60.3141
 -59.6342
 -83.1554
 -83.4659
 -83.4151
 -83.4567
 -83.706
 -83.7059
 -83.8332
 -83.6934
 -64.9423
 -66.2786
 -66.2416
 -65.6682
 -79.3108
 -79.3287
 -79.7896
 -79.6967
 -64.7249
 -64.6986
 -65.8329
 -64.7917
 -71.4948
 -71.2348
 -71.6387
 -72.6257
 -34.0785
 -35.302
 -33.7527
 -34.7542
 -84.0735
 -84.0051
 -84.1805
 -84.089
 -65.3985
 -64.653
 -65.9378
 -67.3335
 -53.1652
 -52.3307
 -52.3542
 -53.4603
 -73.3861
 -72.6471
 -73.9153
 -73.8262
 -52.5149
 -50.8143
 -50.189
 -52.6686
 -73.3349
 -72.3089
 -71.4376
 -72.9824
 -82.3343
 -82.2083
 -82.5546
 -82.0529
 -74.3422
 -73.6158
 -73.6514
 -74.024
 -84.0129
 -84.1394
 -84.0456
 -73.3909
 -74.3843
 -73.6499
 -74.4903
 -34.1988
 -33.6924
 -33.7795
 -33.5491
 -84.791
 -84.7932
 -84.8109
 -84.7989
 -79.2863
 -79.0155
 -79.4252
 -78.8514
 -83.4308
 -83.2902
 -83.0654
 -83.3417
 -57.4827
 -58.5885
 -55.6894
 -56.9574
 -66.5936
 -67.8522
 -65.8788
 -67.4182
 -67.2125
 -69.2558
 -67.8534
 -69.1428
 -84.4924
 -84.4306
 -84.5056
 -84.5576
 -69.1771
 -68.2707
 -67.4005
 -67.8914
 -84.6957
 -84.6735
 -84.7089
 -84.6568
 -81.8949
 -81.4206
 -81.4813
 -81.9396
 -60.5027
 -60.8186
 -61.2105
 -60.3996
 -39.4836
 -39.8875
 -40.7478
 -39.2755
 -71.6501
 -69.8812
 -70.986
 -69.3634
 -75.0572
 -75.2155
 -75.943
 -75.0956
 -82.3174
 -82.4336
 -82.2051
 -82.0109
 -34.9715
 -33.91
 -35.2012
 -34.8088
 -72.1408
 -71.399
 -72.7707
 -72.2254
 -84.677
 -84.6184
 -84.6125
 -84.6177
 -83.7857
 -83.8862
 -83.8357
 -83.7732
 -83.4507
 -83.554
 -83.6537
 -83.4674
 -82.9783
 -82.8635
 -82.7283
 -82.8637
 -83.6209
 -83.8603
 -83.7575
 -83.7228
 -80.713
 -80.8342
 -80.7373
 -80.7908
 -61.9425
 -64.3792
 -65.7222
 -65.7266
 -65.2265
 -82.0554
 -81.7429
 -81.8572
 -81.6584
 -81.9117
 -81.9798
 -81.4132
 -81.6173
 -50.7701
 -51.1321
 -51.0419
 -50.7665
 -84.27
 -84.268
 -84.2325
 -84.2911
 -83.1996
 -83.3933
 -83.6031
 -83.4714
 -60.6248
 -62.1096
 -61.9831
 -61.2633
 -61.3296
 -60.9514
 -64.0837
 -64.9124
 -64.4668
 -65.5737
 -60.195
 -58.6158
 -56.6467
 -57.7987
 -81.6932
 -82.0666
 -81.936
 -81.7524
 -84.8008
 -84.7935
 -84.8007
 -84.8099
 -76.2944
 -75.6788
 -76.1939
 -75.2771
 -84.4141
 -84.2802
 -84.1895
 -84.2126
 -72.686
 -72.6895
 -71.9549
 -72.9965
 -81.3521
 -81.1075
 -80.7891
 -80.8148
 -57.6451
 -57.279
 -57.1858
 -55.658
 -79.5546
 -80.0383
 -79.2335
 -79.5873
 -80.5143
 -81.1402
 -81.3354
 -80.6984
 -62.1377
 -61.6525
 -60.7037
 -61.2333
 -69.1126
 -68.3612
 -70.5281
 -69.3708
 -72.9301
 -72.8314
 -71.7803
 -71.169
 -79.1502
 -79.6031
 -79.3451
 -79.4893
 -48.5867
 -49.0429
 -49.439
 -50.5331
 -80.1054
 -79.5865
 -80.0414
 -80.2492
 -69.3321
 -67.901
 -69.5186
 -70.5469
 -82.5303
 -82.3956
 -82.5144
 -82.2302
 -83.6759
 -83.5581
 -83.6765
 -83.5645
 -84.6299
 -84.6201
 -84.5757
 -84.6106
 -84.3351
 -84.3813
 -84.261
 -84.785
 -84.7655
 -84.7925
 -84.7828
 -83.4361
 -83.306
 -83.0606
 -83.2572
 -74.6659
 -74.4256
 -75.1749
 -75.0369
 -84.3175
 -84.2501
 -84.2008
 -84.3185
 -78.0146
 -78.2003
 -77.7201
 -77.5682
 -79.1054
 -79.4215
 -79.1897
 -84.6493
 -84.6778
 -84.6566
 -84.6431
 -84.2868
 -84.2301
 -84.2525
 -78.0692
 -77.5735
 -78.3454
 -78.5951
 -68.8092
 -69.6894
 -68.7594
 -70.6088
 -82.152
 -81.9195
 -81.8167
 -81.7423
 -84.5588
 -84.5918
 -84.5926
 -84.5612
 -62.1446
 -61.9964
 -63.0622
 -61.5001
 -74.9703
 -74.7654
 -73.8571
 -73.8664
 -75.9522
 -77.023
 -75.5906
 -76.0661
 -82.2144
 -81.9115
 -82.1975
 -82.3011
 -63.6468
 -62.6537
 -64.6759
 -62.8829
 -58.2243
 -57.2706
 -58.3669
 -57.6324
 -76.7603
 -76.8583
 -76.651
 -77.5516
 -84.5786
 -84.5315
 -84.5296
 -84.5602
 -66.3958
 -64.9045
 -66.5404
 -65.8673
 -58.9683
 -60.2239
 -58.8142
 -60.0335
 -80.329
 -79.524
 -80.2878
 -80.285
 -64.2847
 -64.5864
 -63.7546
 -60.1377
 -61.0158
 -60.7435
 -79.6571
 -79.4836
 -80.1974
 -79.6032
 -60.0643
 -59.6642
 -58.7388
 -59.9735
 -61.4401
 -60.0696
 -61.0093
 -61.1787
 -80.243
 -80.4936
 -80.0922
 -59.2625
 -58.9397
 -83.7183
 -83.7523
 -83.9876
 -83.9939
 -82.0769
 -82.5811
 -82.6
 -82.346
 -48.8521
 -50.0382
 -47.9015
 -50.2702
 -41.7337
 -41.6863
 -40.9423
 -41.867
 -63.4685
 -61.1133
 -62.6751
 -62.6629
 -84.444
 -84.4292
 -84.4638
 -84.4316
 -80.9282
 -80.647
 -80.3627
 -80.6435
 -56.9391
 -56.7898
 -56.7332
 -56.6569
 -64.9269
 -65.1841
 -65.689
 -67.4937
 -66.1803
 -66.1387
 -65.7619
 -62.8588
 -63.8143
 -63.9728
 -64.0308
 -63.8614
 -62.9782
 -64.4344
 -64.594
 -59.118
 -58.0847
 -59.0428
 -57.8699
 -84.7629
 -84.7723
 -84.7729
 -84.7558
 -84.3415
 -84.4189
 -84.3439
 -76.5293
 -75.9397
 -76.5911
 -75.437
 -63.0913
 -61.2809
 -63.2804
 -62.6317
 -84.8159
 -84.8331
 -59.9144
 -59.2812
 -59.4193
 -58.8104
 -78.0494
 -79.3563
 -78.5209
 -78.9174
 -81.0195
 -80.9062
 -60.3094
 -60.0412
 -61.5705
 -60.2581
 -84.515
 -84.5294
 -84.4891
 -84.5682
 -84.7607
 -84.7411
 -84.7263
 -84.7646
 -73.5564
 -74.1093
 -73.4782
 -49.0602
 -49.9722
 -49.3578
 -60.8659
 -62.5577
 -60.7485
 -61.215
 -82.8975
 -82.6546
 -83.0482
 -82.6246
 -66.9259
 -65.4147
 -65.7086
 -64.3898
 -66.4709
 -65.5639
 -67.0115
 -65.1077
 -81.7277
 -81.5622
 -81.8592
 -82.2121
 -35.6287
 -35.8463
 -35.3031
 -34.5925
 -82.5938
 -82.7288
 -82.8907
 -82.8038
 -82.9357
 -82.9047
 -83.1222
 -83.2297
 -58.0085
 -58.0067
 -56.4829
 -57.6386
 -84.3085
 -84.325
 -84.3423
 -84.2731
 -34.0553
 -32.9842
 -33.3609
 -32.5843
 -84.5971
 -84.462
 -84.4713
 -84.4212
 -83.6155
 -83.5595
 -64.7759
 -65.6553
 -65.159
 -66.3447
 -56.7933
 -55.7577
 -56.2952
 -57.2084
 -84.274
 -84.3412
 -84.3137
 -84.307
 -68.761
 -69.3622
 -69.2787
 -68.3671
 -84.519
 -84.4653
 -84.5114
 -64.1377
 -62.8484
 -62.1817
 -55.4063
 -56.5888
 -56.9028
 -84.6766
 -84.6895
 -84.6705
 -84.6558
 -64.7502
 -64.1286
 -64.1644
 -64.0174
 -84.3118
 -84.3341
 -55.9455
 -56.6008
 -55.6874
 -56.037
 -77.5997
 -78.2684
 -78.4134
 -77.4907
 -66.8998
 -65.9042
 -71.2975
 -73.5746
 -73.1562
 -71.8006
 -64.39
 -64.0987
 -64.2748
 -62.9423
 -84.6964
 -84.7629
 -84.6925
 -84.7248
 -58.2918
 -57.9035
 -58.118
 -83.871
 -34.4114
 -34.4458
 -34.4732
 -34.0563
 -84.1666
 -84.1577
 -84.241
 -84.0304
 -66.4712
 -66.5829
 -68.5251
 -68.1892
 -82.2083
 -82.1564
 -82.1371
 -82.1254
 -64.0304
 -63.1481
 -62.5718
 -63.8349
 -81.5967
 -50.7241
 -50.5215
 -50.4968
 -50.8146
 -81.1734
 -81.2942
 -81.0929
 -80.7276
 -83.4125
 -83.5496
 -83.5459
 -83.2927
 -83.5581
 -83.3611
 -83.6396
 -84.2037
 -84.2584
 -84.2713
 -84.2263
 -57.821
 -58.3186
 -59.6412
 -59.0303
 -83.7478
 -83.734
 -83.7397
 -83.8619
 -53.0737
 -52.8828
 -53.247
 -51.8975
 -83.5627
 -83.6444
 -83.7338
 -83.7389
 -76.1471
 -75.5933
 -75.4242
 -75.0496
 -82.2062
 -82.4255
 -82.5111
 -82.5943
 -77.8547
 -77.5165
 -77.2144
 -76.9533
 -84.5387
 -84.426
 -78.8339
 -78.1448
 -78.1926
 -78.7754
 -49.9068
 -49.4956
 -50.87
 -49.4248
 -52.259
 -51.7559
 -53.8631
 -52.072
 -77.9371
 -78.6088
 -78.5724
 -78.7169
 -82.9045
 -82.9318
 -82.8108
 -83.1429
 -83.1441
 -82.9853
 -83.055
 -83.2455
 -84.5438
 -84.4402
 -84.4828
 -84.4453
 -83.2704
 -83.5385
 -83.4088
 -83.2798
 -51.9244
 -52.2302
 -52.9292
 -51.437
 -59.2022
 -59.2737
 -58.8907
 -61.0851
 -84.8249
 -84.8139
 -84.8129
 -84.8103
 -79.6277
 -79.7342
 -79.7516
 -80.4874
 -60.7337
 -62.4398
 -60.6502
 -62.3483
 -37.489
 -37.2574
 -38.5192
 -37.1554
 -84.1383
 -84.201
 -84.0776
 -84.3121
 -62.952
 -62.8767
 -63.3382
 -64.2058
 -71.4851
 -72.6992
 -70.6985
 -71.8411
 -53.1129
 -52.576
 -52.9438
 -53.6066
 -81.3959
 -81.2071
 -81.4204
 -81.471
 -84.4785
 -84.4842
 -84.4647
 -84.485
 -80.2308
 -79.5969
 -79.7483
 -79.5851
 -73.8498
 -73.7721
 -75.1205
 -74.5938
 -50.8389
 -51.3931
 -51.9116
 -49.9751
 -84.3902
 -81.8313
 -82.0998
 -81.7194
 -81.9982
 -70.8279
 -70.2294
 -69.0818
 -69.2827
 -82.4981
 -82.6876
 -82.6889
 -82.8093
 -60.5801
 -60.0758
 -60.0015
 -61.572
 -81.617
 -81.7864
 -81.2937
 -49.2075
 -50.5763
 -49.4221
 -49.0587
 -83.7605
 -83.4378
 -83.6688
 -83.5533
 -58.3447
 -58.198
 -58.9158
 -58.4241
 -84.8704
 -84.8603
 -84.8635
 -84.8805
 -63.8727
 -64.1241
 -64.2254
 -64.1213
 -40.7373
 -43.0178
 -42.8444
 -42.1182
 -48.1414
 -48.0397
 -49.1877
 -48.7484
 -84.8206
 -84.8135
 -84.7905
 -84.7939
 -84.5957
 -84.5943
 -84.6479
 -84.6499
 -76.6171
 -77.4534
 -77.1817
 -77.392
 -64.6771
 -64.5564
 -65.4748
 -78.9072
 -78.8789
 -77.7987
 -78.2711
 -81.826
 -81.6855
 -82.0026
 -82.1479
 -77.8077
 -79.172
 -78.7566
 -78.6562
 -77.1309
 -77.4965
 -78.49
 -77.9178
 -84.6692
 -84.6206
 -84.6387
 -84.6202
 -60.414
 -60.0581
 -61.5334
 -60.4229
 -48.1622
 -46.0888
 -46.3681
 -82.7093
 -82.4542
 -82.692
 -82.6278
 -84.2639
 -84.3447
 -84.2468
 -84.228
 -62.003
 -61.3279
 -62.3058
 -60.6878
 -60.8956
 -61.3926
 -59.8582
 -84.2939
 -84.2445
 -84.3246
 -84.1675
 -74.7234
 -74.6407
 -75.3487
 -74.5555
 -60.8717
 -59.4468
 -60.594
 -60.7921
 -71.0016
 -70.3196
 -70.4646
 -71.262
 -83.7981
 -83.7761
 -83.6238
 -83.802
 -60.9086
 -62.8763
 -59.9136
 -62.5529
 -72.168
 -70.4125
 -71.1781
 -71.4273
 -66.4684
 -67.3948
 -66.5313
 -84.6706
 -84.6568
 -84.6095
 -84.6552
 -74.4115
 -74.795
 -73.8938
 -74.9729
 -84.8107
 -84.8076
 -84.8339
 -78.2252
 -78.4898
 -78.494
 -78.1758
 -50.5562
 -51.6094
 -49.9039
 -50.311
 -80.63
 -80.741
 -81.0568
 -81.4562
 -76.6985
 -77.7055
 -76.3857
 -62.5412
 -63.1638
 -64.2352
 -62.9756
 -57.8342
 -58.131
 -57.5815
 -58.3069
 -62.5349
 -63.1305
 -64.072
 -62.193
 -40.0363
 -40.091
 -41.3422
 -41.4573
 -68.4667
 -68.0303
 -67.3756
 -67.4345
 -66.8711
 -66.3234
 -68.3147
 -65.9844
 -84.2268
 -84.1537
 -84.1613
 -84.2933
 -55.2125
 -56.9292
 -56.3131
 -55.9643
 -81.754
 -81.5242
 -81.8513
 -81.9096
 -84.4875
 -84.4857
 -84.4338
 -84.413
 -84.5341
 -84.4752
 -84.5117
 -84.5561
 -83.71
 -83.8437
 -83.6803
 -83.8263
 -84.6589
 -84.7012
 -84.7015
 -84.6128
 -84.405
 -84.4324
 -84.4199
 -84.7912
 -84.7244
 -84.7561
 -84.7501
 -53.4736
 -52.8295
 -53.299
 -52.5175
 -70.7342
 -69.7922
 -69.0248
 -69.9596
 -66.5021
 -68.1626
 -67.0177
 -68.3482
 -69.4897
 -68.8612
 -68.625
 -68.3397
 -84.5141
 -84.438
 -84.4617
 -84.4937
 -71.4565
 -71.5542
 -70.536
 -69.7787
 -62.7846
 -61.1727
 -61.2086
 -62.294
 -81.7243
 -81.6096
 -82.0292
 -81.5766
 -63.3492
 -64.9512
 -63.3561
 -64.0701
 -82.9083
 -82.702
 -82.7301
 -78.4786
 -79.22
 -79.1041
 -84.1657
 -84.0734
 -84.1847
 -84.1512
 -71.0597
 -71.4903
 -70.654
 -70.6233
 -81.2014
 -80.8215
 -80.9009
 -81.167
 -68.8138
 -67.1478
 -68.0423
 -69.0636
 -84.8252
 -84.8184
 -84.6729
 -84.6437
 -84.613
 -84.6693
 -51.689
 -51.4367
 -51.4469
 -50.9367
 -81.4665
 -81.8094
 -81.8401
 -82.0852
 -62.1246
 -64.1163
 -62.8606
 -61.5307
 -31.3683
 -29.9995
 -31.2312
 -30.808
 -64.2992
 -63.8505
 -63.024
 -63.7033
 -82.8645
 -82.6163
 -82.8192
 -55.8267
 -55.6351
 -57.0899
 -56.9285
 -84.4538
 -84.4083
 -84.4952
 -84.458
 -64.8357
 -65.2702
 -64.8003
 -65.2427
 -81.3747
 -81.6934
 -81.439
 -81.4025
 -50.6874
 -51.4138
 -50.0084
 -50.9277
 -37.2954
 -36.9913
 -37.7228
 -37.9479
 -61.7236
 -62.6506
 -61.6149
 -61.3867
 -69.3965
 -68.916
 -69.8346
 -79.0854
 -78.1873
 -79.3539
 -78.9692
 -58.2508
 -58.2257
 -56.6107
 -82.8049
 -82.7571
 -82.842
 -83.0101
 -83.7402
 -83.9756
 -83.7534
 -83.9585
 -82.4646
 -82.2318
 -82.4694
 -82.4696
 -84.4658
 -84.315
 -84.397
 -84.3961
 -83.4572
 -83.219
 -83.2382
 -65.5447
 -66.3329
 -66.3637
 -66.8664
 -83.15
 -82.9478
 -82.0889
 -81.6845
 -81.5456
 -82.0079
 -82.8874
 -82.7572
 -82.7626
 -82.9516
 -62.124
 -62.9484
 -62.5516
 -61.1351
 -63.5144
 -64.3819
 -63.364
 -64.225
 -31.7461
 -32.3037
 -32.4416
 -32.0564
 -63.2488
 -64.0784
 -63.2415
 -65.4899
 -64.8411
 -64.6312
 -65.0165
 -75.7359
 -75.6795
 -75.1716
 -74.9758
 -65.9133
 -67.4129
 -67.4216
 -66.4997
 -51.4856
 -52.2788
 -51.4528
 -51.2804
 -83.5578
 -83.4036
 -83.6067
 -83.372
 -76.4156
 -77.062
 -76.2198
 -75.72
 -84.667
 -84.6777
 -84.6478
 -84.6661
 -79.9968
 -79.4296
 -79.962
 -79.6665
 -84.3062
 -84.3025
 -84.3158
 -38.9868
 -40.0334
 -39.4891
 -39.7512
 -82.7079
 -83.0275
 -82.7242
 -82.7645
 -72.4899
 -71.4478
 -72.6589
 -72.1141
 -59.6534
 -58.6998
 -67.8498
 -68.0222
 -68.6823
 -68.3609
 -72.5154
 -71.2426
 -71.7416
 -84.2503
 -84.2747
 -84.2298
 -84.2889
 -84.1597
 -84.104
 -84.0148
 -84.1078
 -60.1291
 -59.6045
 -60.3638
 -59.8451
 -75.3108
 -74.8043
 -63.9037
 -65.3861
 -64.4958
 -63.3025
 -83.1355
 -83.0608
 -83.3304
 -83.3092
 -49.7764
 -49.4786
 -49.5937
 -49.8709
 -61.6953
 -62.3051
 -61.2672
 -61.2129
 -63.9183
 -65.1624
 -65.7614
 -65.1708
 -77.8266
 -77.593
 -77.8728
 -78.728
 -83.1528
 -83.0772
 -82.9378
 -82.9853
 -83.4597
 -83.2128
 -83.0737
 -83.3112
 -35.013
 -34.8458
 -34.6152
 -34.2763
 -56.3757
 -57.4891
 -57.8101
 -78.9853
 -77.9327
 -78.5427
 -79.8454
 -80.4422
 -79.9097
 -80.327
 -84.5014
 -84.5318
 -84.5103
 -84.5555
 -74.2263
 -63.2797
 -63.1123
 -61.527
 -62.1575
 -81.4814
 -81.1794
 -80.7729
 -81.0629
 -83.5084
 -83.3367
 -83.4065
 -83.5681
 -84.3902
 -84.4216
 -60.4524
 -60.1409
 -59.5011
 -59.288
 -76.2366
 -76.7648
 -76.4351
 -77.0717
 -57.3224
 -57.104
 -57.3613
 -57.6339
 -79.8607
 -69.6908
 -68.639
 -70.746
 -71.3147
 -66.896
 -67.7961
 -68.234
 -67.5529
 -84.5356
 -84.4442
 -84.6719
 -84.7036
 -84.6786
 -84.6761
 -43.3572
 -42.8185
 -43.0301
 -43.4977
 -83.3333
 -83.3947
 -83.1638
 -83.5086
 -80.3838
 -79.5486
 -79.6829
 -80.2798
 -36.6794
 -36.9614
 -37.0063
 -36.3967
 -75.9333
 -76.0556
 -76.4154
 -75.4725
 -75.4932
 -74.3951
 -73.8406
 -74.1541
 -58.5182
 -56.9656
 -58.529
 -57.9786
 -84.8107
 -84.82
 -84.8239
 -84.8115
 -74.0303
 -72.959
 -73.2702
 -64.4501
 -65.9688
 -65.7862
 -64.606
 -84.6995
 -84.7709
 -84.7236
 -84.7358
 -65.045
 -64.2908
 -62.9971
 -65.8643
 -72.201
 -73.0019
 -83.8429
 -83.8942
 -83.9961
 -83.7409
 -79.0478
 -79.0007
 -79.7247
 -79.5024
 -84.5684
 -84.5171
 -84.5169
 -84.5448
 -73.8675
 -75.3
 -62.6419
 -63.2307
 -63.5223
 -63.3288
 -65.4129
 -65.4001
 -66.1583
 -66.7124
 -84.0647
 -84.0357
 -83.8943
 -83.932
 -83.6868
 -83.6512
 -83.7149
 -83.7631
 -83.2537
 -82.9062
 -83.2443
 -83.0488
 -67.0905
 -68.7138
 -67.9985
 -67.0065
 -43.9605
 -43.3664
 -43.8607
 -44.0643
 -84.5947
 -84.6222
 -84.579
 -84.5896
 -57.7355
 -58.0262
 -58.2612
 -59.1688
 -78.4304
 -78.6517
 -79.1482
 -78.277
 -68.5086
 -70.753
 -69.2671
 -70.052
 -78.2121
 -77.3677
 -77.9234
 -81.1051
 -81.6035
 -81.0486
 -81.4581
 -76.5161
 -77.2656
 -76.687
 -76.1816
 -82.5515
 -82.631
 -82.8923
 -82.4867
 -82.4809
 -82.4534
 -82.5743
 -82.0969
 -36.2985
 -37.818
 -36.426
 -50.7036
 -52.1799
 -52.5118
 -51.9771
 -77.579
 -76.9816
 -77.2436
 -77.2134
 -84.0533
 -84.1249
 -84.0553
 -84.1774
 -61.9081
 -60.3087
 -61.8249
 -64.4788
 -65.0971
 -65.0787
 -80.623
 -80.4725
 -80.8545
 -80.8283
 -77.8473
 -78.2316
 -78.7003
 -78.7223
 -84.8663
 -84.8693
 -84.8608
 -84.8638
 -47.9371
 -48.2088
 -47.5318
 -45.9732
 -83.1392
 -83.3151
 -70.1483
 -71.6999
 -71.6643
 -70.5093
 -82.2602
 -82.5412
 -82.4918
 -82.5568
 -79.4738
 -79.7113
 -80.1224
 -79.7099
 -72.4101
 -72.1958
 -73.3083
 -71.3999
 -82.1012
 -82.3964
 -82.2211
 -82.3439
 -60.3913
 -60.7699
 -60.8628
 -61.7007
 -55.3851
 -54.7596
 -55.5357
 -55.1539
 -83.6398
 -83.6869
 -83.889
 -83.97
 -77.6666
 -78.177
 -78.6681
 -41.2128
 -40.9637
 -41.5726
 -84.0234
 -84.14
 -84.1419
 -84.1648
 -84.3679
 -84.3417
 -84.2845
 -84.2506
 -76.5137
 -76.8233
 -77.2262
 -77.3513
 -84.5431
 -84.5813
 -84.5937
 -84.5756
 -84.4454
 -84.4815
 -84.4655
 -84.5185
 -71.9616
 -72.5807
 -73.3538
 -72.3614
 -83.0834
 -83.1704
 -83.2898
 -83.266
 -84.8474
 -84.8398
 -84.8472
 -84.8588
 -83.4902
 -83.4269
 -83.3418
 -83.5693
 -78.3057
 -77.6304
 -77.889
 -77.0936
 -84.0177
 -84.0155
 -83.941
 -83.9005
 -82.661
 -82.5557
 -82.8169
 -80.3744
 -80.8077
 -44.3242
 -44.7816
 -44.0698
 -43.7851
 -79.9184
 -80.503
 -80.2202
 -80.3338
 -45.9756
 -46.3187
 -46.487
 -46.6334
 -45.557
 -45.1463
 -46.6952
 -46.5439
 -78.6634
 -79.1367
 -79.0704
 -78.5879
 -70.2962
 -70.3955
 -69.2633
 -70.5848
 -80.7602
 -81.2715
 -81.1038
 -81.1032
 -77.6596
 -76.9814
 -53.6274
 -53.0613
 -53.3555
 -54.2334
 -84.6623
 -84.6895
 -84.7044
 -84.7048
 -70.8194
 -70.2071
 -72.1806
 -71.2124
 -83.7608
 -83.6696
 -83.6003
 -83.733
 -53.6613
 -52.6465
 -53.545
 -52.9101
 -84.3748
 -84.4457
 -84.4412
 -84.4344
 -79.9946
 -79.4713
 -79.991
 -80.0761
 -62.7279
 -61.0423
 -59.8827
 -60.7978
 -84.8909
 -84.8918
 -84.8858
 -84.8821
 -67.5551
 -68.7376
 -67.6803
 -67.6614
 -71.5138
 -70.0566
 -71.3091
 -69.9272
 -84.7383
 -84.7464
 -84.7135
 -84.7633
 -76.3917
 -75.0202
 -75.645
 -75.6698
 -84.1872
 -84.2477
 -84.1827
 -84.1764
 -83.925
 -83.8084
 -83.8447
 -73.024
 -71.3447
 -71.7475
 -72.1077
 -84.0352
 -84.1133
 -84.0421
 -84.0929
 -59.5648
 -60.7482
 -60.5279
 -59.6213
 -84.3875
 -84.437
 -84.4281
 -84.4112
 -84.3161
 -84.2785
 -84.3163
 -84.2967
 -60.7416
 -60.3378
 -62.3858
 -61.2698
 -62.5674
 -62.3796
 -63.5078
 -61.8201
 -28.463
 -28.6211
 -28.1462
 -28.3215
 -82.8778
 -82.6499
 -82.6395
 -45.7205
 -47.0951
 -47.4835
 -46.4833
 -84.6585
 -84.5946
 -84.619
 -84.6137
 -59.5586
 -84.0403
 -83.8792
 -83.8571
 -83.9471
 -84.0803
 -83.8939
 -83.9807
 -34.378
 -33.6975
 -34.047
 -34.343
 -32.6632
 -33.0812
 -32.7153
 -32.4818
 -84.5318
 -84.4484
 -84.4991
 -84.5534
 -62.4069
 -61.9005
 -62.8941
 -61.5933
 -82.5458
 -82.482
 -82.7172
 -68.3637
 -67.2305
 -68.2868
 -66.791
 -73.1549
 -73.173
 -73.1385
 -83.8484
 -83.8586
 -83.9759
 -80.5542
 -81.0041
 -80.9497
 -80.5479
 -68.9746
 -67.4414
 -67.6484
 -68.7185
 -61.7513
 -62.3465
 -61.6009
 -62.1822
 -82.6615
 -82.871
 -82.8907
 -51.9712
 -52.8328
 -50.7403
 -50.6188
 -61.1969
 -63.3809
 -61.3886
 -71.6455
 -73.6979
 -72.9866
 -72.639
 -56.9703
 -58.2736
 -58.4569
 -57.9305
 -61.8407
 -63.2078
 -63.573
 -63.083
 -83.8905
 -83.7692
 -83.7934
 -83.7742
 -74.8488
 -73.9238
 -74.3077
 -75.1345
 -64.6414
 -64.9743
 -77.9491
 -77.59
 -77.7409
 -77.0189
 -84.2207
 -84.7852
 -84.7924
 -84.7927
 -84.7876
 -27.5372
 -27.4208
 -27.4003
 -27.5549
 -83.6576
 -83.8425
 -83.7375
 -84.8589
 -84.8622
 -84.8457
 -84.8543
 -83.3757
 -83.1404
 -83.307
 -83.1895
 -60.978
 -61.3594
 -62.0922
 -61.0921
 -73.7943
 -72.8791
 -72.9062
 -72.0119
 -84.8672
 -84.8732
 -84.8745
 -84.8647
 -82.8267
 -82.6038
 -82.4899
 -82.6911
 -51.1527
 -50.0684
 -49.9232
 -51.8858
 -72.1112
 -71.9463
 -72.2954
 -70.1744
 -71.2047
 -71.8028
 -72.2456
 -71.1506
 -27.5774
 -27.5064
 -27.4907
 -27.6193
 -59.4741
 -59.2359
 -59.0002
 -59.8377
 -83.1058
 -83.3667
 -83.2152
 -83.2781
 -80.656
 -80.6222
 -81.1094
 -80.441
 -74.6509
 -75.0505
 -76.0384
 -75.4327
 -82.7422
 -83.0372
 -82.9826
 -82.9586
 -80.3338
 -80.5825
 -80.8612
 -80.4505
 -82.8253
 -82.7535
 -82.6358
 -83.0555
 -84.8938
 -84.8764
 -84.8786
 -84.8946
 -83.4967
 -83.3666
 -83.3155
 -83.0385
 -82.4563
 -82.1621
 -82.1313
 -82.5018
 -82.2225
 -78.2948
 -78.2031
 -77.7585
 -78.9878
 -84.7448
 -84.7397
 -84.727
 -84.7177
 -74.8826
 -74.0321
 -74.9626
 -74.6188
 -80.4345
 -80.6918
 -80.9331
 -80.0718
 -76.9544
 -75.9518
 -76.7319
 -77.4971
 -68.2612
 -66.1877
 -67.9181
 -66.6194
 -39.0179
 -39.4568
 -40.8917
 -39.2529
 -84.9041
 -84.8849
 -82.1134
 -81.8661
 -81.8674
 -29.8394
 -29.9078
 -29.9541
 -63.6003
 -62.495
 -63.1499
 -61.9539
 -44.8745
 -45.2999
 -43.5894
 -43.3729
 -56.0131
 -55.3003
 -56.3178
 -54.2014
 -84.6334
 -84.5353
 -84.5973
 -84.5798
 -79.0791
 -78.3533
 -78.5033
 -78.2716
 -82.218
 -82.6278
 -82.5067
 -82.7762
 -80.4715
 -80.7274
 -80.0057
 -80.0335
 -83.1406
 -83.1671
 -83.0157
 -83.0288
 -75.9084
 -75.7225
 -84.0411
 -83.703
 -84.0611
 -83.7801
 -82.8792
 -82.6996
 -82.5702
 -82.9227
 -63.1679
 -61.776
 -63.3883
 -62.0998
 -64.5514
 -65.0268
 -64.9757
 -65.0681
 -80.3643
 -80.3448
 -80.1809
 -80.6106
 -78.7039
 -78.9065
 -79.3766
 -79.7742
 -56.4901
 -54.8113
 -54.576
 -56.5075
 -82.4016
 -82.3358
 -82.2519
 -82.1263
 -84.8433
 -84.8262
 -84.8304
 -84.8363
 -84.2485
 -84.1853
 -84.2168
 -84.1887
 -84.8893
 -84.8985
 -84.8905
 -84.9003
 -84.4254
 -84.4813
 -84.4572
 -84.47
 -78.2557
 -79.1112
 -78.2295
 -78.3988
 -82.68
 -82.4204
 -76.4606
 -77.4575
 -76.2146
 -76.9719
 -63.9639
 -64.9088
 -65.0682
 -65.4424
 -83.6328
 -83.7432
 -83.761
 -83.5924
 -76.0496
 -75.6074
 -76.0903
 -75.0568
 -71.8585
 -70.935
 -70.6205
 -71.1639
 -61.0116
 -61.2392
 -61.9566
 -62.6074
 -65.4144
 -64.684
 -64.3918
 -66.4683
 -60.6401
 -61.2915
 -61.9791
 -61.0708
 -40.9474
 -41.2835
 -40.6912
 -40.7087
 -83.344
 -83.417
 -83.1664
 -83.3584
 -82.1608
 -82.3163
 -42.0455
 -43.0195
 -42.8458
 -41.5288
 -68.0541
 -68.2322
 -81.6343
 -81.3869
 -81.6513
 -84.3821
 -84.3587
 -59.1732
 -59.0829
 -58.5956
 -59.7219
 -42.1618
 -42.9738
 -42.9017
 -43.1188
 -55.5009
 -55.9664
 -56.8538
 -57.3089
 -67.464
 -67.9536
 -68.4727
 -68.8969
 -80.9368
 -80.2859
 -80.2969
 -80.3839
 -81.6758
 -81.501
 -81.49
 -81.3651
 -66.9103
 -68.4887
 -68.4117
 -68.0678
 -80.8183
 -80.7069
 -80.9467
 -80.1776
 -77.0939
 -76.4511
 -76.3108
 -76.7326
 -79.1129
 -79.5771
 -79.9317
 -79.4882
 -79.2124
 -78.5701
 -79.4637
 -76.362
 -75.8138
 -77.1663
 -76.6038
 -69.289
 -69.8294
 -68.7323
 -68.6911
 -62.3473
 -63.3996
 -61.7758
 -63.2074
 -84.6698
 -84.6729
 -84.6903
 -84.7089
 -74.531
 -74.4366
 -75.3785
 -75.4807
 -54.8501
 -54.6058
 -53.5171
 -54.4728
 -51.5207
 -51.1201
 -51.1594
 -50.5822
 -57.7071
 -57.1658
 -57.1851
 -57.5001
 -60.4053
 -60.3335
 -61.9093
 -62.1347
 -62.6676
 -61.8481
 -61.4798
 -62.0271
 -84.7216
 -84.7475
 -84.7332
 -84.7338
 -72.2009
 -72.1627
 -71.8908
 -73.0311
 -83.2948
 -83.3258
 -83.198
 -83.1348
 -62.2041
 -63.7399
 -61.5758
 -63.1719
 -84.7334
 -84.762
 -84.7575
 -84.7968
 -84.8011
 -84.8033
 -84.8068
 -82.6406
 -82.0213
 -82.2966
 -82.325
 -65.4847
 -65.9246
 -64.546
 -65.475
 -84.8426
 -84.8238
 -84.8345
 -71.4516
 -70.3487
 -70.8801
 -69.1606
 -84.4375
 -84.4569
 -84.3167
 -84.3339
 -84.4365
 -84.3425
 -69.0551
 -68.0708
 -68.5446
 -50.8885
 -51.3464
 -49.8793
 -50.4802
 -61.2077
 -59.9354
 -61.3222
 -61.6366
 -77.7174
 -78.5492
 -77.6546
 -84.6759
 -84.5977
 -84.6105
 -82.9089
 -82.7262
 -82.5482
 -82.7002
 -84.7044
 -84.7193
 -84.6455
 -84.7589
 -73.4168
 -74.5237
 -75.0426
 -74.1194
 -84.1787
 -84.2045
 -84.2634
 -84.0886
 -77.6536
 -77.8296
 -77.2103
 -77.0926
 -66.054
 -64.9666
 -65.6351
 -84.8248
 -84.7885
 -84.8005
 -84.8462
 -82.3878
 -80.7603
 -81.2922
 -81.2556
 -80.9438
 -80.8186
 -80.7718
 -80.44
 -64.6615
 -64.0814
 -64.0376
 -63.9398
 -63.8951
 -65.4
 -74.7062
 -73.4664
 -73.1778
 -72.7109
 -71.7759
 -73.1354
 -71.9504
 -72.7223
 -82.7039
 -84.8716
 -84.8467
 -84.8341
 -84.8548
 -36.0721
 -35.1163
 -35.9811
 -35.9667
 -69.3777
 -68.2043
 -65.5025
 -65.034
 -65.5127
 -65.8091
 -64.0241
 -64.1972
 -62.5878
 -63.2135
 -83.137
 -82.878
 -82.9813
 -83.0793
 -83.3718
 -83.5396
 -83.2883
 -83.3812
 -65.0507
 -63.9433
 -82.3162
 -82.1788
 -82.5946
 -82.3299
 -82.8907
 -83.1007
 -82.8716
 -79.5087
 -79.214
 -78.863
 -78.5578
 -74.5071
 -73.4435
 -74.1804
 -73.5438
 -83.2567
 -83.4758
 -83.4466
 -83.3377
 -83.8974
 -83.9969
 -84.0375
 -83.9807
 -83.3758
 -83.5882
 -83.377
 -83.4394
 -83.541
 -83.4319
 -83.2373
 -74.3303
 -74.6887
 -74.6203
 -73.8875
 -47.8663
 -48.0216
 -48.5948
 -48.6326
 -70.8176
 -70.4859
 -69.9077
 -70.2701
 -83.7679
 -83.6349
 -83.5462
 -83.7171
 -82.362
 -82.343
 -82.2526
 -82.6339
 -70.4231
 -71.2683
 -71.5282
 -71.8538
 -82.4576
 -82.1037
 -82.2677
 -82.431
 -79.4909
 -79.7454
 -78.5587
 -79.5774
 -79.969
 -80.5222
 -80.3493
 -80.3871
 -82.3343
 -82.4247
 -82.492
 -84.7835
 -84.7855
 -84.7744
 -84.7827
 -70.2618
 -71.4314
 -70.783
 -71.2221
 -77.2787
 -78.176
 -77.9792
 -77.6948
 -47.5686
 -46.6634
 -46.7194
 -47.9092
 -60.7031
 -61.7431
 -61.6021
 -60.828
 -63.0678
 -60.6202
 -61.5523
 -60.357
 -60.6687
 -61.2686
 -61.1182
 -61.6051
 -79.0491
 -78.5989
 -78.8101
 -56.4866
 -56.3263
 -56.8026
 -56.9213
 -57.8091
 -58.3725
 -59.6339
 -57.8329
 -84.8007
 -84.7928
 -84.7816
 -84.7812
 -79.5985
 -79.1481
 -79.1822
 -78.8865
 -84.0839
 -84.1199
 -84.093
 -83.9436
 -80.7636
 -81.0084
 -80.6689
 -80.3016
 -82.2557
 -82.5249
 -82.3279
 -82.4028
 -63.9522
 -62.7025
 -63.517
 -61.7064
 -76.677
 -78.1828
 -77.1769
 -77.1673
 -83.8453
 -83.8972
 -83.7299
 -83.7638
 -81.2463
 -81.116
 -81.573
 -81.3833
 -58.2296
 -57.8564
 -59.7209
 -59.9
 -84.746
 -84.7627
 -84.7574
 -84.7635
 -70.3114
 -69.114
 -57.9469
 -77.0052
 -77.4078
 -77.735
 -76.7078
 -74.423
 -75.0417
 -73.9396
 -73.9771
 -44.1304
 -43.909
 -45.2369
 -68.3692
 -67.325
 -66.9324
 -66.2455
 -80.7632
 -81.5145
 -81.2711
 -81.5266
 -77.2754
 -78.0859
 -77.5818
 -77.4037
 -84.4995
 -84.5277
 -84.5302
 -84.5177
 -61.8081
 -63.6634
 -62.3321
 -63.1255
 -63.0406
 -62.6726
 -64.5552
 -44.8724
 -43.3983
 -44.0211
 -45.0008
 -61.0493
 -62.4804
 -61.6298
 -80.0545
 -81.0852
 -80.188
 -60.9263
 -60.8874
 -59.8537
 -60.3342
 -74.1881
 -75.2168
 -75.5417
 -75.2305
 -27.6481
 -27.6531
 -27.6226
 -27.9048
 -73.5963
 -73.0432
 -73.4133
 -54.9509
 -54.8455
 -54.9849
 -55.0812
 -73.5208
 -72.9013
 -71.7157
 -72.873
 -60.2687
 -61.4285
 -61.3796
 -61.7712
 -82.0432
 -82.1539
 -81.9302
 -82.25
 -83.0115
 -82.8974
 -83.1015
 -83.1193
 -84.8115
 -84.8091
 -84.8151
 -84.8037
 -80.0443
 -79.2614
 -79.9656
 -80.1743
 -59.2557
 -58.3083
 -59.1276
 -58.5617
 -64.5276
 -63.8321
 -50.7511
 -50.6381
 -51.2192
 -51.1154
 -75.958
 -76.3519
 -68.2703
 -70.1109
 -69.799
 -63.6819
 -64.3604
 -65.0488
 -64.0626
 -84.5604
 -84.5521
 -84.4819
 -84.4984
 -84.5123
 -84.4824
 -84.4432
 -84.4988
 -64.1436
 -64.9065
 -64.133
 -62.6574
 -56.7836
 -57.0122
 -80.9106
 -80.9215
 -80.7955
 -81.2645
 -63.2495
 -62.4435
 -63.8052
 -63.492
 -70.1397
 -68.5293
 -71.445
 -84.8677
 -84.8733
 -84.8639
 -77.645
 -78.5491
 -78.0169
 -78.2102
 -84.2173
 -84.3292
 -84.1962
 -84.1665
 -78.6094
 -79.2364
 -79.3201
 -78.6792
 -83.1709
 -83.3698
 -83.4229
 -83.0651
 -59.0106
 -59.9674
 -59.2087
 -58.7957
 -61.1196
 -62.8003
 -60.5967
 -62.3574
 -79.1014
 -78.4203
 -79.4484
 -78.7184
 -68.9392
 -70.4679
 -70.9085
 -68.75
 -57.6957
 -58.1381
 -58.7349
 -60.0412
 -74.2725
 -74.967
 -75.4609
 -75.9198
 -81.3363
 -81.4668
 -81.2066
 -78.7976
 -79.3627
 -79.0103
 -79.41
 -31.0361
 -31.9455
 -32.165
 -31.6458
 -57.0325
 -57.0122
 -57.1569
 -57.0867
 -68.3611
 -67.9027
 -68.3331
 -69.5656
 -41.6656
 -42.4347
 -40.9746
 -42.0165
 -84.064
 -84.0038
 -83.9659
 -84.8162
 -84.8139
 -84.8053
 -84.8136
 -83.4719
 -83.7819
 -83.6442
 -83.6483
 -78.6015
 -81.6893
 -81.975
 -82.2111
 -81.961
 -76.8508
 -77.4489
 -76.3394
 -76.4946
 -54.047
 -52.4612
 -53.4139
 -62.4027
 -62.9494
 -63.2342
 -61.265
 -31.7325
 -30.8961
 -31.6414
 -30.4763
 -44.1313
 -44.026
 -44.6939
 -43.7669
 -67.1688
 -67.1561
 -68.0442
 -68.9323
 -84.8452
 -84.8121
 -84.8225
 -84.8053
 -33.7386
 -33.5283
 -34.4762
 -33.9994
 -82.8534
 -82.9935
 -82.6544
 -82.8456
 -79.2018
 -79.2436
 -79.8608
 -79.3024
 -64.0662
 -61.7099
 -61.4739
 -74.9888
 -73.8993
 -73.4551
 -73.4284
 -84.8537
 -84.8458
 -84.8574
 -55.2863
 -57.6396
 -58.0422
 -74.7389
 -75.5331
 -76.5171
 -76.3398
 -67.6631
 -67.3528
 -67.1086
 -66.6242
 -69.6593
 -69.4462
 -70.8115
 -71.1821
 -54.0406
 -53.264
 -53.1759
 -54.6819
 -75.407
 -76.0441
 -75.0337
 -76.3204
 -84.5535
 -84.4284
 -84.4487
 -84.3948
 -84.4964
 -84.4504
 -84.4028
 -84.5154
 -52.3631
 -52.2073
 -52.8147
 -52.0078
 -84.0395
 -84.0295
 -84.001
 -83.9225
 -84.5091
 -84.5603
 -84.5301
 -84.4696
 -83.8022
 -83.8395
 -83.6581
 -83.6984
 -82.0381
 -81.8527
 -82.1601
 -81.9959
 -77.6142
 -77.0038
 -78.0389
 -67.2407
 -65.1023
 -65.9749
 -66.1089
 -83.2206
 -83.0622
 -82.8197
 -83.031
 -83.7189
 -83.7096
 -83.8295
 -83.7789
 -84.9057
 -84.9021
 -84.8923
 -84.8954
 -44.5803
 -45.3266
 -45.0521
 -45.1929
 -51.0979
 -50.7123
 -50.8559
 -51.3914
 -54.2367
 -54.2975
 -56.1169
 -54.2319
 -67.5966
 -65.9013
 -67.1504
 -67.1849
 -71.2983
 -71.4648
 -71.3997
 -84.5666
 -84.6181
 -84.6678
 -84.6429
 -83.8809
 -83.8553
 -83.7956
 -83.7026
 -76.8403
 -76.168
 -75.9538
 -76.5774
 -84.5389
 -84.5901
 -80.8774
 -80.9803
 -80.9719
 -80.4637
 -84.5862
 -84.6187
 -84.6476
 -84.5914
 -79.8166
 -80.5119
 -79.6178
 -80.6203
 -66.669
 -67.9681
 -65.7589
 -66.9801
 -49.4527
 -48.3582
 -49.2746
 -50.2497
 -30.838
 -31.4935
 -30.4071
 -31.2191
 -84.3222
 -84.2701
 -84.2476
 -84.3359
 -84.2624
 -84.2557
 -84.2834
 -84.3325
 -73.2198
 -71.6262
 -72.8383
 -72.1516
 -78.7187
 -78.3463
 -78.2415
 -78.8394
 -61.877
 -60.7158
 -62.6926
 -80.5907
 -80.2879
 -80.3048
 -79.9459
 -62.6927
 -62.3582
 -63.1116
 -63.4409
 -77.5954
 -76.6552
 -75.9728
 -76.5142
 -82.2378
 -82.034
 -82.2008
 -82.2437
 -79.0115
 -78.7633
 -78.6354
 -83.8612
 -83.696
 -83.7897
 -83.7952
 -81.2658
 -81.7601
 -40.089
 -41.3173
 -39.6277
 -40.3742
 -83.4814
 -83.3947
 -83.4968
 -64.0803
 -64.4408
 -64.684
 -63.8237
 -81.8409
 -81.9014
 -81.7127
 -76.4137
 -75.5718
 -76.7071
 -75.8698
 -81.1598
 -80.5059
 -81.3273
 -80.9903
 -81.1662
 -81.6621
 -35.5273
 -35.5546
 -35.0421
 -35.3671
 -31.5478
 -30.8321
 -30.3267
 -31.1173
 -77.6952
 -76.6368
 -77.0088
 -76.5673
 -81.1879
 -80.8864
 -81.0989
 -80.6564
 -35.7165
 -35.6676
 -35.658
 -36.4452
 -63.7315
 -62.2854
 -52.667
 -53.0848
 -53.238
 -54.1936
 -81.4632
 -81.4352
 -81.9477
 -81.6609
 -80.7257
 -80.7246
 -81.1779
 -80.4758
 -80.9572
 -80.5268
 -80.475
 -80.4519
 -68.3951
 -68.7739
 -69.4841
 -68.3654
 -58.5634
 -57.5295
 -56.6091
 -58.6582
 -45.0365
 -46.3189
 -46.1121
 -44.9311
 -59.9875
 -60.1319
 -60.1517
 -62.0993
 -83.3692
 -83.2835
 -83.5017
 -83.4533
 -77.7123
 -75.7137
 -76.8466
 -43.1671
 -43.8333
 -44.7196
 -82.3959
 -82.7692
 -82.635
 -82.6502
 -82.5831
 -82.1962
 -82.341
 -82.5436
 -72.8149
 -72.0299
 -71.5993
 -75.3251
 -75.762
 -76.6011
 -75.6488
 -59.5558
 -58.891
 -58.7073
 -58.7803
 -84.1979
 -84.1608
 -84.2437
 -84.2345
 -57.9578
 -57.7684
 -57.8035
 -58.1079
 -55.2005
 -54.5949
 -55.2674
 -84.6802
 -84.7481
 -84.769
 -84.732
 -83.6764
 -83.7889
 -66.3476
 -65.5897
 -66.9829
 -66.8535
 -77.1682
 -78.0784
 -77.3891
 -74.9907
 -74.6048
 -74.8063
 -73.6249
 -57.3234
 -58.6671
 -57.8441
 -84.0232
 -84.1075
 -83.9348
 -83.955
 -57.0015
 -59.0354
 -57.5776
 -57.1359
 -83.0217
 -82.8271
 -82.6109
 -82.6348
 -58.2792
 -58.7055
 -58.9436
 -57.5458
 -58.4895
 -58.0758
 -64.742
 -63.9216
 -64.3259
 -64.6503
 -44.8138
 -44.1916
 -43.1506
 -44.302
 -83.4942
 -83.6582
 -70.0677
 -70.8132
 -71.1007
 -70.9504
 -84.7739
 -84.7666
 -84.7761
 -84.7866
 -67.5521
 -66.26
 -67.7325
 -69.1397
 -83.724
 -83.8792
 -83.9026
 -83.8664
 -84.4511
 -84.5255
 -84.4207
 -84.4824
 -82.8858
 -82.5471
 -84.7544
 -84.7833
 -84.7715
 -84.7551
 -57.6222
 -57.6993
 -57.0073
 -58.6373
 -84.7901
 -84.792
 -84.7912
 -84.7887
 -84.815
 -84.8441
 -84.8178
 -84.807
 -79.7913
 -79.7737
 -80.3327
 -80.15
 -74.9464
 -74.3717
 -75.5744
 -76.1337
 -84.2537
 -84.1581
 -84.2433
 -84.2481
 -41.3811
 -42.4416
 -41.5081
 -41.255
 -84.1806
 -84.275
 -69.4095
 -70.4309
 -70.583
 -71.9169
 -84.3401
 -84.2573
 -84.2045
 -84.2081
 -59.9436
 -61.1736
 -60.971
 -60.7924
 -70.582
 -68.5342
 -69.3312
 -70.3322
 -59.7076
 -59.289
 -61.3315
 -59.3561
 -58.7764
 -59.4443
 -58.4863
 -56.7079
 -57.5511
 -57.1693
 -57.6403
 -80.7702
 -80.3584
 -80.1633
 -84.1596
 -84.1555
 -84.2747
 -84.264
 -79.6443
 -79.2874
 -78.8211
 -59.7756
 -58.9607
 -59.6736
 -76.664
 -77.6927
 -76.7332
 -77.5266
 -81.6453
 -81.6388
 -81.5742
 -82.0373
 -73.5301
 -74.6218
 -74.7891
 -74.4593
 -73.7498
 -73.3734
 -72.8335
 -70.7575
 -69.8481
 -69.4511
 -70.9347
 -71.9993
 -72.5555
 -70.5025
 -84.1893
 -84.2108
 -84.2181
 -84.1074
 -81.9812
 -81.7656
 -82.0258
 -82.1018
 -76.1282
 -75.9853
 -75.4383
 -76.9451
 -55.5732
 -54.4823
 -55.5225
 -79.8263
 -79.4124
 -79.7065
 -79.9336
 -64.6222
 -62.7631
 -63.8623
 -62.7885
 -37.6552
 -38.1755
 -37.589
 -37.3094
 -72.006
 -71.2987
 -71.8773
 -71.7518
 -84.2979
 -84.2675
 -84.3862
 -84.3501
 -70.2485
 -71.409
 -70.6046
 -69.8842
 -57.9533
 -57.9724
 -58.2282
 -58.638
 -58.6607
 -57.8509
 -57.9952
 -74.2465
 -74.4585
 -73.8665
 -81.8823
 -70.0669
 -67.657
 -69.1713
 -69.0492
 -84.5171
 -84.5133
 -84.5425
 -84.4263
 -84.4401
 -84.4701
 -69.0788
 -70.2828
 -69.3251
 -70.0596
 -84.7156
 -84.7425
 -84.7601
 -84.7513
 -60.5717
 -80.8337
 -80.2687
 -80.6357
 -80.4992
 -59.6477
 -60.1504
 -59.9753
 -60.1724
 -84.4316
 -84.5007
 -84.4265
 -84.4493
 -81.7628
 -82.1949
 -82.1206
 -81.836
 -83.5877
 -83.708
 -83.4387
 -83.5369
 -56.7782
 -57.1406
 -57.4163
 -56.7859
 -66.6491
 -67.7592
 -66.5567
 -66.8606
 -80.1435
 -79.6883
 -80.0434
 -79.3956
 -66.5674
 -64.9549
 -66.9985
 -65.5458
 -81.5773
 -81.7926
 -82.1141
 -82.0431
 -60.8999
 -60.5868
 -61.8585
 -61.6424
 -65.0429
 -65.2308
 -66.5677
 -66.1389
 -80.454
 -80.5294
 -80.5822
 -80.9682
 -84.3089
 -84.3642
 -84.335
 -84.4057
 -52.6272
 -53.4229
 -54.0516
 -54.1207
 -44.7785
 -43.2449
 -44.802
 -44.5068
 -84.5545
 -84.6293
 -84.5881
 -84.5569
 -46.8988
 -45.8486
 -46.0854
 -45.3898
 -44.9428
 -46.0967
 -77.4512
 -77.6005
 -76.9233
 -76.6754
 -65.9266
 -66.8147
 -66.7558
 -65.6653
 -84.9047
 -84.8975
 -84.9029
 -84.8944
 -84.4595
 -84.4458
 -84.5161
 -81.5412
 -81.4941
 -81.8814
 -81.4814
 -59.4289
 -59.6905
 -58.5624
 -60.0785
 -65.0785
 -64.7938
 -64.4905
 -64.254
 -65.2179
 -65.843
 -81.797
 -82.3986
 -82.2038
 -81.9429
 -81.0498
 -80.98
 -80.5441
 -81.1382
 -82.1535
 -82.0231
 -81.8104
 -82.1177
 -84.8051
 -84.7965
 -84.7633
 -84.8212
 -82.9424
 -82.8533
 -82.6649
 -71.44
 -78.4084
 -78.0518
 -78.1802
 -77.6634
 -79.0156
 -78.1212
 -78.444
 -79.0565
 -84.1493
 -84.1483
 -84.1058
 -84.0525
 -83.0301
 -82.8335
 -82.9135
 -83.0578
 -81.2664
 -80.8792
 -80.764
 -68.2707
 -66.743
 -68.2126
 -66.3731
 -78.1297
 -79.1203
 -78.6764
 -78.5121
 -71.3456
 -72.2943
 -70.7461
 -33.5295
 -33.44
 -32.8942
 -33.8228
 -84.1305
 -84.3299
 -84.2436
 -83.9573
 -83.7462
 -83.9846
 -83.8563
 -34.847
 -79.409
 -79.4176
 -79.2957
 -79.9546
 -81.2012
 -81.2402
 -50.134
 -50.1892
 -50.0039
 -50.4971
 -54.5854
 -55.088
 -56.8501
 -54.8064
 -62.1802
 -63.0134
 -62.1135
 -63.3434
 -62.0382
 -62.8124
 -63.1112
 -61.7576
 -61.6657
 -62.5493
 -70.7109
 -69.3676
 -68.8806
 -69.2077
 -72.4314
 -73.7575
 -84.8755
 -84.8646
 -57.6878
 -59.6433
 -57.3511
 -58.641
 -75.0298
 -74.6732
 -75.6392
 -74.3004
 -51.6317
 -52.2232
 -50.2226
 -50.5369
 -84.3028
 -84.3575
 -84.2447
 -84.2968
 -83.5458
 -83.396
 -83.519
 -83.3835
 -81.5342
 -81.8856
 -81.9043
 -81.6594
 -80.2325
 -80.4247
 -81.1298
 -80.9337
 -77.5598
 -77.2806
 -57.6663
 -82.7978
 -83.0082
 -83.0474
 -83.0408
 -84.684
 -84.6521
 -84.7108
 -84.6497
 -83.8434
 -83.9628
 -83.7782
 -83.8541
 -27.686
 -27.6441
 -27.7496
 -27.9188
 -84.7856
 -84.7998
 -84.7988
 -84.7983
 -63.102
 -63.0661
 -61.8241
 -63.6824
 -69.0822
 -67.4524
 -68.0913
 -66.903
 -82.7214
 -82.7595
 -82.8767
 -82.9716
 -82.915
 -82.7855
 -82.6724
 -82.7576
 -59.1486
 -60.7495
 -59.8304
 -60.426
 -84.8061
 -84.8101
 -84.8006
 -84.8077
 -84.3752
 -84.3964
 -84.3882
 -84.4273
 -82.5889
 -82.6067
 -82.8026
 -82.8446
 -84.2219
 -84.1223
 -84.2181
 -84.1978
 -64.8789
 -66.4472
 -66.5084
 -66.8116
 -59.53
 -59.6714
 -60.1898
 -60.2846
 -84.1785
 -84.1427
 -84.0747
 -84.1025
 -74.2546
 -73.6213
 -73.6011
 -72.4845
 -74.6514
 -74.1453
 -73.8774
 -74.5096
 -32.0412
 -32.6946
 -32.7257
 -32.7654
 -84.742
 -84.7586
 -84.4126
 -84.4012
 -84.3729
 -84.455
 -52.4348
 -51.5924
 -51.2418
 -52.5999
 -67.1498
 -65.17
 -65.0098
 -64.4811
 -84.3878
 -84.3339
 -84.4553
 -84.4433
 -73.4926
 -73.8227
 -73.1623
 -74.4539
 -69.5969
 -69.9933
 -68.5348
 -68.6584
 -84.7766
 -84.7942
 -84.7746
 -84.791
 -79.4952
 -79.233
 -79.4509
 -79.711
 -77.6806
 -77.9061
 -77.771
 -77.1303
 -83.7621
 -83.8074
 -83.8525
 -83.6938
 -81.8908
 -81.672
 -81.6113
 -81.3588
 -73.1451
 -73.0862
 -71.7535
 -67.2681
 -68.4895
 -67.7736
 -69.9294
 -47.3401
 -46.475
 -46.6806
 -48.3061
 -68.4758
 -69.199
 -69.4647
 -69.6824
 -78.9394
 -78.5029
 -78.7411
 -78.329
 -84.6318
 -84.6548
 -84.6581
 -84.6042
 -69.892
 -71.939
 -70.9175
 -70.5135
 -52.4961
 -52.357
 -51.3584
 -50.4617
 -82.3596
 -82.7373
 -82.5873
 -82.4184
 -80.9756
 -80.7741
 -80.5621
 -78.5393
 -79.3
 -79.6335
 -79.7827
 -45.4153
 -45.1765
 -45.2991
 -46.2059
 -79.6342
 -79.1511
 -79.2468
 -79.0497
 -84.8
 -84.7967
 -84.7997
 -84.8
 -78.9731
 -78.6806
 -79.1672
 -79.0363
 -55.9045
 -55.2454
 -55.7784
 -56.03
 -61.244
 -62.2346
 -61.2823
 -60.1454
 -84.8641
 -84.8516
 -84.862
 -84.8567
 -64.961
 -65.3962
 -65.1216
 -62.9429
 -81.0204
 -80.4238
 -80.5174
 -80.8366
 -84.8837
 -84.8931
 -84.8832
 -84.8689
 -84.4946
 -84.5952
 -84.5304
 -82.5069
 -82.5621
 -82.8262
 -82.9223
 -84.0997
 -84.1816
 -84.2526
 -84.0692
 -37.9888
 -38.7229
 -39.2721
 -39.0204
 -59.9046
 -61.5996
 -59.033
 -84.541
 -84.5739
 -84.5608
 -84.5937
 -80.9055
 -80.6725
 -81.1758
 -80.4765
 -83.3304
 -83.303
 -83.5295
 -83.1335
 -53.3639
 -53.1833
 -52.0932
 -51.7724
 -73.1473
 -74.6925
 -73.0598
 -74.0866
 -81.5498
 -80.838
 -81.2001
 -51.5724
 -51.8748
 -52.3001
 -52.2743
 -60.4635
 -56.8429
 -57.5363
 -57.1041
 -70.8303
 -84.5651
 -84.615
 -84.558
 -84.5981
 -39.2237
 -39.1128
 -38.2955
 -38.4068
 -83.6158
 -83.9013
 -83.7706
 -83.9419
 -81.2738
 -80.9657
 -80.905
 -80.4456
 -33.988
 -83.9372
 -83.8607
 -84.0133
 -84.5871
 -84.6507
 -84.5947
 -84.607
 -76.1817
 -75.9206
 -77.4652
 -76.5291
 -82.5213
 -82.5274
 -82.7498
 -82.3684
 -62.8527
 -61.6214
 -77.6873
 -77.3093
 -77.1298
 -77.9119
 -62.5267
 -61.6037
 -60.7539
 -61.7208
 -67.158
 -66.6758
 -68.5832
 -68.6971
 -82.9692
 -82.7564
 -82.9532
 -82.9606
 -42.0624
 -41.8611
 -41.771
 -43.0697
 -59.6387
 -59.0739
 -59.564
 -58.8278
 -44.5689
 -45.2405
 -55.5803
 -55.7255
 -55.7773
 -55.5946
 -53.3094
 -52.4036
 -53.6309
 -52.6573
 -84.7664
 -84.7462
 -84.7126
 -84.711
 -80.3823
 -80.2512
 -80.0246
 -80.7534
 -72.1532
 -73.948
 -72.9649
 -72.9798
 -77.9053
 -77.5617
 -77.3483
 -78.073
 -84.6117
 -84.5974
 -51.3124
 -50.8783
 -50.9805
 -51.2998
 -84.625
 -84.6184
 -84.5825
 -40.2971
 -40.2011
 -40.2307
 -39.8257
 -84.4511
 -84.3205
 -84.4176
 -84.3885
 -67.601
 -66.6667
 -67.9865
 -66.414
 -75.4937
 -75.2459
 -74.9905
 -84.4819
 -84.4346
 -84.4687
 -84.4938
 -80.3649
 -79.7702
 -80.3134
 -80.0217
 -75.3128
 -75.9501
 -76.3973
 -75.7278
 -67.8712
 -67.2798
 -71.8226
 -69.418
 -70.9367
 -70.3511
 -81.2754
 -80.7311
 -81.0578
 -84.6934
 -84.6604
 -84.6477
 -84.7124
 -75.1634
 -75.7363
 -75.0201
 -75.4803
 -72.816
 -71.9798
 -66.2134
 -64.9719
 -64.5008
 -66.0678
 -43.0841
 -43.2636
 -44.4332
 -80.6867
 -80.796
 -80.0637
 -80.0767
 -84.748
 -84.7611
 -84.7511
 -44.2873
 -44.0809
 -44.3253
 -73.6962
 -73.0578
 -73.5275
 -72.4861
 -82.1326
 -82.2195
 -81.8473
 -81.9778
 -37.9329
 -37.4627
 -37.7214
 -38.0406
 -84.3076
 -84.3424
 -84.3063
 -84.284
 -82.3806
 -82.2671
 -82.2791
 -82.0403
 -83.6806
 -83.7111
 -83.6225
 -84.4968
 -84.525
 -84.562
 -84.5097
 -78.2071
 -77.1759
 -78.0517
 -78.3144
 -84.7014
 -84.6731
 -84.6827
 -84.655
 -68.767
 -68.5972
 -69.4353
 -67.8386
 -84.6897
 -81.9575
 -77.2831
 -77.0926
 -77.7903
 -76.8549
 -81.1306
 -80.9257
 -80.7257
 -80.5772
 -83.2004
 -83.2106
 -83.0584
 -82.9595
 -81.5584
 -81.4773
 -81.8381
 -81.6375
 -83.216
 -83.0754
 -83.2038
 -83.207
 -77.273
 -76.7349
 -76.8111
 -77.6075
 -75.5378
 -75.6029
 -75.8443
 -76.3026
 -72.6339
 -72.15
 -71.844
 -73.0906
 -75.6654
 -75.5829
 -74.7703
 -58.1839
 -58.3597
 -58.2206
 -59.0446
 -78.4086
 -82.1423
 -82.4328
 -82.4939
 -82.4779
 -84.674
 -84.6777
 -84.6081
 -65.929
 -63.7818
 -64.4406
 -63.8665
 -79.1235
 -79.8534
 -79.5579
 -81.2691
 -80.9717
 -80.9272
 -80.637
 -82.2528
 -82.4661
 -82.6699
 -82.7963
 -84.4144
 -84.4516
 -84.5143
 -84.4414
 -62.052
 -61.8628
 -62.6543
 -60.7955
 -78.7019
 -78.3313
 -78.4283
 -77.8205
 -76.2688
 -76.0449
 -75.208
 -76.5268
 -75.6345
 -75.2861
 -74.9255
 -74.2937
 -77.7305
 -77.5633
 -78.0376
 -77.0831
 -82.9403
 -82.5612
 -83.0438
 -82.7253
 -75.3329
 -73.8855
 -74.4407
 -74.8455
 -51.0301
 -51.0706
 -51.006
 -51.311
 -46.5199
 -47.1014
 -46.7341
 -77.5727
 -77.7557
 -78.3036
 -78.5814
 -77.9231
 -77.8013
 -78.3468
 -78.7412
 -75.5745
 -74.7366
 -76.2098
 -76.0492
 -84.5465
 -84.5667
 -84.4766
 -84.4805
 -83.2665
 -83.0976
 -82.9995
 -83.1734
 -65.1862
 -66.0934
 -65.7901
 -66.1535
 -55.1878
 -57.0177
 -56.6066
 -54.4061
 -84.4309
 -84.3883
 -84.3388
 -84.4276
 -40.0275
 -39.0078
 -39.2308
 -40.3958
 -69.3009
 -70.5156
 -69.8351
 -69.6909
 -53.687
 -54.2223
 -54.1062
 -60.8943
 -61.5912
 -61.849
 -63.1219
 -82.8077
 -82.7972
 -83.0054
 -82.5261
 -59.9208
 -58.4926
 -58.7349
 -59.6766
 -46.8873
 -49.4965
 -47.7816
 -37.9657
 -38.8149
 -39.2662
 -38.6802
 -84.8255
 -84.8375
 -84.8271
 -84.8558
 -64.2882
 -63.3145
 -63.9827
 -64.6838
 -80.3103
 -79.5823
 -79.8012
 -80.0723
 -84.4935
 -84.4932
 -84.4231
 -84.4867
 -83.9546
 -84.0459
 -83.9092
 -83.9248
 -65.2911
 -65.773
 -64.6619
 -65.2409
 -50.7784
 -49.4061
 -48.1683
 -49.7198
 -80.0882
 -80.3819
 -79.7443
 -80.0387
 -52.1902
 -53.4909
 -72.9004
 -70.8795
 -71.4443
 -72.3854
 -73.5076
 -73.423
 -72.7442
 -73.8554
 -71.664
 -71.7518
 -71.129
 -56.5039
 -56.9698
 -56.5426
 -80.4074
 -80.4342
 -80.6764
 -80.7551
 -80.0606
 -79.9525
 -79.7
 -80.4851
 -65.022
 -66.3938
 -65.5981
 -65.2491
 -83.3434
 -83.4579
 -83.2514
 -83.2796
 -77.0892
 -75.9411
 -76.5285
 -77.2897
 -57.5998
 -57.5835
 -57.4325
 -57.553
 -71.4586
 -72.7471
 -71.6566
 -80.8026
 -80.707
 -80.343
 -80.5544
 -78.3571
 -78.9112
 -79.1153
 -84.7869
 -84.7984
 -84.7762
 -84.7718
 -45.1545
 -44.4692
 -45.3279
 -43.6477
 -69.5495
 -70.5813
 -70.6837
 -69.6993
 -67.2347
 -66.962
 -65.8874
 -67.394
 -84.7856
 -84.7855
 -84.8296
 -84.8485
 -83.8919
 -83.9639
 -83.9348
 -61.0213
 -61.1854
 -60.14
 -61.3143
 -83.4108
 -83.2486
 -83.3066
 -64.2312
 -64.5335
 -63.4968
 -63.7814
 -30.4856
 -30.8936
 -30.7095
 -31.0738
 -84.5683
 -84.5822
 -84.6359
 -84.5483
 -56.7608
 -56.3631
 -55.8381
 -55.0082
 -84.8056
 -84.8112
 -84.8033
 -84.8026
 -59.8563
 -61.1886
 -60.0438
 -60.879
 -31.2906
 -30.3414
 -30.986
 -31.1276
 -48.5561
 -47.7079
 -48.6324
 -48.8479
 -57.5536
 -58.2965
 -59.1761
 -57.335
 -76.234
 -75.2071
 -54.7439
 -55.1297
 -52.7672
 -53.0349
 -81.3151
 -81.0187
 -80.9141
 -80.5902
 -75.6359
 -75.6072
 -75.4494
 -76.6862
 -84.503
 -84.4257
 -84.5285
 -84.5449
 -84.2448
 -84.2348
 -84.3428
 -84.2893
 -84.0249
 -83.8365
 -83.9893
 -83.9171
 -84.4861
 -84.4918
 -84.5237
 -84.4584
 -82.0432
 -82.071
 -82.2833
 -82.1084
 -84.098
 -84.1979
 -84.1795
 -84.1635
 -46.2593
 -44.682
 -44.5982
 -46.2942
 -84.1793
 -84.2424
 -84.2499
 -84.2348
 -72.4069
 -71.3692
 -70.5214
 -71.0052
 -83.6652
 -83.3879
 -83.4138
 -84.3216
 -84.3759
 -84.4087
 -84.3901
 -56.9391
 -55.5261
 -55.4776
 -56.1218
 -49.394
 -49.1618
 -48.6922
 -48.8636
 -82.6355
 -82.6234
 -82.5072
 -82.9062
 -72.348
 -72.3433
 -72.2451
 -71.2231
 -82.4077
 -82.3054
 -82.3875
 -82.2498
 -82.2175
 -82.1854
 -82.7356
 -70.3953
 -70.0902
 -69.068
 -81.9932
 -82.251
 -79.2334
 -78.4089
 -84.6569
 -84.6868
 -84.6938
 -84.6583
 -78.0849
 -78.2266
 -77.752
 -78.5675
 -81.792
 -81.801
 -82.1981
 -81.7536
 -80.879
 -81.0791
 -80.8156
 -81.1992
 -84.1407
 -83.5531
 -83.569
 -83.4539
 -83.4135
 -74.4071
 -74.8862
 -73.8041
 -73.8451
 -54.7722
 -54.7708
 -54.7493
 -54.7485
 -81.7412
 -81.4764
 -81.8517
 -81.6686
 -82.5502
 -82.5155
 -82.3282
 -82.7332
 -33.109
 -33.7399
 -33.9883
 -34.4203
 -77.3192
 -78.0252
 -77.6325
 -77.059
 -75.9518
 -75.1814
 -74.7746
 -75.484
 -81.8709
 -81.6262
 -58.7433
 -58.946
 -59.3681
 -58.8024
 -68.4628
 -69.1506
 -69.0131
 -68.3433
 -60.4767
 -59.9114
 -59.6596
 -59.77
 -65.8242
 -66.7025
 -66.5677
 -65.5837
 -59.5259
 -59.3978
 -58.8731
 -59.6079
 -84.0206
 -83.9174
 -83.916
 -84.0132
 -84.1544
 -84.0917
 -84.0034
 -84.0739
 -64.4354
 -63.7551
 -63.0077
 -64.2823
 -77.5364
 -77.018
 -77.5541
 -76.982
 -84.0378
 -83.9356
 -84.0549
 -84.0002
 -74.5414
 -73.6494
 -73.7036
 -75.1508
 -64.1361
 -65.3226
 -51.7051
 -52.1982
 -52.4288
 -51.4841
 -76.5578
 -76.2679
 -75.3465
 -75.0201
 -83.9589
 -83.8956
 -83.9014
 -84.0782
 -84.742
 -84.7083
 -84.7209
 -84.7421
 -35.1084
 -34.9632
 -71.5752
 -72.8938
 -72.8752
 -73.6822
 -69.6395
 -67.8098
 -68.9668
 -69.0782
 -69.0301
 -68.8356
 -60.8897
 -61.3118
 -61.443
 -61.5738
 -75.8683
 -76.6528
 -77.1337
 -46.1414
 -46.9038
 -46.9599
 -47.5925
 -84.3115
 -84.3779
 -84.2237
 -84.3245
 -84.771
 -84.7662
 -84.7502
 -84.8086
 -84.7996
 -84.7553
 -84.7871
 -80.4464
 -81.0782
 -81.0026
 -80.9566
 -77.2887
 -78.3271
 -77.0693
 -77.9411
 -83.3787
 -83.6309
 -83.6801
 -83.5864
 -81.4275
 -81.2387
 -81.6366
 -81.3143
 -81.0059
 -81.3294
 -81.07
 -78.9501
 -79.0367
 -78.6845
 -79.5546
 -83.0245
 -83.4684
 -83.3127
 -83.0681
 -74.2742
 -73.3183
 -73.9329
 -74.152
 -77.9187
 -77.6848
 -78.6651
 -77.6078
 -82.4345
 -82.351
 -82.1667
 -82.3999
 -77.5468
 -77.1721
 -76.9616
 -77.7428
 -31.5614
 -31.3129
 -32.2788
 -32.1999
 -62.5559
 -62.0331
 -61.8125
 -61.1266
 -83.0143
 -82.9487
 -83.2617
 -83.2975
 -59.4925
 -59.5616
 -57.6553
 -57.211
 -55.8911
 -54.2017
 -55.9307
 -57.1261
 -83.9865
 -83.9314
 -83.9809
 -83.8463
 -83.6187
 -83.4311
 -83.6236
 -83.5511
 -84.2947
 -84.2095
 -84.2535
 -84.3263
 -82.9298
 -82.9526
 -83.1628
 -83.0314
 -71.9985
 -71.4819
 -70.7958
 -71.4526
 -63.2834
 -62.781
 -63.8409
 -62.4621
 -82.4597
 -81.9697
 -82.5259
 -82.1074
 -63.6839
 -64.1453
 -64.2423
 -64.209
 -52.912
 -53.1909
 -53.5691
 -53.9448
 -76.9885
 -77.6739
 -77.057
 -77.6089
 -69.4297
 -68.5435
 -67.6754
 -70.4903
 -71.1541
 -72.7249
 -71.626
 -52.4976
 -51.703
 -50.7658
 -51.7214
 -64.3141
 -64.0759
 -63.7025
 -63.7298
 -82.9407
 -83.0863
 -82.9559
 -82.9883
 -78.5409
 -79.127
 -79.3069
 -84.8722
 -84.8532
 -84.8607
 -84.8647
 -84.474
 -84.5112
 -84.5584
 -84.486
 -68.7643
 -69.8554
 -68.1418
 -69.7591
 -78.994
 -79.4934
 -53.5759
 -53.4135
 -51.9668
 -54.0828
 -78.405
 -77.54
 -77.3599
 -78.1089
 -84.1399
 -84.1749
 -84.088
 -84.1823
 -62.7434
 -63.0663
 -63.3503
 -73.0213
 -73.4912
 -73.5476
 -71.9891
 -69.0291
 -70.5238
 -70.6158
 -70.4413
 -76.8575
 -77.5891
 -77.7854
 -76.9057
 -74.3074
 -74.9239
 -75.6203
 -74.8348
 -77.5432
 -77.7882
 -77.1881
 -78.1653
 -73.5593
 -74.3164
 -83.588
 -83.4066
 -83.6358
 -83.5223
 -74.0345
 -73.133
 -73.4562
 -74.1146
 -80.8977
 -80.3017
 -80.692
 -73.8845
 -74.8454
 -74.1003
 -74.7091
 -81.4287
 -81.1849
 -80.9248
 -81.2301
 -60.1726
 -58.8893
 -59.8447
 -58.1267
 -74.9135
 -74.6999
 -75.9428
 -79.8784
 -80.0645
 -80.5401
 -79.5444
 -76.5951
 -76.3292
 -76.9388
 -60.2808
 -60.5888
 -59.6182
 -81.5132
 -81.4183
 -81.3822
 -80.8974
 -76.2965
 -76.8513
 -77.0852
 -36.2322
 -36.5556
 -36.8174
 -35.4835
 -81.4124
 -81.1126
 -80.8679
 -81.4837
 -70.2884
 -69.1301
 -69.364
 -68.7407
 -84.0515
 -84.0507
 -84.1073
 -84.1247
 -84.3111
 -84.2281
 -84.3553
 -84.3364
 -55.4697
 -57.3474
 -54.928
 -55.3508
 -79.8066
 -79.4506
 -78.9658
 -65.2732
 -63.9292
 -65.0049
 -64.8445
 -84.0511
 -83.9143
 -84.0092
 -78.1608
 -78.8506
 -78.3945
 -78.8994
 -82.8236
 -82.9384
 -82.9061
 -82.803
 -84.5549
 -84.5439
 -84.6064
 -84.5483
 -28.4186
 -28.0349
 -28.0982
 -28.399
 -66.0602
 -66.4776
 -67.1883
 -65.8792
 -78.8507
 -79.9017
 -79.503
 -79.8241
 -50.2188
 -49.3949
 -48.7542
 -76.2181
 -76.9421
 -76.8075
 -75.9877
 -84.5901
 -82.0853
 -81.7507
 -81.4284
 -81.8557
 -84.2217
 -84.2209
 -84.2183
 -84.2677
 -83.5095
 -83.4985
 -83.4503
 -83.6342
 -79.5392
 -79.3718
 -77.9494
 -77.0926
 -77.2622
 -77.0619
 -37.0946
 -38.0876
 -37.1731
 -37.658
 -68.5616
 -68.1327
 -67.5415
 -66.4781
 -66.2242
 -67.2991
 -66.601
 -84.7122
 -84.7329
 -84.7347
 -84.7091
 -76.947
 -76.9394
 -77.6658
 -77.7952
 -78.7251
 -78.4283
 -77.8425
 -78.3216
 -84.2545
 -84.1609
 -84.311
 -84.1757
 -77.5194
 -77.2966
 -78.2831
 -77.8087
 -45.0629
 -45.2096
 -44.1505
 -44.5173
 -76.0577
 -75.8067
 -76.4708
 -76.0666
 -65.433
 -65.5941
 -65.8114
 -66.6421
 -62.4165
 -61.3445
 -61.3325
 -61.9158
 -54.8675
 -55.2744
 -54.8212
 -54.6695
 -42.9738
 -42.5799
 -42.2398
 -43.6993
 -84.7087
 -84.7101
 -84.7103
 -84.697
 -39.5019
 -39.8309
 -38.7936
 -40.0867
 -77.1981
 -76.5832
 -77.1424
 -76.4626
 -84.692
 -84.7164
 -84.662
 -84.686
 -72.0828
 -71.5683
 -72.4239
 -72.5318
 -54.4769
 -84.4629
 -84.4182
 -84.438
 -84.5281
 -59.3727
 -44.4761
 -45.9236
 -45.9437
 -44.5174
 -80.3784
 -81.048
 -83.5544
 -83.3466
 -83.6603
 -83.415
 -83.8773
 -83.8988
 -83.9811
 -83.9506
 -84.8022
 -84.7742
 -84.8203
 -83.649
 -83.8454
 -83.774
 -83.7253
 -71.8953
 -84.6726
 -82.502
 -82.4835
 -82.3456
 -84.7879
 -84.7984
 -84.8057
 -84.7961
 -73.0592
 -72.7361
 -72.9758
 -72.0231
 -64.7796
 -65.4176
 -63.8022
 -63.6808
 -81.9087
 -81.7331
 -81.8969
 -82.3489
 -84.5603
 -84.5782
 -84.5236
 -84.4838
 -84.4388
 -84.4179
 -84.4445
 -84.4108
 -80.729
 -81.4344
 -81.3658
 -41.7463
 -40.9825
 -43.2284
 -41.6302
 -29.251
 -30.1097
 -29.6314
 -29.931
 -49.8231
 -48.3379
 -47.9189
 -48.8239
 -78.2098
 -78.8564
 -78.2314
 -45.4789
 -46.4345
 -46.0494
 -45.4068
 -83.5343
 -83.4743
 -83.6569
 -84.0242
 -84.0178
 -83.9532
 -84.0202
 -59.1833
 -58.6602
 -82.7523
 -82.7408
 -84.9002
 -84.8934
 -84.9001
 -84.7483
 -84.7768
 -84.7667
 -84.778
 -73.9767
 -73.2198
 -74.6896
 -74.0569
 -67.9816
 -67.7398
 -67.0636
 -68.6987
 -76.5152
 -76.4897
 -77.4057
 -76.9458
 -84.7818
 -84.7743
 -84.7921
 -84.781
 -82.8258
 -83.006
 -82.9327
 -82.7614
 -53.9037
 -53.7429
 -53.8746
 -54.5822
 -82.766
 -82.8964
 -82.6845
 -82.9514
 -80.0395
 -80.1737
 -79.5599
 -80.2754
 -82.1532
 -82.3031
 -82.3207
 -27.4277
 -27.5234
 -27.5976
 -66.6539
 -65.7542
 -73.0637
 -72.9916
 -72.1986
 -73.7542
 -83.5969
 -83.7827
 -83.6521
 -83.5857
 -82.802
 -82.887
 -83.1714
 -83.0736
 -83.0565
 -82.9317
 -83.3262
 -37.4284
 -37.4386
 -53.8341
 -53.5781
 -54.1912
 -53.9503
 -79.7681
 -36.9897
 -36.0532
 -36.38
 -36.4772
 -64.9091
 -66.435
 -65.5329
 -65.2614
 -74.8745
 -74.2388
 -43.47
 -45.5172
 -45.3778
 -44.224
 -84.7019
 -84.7341
 -84.7367
 -84.7029
 -84.4496
 -84.5003
 -84.4892
 -84.5234
 -57.676
 -60.2805
 -58.2344
 -59.4856
 -66.5763
 -65.8771
 -68.4702
 -68.0394
 -67.1765
 -66.6208
 -67.2219
 -83.238
 -83.4285
 -83.0641
 -83.2365
 -53.7757
 -54.9383
 -55.5138
 -55.5826
 -76.3645
 -76.4166
 -76.2252
 -81.9595
 -82.1026
 -82.1954
 -82.4963
 -66.4694
 -66.8062
 -67.4983
 -67.0404
 -61.148
 -62.3643
 -63.3618
 -61.8055
 -62.8443
 -62.012
 -62.306
 -63.3504
 -71.3638
 -71.5865
 -72.9428
 -71.9982
 -81.299
 -81.0635
 -65.0359
 -65.204
 -65.4406
 -64.3365
 -84.783
 -84.7301
 -84.7513
 -84.7501
 -60.808
 -61.5907
 -60.979
 -61.7487
 -48.8001
 -48.3806
 -49.5462
 -49.1416
 -80.0208
 -79.8244
 -41.0305
 -41.0309
 -40.3464
 -41.2659
 -68.9409
 -70.2318
 -68.3363
 -84.7014
 -84.7185
 -84.7355
 -84.7238
 -42.3513
 -41.6948
 -42.0608
 -61.747
 -61.5003
 -62.6113
 -62.1337
 -43.3727
 -60.4301
 -59.8241
 -60.1591
 -58.9344
 -77.3024
 -76.7226
 -77.476
 -77.4897
 -72.3503
 -72.5922
 -73.1936
 -72.2819
 -84.7199
 -84.7595
 -79.1281
 -79.5876
 -79.4236
 -79.1453
 -58.4049
 -56.6389
 -58.7169
 -56.4754
 -67.8559
 -70.2847
 -68.9034
 -68.1485
 -84.4131
 -84.3808
 -84.3743
 -84.4054
 -73.5406
 -74.2776
 -75.1632
 -74.6258
 -80.267
 -83.9573
 -83.9626
 -83.8735
 -67.8911
 -68.3237
 -66.8862
 -68.5464
 -82.7264
 -82.6067
 -82.6985
 -82.4788
 -69.5825
 -68.2262
 -68.8071
 -69.8865
 -84.6959
 -84.6751
 -84.6438
 -84.7014
 -84.8625
 -84.867
 -84.8589
 -62.2331
 -62.8357
 -64.0504
 -63.3692
 -81.3435
 -81.3605
 -80.9035
 -81.1581
 -82.1988
 -82.3589
 -82.4774
 -82.5685
 -65.0873
 -65.4655
 -60.2385
 -59.8046
 -59.3445
 -60.7649
 -71.2964
 -73.2166
 -79.7501
 -80.0331
 -79.7291
 -79.525
 -80.9558
 -81.0911
 -81.4541
 -81.0162
 -71.1899
 -72.1979
 -72.9338
 -72.145
 -79.1419
 -79.1553
 -79.1792
 -84.1483
 -84.0744
 -84.0099
 -84.0917
 -83.4312
 -83.3483
 -83.4394
 -71.6572
 -72.9586
 -71.0066
 -72.4257
 -61.7219
 -59.8806
 -59.151
 -61.2445
 -82.4981
 -82.0849
 -82.1589
 -82.3581
 -73.3034
 -73.0858
 -71.7236
 -56.7742
 -56.6595
 -56.7876
 -56.6927
 -66.2892
 -66.2316
 -66.7217
 -67.106
 -83.8523
 -83.7175
 -83.6893
 -84.8178
 -84.7851
 -84.8045
 -82.1646
 -82.322
 -82.3855
 -66.3815
 -65.1968
 -66.8783
 -65.9376
 -84.8672
 -84.8752
 -84.865
 -84.8749
 -81.8695
 -81.6056
 -81.7611
 -82.0347
 -84.0274
 -84.0757
 -84.1676
 -84.1937
 -83.889
 -83.9825
 -83.9201
 -83.9344
 -47.4228
 -46.0327
 -46.3923
 -70.7399
 -71.0549
 -70.2537
 -71.1417
 -84.1263
 -84.1498
 -84.0646
 -84.0714
 -75.1396
 -75.4962
 -75.4704
 -76.3989
 -82.7226
 -82.7409
 -82.737
 -82.4786
 -84.2816
 -84.3549
 -53.6647
 -54.4666
 -54.3603
 -54.9086
 -83.2205
 -83.0498
 -83.4014
 -83.1812
 -72.1154
 -71.8631
 -71.3459
 -72.5515
 -82.287
 -81.7528
 -84.7622
 -84.7596
 -84.7146
 -84.7551
 -83.9282
 -84.0948
 -83.8661
 -84.1099
 -84.8427
 -84.8576
 -84.88
 -84.876
 -83.3332
 -83.3638
 -83.4543
 -82.276
 -82.6202
 -82.6528
 -82.4657
 -82.4299
 -82.2959
 -82.4264
 -82.0658
 -64.379
 -64.6913
 -63.7209
 -63.2768
 -45.2574
 -44.8448
 -46.0468
 -77.0458
 -76.9785
 -77.165
 -84.1257
 -84.0066
 -84.065
 -83.9834
 -71.7776
 -72.5215
 -73.4677
 -72.5726
 -59.5562
 -57.7044
 -58.2331
 -59.7696
 -77.8411
 -77.1158
 -76.5637
 -76.733
 -68.7562
 -70.6493
 -68.888
 -84.788
 -84.7978
 -84.7464
 -84.7405
 -54.8051
 -55.0993
 -59.4924
 -60.1807
 -60.2414
 -82.9944
 -83.0993
 -82.8247
 -83.2356
 -76.7291
 -77.8766
 -77.5137
 -77.6198
 -57.6496
 -57.9012
 -58.7657
 -57.8422
 -79.0661
 -77.7407
 -77.9811
 -78.5465
 -68.7428
 -67.7042
 -69.3996
 -69.5021
 -84.3731
 -84.4252
 -84.5324
 -66.6549
 -66.6303
 -67.4751
 -67.4092
 -78.8319
 -79.3376
 -56.5193
 -57.8423
 -57.2329
 -56.7332
 -58.5592
 -57.3559
 -57.9788
 -57.4801
 -84.3798
 -84.3696
 -60.7615
 -61.9621
 -61.2564
 -60.0167
 -78.0102
 -77.3674
 -77.6459
 -78.1451
 -70.641
 -48.2178
 -47.0629
 -47.4372
 -80.1574
 -79.9809
 -80.0025
 -79.6079
 -84.5557
 -84.5653
 -84.5406
 -84.5938
 -47.1706
 -47.8058
 -47.8507
 -46.6577
 -59.9663
 -60.7256
 -59.6386
 -59.9388
 -81.8004
 -81.861
 -81.866
 -48.7494
 -48.5636
 -49.5803
 -49.6975
 -84.8119
 -84.7915
 -84.7855
 -84.8215
 -53.5469
 -54.12
 -54.3642
 -53.0553
 -81.77
 -81.408
 -81.6414
 -81.9189
 -71.3748
 -72.3957
 -71.9171
 -71.1776
 -57.4691
 -57.8907
 -57.4279
 -68.7277
 -70.0335
 -68.7621
 -69.8165
 -58.3466
 -57.5065
 -58.095
 -58.0874
 -59.8315
 -58.9114
 -59.2444
 -83.5665
 -83.3482
 -83.5965
 -83.0689
 -82.8927
 -75.7592
 -77.3923
 -76.2752
 -76.3532
 -84.6807
 -84.6686
 -84.6256
 -84.6661
 -80.2959
 -80.9013
 -79.9291
 -80.6973
 -81.1946
 -81.4889
 -81.1564
 -81.1319
 -59.7462
 -59.306
 -60.4297
 -60.8343
 -60.231
 -81.8255
 -81.3155
 -81.6513
 -81.9247
 -84.6619
 -84.7218
 -78.2173
 -78.4601
 -77.6208
 -78.5348
 -57.6715
 -57.474
 -58.1648
 -84.3278
 -84.4053
 -84.3022
 -84.3393
 -78.678
 -77.5677
 -78.0719
 -78.2052
 -59.4012
 -58.9143
 -59.516
 -59.8879
 -76.3057
 -76.2633
 -77.4676
 -76.5657
 -81.2634
 -81.9122
 -52.065
 -51.5859
 -51.8093
 -51.3573
 -59.309
 -61.8719
 -62.4879
 -62.01
 -63.057
 -62.5817
 -61.7347
 -59.9541
 -60.1998
 -61.2248
 -78.4672
 -78.1239
 -78.1786
 -80.2731
 -80.1032
 -79.8304
 -79.6455
 -64.7412
 -64.5198
 -64.7642
 -64.622
 -72.5007
 -72.0588
 -79.1802
 -78.8222
 -79.1664
 -78.8391
 -79.4833
 -79.426
 -76.5645
 -77.2028
 -77.5024
 -76.5707
 -40.2091
 -41.6263
 -41.3719
 -41.8112
 -79.0005
 -58.4515
 -59.2938
 -58.6605
 -58.4581
 -84.8238
 -84.8409
 -84.8188
 -83.0355
 -83.0281
 -82.7919
 -83.041
 -75.4843
 -75.7136
 -75.2917
 -73.9583
 -79.1019
 -79.5376
 -78.7053
 -61.8996
 -62.8365
 -62.5027
 -61.8034
 -84.3302
 -84.3965
 -84.3042
 -84.3592
 -82.1144
 -81.9598
 -82.2276
 -82.0864
 -84.3491
 -84.3959
 -84.2479
 -84.3323
 -52.8114
 -52.6858
 -51.9894
 -52.071
 -63.5399
 -64.507
 -83.6053
 -83.5266
 -83.4485
 -83.5803
 -84.5889
 -84.58
 -84.5981
 -84.5717
 -84.8787
 -84.895
 -84.8638
 -84.8915
 -84.5141
 -84.4473
 -84.4959
 -81.657
 -82.0615
 -81.6183
 -81.9111
 -84.7247
 -84.7485
 -84.7398
 -84.7451
 -54.2009
 -55.1024
 -56.1729
 -54.9614
 -84.0511
 -84.1716
 -84.1791
 -81.9015
 -81.7762
 -81.6521
 -81.6074
 -58.1067
 -57.7428
 -58.1006
 -57.5123
 -81.8433
 -82.1406
 -82.0422
 -82.0331
 -80.2069
 -80.6006
 -80.8047
 -80.1985
 -63.7497
 -64.0827
 -65.4225
 -66.0727
 -52.8033
 -52.9934
 -51.8362
 -51.8603
 -72.6904
 -72.942
 -73.8357
 -72.8471
 -38.1953
 -38.1602
 -39.7987
 -38.7578
 -59.0168
 -59.8899
 -58.9063
 -61.8404
 -60.4769
 -60.3452
 -59.9534
 -34.4296
 -34.5357
 -33.7595
 -34.9464
 -84.4204
 -84.3704
 -84.3896
 -83.7565
 -83.8191
 -83.929
 -83.9207
 -62.6312
 -64.9167
 -64.1567
 -45.833
 -46.4022
 -45.7462
 -51.878
 -51.1785
 -52.0696
 -52.221
 -64.3312
 -64.2055
 -65.1502
 -63.3729
 -81.9344
 -82.487
 -82.2341
 -82.191
 -40.6157
 -40.3341
 -40.8405
 -39.8633
 -81.0056
 -80.1685
 -80.1241
 -80.8562
 -83.759
 -83.7796
 -83.6236
 -83.748
 -79.8565
 -79.7615
 -80.6587
 -80.1392
 -74.6657
 -73.7705
 -75.2288
 -59.1007
 -59.0065
 -59.1407
 -59.6782
 -84.44
 -84.4826
 -84.5195
 -84.4652
 -84.1027
 -84.1493
 -84.0694
 -83.9661
 -63.4131
 -64.4606
 -63.7188
 -62.8257
 -84.4891
 -84.5379
 -84.5608
 -84.6663
 -84.739
 -84.7057
 -84.691
 -84.7007
 -84.6898
 -84.6561
 -84.6698
 -43.7195
 -43.4924
 -34.4706
 -34.7133
 -34.2767
 -35.239
 -80.7046
 -80.4801
 -80.1148
 -75.5948
 -75.085
 -76.332
 -75.139
 -78.0138
 -78.8308
 -78.6162
 -78.1367
 -27.7947
 -72.6179
 -80.3292
 -80.7885
 -84.1507
 -84.1986
 -84.1926
 -84.1618
 -46.013
 -68.8247
 -69.8546
 -68.7928
 -84.909
 -84.9022
 -84.9032
 -84.9004
 -78.1717
 -77.6756
 -78.3037
 -78.9273
 -84.541
 -84.5252
 -84.5835
 -84.4926
 -74.2834
 -75.4211
 -73.1638
 -71.012
 -72.5405
 -71.5538
 -84.533
 -84.5125
 -84.4591
 -84.5454
 -81.1557
 -80.773
 -80.3857
 -80.3317
 -54.8463
 -54.0515
 -55.4868
 -55.3048
 -83.8126
 -84.0221
 -83.936
 -84.6569
 -84.7122
 -84.7123
 -84.6544
 -83.9858
 -83.9274
 -83.8726
 -83.9175
 -63.2684
 -63.2352
 -65.7828
 -63.1202
 -66.2432
 -65.3925
 -65.5401
 -65.5845
 -84.4626
 -84.4979
 -84.5001
 -84.4979
 -72.0668
 -72.6255
 -71.2087
 -83.6613
 -83.6389
 -83.6189
 -83.4997
 -56.4927
 -57.6626
 -55.9141
 -56.2014
 -81.4187
 -81.6777
 -81.0454
 -81.3307
 -56.3393
 -57.236
 -56.3674
 -56.2721
 -79.0881
 -79.2001
 -78.5338
 -79.1949
 -83.7831
 -83.7459
 -83.8796
 -83.7113
 -53.9069
 -53.5396
 -54.3298
 -77.8392
 -78.503
 -84.3511
 -84.3368
 -84.2924
 -84.2604
 -71.8577
 -71.0832
 -70.9008
 -54.6353
 -53.7954
 -53.4626
 -53.8924
 -82.5683
 -82.6702
 -82.5807
 -82.7797
 -81.2475
 -81.2498
 -81.8405
 -81.4094
 -30.4782
 -30.537
 -31.2959
 -30.663
 -77.9299
 -76.8932
 -77.4193
 -37.7897
 -38.5987
 -38.9128
 -77.7619
 -77.4287
 -76.8979
 -77.7637
 -76.8363
 -52.1328
 -52.7535
 -50.7214
 -51.6254
 -74.4678
 -75.654
 -75.691
 -84.1823
 -84.1864
 -84.2056
 -84.1324
 -75.1087
 -75.5726
 -76.1509
 -76.1199
 -76.9517
 -76.7271
 -76.6834
 -84.8625
 -84.8602
 -84.8539
 -84.8445
 -59.751
 -62.4712
 -61.8791
 -61.2258
 -51.6222
 -51.6286
 -52.1042
 -52.1747
 -70.2659
 -70.0076
 -71.6256
 -70.3442
 -84.3522
 -84.3178
 -84.3817
 -84.2753
 -30.0689
 -30.6669
 -30.0003
 -30.9263
 -83.8326
 -83.6392
 -83.717
 -83.7291
 -50.6742
 -50.011
 -50.8077
 -50.5333
 -84.0911
 -83.7745
 -83.9093
 -84.0501
 -83.0486
 -82.9913
 -82.8425
 -82.9407
 -83.8483
 -83.8932
 -64.1165
 -63.1223
 -62.959
 -63.8251
 -84.4694
 -84.4882
 -84.4842
 -83.0835
 -82.8222
 -82.8759
 -83.1343
 -61.9162
 -63.1194
 -62.322
 -61.2859
 -68.4092
 -68.0052
 -69.393
 -27.4306
 -27.4557
 -27.2451
 -27.4307
 -76.1263
 -75.2874
 -76.6287
 -84.5432
 -84.579
 -84.4977
 -84.4809
 -83.6217
 -83.4762
 -84.2936
 -84.4081
 -84.4107
 -84.3656
 -82.4062
 -82.4186
 -48.5324
 -48.4149
 -47.429
 -49.1907
 -83.5088
 -83.5234
 -83.5238
 -83.3622
 -77.5026
 -77.7369
 -68.8676
 -69.5048
 -69.0209
 -68.7491
 -84.2304
 -84.3024
 -84.2928
 -84.2901
 -64.6934
 -62.272
 -62.5791
 -64.2597
 -84.4553
 -84.4676
 -84.536
 -84.5675
 -79.7134
 -79.7702
 -79.3052
 -49.1255
 -48.6852
 -48.4296
 -49.0232
 -81.8023
 -81.8214
 -81.6869
 -81.3965
 -59.7869
 -58.4715
 -58.423
 -57.6014
 -61.7305
 -59.8881
 -61.1717
 -29.348
 -29.2393
 -29.4202
 -29.7548
 -52.8193
 -54.1943
 -54.5903
 -53.2939
 -83.3898
 -83.363
 -83.5357
 -83.3378
 -77.2962
 -77.6921
 -76.6585
 -69.9258
 -58.3763
 -59.1072
 -58.6557
 -59.2387
 -72.7049
 -71.6114
 -72.5235
 -73.0456
 -83.0565
 -83.3822
 -83.3982
 -83.0744
 -55.9112
 -56.0156
 -58.3609
 -46.4254
 -79.557
 -79.7019
 -79.1405
 -80.0354
 -58.9211
 -60.3509
 -36.0471
 -35.3023
 -57.6717
 -58.6994
 -57.7997
 -56.5352
 -82.8476
 -83.0133
 -84.3227
 -84.312
 -84.3311
 -84.2987
 -69.2869
 -70.5065
 -70.3828
 -70.5734
 -84.7593
 -84.7752
 -84.7888
 -84.7812
 -66.9141
 -67.366
 -64.6858
 -64.5404
 -83.5967
 -83.6446
 -83.4664
 -83.3558
 -62.5086
 -62.5877
 -63.2708
 -63.137
 -83.2878
 -83.3541
 -83.1153
 -83.2495
 -72.0922
 -73.5064
 -84.5724
 -84.5551
 -82.7747
 -83.0277
 -82.7209
 -83.0512
 -82.5115
 -82.3406
 -82.3897
 -82.7157
 -78.9903
 -78.6981
 -79.2864
 -79.1562
 -83.3146
 -83.1757
 -83.4831
 -83.4793
 -61.7838
 -60.6
 -61.2369
 -61.1256
 -84.5237
 -84.4956
 -84.5042
 -84.5472
 -84.6087
 -84.5618
 -84.5905
 -56.2845
 -57.4907
 -57.4443
 -56.8005
 -82.2499
 -81.9812
 -81.9904
 -82.215
 -53.963
 -55.4043
 -55.414
 -56.7038
 -78.8224
 -75.2079
 -76.4168
 -76.4655
 -75.5121
 -83.9286
 -83.9224
 -83.8867
 -83.7761
 -39.0355
 -38.222
 -38.6578
 -39.6858
 -82.1628
 -82.3061
 -82.4516
 -82.2047
 -77.3702
 -77.9367
 -76.3999
 -76.9813
 -83.4127
 -83.2746
 -83.2381
 -83.1773
 -81.5973
 -84.8717
 -84.8781
 -84.8491
 -84.8538
 -83.5702
 -83.6459
 -83.4502
 -83.446
 -35.3836
 -35.6395
 -36.2746
 -35.294
 -72.6078
 -71.4614
 -70.9133
 -71.802
 -65.7107
 -77.5647
 -77.8544
 -77.9738
 -78.5601
 -84.4255
 -84.444
 -84.3558
 -84.3259
 -84.0381
 -83.9746
 -84.1475
 -84.3987
 -84.2658
 -84.318
 -84.3041
 -30.1272
 -30.3587
 -83.4784
 -83.3547
 -83.267
 -63.7804
 -63.7651
 -63.2719
 -64.8548
 -82.8724
 -82.7619
 -82.8123
 -82.5899
 -78.9849
 -82.484
 -82.1493
 -82.4757
 -82.4476
 -84.4402
 -84.2839
 -84.3613
 -84.4269
 -82.3365
 -82.5657
 -82.7907
 -82.3786
 -71.8448
 -72.4197
 -70.5694
 -73.2206
 -57.8542
 -58.0517
 -57.5559
 -58.2124
 -84.8353
 -84.8161
 -84.825
 -84.8287
 -82.9839
 -82.9185
 -83.0205
 -82.7752
 -84.8252
 -84.817
 -84.8176
 -84.8254
 -64.5148
 -62.4854
 -64.5834
 -64.847
 -78.0091
 -77.6723
 -84.5199
 -84.597
 -84.53
 -84.5558
 -78.5835
 -78.6269
 -78.5617
 -79.2621
 -76.1311
 -76.855
 -78.9795
 -78.8386
 -79.5832
 -78.8829
 -84.1177
 -84.1507
 -84.099
 -84.2352
 -68.2069
 -66.6499
 -65.9915
 -67.3712
 -46.4873
 -47.2812
 -46.4811
 -46.4188
 -54.5816
 -54.0793
 -54.2166
 -53.922
 -66.5765
 -67.627
 -67.8474
 -66.6014
 -72.6311
 -71.1871
 -72.0526
 -75.429
 -73.977
 -74.8553
 -75.0049
 -78.3958
 -78.1168
 -77.6819
 -78.4946
 -46.3469
 -46.4543
 -46.7695
 -71.3352
 -69.8876
 -71.6094
 -71.176
 -79.5213
 -80.1757
 -80.0542
 -79.2988
 -62.3784
 -60.6051
 -62.6753
 -60.789
 -67.9239
 -68.9209
 -68.8631
 -68.6372
 -79.814
 -79.6975
 -80.0845
 -80.4737
 -78.3534
 -77.5959
 -78.268
 -78.1154
 -82.7718
 -82.6456
 -82.6752
 -82.5233
 -53.3518
 -53.7237
 -54.0654
 -83.9013
 -83.8042
 -83.9734
 -83.8814
 -62.7216
 -64.0852
 -62.7823
 -61.9183
 -73.5947
 -73.3512
 -72.6236
 -74.0596
 -75.0073
 -75.9949
 -76.086
 -80.3686
 -80.4627
 -80.5869
 -80.8654
 -82.3276
 -82.3105
 -82.5615
 -82.1274
 -82.5151
 -82.7192
 -82.8183
 -84.2656
 -84.2543
 -84.3218
 -82.4638
 -82.3165
 -82.1014
 -82.1821
 -84.0654
 -84.0713
 -83.9703
 -84.4981
 -84.5027
 -84.4992
 -84.4496
 -75.5282
 -73.6361
 -74.9511
 -74.214
 -64.4745
 -63.5869
 -65.2949
 -64.0156
 -60.558
 -84.1873
 -84.1688
 -84.317
 -84.0486
 -84.1293
 -83.9325
 -28.8452
 -28.5897
 -28.8872
 -29.2506
 -83.5177
 -83.3628
 -72.8074
 -72.7133
 -74.0049
 -84.8093
 -84.8207
 -80.8335
 -80.2286
 -80.4705
 -80.6949
 -71.8142
 -72.4065
 -72.4275
 -83.6511
 -83.9092
 -83.8273
 -83.8575
 -65.8392
 -66.2454
 -65.3255
 -67.103
 -33.3631
 -34.034
 -33.8494
 -33.072
 -80.4823
 -80.5645
 -80.4877
 -80.9398
 -84.017
 -84.2288
 -84.0725
 -83.8252
 -83.7606
 -83.8398
 -83.7266
 -61.6835
 -59.9812
 -59.8238
 -59.2158
 -64.4409
 -65.2393
 -55.8618
 -57.07
 -55.4146
 -84.7048
 -84.6769
 -83.8169
 -83.6431
 -83.7845
 -83.6971
 -78.5273
 -79.2274
 -78.9942
 -83.5165
 -83.3111
 -83.676
 -83.6059
 -62.7716
 -60.2879
 -60.7241
 -61.9263
 -76.5683
 -76.3751
 -77.2865
 -77.4356
 -76.6764
 -77.2163
 -77.4897
 -76.7961
 -59.5484
 -60.1195
 -58.9683
 -64.8537
 -63.8528
 -64.7462
 -64.4312
 -84.8563
 -84.8593
 -84.8589
 -84.8758
 -50.3607
 -48.7775
 -84.4247
 -84.5135
 -84.4876
 -84.4592
 -74.5384
 -75.5777
 -75.1323
 -74.5395
 -79.8229
 -80.2111
 -80.1669
 -80.3362
 -54.6411
 -55.2703
 -77.0911
 -76.5272
 -76.524
 -75.8821
 -73
 -72.4955
 -72.1286
 -73.4069
 -84.1484
 -84.1556
 -84.1144
 -84.192
 -75.1213
 -76.0932
 -76.0505
 -75.0406
 -65.2641
 -65.4885
 -81.6493
 -81.669
 -81.4172
 -81.7003
 -82.9662
 -82.947
 -83.1228
 -78.3288
 -79.0295
 -78.7592
 -79.2017
 -58.7728
 -59.6781
 -58.3686
 -60.2984
 -33.1241
 -33.9934
 -33.8184
 -32.9617
 -76.3556
 -75.9161
 -76.8874
 -77.6587
 -80.0477
 -80.5771
 -80.0333
 -80.1607
 -71.4631
 -72.1552
 -70.8556
 -71.1255
 -65.0349
 -64.2878
 -65.4291
 -66.0444
 -84.2189
 -84.262
 -81.5303
 -81.2718
 -81.0934
 -40.9108
 -40.5079
 -39.9296
 -41.2213
 -61.0027
 -59.9132
 -61.3173
 -59.1549
 -78.9156
 -78.9365
 -78.7699
 -78.3374
 -84.2425
 -84.2663
 -84.2492
 -74.3375
 -73.6764
 -72.4364
 -72.5189
 -64.1202
 -65.8003
 -65.1883
 -64.0648
 -83.1307
 -82.7933
 -82.8046
 -82.9814
 -80.2301
 -80.1211
 -79.8771
 -79.884
 -83.4101
 -83.4355
 -83.3821
 -83.6736
 -83.6915
 -83.7346
 -83.6589
 -70.5669
 -71.0978
 -69.7182
 -69.5806
 -75.4905
 -74.8411
 -75.7517
 -34.8353
 -35.042
 -34.9869
 -34.4361
 -65.6106
 -65.7965
 -49.508
 -48.6865
 -49.9675
 -50.8487
 -59.6746
 -55.4287
 -84.2033
 -65.9308
 -64.5665
 -65.4393
 -64.0258
 -84.8517
 -81.3368
 -81.1259
 -81.2836
 -80.7893
 -65.4678
 -66.2324
 -65.6954
 -71.0585
 -72.2525
 -72.2384
 -83.7312
 -83.7889
 -83.6521
 -83.7976
 -84.0222
 -83.9682
 -84.0337
 -83.9381
 -57.069
 -55.3241
 -55.3654
 -56.4933
 -84.615
 -84.6111
 -84.6686
 -84.5976
 -76.9371
 -76.1649
 -75.2267
 -83.9917
 -84.0438
 -84.0568
 -79.1813
 -78.7203
 -78.9013
 -79.3078
 -65.976
 -66.7254
 -65.269
 -65.537
 -80.3943
 -81.0454
 -80.299
 -67.9911
 -68.778
 -68.6076
 -67.3671
 -74.2339
 -75.5721
 -83.9762
 -84.0816
 -84.0847
 -84.1937
 -84.2463
 -84.3312
 -84.2623
 -84.2671
 -58.1979
 -59.5578
 -57.9416
 -59.4569
 -82.8198
 -82.5013
 -82.7814
 -82.9026
 -81.2042
 -80.5002
 -81.0092
 -81.4559
 -72.6702
 -71.4417
 -73.2484
 -72.2264
 -84
 -83.9213
 -83.8858
 -83.7953
 -74.8854
 -73.6524
 -75.5217
 -74.7197
 -77.1054
 -76.7512
 -76.6877
 -77.854
 -73.5912
 -72.8809
 -73.8284
 -73.9422
 -60.9979
 -62.6316
 -56.7344
 -57.6758
 -58.6084
 -56.8817
 -47.1625
 -45.6726
 -47.0435
 -47.3956
 -81.3598
 -81.2952
 -81.0225
 -81.6114
 -79.8746
 -79.554
 -79.2821
 -84.7876
 -84.7911
 -84.7794
 -84.7781
 -84.6578
 -84.7074
 -84.6409
 -84.3456
 -84.4002
 -84.305
 -79.7193
 -80.3594
 -80.5438
 -79.8289
 -82.3319
 -82.409
 -82.5428
 -82.1251
 -84.08
 -84.1602
 -84.1337
 -84.1893
 -66.3315
 -65.0123
 -65.3363
 -66.0442
 -50.8607
 -51.6899
 -52.4716
 -52.4044
 -84.803
 -84.8232
 -84.7651
 -84.8292
 -62.9188
 -62.5268
 -61.6885
 -63.0171
 -78.1104
 -77.995
 -78.3652
 -77.8547
 -84.8068
 -84.8293
 -84.7848
 -84.8485
 -80.8484
 -80.3808
 -81.0523
 -80.8815
 -73.7062
 -73.3091
 -73.9597
 -73.3584
 -64.1973
 -63.1622
 -63.3729
 -55.257
 -56.7418
 -55.8499
 -55.0539
 -60.4761
 -60.1631
 -60.7589
 -59.9686
 -57.4991
 -57.7364
 -62.0166
 -62.983
 -60.3393
 -83.2978
 -83.1453
 -83.1483
 -83.1344
 -84.7871
 -84.7821
 -84.779
 -84.7824
 -82.2751
 -82.079
 -82.2927
 -81.788
 -74.4295
 -83.964
 -84.0187
 -84.0261
 -83.9117
 -57.1685
 -57.1404
 -57.0725
 -56.9346
 -84.6527
 -84.6474
 -84.6478
 -84.685
 -68.7543
 -68.3412
 -69.975
 -82.9819
 -54.8415
 -54.6236
 -53.5725
 -61.7749
 -60.7012
 -59.7722
 -62.1561
 -78.0928
 -78.0729
 -76.9123
 -77.9117
 -83.2678
 -83.236
 -83.1178
 -83.4331
 -74.2609
 -83.0125
 -82.8619
 -82.8803
 -75.1598
 -75.2169
 -75.3015
 -76.2344
 -68.3769
 -68.7172
 -67.7744
 -67.6232
 -71.0906
 -69.7541
 -70.6941
 -71.1721
 -83.1187
 -63.2776
 -63.6562
 -64.0578
 -83.2796
 -83.1375
 -83.3627
 -83.2244
 -84.164
 -84.1213
 -84.2425
 -84.0787
 -84.6373
 -84.661
 -84.6282
 -67.2391
 -67.34
 -66.5237
 -67.2478
 -52.2685
 -51.5478
 -52.2287
 -83.5515
 -83.6011
 -83.8621
 -83.8207
 -83.7851
 -83.7483
 -75.2693
 -75.8194
 -76.2485
 -84.7217
 -84.7248
 -84.7574
 -84.7335
 -84.2117
 -84.204
 -84.251
 -84.2531
 -81.6144
 -81.8895
 -81.9771
 -82.0978
 -79.2913
 -79.4835
 -78.9724
 -78.4482
 -64.2394
 -64.233
 -63.7577
 -64.6372
 -83.9159
 -83.8913
 -83.8156
 -83.9475
 -68.4828
 -68.9189
 -67.1196
 -72.1848
 -73.1177
 -73.4635
 -73.5296
 -84.718
 -84.6916
 -84.7488
 -84.7403
 -82.8741
 -82.8934
 -82.8883
 -82.7125
 -84.778
 -84.7556
 -84.7172
 -84.7739
 -70.1159
 -70.7556
 -71.32
 -71.1533
 -78.7252
 -78.7488
 -78.1904
 -79.2902
 -84.5324
 -84.5111
 -84.5663
 -84.5428
 -77.6302
 -78.0808
 -77.0507
 -77.269
 -84.7984
 -84.8023
 -84.7931
 -65.9272
 -65.3915
 -65.3645
 -65.5711
 -80.277
 -80.2877
 -79.9282
 -79.6952
 -81.0907
 -81.3405
 -81.0389
 -81.225
 -76.2723
 -75.9947
 -77.2103
 -76.2029
 -84.2172
 -84.2308
 -84.3168
 -84.2273
 -76.6255
 -75.5261
 -76.2346
 -76.0208
 -81.3453
 -81.2295
 -81.1665
 -81.0778
 -56.5846
 -56.6087
 -56.4763
 -56.576
 -83.8623
 -83.8705
 -83.7831
 -83.6882
 -54.5355
 -54.4628
 -54.4744
 -64.8928
 -64.1951
 -64.1674
 -64.9733
 -57.8798
 -58.7513
 -61.2886
 -59.0541
 -82.9325
 -82.9817
 -83.0861
 -83.171
 -81.9557
 -82.2713
 -81.9358
 -82.1267
 -68.0735
 -66.7494
 -67.0913
 -66.1392
 -84.8826
 -84.8733
 -84.8616
 -35.2671
 -35.0658
 -81.1302
 -81.349
 -80.8612
 -81.201
 -43.2859
 -42.0349
 -40.8053
 -41.7454
 -81.9293
 -82.1023
 -82.3488
 -82.1077
 -72.5951
 -69.1787
 -68.4515
 -68.2292
 -67.3997
 -83.5647
 -83.5396
 -83.5965
 -83.6637
 -84.5781
 -84.5132
 -84.6044
 -84.5611
 -56.5988
 -56.5723
 -82.8696
 -83.015
 -83.3235
 -82.9827
 -79.6407
 -78.5162
 -79.892
 -79.2636
 -62.9406
 -62.7832
 -62.1689
 -64.6312
 -76.7587
 -75.7062
 -75.5952
 -76.6769
 -83.9811
 -83.836
 -84.1564
 -84.8013
 -84.7918
 -84.7917
 -84.7927
 -84.7861
 -84.7864
 -84.8054
 -69.7637
 -69.1223
 -69.2883
 -70.2413
 -84.3424
 -84.3501
 -84.2858
 -84.303
 -59.1133
 -58.3049
 -58.6253
 -58.7588
 -82.0997
 -81.7422
 -82.114
 -81.5582
 -80.1561
 -80.7734
 -80.2521
 -80.2178
 -84.7744
 -84.7799
 -84.7712
 -84.7888
 -82.5555
 -82.6203
 -82.5553
 -82.3507
 -39.8474
 -39.2918
 -39.1931
 -39.9499
 -74.1487
 -72.3242
 -73.913
 -73.1189
 -69.0158
 -70.1686
 -70.5606
 -68.5593
 -83.3262
 -83.3252
 -83.1605
 -83.1122
 -60.3507
 -59.6134
 -59.3988
 -59.3789
 -80.8737
 -80.5189
 -80.2851
 -80.8763
 -66.3217
 -65.7732
 -65.0324
 -49.4051
 -48.9308
 -48.4764
 -48.5927
 -80.3924
 -80.8946
 -80.3248
 -81.4685
 -81.5038
 -81.4041
 -63.1283
 -62.2638
 -61.3039
 -58.8082
 -58.7793
 -59.2514
 -59.7778
 -84.3077
 -28.1247
 -28.4015
 -28.2386
 -27.8214
 -84.1892
 -84.1598
 -84.2523
 -84.1776
 -55.2971
 -71.2744
 -70.9785
 -71.0028
 -72.1078
 -69.2474
 -68.1303
 -70.9292
 -60.1881
 -62.2727
 -61.2576
 -60.7804
 -41.5191
 -41.4609
 -42.2218
 -40.6063
 -58.7327
 -59.5578
 -59.3317
 -79.5184
 -79.221
 -79.1499
 -69.8711
 -69.348
 -84.9
 -84.8825
 -84.8817
 -57.8174
 -59.277
 -57.5012
 -69.5505
 -70.4476
 -71.0177
 -84.2984
 -84.364
 -84.3816
 -83.5028
 -83.5123
 -83.6245
 -83.5627
 -63.0272
 -63.43
 -64.102
 -53.8759
 -52.7706
 -84.6295
 -84.6276
 -84.6741
 -84.6565
 -44.8676
 -45.2807
 -43.7936
 -46.0518
 -57.4627
 -57.0238
 -32.9689
 -32.4055
 -37.5243
 -37.3942
 -37.6504
 -70.9373
 -72.0489
 -70.6453
 -84.5589
 -84.5242
 -84.4386
 -82.7148
 -82.6453
 -82.8408
 -64.8482
 -64.211
 -65.4043
 -66.2043
 -65.0412
 -84.3697
 -54.0674
 -54.0333
 -54.4777
 -54.4726
 -69.8447
 -71.9956
 -70.222
 -70.8385
 -83.4148
 -83.4585
 -83.5799
 -82.1562
 -82.2478
 -82.0558
 -82.1093
 -71.0787
 -70.611
 -71.8567
 -72.891
 -83.2086
 -83.23
 -83.4724
 -83.4473
 -83.5471
 -83.4738
 -83.561
 -83.6883
 -77.1273
 -82.8265
 -83.0885
 -83.022
 -83.1123
 -84.7842
 -84.7992
 -84.773
 -84.7699
 -60.3451
 -58.0194
 -57.4815
 -58.9873
 -84.6951
 -84.7589
 -84.7497
 -84.7377
 -32.0353
 -32.6849
 -32.0143
 -84.4684
 -84.4296
 -84.5022
 -84.5189
 -61.0401
 -60.7915
 -59.4494
 -59.4807
 -84.027
 -83.9027
 -84.0191
 -84.092
 -57.9915
 -58.1085
 -55.2221
 -55.8829
 -84.6973
 -83.776
 -83.6346
 -83.7394
 -83.5953
 -84.486
 -84.5168
 -84.5318
 -53.6765
 -54.2031
 -53.4403
 -53.0689
 -82.8431
 -82.7565
 -82.6505
 -82.519
 -80.7379
 -81.2969
 -81.2879
 -81.0512
 -79.809
 -80.0775
 -79.5829
 -79.3876
 -84.8914
 -84.8762
 -72.6961
 -72.6749
 -72.4118
 -71.4656
 -72.5604
 -73.0872
 -73.3646
 -83.0036
 -82.799
 -83.1187
 -83.2386
 -82.5479
 -82.5939
 -82.5623
 -82.821
 -80.8484
 -81.1046
 -81.1864
 -80.6535
 -62.6625
 -62.3091
 -67.0414
 -66.3044
 -66.1679
 -69.916
 -70.8024
 -70.724
 -70.8062
 -50.4953
 -49.4732
 -49.9946
 -49.8617
 -70.1113
 -68.5627
 -67.576
 -41.2644
 -41.323
 -42.2055
 -69.8134
 -69.8321
 -68.7327
 -70.7233
 -61.4646
 -62.9031
 -60.552
 -76.8241
 -83.274
 -83.0852
 -83.3922
 -73.1656
 -73.1145
 -73.9252
 -74.3754
 -56.8689
 -56.8227
 -60.075
 -58.5392
 -78.2634
 -78.9374
 -79.0538
 -79.0218
 -83.6109
 -83.5119
 -84.8588
 -84.8482
 -84.8403
 -84.8565
 -83.0617
 -83.1877
 -83.2552
 -82.9866
 -74.7092
 -74.5983
 -74.4715
 -75.178
 -84.7122
 -84.7189
 -84.7654
 -84.6867
 -84.801
 -84.8031
 -84.8192
 -78.6302
 -77.9058
 -77.3916
 -78.211
 -57.645
 -57.3818
 -58.091
 -72.603
 -72.6342
 -73.8364
 -72.5575
 -51.463
 -50.373
 -52.0113
 -50.0973
 -81.9412
 -82.0153
 -82.1061
 -81.2294
 -56.8954
 -56.8999
 -56.8392
 -57.0681
 -63.971
 -64.5443
 -64.9065
 -64.4927
 -84.5006
 -84.4407
 -84.5498
 -84.4559
 -77.5206
 -77.6162
 -76.9003
 -77.6606
 -69.1884
 -68.5151
 -69.5668
 -68.5737
 -83.736
 -83.7094
 -83.419
 -83.6528
 -83.5348
 -83.5007
 -71.5757
 -72.9578
 -72.437
 -74.073
 -74.43
 -75.1017
 -74.8187
 -74.8779
 -57.6174
 -58.4882
 -57.4814
 -70.1734
 -69.326
 -68.5884
 -29.8188
 -29.2901
 -29.8497
 -29.4962
 -64.82
 -65.1599
 -53.394
 -54.0462
 -53.4124
 -52.1204
 -79.5624
 -78.8817
 -79.4674
 -78.7741
 -42.0099
 -43.4351
 -43.815
 -42.8106
 -60.9029
 -60.6827
 -59.6244
 -82.6844
 -82.7081
 -82.6321
 -82.5065
 -59.2965
 -60.5871
 -58.8865
 -55.2659
 -55.4974
 -53.9029
 -54.5473
 -68.849
 -68.3201
 -68.3899
 -69.7334
 -83.4543
 -83.7333
 -37.4643
 -37.9483
 -63.4445
 -62.5579
 -75.3504
 -74.3751
 -74.8105
 -74.5051
 -82.0685
 -82.3996
 -82.1459
 -82.4525
 -75.9468
 -76.1405
 -76.5658
 -76.6586
 -52.0839
 -50.0375
 -51.322
 -51.1924
 -80.4451
 -79.9147
 -80.0717
 -57.927
 -57.269
 -57.669
 -57.5512
 -84.4221
 -84.3723
 -84.4575
 -84.3433
 -82.5403
 -82.5726
 -82.6623
 -82.3003
 -59.3265
 -59.9473
 -58.9678
 -74.3829
 -73.0623
 -74.2687
 -74.6515
 -53.197
 -52.6898
 -53.1814
 -59.49
 -61.2478
 -60.6332
 -59.8567
 -60.4837
 -60.2475
 -61.4198
 -60.5841
 -74.709
 -73.6186
 -73.5547
 -72.9979
 -84.8198
 -84.8087
 -84.8009
 -84.8048
 -81.2549
 -81.6728
 -81.4101
 -81.7276
 -73.164
 -71.6837
 -72.645
 -78.839
 -78.5596
 -78.4029
 -84.3473
 -84.1843
 -84.3405
 -84.2362
 -81.0994
 -80.991
 -80.7461
 -81.2776
 -72.4724
 -73.5472
 -73.3115
 -73.787
 -50.8066
 -50.7759
 -59.2085
 -58.678
 -59.751
 -59.7545
 -34.9823
 -34.6521
 -33.7484
 -34.7023
 -83.3933
 -83.3761
 -83.4205
 -83.2699
 -61.01
 -59.8478
 -60.0744
 -59.9783
 -76.3982
 -75.7868
 -76.1268
 -75.0897
 -48.3331
 -47.7086
 -47.9701
 -47.7048
 -79.1189
 -78.9578
 -78.7057
 -78.6021
 -73.6491
 -82.743
 -82.8968
 -82.4285
 -82.4953
 -72.3857
 -70.8376
 -70.6522
 -71.717
 -70.5135
 -71.3662
 -72.2764
 -71.6821
 -67.4631
 -66.0419
 -66.2897
 -65.9401
 -57.8226
 -56.6021
 -58.5881
 -83.8716
 -83.8831
 -83.8928
 -83.6429
 -70.9557
 -70.6161
 -70.6328
 -70.1836
 -83.7104
 -83.7384
 -83.8809
 -82.5987
 -82.3167
 -82.4933
 -82.4646
 -83.4611
 -83.7553
 -83.6135
 -83.7662
 -53.6011
 -54.8403
 -53.3503
 -27.8047
 -28.0511
 -28.115
 -82.4311
 -82.7131
 -82.7178
 -79.2383
 -80.1951
 -79.8115
 -80.4759
 -69.2646
 -69.6798
 -70.1799
 -68.814
 -73.2156
 -73.374
 -71.877
 -72.2518
 -39.4069
 -40.0233
 -38.4294
 -40.2098
 -76.1464
 -75.7519
 -75.5879
 -75.5344
 -81.0147
 -81.2068
 -81.297
 -80.6003
 -60.7482
 -61.1576
 -64.1536
 -61.934
 -63.023
 -63.2055
 -82.7882
 -82.5886
 -82.7667
 -82.666
 -60.5638
 -61.6603
 -81.5273
 -81.3096
 -52.7739
 -28.9955
 -28.9017
 -29.0152
 -29.5423
 -47.4973
 -48.7928
 -84.8258
 -84.8561
 -84.8294
 -50.552
 -51.6375
 -52.768
 -51.7648
 -83.118
 -83.0153
 -64.3015
 -63.9689
 -64.1336
 -64.2891
 -67.5574
 -69.9086
 -69.2243
 -82.84
 -83.1021
 -82.9376
 -83.1624
 -81.5177
 -81.9383
 -81.6157
 -81.7713
 -84.1583
 -84.1901
 -84.3005
 -73.4453
 -72.3047
 -73.6171
 -72.1395
 -76.6533
 -84.0928
 -83.9763
 -84.0843
 -84.0763
 -54.2819
 -54.1317
 -54.4602
 -54.9327
 -78.6118
 -77.7658
 -78.2136
 -77.4629
 -83.3639
 -83.1402
 -83.3107
 -83.1276
 -32.2762
 -32.5702
 -32.8558
 -33.0689
 -59.0446
 -84.6879
 -70.3775
 -71.7988
 -70.7557
 -69.6058
 -77.88
 -78.2731
 -77.4465
 -77.3553
 -60.9862
 -59.4349
 -60.2352
 -60.7014
 -79.5357
 -79.2877
 -79.5988
 -79.7081
 -58.2781
 -58.4459
 -59.3138
 -56.2048
 -57.0428
 -57.8386
 -57.0121
 -72.4674
 -73.3018
 -71.5279
 -72.5096
 -83.342
 -83.4157
 -83.0778
 -84.8238
 -84.8482
 -84.8237
 -84.8317
 -38.7836
 -38.1262
 -37.8413
 -76.0196
 -76.1814
 -73.378
 -73.7671
 -72.717
 -74.2957
 -84.6119
 -84.5702
 -84.6287
 -84.6035
 -82.4992
 -82.2692
 -82.4706
 -82.2377
 -57.5178
 -59.4157
 -58.2021
 -45.4506
 -72.1989
 -71.2163
 -71.4494
 -72.4073
 -74.427
 -74.843
 -74.6068
 -82.4813
 -82.3551
 -82.3013
 -82.5708
 -83.6302
 -83.3783
 -83.5477
 -83.4563
 -70.6295
 -70.035
 -82.9023
 -82.8652
 -83.0679
 -83.2376
 -80.006
 -79.83
 -79.8568
 -80.3759
 -84.7982
 -84.8006
 -80.5229
 -80.0949
 -80.7135
 -80.4253
 -82.9432
 -83.055
 -83.151
 -83.1637
 -82.5986
 -82.784
 -82.5456
 -82.626
 -76.0679
 -76.3825
 -73.1863
 -73.7267
 -72.7794
 -72.1697
 -66.4567
 -65.351
 -66.0141
 -66.0898
 -79.5539
 -79.8814
 -79.9791
 -79.4342
 -56.7668
 -57.7475
 -58.1924
 -58.7439
 -60.9137
 -60.6852
 -60.1934
 -60.7241
 -36.6931
 -36.9678
 -36.8132
 -35.9917
 -66.3296
 -64.4378
 -78.4852
 -77.596
 -78.391
 -77.911
 -70.4531
 -69.9633
 -71.0901
 -71.6751
 -77.2085
 -77.6327
 -77.8273
 -77.5486
 -73.9077
 -73.7952
 -82.612
 -82.4375
 -84.8335
 -84.8429
 -84.837
 -84.8546
 -51.6732
 -73.3197
 -73.3246
 -73.69
 -74.3766
 -78.0037
 -77.0919
 -77.2943
 -77.1866
 -64.175
 -63.3149
 -62.8787
 -61.8293
 -81.921
 -81.5232
 -81.9943
 -81.6428
 -77.371
 -76.8264
 -76.5226
 -77.2847
 -58.177
 -57.8906
 -58.6281
 -57.1268
 -56.6981
 -68.7579
 -70.5527
 -68.9445
 -70.5049
 -69.1207
 -71.1858
 -69.3364
 -68.6492
 -57.9971
 -57.9831
 -57.0362
 -57.8718
 -61.4356
 -62.0235
 -63.8155
 -63.112
 -73.3173
 -74.1359
 -72.4925
 -72.4098
 -58.9435
 -58.395
 -58.1038
 -58.446
 -79.1739
 -79.4863
 -78.5514
 -65.4926
 -65.4339
 -65.349
 -64.9846
 -43.6166
 -44.4373
 -78.6911
 -79.094
 -79.3306
 -78.6122
 -79.4599
 -79.0618
 -79.4098
 -53.8665
 -54.6678
 -55.2679
 -51.0015
 -51.5166
 -51.5824
 -50.953
 -81.2862
 -81.293
 -81.4047
 -80.833
 -77.9649
 -76.929
 -78.0839
 -83.8367
 -83.6748
 -83.7312
 -74.9439
 -74.1091
 -74.3287
 -84.0992
 -84.1406
 -84.0956
 -34.2357
 -33.676
 -33.8651
 -34.2388
 -84.8081
 -84.8079
 -84.8026
 -84.8069
 -66.8184
 -65.8217
 -79.8277
 -78.9388
 -56.8408
 -57.1123
 -57.0014
 -58.1486
 -80.4826
 -80.4372
 -80.9645
 -82.7944
 -82.9868
 -82.9863
 -83.0326
 -83.9596
 -83.7957
 -54.6679
 -54.7836
 -54.5046
 -79.0086
 -78.7895
 -78.2306
 -63.4627
 -61.9703
 -63.3528
 -54.1208
 -54.0947
 -53.5315
 -53.0953
 -72.2406
 -72.5197
 -71.4799
 -72.8295
 -70.7007
 -69.2822
 -69.9375
 -70.4175
 -81.4757
 -81.2882
 -81.3306
 -81.7309
 -82.9163
 -82.8455
 -82.9196
 -82.6892
 -68.8081
 -68.2704
 -69.8415
 -81.3675
 -81.3274
 -81.05
 -82.723
 -82.9007
 -82.6818
 -82.6702
 -84.8427
 -84.8261
 -84.8574
 -76.523
 -76.4561
 -76.3795
 -82.083
 -82.2296
 -81.7985
 -75.2496
 -75.9278
 -74.742
 -65.5574
 -63.9904
 -64.2104
 -54.9807
 -55.7127
 -55.2024
 -55.318
 -74.896
 -75.5885
 -76.5921
 -75.7943
 -62.7923
 -62.0844
 -60.9827
 -57.2213
 -58.4437
 -82.3094
 -82.1085
 -82.5941
 -82.2799
 -82.3151
 -82.4702
 -82.2894
 -81.9779
 -58.2212
 -59.413
 -60.031
 -60.5954
 -57.7355
 -56.7957
 -57.168
 -56.6661
 -47.19
 -46.6842
 -47.2939
 -46.3778
 -84.3738
 -84.4158
 -83.9018
 -83.7639
 -83.8074
 -83.8943
 -84.6927
 -64.8958
 -66.206
 -64.4642
 -77.2423
 -77.587
 -76.8329
 -76.8176
 -59.0435
 -58.7088
 -74.3799
 -74.405
 -74.8228
 -53.1872
 -53.6512
 -83.6237
 -83.672
 -83.7921
 -83.5776
 -84.1002
 -84.0981
 -84.2171
 -84.2094
 -83.305
 -83.3188
 -83.0679
 -66.4283
 -67.3978
 -67.2842
 -83.8464
 -83.8638
 -83.9125
 -83.9614
 -62.8396
 -60.9509
 -62.4
 -63.0087
 -83.5282
 -83.4058
 -83.4287
 -83.5385
 -62.9255
 -61.1205
 -60.7605
 -63.6295
 -54.7716
 -55.3365
 -54.0865
 -84.7419
 -84.7956
 -84.7567
 -84.7652
 -57.3196
 -57.6135
 -57.4901
 -72.3816
 -73.044
 -73.5594
 -72.933
 -84.4923
 -84.5569
 -84.524
 -61.9355
 -60.7067
 -61.7108
 -60.8173
 -80.8813
 -84.3785
 -84.4021
 -84.2728
 -84.3719
 -53.2799
 -53.5613
 -54.0638
 -53.5761
 -82.5912
 -82.1003
 -82.4676
 -82.6131
 -77.1275
 -77.4517
 -76.0524
 -54.6486
 -53.7775
 -55.0005
 -52.1889
 -81.6963
 -81.7388
 -81.8806
 -60.8746
 -60.5124
 -35.1643
 -34.4782
 -35.4473
 -35.7547
 -47.2109
 -45.1057
 -44.8479
 -83.8977
 -83.8323
 -84.2364
 -84.0996
 -84.1268
 -84.1549
 -49.8343
 -50.4896
 -48.9727
 -50.5709
 -70.7984
 -71.5165
 -71.5544
 -71.597
 -74.2929
 -72.8919
 -73.0895
 -73.6877
 -77.9386
 -77.745
 -78.4852
 -77.6634
 -78.8628
 -77.7537
 -78.5748
 -78.0786
 -84.5537
 -58.0405
 -57.6792
 -58.1243
 -57.7619
 -84.6411
 -84.6187
 -84.6715
 -79.74
 -79.0169
 -78.8249
 -79.0508
 -54.479
 -55.6835
 -55.947
 -77.2418
 -76.5454
 -77.1614
 -76.4248
 -75.5348
 -81.4068
 -81.5659
 -81.8421
 -81.769
 -63.8374
 -63.9781
 -63.8133
 -75.754
 -77.3485
 -77.0131
 -84.6145
 -84.5849
 -84.5534
 -84.5855
 -74.2601
 -73.6191
 -73.5644
 -32.6167
 -33.0464
 -32.1541
 -74.3101
 -73.586
 -74.0514
 -72.6931
 -81.7886
 -82.0144
 -82.075
 -76.4262
 -76.3106
 -84.1901
 -84.2001
 -84.1311
 -84.123
 -83.4146
 -83.5431
 -83.4255
 -83.4527
 -84.818
 -84.8163
 -84.798
 -84.7926
 -78.9233
 -77.5611
 -78.5742
 -78.8904
 -82.492
 -82.5178
 -82.3548
 -82.1248
 -84.2029
 -84.2622
 -84.3036
 -62.4824
 -63.2722
 -61.3076
 -61.9034
 -72.8226
 -73.9032
 -68.4366
 -67.6327
 -68.8062
 -68.1799
 -82.1629
 -82.0169
 -82.1449
 -82.272
 -74.3602
 -75.3904
 -74.8438
 -74.2437
 -82.1986
 -82.0531
 -82.5306
 -82.1657
 -76.1064
 -76.4659
 -76.84
 -77.13
 -75.595
 -74.6674
 -74.9327
 -83.9851
 -83.8994
 -84.0042
 -84.5153
 -84.4943
 -84.4751
 -84.593
 -84.5395
 -84.5236
 -84.5735
 -82.9286
 -83.1296
 -82.9245
 -38.2406
 -37.7656
 -37.2852
 -72.6792
 -73.9718
 -72.9297
 -83.94
 -84.0137
 -83.9745
 -83.9243
 -72.582
 -73.0936
 -72.5009
 -78.9072
 -79.4201
 -78.9401
 -78.6882
 -80.714
 -79.601
 -80.1019
 -79.9136
 -75.6327
 -76.2597
 -76.2707
 -76.9293
 -59.7486
 -60.6129
 -59.8823
 -59.4642
 -73.0396
 -78.9729
 -79.0266
 -79.3718
 -78.1403
 -57.068
 -57.3034
 -57.4506
 -57.3923
 -54.3694
 -55.32
 -54.6264
 -55.1896
 -57.8645
 -58.0533
 -58.2069
 -57.2315
 -81.1363
 -81.2761
 -81.5689
 -81.7685
 -62.3355
 -61.4502
 -62.0248
 -62.3591
 -84.6145
 -84.5662
 -84.6235
 -84.579
 -44.816
 -45.3368
 -46.1708
 -45.9507
 -60.2361
 -60.33
 -60.1242
 -52.4042
 -51.8417
 -51.5629
 -51.5994
 -55.9102
 -55.267
 -56.7014
 -58.1188
 -58.2485
 -77.1475
 -76.9937
 -77.3962
 -78.6566
 -84.6112
 -84.5452
 -84.5118
 -84.5287
 -84.5158
 -84.5454
 -84.4992
 -59.2719
 -58.5711
 -84.5924
 -84.6255
 -84.5772
 -84.0112
 -83.973
 -83.9751
 -84.12
 -55.992
 -55.5095
 -55.949
 -84.805
 -84.8052
 -84.7925
 -84.8226
 -66.8299
 -67.2154
 -68.1243
 -66.1431
 -58.3572
 -56.7181
 -57.1855
 -58.386
 -52.1045
 -53.6114
 -52.9734
 -52.682
 -41.399
 -41.5287
 -40.8642
 -40.8512
 -80.1184
 -81.0063
 -80.7282
 -80.7298
 -68.4921
 -68.7174
 -68.0738
 -66.6238
 -84.7402
 -84.7387
 -84.7431
 -31.3849
 -32.2604
 -31.7455
 -32.6389
 -47.2466
 -48.5892
 -47.6433
 -48.8475
 -84.7841
 -84.8073
 -84.8002
 -84.7951
 -76.4277
 -76.5033
 -77.3427
 -84.3569
 -84.4588
 -84.4826
 -58.0421
 -57.7782
 -56.138
 -84.7324
 -84.7429
 -84.7176
 -84.7188
 -83.7621
 -83.6561
 -83.6049
 -83.5271
 -63.6176
 -64.4252
 -65.392
 -64.2339
 -68.9156
 -67.6169
 -68.615
 -66.9703
 -83.4953
 -83.4961
 -83.4643
 -83.6531
 -78.2332
 -77.864
 -77.2487
 -77.6714
 -43.2018
 -44.2625
 -44.447
 -44.0203
 -84.0951
 -83.8907
 -84.0237
 -83.9493
 -84.7819
 -76.1049
 -76.3512
 -76.9304
 -76.8794
 -84.4463
 -84.4949
 -84.4605
 -84.5395
 -57.4701
 -57.5056
 -57.5784
 -57.6525
 -84.6387
 -84.6671
 -84.6094
 -84.5945
 -74.965
 -74.599
 -69.2651
 -68.6119
 -69.7589
 -69.9279
 -83.1215
 -82.8821
 -82.8496
 -82.9131
 -78.7263
 -79.3336
 -79.0357
 -68.1197
 -67.953
 -68.3964
 -83.3701
 -83.2821
 -83.0997
 -83.1693
 -82.2067
 -82.0488
 -82.3409
 -82.0791
 -59.1028
 -58.5001
 -58.1299
 -75.5129
 -77.412
 -77.531
 -76.2978
 -45.5326
 -44.7487
 -45.9488
 -44.3538
 -43.3974
 -84.7005
 -84.5855
 -84.6973
 -84.6492
 -77.1663
 -76.696
 -76.2743
 -77.1746
 -84.0476
 -84.1227
 -72.6432
 -70.9054
 -71.2448
 -62.8158
 -61.6573
 -63.4342
 -63.0767
 -84.6908
 -84.6556
 -84.719
 -84.7019
 -58.5537
 -58.7801
 -58.7091
 -64.0388
 -63.685
 -64.79
 -63.8091
 -68.0748
 -69.7042
 -68.384
 -66.7612
 -81.911
 -82.3717
 -81.9207
 -82.1237
 -61.4341
 -63.0345
 -62.2189
 -61.9422
 -82.8347
 -80.703
 -81.2287
 -81.3574
 -80.4774
 -84.472
 -84.4964
 -84.4
 -84.6209
 -84.6119
 -84.6053
 -84.5706
 -80.956
 -81.2814
 -80.7824
 -81.0763
 -84.7798
 -84.7679
 -84.7551
 -84.722
 -68.5689
 -78.9978
 -78.0453
 -78.2063
 -78.8149
 -77.137
 -75.6938
 -76.5369
 -76.5926
 -41.6754
 -42.8091
 -43.1519
 -42.0292
 -73.4524
 -73.7288
 -74.0976
 -72.8312
 -72.5917
 -72.5521
 -72.8972
 -73.6698
 -73.566
 -73.6247
 -74.6791
 -84.291
 -84.2337
 -84.1998
 -72.5286
 -70.9528
 -71.432
 -71.7746
 -83.9767
 -84.102
 -84.0534
 -75.4652
 -74.5844
 -78.0968
 -78.6033
 -78.3811
 -77.2142
 -76.8751
 -77.1028
 -76.8682
 -77.0319
 -78.0381
 -77.7297
 -84.4638
 -84.4813
 -84.4812
 -68.6593
 -84.6369
 -78.5412
 -78.9709
 -78.3429
 -77.8444
 -55.2806
 -55.1094
 -53.8931
 -58.8311
 -60.2881
 -61.0403
 -77.6828
 -78.0585
 -77.0931
 -74.4562
 -74.4595
 -74.7829
 -75.3638
 -77.2572
 -76.5115
 -77.81
 -76.7049
 -32.0173
 -32.241
 -31.4508
 -83.3148
 -83.1332
 -83.2384
 -75.2244
 -75.4199
 -83.5703
 -83.4267
 -83.5116
 -83.3615
 -79.3427
 -79.8349
 -79.2642
 -41.7302
 -42.3836
 -41.0415
 -41.4414
 -71.8347
 -70.6496
 -71.9713
 -70.0351
 -60.2646
 -59.7986
 -59.2628
 -59.0131
 -81.7773
 -81.2397
 -81.5922
 -81.7821
 -66.541
 -65.0779
 -66.3674
 -64.4669
 -45.1822
 -45.0252
 -45.1764
 -67.7555
 -67.3285
 -66.669
 -67.0372
 -81.6424
 -82.0349
 -81.8241
 -81.9605
 -76.3217
 -77.3424
 -77.3304
 -76.8579
 -62.479
 -61.9822
 -62.7376
 -71.1903
 -70.1709
 -70.5729
 -70.5066
 -59.328
 -57.9484
 -59.4237
 -58.3242
 -52.2756
 -53.7489
 -53.0758
 -51.7052
 -84.7678
 -84.7692
 -84.7463
 -84.7639
 -58.8352
 -59.7022
 -59.4629
 -59.7262
 -61.7272
 -60.8425
 -61.9433
 -62.0511
 -81.3234
 -81.6844
 -81.7026
 -81.9222
 -66.4109
 -66.294
 -67.6073
 -66.8168
 -84.8494
 -84.8381
 -84.8401
 -84.8569
 -73.8195
 -73.3302
 -74.3549
 -55.6023
 -54.8442
 -55.0584
 -56.2206
 -58.4049
 -57.9882
 -58.2308
 -57.9321
 -57.843
 -55.7624
 -82.7184
 -82.3386
 -82.6404
 -82.2491
 -84.8945
 -84.8925
 -84.8975
 -84.8946
 -70.1848
 -69.0367
 -69.5353
 -68.8704
 -59.901
 -59.3354
 -59.2283
 -81.6827
 -81.2416
 -81.3325
 -81.5747
 -72.8924
 -73.0679
 -72.9562
 -74.3284
 -62.9709
 -63.2748
 -62.9393
 -64.0384
 -54.6874
 -56.2439
 -55.3266
 -83.2881
 -83.5009
 -83.5821
 -83.3167
 -84.22
 -84.1334
 -84.088
 -70.1406
 -69.5965
 -70.5626
 -71.5315
 -71.3419
 -71.029
 -72.2749
 -62.1371
 -63.8295
 -64.6374
 -63.7084
 -81.4247
 -81.1073
 -80.9347
 -57.775
 -57.6554
 -56.5229
 -76.4423
 -77.2095
 -77.0091
 -84.0926
 -83.9814
 -84.1284
 -82.0804
 -82.0672
 -67.6452
 -68.4164
 -67.1228
 -68.1789
 -68.6236
 -68.0783
 -74.8775
 -73.6532
 -62.7037
 -53.4968
 -53.6107
 -52.7749
 -84.0222
 -84.0304
 -83.844
 -70.0108
 -71.1216
 -70.7656
 -69.9415
 -64.2222
 -76.0756
 -76.4633
 -81.7271
 -81.9444
 -81.5947
 -82.0089
 -75.9129
 -75.3019
 -76.2548
 -70.3608
 -71.019
 -69.2174
 -70.2942
 -67.582
 -69.6567
 -72.4685
 -71.4427
 -70.6906
 -72.7807
 -84.385
 -84.2926
 -84.2759
 -84.3583
 -84.5049
 -84.5376
 -84.5686
 -84.5837
 -57.7921
 -58.6983
 -74.9905
 -75.3591
 -74.7823
 -73.7882
 -79.5257
 -79.6704
 -80.0068
 -80.1904
 -80.5071
 -80.918
 -80.5848
 -80.4329
 -75.1363
 -74.2936
 -74.0262
 -75.1109
 -72.7681
 -73.6438
 -73.0237
 -72.7165
 -84.0819
 -83.9121
 -84.0982
 -84.0812
 -58.128
 -59.6124
 -60.32
 -61.2675
 -59.0899
 -60.4796
 -59.7964
 -83.2916
 -83.4392
 -83.6385
 -83.7505
 -62.4416
 -63.4717
 -62.9614
 -63.7654
 -84.7253
 -84.6868
 -84.7138
 -84.7125
 -84.3055
 -84.2557
 -84.3074
 -84.2106
 -68.9688
 -69.6309
 -68.5543
 -69.0875
 -82.2377
 -82.3632
 -82.2751
 -81.9244
 -63.3323
 -63.9753
 -65.0026
 -65.2665
 -83.4385
 -83.2975
 -83.318
 -58.9032
 -59.6127
 -58.725
 -59.1446
 -80.462
 -80.1683
 -80.5503
 -80.7389
 -67.6049
 -67.9485
 -83.0038
 -83.4176
 -83.2305
 -83.2251
 -83.6482
 -83.5974
 -83.4451
 -73.6785
 -75.0766
 -73.9434
 -83.7373
 -83.7712
 -83.8435
 -83.9035
 -46.2569
 -46.4485
 -47.2776
 -47.1234
 -62.5713
 -63.2777
 -63.9508
 -64.66
 -80.1755
 -79.4408
 -79.5443
 -80.1396
 -84.3518
 -84.4001
 -84.3306
 -84.4264
 -84.1738
 -84.2669
 -84.2644
 -84.2121
 -84.1983
 -84.14
 -84.2049
 -84.3645
 -84.4081
 -64.729
 -65.4636
 -64.5233
 -65.8375
 -59.0726
 -59.3579
 -57.646
 -58.877
 -64.9062
 -64.9215
 -68.173
 -69.4589
 -68.529
 -68.0158
 -71.6416
 -71.4803
 -72.722
 -71.4564
 -60.9514
 -60.9726
 -60.0144
 -76.6229
 -76.0736
 -76.1801
 -75.9072
 -84.8906
 -84.8864
 -84.8701
 -65.4107
 -65.07
 -65.6495
 -67.0755
 -83.4027
 -83.1269
 -83.2805
 -83.3493
 -81.7366
 -82.0576
 -81.8729
 -75.3918
 -74.864
 -75.7704
 -82.3628
 -82.6837
 -82.4381
 -84.0364
 -83.9899
 -81.9728
 -81.9736
 -81.9298
 -63.504
 -63.9771
 -64.2406
 -62.8624
 -84.5483
 -84.5891
 -84.5672
 -84.5463
 -80.6459
 -81.0278
 -80.8818
 -39.3024
 -38.1536
 -37.7448
 -39.0549
 -54.3204
 -53.6893
 -78.6323
 -68.281
 -70.2095
 -68.9088
 -68.2654
 -77.4355
 -78.3472
 -78.3327
 -83.4108
 -83.3941
 -83.2461
 -83.4496
 -84.7884
 -84.7918
 -75.8773
 -75.6278
 -75.66
 -74.929
 -52.4626
 -51.1427
 -51.1695
 -52.2236
 -84.282
 -84.3286
 -84.3376
 -84.2952
 -79.6158
 -79.8686
 -79.4696
 -33.0273
 -32.5387
 -32.0793
 -32.1343
 -58.9311
 -58.6736
 -57.9604
 -65.3531
 -66.5037
 -64.3976
 -65.6332
 -80.2067
 -80.322
 -80.1133
 -80.7188
 -75.5834
 -76.2126
 -56.77
 -57.0068
 -56.9272
 -56.9713
 -80.1276
 -80.6164
 -66.1439
 -64.0298
 -64.5525
 -65.2448
 -70.0274
 -70.5192
 -69.1266
 -70.1273
 -76.3018
 -77.2922
 -77.3982
 -76.7456
 -63.5626
 -62.8209
 -61.2664
 -81.4864
 -81.1174
 -81.599
 -81.112
 -83.3338
 -83.5139
 -83.6399
 -83.4259
 -82.9924
 -83.0585
 -83.1331
 -83.2038
 -51.0742
 -50.0251
 -50.525
 -49.5198
 -76.9568
 -76.2935
 -36.7385
 -36.0386
 -36.0972
 -35.3838
 -70.2968
 -69.2442
 -68.5005
 -84.5611
 -29.6628
 -29.9293
 -29.9938
 -29.013
 -73.721
 -74.1023
 -73.5557
 -73.5768
 -67.6588
 -68.9227
 -67.8579
 -83.013
 -83.2356
 -83.1834
 -83.0301
 -83.1614
 -83.0716
 -83.3254
 -83.3445
 -82.722
 -82.888
 -82.6713
 -82.5561
 -64.118
 -65.1654
 -63.5307
 -64.9998
 -57.7411
 -57.2353
 -56.3556
 -56.522
 -80.733
 -80.8466
 -81.2429
 -80.7691
 -70.8063
 -69.0553
 -71.5978
 -70.5682
 -84.8571
 -84.3743
 -84.3608
 -79.592
 -79.6376
 -70.9092
 -69.9126
 -70.2291
 -84.464
 -84.5483
 -84.5095
 -84.4756
 -72.9479
 -72.5145
 -79.9858
 -79.4973
 -41.608
 -42.7704
 -41.5762
 -42.7608
 -64.0275
 -63.4291
 -62.5567
 -63.0445
 -79.9528
 -80.5988
 -80.1526
 -80.3417
 -43.4806
 -42.537
 -43.3465
 -43.7818
 -84.6901
 -84.6807
 -84.7229
 -84.7072
 -84.4437
 -84.381
 -84.6354
 -84.5887
 -84.5293
 -84.6442
 -83.5467
 -83.6844
 -68.2074
 -68.6123
 -67.5415
 -30.6017
 -31.3112
 -30.3886
 -30.5379
 -44.9333
 -45.7021
 -45.9765
 -45.092
 -84.5059
 -84.5451
 -84.5025
 -84.4802
 -82.1756
 -82.5025
 -82.2557
 -77.9066
 -77.0473
 -76.5086
 -77.3192
 -65.6614
 -67.7642
 -66.0321
 -65.6307
 -83.8528
 -83.9538
 -83.9876
 -84.5106
 -76.4791
 -77.6046
 -62.744
 -63.2586
 -81.825
 -82.3129
 -81.7982
 -81.9671
 -57.4262
 -56.0091
 -57.9273
 -55.9633
 -57.3229
 -56.2665
 -56.5857
 -31.986
 -33.1028
 -32.7932
 -32.623
 -64.9615
 -65.8214
 -65.7781
 -66.9197
 -84.1393
 -84.1585
 -83.8584
 -83.949
 -83.945
 -83.9441
 -62.9969
 -62.8184
 -64.0841
 -62.3781
 -83.1977
 -83.0803
 -83.2808
 -82.122
 -82.1938
 -82.2007
 -81.8892
 -83.9192
 -83.9279
 -83.7965
 -83.991
 -65.9844
 -67.3558
 -66.867
 -66.1044
 -84.6496
 -84.5962
 -72.6806
 -39.4115
 -39.9977
 -40.4471
 -40.9743
 -83.0027
 -83.014
 -83.1599
 -45.4721
 -44.6419
 -44.7744
 -44.2865
 -81.4002
 -81.3479
 -81.2319
 -81.5984
 -55.9767
 -55.9277
 -54.8209
 -56.1803
 -61.0584
 -60.6579
 -61.6726
 -61.8377
 -81.108
 -81.3584
 -81.3044
 -68.5488
 -68.9021
 -68.367
 -67.466
 -81.0874
 -80.8692
 -81.2157
 -80.4745
 -78.7355
 -78.5157
 -83.2479
 -83.3162
 -83.322
 -82.0832
 -82.1254
 -81.6997
 -39.4132
 -39.5833
 -40.507
 -39.662
 -57.954
 -58.9441
 -57.3909
 -59.3308
 -83.8522
 -83.6524
 -83.7287
 -83.7098
 -83.8442
 -83.8421
 -61.574
 -64.2874
 -61.8086
 -82.1736
 -81.8382
 -82.0111
 -81.7799
 -82.1037
 -82.0656
 -81.8935
 -64.9423
 -64.2736
 -65.1473
 -65.2724
 -84.3985
 -84.4379
 -69.0237
 -68.5635
 -69.0145
 -69.9485
 -63.6711
 -63.814
 -64.2983
 -82.5688
 -82.6665
 -75.2566
 -74.6016
 -75.5712
 -76.095
 -57.6051
 -57.3103
 -81.138
 -81.1542
 -69.5898
 -67.4965
 -67.7307
 -68.8275
 -76.8341
 -76.7765
 -76.3133
 -77.5008
 -76.8083
 -76.3549
 -76.9334
 -48.7964
 -48.7758
 -48.2894
 -50.541
 -44.684
 -44.7918
 -45.5521
 -45.4575
 -81.6157
 -81.2501
 -80.8622
 -81.2391
 -83.9809
 -83.9911
 -83.8928
 -83.8836
 -78.5806
 -79.0301
 -78.5501
 -76.8543
