 -85.9412
 -85.942
 -85.9418
 -85.9422
 -85.9543
 -85.9544
 -85.9547
 -85.9549
 -85.9513
 -85.9509
 -85.9514
 -85.951
 -85.9518
 -85.9514
 -85.9513
 -85.951
 -85.9592
 -85.9594
 -85.959
 -85.9588
 -85.9585
 -85.9582
 -85.9587
 -85.9583
 -85.9385
 -85.938
 -85.9381
 -85.9384
 -85.9392
 -85.9393
 -85.9393
 -85.939
 -85.9583
 -85.9582
 -85.9578
 -85.9581
 -85.9583
 -85.9584
 -85.9583
 -85.9588
 -85.9367
 -85.9364
 -85.9369
 -85.937
 -85.951
 -85.9511
 -85.9506
 -85.9509
 -85.9437
 -85.9437
 -85.9432
 -85.9441
 -85.9552
 -85.9546
 -85.9543
 -85.9548
 -85.949
 -85.9488
 -85.9491
 -85.9495
 -85.9399
 -85.9396
 -85.9402
 -85.9396
 -85.9574
 -85.9576
 -85.9573
 -85.9576
 -85.9523
 -85.9519
 -85.9524
 -85.9521
 -85.9493
 -85.9495
 -85.9496
 -85.9499
 -85.9565
 -85.9565
 -85.9567
 -85.957
 -85.9389
 -85.9383
 -85.9389
 -85.9385
 -85.9598
 -85.9599
 -85.9603
 -85.9602
 -85.9296
 -85.9293
 -85.9291
 -85.9296
 -85.954
 -85.9542
 -85.9537
 -85.9536
 -85.9484
 -85.948
 -85.9484
 -85.9486
 -85.9502
 -85.9503
 -85.9501
 -85.9499
 -85.9463
 -85.9469
 -85.9471
 -85.9463
 -85.9397
 -85.9393
 -85.9398
 -85.9396
 -85.9435
 -85.9434
 -85.9429
 -85.9433
 -85.9547
 -85.9546
 -85.9544
 -85.954
 -85.9487
 -85.9493
 -85.9485
 -85.9488
 -85.9438
 -85.9442
 -85.9442
 -85.9438
 -85.9531
 -85.9527
 -85.9533
 -85.9528
 -85.9543
 -85.9541
 -85.954
 -85.9541
 -85.9439
 -85.9435
 -85.9441
 -85.9432
 -85.9406
 -85.9405
 -85.9404
 -85.9405
 -85.9527
 -85.952
 -85.9526
 -85.9524
 -85.9363
 -85.9366
 -85.9367
 -85.9369
 -85.9533
 -85.9533
 -85.9541
 -85.9538
 -85.9605
 -85.9602
 -85.9604
 -85.9601
 -85.9507
 -85.9506
 -85.9509
 -85.9502
 -85.9543
 -85.9547
 -85.9545
 -85.9545
 -85.9376
 -85.9375
 -85.9379
 -85.9372
 -85.9524
 -85.9521
 -85.9522
 -85.9527
 -85.9583
 -85.9582
 -85.9585
 -85.9584
 -85.9425
 -85.9429
 -85.9427
 -85.9425
 -85.9528
 -85.9534
 -85.9532
 -85.9532
 -85.9401
 -85.9406
 -85.9402
 -85.9397
 -85.9444
 -85.9441
 -85.9439
 -85.9437
 -85.9495
 -85.9491
 -85.949
 -85.9487
 -85.9394
 -85.9392
 -85.939
 -85.9394
 -85.9498
 -85.9494
 -85.9494
 -85.9497
 -85.945
 -85.9443
 -85.945
 -85.9441
 -85.9508
 -85.951
 -85.9508
 -85.9511
 -85.9432
 -85.9436
 -85.9433
 -85.944
 -85.9508
 -85.9507
 -85.9512
 -85.9504
 -85.9534
 -85.9535
 -85.9538
 -85.954
 -85.9542
 -85.9539
 -85.9542
 -85.9535
 -85.9425
 -85.9426
 -85.9418
 -85.9428
 -85.9459
 -85.9457
 -85.9458
 -85.9464
 -85.9306
 -85.9302
 -85.9299
 -85.9303
 -85.9435
 -85.9434
 -85.943
 -85.9433
 -85.9487
 -85.9494
 -85.9492
 -85.9493
 -85.9453
 -85.9452
 -85.9459
 -85.9448
 -85.945
 -85.9456
 -85.945
 -85.9455
 -85.9396
 -85.9393
 -85.9398
 -85.9397
 -85.9569
 -85.9574
 -85.9575
 -85.9569
 -85.9593
 -85.9594
 -85.9595
 -85.9596
 -85.9498
 -85.9505
 -85.9495
 -85.9498
 -85.9436
 -85.9435
 -85.9439
 -85.9433
 -85.9532
 -85.9534
 -85.9537
 -85.9532
 -85.9389
 -85.938
 -85.9383
 -85.9383
 -85.9388
 -85.9383
 -85.9382
 -85.9388
 -85.9298
 -85.9295
 -85.93
 -85.9299
 -85.951
 -85.9515
 -85.9513
 -85.9518
 -85.9422
 -85.9428
 -85.9429
 -85.9422
 -85.9412
 -85.9408
 -85.9413
 -85.9416
 -85.9596
 -85.9599
 -85.9598
 -85.96
 -85.9406
 -85.9404
 -85.94
 -85.9405
 -85.9414
 -85.9411
 -85.9408
 -85.9413
 -85.9422
 -85.9426
 -85.9422
 -85.9418
 -85.9469
 -85.9468
 -85.9473
 -85.9472
 -85.9416
 -85.9422
 -85.9418
 -85.9419
 -85.9443
 -85.9447
 -85.9448
 -85.9445
 -85.9458
 -85.9457
 -85.9455
 -85.9453
 -85.9403
 -85.9398
 -85.9405
 -85.9399
 -85.9283
 -85.9282
 -85.929
 -85.929
 -85.9393
 -85.9395
 -85.9398
 -85.9395
 -85.9513
 -85.951
 -85.9515
 -85.9506
 -85.9514
 -85.9513
 -85.9517
 -85.9513
 -85.9541
 -85.9539
 -85.9537
 -85.9543
 -85.9387
 -85.9386
 -85.9387
 -85.9389
 -85.96
 -85.96
 -85.9598
 -85.9602
 -85.9538
 -85.9542
 -85.9538
 -85.9539
 -85.9368
 -85.9367
 -85.9362
 -85.9362
 -85.9446
 -85.9445
 -85.9443
 -85.9453
 -85.9412
 -85.9415
 -85.9408
 -85.9411
 -85.9413
 -85.9411
 -85.9411
 -85.939
 -85.9389
 -85.9389
 -85.9387
 -85.9524
 -85.9521
 -85.9518
 -85.9525
 -85.9463
 -85.947
 -85.9468
 -85.9464
 -85.9518
 -85.9523
 -85.9519
 -85.9435
 -85.9428
 -85.9432
 -85.9429
 -85.9479
 -85.9482
 -85.9481
 -85.9475
 -85.9562
 -85.9558
 -85.9558
 -85.9565
 -85.9389
 -85.939
 -85.9397
 -85.9394
 -85.9404
 -85.94
 -85.9398
 -85.9401
 -85.9513
 -85.9507
 -85.9506
 -85.9508
 -85.9534
 -85.9531
 -85.9538
 -85.9538
 -85.9375
 -85.9375
 -85.9373
 -85.9369
 -85.9401
 -85.9402
 -85.941
 -85.9408
 -85.9455
 -85.9461
 -85.9465
 -85.9456
 -85.9584
 -85.9587
 -85.9585
 -85.9587
 -85.9511
 -85.9516
 -85.9517
 -85.9515
 -85.9479
 -85.9471
 -85.9479
 -85.9479
 -85.9316
 -85.9308
 -85.9316
 -85.9315
 -85.947
 -85.9465
 -85.9472
 -85.9475
 -85.956
 -85.9556
 -85.9561
 -85.9554
 -85.9418
 -85.941
 -85.9422
 -85.9419
 -85.9406
 -85.9407
 -85.9402
 -85.9406
 -85.9406
 -85.94
 -85.9401
 -85.9403
 -85.936
 -85.9359
 -85.9359
 -85.9361
 -85.9412
 -85.9404
 -85.9405
 -85.9405
 -85.9515
 -85.9514
 -85.9515
 -85.9511
 -85.9382
 -85.9385
 -85.9387
 -85.9388
 -85.9582
 -85.9579
 -85.958
 -85.9582
 -85.9386
 -85.938
 -85.938
 -85.9385
 -85.956
 -85.9554
 -85.956
 -85.9556
 -85.9467
 -85.9463
 -85.9463
 -85.9466
 -85.9445
 -85.945
 -85.9452
 -85.9446
 -85.9428
 -85.9429
 -85.9435
 -85.943
 -85.9419
 -85.9419
 -85.9415
 -85.9413
 -85.9598
 -85.9601
 -85.9602
 -85.9601
 -85.9424
 -85.9421
 -85.9423
 -85.9421
 -85.9606
 -85.9603
 -85.9604
 -85.9602
 -85.9536
 -85.9534
 -85.954
 -85.9536
 -85.9335
 -85.9342
 -85.934
 -85.9334
 -85.9587
 -85.9586
 -85.9589
 -85.9591
 -85.94
 -85.9406
 -85.9401
 -85.9396
 -85.933
 -85.9326
 -85.9325
 -85.9329
 -85.9553
 -85.9552
 -85.955
 -85.9552
 -85.9593
 -85.9596
 -85.9594
 -85.9594
 -85.9493
 -85.9494
 -85.9492
 -85.9491
 -85.9545
 -85.9541
 -85.9546
 -85.9542
 -85.9412
 -85.9406
 -85.9409
 -85.9408
 -85.9505
 -85.9503
 -85.9505
 -85.951
 -85.9443
 -85.944
 -85.9445
 -85.9445
 -85.9393
 -85.9395
 -85.9392
 -85.9392
 -85.9371
 -85.937
 -85.9369
 -85.9374
 -85.9464
 -85.9463
 -85.9468
 -85.9461
 -85.948
 -85.948
 -85.9478
 -85.9474
 -85.9408
 -85.9407
 -85.9412
 -85.9414
 -85.9409
 -85.9403
 -85.9409
 -85.9408
 -85.952
 -85.9522
 -85.9518
 -85.9517
 -85.9585
 -85.9585
 -85.9588
 -85.9589
 -85.9579
 -85.9576
 -85.958
 -85.9581
 -85.9577
 -85.9572
 -85.9573
 -85.9575
 -85.9524
 -85.9522
 -85.9526
 -85.9521
 -85.9408
 -85.9402
 -85.9407
 -85.9405
 -85.9411
 -85.9414
 -85.9415
 -85.9417
 -85.9478
 -85.9476
 -85.9468
 -85.9469
 -85.9536
 -85.9533
 -85.9541
 -85.9538
 -85.9535
 -85.9532
 -85.9533
 -85.9537
 -85.9497
 -85.9492
 -85.9495
 -85.9495
 -85.951
 -85.9514
 -85.9508
 -85.9509
 -85.9373
 -85.9372
 -85.9374
 -85.9379
 -85.9258
 -85.9254
 -85.9259
 -85.9251
 -85.9421
 -85.942
 -85.9414
 -85.9417
 -85.9279
 -85.9286
 -85.9284
 -85.9421
 -85.942
 -85.9423
 -85.9417
 -85.9565
 -85.9562
 -85.9564
 -85.9561
 -85.9491
 -85.9494
 -85.9495
 -85.9499
 -85.9585
 -85.9583
 -85.9588
 -85.9583
 -85.9408
 -85.9408
 -85.9403
 -85.9408
 -85.9529
 -85.9527
 -85.9535
 -85.9533
 -85.9497
 -85.9497
 -85.9491
 -85.9493
 -85.9594
 -85.9596
 -85.9597
 -85.9592
 -85.9556
 -85.9555
 -85.9557
 -85.9562
 -85.9421
 -85.9426
 -85.9423
 -85.9421
 -85.9527
 -85.9526
 -85.9522
 -85.9527
 -85.9563
 -85.9555
 -85.956
 -85.9557
 -85.9329
 -85.9321
 -85.9325
 -85.9322
 -85.9488
 -85.9491
 -85.9493
 -85.9494
 -85.9562
 -85.9563
 -85.9566
 -85.9563
 -85.9516
 -85.9521
 -85.9512
 -85.9523
 -85.9555
 -85.955
 -85.9556
 -85.9555
 -85.9411
 -85.9416
 -85.9418
 -85.9418
 -85.9555
 -85.9564
 -85.9555
 -85.9563
 -85.9459
 -85.9462
 -85.9452
 -85.9458
 -85.9472
 -85.9475
 -85.9478
 -85.9471
 -85.9555
 -85.9554
 -85.955
 -85.9556
 -85.9604
 -85.9603
 -85.9603
 -85.9605
 -85.9374
 -85.9377
 -85.9379
 -85.9381
 -85.944
 -85.9444
 -85.9447
 -85.9441
 -85.9504
 -85.9501
 -85.9498
 -85.95
 -85.9555
 -85.9559
 -85.9558
 -85.9559
 -85.9426
 -85.9421
 -85.9423
 -85.9423
 -85.9382
 -85.9388
 -85.939
 -85.9383
 -85.9531
 -85.9531
 -85.9526
 -85.9525
 -85.9515
 -85.952
 -85.9515
 -85.9517
 -85.9589
 -85.9591
 -85.9594
 -85.9589
 -85.9395
 -85.9402
 -85.9394
 -85.9399
 -85.9593
 -85.9595
 -85.9595
 -85.9593
 -85.9436
 -85.9442
 -85.9439
 -85.9436
 -85.9263
 -85.9261
 -85.9264
 -85.9266
 -85.9574
 -85.9576
 -85.9579
 -85.9577
 -85.9524
 -85.9527
 -85.9522
 -85.9516
 -85.9578
 -85.9578
 -85.9576
 -85.9575
 -85.9477
 -85.9471
 -85.9475
 -85.9478
 -85.9465
 -85.9468
 -85.9469
 -85.9466
 -85.9549
 -85.9543
 -85.9545
 -85.9545
 -85.9408
 -85.941
 -85.9406
 -85.9409
 -85.9399
 -85.9402
 -85.9403
 -85.9401
 -85.9304
 -85.9301
 -85.9301
 -85.9299
 -85.9496
 -85.95
 -85.9503
 -85.9505
 -85.9481
 -85.9478
 -85.9486
 -85.9481
 -85.9517
 -85.9509
 -85.9514
 -85.9519
 -85.9441
 -85.9447
 -85.9448
 -85.9439
 -85.9585
 -85.9584
 -85.9587
 -85.9581
 -85.9593
 -85.9598
 -85.9593
 -85.9592
 -85.952
 -85.9523
 -85.9528
 -85.9528
 -85.9223
 -85.9223
 -85.9225
 -85.9228
 -85.9457
 -85.9454
 -85.9458
 -85.9451
 -85.9462
 -85.946
 -85.9454
 -85.946
 -85.9458
 -85.9459
 -85.9452
 -85.9452
 -85.955
 -85.9548
 -85.9554
 -85.9547
 -85.9321
 -85.9327
 -85.9316
 -85.932
 -85.9292
 -85.9292
 -85.9286
 -85.9285
 -85.955
 -85.9547
 -85.955
 -85.9545
 -85.9431
 -85.9437
 -85.9428
 -85.9437
 -85.9452
 -85.9452
 -85.9454
 -85.9454
 -85.952
 -85.9517
 -85.9516
 -85.9511
 -85.9403
 -85.9406
 -85.9408
 -85.9406
 -85.9558
 -85.9553
 -85.9554
 -85.9557
 -85.9442
 -85.9432
 -85.9438
 -85.943
 -85.9433
 -85.9432
 -85.9427
 -85.9431
 -85.9382
 -85.9378
 -85.9384
 -85.9377
 -85.9457
 -85.9464
 -85.9459
 -85.9465
 -85.9565
 -85.9568
 -85.9568
 -85.9564
 -85.9526
 -85.9533
 -85.9534
 -85.9529
 -85.9402
 -85.94
 -85.9406
 -85.9405
 -85.9423
 -85.943
 -85.943
 -85.9423
 -85.9581
 -85.9582
 -85.9584
 -85.9584
 -85.9556
 -85.9552
 -85.9555
 -85.9553
 -85.9462
 -85.946
 -85.9456
 -85.946
 -85.9386
 -85.9386
 -85.9387
 -85.9388
 -85.9345
 -85.9354
 -85.9352
 -85.9346
 -85.9521
 -85.9516
 -85.9513
 -85.9519
 -85.9386
 -85.938
 -85.9385
 -85.9373
 -85.957
 -85.9565
 -85.9565
 -85.9569
 -85.9506
 -85.9513
 -85.9509
 -85.9504
 -85.9566
 -85.9565
 -85.9563
 -85.9565
 -85.9533
 -85.9528
 -85.9527
 -85.953
 -85.9461
 -85.9458
 -85.9461
 -85.9465
 -85.9411
 -85.9404
 -85.9405
 -85.9409
 -85.9353
 -85.9362
 -85.9354
 -85.9355
 -85.9374
 -85.9366
 -85.9375
 -85.9373
 -85.9408
 -85.9401
 -85.94
 -85.9403
 -85.9472
 -85.9474
 -85.9473
 -85.9464
 -85.9474
 -85.9475
 -85.9477
 -85.9471
 -85.948
 -85.9475
 -85.9484
 -85.9479
 -85.9524
 -85.952
 -85.9525
 -85.9525
 -85.9321
 -85.9314
 -85.9316
 -85.9315
 -85.9496
 -85.9497
 -85.9494
 -85.9499
 -85.94
 -85.9394
 -85.9397
 -85.9398
 -85.9452
 -85.9458
 -85.9454
 -85.9458
 -85.959
 -85.9584
 -85.9589
 -85.9588
 -85.9469
 -85.9466
 -85.9466
 -85.9463
 -85.9388
 -85.9385
 -85.9387
 -85.9381
 -85.9448
 -85.9448
 -85.9452
 -85.9455
 -85.9413
 -85.9417
 -85.9416
 -85.9412
 -85.9463
 -85.9456
 -85.9464
 -85.9459
 -85.9325
 -85.932
 -85.9322
 -85.9326
 -85.9454
 -85.9455
 -85.946
 -85.946
 -85.9526
 -85.9524
 -85.9528
 -85.9525
 -85.9509
 -85.9509
 -85.9512
 -85.951
 -85.9579
 -85.9573
 -85.9579
 -85.9575
 -85.9425
 -85.9424
 -85.9428
 -85.9425
 -85.9409
 -85.9413
 -85.9409
 -85.9419
 -85.9575
 -85.957
 -85.9576
 -85.9574
 -85.9414
 -85.9414
 -85.942
 -85.9415
 -85.9566
 -85.9564
 -85.9568
 -85.9563
 -85.9489
 -85.9496
 -85.9491
 -85.9494
 -85.9473
 -85.9465
 -85.9473
 -85.9475
 -85.9411
 -85.9416
 -85.9415
 -85.9411
 -85.9466
 -85.9465
 -85.9471
 -85.9464
 -85.9567
 -85.9565
 -85.9568
 -85.9568
 -85.926
 -85.9261
 -85.9263
 -85.9256
 -85.9384
 -85.9383
 -85.9383
 -85.9384
 -85.9384
 -85.9385
 -85.9384
 -85.938
 -85.9431
 -85.9433
 -85.9429
 -85.9436
 -85.9452
 -85.9447
 -85.9451
 -85.9448
 -85.9426
 -85.9423
 -85.9421
 -85.9427
 -85.9591
 -85.9588
 -85.9594
 -85.9587
 -85.9408
 -85.9405
 -85.9406
 -85.9412
 -85.9518
 -85.9519
 -85.9521
 -85.9516
 -85.9473
 -85.9554
 -85.9549
 -85.955
 -85.955
 -85.9508
 -85.9511
 -85.9515
 -85.9512
 -85.937
 -85.9374
 -85.9375
 -85.9373
 -85.9437
 -85.9435
 -85.9438
 -85.9442
 -85.9417
 -85.9411
 -85.9415
 -85.9417
 -85.9562
 -85.9558
 -85.9558
 -85.9558
 -85.9457
 -85.9448
 -85.9454
 -85.9452
 -85.9568
 -85.9569
 -85.9564
 -85.9563
 -85.953
 -85.9534
 -85.9528
 -85.9535
 -85.9374
 -85.9377
 -85.9375
 -85.9381
 -85.9406
 -85.94
 -85.941
 -85.9406
 -85.9526
 -85.953
 -85.953
 -85.9527
 -85.9466
 -85.9459
 -85.9465
 -85.9385
 -85.9382
 -85.9384
 -85.9388
 -85.952
 -85.9511
 -85.9517
 -85.9512
 -85.9418
 -85.9412
 -85.9412
 -85.9416
 -85.9468
 -85.946
 -85.9464
 -85.9468
 -85.9577
 -85.9576
 -85.9571
 -85.9576
 -85.943
 -85.9427
 -85.9425
 -85.9429
 -85.9555
 -85.955
 -85.9554
 -85.9556
 -85.9479
 -85.9476
 -85.948
 -85.9473
 -85.9542
 -85.9539
 -85.9536
 -85.9538
 -85.9573
 -85.9573
 -85.9577
 -85.9575
 -85.9433
 -85.9432
 -85.9436
 -85.9436
 -85.9259
 -85.9268
 -85.9267
 -85.9271
 -85.9592
 -85.959
 -85.959
 -85.9589
 -85.9515
 -85.9514
 -85.951
 -85.9513
 -85.9394
 -85.9394
 -85.9403
 -85.9396
 -85.9448
 -85.9452
 -85.9453
 -85.9448
 -85.9333
 -85.9335
 -85.9336
 -85.933
 -85.9569
 -85.9571
 -85.9576
 -85.9571
 -85.939
 -85.9387
 -85.9389
 -85.9389
 -85.9492
 -85.9497
 -85.949
 -85.9494
 -85.9402
 -85.9391
 -85.9399
 -85.94
 -85.9598
 -85.9597
 -85.9598
 -85.9593
 -85.9597
 -85.9596
 -85.9594
 -85.9592
 -85.953
 -85.9525
 -85.9524
 -85.9531
 -85.9498
 -85.95
 -85.9497
 -85.9493
 -85.9499
 -85.9387
 -85.9387
 -85.938
 -85.9385
 -85.9399
 -85.9397
 -85.9395
 -85.9401
 -85.952
 -85.9525
 -85.9525
 -85.9525
 -85.9396
 -85.9399
 -85.9399
 -85.9395
 -85.9412
 -85.9411
 -85.941
 -85.9415
 -85.9528
 -85.953
 -85.9528
 -85.9524
 -85.9437
 -85.9443
 -85.9437
 -85.9443
 -85.9524
 -85.9525
 -85.9526
 -85.9529
 -85.9417
 -85.9416
 -85.9411
 -85.9416
 -85.9433
 -85.9437
 -85.9437
 -85.9438
 -85.946
 -85.9464
 -85.9457
 -85.9463
 -85.9496
 -85.9502
 -85.9498
 -85.9503
 -85.9547
 -85.9545
 -85.9551
 -85.9551
 -85.9488
 -85.9486
 -85.9483
 -85.9484
 -85.9489
 -85.949
 -85.9493
 -85.9491
 -85.9373
 -85.9373
 -85.9376
 -85.9378
 -85.9517
 -85.9518
 -85.952
 -85.9518
 -85.9474
 -85.9476
 -85.9478
 -85.9474
 -85.9484
 -85.9484
 -85.9481
 -85.9484
 -85.9441
 -85.9442
 -85.9436
 -85.944
 -85.9386
 -85.9385
 -85.9389
 -85.9382
 -85.9541
 -85.9541
 -85.9544
 -85.9544
 -85.9388
 -85.9384
 -85.9386
 -85.9391
 -85.9593
 -85.9592
 -85.9596
 -85.9594
 -85.9557
 -85.9554
 -85.956
 -85.9558
 -85.9561
 -85.956
 -85.9561
 -85.9559
 -85.9556
 -85.9556
 -85.9555
 -85.9559
 -85.953
 -85.9532
 -85.9527
 -85.9533
 -85.9344
 -85.934
 -85.9333
 -85.9487
 -85.948
 -85.9486
 -85.9484
 -85.9552
 -85.9549
 -85.9548
 -85.9551
 -85.9439
 -85.9433
 -85.9436
 -85.9438
 -85.9417
 -85.9419
 -85.9416
 -85.942
 -85.9534
 -85.9535
 -85.954
 -85.953
 -85.9458
 -85.9456
 -85.9459
 -85.9463
 -85.9423
 -85.9423
 -85.9422
 -85.942
 -85.9587
 -85.9591
 -85.951
 -85.9509
 -85.9504
 -85.9504
 -85.9462
 -85.9461
 -85.9457
 -85.9496
 -85.9497
 -85.9496
 -85.9492
 -85.9353
 -85.9352
 -85.9358
 -85.9358
 -85.9555
 -85.9559
 -85.9558
 -85.9555
 -85.9495
 -85.9493
 -85.949
 -85.9491
 -85.9438
 -85.9433
 -85.9436
 -85.944
 -85.9482
 -85.9476
 -85.9478
 -85.948
 -85.9392
 -85.9391
 -85.9393
 -85.9392
 -85.9377
 -85.9385
 -85.9379
 -85.9381
 -85.9455
 -85.946
 -85.9461
 -85.9458
 -85.939
 -85.9389
 -85.9389
 -85.9394
 -85.9462
 -85.9459
 -85.946
 -85.9458
 -85.9561
 -85.956
 -85.9555
 -85.9555
 -85.9399
 -85.9401
 -85.9403
 -85.94
 -85.9304
 -85.931
 -85.9304
 -85.9308
 -85.9503
 -85.9494
 -85.9501
 -85.9501
 -85.9449
 -85.9453
 -85.9448
 -85.9453
 -85.9393
 -85.9392
 -85.9396
 -85.9395
 -85.9464
 -85.946
 -85.9466
 -85.9466
 -85.9581
 -85.9579
 -85.9581
 -85.958
 -85.9413
 -85.9413
 -85.941
 -85.9413
 -85.9507
 -85.9502
 -85.9502
 -85.9501
 -85.9447
 -85.9453
 -85.9449
 -85.9456
 -85.9529
 -85.9532
 -85.9531
 -85.9535
 -85.9561
 -85.9561
 -85.9563
 -85.9559
 -85.9395
 -85.9399
 -85.9397
 -85.9405
 -85.9428
 -85.9432
 -85.9431
 -85.943
 -85.9495
 -85.9494
 -85.9488
 -85.9491
 -85.9391
 -85.9392
 -85.9392
 -85.9393
 -85.9264
 -85.926
 -85.926
 -85.9263
 -85.9481
 -85.9476
 -85.9476
 -85.9475
 -85.9252
 -85.925
 -85.9252
 -85.9257
 -85.9261
 -85.9269
 -85.9268
 -85.9264
 -85.9354
 -85.9359
 -85.9357
 -85.9352
 -85.9516
 -85.9512
 -85.9509
 -85.9507
 -85.9514
 -85.9517
 -85.9518
 -85.9521
 -85.9521
 -85.9518
 -85.9521
 -85.9515
 -85.9505
 -85.95
 -85.9501
 -85.9506
 -85.9333
 -85.9328
 -85.9332
 -85.933
 -85.9401
 -85.9398
 -85.9404
 -85.9402
 -85.9393
 -85.9387
 -85.9389
 -85.9388
 -85.9438
 -85.9444
 -85.9438
 -85.9445
 -85.9486
 -85.9483
 -85.9487
 -85.9484
 -85.953
 -85.9529
 -85.9526
 -85.953
 -85.9405
 -85.9412
 -85.9414
 -85.9408
 -85.9517
 -85.9468
 -85.9472
 -85.9473
 -85.947
 -85.9595
 -85.9596
 -85.96
 -85.9598
 -85.9456
 -85.9457
 -85.9461
 -85.9457
 -85.957
 -85.9575
 -85.9571
 -85.9398
 -85.94
 -85.9402
 -85.9396
 -85.9281
 -85.9286
 -85.9284
 -85.9286
 -85.9467
 -85.9467
 -85.9474
 -85.9464
 -85.9441
 -85.9433
 -85.9434
 -85.9434
 -85.9391
 -85.9394
 -85.9398
 -85.9399
 -85.9398
 -85.94
 -85.9396
 -85.9401
 -85.9348
 -85.9342
 -85.9346
 -85.9346
 -85.9496
 -85.9495
 -85.9498
 -85.9505
 -85.9468
 -85.9474
 -85.9466
 -85.9471
 -85.9426
 -85.9422
 -85.9427
 -85.9425
 -85.9456
 -85.9453
 -85.9462
 -85.9534
 -85.9531
 -85.9531
 -85.9408
 -85.9408
 -85.9401
 -85.94
 -85.936
 -85.9358
 -85.9358
 -85.9359
 -85.9417
 -85.9421
 -85.9421
 -85.9417
 -85.9359
 -85.9354
 -85.9361
 -85.9352
 -85.9545
 -85.9551
 -85.9547
 -85.9549
 -85.9529
 -85.9531
 -85.9533
 -85.9536
 -85.9392
 -85.939
 -85.9391
 -85.939
 -85.9339
 -85.9331
 -85.9336
 -85.9338
 -85.9481
 -85.9474
 -85.948
 -85.9478
 -85.9585
 -85.9581
 -85.9586
 -85.9582
 -85.9356
 -85.9356
 -85.9353
 -85.9356
 -85.9513
 -85.9509
 -85.9507
 -85.9514
 -85.93
 -85.9297
 -85.9301
 -85.9298
 -85.9529
 -85.9531
 -85.9528
 -85.9535
 -85.9442
 -85.9437
 -85.9445
 -85.9435
 -85.9546
 -85.9547
 -85.955
 -85.9551
 -85.9397
 -85.9398
 -85.9399
 -85.9403
 -85.9432
 -85.9427
 -85.9428
 -85.9428
 -85.9406
 -85.9404
 -85.9411
 -85.941
 -85.9418
 -85.9415
 -85.9422
 -85.9413
 -85.9481
 -85.9485
 -85.9484
 -85.9479
 -85.9454
 -85.945
 -85.9455
 -85.9455
 -85.955
 -85.9546
 -85.9543
 -85.9544
 -85.9592
 -85.9594
 -85.9588
 -85.9589
 -85.9446
 -85.9445
 -85.9441
 -85.9445
 -85.9559
 -85.9557
 -85.9557
 -85.9562
 -85.9523
 -85.953
 -85.9533
 -85.9528
 -85.9325
 -85.9322
 -85.9316
 -85.9324
 -85.9383
 -85.9392
 -85.9389
 -85.9387
 -85.9441
 -85.9437
 -85.9436
 -85.9437
 -85.9349
 -85.9345
 -85.9344
 -85.9341
 -85.9485
 -85.9491
 -85.949
 -85.9488
 -85.9542
 -85.9551
 -85.9546
 -85.9546
 -85.9353
 -85.9361
 -85.9353
 -85.9353
 -85.9458
 -85.9462
 -85.9459
 -85.946
 -85.942
 -85.942
 -85.942
 -85.9418
 -85.9265
 -85.9269
 -85.927
 -85.9265
 -85.9436
 -85.9435
 -85.9434
 -85.944
 -85.9471
 -85.9474
 -85.9474
 -85.9475
 -85.9527
 -85.9533
 -85.9529
 -85.9534
 -85.9416
 -85.9418
 -85.9419
 -85.947
 -85.9469
 -85.9467
 -85.947
 -85.9429
 -85.9428
 -85.9435
 -85.943
 -85.9515
 -85.951
 -85.9514
 -85.9513
 -85.9513
 -85.9519
 -85.9518
 -85.9517
 -85.9565
 -85.9561
 -85.9564
 -85.9559
 -85.9402
 -85.9403
 -85.9407
 -85.9402
 -85.9581
 -85.9582
 -85.9584
 -85.9582
 -85.9412
 -85.9416
 -85.9412
 -85.941
 -85.9467
 -85.9474
 -85.9473
 -85.9476
 -85.9478
 -85.9473
 -85.9473
 -85.9471
 -85.9257
 -85.9252
 -85.9257
 -85.9256
 -85.9424
 -85.942
 -85.9424
 -85.9425
 -85.9463
 -85.9463
 -85.9467
 -85.9473
 -85.9459
 -85.9461
 -85.9461
 -85.9455
 -85.9593
 -85.9593
 -85.9589
 -85.9592
 -85.9411
 -85.9416
 -85.9419
 -85.9413
 -85.942
 -85.9417
 -85.9422
 -85.9415
 -85.9528
 -85.9532
 -85.9528
 -85.9531
 -85.9396
 -85.9394
 -85.9391
 -85.939
 -85.9393
 -85.9392
 -85.9394
 -85.9391
 -85.9509
 -85.9502
 -85.9509
 -85.9505
 -85.9516
 -85.9515
 -85.9511
 -85.9515
 -85.9481
 -85.9481
 -85.9488
 -85.9486
 -85.9416
 -85.9414
 -85.9499
 -85.9495
 -85.9502
 -85.9497
 -85.9419
 -85.9422
 -85.9419
 -85.942
 -85.9449
 -85.9454
 -85.9456
 -85.9454
 -85.9572
 -85.9569
 -85.9567
 -85.9573
 -85.9449
 -85.9451
 -85.9454
 -85.9455
 -85.9536
 -85.9539
 -85.9541
 -85.9534
 -85.9404
 -85.9413
 -85.941
 -85.9413
 -85.944
 -85.9435
 -85.9434
 -85.9437
 -85.9462
 -85.9471
 -85.9466
 -85.9469
 -85.9402
 -85.9398
 -85.9396
 -85.94
 -85.9305
 -85.9307
 -85.9305
 -85.9301
 -85.9587
 -85.9586
 -85.9586
 -85.9587
 -85.9357
 -85.9356
 -85.9358
 -85.9355
 -85.9488
 -85.9491
 -85.9485
 -85.9486
 -85.9305
 -85.9305
 -85.9309
 -85.9303
 -85.9497
 -85.9502
 -85.9498
 -85.9497
 -85.9413
 -85.9412
 -85.941
 -85.9411
 -85.9413
 -85.9414
 -85.9409
 -85.9412
 -85.9477
 -85.9479
 -85.9473
 -85.9477
 -85.9551
 -85.9545
 -85.955
 -85.9544
 -85.9436
 -85.9444
 -85.9442
 -85.9443
 -85.9391
 -85.9389
 -85.9391
 -85.9393
 -85.9548
 -85.9555
 -85.9551
 -85.9556
 -85.9408
 -85.9402
 -85.941
 -85.941
 -85.9436
 -85.9442
 -85.944
 -85.9444
 -85.9525
 -85.9533
 -85.9531
 -85.9528
 -85.9474
 -85.9479
 -85.948
 -85.948
 -85.9455
 -85.9452
 -85.9456
 -85.9458
 -85.9571
 -85.9574
 -85.9576
 -85.9577
 -85.9556
 -85.9558
 -85.9558
 -85.9555
 -85.9489
 -85.949
 -85.9483
 -85.9486
 -85.9455
 -85.9459
 -85.9454
 -85.9464
 -85.9425
 -85.9427
 -85.9427
 -85.9435
 -85.9385
 -85.9385
 -85.9381
 -85.9535
 -85.9538
 -85.9536
 -85.9541
 -85.93
 -85.9296
 -85.9291
 -85.9292
 -85.9513
 -85.9507
 -85.951
 -85.951
 -85.9405
 -85.94
 -85.9403
 -85.9403
 -85.9396
 -85.9392
 -85.9393
 -85.9393
 -85.9557
 -85.9552
 -85.9555
 -85.9561
 -85.9478
 -85.9475
 -85.948
 -85.9476
 -85.9456
 -85.9454
 -85.9418
 -85.9447
 -85.9453
 -85.9446
 -85.945
 -85.9306
 -85.931
 -85.9507
 -85.951
 -85.9512
 -85.9371
 -85.9374
 -85.9367
 -85.9371
 -85.9508
 -85.9503
 -85.9504
 -85.9504
 -85.9436
 -85.9441
 -85.944
 -85.944
 -85.9416
 -85.9423
 -85.9419
 -85.9419
 -85.9571
 -85.9571
 -85.9576
 -85.9573
 -85.9373
 -85.9378
 -85.9373
 -85.9378
 -85.9504
 -85.9505
 -85.9505
 -85.9509
 -85.9578
 -85.9579
 -85.9574
 -85.9575
 -85.9473
 -85.9468
 -85.9474
 -85.947
 -85.9503
 -85.9496
 -85.95
 -85.9499
 -85.9463
 -85.9468
 -85.9465
 -85.9456
 -85.9597
 -85.9592
 -85.9596
 -85.9591
 -85.9594
 -85.9594
 -85.9592
 -85.959
 -85.959
 -85.9588
 -85.9587
 -85.959
 -85.9449
 -85.9444
 -85.9449
 -85.9448
 -85.9489
 -85.9484
 -85.9486
 -85.9489
 -85.9452
 -85.9451
 -85.9448
 -85.9451
 -85.9444
 -85.9442
 -85.9449
 -85.9442
 -85.9516
 -85.9518
 -85.9519
 -85.9514
 -85.955
 -85.9556
 -85.9555
 -85.9557
 -85.9547
 -85.9549
 -85.9544
 -85.955
 -85.947
 -85.9473
 -85.9469
 -85.9473
 -85.946
 -85.9459
 -85.9458
 -85.9455
 -85.9411
 -85.9408
 -85.941
 -85.9415
 -85.9528
 -85.9533
 -85.9532
 -85.9527
 -85.935
 -85.935
 -85.9345
 -85.9353
 -85.954
 -85.9543
 -85.9539
 -85.9538
 -85.9484
 -85.9492
 -85.9483
 -85.949
 -85.9479
 -85.9482
 -85.948
 -85.9477
 -85.9375
 -85.9374
 -85.9371
 -85.9367
 -85.9241
 -85.9245
 -85.924
 -85.9241
 -85.9428
 -85.9433
 -85.9428
 -85.943
 -85.954
 -85.9534
 -85.9537
 -85.954
 -85.9396
 -85.9392
 -85.9395
 -85.9398
 -85.9488
 -85.949
 -85.9485
 -85.9491
 -85.9496
 -85.9501
 -85.9505
 -85.9503
 -85.9527
 -85.9529
 -85.9522
 -85.9525
 -85.9339
 -85.9335
 -85.9335
 -85.9339
 -85.9344
 -85.9345
 -85.9342
 -85.9342
 -85.9539
 -85.9547
 -85.9543
 -85.9544
 -85.9518
 -85.951
 -85.951
 -85.9515
 -85.9427
 -85.9428
 -85.9425
 -85.9425
 -85.9465
 -85.9463
 -85.9467
 -85.947
 -85.9483
 -85.9486
 -85.9484
 -85.9483
 -85.9422
 -85.942
 -85.9427
 -85.9421
 -85.9505
 -85.9502
 -85.9502
 -85.9498
 -85.9611
 -85.9607
 -85.9609
 -85.961
 -85.9492
 -85.9498
 -85.9498
 -85.9502
 -85.9466
 -85.9468
 -85.9464
 -85.9472
 -85.9466
 -85.9465
 -85.9461
 -85.9466
 -85.9484
 -85.9487
 -85.9484
 -85.9479
 -85.9584
 -85.9585
 -85.9582
 -85.9584
 -85.9551
 -85.9547
 -85.955
 -85.9502
 -85.9502
 -85.9505
 -85.9501
 -85.939
 -85.9389
 -85.9394
 -85.939
 -85.9442
 -85.9442
 -85.9438
 -85.9444
 -85.9549
 -85.9542
 -85.9542
 -85.9542
 -85.9412
 -85.9413
 -85.9415
 -85.9417
 -85.9434
 -85.943
 -85.9429
 -85.9436
 -85.9442
 -85.9439
 -85.9432
 -85.9438
 -85.9514
 -85.951
 -85.9509
 -85.9509
 -85.9484
 -85.9479
 -85.9485
 -85.9475
 -85.9502
 -85.9493
 -85.9496
 -85.9497
 -85.94
 -85.9402
 -85.9403
 -85.94
 -85.9441
 -85.9445
 -85.9446
 -85.9441
 -85.9509
 -85.9505
 -85.951
 -85.9513
 -85.943
 -85.9432
 -85.9435
 -85.9428
 -85.9492
 -85.9496
 -85.9497
 -85.9493
 -85.9398
 -85.9396
 -85.9399
 -85.9395
 -85.9578
 -85.9579
 -85.9575
 -85.9578
 -85.9409
 -85.9405
 -85.941
 -85.9412
 -85.9401
 -85.9392
 -85.9397
 -85.9397
 -85.9521
 -85.9522
 -85.9525
 -85.9526
 -85.9409
 -85.941
 -85.9411
 -85.9411
 -85.9499
 -85.9497
 -85.9499
 -85.9493
 -85.937
 -85.9371
 -85.9364
 -85.9366
 -85.9479
 -85.9477
 -85.9479
 -85.9483
 -85.9566
 -85.9572
 -85.9566
 -85.957
 -85.9482
 -85.9475
 -85.9474
 -85.9479
 -85.9526
 -85.9529
 -85.9527
 -85.9526
 -85.9496
 -85.9493
 -85.9494
 -85.9498
 -85.9492
 -85.9494
 -85.9495
 -85.95
 -85.9583
 -85.9584
 -85.9586
 -85.9579
 -85.9399
 -85.9397
 -85.9394
 -85.9394
 -85.9403
 -85.9401
 -85.9396
 -85.9401
 -85.9556
 -85.9556
 -85.9553
 -85.9559
 -85.957
 -85.9572
 -85.9569
 -85.9422
 -85.942
 -85.9419
 -85.9423
 -85.9505
 -85.951
 -85.9504
 -85.9504
 -85.9486
 -85.9488
 -85.9482
 -85.9489
 -85.9396
 -85.9401
 -85.9392
 -85.9396
 -85.9528
 -85.9532
 -85.953
 -85.953
 -85.9461
 -85.9455
 -85.9456
 -85.9461
 -85.9479
 -85.9473
 -85.9474
 -85.9473
 -85.9533
 -85.9537
 -85.9537
 -85.9536
 -85.9384
 -85.9383
 -85.9385
 -85.9387
 -85.9421
 -85.9414
 -85.9416
 -85.9415
 -85.959
 -85.9586
 -85.9589
 -85.9588
 -85.9401
 -85.9401
 -85.9402
 -85.9408
 -85.9387
 -85.9385
 -85.9386
 -85.9386
 -85.9465
 -85.9466
 -85.9464
 -85.9471
 -85.931
 -85.9311
 -85.9307
 -85.9315
 -85.9474
 -85.9476
 -85.9473
 -85.9475
 -85.9538
 -85.9536
 -85.9534
 -85.9533
 -85.9553
 -85.955
 -85.9552
 -85.9374
 -85.9374
 -85.9377
 -85.9374
 -85.9411
 -85.9416
 -85.9409
 -85.9414
 -85.9398
 -85.9396
 -85.9392
 -85.9392
 -85.9418
 -85.9414
 -85.9417
 -85.9416
 -85.9591
 -85.9594
 -85.9595
 -85.9594
 -85.938
 -85.9381
 -85.9379
 -85.9375
 -85.9409
 -85.9405
 -85.9408
 -85.9414
 -85.9551
 -85.9554
 -85.9551
 -85.955
 -85.9436
 -85.9435
 -85.9438
 -85.9413
 -85.9409
 -85.9414
 -85.9482
 -85.948
 -85.9475
 -85.9318
 -85.9326
 -85.9327
 -85.9321
 -85.9477
 -85.9481
 -85.9479
 -85.9483
 -85.9473
 -85.9477
 -85.9469
 -85.947
 -85.9556
 -85.956
 -85.9555
 -85.9555
 -85.9571
 -85.957
 -85.9577
 -85.957
 -85.9392
 -85.9387
 -85.9386
 -85.9396
 -85.9486
 -85.9492
 -85.9492
 -85.949
 -85.9484
 -85.9488
 -85.9491
 -85.9489
 -85.9457
 -85.9464
 -85.946
 -85.9465
 -85.9429
 -85.9431
 -85.9432
 -85.9425
 -85.9488
 -85.9482
 -85.9486
 -85.9488
 -85.94
 -85.9402
 -85.94
 -85.9403
 -85.9566
 -85.9565
 -85.9567
 -85.9568
 -85.942
 -85.9418
 -85.9421
 -85.9424
 -85.9552
 -85.9548
 -85.955
 -85.955
 -85.9576
 -85.9575
 -85.9571
 -85.9575
 -85.9578
 -85.9577
 -85.9576
 -85.9575
 -85.941
 -85.9407
 -85.9523
 -85.9521
 -85.9518
 -85.9521
 -85.9398
 -85.9405
 -85.9401
 -85.9399
 -85.9534
 -85.9542
 -85.954
 -85.9541
 -85.955
 -85.9548
 -85.9553
 -85.9548
 -85.9421
 -85.9426
 -85.9426
 -85.9424
 -85.9486
 -85.9487
 -85.949
 -85.9489
 -85.9418
 -85.9418
 -85.9422
 -85.9418
 -85.9446
 -85.9445
 -85.9446
 -85.9452
 -85.9272
 -85.928
 -85.927
 -85.9277
 -85.9563
 -85.956
 -85.9567
 -85.9562
 -85.9421
 -85.9416
 -85.9422
 -85.9426
 -85.9374
 -85.937
 -85.937
 -85.9375
 -85.9454
 -85.9451
 -85.9457
 -85.9457
 -85.9372
 -85.9364
 -85.9362
 -85.9372
 -85.9452
 -85.9446
 -85.9444
 -85.945
 -85.952
 -85.9519
 -85.9524
 -85.9516
 -85.9461
 -85.9457
 -85.9457
 -85.9459
 -85.9557
 -85.9564
 -85.9558
 -85.9454
 -85.9459
 -85.9454
 -85.9459
 -85.9271
 -85.9268
 -85.9268
 -85.9267
 -85.9595
 -85.9596
 -85.9597
 -85.9595
 -85.9484
 -85.9482
 -85.9486
 -85.9481
 -85.9537
 -85.9534
 -85.9529
 -85.9535
 -85.9392
 -85.9397
 -85.9385
 -85.939
 -85.9427
 -85.9432
 -85.9424
 -85.9429
 -85.9428
 -85.9436
 -85.9431
 -85.9436
 -85.9573
 -85.9571
 -85.9575
 -85.9577
 -85.9436
 -85.9432
 -85.9429
 -85.9431
 -85.959
 -85.9588
 -85.9591
 -85.9587
 -85.9515
 -85.9509
 -85.951
 -85.9516
 -85.9401
 -85.9402
 -85.9404
 -85.9401
 -85.9306
 -85.9308
 -85.9313
 -85.9305
 -85.9447
 -85.944
 -85.9444
 -85.9437
 -85.9464
 -85.9464
 -85.9469
 -85.9463
 -85.9522
 -85.9523
 -85.952
 -85.9516
 -85.9279
 -85.9272
 -85.9281
 -85.9277
 -85.9449
 -85.9445
 -85.9452
 -85.9449
 -85.9585
 -85.9582
 -85.9581
 -85.9582
 -85.9546
 -85.955
 -85.9548
 -85.9547
 -85.9544
 -85.9544
 -85.9548
 -85.9543
 -85.9537
 -85.9534
 -85.9532
 -85.9534
 -85.9545
 -85.9552
 -85.9548
 -85.9548
 -85.9499
 -85.95
 -85.9499
 -85.95
 -85.9406
 -85.9416
 -85.9421
 -85.9422
 -85.9419
 -85.9514
 -85.9508
 -85.951
 -85.9509
 -85.9512
 -85.9513
 -85.9506
 -85.9507
 -85.9359
 -85.9362
 -85.9362
 -85.936
 -85.9562
 -85.9561
 -85.9559
 -85.9561
 -85.9535
 -85.9539
 -85.9544
 -85.9541
 -85.9401
 -85.9408
 -85.9406
 -85.9407
 -85.9407
 -85.9406
 -85.9415
 -85.9419
 -85.9417
 -85.9421
 -85.9403
 -85.9397
 -85.9389
 -85.9393
 -85.9511
 -85.9516
 -85.9514
 -85.9511
 -85.959
 -85.959
 -85.9589
 -85.959
 -85.9468
 -85.9464
 -85.9468
 -85.9462
 -85.9573
 -85.9566
 -85.9563
 -85.9563
 -85.9451
 -85.945
 -85.9447
 -85.9452
 -85.9509
 -85.9505
 -85.9502
 -85.9502
 -85.9395
 -85.9393
 -85.9393
 -85.9387
 -85.9488
 -85.9494
 -85.9486
 -85.949
 -85.9497
 -85.9504
 -85.9506
 -85.9498
 -85.9408
 -85.9406
 -85.9402
 -85.9404
 -85.9435
 -85.9432
 -85.9441
 -85.9437
 -85.9452
 -85.9452
 -85.9447
 -85.9444
 -85.9488
 -85.9491
 -85.9489
 -85.949
 -85.9355
 -85.9357
 -85.9359
 -85.9364
 -85.9499
 -85.9494
 -85.9497
 -85.9501
 -85.9435
 -85.9429
 -85.9436
 -85.944
 -85.9521
 -85.9519
 -85.9521
 -85.9517
 -85.9554
 -85.955
 -85.9554
 -85.9551
 -85.9579
 -85.9577
 -85.9576
 -85.9578
 -85.957
 -85.9573
 -85.9566
 -85.9594
 -85.9594
 -85.9596
 -85.9597
 -85.9543
 -85.9539
 -85.9534
 -85.9539
 -85.9462
 -85.9461
 -85.9465
 -85.9464
 -85.9573
 -85.957
 -85.9567
 -85.9573
 -85.9477
 -85.9478
 -85.9475
 -85.9474
 -85.9489
 -85.9492
 -85.949
 -85.9575
 -85.9578
 -85.9576
 -85.9575
 -85.9565
 -85.9561
 -85.9562
 -85.9481
 -85.9479
 -85.9484
 -85.9485
 -85.9433
 -85.9436
 -85.9432
 -85.944
 -85.9516
 -85.9513
 -85.9511
 -85.951
 -85.9576
 -85.9578
 -85.9577
 -85.9575
 -85.941
 -85.941
 -85.9413
 -85.9407
 -85.9461
 -85.946
 -85.9455
 -85.9455
 -85.9468
 -85.9475
 -85.9467
 -85.9469
 -85.9521
 -85.9516
 -85.9519
 -85.952
 -85.9413
 -85.9409
 -85.9417
 -85.941
 -85.9393
 -85.9388
 -85.9393
 -85.9391
 -85.9468
 -85.9468
 -85.9467
 -85.9473
 -85.9586
 -85.9584
 -85.9584
 -85.9584
 -85.9423
 -85.9417
 -85.9424
 -85.9421
 -85.9398
 -85.9401
 -85.9396
 -85.9402
 -85.9499
 -85.9492
 -85.9499
 -85.9498
 -85.9417
 -85.9419
 -85.9416
 -85.9399
 -85.9403
 -85.9401
 -85.9491
 -85.9488
 -85.9496
 -85.949
 -85.94
 -85.9398
 -85.9395
 -85.94
 -85.9403
 -85.9397
 -85.9402
 -85.9402
 -85.95
 -85.9502
 -85.9498
 -85.9401
 -85.94
 -85.9552
 -85.9553
 -85.956
 -85.956
 -85.9516
 -85.9523
 -85.9524
 -85.952
 -85.9355
 -85.9361
 -85.9351
 -85.9362
 -85.9319
 -85.932
 -85.9315
 -85.932
 -85.9416
 -85.9406
 -85.9412
 -85.9413
 -85.9568
 -85.9568
 -85.957
 -85.9568
 -85.9508
 -85.9504
 -85.9502
 -85.9504
 -85.9384
 -85.9384
 -85.9383
 -85.9382
 -85.9419
 -85.942
 -85.9422
 -85.9427
 -85.9422
 -85.9423
 -85.9421
 -85.9408
 -85.9412
 -85.9412
 -85.9412
 -85.9413
 -85.9409
 -85.9413
 -85.9415
 -85.9397
 -85.9392
 -85.9396
 -85.9391
 -85.9585
 -85.9587
 -85.9586
 -85.9586
 -85.9572
 -85.9576
 -85.9571
 -85.9467
 -85.9464
 -85.9468
 -85.9462
 -85.9413
 -85.9407
 -85.9414
 -85.9412
 -85.9596
 -85.9598
 -85.9399
 -85.9396
 -85.9396
 -85.9394
 -85.948
 -85.9489
 -85.9483
 -85.9486
 -85.9503
 -85.9501
 -85.94
 -85.9399
 -85.9405
 -85.94
 -85.9577
 -85.9579
 -85.9575
 -85.9581
 -85.9591
 -85.9588
 -85.9588
 -85.9593
 -85.9454
 -85.9456
 -85.9454
 -85.9354
 -85.9359
 -85.9356
 -85.9405
 -85.9412
 -85.9405
 -85.9407
 -85.9531
 -85.9527
 -85.9534
 -85.9526
 -85.9428
 -85.9423
 -85.9423
 -85.9419
 -85.9424
 -85.9421
 -85.9426
 -85.942
 -85.9511
 -85.951
 -85.9513
 -85.9519
 -85.9282
 -85.9285
 -85.928
 -85.9276
 -85.9525
 -85.9526
 -85.953
 -85.9529
 -85.953
 -85.9529
 -85.9533
 -85.9535
 -85.9392
 -85.9393
 -85.9386
 -85.9391
 -85.9564
 -85.9566
 -85.9567
 -85.9563
 -85.9271
 -85.9264
 -85.9266
 -85.9261
 -85.9578
 -85.9571
 -85.9571
 -85.957
 -85.9547
 -85.9544
 -85.9419
 -85.9423
 -85.9422
 -85.9426
 -85.9387
 -85.9383
 -85.9385
 -85.9389
 -85.9562
 -85.9565
 -85.9565
 -85.9564
 -85.9432
 -85.9434
 -85.9434
 -85.943
 -85.9585
 -85.9582
 -85.9584
 -85.9415
 -85.941
 -85.9408
 -85.9381
 -85.9386
 -85.9388
 -85.958
 -85.9582
 -85.958
 -85.9579
 -85.9418
 -85.9415
 -85.9415
 -85.9415
 -85.9563
 -85.9564
 -85.9381
 -85.9385
 -85.9381
 -85.9382
 -85.9474
 -85.9479
 -85.948
 -85.9474
 -85.9425
 -85.9421
 -85.9444
 -85.9454
 -85.9453
 -85.9447
 -85.9419
 -85.9419
 -85.9419
 -85.9414
 -85.9588
 -85.9593
 -85.9587
 -85.9589
 -85.939
 -85.9388
 -85.9389
 -85.9548
 -85.9275
 -85.9274
 -85.9275
 -85.9272
 -85.956
 -85.9562
 -85.9564
 -85.9556
 -85.9424
 -85.9425
 -85.9433
 -85.9431
 -85.9522
 -85.952
 -85.952
 -85.9521
 -85.9419
 -85.9415
 -85.9413
 -85.9418
 -85.951
 -85.936
 -85.9359
 -85.9358
 -85.936
 -85.9509
 -85.9509
 -85.9507
 -85.9503
 -85.9543
 -85.9546
 -85.9548
 -85.954
 -85.9544
 -85.9538
 -85.9545
 -85.9562
 -85.9566
 -85.9565
 -85.9564
 -85.9392
 -85.9393
 -85.9399
 -85.9396
 -85.9555
 -85.9555
 -85.9555
 -85.9559
 -85.9374
 -85.9373
 -85.9374
 -85.9368
 -85.955
 -85.9553
 -85.9555
 -85.9555
 -85.9465
 -85.9462
 -85.9461
 -85.9459
 -85.9521
 -85.9524
 -85.9526
 -85.9527
 -85.9481
 -85.9479
 -85.9477
 -85.9475
 -85.9578
 -85.9572
 -85.9481
 -85.9476
 -85.9476
 -85.948
 -85.9358
 -85.9357
 -85.9363
 -85.9357
 -85.937
 -85.9368
 -85.9377
 -85.9369
 -85.9481
 -85.9486
 -85.9486
 -85.9487
 -85.9529
 -85.9529
 -85.9528
 -85.9535
 -85.9536
 -85.9532
 -85.9534
 -85.9538
 -85.9574
 -85.9568
 -85.957
 -85.9567
 -85.9538
 -85.9544
 -85.9541
 -85.9538
 -85.9371
 -85.9371
 -85.9374
 -85.9367
 -85.9398
 -85.9398
 -85.9396
 -85.9405
 -85.9597
 -85.9595
 -85.9594
 -85.9594
 -85.9491
 -85.9493
 -85.9492
 -85.95
 -85.9405
 -85.9411
 -85.9405
 -85.941
 -85.9296
 -85.9294
 -85.9302
 -85.9292
 -85.956
 -85.9563
 -85.9558
 -85.9567
 -85.9411
 -85.9412
 -85.9413
 -85.9417
 -85.9446
 -85.9451
 -85.9443
 -85.9446
 -85.9372
 -85.937
 -85.9371
 -85.9375
 -85.9506
 -85.9504
 -85.9506
 -85.9507
 -85.9573
 -85.9574
 -85.9572
 -85.9573
 -85.9496
 -85.9489
 -85.9491
 -85.949
 -85.9454
 -85.9454
 -85.946
 -85.9458
 -85.9362
 -85.9365
 -85.9367
 -85.9359
 -85.9572
 -85.9515
 -85.9518
 -85.9513
 -85.9518
 -85.9444
 -85.9442
 -85.9437
 -85.9439
 -85.9527
 -85.953
 -85.9529
 -85.9533
 -85.9405
 -85.9402
 -85.9403
 -85.9408
 -85.9506
 -85.9509
 -85.9502
 -85.9357
 -85.9364
 -85.9358
 -85.9357
 -85.9549
 -85.954
 -85.9546
 -85.9543
 -85.9392
 -85.9391
 -85.9394
 -85.9392
 -85.9605
 -85.9604
 -85.9605
 -85.9607
 -85.9412
 -85.9412
 -85.9414
 -85.9412
 -85.9314
 -85.9327
 -85.9325
 -85.9321
 -85.9351
 -85.9351
 -85.9356
 -85.9355
 -85.9597
 -85.9595
 -85.9593
 -85.9592
 -85.9581
 -85.958
 -85.9582
 -85.9583
 -85.9468
 -85.9473
 -85.9471
 -85.9473
 -85.9417
 -85.9415
 -85.9419
 -85.9482
 -85.9483
 -85.9475
 -85.9478
 -85.9514
 -85.9512
 -85.9518
 -85.9518
 -85.948
 -85.949
 -85.9487
 -85.9486
 -85.9473
 -85.9475
 -85.9482
 -85.9478
 -85.9592
 -85.9589
 -85.9589
 -85.9588
 -85.9401
 -85.9399
 -85.9405
 -85.9401
 -85.9352
 -85.9342
 -85.9343
 -85.9528
 -85.9524
 -85.9526
 -85.9524
 -85.956
 -85.9564
 -85.9561
 -85.956
 -85.9408
 -85.9407
 -85.9409
 -85.9402
 -85.9403
 -85.9405
 -85.9399
 -85.9566
 -85.9564
 -85.9568
 -85.9561
 -85.946
 -85.9459
 -85.9464
 -85.946
 -85.9403
 -85.9398
 -85.9402
 -85.9402
 -85.9444
 -85.9442
 -85.9442
 -85.9446
 -85.9549
 -85.9549
 -85.9545
 -85.9549
 -85.9406
 -85.9413
 -85.9402
 -85.9411
 -85.945
 -85.9442
 -85.9444
 -85.9447
 -85.9425
 -85.9429
 -85.9426
 -85.9582
 -85.9581
 -85.9578
 -85.9579
 -85.9461
 -85.9463
 -85.9458
 -85.9464
 -85.9597
 -85.9596
 -85.9601
 -85.9479
 -85.9481
 -85.9481
 -85.9478
 -85.9362
 -85.9367
 -85.9359
 -85.9362
 -85.9497
 -85.9498
 -85.9502
 -85.9506
 -85.9471
 -85.9477
 -85.9469
 -85.9411
 -85.9412
 -85.9417
 -85.9413
 -85.939
 -85.9391
 -85.9388
 -85.9392
 -85.941
 -85.9412
 -85.9416
 -85.9409
 -85.9309
 -85.931
 -85.9317
 -85.9318
 -85.9435
 -85.9434
 -85.9431
 -85.9431
 -85.9425
 -85.9423
 -85.9431
 -85.9422
 -85.9568
 -85.9563
 -85.9564
 -85.957
 -85.9382
 -85.9389
 -85.9387
 -85.9385
 -85.9511
 -85.9508
 -85.9512
 -85.9514
 -85.9583
 -85.9584
 -85.9582
 -85.958
 -85.9585
 -85.958
 -85.9583
 -85.9585
 -85.9545
 -85.9549
 -85.9545
 -85.9547
 -85.9589
 -85.9592
 -85.9592
 -85.9585
 -85.9571
 -85.9572
 -85.9571
 -85.9597
 -85.9591
 -85.9593
 -85.9593
 -85.9372
 -85.937
 -85.9372
 -85.9368
 -85.9443
 -85.9438
 -85.9436
 -85.9439
 -85.9426
 -85.9432
 -85.9428
 -85.9433
 -85.9435
 -85.9432
 -85.9432
 -85.9431
 -85.9577
 -85.9574
 -85.9576
 -85.9577
 -85.9444
 -85.9444
 -85.9439
 -85.9437
 -85.941
 -85.9405
 -85.9405
 -85.9409
 -85.9517
 -85.9515
 -85.9521
 -85.9514
 -85.9415
 -85.9421
 -85.9415
 -85.9418
 -85.953
 -85.9526
 -85.9526
 -85.9481
 -85.9487
 -85.9486
 -85.9564
 -85.956
 -85.9561
 -85.9562
 -85.9445
 -85.9447
 -85.9443
 -85.9443
 -85.9506
 -85.9502
 -85.9503
 -85.9507
 -85.9433
 -85.9426
 -85.943
 -85.9434
 -85.9598
 -85.9596
 -85.9585
 -85.9584
 -85.9582
 -85.9586
 -85.9365
 -85.9363
 -85.9364
 -85.9361
 -85.9509
 -85.9513
 -85.9514
 -85.9517
 -85.9409
 -85.9416
 -85.9411
 -85.9407
 -85.9252
 -85.9242
 -85.9251
 -85.9248
 -85.9415
 -85.9413
 -85.941
 -85.9413
 -85.9528
 -85.9523
 -85.9527
 -85.9384
 -85.9383
 -85.9389
 -85.9389
 -85.9581
 -85.9577
 -85.9582
 -85.9579
 -85.9416
 -85.9418
 -85.9416
 -85.9419
 -85.9506
 -85.9511
 -85.9508
 -85.9507
 -85.9364
 -85.9367
 -85.9361
 -85.9365
 -85.9292
 -85.9291
 -85.9295
 -85.9297
 -85.9406
 -85.941
 -85.9405
 -85.9405
 -85.9438
 -85.9436
 -85.944
 -85.9487
 -85.9479
 -85.9488
 -85.9484
 -85.9393
 -85.9393
 -85.9387
 -85.953
 -85.9529
 -85.9531
 -85.9535
 -85.9546
 -85.9553
 -85.9546
 -85.9552
 -85.9523
 -85.9519
 -85.9522
 -85.9523
 -85.9578
 -85.957
 -85.9573
 -85.9575
 -85.9541
 -85.9537
 -85.954
 -85.9423
 -85.9426
 -85.9426
 -85.9428
 -85.9535
 -85.9531
 -85.9516
 -85.951
 -85.9508
 -85.9514
 -85.9527
 -85.9525
 -85.9526
 -85.9529
 -85.9407
 -85.9409
 -85.9407
 -85.9403
 -85.9411
 -85.9415
 -85.9411
 -85.9415
 -85.9255
 -85.9258
 -85.926
 -85.9257
 -85.9411
 -85.9415
 -85.9411
 -85.9424
 -85.9422
 -85.9421
 -85.9422
 -85.9468
 -85.9468
 -85.9465
 -85.9464
 -85.9425
 -85.943
 -85.943
 -85.9427
 -85.9366
 -85.9369
 -85.9365
 -85.9364
 -85.9546
 -85.9541
 -85.9546
 -85.9541
 -85.9465
 -85.947
 -85.9465
 -85.9462
 -85.9578
 -85.9578
 -85.9576
 -85.9579
 -85.9492
 -85.9487
 -85.9492
 -85.9489
 -85.9573
 -85.9575
 -85.9573
 -85.9303
 -85.9308
 -85.9306
 -85.9307
 -85.9524
 -85.9531
 -85.9525
 -85.9526
 -85.9452
 -85.9447
 -85.9452
 -85.945
 -85.9399
 -85.9395
 -85.9431
 -85.9432
 -85.9434
 -85.9433
 -85.9449
 -85.9443
 -85.9445
 -85.9566
 -85.9568
 -85.9565
 -85.9567
 -85.9568
 -85.9565
 -85.9562
 -85.9564
 -85.94
 -85.9398
 -85.9401
 -85.9399
 -85.9461
 -85.9459
 -85.9416
 -85.9421
 -85.9418
 -85.9413
 -85.9536
 -85.9533
 -85.954
 -85.954
 -85.936
 -85.936
 -85.936
 -85.9362
 -85.9405
 -85.9407
 -85.9403
 -85.9403
 -85.9415
 -85.942
 -85.9423
 -85.942
 -85.9478
 -85.9477
 -85.9477
 -85.9485
 -85.9532
 -85.9531
 -85.9528
 -85.9528
 -85.954
 -85.9536
 -85.9533
 -85.9537
 -85.9277
 -85.9276
 -85.9274
 -85.9272
 -85.9385
 -85.9389
 -85.9391
 -85.9487
 -85.9479
 -85.9484
 -85.9494
 -85.9499
 -85.9494
 -85.9499
 -85.9574
 -85.9577
 -85.9575
 -85.9578
 -85.946
 -85.9413
 -85.9412
 -85.9406
 -85.9408
 -85.951
 -85.9507
 -85.9502
 -85.9505
 -85.9544
 -85.9539
 -85.954
 -85.9545
 -85.9561
 -85.9562
 -85.94
 -85.9398
 -85.9396
 -85.9395
 -85.947
 -85.9474
 -85.9473
 -85.9476
 -85.9387
 -85.9385
 -85.9386
 -85.9388
 -85.9495
 -85.9437
 -85.9433
 -85.9442
 -85.9445
 -85.9427
 -85.9431
 -85.9433
 -85.943
 -85.9576
 -85.9571
 -85.9584
 -85.9586
 -85.9586
 -85.9585
 -85.933
 -85.9327
 -85.9328
 -85.9331
 -85.9539
 -85.954
 -85.9534
 -85.9542
 -85.9496
 -85.9489
 -85.9492
 -85.9497
 -85.9288
 -85.929
 -85.929
 -85.9286
 -85.9468
 -85.9469
 -85.9471
 -85.9466
 -85.9465
 -85.9459
 -85.9456
 -85.9457
 -85.9395
 -85.9389
 -85.9396
 -85.9393
 -85.9595
 -85.9597
 -85.9598
 -85.9598
 -85.9458
 -85.9452
 -85.9453
 -85.942
 -85.9425
 -85.9425
 -85.942
 -85.9586
 -85.9592
 -85.9589
 -85.959
 -85.942
 -85.9417
 -85.9412
 -85.9422
 -85.945
 -85.9454
 -85.9551
 -85.9552
 -85.9555
 -85.9547
 -85.9487
 -85.9487
 -85.9493
 -85.9492
 -85.958
 -85.9578
 -85.9581
 -85.958
 -85.9456
 -85.9464
 -85.9407
 -85.9409
 -85.941
 -85.941
 -85.9421
 -85.9421
 -85.9424
 -85.9426
 -85.9557
 -85.9557
 -85.9552
 -85.9554
 -85.9544
 -85.9542
 -85.9546
 -85.9546
 -85.9536
 -85.953
 -85.9536
 -85.9533
 -85.9425
 -85.9432
 -85.9429
 -85.9425
 -85.9331
 -85.9327
 -85.933
 -85.933
 -85.9587
 -85.959
 -85.9587
 -85.9588
 -85.9392
 -85.9394
 -85.9394
 -85.9397
 -85.9482
 -85.9485
 -85.9488
 -85.9482
 -85.9432
 -85.9441
 -85.9435
 -85.9438
 -85.9481
 -85.9475
 -85.948
 -85.9506
 -85.9511
 -85.9505
 -85.9511
 -85.9469
 -85.9473
 -85.947
 -85.9466
 -85.9525
 -85.9526
 -85.953
 -85.9524
 -85.9524
 -85.9523
 -85.9525
 -85.9517
 -85.9286
 -85.9295
 -85.9286
 -85.9365
 -85.9372
 -85.9374
 -85.9371
 -85.948
 -85.9476
 -85.9477
 -85.9477
 -85.9554
 -85.9557
 -85.9555
 -85.9559
 -85.9409
 -85.9403
 -85.9409
 -85.9417
 -85.942
 -85.942
 -85.9499
 -85.9497
 -85.95
 -85.9501
 -85.9479
 -85.9482
 -85.9485
 -85.9485
 -85.9608
 -85.9608
 -85.9606
 -85.9608
 -85.9351
 -85.9353
 -85.9349
 -85.9342
 -85.9533
 -85.9535
 -85.944
 -85.9447
 -85.9446
 -85.9441
 -85.952
 -85.9523
 -85.9523
 -85.9524
 -85.9491
 -85.9493
 -85.9497
 -85.9493
 -85.9448
 -85.9447
 -85.9453
 -85.9444
 -85.9515
 -85.952
 -85.9518
 -85.9519
 -85.94
 -85.9402
 -85.9402
 -85.9405
 -85.9382
 -85.9377
 -85.9382
 -85.938
 -85.9548
 -85.9549
 -85.9554
 -85.9559
 -85.9478
 -85.9482
 -85.9485
 -85.9318
 -85.9316
 -85.932
 -85.956
 -85.9562
 -85.9563
 -85.9564
 -85.9567
 -85.9566
 -85.9564
 -85.9563
 -85.9469
 -85.947
 -85.9472
 -85.9474
 -85.9575
 -85.9578
 -85.9578
 -85.9577
 -85.9579
 -85.9583
 -85.958
 -85.9584
 -85.9448
 -85.945
 -85.9454
 -85.9449
 -85.954
 -85.9542
 -85.9544
 -85.9544
 -85.9606
 -85.9607
 -85.9605
 -85.9608
 -85.954
 -85.9539
 -85.9537
 -85.9543
 -85.9484
 -85.9477
 -85.948
 -85.9474
 -85.9556
 -85.9557
 -85.9554
 -85.9552
 -85.9524
 -85.9523
 -85.9526
 -85.95
 -85.9504
 -85.9335
 -85.9337
 -85.9334
 -85.9332
 -85.9497
 -85.9502
 -85.95
 -85.95
 -85.934
 -85.9341
 -85.9343
 -85.9343
 -85.9339
 -85.9337
 -85.9346
 -85.9346
 -85.9487
 -85.9491
 -85.949
 -85.9486
 -85.9439
 -85.944
 -85.9435
 -85.9441
 -85.9506
 -85.9512
 -85.951
 -85.951
 -85.9475
 -85.9471
 -85.9375
 -85.9372
 -85.9374
 -85.9377
 -85.9587
 -85.9589
 -85.959
 -85.9588
 -85.9441
 -85.9438
 -85.9447
 -85.9443
 -85.9555
 -85.9552
 -85.9549
 -85.9553
 -85.9375
 -85.937
 -85.9374
 -85.9372
 -85.9569
 -85.9574
 -85.9573
 -85.9574
 -85.9498
 -85.9492
 -85.9497
 -85.9497
 -85.9412
 -85.9406
 -85.9402
 -85.9405
 -85.9606
 -85.9605
 -85.9605
 -85.9603
 -85.9428
 -85.9433
 -85.9429
 -85.9428
 -85.9447
 -85.944
 -85.9445
 -85.9441
 -85.959
 -85.9591
 -85.9588
 -85.9592
 -85.9468
 -85.9461
 -85.9464
 -85.9464
 -85.9558
 -85.9562
 -85.9559
 -85.9558
 -85.9554
 -85.955
 -85.9551
 -85.9452
 -85.9444
 -85.9446
 -85.9447
 -85.9554
 -85.9558
 -85.9555
 -85.9557
 -85.9397
 -85.9401
 -85.9401
 -85.9396
 -85.9566
 -85.9569
 -85.9569
 -85.9567
 -85.9564
 -85.9562
 -85.9565
 -85.9563
 -85.9403
 -85.9401
 -85.941
 -85.9406
 -85.9409
 -85.9408
 -85.9413
 -85.9406
 -85.923
 -85.9231
 -85.9227
 -85.9229
 -85.9535
 -85.9529
 -85.953
 -85.9341
 -85.9348
 -85.9349
 -85.9345
 -85.9582
 -85.9578
 -85.958
 -85.958
 -85.9399
 -85.9557
 -85.9553
 -85.9553
 -85.9557
 -85.9558
 -85.9553
 -85.9554
 -85.9274
 -85.9268
 -85.9271
 -85.9273
 -85.9263
 -85.9264
 -85.9262
 -85.9261
 -85.9579
 -85.9575
 -85.9578
 -85.9581
 -85.9409
 -85.9407
 -85.9411
 -85.9406
 -85.9522
 -85.952
 -85.9525
 -85.9432
 -85.9427
 -85.9432
 -85.9425
 -85.9453
 -85.9453
 -85.9452
 -85.9555
 -85.9554
 -85.9559
 -85.9496
 -85.9501
 -85.9501
 -85.9497
 -85.9434
 -85.9428
 -85.9428
 -85.9433
 -85.9405
 -85.9407
 -85.9405
 -85.9407
 -85.9523
 -85.9526
 -85.9527
 -85.9368
 -85.9372
 -85.9363
 -85.9362
 -85.9405
 -85.9414
 -85.9407
 -85.9446
 -85.9456
 -85.9453
 -85.945
 -85.9392
 -85.9397
 -85.9398
 -85.9395
 -85.9406
 -85.9412
 -85.9413
 -85.9411
 -85.9558
 -85.9554
 -85.9555
 -85.9554
 -85.9459
 -85.9455
 -85.9458
 -85.9461
 -85.942
 -85.9421
 -85.9482
 -85.9479
 -85.9481
 -85.9475
 -85.9571
 -85.9584
 -85.9586
 -85.9585
 -85.9584
 -85.9222
 -85.9221
 -85.922
 -85.9222
 -85.9547
 -85.9552
 -85.9549
 -85.9597
 -85.9596
 -85.9595
 -85.9597
 -85.9537
 -85.9531
 -85.9534
 -85.9532
 -85.9403
 -85.9405
 -85.9407
 -85.9403
 -85.9454
 -85.9451
 -85.9449
 -85.9449
 -85.96
 -85.96
 -85.9599
 -85.9598
 -85.9534
 -85.9531
 -85.9528
 -85.9532
 -85.9365
 -85.9361
 -85.936
 -85.9368
 -85.9447
 -85.9447
 -85.9449
 -85.944
 -85.9441
 -85.9444
 -85.9447
 -85.9442
 -85.9221
 -85.9221
 -85.9221
 -85.9222
 -85.9396
 -85.9395
 -85.9394
 -85.9398
 -85.9537
 -85.9543
 -85.9538
 -85.954
 -85.95
 -85.95
 -85.9505
 -85.9498
 -85.9461
 -85.9464
 -85.9469
 -85.9464
 -85.9528
 -85.9533
 -85.9531
 -85.9531
 -85.9501
 -85.9501
 -85.9506
 -85.95
 -85.953
 -85.9529
 -85.9526
 -85.9534
 -85.9606
 -85.9602
 -85.9603
 -85.9606
 -85.9545
 -85.9542
 -85.9541
 -85.9534
 -85.9524
 -85.952
 -85.9518
 -85.9524
 -85.9519
 -85.9482
 -85.9482
 -85.9478
 -85.9487
 -85.9586
 -85.9584
 -85.9584
 -85.9583
 -85.946
 -85.9456
 -85.9461
 -85.9459
 -85.9497
 -85.9499
 -85.9502
 -85.9493
 -85.9473
 -85.9467
 -85.9471
 -85.9476
 -85.9433
 -85.9425
 -85.9431
 -85.9426
 -85.9304
 -85.9307
 -85.9315
 -85.9305
 -85.9608
 -85.9605
 -85.9515
 -85.9511
 -85.9511
 -85.9242
 -85.9242
 -85.9242
 -85.9415
 -85.941
 -85.9413
 -85.9408
 -85.9337
 -85.9339
 -85.9329
 -85.9328
 -85.9385
 -85.9382
 -85.9387
 -85.9379
 -85.9585
 -85.9578
 -85.9581
 -85.9581
 -85.9485
 -85.9479
 -85.9481
 -85.9478
 -85.952
 -85.9527
 -85.9526
 -85.953
 -85.9501
 -85.9501
 -85.9496
 -85.9494
 -85.9531
 -85.9533
 -85.9529
 -85.953
 -85.9465
 -85.9465
 -85.9556
 -85.9546
 -85.9556
 -85.9548
 -85.9532
 -85.9528
 -85.9526
 -85.9534
 -85.9413
 -85.9407
 -85.9414
 -85.9408
 -85.9414
 -85.9415
 -85.9415
 -85.9416
 -85.9494
 -85.9495
 -85.9493
 -85.9497
 -85.9486
 -85.9488
 -85.9491
 -85.9495
 -85.9387
 -85.938
 -85.9379
 -85.9387
 -85.9525
 -85.9523
 -85.9521
 -85.952
 -85.9602
 -85.96
 -85.9602
 -85.9601
 -85.9563
 -85.956
 -85.9561
 -85.9559
 -85.9606
 -85.9608
 -85.9605
 -85.9608
 -85.9569
 -85.9573
 -85.9571
 -85.9572
 -85.948
 -85.9487
 -85.948
 -85.9482
 -85.9525
 -85.9521
 -85.9469
 -85.9475
 -85.9467
 -85.9471
 -85.9413
 -85.9417
 -85.9418
 -85.9419
 -85.9544
 -85.9549
 -85.9549
 -85.9545
 -85.9466
 -85.9464
 -85.9467
 -85.9461
 -85.9448
 -85.9444
 -85.9443
 -85.9445
 -85.9404
 -85.9404
 -85.9407
 -85.941
 -85.9421
 -85.9419
 -85.9418
 -85.9426
 -85.9403
 -85.9406
 -85.9408
 -85.9404
 -85.9314
 -85.9316
 -85.9312
 -85.9313
 -85.9538
 -85.954
 -85.9534
 -85.9539
 -85.9517
 -85.9519
 -85.9323
 -85.9327
 -85.9326
 -85.9319
 -85.943
 -85.9432
 -85.9512
 -85.9508
 -85.9512
 -85.9563
 -85.9563
 -85.9395
 -85.9395
 -85.9393
 -85.9398
 -85.9322
 -85.9326
 -85.9326
 -85.9327
 -85.9383
 -85.9385
 -85.9388
 -85.939
 -85.9429
 -85.9432
 -85.9434
 -85.9435
 -85.9502
 -85.9496
 -85.9496
 -85.9496
 -85.9517
 -85.9515
 -85.9514
 -85.9513
 -85.9427
 -85.9433
 -85.9432
 -85.9432
 -85.9498
 -85.9498
 -85.95
 -85.9492
 -85.9476
 -85.9472
 -85.9471
 -85.9474
 -85.9485
 -85.9489
 -85.9492
 -85.949
 -85.9489
 -85.9483
 -85.949
 -85.9468
 -85.9464
 -85.9472
 -85.9469
 -85.9437
 -85.944
 -85.9434
 -85.9436
 -85.9409
 -85.9413
 -85.9406
 -85.9412
 -85.9584
 -85.9583
 -85.9585
 -85.9587
 -85.9458
 -85.9457
 -85.9463
 -85.9463
 -85.938
 -85.9379
 -85.9373
 -85.9378
 -85.9365
 -85.9365
 -85.9363
 -85.9362
 -85.9389
 -85.9386
 -85.9386
 -85.9388
 -85.9402
 -85.9402
 -85.9408
 -85.9408
 -85.9407
 -85.9404
 -85.9403
 -85.9405
 -85.9579
 -85.9582
 -85.9581
 -85.9582
 -85.945
 -85.945
 -85.9449
 -85.9454
 -85.9536
 -85.9538
 -85.9535
 -85.9533
 -85.9408
 -85.9414
 -85.9405
 -85.9411
 -85.9588
 -85.959
 -85.9589
 -85.9592
 -85.9593
 -85.9593
 -85.9595
 -85.9528
 -85.9518
 -85.9521
 -85.9522
 -85.9419
 -85.9421
 -85.9416
 -85.942
 -85.9601
 -85.9597
 -85.9598
 -85.9445
 -85.944
 -85.9443
 -85.9436
 -85.9568
 -85.9569
 -85.9562
 -85.9564
 -85.9568
 -85.9562
 -85.9436
 -85.9431
 -85.9433
 -85.9367
 -85.9369
 -85.9363
 -85.9365
 -85.9405
 -85.9401
 -85.9407
 -85.9407
 -85.9477
 -85.9482
 -85.9475
 -85.9587
 -85.9581
 -85.9582
 -85.953
 -85.9525
 -85.9523
 -85.9526
 -85.9589
 -85.959
 -85.9584
 -85.9593
 -85.9452
 -85.9457
 -85.946
 -85.9456
 -85.9567
 -85.9568
 -85.957
 -85.9564
 -85.9478
 -85.948
 -85.9476
 -85.9474
 -85.9423
 -85.9418
 -85.9421
 -85.9597
 -85.9594
 -85.9596
 -85.96
 -85.9519
 -85.9499
 -85.9505
 -85.9504
 -85.9501
 -85.9504
 -85.9504
 -85.9501
 -85.9419
 -85.9416
 -85.9416
 -85.9415
 -85.9415
 -85.9421
 -85.9456
 -85.945
 -85.9449
 -85.9448
 -85.9448
 -85.9455
 -85.945
 -85.9453
 -85.9527
 -85.9602
 -85.9597
 -85.9596
 -85.96
 -85.9286
 -85.928
 -85.9285
 -85.9285
 -85.9433
 -85.9429
 -85.9419
 -85.9417
 -85.942
 -85.9421
 -85.9415
 -85.9416
 -85.9409
 -85.9412
 -85.9534
 -85.9529
 -85.953
 -85.9533
 -85.9539
 -85.9542
 -85.9536
 -85.954
 -85.9422
 -85.9417
 -85.9521
 -85.9521
 -85.9527
 -85.9523
 -85.9527
 -85.9532
 -85.9527
 -85.9491
 -85.9488
 -85.9485
 -85.9483
 -85.9459
 -85.9454
 -85.9458
 -85.9454
 -85.9536
 -85.9542
 -85.9541
 -85.9537
 -85.9552
 -85.9554
 -85.9557
 -85.9553
 -85.9542
 -85.9547
 -85.9543
 -85.9539
 -85.954
 -85.954
 -85.9535
 -85.9455
 -85.9457
 -85.9457
 -85.9453
 -85.935
 -85.9349
 -85.9353
 -85.9353
 -85.944
 -85.9439
 -85.9437
 -85.9438
 -85.9551
 -85.9547
 -85.9544
 -85.9549
 -85.952
 -85.9519
 -85.9518
 -85.9523
 -85.9439
 -85.9442
 -85.9444
 -85.9445
 -85.952
 -85.9515
 -85.9518
 -85.952
 -85.9489
 -85.9491
 -85.9482
 -85.949
 -85.9492
 -85.9497
 -85.9495
 -85.9496
 -85.9519
 -85.9521
 -85.9522
 -85.9584
 -85.9584
 -85.9583
 -85.9583
 -85.9438
 -85.9443
 -85.944
 -85.9442
 -85.9471
 -85.9477
 -85.9476
 -85.9474
 -85.935
 -85.9346
 -85.9346
 -85.9352
 -85.9402
 -85.9406
 -85.9406
 -85.9402
 -85.941
 -85.9401
 -85.9405
 -85.94
 -85.9402
 -85.9404
 -85.9404
 -85.9406
 -85.9487
 -85.9483
 -85.9485
 -85.9384
 -85.9383
 -85.9386
 -85.9386
 -85.9391
 -85.9393
 -85.9398
 -85.9391
 -85.9597
 -85.9595
 -85.9594
 -85.9595
 -85.9491
 -85.9487
 -85.9486
 -85.9484
 -85.9556
 -85.9557
 -85.9555
 -85.9551
 -85.9501
 -85.9503
 -85.95
 -85.9496
 -85.9518
 -85.9522
 -85.9518
 -85.9519
 -85.9416
 -85.9411
 -85.9414
 -85.9407
 -85.9471
 -85.9481
 -85.9474
 -85.9475
 -85.9554
 -85.9556
 -85.9552
 -85.9553
 -85.9506
 -85.9504
 -85.951
 -85.9508
 -85.9394
 -85.9393
 -85.9399
 -85.94
 -85.9584
 -85.9585
 -85.9584
 -85.9585
 -85.9441
 -85.9436
 -85.939
 -85.9473
 -85.9475
 -85.9478
 -85.9471
 -85.9458
 -85.9462
 -85.9456
 -85.9456
 -85.9331
 -85.933
 -85.9337
 -85.9433
 -85.9428
 -85.9427
 -85.9424
 -85.9501
 -85.951
 -85.9507
 -85.9511
 -85.9477
 -85.9482
 -85.9479
 -85.9477
 -85.9575
 -85.9576
 -85.9577
 -85.9575
 -85.9407
 -85.9414
 -85.9409
 -85.9413
 -85.9412
 -85.9411
 -85.9418
 -85.9336
 -85.9328
 -85.9332
 -85.9336
 -85.9404
 -85.9409
 -85.9406
 -85.9497
 -85.9508
 -85.9499
 -85.9402
 -85.9402
 -85.9398
 -85.94
 -85.9458
 -85.9463
 -85.9465
 -85.9464
 -85.9223
 -85.9223
 -85.9222
 -85.9226
 -85.9453
 -85.9451
 -85.9452
 -85.9379
 -85.9378
 -85.9379
 -85.9379
 -85.9452
 -85.945
 -85.9444
 -85.9449
 -85.9398
 -85.9402
 -85.9402
 -85.9404
 -85.9522
 -85.9524
 -85.952
 -85.9525
 -85.9536
 -85.9533
 -85.9536
 -85.9538
 -85.9593
 -85.9593
 -85.9594
 -85.9591
 -85.9494
 -85.9487
 -85.9493
 -85.9494
 -85.9396
 -85.9392
 -85.9396
 -85.9393
 -85.9419
 -85.9416
 -85.936
 -85.936
 -85.9363
 -85.9362
 -85.9464
 -85.9467
 -85.9433
 -85.9441
 -85.9439
 -85.9413
 -85.9416
 -85.9418
 -85.9415
 -85.9581
 -85.9582
 -85.9576
 -85.9577
 -85.9577
 -85.9576
 -85.9574
 -85.9576
 -85.9416
 -85.9418
 -85.9415
 -85.941
 -85.9383
 -85.9385
 -85.9502
 -85.9503
 -85.9502
 -85.9507
 -85.941
 -85.9408
 -85.9413
 -85.9413
 -85.944
 -85.9433
 -85.9446
 -85.9606
 -85.9608
 -85.9605
 -85.9477
 -85.9484
 -85.9481
 -85.9481
 -85.9565
 -85.9569
 -85.9564
 -85.9562
 -85.9486
 -85.949
 -85.9491
 -85.9485
 -85.9534
 -85.9539
 -85.9539
 -85.9532
 -85.9395
 -85.9399
 -85.9396
 -85.9394
 -85.9407
 -85.9413
 -85.9404
 -85.9411
 -85.9488
 -85.9483
 -85.9492
 -85.9485
 -85.9435
 -85.9442
 -85.9443
 -85.9435
 -85.9391
 -85.9393
 -85.9395
 -85.94
 -85.9459
 -85.9462
 -85.9465
 -85.9468
 -85.9513
 -85.9514
 -85.951
 -85.9484
 -85.9489
 -85.9486
 -85.9489
 -85.9251
 -85.9257
 -85.926
 -85.9256
 -85.9385
 -85.9384
 -85.9386
 -85.9385
 -85.9432
 -85.9431
 -85.9432
 -85.9437
 -85.9318
 -85.9323
 -85.9315
 -85.932
 -85.9563
 -85.9562
 -85.9559
 -85.9595
 -85.9593
 -85.9592
 -85.9593
 -85.9542
 -85.955
 -85.9546
 -85.9547
 -85.9483
 -85.9513
 -85.9519
 -85.9521
 -85.9518
 -85.9472
 -85.9476
 -85.9469
 -85.9469
 -85.9379
 -85.9373
 -85.9377
 -85.9411
 -85.9413
 -85.9415
 -85.9407
 -85.9254
 -85.9248
 -85.9254
 -85.9245
 -85.9331
 -85.9331
 -85.9334
 -85.9331
 -85.9428
 -85.9428
 -85.9432
 -85.9435
 -85.96
 -85.9596
 -85.9597
 -85.9595
 -85.927
 -85.9269
 -85.9275
 -85.9273
 -85.9529
 -85.9532
 -85.9525
 -85.953
 -85.9485
 -85.9485
 -85.949
 -85.9485
 -85.9417
 -85.9407
 -85.9407
 -85.9464
 -85.9457
 -85.9456
 -85.9456
 -85.9596
 -85.9597
 -85.9598
 -85.9384
 -85.9393
 -85.9395
 -85.9455
 -85.9459
 -85.9465
 -85.9464
 -85.943
 -85.9429
 -85.9428
 -85.9426
 -85.9436
 -85.9436
 -85.9441
 -85.9443
 -85.9378
 -85.9374
 -85.9375
 -85.9381
 -85.9464
 -85.9468
 -85.9462
 -85.9469
 -85.9582
 -85.9576
 -85.9576
 -85.9574
 -85.9573
 -85.9572
 -85.957
 -85.9574
 -85.9368
 -85.937
 -85.937
 -85.9368
 -85.956
 -85.9561
 -85.956
 -85.9556
 -85.9578
 -85.9583
 -85.9581
 -85.9576
 -85.9557
 -85.9557
 -85.9551
 -85.9553
 -85.9514
 -85.9513
 -85.9517
 -85.9515
 -85.9475
 -85.9472
 -85.9478
 -85.9429
 -85.9421
 -85.9424
 -85.9425
 -85.9539
 -85.9536
 -85.9532
 -85.9537
 -85.9545
 -85.9546
 -85.9549
 -85.9548
 -85.9609
 -85.9608
 -85.9606
 -85.9606
 -85.9333
 -85.9336
 -85.9335
 -85.9336
 -85.9362
 -85.936
 -85.936
 -85.9363
 -85.9379
 -85.9378
 -85.9385
 -85.9378
 -85.9432
 -85.9425
 -85.943
 -85.943
 -85.9442
 -85.9443
 -85.9443
 -85.9581
 -85.9584
 -85.9588
 -85.9586
 -85.955
 -85.9549
 -85.9546
 -85.9546
 -85.9469
 -85.9465
 -85.9464
 -85.9467
 -85.9575
 -85.9578
 -85.9501
 -85.9501
 -85.9501
 -85.9496
 -85.9574
 -85.9576
 -85.958
 -85.9576
 -85.9491
 -85.9498
 -85.949
 -85.9499
 -85.9427
 -85.9431
 -85.9422
 -85.9426
 -85.9357
 -85.9352
 -85.9356
 -85.9361
 -85.9248
 -85.9254
 -85.9245
 -85.9251
 -85.9567
 -85.9564
 -85.9564
 -85.9567
 -85.9574
 -85.9574
 -85.9575
 -85.9577
 -85.9452
 -85.9444
 -85.9449
 -85.9446
 -85.9482
 -85.9479
 -85.9478
 -85.9482
 -85.9407
 -85.9403
 -85.9411
 -85.9504
 -85.95
 -85.9501
 -85.9498
 -85.9409
 -85.9408
 -85.9411
 -85.9411
 -85.9473
 -85.9468
 -85.9464
 -85.9467
 -85.9517
 -85.9515
 -85.9516
 -85.9518
 -85.9486
 -85.9484
 -85.9482
 -85.9559
 -85.9554
 -85.9556
 -85.9556
 -85.9509
 -85.9515
 -85.9311
 -85.9319
 -85.9309
 -85.9313
 -85.9539
 -85.9537
 -85.9539
 -85.9416
 -85.9417
 -85.9418
 -85.9415
 -85.9509
 -85.9509
 -85.9507
 -85.9471
 -85.9466
 -85.9473
 -85.9468
 -85.9506
 -85.9499
 -85.9509
 -85.9503
 -85.9508
 -85.9514
 -85.9281
 -85.928
 -85.9277
 -85.928
 -85.9256
 -85.925
 -85.9247
 -85.9252
 -85.9477
 -85.9471
 -85.9473
 -85.947
 -85.9503
 -85.95
 -85.9503
 -85.9499
 -85.9283
 -85.9282
 -85.9283
 -85.9288
 -85.9415
 -85.9409
 -85.9373
 -85.9374
 -85.9376
 -85.938
 -85.9511
 -85.951
 -85.9517
 -85.9513
 -85.95
 -85.9501
 -85.9506
 -85.9498
 -85.9506
 -85.95
 -85.9499
 -85.95
 -85.9431
 -85.9432
 -85.9436
 -85.9431
 -85.9394
 -85.9392
 -85.9387
 -85.9395
 -85.9339
 -85.9345
 -85.9344
 -85.9338
 -85.9399
 -85.9398
 -85.9399
 -85.9407
 -85.954
 -85.9536
 -85.9541
 -85.9539
 -85.9478
 -85.9465
 -85.9472
 -85.9325
 -85.933
 -85.9334
 -85.9522
 -85.9529
 -85.9525
 -85.9525
 -85.9526
 -85.9518
 -85.9522
 -85.9524
 -85.9452
 -85.9448
 -85.9446
 -85.9462
 -85.9464
 -85.9469
 -85.9464
 -85.9398
 -85.9395
 -85.9394
 -85.9394
 -85.9557
 -85.9556
 -85.956
 -85.9558
 -85.9388
 -85.9387
 -85.9387
 -85.9389
 -85.938
 -85.9377
 -85.938
 -85.9592
 -85.9597
 -85.96
 -85.9596
 -85.9554
 -85.9557
 -85.9423
 -85.942
 -85.9425
 -85.9424
 -85.9473
 -85.9479
 -85.9474
 -85.9462
 -85.946
 -85.9461
 -85.9455
 -85.939
 -85.9395
 -85.9393
 -85.9553
 -85.9557
 -85.9551
 -85.9552
 -85.9388
 -85.9397
 -85.9391
 -85.939
 -85.9531
 -85.9527
 -85.9524
 -85.9526
 -85.939
 -85.9392
 -85.9396
 -85.939
 -85.9395
 -85.9392
 -85.9417
 -85.9414
 -85.9415
 -85.9417
 -85.9334
 -85.9331
 -85.9326
 -85.9331
 -85.954
 -85.9545
 -85.9437
 -85.944
 -85.9441
 -85.9441
 -85.9593
 -85.9592
 -85.9593
 -85.9594
 -85.9429
 -85.9425
 -85.9431
 -85.9436
 -85.9548
 -85.9553
 -85.9554
 -85.9554
 -85.9575
 -85.958
 -85.9572
 -85.9578
 -85.953
 -85.9524
 -85.9584
 -85.9587
 -85.9586
 -85.9585
 -85.9392
 -85.9392
 -85.939
 -85.9396
 -85.9584
 -85.9586
 -85.9586
 -85.9584
 -85.9597
 -85.9602
 -85.9599
 -85.9597
 -85.9496
 -85.9497
 -85.9502
 -85.95
 -85.9463
 -85.946
 -85.9466
 -85.947
 -85.9568
 -85.9563
 -85.9567
 -85.9568
 -85.9318
 -85.9325
 -85.932
 -85.9317
 -85.9565
 -85.9571
 -85.9435
 -85.944
 -85.944
 -85.9445
 -85.9566
 -85.9564
 -85.956
 -85.956
 -85.9398
 -85.9403
 -85.9402
 -85.9402
 -85.9443
 -85.9434
 -85.9437
 -85.9442
 -85.9401
 -85.9399
 -85.9407
 -85.9397
 -85.9394
 -85.9397
 -85.9392
 -85.9386
 -85.939
 -85.9388
 -85.939
 -85.9502
 -85.9497
 -85.9496
 -85.9561
 -85.9561
 -85.9565
 -85.9565
 -85.9489
 -85.9486
 -85.9483
 -85.9398
 -85.9394
 -85.9397
 -85.9472
 -85.948
 -85.9473
 -85.9478
 -85.951
 -85.9509
 -85.9509
 -85.9516
 -85.9456
 -85.9462
 -85.9463
 -85.9461
 -85.9453
 -85.9451
 -85.9449
 -85.9441
 -85.9438
 -85.9437
 -85.9444
 -85.9448
 -85.9451
 -85.9442
 -85.9564
 -85.9561
 -85.9564
 -85.9559
 -85.9521
 -85.9517
 -85.9521
 -85.9523
 -85.9464
 -85.9465
 -85.9462
 -85.9471
 -85.9385
 -85.9381
 -85.9385
 -85.9491
 -85.9487
 -85.949
 -85.9491
 -85.9419
 -85.9412
 -85.9416
 -85.9412
 -85.9295
 -85.9297
 -85.9294
 -85.9292
 -85.9445
 -85.9442
 -85.9444
 -85.9443
 -85.9568
 -85.9567
 -85.9572
 -85.957
 -85.9439
 -85.9445
 -85.9442
 -85.9438
 -85.939
 -85.939
 -85.9392
 -85.9394
 -85.9394
 -85.9391
 -85.9393
 -85.946
 -85.9461
 -85.9459
 -85.9513
 -85.9437
 -85.9428
 -85.9434
 -85.9433
 -85.9576
 -85.9576
 -85.9578
 -85.9569
 -85.957
 -85.9572
 -85.9436
 -85.9441
 -85.9437
 -85.944
 -85.9595
 -85.9597
 -85.9598
 -85.9598
 -85.94
 -85.9499
 -85.9493
 -85.9496
 -85.9495
 -85.9398
 -85.9399
 -85.9399
 -85.94
 -85.9573
 -85.9576
 -85.9571
 -85.9574
 -85.9516
 -85.9523
 -85.9521
 -85.9517
 -85.9544
 -85.9548
 -85.9541
 -85.9543
 -85.9385
 -85.9388
 -85.9389
 -85.9386
 -85.9425
 -85.9429
 -85.9424
 -85.9425
 -85.949
 -85.9487
 -85.9491
 -85.9485
 -85.9427
 -85.9421
 -85.943
 -85.9424
 -85.9513
 -85.9515
 -85.952
 -85.9519
 -85.9402
 -85.94
 -85.9405
 -85.9405
 -85.942
 -85.9422
 -85.9427
 -85.9425
 -85.9499
 -85.9499
 -85.95
 -85.9505
 -85.9573
 -85.9578
 -85.9575
 -85.9578
 -85.9374
 -85.9376
 -85.938
 -85.9379
 -85.9335
 -85.9327
 -85.9336
 -85.9335
 -85.9578
 -85.9582
 -85.958
 -85.958
 -85.9344
 -85.9339
 -85.9343
 -85.934
 -85.9338
 -85.9344
 -85.9475
 -85.9477
 -85.9472
 -85.947
 -85.9423
 -85.9427
 -85.9426
 -85.9422
 -85.9609
 -85.9608
 -85.9609
 -85.9607
 -85.9573
 -85.9573
 -85.9578
 -85.9514
 -85.9514
 -85.9518
 -85.9513
 -85.9395
 -85.9396
 -85.9391
 -85.9398
 -85.942
 -85.9419
 -85.9417
 -85.9416
 -85.9419
 -85.9422
 -85.9516
 -85.9525
 -85.9522
 -85.9519
 -85.9507
 -85.9506
 -85.9501
 -85.9508
 -85.9522
 -85.9521
 -85.9517
 -85.9522
 -85.9595
 -85.9595
 -85.959
 -85.9597
 -85.9534
 -85.9534
 -85.9529
 -85.9445
 -85.9483
 -85.9481
 -85.9483
 -85.9479
 -85.9487
 -85.948
 -85.9482
 -85.9486
 -85.9559
 -85.9557
 -85.9557
 -85.9554
 -85.9534
 -85.9531
 -85.9532
 -85.9536
 -85.9504
 -85.95
 -85.9499
 -85.9432
 -85.9427
 -85.9433
 -85.9425
 -85.9481
 -85.949
 -85.9485
 -85.9485
 -85.9442
 -85.9446
 -85.944
 -85.9269
 -85.9269
 -85.9265
 -85.9272
 -85.956
 -85.9567
 -85.9564
 -85.9559
 -85.9552
 -85.956
 -85.9556
 -85.9277
 -85.9489
 -85.949
 -85.9489
 -85.9495
 -85.9503
 -85.9504
 -85.9358
 -85.9359
 -85.9358
 -85.936
 -85.938
 -85.9382
 -85.9388
 -85.938
 -85.9409
 -85.9412
 -85.9411
 -85.9412
 -85.9407
 -85.941
 -85.9412
 -85.9407
 -85.9406
 -85.941
 -85.9443
 -85.9438
 -85.9436
 -85.9437
 -85.945
 -85.9455
 -85.9609
 -85.9608
 -85.9391
 -85.94
 -85.9391
 -85.9396
 -85.9463
 -85.9461
 -85.9465
 -85.9458
 -85.937
 -85.9372
 -85.9363
 -85.9365
 -85.9566
 -85.9568
 -85.9562
 -85.9565
 -85.9549
 -85.9546
 -85.9549
 -85.9545
 -85.9513
 -85.9517
 -85.9518
 -85.9515
 -85.9492
 -85.9493
 -85.9501
 -85.9498
 -85.9476
 -85.9474
 -85.9392
 -85.9529
 -85.9534
 -85.9534
 -85.9534
 -85.9589
 -85.9588
 -85.9593
 -85.9588
 -85.9555
 -85.956
 -85.9553
 -85.9556
 -85.9223
 -85.9223
 -85.9224
 -85.9226
 -85.9591
 -85.9593
 -85.9591
 -85.9591
 -85.9412
 -85.9412
 -85.9407
 -85.9414
 -85.9434
 -85.9427
 -85.943
 -85.9425
 -85.9524
 -85.9525
 -85.9528
 -85.9529
 -85.9527
 -85.9525
 -85.9523
 -85.9525
 -85.9396
 -85.9403
 -85.9399
 -85.9401
 -85.959
 -85.9591
 -85.9589
 -85.959
 -85.9567
 -85.957
 -85.9569
 -85.9571
 -85.9529
 -85.953
 -85.9533
 -85.9534
 -85.9569
 -85.9565
 -85.9568
 -85.9568
 -85.942
 -85.9426
 -85.9426
 -85.9427
 -85.9396
 -85.9397
 -85.9398
 -85.94
 -85.9562
 -85.9559
 -85.9558
 -85.9558
 -85.9456
 -85.9454
 -85.9454
 -85.9449
 -85.9462
 -85.946
 -85.9458
 -85.9462
 -85.9257
 -85.9261
 -85.9263
 -85.9262
 -85.9589
 -85.959
 -85.9573
 -85.9573
 -85.9571
 -85.9576
 -85.937
 -85.9366
 -85.9364
 -85.9371
 -85.9426
 -85.9419
 -85.9418
 -85.9416
 -85.9568
 -85.9565
 -85.9571
 -85.9572
 -85.945
 -85.9452
 -85.945
 -85.9456
 -85.9439
 -85.944
 -85.9434
 -85.9435
 -85.9594
 -85.9595
 -85.9593
 -85.9592
 -85.9488
 -85.9486
 -85.9487
 -85.949
 -85.9474
 -85.9476
 -85.9475
 -85.9471
 -85.9546
 -85.9547
 -85.9549
 -85.9546
 -85.9516
 -85.9514
 -85.9512
 -85.9509
 -85.9452
 -85.9451
 -85.9445
 -85.9427
 -85.9431
 -85.9429
 -85.9437
 -85.9349
 -85.9346
 -85.9346
 -85.9354
 -85.9433
 -85.9437
 -85.9438
 -85.9439
 -85.9482
 -85.9479
 -85.9482
 -85.9478
 -85.959
 -85.9592
 -85.9591
 -85.9587
 -85.9437
 -85.9446
 -85.9441
 -85.944
 -85.937
 -85.937
 -85.9365
 -85.9362
 -85.9526
 -85.9531
 -85.9528
 -85.9525
 -85.9506
 -85.9504
 -85.9501
 -85.9482
 -85.9489
 -85.949
 -85.9492
 -85.9341
 -85.934
 -85.9341
 -85.9345
 -85.9491
 -85.9487
 -85.9488
 -85.9485
 -85.9587
 -85.9587
 -85.9588
 -85.9587
 -85.9485
 -85.9485
 -85.9487
 -85.9488
 -85.9383
 -85.938
 -85.9382
 -85.9384
 -85.9403
 -85.9406
 -85.9402
 -85.9398
 -85.9609
 -85.9608
 -85.9609
 -85.9608
 -85.9419
 -85.942
 -85.942
 -85.9412
 -85.9504
 -85.9498
 -85.9499
 -85.9502
 -85.9608
 -85.9609
 -85.9607
 -85.9606
 -85.9576
 -85.9581
 -85.9577
 -85.9527
 -85.9527
 -85.9533
 -85.9534
 -85.9563
 -85.9564
 -85.9569
 -85.9561
 -85.9296
 -85.93
 -85.9304
 -85.9303
 -85.9401
 -85.9408
 -85.9398
 -85.9583
 -85.9587
 -85.9586
 -85.9587
 -85.9502
 -85.95
 -85.9505
 -85.9498
 -85.9543
 -85.9541
 -85.9547
 -85.9538
 -85.9377
 -85.9376
 -85.9372
 -85.937
 -85.9448
 -85.9456
 -85.9448
 -85.9453
 -85.9513
 -85.9505
 -85.9508
 -85.9364
 -85.9366
 -85.9368
 -85.9368
 -85.94
 -85.9389
 -85.9391
 -85.939
 -85.9441
 -85.9585
 -85.9587
 -85.9585
 -85.9588
 -85.9304
 -85.9304
 -85.9299
 -85.9299
 -85.9544
 -85.9552
 -85.9549
 -85.9553
 -85.9508
 -85.9505
 -85.9505
 -85.95
 -85.9271
 -85.9555
 -85.9552
 -85.9558
 -85.9584
 -85.9588
 -85.9585
 -85.9585
 -85.9466
 -85.9465
 -85.9474
 -85.9468
 -85.9521
 -85.9521
 -85.9524
 -85.9518
 -85.9411
 -85.9406
 -85.9476
 -85.9473
 -85.9472
 -85.9478
 -85.9409
 -85.9406
 -85.9403
 -85.9407
 -85.9428
 -85.9426
 -85.9434
 -85.9434
 -85.953
 -85.9526
 -85.953
 -85.9531
 -85.9323
 -85.9322
 -85.9321
 -85.9328
 -85.9397
 -85.9394
 -85.9396
 -85.9393
 -85.9335
 -85.9339
 -85.9379
 -85.938
 -85.9381
 -85.938
 -85.9371
 -85.9368
 -85.9373
 -85.9368
 -85.9593
 -85.959
 -85.9588
 -85.9587
 -85.9498
 -85.9497
 -85.9495
 -85.9503
 -85.9446
 -85.9454
 -85.945
 -85.945
 -85.9482
 -85.9479
 -85.9478
 -85.9483
 -85.9588
 -85.9587
 -85.9362
 -85.936
 -85.936
 -85.9363
 -85.9587
 -85.9589
 -85.9585
 -85.9312
 -85.9311
 -85.9312
 -85.9309
 -85.9579
 -85.9573
 -85.9577
 -85.9575
 -85.9432
 -85.9428
 -85.9433
 -85.9427
 -85.9462
 -85.9462
 -85.946
 -85.9584
 -85.9582
 -85.9583
 -85.9585
 -85.9496
 -85.9491
 -85.9496
 -85.9493
 -85.9463
 -85.9466
 -85.947
 -85.9465
 -85.9433
 -85.943
 -85.9448
 -85.9437
 -85.9445
 -85.9442
 -85.9507
 -85.9501
 -85.9504
 -85.9592
 -85.9588
 -85.9587
 -85.9592
 -85.946
 -85.9463
 -85.9459
 -85.9461
 -85.9449
 -85.9445
 -85.9424
 -85.9418
 -85.9417
 -85.9422
 -85.9325
 -85.9326
 -85.9332
 -85.9497
 -85.9499
 -85.9492
 -85.9492
 -85.959
 -85.9591
 -85.9591
 -85.9334
 -85.9332
 -85.9335
 -85.9457
 -85.9453
 -85.9455
 -85.945
 -85.9519
 -85.952
 -85.9514
 -85.9516
 -85.9298
 -85.9295
 -85.9296
 -85.9298
 -85.9566
 -85.9567
 -85.9564
 -85.9563
 -85.9523
 -85.952
 -85.952
 -85.9518
 -85.9553
 -85.9555
 -85.9552
 -85.9582
 -85.9583
 -85.9588
 -85.9585
 -85.948
 -85.9473
 -85.9479
 -85.948
 -85.9583
 -85.9581
 -85.9581
 -85.958
 -85.9433
 -85.9432
 -85.9436
 -85.943
 -85.9591
 -85.9513
 -85.9473
 -85.9471
 -85.9476
 -85.947
 -85.9506
 -85.9504
 -85.9501
 -85.95
 -85.9536
 -85.9537
 -85.9534
 -85.9531
 -85.951
 -85.9508
 -85.9513
 -85.9511
 -85.9541
 -85.9538
 -85.9542
 -85.9541
 -85.9473
 -85.947
 -85.9471
 -85.9476
 -85.9464
 -85.9464
 -85.9466
 -85.9468
 -85.9448
 -85.9446
 -85.9445
 -85.9451
 -85.9466
 -85.9466
 -85.9461
 -85.939
 -85.9391
 -85.939
 -85.9393
 -85.9479
 -85.9517
 -85.9523
 -85.9524
 -85.9522
 -85.9587
 -85.9587
 -85.9582
 -85.9424
 -85.9416
 -85.9419
 -85.9416
 -85.9486
 -85.9492
 -85.949
 -85.9508
 -85.9506
 -85.9504
 -85.9502
 -85.952
 -85.9523
 -85.9527
 -85.9529
 -85.9572
 -85.9574
 -85.9577
 -85.9574
 -85.9408
 -85.9407
 -85.941
 -85.9403
 -85.9486
 -85.9482
 -85.9482
 -85.9479
 -85.9468
 -85.9465
 -85.9462
 -85.9468
 -85.9463
 -85.946
 -85.9459
 -85.9455
 -85.9476
 -85.9474
 -85.9477
 -85.9471
 -85.9534
 -85.9527
 -85.9536
 -85.953
 -85.9462
 -85.9455
 -85.9458
 -85.9459
 -85.9361
 -85.9361
 -85.9361
 -85.9363
 -85.9345
 -85.9348
 -85.9346
 -85.9475
 -85.9476
 -85.948
 -85.9481
 -85.9477
 -85.9478
 -85.9481
 -85.9483
 -85.9465
 -85.946
 -85.9469
 -85.9468
 -85.9581
 -85.9581
 -85.9576
 -85.9576
 -85.9538
 -85.9534
 -85.9532
 -85.9537
 -85.942
 -85.9424
 -85.9423
 -85.9424
 -85.9382
 -85.9389
 -85.9388
 -85.9379
 -85.9569
 -85.9567
 -85.9565
 -85.9569
 -85.9309
 -85.9304
 -85.9305
 -85.9312
 -85.9437
 -85.9443
 -85.944
 -85.9439
 -85.9375
 -85.9378
 -85.9378
 -85.9403
 -85.9406
 -85.9407
 -85.9411
 -85.9529
 -85.9528
 -85.9532
 -85.9523
 -85.9402
 -85.9396
 -85.9397
 -85.94
 -85.9346
 -85.9358
 -85.935
 -85.9297
 -85.9303
 -85.9306
 -85.9302
 -85.9598
 -85.9599
 -85.96
 -85.9603
 -85.9415
 -85.9411
 -85.9414
 -85.9416
 -85.9499
 -85.9492
 -85.9493
 -85.9497
 -85.9576
 -85.9575
 -85.9571
 -85.9574
 -85.9553
 -85.9557
 -85.9551
 -85.9553
 -85.9419
 -85.9421
 -85.9417
 -85.9419
 -85.9364
 -85.9358
 -85.9352
 -85.9359
 -85.9492
 -85.9495
 -85.949
 -85.9493
 -85.937
 -85.9376
 -85.9451
 -85.9441
 -85.9443
 -85.9448
 -85.9456
 -85.9455
 -85.9452
 -85.9457
 -85.9448
 -85.9448
 -85.9446
 -85.9387
 -85.9389
 -85.9387
 -85.9501
 -85.9501
 -85.9503
 -85.9505
 -85.9495
 -85.9494
 -85.9491
 -85.9499
 -85.9419
 -85.9424
 -85.9421
 -85.9419
 -85.9539
 -85.9544
 -85.9538
 -85.9539
 -85.9472
 -85.9465
 -85.9469
 -85.9473
 -85.9386
 -85.9386
 -85.9385
 -85.9386
 -85.9441
 -85.9446
 -85.9442
 -85.95
 -85.9499
 -85.9495
 -85.9499
 -85.948
 -85.9484
 -85.9486
 -85.9596
 -85.9596
 -85.9595
 -85.9594
 -85.9337
 -85.9334
 -85.9338
 -85.9329
 -85.9435
 -85.944
 -85.9439
 -85.9436
 -85.9428
 -85.9426
 -85.9422
 -85.9428
 -85.9598
 -85.9598
 -85.9602
 -85.9604
 -85.9548
 -85.9551
 -85.955
 -85.9405
 -85.9405
 -85.9402
 -85.9405
 -85.9546
 -85.9541
 -85.9543
 -85.9415
 -85.9416
 -85.9412
 -85.9413
 -85.9247
 -85.925
 -85.9248
 -85.9251
 -85.958
 -85.958
 -85.9583
 -85.9578
 -85.9388
 -85.9386
 -85.9384
 -85.938
 -85.9594
 -85.9592
 -85.9592
 -85.9592
 -85.94
 -85.9406
 -85.9401
 -85.9404
 -85.9251
 -85.9244
 -85.9249
 -85.925
 -85.9355
 -85.935
 -85.9354
 -85.9356
 -85.939
 -85.9393
 -85.9396
 -85.9389
 -85.9469
 -85.9462
 -85.9382
 -85.9383
 -85.9373
 -85.9374
 -85.9505
 -85.9501
 -85.95
 -85.9497
 -85.9464
 -85.9464
 -85.9462
 -85.9469
 -85.9575
 -85.9571
 -85.9578
 -85.9579
 -85.9566
 -85.9564
 -85.9567
 -85.9568
 -85.9555
 -85.9551
 -85.9554
 -85.9551
 -85.9572
 -85.9573
 -85.9574
 -85.9571
 -85.9519
 -85.9519
 -85.9523
 -85.9519
 -85.9558
 -85.9562
 -85.9561
 -85.956
 -85.9343
 -85.9335
 -85.9334
 -85.9343
 -85.9568
 -85.957
 -85.9571
 -85.9569
 -85.9448
 -85.9443
 -85.944
 -85.9443
 -85.9545
 -85.9537
 -85.9538
 -85.9566
 -85.957
 -85.9571
 -85.9569
 -85.9388
 -85.9383
 -85.9382
 -85.9385
 -85.9357
 -85.9355
 -85.9353
 -85.9354
 -85.9529
 -85.9528
 -85.9525
 -85.9533
 -85.9452
 -85.9452
 -85.945
 -85.9447
 -85.9522
 -85.9519
 -85.9522
 -85.952
 -85.952
 -85.952
 -85.9528
 -85.9441
 -85.9439
 -85.9435
 -85.9516
 -85.9519
 -85.9488
 -85.9481
 -85.9592
 -85.9593
 -85.9594
 -85.9591
 -85.948
 -85.9482
 -85.9478
 -85.9485
 -85.9515
 -85.9514
 -85.9521
 -85.9514
 -85.95
 -85.9502
 -85.95
 -85.9504
 -85.9558
 -85.9547
 -85.9549
 -85.9545
 -85.9545
 -85.9457
 -85.9459
 -85.9453
 -85.9453
 -85.9377
 -85.9377
 -85.9377
 -85.9377
 -85.9516
 -85.9512
 -85.9517
 -85.9514
 -85.9523
 -85.952
 -85.9518
 -85.9524
 -85.9266
 -85.927
 -85.9272
 -85.9275
 -85.9474
 -85.9479
 -85.9476
 -85.9473
 -85.9468
 -85.9463
 -85.9461
 -85.9465
 -85.9514
 -85.9511
 -85.9394
 -85.9395
 -85.9397
 -85.9394
 -85.9431
 -85.9435
 -85.9433
 -85.943
 -85.9401
 -85.9399
 -85.9397
 -85.9398
 -85.9423
 -85.9426
 -85.9426
 -85.9422
 -85.9397
 -85.9397
 -85.9395
 -85.9398
 -85.955
 -85.9548
 -85.9549
 -85.9552
 -85.9567
 -85.9566
 -85.9562
 -85.9565
 -85.9416
 -85.9414
 -85.9411
 -85.9416
 -85.9474
 -85.9469
 -85.9474
 -85.9471
 -85.9556
 -85.9551
 -85.9555
 -85.9553
 -85.9455
 -85.9451
 -85.9452
 -85.9459
 -85.9415
 -85.942
 -85.9366
 -85.9369
 -85.937
 -85.9365
 -85.9465
 -85.9463
 -85.946
 -85.9457
 -85.9557
 -85.9555
 -85.9555
 -85.9561
 -85.9588
 -85.9585
 -85.9586
 -85.9589
 -85.928
 -85.9279
 -85.9446
 -85.9452
 -85.9453
 -85.9456
 -85.9439
 -85.9431
 -85.9436
 -85.9436
 -85.9434
 -85.9433
 -85.9403
 -85.9406
 -85.9406
 -85.9407
 -85.9465
 -85.947
 -85.9472
 -85.9343
 -85.9346
 -85.9347
 -85.935
 -85.9569
 -85.9572
 -85.9566
 -85.9569
 -85.9587
 -85.9588
 -85.9587
 -85.9598
 -85.9597
 -85.9593
 -85.9595
 -85.9495
 -85.9503
 -85.9501
 -85.9501
 -85.9473
 -85.9481
 -85.9472
 -85.9478
 -85.9541
 -85.9548
 -85.9549
 -85.9546
 -85.9511
 -85.951
 -85.9515
 -85.9511
 -85.9504
 -85.9509
 -85.9506
 -85.9484
 -85.9485
 -85.9482
 -85.9489
 -85.9531
 -85.954
 -85.9537
 -85.9532
 -85.9455
 -85.9452
 -85.9455
 -85.9456
 -85.9478
 -85.9476
 -85.9482
 -85.9475
 -85.952
 -85.9518
 -85.9516
 -85.952
 -85.9475
 -85.9472
 -85.947
 -85.9476
 -85.9253
 -85.9251
 -85.9258
 -85.9257
 -85.9409
 -85.9407
 -85.9406
 -85.9403
 -85.9531
 -85.953
 -85.9537
 -85.9537
 -85.94
 -85.9401
 -85.9393
 -85.9392
 -85.9386
 -85.9379
 -85.9386
 -85.9391
 -85.9559
 -85.9558
 -85.956
 -85.9555
 -85.9552
 -85.9547
 -85.9552
 -85.955
 -85.9571
 -85.9567
 -85.957
 -85.9572
 -85.9536
 -85.9536
 -85.9541
 -85.9539
 -85.9446
 -85.9445
 -85.9441
 -85.9445
 -85.9409
 -85.9407
 -85.9411
 -85.9407
 -85.9522
 -85.9514
 -85.9523
 -85.9516
 -85.9411
 -85.9412
 -85.9413
 -85.9413
 -85.937
 -85.9371
 -85.9373
 -85.9375
 -85.947
 -85.9474
 -85.9471
 -85.9474
 -85.9436
 -85.9432
 -85.9428
 -85.944
 -85.9442
 -85.9449
 -85.9444
 -85.9371
 -85.9368
 -85.9363
 -85.9367
 -85.9415
 -85.9414
 -85.9413
 -85.9413
 -85.9528
 -85.9531
 -85.9528
 -85.953
 -85.948
 -85.9485
 -85.9486
 -85.9601
 -85.9598
 -85.9598
 -85.96
 -85.9579
 -85.9582
 -85.9584
 -85.9581
 -85.9433
 -85.9437
 -85.943
 -85.9437
 -85.9489
 -85.9493
 -85.9377
 -85.9376
 -85.937
 -85.9379
 -85.948
 -85.9476
 -85.9473
 -85.9478
 -85.9569
 -85.957
 -85.9566
 -85.957
 -85.941
 -85.9411
 -85.9413
 -85.945
 -85.9451
 -85.9453
 -85.9445
 -85.9435
 -85.9442
 -85.9442
 -85.9441
 -85.9471
 -85.9476
 -85.9477
 -85.947
 -85.946
 -85.9464
 -85.9467
 -85.9463
 -85.9478
 -85.9481
 -85.9477
 -85.9483
 -85.9456
 -85.946
 -85.9547
 -85.9544
 -85.955
 -85.9546
 -85.9459
 -85.9454
 -85.9456
 -85.9459
 -85.9504
 -85.9497
 -85.95
 -85.9458
 -85.9463
 -85.9459
 -85.9462
 -85.9506
 -85.9503
 -85.95
 -85.9504
 -85.9402
 -85.9397
 -85.94
 -85.9394
 -85.9458
 -85.9457
 -85.9463
 -85.9492
 -85.9493
 -85.95
 -85.949
 -85.9467
 -85.9466
 -85.947
 -85.94
 -85.9401
 -85.9397
 -85.951
 -85.9509
 -85.9508
 -85.9503
 -85.947
 -85.9474
 -85.9475
 -85.9285
 -85.9287
 -85.9289
 -85.928
 -85.9512
 -85.9508
 -85.9505
 -85.9512
 -85.944
 -85.9434
 -85.9435
 -85.9433
 -85.9555
 -85.9554
 -85.9556
 -85.9558
 -85.9565
 -85.9561
 -85.9567
 -85.9566
 -85.9384
 -85.9392
 -85.9383
 -85.9384
 -85.949
 -85.9486
 -85.9483
 -85.9422
 -85.9417
 -85.9421
 -85.942
 -85.9562
 -85.9556
 -85.956
 -85.9478
 -85.9483
 -85.948
 -85.9484
 -85.9526
 -85.9528
 -85.9527
 -85.9526
 -85.9577
 -85.9578
 -85.9579
 -85.9576
 -85.9231
 -85.9227
 -85.9228
 -85.9231
 -85.9422
 -85.9423
 -85.9426
 -85.9421
 -85.9486
 -85.9495
 -85.9492
 -85.9494
 -85.9361
 -85.9357
 -85.9354
 -85.947
 -85.9474
 -85.9474
 -85.9469
 -85.9582
 -85.9517
 -85.9512
 -85.9507
 -85.9513
 -85.956
 -85.956
 -85.956
 -85.9562
 -85.9542
 -85.954
 -85.9539
 -85.9543
 -85.949
 -85.9488
 -85.9479
 -85.9473
 -85.9474
 -85.9473
 -85.9293
 -85.9299
 -85.9293
 -85.9296
 -85.9431
 -85.9429
 -85.9427
 -85.9423
 -85.9423
 -85.9427
 -85.9424
 -85.9585
 -85.959
 -85.9585
 -85.9584
 -85.9471
 -85.9471
 -85.9476
 -85.9476
 -85.9488
 -85.9485
 -85.9481
 -85.9485
 -85.9565
 -85.9561
 -85.9567
 -85.9562
 -85.9476
 -85.9474
 -85.948
 -85.9476
 -85.9337
 -85.9339
 -85.9333
 -85.9335
 -85.9465
 -85.9464
 -85.9467
 -85.9465
 -85.9419
 -85.942
 -85.9421
 -85.9424
 -85.9408
 -85.9404
 -85.9405
 -85.9407
 -85.9377
 -85.9379
 -85.9376
 -85.9377
 -85.9326
 -85.9324
 -85.9323
 -85.933
 -85.9596
 -85.9593
 -85.9594
 -85.9594
 -85.9306
 -85.9308
 -85.9302
 -85.9311
 -85.9472
 -85.9468
 -85.9472
 -85.9467
 -85.9593
 -85.9593
 -85.959
 -85.9591
 -85.9446
 -85.9445
 -85.9448
 -85.9449
 -85.9376
 -85.9574
 -85.9571
 -85.9572
 -85.9577
 -85.9398
 -85.9334
 -85.9342
 -85.9342
 -85.9335
 -85.9497
 -85.9504
 -85.9543
 -85.9537
 -85.9545
 -85.9539
 -85.9557
 -85.9557
 -85.956
 -85.9559
 -85.96
 -85.9597
 -85.9601
 -85.9546
 -85.9552
 -85.955
 -85.955
 -85.9447
 -85.9588
 -85.9522
 -85.9521
 -85.9519
 -85.9588
 -85.9589
 -85.959
 -85.9588
 -85.945
 -85.9449
 -85.945
 -85.9445
 -85.9418
 -85.9419
 -85.9415
 -85.9413
 -85.9517
 -85.9514
 -85.9515
 -85.9523
 -85.9583
 -85.9585
 -85.9581
 -85.958
 -85.957
 -85.9569
 -85.957
 -85.9568
 -85.9502
 -85.951
 -85.951
 -85.9321
 -85.9316
 -85.9329
 -85.932
 -85.9237
 -85.9244
 -85.924
 -85.9243
 -85.9362
 -85.9355
 -85.9353
 -85.9358
 -85.9483
 -85.9487
 -85.9482
 -85.9341
 -85.9346
 -85.9344
 -85.9341
 -85.9548
 -85.9547
 -85.9552
 -85.9552
 -85.9554
 -85.9551
 -85.9553
 -85.9399
 -85.9397
 -85.9526
 -85.9529
 -85.961
 -85.9607
 -85.9608
 -85.9596
 -85.9598
 -85.9597
 -85.9599
 -85.9456
 -85.9452
 -85.946
 -85.9456
 -85.9429
 -85.9428
 -85.9425
 -85.9432
 -85.9467
 -85.9466
 -85.9472
 -85.947
 -85.9591
 -85.9591
 -85.9591
 -85.959
 -85.9527
 -85.953
 -85.9528
 -85.9525
 -85.9376
 -85.9375
 -85.9375
 -85.9379
 -85.9527
 -85.9529
 -85.9526
 -85.953
 -85.9492
 -85.9493
 -85.9488
 -85.9494
 -85.9519
 -85.9522
 -85.9522
 -85.922
 -85.9221
 -85.9222
 -85.9426
 -85.9422
 -85.945
 -85.945
 -85.9446
 -85.9454
 -85.9542
 -85.9547
 -85.9543
 -85.9542
 -85.9528
 -85.9529
 -85.9535
 -85.9532
 -85.9532
 -85.9529
 -85.9537
 -85.9293
 -85.9293
 -85.9373
 -85.9372
 -85.9376
 -85.9374
 -85.9492
 -85.929
 -85.9284
 -85.9286
 -85.9287
 -85.9417
 -85.9424
 -85.942
 -85.9419
 -85.9458
 -85.9456
 -85.9329
 -85.9339
 -85.9339
 -85.9333
 -85.9596
 -85.9599
 -85.9598
 -85.9596
 -85.9581
 -85.9582
 -85.9581
 -85.9585
 -85.9393
 -85.9403
 -85.9395
 -85.94
 -85.9425
 -85.9422
 -85.9432
 -85.943
 -85.9428
 -85.9425
 -85.9428
 -85.9536
 -85.9539
 -85.9532
 -85.9536
 -85.9375
 -85.938
 -85.9382
 -85.9382
 -85.9468
 -85.9469
 -85.9467
 -85.9511
 -85.9513
 -85.9515
 -85.9519
 -85.9425
 -85.9426
 -85.9429
 -85.9427
 -85.9405
 -85.941
 -85.9413
 -85.9408
 -85.9409
 -85.9406
 -85.9407
 -85.9411
 -85.9444
 -85.9446
 -85.9451
 -85.9446
 -85.951
 -85.9507
 -85.9419
 -85.942
 -85.9421
 -85.9417
 -85.9598
 -85.9592
 -85.9594
 -85.9594
 -85.9402
 -85.9405
 -85.9402
 -85.9405
 -85.9353
 -85.9351
 -85.9357
 -85.9355
 -85.9494
 -85.9494
 -85.9315
 -85.9315
 -85.931
 -85.9316
 -85.9435
 -85.9438
 -85.9432
 -85.9584
 -85.9584
 -85.9586
 -85.9586
 -85.9321
 -85.9319
 -85.932
 -85.9406
 -85.9406
 -85.941
 -85.9408
 -85.9329
 -85.9401
 -85.9399
 -85.9399
 -85.9395
 -85.9476
 -85.9472
 -85.9477
 -85.9475
 -85.945
 -85.9452
 -85.9454
 -85.945
 -85.9588
 -85.9592
 -85.9484
 -85.9487
 -85.9485
 -85.9484
 -85.9395
 -85.9388
 -85.9397
 -85.9388
 -85.943
 -85.944
 -85.9434
 -85.9431
 -85.9572
 -85.957
 -85.957
 -85.957
 -85.9453
 -85.9456
 -85.9461
 -85.9459
 -85.9494
 -85.9556
 -85.9558
 -85.9554
 -85.943
 -85.9432
 -85.9426
 -85.9433
 -85.9526
 -85.9524
 -85.9526
 -85.9522
 -85.9438
 -85.9433
 -85.9435
 -85.944
 -85.9587
 -85.9584
 -85.9582
 -85.9585
 -85.9607
 -85.9608
 -85.9605
 -85.9408
 -85.941
 -85.9415
 -85.9412
 -85.9506
 -85.9508
 -85.9502
 -85.9504
 -85.9521
 -85.9523
 -85.9526
 -85.9527
 -85.9421
 -85.9423
 -85.9402
 -85.9399
 -85.9398
 -85.9404
 -85.9443
 -85.9452
 -85.9496
 -85.9499
 -85.9496
 -85.9494
 -85.9508
 -85.951
 -85.9514
 -85.9507
 -85.9445
 -85.9449
 -85.9453
 -85.945
 -85.9491
 -85.9491
 -85.9492
 -85.9564
 -85.9559
 -85.9558
 -85.956
 -85.9542
 -85.954
 -85.9543
 -85.9447
 -85.9454
 -85.9445
 -85.9451
 -85.9409
 -85.9402
 -85.9399
 -85.9406
 -85.9524
 -85.9518
 -85.9518
 -85.9521
 -85.9454
 -85.9452
 -85.9446
 -85.9383
 -85.9382
 -85.9383
 -85.9382
 -85.9425
 -85.9424
 -85.9426
 -85.9428
 -85.955
 -85.9547
 -85.9545
 -85.9599
 -85.9596
 -85.9596
 -85.9518
 -85.9521
 -85.9521
 -85.9424
 -85.9419
 -85.9426
 -85.9422
 -85.9598
 -85.9598
 -85.9598
 -85.96
 -85.9513
 -85.9509
 -85.9512
 -85.9516
 -85.9555
 -85.9557
 -85.9562
 -85.9562
 -85.955
 -85.9553
 -85.9551
 -85.9551
 -85.9348
 -85.9343
 -85.9344
 -85.9443
 -85.9444
 -85.9441
 -85.9445
 -85.9556
 -85.9558
 -85.9554
 -85.9554
 -85.9461
 -85.9464
 -85.9464
 -85.9469
 -85.9528
 -85.9529
 -85.9527
 -85.9523
 -85.9574
 -85.9577
 -85.9375
 -85.9378
 -85.9378
 -85.938
 -85.9539
 -85.9535
 -85.9542
 -85.9537
 -85.9446
 -85.9444
 -85.9442
 -85.9448
 -85.9521
 -85.9514
 -85.9592
 -85.9592
 -85.9589
 -85.9593
 -85.9554
 -85.956
 -85.9552
 -85.9562
 -85.96
 -85.96
 -85.9603
 -85.9604
 -85.9536
 -85.9536
 -85.9539
 -85.952
 -85.9527
 -85.9526
 -85.9524
 -85.9525
 -85.9521
 -85.9523
 -85.9518
 -85.9416
 -85.9417
 -85.9413
 -85.9412
 -85.9337
 -85.9335
 -85.9342
 -85.9472
 -85.9472
 -85.9473
 -85.9563
 -85.9559
 -85.9562
 -85.9558
 -85.9448
 -85.9451
 -85.9456
 -85.9451
 -85.9397
 -85.939
 -85.9393
 -85.9398
 -85.9476
 -85.9471
 -85.9468
 -85.9468
 -85.9435
 -85.9443
 -85.9436
 -85.9594
 -85.9595
 -85.9591
 -85.959
 -85.938
 -85.9381
 -85.9396
 -85.9399
 -85.9399
 -85.9531
 -85.9532
 -85.9528
 -85.9536
 -85.9469
 -85.9476
 -85.9475
 -85.9474
 -85.939
 -85.9391
 -85.9395
 -85.9391
 -85.9488
 -85.9479
 -85.948
 -85.9485
 -85.9433
 -85.9429
 -85.9436
 -85.9436
 -85.957
 -85.9572
 -85.9578
 -85.9426
 -85.9425
 -85.9429
 -85.9429
 -85.9487
 -85.9491
 -85.9386
 -85.9392
 -85.9391
 -85.9387
 -85.9394
 -85.939
 -85.9392
 -85.939
 -85.9574
 -85.9572
 -85.9404
 -85.9408
 -85.9406
 -85.9401
 -85.9478
 -85.9473
 -85.9475
 -85.9478
 -85.944
 -85.9351
 -85.9345
 -85.9347
 -85.9494
 -85.9493
 -85.9494
 -85.949
 -85.9578
 -85.9579
 -85.9577
 -85.9581
 -85.9349
 -85.9352
 -85.9352
 -85.9347
 -85.9399
 -85.9402
 -85.9398
 -85.9399
 -85.9517
 -85.9519
 -85.9519
 -85.9357
 -85.9356
 -85.936
 -85.9361
 -85.9599
 -85.9596
 -85.9597
 -85.9599
 -85.9374
 -85.9377
 -85.9379
 -85.9372
 -85.9513
 -85.9508
 -85.9511
 -85.9516
 -85.9443
 -85.9447
 -85.9445
 -85.9442
 -85.939
 -85.9392
 -85.939
 -85.9434
 -85.944
 -85.9434
 -85.9439
 -85.9391
 -85.9387
 -85.9389
 -85.939
 -85.94
 -85.9396
 -85.9398
 -85.9542
 -85.9538
 -85.9543
 -85.9535
 -85.9531
 -85.9466
 -85.9476
 -85.9469
 -85.9469
 -85.9585
 -85.9582
 -85.9581
 -85.9582
 -85.9496
 -85.9502
 -85.9493
 -85.95
 -85.951
 -85.9514
 -85.951
 -85.9509
 -85.9398
 -85.9396
 -85.9401
 -85.9404
 -85.9401
 -85.951
 -85.9505
 -85.9508
 -85.9512
 -85.9582
 -85.9587
 -85.9482
 -85.9484
 -85.9478
 -85.9484
 -85.939
 -85.9389
 -85.9392
 -85.9569
 -85.9572
 -85.9568
 -85.9569
 -85.9484
 -85.9477
 -85.9479
 -85.9481
 -85.9396
 -85.9394
 -85.9396
 -85.9398
 -85.9468
 -85.9467
 -85.9475
 -85.947
 -85.9508
 -85.9516
 -85.9367
 -85.9365
 -85.9366
 -85.9364
 -85.9399
 -85.9408
 -85.9411
 -85.9409
 -85.9413
 -85.9411
 -85.9409
 -85.9403
 -85.9404
 -85.9408
 -85.948
 -85.9479
 -85.9478
 -85.9501
 -85.9499
 -85.9496
 -85.9494
 -85.9414
 -85.9414
 -85.9415
 -85.9414
 -85.9447
 -85.9445
 -85.9489
 -85.9486
 -85.9488
 -85.9485
 -85.949
 -85.949
 -85.9468
 -85.9473
 -85.9475
 -85.9469
 -85.9311
 -85.9319
 -85.9317
 -85.932
 -85.9488
 -85.9391
 -85.9396
 -85.9393
 -85.9392
 -85.9594
 -85.9596
 -85.9593
 -85.9532
 -85.9531
 -85.9528
 -85.9533
 -85.9466
 -85.9468
 -85.9466
 -85.9458
 -85.9483
 -85.9487
 -85.9481
 -85.9406
 -85.941
 -85.9408
 -85.9405
 -85.9571
 -85.9575
 -85.9568
 -85.9573
 -85.9514
 -85.9512
 -85.9517
 -85.9515
 -85.9572
 -85.9573
 -85.9567
 -85.9571
 -85.9374
 -85.9374
 -85.937
 -85.9371
 -85.9414
 -85.9418
 -85.9541
 -85.9539
 -85.9537
 -85.954
 -85.9581
 -85.958
 -85.9581
 -85.9579
 -85.9606
 -85.9607
 -85.9605
 -85.9608
 -85.9576
 -85.9573
 -85.9576
 -85.951
 -85.9515
 -85.9509
 -85.9513
 -85.9579
 -85.9581
 -85.9581
 -85.9581
 -85.9377
 -85.9381
 -85.9385
 -85.9381
 -85.9558
 -85.9561
 -85.9561
 -85.9512
 -85.9511
 -85.9509
 -85.9509
 -85.939
 -85.9388
 -85.9391
 -85.9387
 -85.9518
 -85.9523
 -85.952
 -85.952
 -85.9497
 -85.95
 -85.9503
 -85.9497
 -85.9417
 -85.9419
 -85.9423
 -85.9426
 -85.9372
 -85.9372
 -85.9367
 -85.9367
 -85.9452
 -85.9454
 -85.9458
 -85.9453
 -85.9298
 -85.9299
 -85.9308
 -85.9302
 -85.9396
 -85.9399
 -85.9395
 -85.9407
 -85.9402
 -85.9402
 -85.9401
 -85.9274
 -85.9275
 -85.9269
 -85.9277
 -85.9569
 -85.9566
 -85.9567
 -85.955
 -85.9551
 -85.9555
 -85.9554
 -85.941
 -85.9419
 -85.9416
 -85.934
 -85.9341
 -85.9339
 -85.9369
 -85.9365
 -85.937
 -85.937
 -85.9417
 -85.9416
 -85.942
 -85.9412
 -85.9513
 -85.9521
 -85.9517
 -85.9516
 -85.9313
 -85.9312
 -85.9316
 -85.9309
 -85.9502
 -85.9494
 -85.9494
 -85.9501
 -85.9549
 -85.9551
 -85.9546
 -85.9549
 -85.9491
 -85.9491
 -85.9499
 -85.9495
 -85.9457
 -85.9453
 -85.9461
 -85.9394
 -85.9394
 -85.9394
 -85.9397
 -85.9574
 -85.9577
 -85.9578
 -85.9576
 -85.9557
 -85.9561
 -85.9557
 -85.9555
 -85.9416
 -85.942
 -85.9417
 -85.9413
 -85.9582
 -85.9584
 -85.9586
 -85.9582
 -85.9587
 -85.9584
 -85.9583
 -85.9585
 -85.9586
 -85.9582
 -85.9584
 -85.9328
 -85.9327
 -85.9276
 -85.9277
 -85.9274
 -85.9281
 -85.9504
 -85.9502
 -85.9499
 -85.9466
 -85.9463
 -85.947
 -85.9463
 -85.9478
 -85.9484
 -85.9482
 -85.9478
 -85.9225
 -85.945
 -85.95
 -85.9505
 -85.9557
 -85.956
 -85.9558
 -85.9558
 -85.9339
 -85.9435
 -85.944
 -85.9435
 -85.9609
 -85.9608
 -85.9608
 -85.9608
 -85.948
 -85.9476
 -85.948
 -85.9484
 -85.9586
 -85.9583
 -85.9586
 -85.9582
 -85.9456
 -85.9462
 -85.9452
 -85.9441
 -85.9448
 -85.9444
 -85.9572
 -85.9572
 -85.9568
 -85.9573
 -85.9503
 -85.95
 -85.9496
 -85.9494
 -85.9379
 -85.9375
 -85.9382
 -85.9381
 -85.9552
 -85.956
 -85.9557
 -85.9587
 -85.9591
 -85.9592
 -85.9587
 -85.9554
 -85.9553
 -85.955
 -85.9553
 -85.9412
 -85.9411
 -85.9421
 -85.9411
 -85.9424
 -85.9421
 -85.9422
 -85.9422
 -85.9572
 -85.9575
 -85.9574
 -85.9574
 -85.9448
 -85.9449
 -85.9444
 -85.9544
 -85.9544
 -85.9543
 -85.954
 -85.9388
 -85.9392
 -85.9385
 -85.9386
 -85.9508
 -85.951
 -85.9503
 -85.9506
 -85.9384
 -85.9388
 -85.9385
 -85.9385
 -85.9488
 -85.9491
 -85.9486
 -85.9489
 -85.9549
 -85.9549
 -85.9553
 -85.9545
 -85.9374
 -85.9373
 -85.9377
 -85.948
 -85.9485
 -85.9564
 -85.9562
 -85.9561
 -85.9559
 -85.9448
 -85.9444
 -85.9443
 -85.9379
 -85.9376
 -85.9374
 -85.9376
 -85.9522
 -85.9524
 -85.9522
 -85.9526
 -85.9508
 -85.9507
 -85.9515
 -85.951
 -85.9246
 -85.9245
 -85.9251
 -85.9248
 -85.9476
 -85.9469
 -85.9473
 -85.9295
 -85.93
 -85.9301
 -85.9478
 -85.9476
 -85.9473
 -85.9477
 -85.9471
 -85.9372
 -85.9374
 -85.9365
 -85.9369
 -85.9458
 -85.9464
 -85.9464
 -85.9558
 -85.9558
 -85.9558
 -85.9556
 -85.9462
 -85.9465
 -85.9468
 -85.9468
 -85.9471
 -85.947
 -85.9469
 -85.9606
 -85.9605
 -85.9604
 -85.9601
 -85.9402
 -85.9412
 -85.9409
 -85.9406
 -85.9364
 -85.9364
 -85.9367
 -85.9367
 -85.9439
 -85.9437
 -85.9445
 -85.9439
 -85.9567
 -85.9567
 -85.9569
 -85.9564
 -85.9242
 -85.9247
 -85.9242
 -85.925
 -85.9544
 -85.9539
 -85.9541
 -85.9542
 -85.9363
 -85.936
 -85.9363
 -85.9362
 -85.9557
 -85.9548
 -85.9551
 -85.9555
 -85.9539
 -85.9537
 -85.9534
 -85.9537
 -85.9546
 -85.9547
 -85.9413
 -85.941
 -85.9409
 -85.9412
 -85.9576
 -85.9575
 -85.9576
 -85.9536
 -85.9529
 -85.9532
 -85.9537
 -85.9407
 -85.9411
 -85.9408
 -85.9404
 -85.9434
 -85.9432
 -85.9438
 -85.9221
 -85.922
 -85.9219
 -85.922
 -85.9468
 -85.9462
 -85.947
 -85.9576
 -85.9579
 -85.9576
 -85.9574
 -85.9547
 -85.9544
 -85.9569
 -85.9574
 -85.9575
 -85.9571
 -85.9527
 -85.9527
 -85.9354
 -85.9355
 -85.9349
 -85.9359
 -85.9543
 -85.9543
 -85.9543
 -85.9538
 -85.9477
 -85.948
 -85.9433
 -85.9436
 -85.9435
 -85.9433
 -85.9554
 -85.9557
 -85.9558
 -85.9557
 -85.9417
 -85.9408
 -85.9409
 -85.9415
 -85.9573
 -85.9573
 -85.9576
 -85.9581
 -85.9495
 -85.9496
 -85.9491
 -85.9353
 -85.9351
 -85.935
 -85.9353
 -85.9512
 -85.9512
 -85.951
 -85.9507
 -85.9402
 -85.9397
 -85.9396
 -85.9393
 -85.9408
 -85.9401
 -85.9406
 -85.9237
 -85.9237
 -85.9237
 -85.924
 -85.9372
 -85.9378
 -85.938
 -85.9373
 -85.9546
 -85.9544
 -85.9548
 -85.9544
 -85.9471
 -85.9473
 -85.9467
 -85.944
 -85.9393
 -85.9396
 -85.9394
 -85.9397
 -85.9449
 -85.9444
 -85.9448
 -85.945
 -85.953
 -85.9537
 -85.9538
 -85.9531
 -85.9386
 -85.9386
 -85.9395
 -85.9342
 -85.9494
 -85.9495
 -85.949
 -85.9498
 -85.9395
 -85.9401
 -85.9285
 -85.9279
 -85.9392
 -85.9396
 -85.9392
 -85.9387
 -85.953
 -85.9533
 -85.9563
 -85.9563
 -85.9565
 -85.9562
 -85.9433
 -85.9438
 -85.9438
 -85.9438
 -85.959
 -85.9591
 -85.9593
 -85.9591
 -85.9428
 -85.9429
 -85.9419
 -85.9419
 -85.9542
 -85.9543
 -85.954
 -85.9535
 -85.9408
 -85.9408
 -85.9411
 -85.9411
 -85.9541
 -85.9543
 -85.9537
 -85.9541
 -85.945
 -85.9456
 -85.9579
 -85.9578
 -85.9524
 -85.9529
 -85.9523
 -85.9529
 -85.9521
 -85.9519
 -85.952
 -85.9526
 -85.9486
 -85.9484
 -85.9489
 -85.9488
 -85.9541
 -85.9536
 -85.9543
 -85.9545
 -85.9406
 -85.9401
 -85.9404
 -85.9403
 -85.9577
 -85.9577
 -85.9576
 -85.9581
 -85.9584
 -85.958
 -85.9582
 -85.9385
 -85.9391
 -85.9391
 -85.9389
 -85.9525
 -85.9519
 -85.952
 -85.9522
 -85.9378
 -85.9384
 -85.9384
 -85.9389
 -85.9482
 -85.9463
 -85.947
 -85.9471
 -85.9464
 -85.9555
 -85.9555
 -85.9555
 -85.9551
 -85.9303
 -85.9297
 -85.9301
 -85.9306
 -85.9522
 -85.9525
 -85.9528
 -85.9524
 -85.9475
 -85.948
 -85.9469
 -85.9473
 -85.9536
 -85.9532
 -85.9532
 -85.9531
 -85.9513
 -85.9605
 -85.9604
 -85.9601
 -85.9602
 -85.9545
 -85.9547
 -85.9541
 -85.9542
 -85.9282
 -85.9284
 -85.9288
 -85.9281
 -85.945
 -85.9445
 -85.9442
 -85.9447
 -85.9422
 -85.9479
 -85.948
 -85.9481
 -85.9485
 -85.9572
 -85.9573
 -85.9568
 -85.9566
 -85.9558
 -85.9557
 -85.9562
 -85.9571
 -85.9564
 -85.9567
 -85.9566
 -85.9245
 -85.9246
 -85.9541
 -85.9539
 -85.9538
 -85.9417
 -85.9416
 -85.9415
 -85.9421
 -85.9531
 -85.9529
 -85.9531
 -85.9527
 -85.9486
 -85.9523
 -85.9518
 -85.9523
 -85.9521
 -85.9579
 -85.9572
 -85.9574
 -85.9578
 -85.9521
 -85.9524
 -85.9529
 -85.9521
 -85.9447
 -85.9449
 -85.9441
 -85.9453
 -85.939
 -85.939
 -85.9388
 -85.9391
 -85.9601
 -85.9597
 -85.9601
 -85.96
 -85.9532
 -85.953
 -85.9533
 -85.9528
 -85.9597
 -85.9596
 -85.9597
 -85.9599
 -85.9418
 -85.941
 -85.9419
 -85.9419
 -85.9482
 -85.948
 -85.9579
 -85.9584
 -85.9579
 -85.9581
 -85.9485
 -85.9485
 -85.9485
 -85.9491
 -85.9467
 -85.9472
 -85.9484
 -85.9485
 -85.949
 -85.9483
 -85.9561
 -85.956
 -85.9559
 -85.9564
 -85.9432
 -85.9426
 -85.9423
 -85.9429
 -85.9346
 -85.935
 -85.9346
 -85.9346
 -85.9378
 -85.9376
 -85.9376
 -85.9375
 -85.9425
 -85.9429
 -85.9429
 -85.9424
 -85.9452
 -85.9444
 -85.9449
 -85.9462
 -85.9454
 -85.9458
 -85.9459
 -85.948
 -85.9477
 -85.9475
 -85.948
 -85.9345
 -85.9344
 -85.9346
 -85.9443
 -85.9439
 -85.9446
 -85.9444
 -85.9489
 -85.9493
 -85.9493
 -85.9486
 -85.9411
 -85.9405
 -85.9413
 -85.9405
 -85.9429
 -85.9433
 -85.9432
 -85.9431
 -85.9493
 -85.9493
 -85.9497
 -85.95
 -85.9477
 -85.9472
 -85.9476
 -85.9475
 -85.9526
 -85.9523
 -85.9525
 -85.9523
 -85.9374
 -85.9375
 -85.9377
 -85.9553
 -85.955
 -85.9556
 -85.9552
 -85.9411
 -85.9417
 -85.9412
 -85.9409
 -85.9453
 -85.9451
 -85.9448
 -85.9455
 -85.9462
 -85.9467
 -85.9468
 -85.9501
 -85.9501
 -85.9503
 -85.9507
 -85.9519
 -85.952
 -85.9523
 -85.9517
 -85.9524
 -85.9526
 -85.953
 -85.9563
 -85.9565
 -85.9565
 -85.9519
 -85.9516
 -85.9513
 -85.9516
 -85.9563
 -85.9564
 -85.9559
 -85.9576
 -85.9576
 -85.9575
 -85.9572
 -85.9465
 -85.9455
 -85.9461
 -85.9458
 -85.9419
 -85.9416
 -85.9422
 -85.9418
 -85.9401
 -85.9563
 -85.9561
 -85.9568
 -85.956
 -85.9564
 -85.9556
 -85.9233
 -85.9231
 -85.9233
 -85.9236
 -85.9542
 -85.9538
 -85.9452
 -85.945
 -85.9456
 -85.9597
 -85.96
 -85.9504
 -85.9497
 -85.95
 -85.9501
 -85.9448
 -85.9451
 -85.9451
 -85.9544
 -85.9552
 -85.9548
 -85.955
 -85.9422
 -85.9424
 -85.942
 -85.9426
 -85.9268
 -85.9273
 -85.9272
 -85.9266
 -85.9499
 -85.9499
 -85.9498
 -85.9504
 -85.9558
 -85.9566
 -85.9559
 -85.955
 -85.9548
 -85.955
 -85.9547
 -85.9408
 -85.94
 -85.9401
 -85.9397
 -85.9414
 -85.9418
 -85.9386
 -85.9391
 -85.9384
 -85.9595
 -85.9592
 -85.9554
 -85.9549
 -85.9554
 -85.9549
 -85.9482
 -85.9489
 -85.9487
 -85.9541
 -85.9536
 -85.9545
 -85.9544
 -85.9411
 -85.9402
 -85.9404
 -85.9408
 -85.9472
 -85.9471
 -85.9476
 -85.9477
 -85.947
 -85.9474
 -85.9475
 -85.9471
 -85.94
 -85.9402
 -85.9399
 -85.9416
 -85.9412
 -85.9415
 -85.9414
 -85.9606
 -85.9608
 -85.9607
 -85.961
 -85.9362
 -85.9354
 -85.9573
 -85.9576
 -85.9576
 -85.9573
 -85.9457
 -85.9462
 -85.946
 -85.9457
 -85.949
 -85.9493
 -85.9493
 -85.9494
 -85.9378
 -85.9381
 -85.9476
 -85.9472
 -85.9472
 -85.9469
 -85.9453
 -85.9451
 -85.9449
 -85.9455
 -85.9558
 -85.9558
 -85.9556
 -85.9559
 -85.9463
 -85.9468
 -85.9468
 -85.9462
 -85.942
 -85.9421
 -85.9509
 -85.9509
 -85.9506
 -85.951
 -85.9531
 -85.953
 -85.9534
 -85.9482
 -85.9487
 -85.9485
 -85.9488
 -85.9396
 -85.9399
 -85.9394
 -85.9402
 -85.9264
 -85.927
 -85.9269
 -85.9263
 -85.9468
 -85.9465
 -85.947
 -85.9475
 -85.9494
 -85.95
 -85.9494
 -85.9494
 -85.9446
 -85.9449
 -85.9443
 -85.9444
 -85.9422
 -85.942
 -85.9424
 -85.9426
 -85.956
 -85.9564
 -85.9509
 -85.9506
 -85.9504
 -85.9315
 -85.9312
 -85.9308
 -85.9316
 -85.9404
 -85.94
 -85.9406
 -85.9397
 -85.9484
 -85.9485
 -85.9483
 -85.948
 -85.956
 -85.9562
 -85.9562
 -85.9457
 -85.9455
 -85.9449
 -85.9449
 -85.9416
 -85.9423
 -85.942
 -85.9416
 -85.9536
 -85.953
 -85.953
 -85.9533
 -85.9501
 -85.9499
 -85.9497
 -85.9497
 -85.9547
 -85.9547
 -85.9547
 -85.9545
 -85.9545
 -85.9546
 -85.9545
 -85.9441
 -85.9442
 -85.9437
 -85.9435
 -85.9463
 -85.9461
 -85.9466
 -85.9276
 -85.9277
 -85.9277
 -85.9274
 -85.9419
 -85.942
 -85.9358
 -85.9354
 -85.936
 -85.9363
 -85.9399
 -85.9381
 -85.9567
 -85.9422
 -85.9417
 -85.9421
 -85.9415
 -85.96
 -85.9508
 -85.9505
 -85.9508
 -85.9501
 -85.942
 -85.9424
 -85.9421
 -85.9443
 -85.9448
 -85.9447
 -85.9551
 -85.9553
 -85.9547
 -85.9552
 -85.9554
 -85.9551
 -85.9554
 -85.9551
 -85.9389
 -85.9382
 -85.9382
 -85.9387
 -85.9584
 -85.9585
 -85.9587
 -85.9582
 -85.9472
 -85.9468
 -85.9463
 -85.9553
 -85.9555
 -85.9554
 -85.9491
 -85.9486
 -85.9488
 -85.9492
 -85.9422
 -85.9426
 -85.9419
 -85.9421
 -85.9495
 -85.9502
 -85.9494
 -85.9429
 -85.9432
 -85.9432
 -85.9426
 -85.9457
 -85.9464
 -85.9555
 -85.9559
 -85.956
 -85.9563
 -85.9567
 -85.9572
 -85.9569
 -85.9568
 -85.9396
 -85.9402
 -85.9395
 -85.9401
 -85.9531
 -85.9525
 -85.9529
 -85.9533
 -85.9504
 -85.9496
 -85.9503
 -85.9507
 -85.9447
 -85.9443
 -85.9451
 -85.9447
 -85.9561
 -85.9559
 -85.9557
 -85.9555
 -85.9458
 -85.9453
 -85.9462
 -85.9459
 -85.9473
 -85.9471
 -85.947
 -85.9478
 -85.9456
 -85.9453
 -85.9458
 -85.9458
 -85.9405
 -85.9411
 -85.939
 -85.9394
 -85.9398
 -85.9391
 -85.9347
 -85.9338
 -85.9345
 -85.9347
 -85.9506
 -85.9506
 -85.9504
 -85.9511
 -85.9496
 -85.9492
 -85.9491
 -85.9589
 -85.959
 -85.959
 -85.959
 -85.9594
 -85.9597
 -85.9593
 -85.9573
 -85.9575
 -85.957
 -85.9492
 -85.9498
 -85.9501
 -85.9494
 -85.9523
 -85.9525
 -85.9527
 -85.952
 -85.9556
 -85.9559
 -85.9557
 -85.956
 -85.9426
 -85.942
 -85.9421
 -85.9424
 -85.9363
 -85.9368
 -85.937
 -85.9371
 -85.9598
 -85.9598
 -85.9595
 -85.9602
 -85.9413
 -85.9411
 -85.9408
 -85.9413
 -85.9483
 -85.9482
 -85.9485
 -85.9481
 -85.96
 -85.96
 -85.9596
 -85.9602
 -85.9507
 -85.9502
 -85.9509
 -85.9507
 -85.9454
 -85.9451
 -85.9454
 -85.9451
 -85.9416
 -85.9412
 -85.9413
 -85.9381
 -85.9387
 -85.9383
 -85.938
 -85.94
 -85.9399
 -85.9401
 -85.9398
 -85.9393
 -85.9392
 -85.9408
 -85.9412
 -85.9402
 -85.9544
 -85.9541
 -85.9541
 -85.954
 -85.9586
 -85.9584
 -85.9585
 -85.9584
 -85.9518
 -85.9516
 -85.9519
 -85.9512
 -85.9461
 -85.9563
 -85.9565
 -85.9565
 -85.9561
 -85.9385
 -85.9385
 -85.9384
 -85.9384
 -85.9589
 -85.959
 -85.9588
 -85.9593
 -85.9436
 -85.9433
 -85.944
 -85.953
 -85.9381
 -85.9381
 -85.9377
 -85.9405
 -85.9401
 -85.9398
 -85.9407
 -85.948
 -85.948
 -85.9472
 -85.9478
 -85.9539
 -85.9539
 -85.9535
 -85.9542
 -85.946
 -85.953
 -85.9527
 -85.9527
 -85.9463
 -85.9463
 -85.9464
 -85.9469
 -85.943
 -85.9431
 -85.9428
 -85.9427
 -85.9443
 -85.9437
 -85.9441
 -85.9443
 -85.9532
 -85.9412
 -85.9413
 -85.9415
 -85.9542
 -85.9539
 -85.9544
 -85.9541
 -85.9562
 -85.956
 -85.9566
 -85.9559
 -85.9582
 -85.9584
 -85.9581
 -85.9428
 -85.9428
 -85.9425
 -85.9428
 -85.937
 -85.9367
 -85.937
 -85.955
 -85.955
 -85.9559
 -85.9557
 -85.9555
 -85.9555
 -85.9463
 -85.9465
 -85.9467
 -85.9592
 -85.9591
 -85.9594
 -85.9591
 -85.9561
 -85.956
 -85.9561
 -85.9562
 -85.9513
 -85.9513
 -85.9516
 -85.9518
 -85.9487
 -85.9488
 -85.9485
 -85.948
 -85.9416
 -85.9415
 -85.9414
 -85.9418
 -85.9558
 -85.9558
 -85.9556
 -85.9561
 -85.9431
 -85.9433
 -85.9426
 -85.9446
 -85.945
 -85.9452
 -85.9452
 -85.9583
 -85.9582
 -85.9587
 -85.9585
 -85.9528
 -85.9528
 -85.9527
 -85.9524
 -85.9594
 -85.9592
 -85.9589
 -85.9593
 -85.944
 -85.9443
 -85.9446
 -85.9445
 -85.9484
 -85.9485
 -85.948
 -85.9489
 -85.957
 -85.957
 -85.9573
 -85.9571
 -85.9479
 -85.9483
 -85.9476
 -85.9478
 -85.9595
 -85.9597
 -85.9595
 -85.9424
 -85.9421
 -85.9421
 -85.9422
 -85.9496
 -85.9496
 -85.9493
 -85.949
 -85.9507
 -85.9511
 -85.9507
 -85.9508
 -85.9471
 -85.9468
 -85.9476
 -85.947
 -85.9562
 -85.9563
 -85.9567
 -85.9563
 -85.9468
 -85.9462
 -85.9465
 -85.9464
 -85.9507
 -85.9505
 -85.9505
 -85.9503
 -85.9382
 -85.9382
 -85.9381
 -85.9383
 -85.9549
 -85.955
 -85.9546
 -85.9544
 -85.9376
 -85.9376
 -85.9376
 -85.9415
 -85.9412
 -85.9413
 -85.9416
 -85.9392
 -85.9395
 -85.9405
 -85.9397
 -85.9535
 -85.9534
 -85.9537
 -85.954
 -85.9518
 -85.9524
 -85.9519
 -85.952
 -85.9434
 -85.943
 -85.943
 -85.9426
 -85.9604
 -85.9603
 -85.9601
 -85.9279
 -85.9278
 -85.9505
 -85.9508
 -85.9502
 -85.9505
 -85.9329
 -85.9322
 -85.9316
 -85.9322
 -85.9517
 -85.9519
 -85.9524
 -85.9521
 -85.9448
 -85.9433
 -85.9431
 -85.943
 -85.9426
 -85.9541
 -85.9542
 -85.9543
 -85.9545
 -85.9573
 -85.957
 -85.9576
 -85.9572
 -85.9382
 -85.9382
 -85.9529
 -85.9531
 -85.9538
 -85.953
 -85.9493
 -85.9484
 -85.9495
 -85.949
 -85.9413
 -85.9413
 -85.941
 -85.942
 -85.9468
 -85.9463
 -85.9462
 -85.9468
 -85.9555
 -85.955
 -85.9561
 -85.9588
 -85.9587
 -85.9587
 -85.9586
 -85.9598
 -85.9599
 -85.96
 -85.9436
 -85.9433
 -85.9433
 -85.9437
 -85.9573
 -85.9572
 -85.9569
 -85.9569
 -85.9395
 -85.9392
 -85.9393
 -85.9394
 -85.9517
 -85.9514
 -85.9518
 -85.9511
 -85.9493
 -85.9499
 -85.9494
 -85.9494
 -85.9587
 -85.9587
 -85.9587
 -85.9589
 -85.9525
 -85.9526
 -85.9524
 -85.952
 -85.9311
 -85.9307
 -85.9307
 -85.9311
 -85.9459
 -85.945
 -85.9458
 -85.9453
 -85.9435
 -85.944
 -85.9441
 -85.9433
 -85.9538
 -85.9539
 -85.9535
 -85.9533
 -85.94
 -85.9397
 -85.9396
 -85.9396
 -85.9502
 -85.9499
 -85.9498
 -85.9504
 -85.9426
 -85.9424
 -85.9421
 -85.936
 -85.9357
 -85.9356
 -85.9355
 -85.9502
 -85.9507
 -85.95
 -85.9513
 -85.9512
 -85.951
 -85.9412
 -85.9408
 -85.9404
 -85.9396
 -85.9395
 -85.9397
 -85.9398
 -85.9571
 -85.9227
 -85.923
 -85.9229
 -85.9225
 -85.9561
 -85.9559
 -85.9564
 -85.9561
 -85.9382
 -85.9444
 -85.9443
 -85.9442
 -85.9448
 -85.9434
 -85.943
 -85.9442
 -85.9404
 -85.9412
 -85.9408
 -85.9406
 -85.932
 -85.9318
 -85.9322
 -85.9314
 -85.9394
 -85.9398
 -85.9397
 -85.9488
 -85.9485
 -85.9485
 -85.9436
 -85.9434
 -85.9607
 -85.9604
 -85.9604
 -85.9392
 -85.9397
 -85.9391
 -85.9439
 -85.9443
 -85.9445
 -85.9573
 -85.9576
 -85.9576
 -85.9542
 -85.9542
 -85.9546
 -85.9543
 -85.9413
 -85.9415
 -85.9417
 -85.9376
 -85.9371
 -85.9585
 -85.9583
 -85.9588
 -85.9586
 -85.9336
 -85.9339
 -85.9331
 -85.9343
 -85.9391
 -85.9389
 -85.9264
 -85.926
 -85.9294
 -85.9293
 -85.9295
 -85.9442
 -85.9446
 -85.944
 -85.9581
 -85.9578
 -85.9575
 -85.9527
 -85.9526
 -85.953
 -85.9419
 -85.9418
 -85.9423
 -85.9426
 -85.9421
 -85.9569
 -85.9374
 -85.9374
 -85.9377
 -85.9377
 -85.9437
 -85.9446
 -85.9439
 -85.944
 -85.9538
 -85.9538
 -85.9541
 -85.9524
 -85.9525
 -85.9522
 -85.9523
 -85.9443
 -85.944
 -85.9446
 -85.945
 -85.9532
 -85.9533
 -85.9538
 -85.9537
 -85.9544
 -85.9541
 -85.9543
 -85.9547
 -85.9472
 -85.953
 -85.9532
 -85.9532
 -85.9534
 -85.9594
 -85.9595
 -85.9593
 -85.9591
 -85.9403
 -85.9394
 -85.9392
 -85.9398
 -85.9587
 -85.959
 -85.9589
 -85.9588
 -85.9258
 -85.9261
 -85.9256
 -85.958
 -85.9578
 -85.9584
 -85.9583
 -85.9406
 -85.9405
 -85.9399
 -85.94
 -85.9553
 -85.9549
 -85.9552
 -85.9555
 -85.9392
 -85.9392
 -85.9382
 -85.9384
 -85.9593
 -85.9552
 -85.9547
 -85.955
 -85.9545
 -85.9572
 -85.9575
 -85.9574
 -85.9375
 -85.9378
 -85.9374
 -85.9373
 -85.9534
 -85.9531
 -85.953
 -85.9527
 -85.9501
 -85.9507
 -85.9507
 -85.9504
 -85.9492
 -85.9495
 -85.949
 -85.9488
 -85.9604
 -85.9601
 -85.9451
 -85.9451
 -85.945
 -85.9443
 -85.9448
 -85.945
 -85.9452
 -85.9531
 -85.9528
 -85.9535
 -85.9537
 -85.9527
 -85.9529
 -85.9528
 -85.9533
 -85.9505
 -85.9506
 -85.9509
 -85.9503
 -85.9409
 -85.9409
 -85.9426
 -85.9422
 -85.9422
 -85.944
 -85.9444
 -85.9443
 -85.9444
 -85.9363
 -85.9358
 -85.936
 -85.9359
 -85.9437
 -85.9433
 -85.9428
 -85.9317
 -85.9317
 -85.9323
 -85.9437
 -85.9437
 -85.9433
 -85.9441
 -85.9407
 -85.9413
 -85.9404
 -85.9469
 -85.9535
 -85.9532
 -85.9539
 -85.9451
 -85.945
 -85.9454
 -85.9457
 -85.9389
 -85.9389
 -85.9402
 -85.9396
 -85.9477
 -85.9481
 -85.9482
 -85.9482
 -85.9548
 -85.9546
 -85.9604
 -85.9602
 -85.9601
 -85.9604
 -85.9534
 -85.9534
 -85.9537
 -85.953
 -85.9458
 -85.9457
 -85.9456
 -85.946
 -85.9592
 -85.9593
 -85.9598
 -85.959
 -85.9592
 -85.9592
 -85.9594
 -85.9482
 -85.9476
 -85.9473
 -85.9479
 -85.9389
 -85.9387
 -85.939
 -85.9451
 -85.9451
 -85.9457
 -85.9451
 -85.9369
 -85.9362
 -85.937
 -85.9362
 -85.9518
 -85.9518
 -85.9519
 -85.9508
 -85.9383
 -85.9383
 -85.9383
 -85.9385
 -85.9414
 -85.9417
 -85.9418
 -85.9416
 -85.9582
 -85.9578
 -85.9584
 -85.9579
 -85.9479
 -85.948
 -85.9475
 -85.948
 -85.9436
 -85.9433
 -85.9437
 -85.9433
 -85.9541
 -85.9541
 -85.9544
 -85.9551
 -85.9549
 -85.9548
 -85.9445
 -85.9452
 -85.9449
 -85.9457
 -85.9459
 -85.9463
 -85.9461
 -85.9461
 -85.939
 -85.9392
 -85.9389
 -85.9441
 -85.9438
 -85.9435
 -85.9241
 -85.9236
 -85.9241
 -85.9238
 -85.9417
 -85.9419
 -85.9373
 -85.9377
 -85.9374
 -85.9369
 -85.9494
 -85.9489
 -85.9494
 -85.9488
 -85.932
 -85.9328
 -85.933
 -85.9325
 -85.9403
 -85.9402
 -85.9397
 -85.9523
 -85.9524
 -85.9524
 -85.9521
 -85.9399
 -85.9404
 -85.9398
 -85.9386
 -85.9386
 -85.938
 -85.9382
 -85.9437
 -85.9434
 -85.9434
 -85.944
 -85.9543
 -85.9553
 -85.9293
 -85.9296
 -85.9414
 -85.941
 -85.9461
 -85.9456
 -85.9458
 -85.9456
 -85.9516
 -85.9521
 -85.9517
 -85.9523
 -85.9469
 -85.9469
 -85.9472
 -85.9473
 -85.9371
 -85.9362
 -85.9368
 -85.9367
 -85.9498
 -85.9492
 -85.9494
 -85.9389
 -85.9387
 -85.9389
 -85.9388
 -85.9574
 -85.9573
 -85.9576
 -85.9571
 -85.952
 -85.952
 -85.9521
 -85.9515
 -85.9395
 -85.9398
 -85.9393
 -85.9458
 -85.9451
 -85.9457
 -85.946
 -85.9372
 -85.9371
 -85.9374
 -85.9399
 -85.9406
 -85.9404
 -85.94
 -85.9398
 -85.9398
 -85.9403
 -85.9399
 -85.9456
 -85.9451
 -85.945
 -85.9447
 -85.9594
 -85.9592
 -85.959
 -85.9591
 -85.9505
 -85.9511
 -85.9509
 -85.951
 -85.9452
 -85.9445
 -85.945
 -85.9484
 -85.9482
 -85.9481
 -85.957
 -85.9564
 -85.9569
 -85.9566
 -85.9506
 -85.9506
 -85.9502
 -85.9509
 -85.9447
 -85.9452
 -85.9453
 -85.9453
 -85.9362
 -85.9363
 -85.9394
 -85.9391
 -85.9396
 -85.9396
 -85.9277
 -85.9275
 -85.9268
 -85.9276
 -85.9538
 -85.9538
 -85.9538
 -85.9536
 -85.9404
 -85.9398
 -85.94
 -85.94
 -85.947
 -85.9466
 -85.9468
 -85.9462
 -85.9351
 -85.9349
 -85.9349
 -85.9348
 -85.9487
 -85.9485
 -85.9483
 -85.9482
 -85.9456
 -85.9531
 -85.953
 -85.9525
 -85.9526
 -85.9448
 -85.9442
 -85.944
 -85.9446
 -85.9443
 -85.9446
 -85.945
 -85.9448
 -85.943
 -85.9425
 -85.9426
 -85.9424
 -85.9392
 -85.9386
 -85.9395
 -85.9555
 -85.9556
 -85.9557
 -85.9548
 -85.9444
 -85.9442
 -85.9442
 -85.944
 -85.955
 -85.9552
 -85.9555
 -85.9522
 -85.9518
 -85.9521
 -85.952
 -85.9543
 -85.955
 -85.9547
 -85.9551
 -85.9379
 -85.9384
 -85.9378
 -85.9224
 -85.9227
 -85.9227
 -85.9525
 -85.953
 -85.953
 -85.9488
 -85.9497
 -85.9493
 -85.9498
 -85.9436
 -85.9438
 -85.944
 -85.9435
 -85.9452
 -85.9454
 -85.9446
 -85.9448
 -85.9305
 -85.9309
 -85.9299
 -85.931
 -85.947
 -85.9468
 -85.9467
 -85.9467
 -85.9501
 -85.9503
 -85.9506
 -85.9499
 -85.9404
 -85.9404
 -85.9417
 -85.9408
 -85.9412
 -85.9413
 -85.9526
 -85.9522
 -85.9524
 -85.9524
 -85.9402
 -85.9406
 -85.9508
 -85.9505
 -85.9373
 -85.9235
 -85.9234
 -85.9234
 -85.9238
 -85.935
 -85.9356
 -85.9598
 -85.9601
 -85.9599
 -85.9363
 -85.9368
 -85.9373
 -85.9368
 -85.9532
 -85.9531
 -85.9413
 -85.9412
 -85.9413
 -85.9413
 -85.9429
 -85.9439
 -85.9435
 -85.9531
 -85.9534
 -85.9532
 -85.9537
 -85.951
 -85.9515
 -85.951
 -85.9513
 -85.956
 -85.9561
 -85.9565
 -85.9453
 -85.9447
 -85.9453
 -85.9446
 -85.947
 -85.9561
 -85.9555
 -85.956
 -85.9559
 -85.9376
 -85.9375
 -85.9378
 -85.938
 -85.9482
 -85.9477
 -85.9481
 -85.9476
 -85.9538
 -85.9533
 -85.9537
 -85.9533
 -85.9261
 -85.9263
 -85.9265
 -85.9266
 -85.9395
 -85.9592
 -85.944
 -85.9447
 -85.9442
 -85.9437
 -85.9478
 -85.9482
 -85.9477
 -85.9475
 -85.9405
 -85.9398
 -85.9402
 -85.9403
 -85.9488
 -85.9486
 -85.9488
 -85.9489
 -85.9392
 -85.9392
 -85.9397
 -85.9385
 -85.9389
 -85.9392
 -85.9388
 -85.945
 -85.9455
 -85.9446
 -85.9451
 -85.9538
 -85.9542
 -85.9533
 -85.9604
 -85.9607
 -85.9604
 -85.9603
 -85.9303
 -85.9298
 -85.9297
 -85.9465
 -85.9465
 -85.9454
 -85.9456
 -85.9451
 -85.9459
 -85.9579
 -85.9578
 -85.9579
 -85.9581
 -85.9525
 -85.9521
 -85.9524
 -85.952
 -85.9391
 -85.9398
 -85.9393
 -85.9338
 -85.9448
 -85.9442
 -85.9444
 -85.9448
 -85.9459
 -85.9462
 -85.9461
 -85.9521
 -85.9518
 -85.9519
 -85.9522
 -85.9542
 -85.9536
 -85.954
 -85.9538
 -85.9442
 -85.9439
 -85.9528
 -85.9527
 -85.953
 -85.9533
 -85.9492
 -85.949
 -85.9491
 -85.9496
 -85.959
 -85.9591
 -85.9503
 -85.9498
 -85.9503
 -85.95
 -85.9528
 -85.953
 -85.9532
 -85.9534
 -85.9521
 -85.9524
 -85.952
 -85.9521
 -85.9466
 -85.9469
 -85.9451
 -85.9454
 -85.945
 -85.9446
 -85.9426
 -85.9422
 -85.9424
 -85.9425
 -85.9491
 -85.9495
 -85.9494
 -85.9491
 -85.9387
 -85.9391
 -85.9394
 -85.9396
 -85.9404
 -85.9402
 -85.9401
 -85.9402
 -85.9289
 -85.9292
 -85.929
 -85.9285
 -85.9426
 -85.9419
 -85.9484
 -85.9476
 -85.9483
 -85.948
 -85.9441
 -85.9439
 -85.9443
 -85.9446
 -85.9475
 -85.9478
 -85.948
 -85.9477
 -85.9454
 -85.9454
 -85.9529
 -85.9527
 -85.9598
 -85.9598
 -85.9598
 -85.9599
 -85.9368
 -85.9451
 -85.9451
 -85.9453
 -85.9456
 -85.9475
 -85.9469
 -85.9471
 -85.9471
 -85.9417
 -85.9414
 -85.9412
 -85.9408
 -85.9518
 -85.9512
 -85.9518
 -85.9513
 -85.9478
 -85.9474
 -85.9472
 -85.9477
 -85.9391
 -85.939
 -85.9393
 -85.9386
 -85.9385
 -85.9435
 -85.9442
 -85.9436
 -85.944
 -85.9434
 -85.9442
 -85.9436
 -85.9433
 -85.9392
 -85.9392
 -85.9388
 -85.9392
 -85.9405
 -85.9407
 -85.9414
 -85.9412
 -85.9455
 -85.9459
 -85.9451
 -85.9451
 -85.9393
 -85.9391
 -85.9389
 -85.939
 -85.9486
 -85.9488
 -85.9482
 -85.9418
 -85.9418
 -85.9417
 -85.9416
 -85.9328
 -85.9333
 -85.9484
 -85.9487
 -85.9488
 -85.9479
 -85.9486
 -85.9483
 -85.9486
 -85.9376
 -85.938
 -85.9382
 -85.9363
 -85.9365
 -85.9365
 -85.9363
 -85.9507
 -85.9505
 -85.9509
 -85.9503
 -85.948
 -85.9472
 -85.948
 -85.9548
 -85.9542
 -85.9544
 -85.9462
 -85.9457
 -85.9458
 -85.956
 -85.956
 -85.956
 -85.9274
 -85.927
 -85.9272
 -85.9274
 -85.959
 -85.9591
 -85.9589
 -85.9591
 -85.9426
 -85.9421
 -85.9492
 -85.9486
 -85.939
 -85.939
 -85.939
 -85.9395
 -85.95
 -85.9498
 -85.9504
 -85.9533
 -85.9536
 -85.9536
 -85.9537
 -85.9558
 -85.9552
 -85.9377
 -85.9377
 -85.9376
 -85.9486
 -85.9485
 -85.948
 -85.9411
 -85.9406
 -85.9412
 -85.9377
 -85.9377
 -85.9374
 -85.9373
 -85.9448
 -85.9449
 -85.9444
 -85.9451
 -85.9441
 -85.9436
 -85.9437
 -85.944
 -85.9514
 -85.9512
 -85.9512
 -85.9517
 -85.9531
 -85.9529
 -85.9531
 -85.9526
 -85.9434
 -85.9433
 -85.9439
 -85.9506
 -85.9505
 -85.9502
 -85.9523
 -85.9527
 -85.9524
 -85.9525
 -85.9608
 -85.9607
 -85.9608
 -85.9469
 -85.9467
 -85.9467
 -85.9519
 -85.9521
 -85.9515
 -85.9461
 -85.9465
 -85.9459
 -85.9422
 -85.9416
 -85.9417
 -85.9378
 -85.9381
 -85.9379
 -85.9381
 -85.9462
 -85.9461
 -85.9467
 -85.9462
 -85.9411
 -85.9409
 -85.9404
 -85.9389
 -85.9394
 -85.9518
 -85.9515
 -85.9522
 -85.9518
 -85.9518
 -85.9521
 -85.9517
 -85.9513
 -85.9394
 -85.9399
 -85.9401
 -85.9403
 -85.9391
 -85.9386
 -85.9389
 -85.9385
 -85.9346
 -85.9344
 -85.9346
 -85.9342
 -85.9575
 -85.9577
 -85.9553
 -85.9548
 -85.955
 -85.9554
 -85.9588
 -85.9419
 -85.9425
 -85.9418
 -85.9472
 -85.9474
 -85.947
 -85.9469
 -85.9394
 -85.9393
 -85.9457
 -85.9457
 -85.9461
 -85.9371
 -85.9373
 -85.9546
 -85.9547
 -85.9551
 -85.9544
 -85.9562
 -85.9561
 -85.9568
 -85.9565
 -85.9537
 -85.9538
 -85.9533
 -85.9425
 -85.9429
 -85.9428
 -85.9558
 -85.9558
 -85.9559
 -85.9561
 -85.941
 -85.9403
 -85.9408
 -85.9411
 -85.9541
 -85.9538
 -85.9538
 -85.9541
 -85.9412
 -85.9405
 -85.9404
 -85.9414
 -85.9381
 -85.9383
 -85.9378
 -85.959
 -85.9595
 -85.9592
 -85.9591
 -85.9385
 -85.9387
 -85.9387
 -85.9447
 -85.945
 -85.9454
 -85.945
 -85.958
 -85.9584
 -85.9582
 -85.941
 -85.9405
 -85.941
 -85.9406
 -85.9505
 -85.9573
 -85.9574
 -85.9567
 -85.9572
 -85.9371
 -85.9373
 -85.9375
 -85.9373
 -85.9521
 -85.9513
 -85.9518
 -85.9521
 -85.947
 -85.9472
 -85.9464
 -85.9381
 -85.9378
 -85.9382
 -85.937
 -85.9511
 -85.951
 -85.9513
 -85.9405
 -85.9403
 -85.9281
 -85.9276
 -85.9282
 -85.9284
 -85.9349
 -85.9337
 -85.9336
 -85.956
 -85.9558
 -85.9569
 -85.9563
 -85.9563
 -85.9565
 -85.9358
 -85.936
 -85.9354
 -85.9361
 -85.9441
 -85.9443
 -85.9443
 -85.9445
 -85.9457
 -85.945
 -85.945
 -85.9453
 -85.9481
 -85.9479
 -85.9485
 -85.9479
 -85.9485
 -85.9477
 -85.9482
 -85.9478
 -85.9581
 -85.939
 -85.9388
 -85.9391
 -85.9389
 -85.9583
 -85.9581
 -85.9585
 -85.949
 -85.9485
 -85.9482
 -85.9484
 -85.9378
 -85.9383
 -85.9384
 -85.9476
 -85.9472
 -85.9475
 -85.9471
 -85.9463
 -85.9512
 -85.9514
 -85.9519
 -85.9517
 -85.9413
 -85.9413
 -85.9413
 -85.9465
 -85.9474
 -85.9471
 -85.9584
 -85.9582
 -85.9578
 -85.9581
 -85.9459
 -85.9457
 -85.9456
 -85.926
 -85.9263
 -85.9257
 -85.9459
 -85.9455
 -85.9458
 -85.9451
 -85.9516
 -85.952
 -85.9519
 -85.9468
 -85.9469
 -85.956
 -85.9562
 -85.9558
 -85.9559
 -85.9537
 -85.9541
 -85.9539
 -85.9539
 -85.9595
 -85.9594
 -85.9592
 -85.959
 -85.9483
 -85.9473
 -85.9481
 -85.9483
 -85.9527
 -85.9525
 -85.9524
 -85.9521
 -85.956
 -85.9563
 -85.9565
 -85.9407
 -85.941
 -85.9402
 -85.9405
 -85.9453
 -85.9458
 -85.9431
 -85.9427
 -85.9432
 -85.943
 -85.9517
 -85.9515
 -85.9516
 -85.9519
 -85.9459
 -85.9464
 -85.9462
 -85.9458
 -85.9514
 -85.9512
 -85.9519
 -85.9513
 -85.9466
 -85.9469
 -85.9472
 -85.9473
 -85.9462
 -85.9457
 -85.9458
 -85.9555
 -85.9552
 -85.9555
 -85.9576
 -85.9574
 -85.9574
 -85.958
 -85.9567
 -85.9567
 -85.957
 -85.9529
 -85.9534
 -85.953
 -85.9298
 -85.9297
 -85.9293
 -85.9452
 -85.9458
 -85.9453
 -85.9552
 -85.9554
 -85.9552
 -85.9551
 -85.9451
 -85.9454
 -85.9451
 -85.9485
 -85.9488
 -85.9487
 -85.9483
 -85.9504
 -85.9494
 -85.9498
 -85.9497
 -85.9463
 -85.9467
 -85.9466
 -85.947
 -85.9399
 -85.9402
 -85.9399
 -85.9397
 -85.9454
 -85.9485
 -85.9485
 -85.9488
 -85.9478
 -85.9385
 -85.9386
 -85.9387
 -85.9387
 -85.9379
 -85.9383
 -85.938
 -85.9382
 -85.9391
 -85.9393
 -85.9392
 -85.9389
 -85.9507
 -85.9507
 -85.9512
 -85.9515
 -85.9406
 -85.9403
 -85.9405
 -85.9406
 -85.9592
 -85.9588
 -85.9592
 -85.9589
 -85.9337
 -85.934
 -85.9344
 -85.9343
 -85.9402
 -85.9402
 -85.94
 -85.937
 -85.9366
 -85.9365
 -85.9365
 -85.9386
 -85.9383
 -85.9389
 -85.9389
 -85.939
 -85.9472
 -85.9471
 -85.9474
 -85.9482
 -85.9577
 -85.9574
 -85.9572
 -85.9576
 -85.9575
 -85.9577
 -85.9574
 -85.9396
 -85.9393
 -85.9587
 -85.959
 -85.9586
 -85.9556
 -85.9555
 -85.9556
 -85.9559
 -85.9386
 -85.9384
 -85.9386
 -85.9592
 -85.9593
 -85.959
 -85.9594
 -85.9428
 -85.9429
 -85.9433
 -85.9425
 -85.9392
 -85.9386
 -85.9389
 -85.9393
 -85.9368
 -85.9375
 -85.9372
 -85.9371
 -85.9317
 -85.9318
 -85.9314
 -85.9314
 -85.9497
 -85.9505
 -85.9502
 -85.9504
 -85.9433
 -85.9434
 -85.9431
 -85.9425
 -85.9589
 -85.9587
 -85.959
 -85.9254
 -85.926
 -85.9257
 -85.9263
 -85.9347
 -85.9353
 -85.935
 -85.9355
 -85.9589
 -85.9594
 -85.9591
 -85.9591
 -85.9466
 -85.9466
 -85.9471
 -85.9566
 -85.957
 -85.9572
 -85.9394
 -85.9393
 -85.9387
 -85.959
 -85.9588
 -85.9587
 -85.9589
 -85.9554
 -85.9552
 -85.9551
 -85.9547
 -85.9414
 -85.9417
 -85.9421
 -85.9417
 -85.9434
 -85.9428
 -85.9433
 -85.9426
 -85.954
 -85.954
 -85.954
 -85.9545
 -85.9479
 -85.9476
 -85.9472
 -85.9475
 -85.9328
 -85.9334
 -85.9335
 -85.9333
 -85.956
 -85.9552
 -85.9557
 -85.9555
 -85.9595
 -85.947
 -85.9471
 -85.9475
 -85.9475
 -85.9573
 -85.9576
 -85.9575
 -85.9579
 -85.9385
 -85.9385
 -85.9386
 -85.9387
 -85.9586
 -85.9588
 -85.9584
 -85.9583
 -85.946
 -85.9458
 -85.9436
 -85.9433
 -85.9437
 -85.9438
 -85.9536
 -85.953
 -85.953
 -85.953
 -85.9484
 -85.949
 -85.9488
 -85.9432
 -85.9431
 -85.9433
 -85.9538
 -85.9537
 -85.9533
 -85.9533
 -85.9524
 -85.9522
 -85.9526
 -85.9522
 -85.9397
 -85.9394
 -85.9392
 -85.9463
 -85.9474
 -85.9474
 -85.9467
 -85.9338
 -85.9335
 -85.9341
 -85.9334
 -85.9328
 -85.959
 -85.9583
 -85.959
 -85.9585
 -85.9472
 -85.9469
 -85.9466
 -85.9472
 -85.9564
 -85.9567
 -85.945
 -85.9441
 -85.9442
 -85.941
 -85.9406
 -85.9413
 -85.9412
 -85.9588
 -85.9586
 -85.9589
 -85.9589
 -85.9392
 -85.9393
 -85.9392
 -85.9414
 -85.9412
 -85.9416
 -85.9413
 -85.943
 -85.9437
 -85.9432
 -85.9425
 -85.9515
 -85.9524
 -85.9517
 -85.9521
 -85.9405
 -85.9411
 -85.9408
 -85.9407
 -85.9531
 -85.9498
 -85.9504
 -85.9506
 -85.9497
 -85.9575
 -85.9576
 -85.9571
 -85.9584
 -85.9582
 -85.9582
 -85.9579
 -85.9502
 -85.9506
 -85.95
 -85.9503
 -85.9599
 -85.9598
 -85.9598
 -85.9594
 -85.9431
 -85.9489
 -85.9481
 -85.9481
 -85.9486
 -85.9473
 -85.9464
 -85.9468
 -85.947
 -85.9318
 -85.9324
 -85.9327
 -85.932
 -85.9456
 -85.9457
 -85.9459
 -85.9453
 -85.9447
 -85.9448
 -85.945
 -85.9452
 -85.9451
 -85.9452
 -85.9456
 -85.9566
 -85.9562
 -85.956
 -85.9447
 -85.944
 -85.9442
 -85.9445
 -85.9559
 -85.9565
 -85.9562
 -85.9465
 -85.9461
 -85.9477
 -85.9481
 -85.9479
 -85.9476
 -85.9474
 -85.9475
 -85.947
 -85.9471
 -85.9478
 -85.9476
 -85.957
 -85.9572
 -85.9572
 -85.9432
 -85.9581
 -85.9484
 -85.9488
 -85.9483
 -85.9479
 -85.9385
 -85.9385
 -85.9379
 -85.9397
 -85.9403
 -85.9406
 -85.9476
 -85.9478
 -85.9472
 -85.946
 -85.946
 -85.9463
 -85.9465
 -85.9473
 -85.9468
 -85.9476
 -85.9468
 -85.9257
 -85.9258
 -85.9253
 -85.9538
 -85.9533
 -85.9537
 -85.946
 -85.9462
 -85.9549
 -85.9543
 -85.9545
 -85.9542
 -85.9491
 -85.9496
 -85.9491
 -85.932
 -85.9322
 -85.9315
 -85.9317
 -85.9446
 -85.944
 -85.9445
 -85.944
 -85.9401
 -85.9399
 -85.9397
 -85.9395
 -85.9513
 -85.9506
 -85.951
 -85.9513
 -85.9424
 -85.9419
 -85.9423
 -85.9416
 -85.9337
 -85.9336
 -85.9336
 -85.9431
 -85.9429
 -85.9427
 -85.9428
 -85.9513
 -85.9519
 -85.9516
 -85.9517
 -85.9466
 -85.9472
 -85.9473
 -85.947
 -85.9408
 -85.9406
 -85.9409
 -85.9442
 -85.9437
 -85.9439
 -85.9439
 -85.9399
 -85.9393
 -85.9399
 -85.9395
 -85.9371
 -85.9378
 -85.9376
 -85.9369
 -85.9586
 -85.9588
 -85.9587
 -85.9589
 -85.9394
 -85.9397
 -85.9396
 -85.9397
 -85.9406
 -85.9402
 -85.9407
 -85.9407
 -85.9505
 -85.9511
 -85.951
 -85.9513
 -85.9427
 -85.9426
 -85.9431
 -85.9428
 -85.9606
 -85.9606
 -85.9606
 -85.9607
 -85.9452
 -85.945
 -85.9454
 -85.9382
 -85.9379
 -85.938
 -85.9384
 -85.9392
 -85.939
 -85.9391
 -85.939
 -85.9392
 -85.9384
 -85.9523
 -85.9518
 -85.9523
 -85.9517
 -85.9605
 -85.9603
 -85.9604
 -85.9603
 -85.9439
 -85.9435
 -85.9437
 -85.9434
 -85.9398
 -85.9396
 -85.9395
 -85.9511
 -85.9506
 -85.9506
 -85.951
 -85.9452
 -85.9451
 -85.9453
 -85.9458
 -85.9411
 -85.9411
 -85.941
 -85.9414
 -85.9378
 -85.9385
 -85.938
 -85.954
 -85.9545
 -85.9548
 -85.9542
 -85.9557
 -85.9556
 -85.9553
 -85.944
 -85.9439
 -85.9443
 -85.9446
 -85.9444
 -85.9442
 -85.9448
 -85.9408
 -85.9414
 -85.9417
 -85.9414
 -85.9509
 -85.9507
 -85.9504
 -85.9391
 -85.9391
 -85.9386
 -85.947
 -85.9475
 -85.9473
 -85.9557
 -85.9551
 -85.9555
 -85.9518
 -85.9518
 -85.9429
 -85.9432
 -85.9428
 -85.9432
 -85.9434
 -85.9432
 -85.9458
 -85.9451
 -85.9411
 -85.9373
 -85.9374
 -85.937
 -85.9561
 -85.9561
 -85.9554
 -85.944
 -85.9445
 -85.9443
 -85.944
 -85.9413
 -85.9467
 -85.9469
 -85.9511
 -85.9513
 -85.951
 -85.9515
 -85.9466
 -85.9461
 -85.9467
 -85.9442
 -85.9444
 -85.9436
 -85.9442
 -85.943
 -85.9439
 -85.9447
 -85.9443
 -85.944
 -85.945
 -85.9568
 -85.9563
 -85.9563
 -85.9566
 -85.9571
 -85.9574
 -85.9578
 -85.9577
 -85.939
 -85.9394
 -85.9463
 -85.9464
 -85.9461
 -85.9457
 -85.9488
 -85.9489
 -85.9492
 -85.9494
 -85.9502
 -85.9507
 -85.9502
 -85.9501
 -85.9459
 -85.9456
 -85.9454
 -85.946
 -85.9449
 -85.9453
 -85.9451
 -85.9448
 -85.9556
 -85.955
 -85.9556
 -85.9555
 -85.9395
 -85.9401
 -85.9404
 -85.9407
 -85.9398
 -85.9403
 -85.94
 -85.9539
 -85.9543
 -85.9549
 -85.9551
 -85.9408
 -85.9412
 -85.941
 -85.9414
 -85.9581
 -85.9578
 -85.9581
 -85.958
 -85.956
 -85.9558
 -85.9559
 -85.9556
 -85.9435
 -85.9438
 -85.9433
 -85.9436
 -85.952
 -85.9521
 -85.952
 -85.9515
 -85.9412
 -85.9415
 -85.9419
 -85.942
 -85.9537
 -85.9535
 -85.9536
 -85.9394
 -85.9397
 -85.9394
 -85.9396
 -85.9496
 -85.9494
 -85.9497
 -85.9499
 -85.943
 -85.9432
 -85.9531
 -85.9539
 -85.9536
 -85.9534
 -85.9541
 -85.954
 -85.9537
 -85.9453
 -85.946
 -85.9454
 -85.9546
 -85.9546
 -85.9548
 -85.9551
 -85.9342
 -85.9344
 -85.9348
 -85.9346
 -85.941
 -85.9413
 -85.9416
 -85.9418
 -85.9496
 -85.949
 -85.949
 -85.9496
 -85.957
 -85.9571
 -85.9568
 -85.9572
 -85.9559
 -85.9563
 -85.9564
 -85.956
 -85.957
 -85.9569
 -85.957
 -85.9569
 -85.957
 -85.942
 -85.9424
 -85.942
 -85.9425
 -85.9397
 -85.9399
 -85.9392
 -85.9396
 -85.9419
 -85.9419
 -85.943
 -85.9435
 -85.9431
 -85.943
 -85.9445
 -85.9445
 -85.945
 -85.9445
 -85.94
 -85.9401
 -85.9397
 -85.9473
 -85.9469
 -85.947
 -85.9468
 -85.9607
 -85.9607
 -85.9604
 -85.9422
 -85.942
 -85.9423
 -85.9428
 -85.9547
 -85.954
 -85.9544
 -85.9546
 -85.9514
 -85.9519
 -85.9517
 -85.9465
 -85.9462
 -85.9468
 -85.952
 -85.9525
 -85.952
 -85.9556
 -85.9552
 -85.9515
 -85.9515
 -85.9515
 -85.9413
 -85.9415
 -85.9416
 -85.9411
 -85.9576
 -85.9579
 -85.9576
 -85.9575
 -85.9498
 -85.9503
 -85.95
 -85.9306
 -85.9299
 -85.9296
 -85.9304
 -85.9379
 -85.9377
 -85.9483
 -85.9431
 -85.9438
 -85.9433
 -85.943
 -85.9473
 -85.9479
 -85.9478
 -85.9534
 -85.9535
 -85.9531
 -85.9535
 -85.9584
 -85.9585
 -85.9465
 -85.9463
 -85.9463
 -85.9459
 -85.9372
 -85.9367
 -85.9367
 -85.9372
 -85.9561
 -85.9564
 -85.9564
 -85.9562
 -85.9495
 -85.9497
 -85.9494
 -85.9265
 -85.9262
 -85.9258
 -85.9258
 -85.9395
 -85.9394
 -85.9391
 -85.942
 -85.9424
 -85.9417
 -85.9421
 -85.9495
 -85.9496
 -85.9493
 -85.95
 -85.9465
 -85.9469
 -85.9382
 -85.9384
 -85.9384
 -85.9383
 -85.9499
 -85.9504
 -85.9421
 -85.9414
 -85.9417
 -85.9419
 -85.944
 -85.9442
 -85.9436
 -85.944
 -85.9467
 -85.9473
 -85.9474
 -85.947
 -85.9416
 -85.9413
 -85.9407
 -85.9512
 -85.9507
 -85.9513
 -85.9507
 -85.9541
 -85.9545
 -85.9549
 -85.9542
 -85.9535
 -85.9535
 -85.9536
 -85.9539
 -85.9368
 -85.9362
 -85.9365
 -85.9361
 -85.9471
 -85.9467
 -85.929
 -85.9284
 -85.9286
 -85.9281
 -85.9439
 -85.9434
 -85.9431
 -85.9586
 -85.924
 -85.9242
 -85.9242
 -85.9234
 -85.9457
 -85.946
 -85.9457
 -85.9457
 -85.9428
 -85.9434
 -85.943
 -85.9537
 -85.9541
 -85.9541
 -85.9537
 -85.9539
 -85.9537
 -85.9543
 -85.9542
 -85.9533
 -85.9536
 -85.9532
 -85.9529
 -85.9415
 -85.9419
 -85.9413
 -85.9418
 -85.9392
 -85.939
 -85.9387
 -85.9387
 -85.9502
 -85.9503
 -85.9507
 -85.9502
 -85.9442
 -85.9435
 -85.9445
 -85.9441
 -85.9604
 -85.9571
 -85.9572
 -85.9491
 -85.9491
 -85.9444
 -85.944
 -85.9442
 -85.9575
 -85.958
 -85.9577
 -85.9576
 -85.9454
 -85.9452
 -85.9491
 -85.9487
 -85.932
 -85.9326
 -85.9319
 -85.9325
 -85.9415
 -85.9413
 -85.9409
 -85.9411
 -85.9497
 -85.9504
 -85.9498
 -85.9502
 -85.9331
 -85.9325
 -85.933
 -85.9332
 -85.9595
 -85.9593
 -85.9597
 -85.9594
 -85.9572
 -85.9567
 -85.9582
 -85.958
 -85.9576
 -85.9583
 -85.9544
 -85.9547
 -85.9432
 -85.9435
 -85.943
 -85.9249
 -85.9254
 -85.9247
 -85.9248
 -85.9339
 -85.9343
 -85.9344
 -85.9339
 -85.9574
 -85.9577
 -85.9574
 -85.9573
 -85.9521
 -85.9527
 -85.9524
 -85.9478
 -85.9472
 -85.9468
 -85.9474
 -85.9421
 -85.9429
 -85.9423
 -85.9421
 -85.9556
 -85.956
 -85.9559
 -85.9576
 -85.947
 -85.9477
 -85.9413
 -85.9415
 -85.9513
 -85.952
 -85.9512
 -85.9514
 -85.9392
 -85.9386
 -85.9394
 -85.9386
 -85.9389
 -85.9384
 -85.9386
 -85.9257
 -85.9266
 -85.9264
 -85.9262
 -85.942
 -85.9423
 -85.9423
 -85.9427
 -85.9559
 -85.956
 -85.955
 -85.9554
 -85.9552
 -85.9554
 -85.9411
 -85.9411
 -85.9415
 -85.9409
 -85.9535
 -85.9532
 -85.9536
 -85.9515
 -85.9515
 -85.9517
 -85.9512
 -85.9552
 -85.9554
 -85.955
 -85.9556
 -85.9421
 -85.9426
 -85.9425
 -85.9422
 -85.9584
 -85.9579
 -85.9449
 -85.9307
 -85.9309
 -85.9313
 -85.9316
 -85.9533
 -85.9532
 -85.9535
 -85.9339
 -85.9335
 -85.9337
 -85.9333
 -85.9512
 -85.9512
 -85.9511
 -85.9516
 -85.9383
 -85.9383
 -85.9378
 -85.9385
 -85.9403
 -85.9402
 -85.9406
 -85.9407
 -85.9506
 -85.9509
 -85.9509
 -85.9432
 -85.9434
 -85.9431
 -85.9428
 -85.9501
 -85.9499
 -85.9503
 -85.9495
 -85.9486
 -85.9483
 -85.9544
 -85.9545
 -85.9545
 -85.9516
 -85.9517
 -85.9512
 -85.9305
 -85.9305
 -85.9311
 -85.9306
 -85.9391
 -85.9395
 -85.9389
 -85.9397
 -85.9556
 -85.955
 -85.9551
 -85.9551
 -85.9547
 -85.9546
 -85.9405
 -85.9415
 -85.9406
 -85.9517
 -85.9512
 -85.9513
 -85.951
 -85.9515
 -85.9514
 -85.9512
 -85.9417
 -85.9415
 -85.9418
 -85.9419
 -85.9575
 -85.9577
 -85.9434
 -85.9432
 -85.9434
 -85.9437
 -85.9411
 -85.9411
 -85.9413
 -85.9521
 -85.9523
 -85.9463
 -85.946
 -85.9464
 -85.9467
 -85.9388
 -85.9386
 -85.9504
 -85.9503
 -85.9436
 -85.9429
 -85.943
 -85.9434
 -85.9474
 -85.9474
 -85.947
 -85.9478
 -85.9473
 -85.947
 -85.9474
 -85.9356
 -85.9357
 -85.9354
 -85.9364
 -85.9337
 -85.9337
 -85.9341
 -85.934
 -85.9515
 -85.9511
 -85.9506
 -85.951
 -85.9561
 -85.9561
 -85.9558
 -85.9558
 -85.9485
 -85.9488
 -85.9484
 -85.947
 -85.9468
 -85.9465
 -85.9462
 -85.9464
 -85.9538
