 7.02523
 6.79103
 6.84636
 6.69213
 2.18803
 2.13732
 1.98501
 1.90196
 3.56145
 3.74062
 3.51871
 3.73892
 3.3576
 3.52584
 3.59752
 3.67523
 0.159356
 -0.0592436
 0.284935
 0.361341
 0.342587
 0.54899
 0.18906
 0.47207
 7.8846
 8.04573
 7.99413
 7.88846
 7.81335
 7.74873
 7.74775
 7.8564
 0.247192
 0.342676
 0.569889
 0.337395
 0.438674
 0.402166
 0.48476
 0.133586
 8.43836
 8.53498
 8.3854
 8.3564
 3.52706
 3.50526
 3.68901
 3.56907
 6.16953
 6.19416
 6.33142
 6.04089
 2.0433
 2.34263
 2.43928
 2.25022
 4.40922
 4.45653
 4.33905
 4.19524
 7.36027
 7.48449
 7.27089
 7.47608
 1.08713
 0.933146
 1.08696
 0.840617
 3.01551
 3.14196
 2.96096
 3.09955
 4.3516
 4.30066
 4.27049
 4.15084
 1.14531
 1.15636
 1.04475
 0.87831
 7.74331
 7.93403
 7.7314
 7.86711
 -0.411861
 -0.431874
 -0.657461
 -0.677008
 9.82626
 9.91807
 9.92471
 9.79231
 2.59253
 2.49835
 2.70579
 2.73286
 4.65019
 4.77176
 4.60904
 4.54838
 4.08922
 4.05058
 4.1569
 4.21555
 5.46306
 5.26532
 5.17376
 5.43981
 7.41243
 7.54046
 7.39185
 7.40468
 6.27753
 6.32468
 6.48404
 6.38355
 2.27066
 2.30269
 2.39846
 2.53765
 4.55223
 4.25034
 4.6083
 4.50537
 6.15148
 6.00492
 6.01402
 6.14578
 3.03812
 3.25926
 3.017
 3.21377
 2.13668
 2.239
 2.24463
 2.21162
 6.15897
 6.34009
 6.13809
 6.4233
 7.17085
 7.18835
 7.20983
 7.2006
 3.14861
 3.4212
 3.19813
 3.25075
 8.17406
 8.1026
 8.07359
 8.04368
 2.72239
 2.69946
 2.3427
 2.43417
 -1.03018
 -0.795817
 -0.94938
 -0.749091
 3.85171
 3.90469
 3.80915
 4.06797
 2.43137
 2.25308
 2.33075
 2.4225
 7.98395
 7.99013
 7.85659
 8.09495
 3.07479
 3.24025
 3.16874
 2.97063
 0.301027
 0.375211
 0.162582
 0.287014
 6.62669
 6.48547
 6.54773
 6.61213
 3.07231
 2.77409
 2.85253
 2.81356
 7.16619
 7.01737
 7.14134
 7.30334
 6.10178
 6.21659
 6.27777
 6.33123
 4.33739
 4.4872
 4.51612
 4.67377
 7.43789
 7.49759
 7.54809
 7.43015
 4.04155
 4.21469
 4.19495
 4.07473
 5.79746
 5.99466
 5.78182
 6.07202
 3.81711
 3.70425
 3.82943
 3.71106
 6.35159
 6.20417
 6.30847
 6.09122
 3.63757
 3.66719
 3.49474
 3.79318
 2.57503
 2.55843
 2.43442
 2.31138
 2.38505
 2.5207
 2.41584
 2.70578
 6.50898
 6.54006
 6.74192
 6.43286
 5.42621
 5.52472
 5.50561
 5.28638
 9.56159
 9.64374
 9.72406
 9.62016
 6.33768
 6.38452
 6.54204
 6.36467
 4.5994
 4.34441
 4.47
 4.42306
 5.76043
 5.7689
 5.51048
 5.89542
 5.9177
 5.72804
 5.94085
 5.76444
 7.5811
 7.67691
 7.55099
 7.54492
 1.0036
 0.745009
 0.647616
 1.022
 0.238448
 0.142729
 0.0484156
 -0.0182186
 4.17893
 3.94724
 4.34687
 4.21299
 6.26824
 6.31881
 6.19501
 6.40829
 2.68442
 2.58395
 2.47532
 2.69651
 7.66994
 7.99382
 7.86709
 7.86197
 7.75442
 7.87994
 7.94262
 7.72655
 9.83132
 9.92902
 9.80039
 9.82804
 3.7216
 3.49101
 3.63127
 3.43738
 6.60653
 6.41661
 6.3791
 6.58396
 7.00168
 7.12584
 6.93857
 6.89716
 -0.194846
 -0.429599
 -0.339957
 -0.458246
 7.32179
 7.38957
 7.51959
 7.34991
 7.01074
 7.09628
 7.19708
 7.02345
 6.71332
 6.58308
 6.73255
 6.8695
 5.09933
 5.14418
 4.98078
 5.0101
 6.90847
 6.71698
 6.85506
 6.79416
 6.1354
 6.03807
 5.9844
 6.08145
 5.41851
 5.47044
 5.54357
 5.61073
 7.25534
 7.4513
 7.20595
 7.42132
 10.1842
 10.2124
 10.0465
 10.0424
 7.60877
 7.54587
 7.44433
 7.53259
 3.57544
 3.71012
 3.50366
 3.81783
 3.53739
 3.61268
 3.44562
 3.62312
 2.47903
 2.59514
 2.6463
 2.42388
 7.94201
 7.96106
 7.91469
 7.84725
 -0.639316
 -0.616344
 -0.453709
 -0.782964
 2.6711
 2.48283
 2.696
 2.64247
 8.1106
 8.1068
 8.25342
 8.27198
 6.03102
 6.03935
 6.10992
 5.80592
 7.0802
 6.95855
 7.22017
 7.11962
 7.03196
 7.11513
 7.12542
 7.89056
 7.90876
 7.92623
 7.98665
 3.1204
 3.25149
 3.38983
 3.04468
 5.40855
 5.15025
 5.24501
 5.37577
 3.43653
 3.23109
 3.39127
 6.27895
 6.51315
 6.36023
 6.43016
 4.93951
 4.78994
 4.84568
 5.05488
 1.38973
 1.70282
 1.68233
 1.26723
 7.63796
 7.61042
 7.40067
 7.47735
 7.15066
 7.26661
 7.35174
 7.24925
 3.70479
 3.92977
 3.97653
 3.89362
 2.75358
 2.88809
 2.54281
 2.5701
 7.93902
 7.91624
 7.98214
 8.09352
 7.24254
 7.19623
 6.93892
 7.01532
 5.58279
 5.37269
 5.25311
 5.54952
 0.415651
 0.265241
 0.354317
 0.31319
 3.65003
 3.4224
 3.33796
 3.44693
 4.75979
 5.05304
 4.80453
 4.76382
 9.5738
 9.73018
 9.56696
 9.57467
 5.21072
 5.36128
 5.1375
 5.01601
 1.38892
 1.6269
 1.38499
 1.70527
 6.75821
 7.00935
 6.64924
 6.72518
 7.23989
 7.2066
 7.37396
 7.27776
 7.31824
 7.47719
 7.43177
 7.38901
 8.64793
 8.6619
 8.65842
 8.59038
 6.87161
 7.12175
 7.1007
 7.10605
 3.62781
 3.65214
 3.62132
 3.77606
 7.98099
 7.93015
 7.88212
 7.82324
 0.813408
 1.01115
 0.854834
 0.788187
 7.72873
 7.9277
 7.90572
 7.74612
 1.49057
 1.8286
 1.46116
 1.67557
 5.39872
 5.55582
 5.549
 5.42664
 5.86356
 5.69397
 5.63426
 5.80767
 6.52773
 6.52378
 6.29056
 6.46545
 6.86399
 6.86557
 7.00633
 7.04917
 -0.406026
 -0.606305
 -0.673192
 -0.639152
 6.72304
 6.82774
 6.72324
 6.80535
 -0.975659
 -0.782522
 -0.917433
 -0.640863
 2.71056
 2.77274
 2.51339
 2.70541
 9.14613
 8.98308
 9.0169
 9.15075
 0.0206871
 0.0711366
 -0.110852
 -0.190854
 7.34487
 7.16998
 7.32417
 7.46239
 9.12479
 9.21981
 9.26794
 9.13647
 1.95185
 2.0254
 2.13773
 2.02926
 0.0335022
 -0.248059
 -0.0339587
 0.0803785
 4.26104
 4.21576
 4.31069
 4.36189
 2.23796
 2.49219
 2.17489
 2.44873
 7.10423
 7.30182
 7.19312
 7.23278
 3.87081
 3.95106
 3.87582
 3.68919
 5.9897
 6.05668
 5.91353
 5.89672
 7.76898
 7.69026
 7.80421
 7.80576
 8.34032
 8.3731
 8.38255
 8.24221
 5.33287
 5.40746
 5.22229
 5.47116
 4.7506
 4.75963
 4.82211
 4.95048
 7.15036
 7.17635
 7.05002
 7.01183
 7.18448
 7.41147
 7.1989
 7.22849
 3.37245
 3.34276
 3.50452
 3.49446
 0.286494
 0.422394
 0.121097
 0.0612623
 0.698513
 0.845669
 0.6571
 0.60737
 0.821254
 1.07926
 1.02309
 0.880328
 2.92353
 3.05421
 2.86931
 3.07092
 7.19187
 7.4224
 7.24873
 7.31458
 7.10912
 6.98475
 6.94013
 6.91052
 4.82252
 4.9178
 5.14304
 5.17443
 2.73147
 2.84544
 2.53052
 2.67608
 2.8245
 2.9487
 2.86729
 2.70916
 4.27446
 4.45936
 4.31861
 4.27984
 3.64041
 3.45961
 3.68992
 3.64977
 8.15116
 8.16978
 8.08383
 7.94031
 10.6905
 10.7784
 10.6768
 10.8353
 6.71165
 6.72851
 6.91762
 6.806
 10.284
 10.1286
 10.1667
 6.80973
 6.85277
 6.74756
 6.94471
 1.09445
 1.24474
 1.14714
 1.29398
 4.4766
 4.37797
 4.32371
 4.17057
 0.502247
 0.598101
 0.343251
 0.631063
 7.23673
 7.20994
 7.39462
 7.23965
 2.92992
 2.9632
 2.63244
 2.7165
 4.21485
 4.2401
 4.46672
 4.3446
 -0.270625
 -0.405878
 -0.472431
 -0.0807696
 1.87083
 1.91497
 1.81782
 1.61569
 6.679
 6.5015
 6.62131
 6.68612
 2.88572
 2.91108
 3.11233
 2.87003
 1.50384
 1.85039
 1.65858
 1.80049
 9.0957
 9.27577
 9.21763
 9.2651
 4.53609
 4.45846
 4.33647
 4.3095
 1.53871
 1.45227
 1.39953
 1.58612
 3.4522
 3.26504
 3.59226
 3.15074
 1.58683
 1.82912
 1.55613
 1.57603
 7.04211
 6.88428
 6.79298
 6.80677
 1.80686
 1.38978
 1.83581
 1.47137
 5.42898
 5.3258
 5.63428
 5.44177
 5.04912
 4.96749
 4.84036
 5.09302
 1.90286
 1.97562
 2.14333
 1.79131
 -0.943056
 -0.767023
 -0.756774
 -0.884101
 8.17971
 8.0876
 8.00146
 7.94903
 6.21549
 6.04825
 5.96014
 6.1728
 3.78059
 3.91204
 4.00569
 3.94664
 1.94312
 1.79132
 1.83512
 1.7797
 6.64295
 6.7827
 6.719
 6.70602
 7.86528
 7.67949
 7.59261
 7.82528
 2.73938
 2.72527
 3.00832
 2.98138
 3.31918
 3.13513
 3.32691
 3.24505
 -0.046848
 -0.240805
 -0.416338
 -0.0590486
 7.46763
 7.25257
 7.51231
 7.36707
 0.0786746
 -0.118245
 -0.0814408
 0.0421434
 6.23988
 6.04189
 6.17641
 6.23839
 10.5889
 10.6069
 10.5426
 10.5106
 0.926749
 0.793316
 0.674145
 0.777641
 3.13797
 3.01639
 3.25334
 3.45017
 0.996718
 0.970907
 1.12088
 1.14325
 4.90788
 5.12446
 4.96852
 4.88249
 5.31932
 5.21404
 5.1722
 5.29107
 2.20381
 2.47646
 2.44534
 2.36101
 7.21896
 7.13342
 7.30099
 7.18064
 7.52836
 7.43087
 7.41599
 7.49174
 9.75362
 9.82831
 9.83967
 9.86881
 4.11719
 3.97654
 3.89104
 3.79777
 4.71252
 4.80272
 4.47793
 4.69629
 3.52681
 3.84993
 3.62942
 3.46441
 6.1203
 5.85595
 5.83082
 6.15841
 0.150594
 0.167905
 0.0196964
 0.392377
 0.0260946
 -0.348837
 0.0160077
 0.0743616
 3.34996
 3.24664
 3.07222
 3.05843
 11.4941
 11.5145
 11.4699
 11.3926
 5.45247
 5.56678
 5.41662
 5.66523
 5.35267
 5.40461
 5.61301
 5.40369
 5.46144
 5.41876
 5.65322
 5.64157
 1.96445
 2.06462
 1.77389
 2.09273
 9.38526
 9.22286
 9.4759
 9.38905
 9.87773
 9.89173
 9.99917
 10.053
 1.82146
 1.99319
 1.81952
 2.06817
 6.4104
 6.18307
 6.49399
 6.21602
 5.82122
 5.85947
 5.78144
 5.77307
 3.16615
 3.26385
 3.3388
 3.55022
 7.42581
 7.3296
 7.26557
 7.3592
 1.79082
 1.98983
 1.96229
 1.78194
 6.07219
 6.38784
 6.24082
 6.48431
 6.34036
 6.37064
 6.52141
 6.388
 7.87291
 7.96669
 7.79051
 7.98493
 5.62534
 5.38177
 5.52634
 5.35483
 1.34238
 1.21973
 1.24027
 1.40541
 2.94229
 2.70084
 2.61848
 2.8422
 7.38076
 7.40465
 7.25128
 7.2499
 6.66952
 6.44748
 6.44644
 6.66078
 0.704845
 0.609957
 0.451016
 0.551709
 1.94555
 2.1244
 2.02299
 2.08471
 5.28746
 5.36468
 5.48562
 5.35908
 8.00978
 7.97178
 7.9833
 7.91611
 8.79536
 8.5506
 8.60271
 8.76063
 3.27762
 3.49491
 3.59405
 3.39116
 7.69104
 7.84799
 7.70033
 8.01816
 1.02879
 1.31452
 1.30327
 1.05272
 3.79075
 3.49955
 3.66909
 3.84706
 1.68198
 1.74735
 1.8339
 1.73593
 2.7962
 3.06548
 3.04419
 2.87926
 5.39277
 5.50726
 5.38298
 5.25332
 7.05641
 7.35253
 7.2833
 7.15791
 8.52729
 8.28535
 8.49776
 8.47396
 7.96142
 8.17374
 7.94331
 8.01184
 7.11601
 7.30492
 7.34049
 7.24078
 5.06697
 4.99647
 5.00983
 5.3302
 5.09068
 4.99755
 5.0064
 5.19255
 4.86934
 5.04237
 4.71177
 4.89381
 3.3898
 3.51541
 3.30641
 3.34631
 9.26337
 9.42192
 9.35637
 9.37049
 4.34854
 4.29442
 4.3869
 4.17674
 7.41469
 7.59376
 7.51682
 7.47328
 5.86703
 5.61193
 5.79679
 5.65888
 0.182887
 0.568763
 0.240007
 0.340514
 5.08944
 5.19031
 5.19677
 5.28361
 7.72427
 7.81688
 7.7638
 7.948
 5.80873
 5.85322
 5.70008
 5.59802
 7.00622
 6.90517
 6.91585
 7.06595
 5.27567
 5.5168
 5.2667
 5.45865
 9.19773
 9.32087
 9.26137
 9.14243
 5.84787
 5.83329
 5.6787
 5.65453
 3.22112
 3.27816
 3.11648
 3.27806
 3.58859
 3.56592
 3.47745
 3.55358
 0.537387
 0.989655
 0.630488
 0.805393
 6.64815
 6.67583
 6.50364
 6.62535
 7.0498
 6.9313
 7.06995
 6.75289
 0.573054
 0.880877
 0.570399
 0.626052
 6.98311
 6.97906
 6.79238
 6.9762
 1.43202
 1.52205
 1.27675
 1.53892
 4.42022
 4.12175
 4.30217
 4.16864
 5.09124
 5.37563
 5.11198
 5.04276
 7.15518
 6.96972
 6.99482
 7.16089
 5.26514
 5.2663
 5.02978
 5.25511
 1.3297
 1.40865
 1.30631
 1.27886
 10.6835
 10.6384
 10.6032
 10.7739
 8.07502
 8.10973
 8.1103
 8.05891
 7.93475
 7.90607
 7.93998
 8.05613
 6.40171
 6.31895
 6.49846
 6.23878
 5.87189
 6.02629
 5.90897
 6.00113
 6.58237
 6.68203
 6.72666
 6.5618
 -0.0560961
 0.0535679
 -0.332388
 0.083129
 7.23205
 7.34781
 7.33456
 7.10148
 3.58336
 3.56069
 3.48063
 3.70867
 4.98021
 1.84073
 2.09178
 2.04531
 2.08942
 3.85571
 3.67456
 3.5207
 3.6567
 8.29525
 8.19652
 8.15866
 8.23224
 6.23263
 6.31347
 6.16687
 6.04431
 6.75497
 6.93333
 6.80951
 6.78596
 1.35703
 1.60594
 1.5672
 1.54039
 5.64985
 5.94154
 5.73641
 5.82231
 1.13625
 1.0952
 1.3659
 1.32777
 2.88809
 2.75062
 2.98596
 2.69003
 8.22424
 8.11456
 8.1792
 7.98128
 7.15484
 7.34085
 7.03428
 7.15949
 3.34005
 3.19707
 3.16839
 3.33497
 5.20853
 5.45844
 5.20087
 7.81168
 7.8925
 7.83137
 7.7436
 3.30453
 3.67549
 3.43248
 3.61475
 6.80514
 7.00747
 6.98094
 6.87356
 5.25258
 5.54177
 5.39352
 5.22846
 0.796445
 0.79716
 1.13751
 0.854538
 6.44075
 6.51614
 6.6259
 6.47072
 1.88338
 2.15849
 1.93422
 1.84745
 4.89577
 5.03953
 4.90154
 5.12983
 2.34258
 2.49354
 2.69387
 2.55489
 1.05486
 1.05068
 0.782788
 0.903975
 6.32258
 6.34982
 6.20406
 6.21686
 10.615
 10.4177
 10.4415
 10.3383
 -0.375997
 -0.21688
 -0.226429
 -0.178413
 3.51186
 3.61105
 3.71011
 3.58499
 7.4605
 7.48093
 7.162
 7.41053
 5.84476
 5.69181
 5.66034
 5.85622
 8.96905
 8.92675
 8.93954
 9.06796
 1.0828
 0.947913
 0.655874
 0.888786
 7.8891
 7.99333
 7.93958
 7.92083
 4.2378
 4.04125
 4.33119
 4.18374
 7.27713
 7.60237
 7.3463
 7.35947
 -0.63927
 -0.595381
 -0.614592
 -0.355032
 -0.377726
 -0.317667
 -0.164086
 -0.000859361
 2.73734
 2.95541
 3.01701
 2.68831
 4.10308
 4.02228
 4.08294
 4.24356
 4.03938
 7.61617
 7.58181
 7.77916
 7.65066
 7.37011
 7.43548
 7.49176
 7.31425
 3.24547
 3.03779
 3.02757
 3.00992
 7.67406
 7.53459
 7.53183
 7.68147
 6.98988
 7.04418
 7.07089
 6.90474
 2.83835
 2.75645
 2.79284
 3.0057
 6.20113
 5.97481
 6.20031
 5.98116
 3.2073
 3.18765
 3.15744
 2.99936
 6.90889
 6.95287
 7.09118
 6.92834
 6.44357
 6.31694
 6.27963
 6.26083
 5.50234
 5.30327
 5.57686
 5.37112
 4.15324
 3.91404
 4.04779
 3.82091
 2.11764
 2.23359
 1.89384
 1.93827
 4.39512
 4.4568
 4.57218
 4.54659
 4.43846
 4.32787
 4.27388
 4.32068
 8.2946
 8.2988
 8.21134
 8.15766
 3.54796
 3.51481
 3.41803
 3.48636
 4.96022
 4.91485
 4.82368
 4.9707
 4.72758
 4.74575
 4.88806
 4.7678
 6.15779
 6.10377
 6.30464
 6.17738
 7.82928
 7.84702
 7.75968
 7.98266
 2.53467
 2.58116
 2.45263
 2.40323
 7.76811
 7.89426
 7.8501
 7.64553
 -0.096649
 -0.0749735
 -0.386168
 -0.207712
 1.98284
 2.14361
 1.85265
 1.95592
 1.85556
 1.82297
 1.81601
 1.89755
 1.61955
 1.71054
 1.7388
 1.48446
 2.91642
 2.80995
 3.02116
 2.80706
 8.94869
 9.04053
 9.19489
 4.51191
 4.79844
 4.55365
 4.59455
 2.12957
 2.22136
 2.29475
 2.13884
 6.26537
 6.4742
 6.3621
 6.31308
 6.91732
 6.86784
 6.98535
 6.84309
 2.78334
 2.74592
 2.57047
 2.98132
 5.53976
 5.59191
 5.51536
 5.34658
 6.75616
 6.74286
 6.81057
 6.83775
 0.0234915
 -0.27497
 3.66009
 3.69228
 3.91584
 3.88813
 5.42307
 5.48392
 5.60017
 4.31604
 4.24904
 4.28745
 4.48816
 8.56469
 8.62014
 8.44739
 8.46782
 1.87887
 1.70837
 1.71254
 1.96506
 4.38625
 4.44061
 4.56087
 4.53425
 6.28513
 6.44549
 6.35505
 6.19043
 4.63269
 4.84374
 4.77585
 4.68447
 7.73537
 7.81842
 7.67746
 7.74975
 8.1241
 7.84599
 8.04884
 7.99791
 5.55652
 5.3984
 5.33971
 5.45384
 7.66358
 7.70358
 7.67777
 7.54832
 5.29169
 5.39538
 5.35469
 5.4312
 1.56981
 1.62377
 1.88166
 1.91019
 7.5682
 7.46866
 7.39959
 7.50474
 9.70783
 9.57097
 9.66053
 9.58338
 3.81417
 4.20108
 3.96948
 3.89261
 5.78979
 5.65174
 5.82268
 5.65301
 7.75165
 7.77834
 7.61701
 7.65065
 5.40243
 5.50898
 5.30043
 5.32676
 0.878482
 0.95406
 0.807877
 0.855729
 7.08166
 7.09227
 7.17694
 7.09054
 3.89505
 4.03602
 4.03175
 4.0918
 5.88159
 5.66952
 5.81754
 5.54718
 2.99231
 2.83749
 2.85776
 2.69054
 1.63323
 1.66488
 1.53679
 1.74203
 7.48576
 7.34353
 7.43584
 7.18902
 6.51794
 6.38167
 6.41704
 6.457
 4.13941
 4.16219
 4.42154
 4.25833
 7.83717
 7.77354
 7.79783
 7.7466
 10.5971
 10.713
 10.7036
 10.6328
 4.67827
 4.85596
 4.85604
 4.88164
 10.8829
 10.9162
 10.86
 10.768
 10.6395
 10.4935
 10.5002
 10.5718
 8.48246
 8.37957
 8.40028
 8.52875
 3.51441
 3.6671
 3.79812
 3.88013
 3.64007
 3.46426
 3.45418
 3.30915
 3.31446
 3.48311
 3.35266
 3.58418
 3.87235
 4.10125
 4.05382
 3.79432
 9.15535
 9.26764
 9.18734
 9.20917
 7.47198
 7.55516
 7.37175
 7.44245
 7.50322
 7.69605
 7.66109
 7.64014
 6.1402
 5.9324
 6.12806
 5.91306
 4.42084
 4.54493
 4.4122
 4.5092
 2.97376
 3.01499
 3.11273
 2.93804
 7.21508
 7.02187
 6.97853
 7.17233
 3.4672
 5.39938
 5.24811
 5.24888
 5.36421
 -0.419289
 -0.481373
 -0.754937
 -0.584436
 5.70589
 5.68988
 5.55248
 5.68701
 1.1444
 0.853552
 1.06679
 7.58859
 7.4973
 7.43415
 7.61772
 10.2707
 10.14
 10.1938
 10.1126
 5.15942
 5.18127
 4.94032
 5.29316
 6.17728
 6.42413
 6.36946
 6.39781
 7.66187
 7.55253
 7.45049
 7.40192
 7.36443
 7.30595
 7.45016
 7.28632
 8.68264
 8.89763
 8.76813
 8.76617
 4.17344
 4.21254
 4.06883
 3.77387
 5.22331
 5.01482
 5.27547
 5.10984
 6.66074
 6.82277
 6.66936
 6.73381
 5.521
 5.66637
 5.29754
 2.56906
 2.69132
 2.73381
 7.07442
 7.05605
 7.27765
 7.31673
 8.67289
 8.73276
 8.72889
 8.67663
 6.78418
 6.66627
 6.68084
 6.82464
 8.51559
 8.6639
 8.4842
 8.72295
 2.42803
 2.09639
 2.34104
 2.27261
 2.76072
 2.66987
 2.60166
 2.46581
 7.83704
 7.8988
 7.86987
 7.89146
 8.85723
 9.05295
 8.92089
 8.86509
 4.60488
 4.87382
 4.64962
 4.75501
 0.266962
 0.489661
 0.170484
 0.439368
 8.62666
 8.63089
 8.71014
 8.61953
 3.49123
 3.71033
 3.72668
 3.44663
 9.80869
 9.89719
 9.80133
 9.86551
 2.99804
 2.86678
 3.04836
 2.69323
 5.99893
 6.1525
 5.91608
 6.19669
 2.45525
 2.44378
 2.22215
 2.24219
 7.64102
 7.58423
 7.55476
 7.40079
 6.34644
 6.49905
 6.47722
 6.48936
 6.99612
 7.05776
 6.87659
 6.88093
 6.83807
 6.90204
 6.69825
 6.99409
 4.67802
 4.54512
 4.57506
 4.75893
 5.66234
 5.82509
 5.63467
 5.64733
 2.10826
 2.30294
 2.43295
 2.36523
 -0.108169
 -0.303746
 0.126982
 0.140241
 5.85533
 5.87677
 6.01756
 5.8956
 1.59433
 1.67939
 1.78369
 1.44017
 3.14718
 2.85503
 2.73502
 2.89458
 9.18244
 9.25878
 9.40032
 9.20616
 7.83016
 7.54058
 7.59913
 7.68741
 6.05829
 6.18791
 6.24002
 6.16697
 8.61997
 8.72607
 8.75726
 8.83511
 4.48725
 4.26726
 4.29568
 4.38667
 2.44373
 2.04625
 2.26563
 2.22382
 8.52817
 8.30953
 8.51295
 8.53094
 5.46063
 5.29803
 5.41517
 5.38249
 6.78448
 6.80464
 6.79867
 6.88694
 10.5344
 10.4313
 10.4096
 10.5211
 6.36907
 6.39821
 6.41104
 6.24535
 5.23557
 5.10623
 5.13912
 5.07975
 3.27119
 3.06157
 3.20087
 2.99873
 6.9709
 6.92773
 6.88702
 5.21563
 5.25315
 5.30642
 5.25518
 6.49309
 6.55579
 6.27582
 6.44434
 3.64953
 3.84613
 3.67329
 3.75577
 3.5821
 3.34688
 3.39768
 3.43575
 1.18253
 1.36796
 1.24582
 1.5112
 7.35416
 7.34319
 7.22716
 7.38215
 0.352401
 0.274275
 0.176943
 0.301545
 7.08227
 6.92699
 7.06358
 7.15418
 5.24661
 5.02718
 5.05452
 4.93211
 4.98441
 5.20668
 5.12215
 5.24259
 10.7576
 10.872
 10.7628
 10.7918
 6.58306
 6.69493
 6.56817
 6.53929
 5.33954
 5.38092
 5.19983
 4.98119
 5.49973
 5.44419
 5.41095
 5.66508
 -0.393097
 -0.378584
 -0.152246
 -0.336513
 7.08893
 6.90745
 6.80284
 7.03861
 6.84951
 6.95471
 6.75902
 7.00083
 3.11143
 2.87843
 3.06573
 2.95202
 7.53934
 7.5712
 7.66707
 7.68367
 7.5762
 7.61121
 7.50484
 7.6237
 3.71117
 3.97765
 3.73535
 3.88819
 3.59611
 3.59392
 3.77763
 3.59049
 4.84045
 4.81888
 4.52208
 4.63988
 6.92462
 7.01222
 4.1592
 4.32568
 4.06012
 4.27872
 6.87938
 6.78292
 6.88015
 6.8354
 5.92634
 5.72657
 5.65949
 5.7258
 1.03992
 1.18028
 1.28603
 1.00587
 5.76286
 5.70415
 5.60699
 5.56996
 2.71526
 2.54955
 2.45387
 2.77431
 7.17478
 6.88902
 6.98909
 6.90328
 6.22748
 6.39679
 6.42282
 6.34203
 5.38708
 5.0552
 5.23398
 5.19027
 7.42303
 7.57179
 7.63019
 7.52517
 9.61758
 9.56531
 9.63792
 9.71294
 0.534037
 0.58869
 0.687167
 0.596492
 8.53146
 8.54397
 8.47043
 8.58706
 4.35854
 4.27584
 4.4858
 4.47256
 9.62269
 9.6078
 9.53289
 9.67804
 4.28941
 4.08308
 4.22306
 4.24886
 7.0453
 7.06473
 7.12398
 7.10263
 7.11449
 7.06569
 7.23203
 7.13214
 4.77718
 4.70022
 4.93466
 4.78829
 1.96924
 2.20914
 2.0125
 2.25271
 6.29728
 6.01848
 6.06551
 6.06322
 7.87537
 7.92697
 7.86737
 7.79154
 2.06353
 1.73321
 1.89733
 1.663
 7.02077
 7.14318
 6.92655
 6.90954
 6.1717
 5.99218
 6.03986
 5.93011
 3.06966
 2.64421
 2.74214
 2.88453
 4.96541
 4.7736
 4.71953
 4.71653
 5.60613
 5.69026
 5.58464
 5.48424
 1.0737
 0.914577
 0.795215
 0.712276
 1.92576
 1.83696
 1.85254
 1.96567
 4.53964
 4.50091
 4.76524
 4.65825
 5.62099
 5.51495
 5.69971
 5.30392
 6.5648
 6.50472
 6.49414
 6.26022
 7.88066
 7.89398
 8.01448
 2.74981
 2.61838
 2.65914
 2.48504
 9.71606
 9.80538
 9.93185
 9.90088
 3.40923
 3.677
 3.53331
 3.58565
 7.31759
 7.53103
 7.41573
 7.40057
 7.67544
 7.83803
 7.79117
 7.81044
 1.58307
 1.8194
 1.70277
 1.38161
 5.00849
 5.12519
 4.93457
 5.06975
 5.48402
 5.54991
 6.89778
 5.86957
 5.67574
 5.9039
 5.77674
 9.61988
 9.50664
 3.75643
 3.67094
 3.59006
 8.18135
 8.09375
 8.29882
 8.17794
 3.58486
 3.8188
 3.74801
 3.73814
 6.17075
 5.98948
 6.04246
 6.05894
 6.96804
 6.7054
 6.86191
 6.83317
 1.22991
 1.22643
 0.913864
 1.14297
 8.1402
 7.98878
 8.15394
 7.97244
 3.99703
 3.9952
 3.93133
 3.80395
 0.628204
 0.578578
 0.868224
 0.866973
 5.05063
 5.26461
 5.08585
 5.22438
 3.88424
 4.20008
 4.09479
 4.10203
 5.43655
 5.27202
 5.41369
 5.69786
 -0.472886
 -0.00671819
 -0.397489
 -0.00254451
 -0.0565139
 -0.071425
 0.0597429
 0.252037
 0.342243
 0.452958
 0.460454
 0.316883
 5.91477
 6.07732
 5.89249
 5.91484
 4.45042
 4.71424
 4.61189
 4.4964
 5.67218
 5.69795
 5.83433
 5.72753
 6.01727
 6.07233
 5.84255
 6.08433
 3.48678
 3.42265
 3.38945
 3.62918
 2.08252
 1.82219
 1.92959
 1.78751
 2.02534
 1.93263
 2.17117
 1.82804
 5.005
 4.89871
 5.04746
 4.91851
 5.56154
 5.55687
 5.62288
 5.71246
 7.10915
 7.20582
 7.1468
 6.96157
 2.88456
 2.68947
 2.68165
 2.95192
 8.5494
 8.53594
 8.67959
 8.48742
 2.63086
 2.4963
 2.64026
 2.68127
 4.71155
 4.38257
 4.69159
 4.45805
 4.80868
 4.73773
 4.77217
 4.92512
 7.99016
 8.0082
 8.08641
 8.21043
 11.0881
 10.9979
 11.1223
 11.1082
 6.49667
 6.31937
 6.49381
 6.45585
 2.56366
 2.84096
 2.74573
 2.57385
 7.63576
 7.78829
 7.67917
 7.56395
 4.43483
 4.32576
 4.56511
 4.31832
 4.18522
 4.02812
 3.82338
 3.90218
 3.07902
 2.96388
 3.28603
 3.18757
 8.84893
 8.93632
 8.93786
 8.82614
 8.80646
 8.78713
 8.85656
 8.88741
 2.52595
 2.20009
 2.32096
 2.36018
 3.45952
 3.76878
 3.78177
 3.5893
 6.6109
 6.58547
 6.68451
 6.67626
 5.37322
 5.43222
 5.25166
 5.14729
 4.79312
 4.75
 4.76885
 4.86993
 6.6383
 6.77109
 6.48117
 6.72052
 3.90256
 4.03552
 3.99571
 4.14702
 -1.28776
 -1.00946
 -1.22301
 -1.26431
 4.28271
 4.029
 4.05682
 3.91969
 5.32883
 5.23254
 5.37309
 5.13406
 5.26638
 5.27869
 5.44625
 5.26663
 4.76181
 4.62284
 4.74123
 4.91581
 0.356889
 0.352983
 0.561646
 0.374563
 2.14519
 2.34642
 2.2153
 3.95352
 3.95498
 3.82948
 3.98313
 7.84149
 7.86135
 7.72136
 7.87642
 5.99527
 5.98815
 6.13564
 5.93404
 2.09529
 2.38809
 2.45571
 2.37711
 7.10583
 7.04157
 7.0072
 6.93395
 6.29213
 6.42187
 6.43594
 6.24879
 6.05444
 6.13935
 6.34879
 6.16494
 3.50339
 3.65251
 3.70514
 3.68871
 4.65111
 4.81859
 4.62784
 4.97431
 3.94252
 4.31011
 4.17153
 4.11368
 7.55601
 7.47362
 7.45516
 7.52631
 6.21444
 6.09156
 6.05069
 6.22609
 3.71454
 3.87223
 3.6744
 3.49393
 6.36497
 6.28624
 6.18425
 6.44222
 4.28951
 4.08937
 4.08989
 4.2021
 7.63979
 7.69842
 7.59845
 7.72483
 0.845305
 0.761986
 1.01943
 0.845993
 7.16768
 7.28412
 7.11652
 7.04958
 7.34341
 7.65071
 7.45949
 7.4583
 3.08359
 3.08229
 2.92464
 2.86979
 7.15933
 7.12121
 7.08704
 7.10714
 4.20985
 4.30047
 4.21062
 4.41713
 8.07838
 8.0584
 8.25376
 8.21843
 4.80981
 4.91203
 4.87048
 4.6718
 1.25361
 0.870129
 1.18712
 0.978558
 4.6823
 4.9538
 4.95556
 4.81047
 3.16119
 3.06179
 3.15422
 3.17023
 4.22604
 4.30773
 4.24593
 4.13462
 4.29148
 4.22325
 4.16157
 4.00381
 0.469415
 0.444769
 0.354224
 0.721175
 7.46544
 7.56737
 7.6477
 7.66737
 7.27177
 7.34335
 7.48643
 7.34988
 1.71871
 1.70062
 1.84928
 1.5132
 1.27766
 1.14684
 1.29097
 6.74882
 6.81904
 6.82773
 6.70502
 4.15389
 3.91769
 4.13487
 4.16767
 4.43967
 4.36965
 4.5847
 4.34336
 7.34831
 7.21066
 7.44893
 7.33126
 3.06302
 2.90757
 2.96355
 2.92358
 5.4989
 5.70623
 5.68457
 5.47079
 4.75868
 4.97556
 4.94735
 5.01091
 2.87328
 2.69984
 2.67089
 2.72593
 7.98585
 8.05075
 7.97252
 7.89386
 6.68282
 6.88201
 6.83511
 6.83444
 0.293436
 0.632668
 0.359456
 0.457448
 7.46375
 7.48848
 7.4355
 7.20404
 7.96847
 8.03997
 8.0093
 7.99126
 5.44354
 5.36505
 5.46089
 5.2001
 9.62718
 9.57707
 9.67474
 9.48723
 5.00025
 4.96261
 5.06552
 4.97825
 2.6719
 2.77149
 2.83519
 2.87728
 1.96977
 2.12096
 2.04965
 8.15459
 8.13477
 8.07973
 8.13766
 7.1085
 6.91835
 7.14473
 6.96285
 7.35923
 7.41676
 7.49299
 7.53846
 6.82882
 6.9576
 6.87732
 6.91544
 0.0627948
 -0.0871702
 -0.183028
 -0.126205
 7.90709
 7.89801
 7.95233
 8.05556
 6.97365
 7.10436
 6.99637
 6.80761
 2.12972
 1.99087
 2.14112
 2.23345
 6.30232
 6.36712
 6.24036
 6.8166
 6.98966
 6.8468
 4.61541
 4.78684
 4.94599
 9.33413
 9.1693
 9.14239
 9.27668
 4.95249
 4.83957
 4.92063
 4.76601
 5.03335
 4.92956
 5.20985
 5.15621
 1.65126
 1.5077
 1.74884
 1.79157
 1.02139
 1.10815
 0.680803
 1.07929
 7.48145
 7.62123
 7.63843
 7.36676
 4.52163
 4.30351
 4.29242
 4.36039
 4.5247
 4.3654
 4.27762
 4.34082
 5.4789
 5.23442
 5.34132
 5.17937
 6.41452
 6.3287
 6.30901
 6.53876
 4.57767
 4.77947
 4.64926
 4.56049
 7.51984
 7.47889
 7.5522
 7.43094
 1.38713
 1.48109
 1.37433
 1.31669
 6.83719
 6.87197
 6.79103
 6.69634
 1.985
 2.19445
 2.05956
 2.04645
 0.781546
 0.924516
 1.07868
 0.838441
 1.06536
 1.13872
 1.14897
 1.20948
 7.16084
 7.27937
 3.35031
 3.39692
 3.53879
 3.43079
 7.38068
 7.15889
 7.27042
 7.33957
 2.77442
 2.39446
 2.52469
 2.445
 1.95821
 2.15507
 1.86803
 2.13359
 6.56947
 6.44962
 6.42527
 6.51679
 4.67759
 4.69571
 4.51206
 4.59742
 6.87421
 6.86047
 6.73272
 6.85569
 5.86324
 5.86737
 5.83439
 5.674
 10.3739
 10.1725
 10.4139
 10.2359
 1.34927
 1.48002
 1.15408
 1.39302
 6.75877
 6.90515
 6.71406
 6.62887
 8.15112
 8.26961
 8.26382
 8.1014
 5.64743
 5.73076
 5.54731
 5.48768
 8.0191
 8.22729
 8.2777
 8.01673
 5.77805
 5.98137
 6.03663
 5.86791
 3.29526
 3.36817
 3.12281
 3.4496
 5.35354
 5.48483
 5.48473
 5.40499
 1.61933
 1.25835
 1.61057
 5.61098
 5.4281
 5.66701
 5.4618
 10.4268
 10.494
 10.485
 10.5426
 -0.157845
 -0.231189
 -0.319971
 -0.15336
 4.85605
 4.88368
 4.76716
 4.9189
 2.73156
 2.8821
 3.0604
 2.82363
 7.57218
 7.42427
 7.78494
 7.6284
 6.44144
 6.29922
 6.58063
 6.41255
 6.42917
 6.17059
 6.31147
 6.18296
 1.07867
 1.24994
 1.0392
 0.88908
 6.23439
 6.37732
 6.48126
 6.42631
 -0.0345903
 0.0512857
 -0.103248
 0.183563
 3.49054
 3.72901
 3.73343
 3.47139
 7.46719
 7.42968
 7.36515
 7.45576
 9.7063
 9.66347
 9.54685
 9.74686
 5.81274
 6.07323
 5.91644
 6.12307
 5.25686
 5.25609
 5.08921
 5.29299
 3.11396
 3.115
 3.23663
 3.42659
 10.2651
 10.3892
 10.2086
 10.295
 5.79405
 5.935
 5.69313
 5.76287
 0.406094
 0.570205
 0.607318
 0.554976
 2.36432
 2.17541
 2.25467
 2.33282
 2.31571
 2.33353
 2.12972
 2.40254
 2.40485
 2.58607
 2.64531
 2.54915
 2.24068
 1.94122
 2.11354
 2.13826
 4.2539
 4.17094
 4.25665
 4.26018
 7.24929
 6.98374
 6.80385
 6.76948
 6.88802
 3.68917
 3.93179
 3.84649
 3.86523
 3.72852
 3.67137
 3.94735
 3.9083
 8.68711
 8.61237
 8.62818
 8.68731
 1.69105
 1.6907
 1.79578
 1.684
 2.79103
 2.60486
 2.38636
 2.53905
 7.48706
 7.25238
 7.29153
 7.05157
 7.0521
 7.08983
 6.96733
 6.85502
 6.89811
 6.77895
 7.19374
 7.38859
 7.62616
 7.486
 3.74504
 3.51838
 3.58117
 3.78648
 0.293577
 0.237643
 0.341921
 0.232246
 5.26264
 5.35424
 5.2188
 5.45285
 0.934716
 1.31275
 1.42789
 1.45129
 5.7483
 5.79116
 5.87267
 5.67702
 3.70062
 3.89155
 4.01595
 3.98538
 7.36184
 7.39193
 7.42374
 7.55995
 4.6141
 4.38729
 4.69908
 4.51814
 4.23665
 3.99896
 3.88096
 4.20889
 7.19893
 7.27313
 7.41973
 7.34267
 6.29438
 6.40789
 6.06693
 6.18754
 5.65745
 5.68263
 5.82945
 5.93195
 4.48147
 4.38826
 4.47082
 4.37181
 8.40325
 8.38187
 8.32546
 8.20484
 3.97097
 4.18719
 4.06317
 3.92242
 6.25521
 6.47063
 6.22158
 6.12284
 3.38418
 3.43522
 3.3892
 3.54396
 1.61278
 1.82115
 1.65
 1.75419
 0.872126
 1.01841
 1.02374
 0.950142
 0.983065
 0.832097
 1.23422
 -0.120704
 -0.2604
 -0.370641
 -0.463721
 2.26512
 2.50658
 2.73884
 2.4406
 5.3124
 5.35522
 5.21399
 5.24373
 0.788934
 0.9479
 1.09711
 0.835342
 5.01402
 4.99753
 5.11391
 5.1418
 4.37368
 4.2628
 4.3229
 1.29521
 1.08922
 1.21405
 1.23797
 1.46125
 1.68554
 1.59406
 4.6136
 4.68866
 4.51707
 4.45736
 6.3604
 6.27283
 6.38598
 6.14529
 3.55203
 3.71374
 3.77084
 3.80451
 1.02545
 0.861212
 0.982146
 1.0798
 6.93278
 6.98037
 6.89726
 7.05969
 5.41611
 5.47917
 5.61309
 5.6649
 5.11082
 4.83597
 5.1204
 5.10001
 3.27329
 3.48153
 3.33247
 3.31249
 7.0013
 7.11513
 6.87355
 7.08316
 7.59734
 7.72411
 7.58514
 7.61213
 5.21669
 5.21504
 5.24508
 5.05985
 0.0937105
 0.238494
 0.262793
 0.214564
 6.75818
 6.95451
 6.73332
 6.84999
 7.45438
 7.31208
 7.50022
 7.32351
 4.01939
 4.29245
 4.01722
 4.05112
 6.82756
 6.75414
 6.85618
 7.5796
 7.44067
 7.5001
 4.42091
 4.56932
 4.25583
 4.50002
 7.34364
 7.41098
 7.53116
 7.35557
 7.42282
 7.60715
 7.45973
 7.46138
 3.93884
 3.87892
 3.992
 7.19345
 7.22026
 1.81836
 1.77431
 1.43666
 1.40259
 3.56137
 3.25047
 3.25809
 3.36262
 8.44055
 8.31963
 8.5428
 8.27587
 9.36187
 9.31087
 9.47319
 9.31631
 6.743
 7.04837
 6.867
 6.84586
 1.35596
 1.35851
 1.23357
 1.33307
 3.61423
 3.7626
 3.86056
 3.77129
 8.04394
 8.08041
 8.08876
 8.11023
 6.83489
 6.81979
 6.72952
 6.60719
 6.76266
 6.72493
 6.76569
 7.19787
 7.077
 7.05602
 7.05859
 7.09012
 7.21226
 7.04839
 7.00421
 7.54088
 7.71863
 7.57552
 7.69152
 0.707795
 0.499094
 0.658122
 0.657495
 0.841232
 0.625239
 0.97562
 5.33551
 5.46568
 5.31098
 5.5277
 6.89642
 7.1133
 6.86551
 6.92774
 -0.168201
 -0.343968
 7.56695
 7.67738
 7.64878
 7.7465
 4.72082
 4.38294
 4.60299
 4.44832
 4.07546
 4.15078
 7.34672
 7.38451
 7.22
 7.33918
 0.722924
 0.554803
 0.816759
 0.397923
 0.0939247
 0.273646
 0.137886
 -0.220608
 5.70093
 5.61833
 5.68629
 8.66705
 8.54312
 8.60197
 7.07103
 6.85708
 7.08739
 7.03798
 2.83094
 3.04206
 2.67755
 3.0094
 6.44698
 6.5765
 6.61764
 6.72706
 6.69782
 6.79238
 6.62995
 6.82584
 3.68304
 3.69422
 3.60284
 3.35643
 10.1394
 10.0442
 10.1581
 10.2689
 3.13953
 3.09572
 2.9005
 2.93818
 2.97738
 3.00582
 2.82485
 2.74093
 7.62426
 7.61579
 7.83871
 7.67347
 1.50391
 1.36821
 1.33764
 1.56094
 10.3932
 10.5453
 10.5368
 10.6438
 0.802606
 1.24933
 1.23498
 1.26033
 2.09943
 2.30191
 6.7044
 6.58738
 6.62025
 6.49454
 7.7957
 7.95354
 7.86026
 7.73773
 1.66061
 1.45891
 1.50166
 1.58949
 6.47324
 6.42695
 6.4391
 6.55104
 0.0395317
 0.191704
 0.0864331
 6.94639
 7.09074
 7.15287
 7.99818
 7.81534
 7.77258
 0.948051
 0.83
 0.900998
 0.98928
 6.91397
 7.01373
 7.01829
 7.0077
 1.54931
 1.52607
 8.05329
 7.93786
 8.06031
 8.02009
 5.11724
 4.91709
 4.92152
 5.0856
 6.69283
 6.77488
 6.03264
 5.68489
 5.72249
 5.92112
 6.62878
 6.65508
 6.63863
 6.81486
 0.109473
 -0.123821
 0.225894
 0.121956
 7.8667
 7.93917
 7.90406
 2.28039
 10.3245
 10.3635
 10.3526
 10.4059
 1.61722
 1.56975
 1.43825
 1.82436
 6.67755
 6.65861
 6.36563
 6.44437
 3.07982
 3.1912
 3.15872
 3.11057
 6.66959
 6.79254
 6.86719
 6.71177
 3.77285
 8.67097
 8.71076
 8.71179
 8.65212
 3.73839
 3.7376
 3.79586
 3.95995
 2.21949
 2.11278
 1.98979
 2.3971
 2.2799
 2.52159
 2.24338
 1.55194
 1.2979
 1.46672
 1.44019
 7.53499
 7.4762
 7.28733
 7.38469
 1.57385
 1.57325
 1.60633
 1.38992
 8.11275
 8.13991
 8.10754
 8.27312
 1.80256
 1.66534
 1.58401
 1.57804
 5.43613
 5.54273
 5.56831
 5.61803
 3.17992
 3.04534
 2.97451
 2.92288
 4.62577
 4.72532
 4.78806
 4.84627
 0.690003
 1.02024
 4.92989
 5.10624
 5.07312
 4.93617
 8.54696
 8.61297
 8.42466
 8.61009
 8.06868
 8.13328
 7.90848
 8.10119
 4.64419
 4.47577
 4.44609
 4.43076
 2.99283
 3.00349
 3.0372
 2.76592
 2.5559
 2.76584
 2.63112
 2.49942
 1.19891
 1.4577
 1.37858
 1.5458
 2.56366
 2.27073
 2.43161
 2.5559
 8.04151
 8.05029
 7.94735
 8.15092
 7.39162
 7.40862
 7.44207
 7.19975
 -0.325903
 -0.141312
 -0.0710608
 -0.0918863
 4.35109
 4.24755
 4.30278
 4.002
 7.17966
 6.97178
 7.16388
 7.04122
 9.79717
 9.81894
 9.65445
 9.88245
 1.54063
 1.43274
 1.64826
 1.20079
 7.0847
 7.04575
 7.0021
 6.89074
 5.8903
 5.72822
 5.99708
 5.8504
 8.25712
 8.30305
 8.27162
 8.15422
 3.93032
 4.04556
 3.95107
 3.93551
 1.03102
 1.01474
 1.10512
 1.03456
 4.27575
 4.57056
 4.46658
 4.51961
 5.68087
 5.62893
 5.4543
 5.55366
 8.41809
 8.33902
 8.26667
 8.48916
 1.00077
 3.43782
 3.27957
 3.53111
 3.28148
 5.86687
 5.95755
 6.11441
 6.03519
 2.88206
 2.75245
 2.79162
 2.59946
 7.12574
 7.26978
 7.19212
 7.07537
 4.01599
 3.8736
 4.10962
 8.53046
 8.31614
 8.478
 8.48623
 2.12322
 2.53725
 2.28632
 2.4098
 7.82375
 7.85382
 7.73624
 7.82527
 -1.00977
 -0.91893
 -0.985997
 -1.14005
 7.09095
 7.06388
 7.03821
 7.06656
 9.45305
 9.13508
 9.1675
 9.28535
 8.58095
 8.59924
 8.47178
 8.47504
 -0.250573
 -0.115997
 -0.0418679
 0.0323212
 0.637498
 0.653001
 0.518589
 0.490518
 5.3342
 5.16124
 5.23286
 5.13724
 6.8808
 6.93419
 6.82459
 4.76746
 4.79219
 5.0527
 4.95892
 3.51963
 3.62975
 3.37926
 3.37995
 4.67954
 4.30203
 4.4291
 4.47328
 5.04512
 4.99978
 4.67066
 4.82984
 -0.243495
 -0.0597105
 -0.0692159
 0.0225543
 7.4842
 7.55379
 7.31054
 7.48078
 8.53832
 8.789
 8.76178
 2.98778
 3.12498
 3.08256
 3.19384
 1.80243
 1.58698
 1.72843
 1.77523
 7.0774
 7.10936
 7.04342
 7.42024
 7.3886
 7.29139
 7.5367
 1.27195
 1.41302
 1.18646
 1.53533
 5.45543
 5.50277
 5.31179
 5.45173
 7.28062
 7.46485
 7.3143
 7.31534
 5.93403
 6.038
 6.01997
 5.89021
 2.12767
 2.12757
 2.32715
 2.12419
 7.08177
 6.85479
 7.18797
 6.92269
 5.72835
 6.01554
 5.949
 5.82875
 6.62258
 6.41824
 6.5674
 0.722462
 0.768426
 0.923894
 0.922312
 5.28631
 5.27349
 5.40111
 5.184
 -0.39611
 -0.289032
 -0.726866
 4.95123
 4.83344
 4.8902
 4.94954
 8.33696
 8.21547
 8.41574
 8.34982
 4.31576
 4.26942
 4.15838
 3.97498
 5.0972
 4.84066
 5.16653
 7.01172
 6.96881
 6.81311
 6.89586
 7.90295
 7.85014
 7.95042
 7.81207
 7.12093
 7.01359
 6.90816
 7.13282
 9.53886
 9.49952
 9.35979
 9.33909
 6.18056
 6.22546
 6.3055
 6.32403
 6.65287
 6.73001
 6.48618
 6.76904
 1.03314
 1.36658
 1.29962
 0.916085
 7.85791
 7.64703
 7.71884
 7.76584
 3.78258
 3.86923
 3.73032
 3.64342
 0.128547
 0.0803523
 0.223693
 0.340297
 0.0782579
 0.403023
 0.254841
 0.169503
 2.36084
 2.21429
 2.35532
 2.29303
 0.0380701
 -0.279542
 -0.247824
 0.191347
 1.05281
 1.02833
 1.05936
 -0.458373
 -0.0750424
 -0.182653
 -0.184132
 8.3185
 8.39565
 8.32617
 8.44528
 5.89364
 6.10667
 6.15174
 6.07205
 6.50734
 6.30101
 6.46072
 6.28926
 6.36432
 6.47682
 6.47045
 6.52392
 0.820822
 0.997426
 0.814389
 0.76028
 6.0652
 6.05645
 6.22067
 6.27159
 7.05521
 7.25069
 7.27354
 7.11152
 3.26625
 3.32743
 3.10426
 3.39962
 6.83234
 6.67306
 6.83584
 6.70043
 2.90773
 3.07919
 3.15451
 4.80174
 4.59101
 4.54716
 1.33557
 1.5918
 1.57466
 1.49257
 5.91992
 5.84715
 5.98589
 5.98693
 3.80424
 3.99221
 3.92785
 3.76056
 6.42436
 6.64489
 6.54795
 6.36648
 -0.426547
 -0.294121
 0.349699
 0.44658
 0.54101
 0.253011
 8.42782
 8.48597
 8.48461
 8.57946
 3.79593
 3.62893
 3.58858
 3.4295
 6.99743
 6.81003
 6.97679
 7.07895
 10.84
 11.0443
 10.8525
 10.9143
 7.04597
 7.12401
 7.22959
 7.11252
 3.07369
 3.28069
 3.08644
 7.91744
 7.9383
 7.72732
 7.75071
 0.260247
 0.494055
 0.204432
 0.42159
 6.98768
 6.91628
 6.97359
 6.8977
 3.99237
 3.78961
 3.86874
 3.97342
 8.20912
 8.1578
 8.31789
 8.20168
 9.98318
 9.97163
 9.926
 9.86411
 7.2907
 7.1561
 7.29402
 7.33906
 6.13681
 6.21082
 6.07148
 4.55486
 4.86764
 4.54704
 4.67977
 7.56765
 7.54538
 7.70423
 2.77279
 2.86438
 2.71652
 2.57459
 2.33997
 2.0184
 2.35569
 2.07758
 3.18885
 3.43771
 3.24701
 3.20582
 0.511735
 1.02865
 0.847233
 0.775603
 2.47496
 2.61536
 2.47683
 6.6152
 6.48993
 6.51999
 6.42851
 2.74914
 2.9502
 3.55441
 3.75382
 3.82558
 3.65773
 3.14296
 3.2284
 3.18887
 3.06056
 7.1489
 7.0675
 7.10485
 7.25697
 7.13235
 7.00452
 7.12991
 6.99933
 10.8542
 10.7633
 10.7321
 10.7938
 7.15755
 7.01462
 7.15715
 6.49793
 6.56914
 6.61123
 6.55123
 5.07266
 5.07383
 5.18225
 5.22359
 6.5139
 6.3397
 6.32778
 6.45124
 8.35327
 8.26252
 8.37706
 8.37456
 2.12295
 2.42215
 2.19369
 2.34824
 5.38789
 5.2473
 5.38671
 5.52108
 1.04258
 1.03864
 1.11893
 0.977086
 4.53683
 4.71638
 4.5533
 4.67519
 0.730797
 0.613051
 0.698411
 9.83882
 9.70635
 9.75456
 9.74149
 3.23521
 2.89678
 3.16003
 3.12907
 5.65299
 5.81426
 5.61751
 5.70735
 7.43717
 7.55916
 6.43999
 6.40021
 6.30646
 6.34723
 5.81543
 6.03472
 5.99088
 1.21313
 1.13485
 1.34903
 1.19004
 1.01036
 1.14395
 1.32887
 1.2384
 7.52431
 7.56461
 7.46527
 7.54947
 5.53449
 5.5901
 6.86379
 6.69055
 6.80468
 6.94811
 2.60275
 2.78214
 2.42455
 2.41186
 8.32446
 8.29976
 8.34641
 8.25179
 7.2879
 7.23236
 7.37054
 7.38265
 6.93318
 6.74717
 6.66299
 6.75552
 4.81957
 4.84567
 4.84072
 4.56777
 2.94733
 2.97798
 3.10878
 3.11965
 2.49689
 2.65235
 2.81893
 2.61163
 10.3847
 10.4094
 10.4614
 10.5079
 7.87193
 7.71416
 7.65532
 4.47387
 4.82421
 4.61727
 4.2792
 4.10932
 4.30287
 4.06374
 0.988311
 0.819714
 0.947361
 0.74324
 5.37475
 6.99036
 6.99163
 7.16348
 7.13625
 3.63993
 3.76178
 3.94205
 3.85098
 2.26176
 2.50973
 2.4892
 2.22153
 1.92268
 1.88645
 7.5174
 7.58235
 7.65956
 7.68343
 4.99625
 4.83281
 4.89397
 4.8099
 8.00281
 8.04831
 8.00248
 7.94291
 4.16613
 6.16844
 6.2831
 6.00376
 5.93667
 6.54977
 6.42929
 6.35562
 6.46897
 0.960037
 1.21462
 0.539774
 0.356936
 0.253624
 0.437262
 9.07775
 9.19884
 9.12873
 9.07585
 2.51882
 2.48277
 2.75042
 2.39436
 4.25081
 4.50261
 4.4024
 4.18152
 10.1612
 10.1193
 10.1198
 10.2159
 5.12418
 5.11708
 5.02091
 5.21893
 5.27851
 5.49322
 5.6124
 5.60008
 7.48189
 7.64219
 7.42574
 7.49619
 -0.165708
 -0.381364
 -0.39899
 -0.425245
 5.47242
 5.66944
 5.6476
 6.6628
 6.48784
 6.4847
 6.64468
 0.339525
 0.0215382
 0.255613
 0.211594
 6.71313
 6.81342
 6.95547
 6.66543
 5.71086
 5.57769
 1.99479
 1.98748
 1.80578
 2.1812
 4.53427
 4.50904
 4.26789
 4.27917
 0.494957
 0.636992
 0.387677
 0.510699
 5.57706
 5.27927
 7.21984
 7.15502
 7.1153
 7.128
 6.76769
 6.73668
 6.61696
 6.55771
 1.74958
 1.72433
 2.00074
 1.90479
 2.44976
 2.5486
 2.37026
 2.36889
 2.63955
 2.89439
 2.66251
 2.71388
 6.72588
 6.50689
 6.59702
 6.71124
 9.15009
 9.24503
 9.19805
 9.15018
 0.0180177
 -0.219639
 0.00467238
 -0.105587
 7.61287
 7.59935
 7.57735
 7.48497
 4.68444
 4.53517
 4.48984
 4.65234
 6.32492
 6.04656
 6.24037
 6.13987
 4.70138
 4.93554
 4.73053
 3.84777
 3.59763
 3.83785
 3.5464
 5.23767
 5.09526
 5.19812
 5.35175
 3.08755
 2.99642
 2.82275
 3.13426
 3.07914
 3.16
 3.06405
 3.41279
 10.1405
 9.93984
 10.1282
 8.15764
 7.99754
 7.91715
 7.98125
 4.66035
 4.79992
 4.7419
 4.75627
 2.03657
 1.79792
 1.93139
 1.78205
 6.97528
 7.18497
 6.97805
 6.87975
 6.77822
 6.76409
 4.18185
 4.29017
 4.14711
 4.14238
 4.79394
 4.60998
 4.54449
 4.51773
 -1.33269
 -1.28651
 -1.17113
 -1.4014
 8.55713
 8.50088
 8.60366
 8.78822
 2.83466
 2.7629
 6.11079
 5.92364
 5.90405
 6.08982
 3.28857
 3.15565
 3.17888
 3.12369
 4.3391
 4.2948
 4.1574
 4.236
 5.91406
 5.90535
 5.73531
 6.03661
 3.60703
 3.41222
 3.47384
 3.43604
 7.51577
 7.44583
 7.46422
 7.33946
 7.97798
 8.10918
 7.95716
 8.03183
 2.08811
 1.99577
 1.82156
 1.50659
 4.75647
 4.64884
 4.4953
 9.36553
 9.432
 9.31385
 1.67354
 1.52765
 1.49735
 1.42274
 1.34733
 1.41665
 1.53378
 1.55912
 5.14154
 5.09485
 5.04284
 4.94888
 0.976658
 0.833494
 0.878774
 0.865974
 0.398089
 0.128137
 0.355922
 0.0863951
 5.84335
 5.75522
 5.60996
 5.79853
 2.28529
 2.17656
 2.0855
 2.10803
 -1.17322
 -1.23002
 -1.04042
 -1.27881
 2.62591
 2.61484
 2.74154
 2.42629
 4.5764
 4.849
 4.73229
 4.92718
 1.81022
 1.70158
 1.87021
 1.93127
 3.25225
 3.30591
 3.14708
 3.98412
 3.80386
 8.8453
 8.81846
 8.87984
 8.93
 4.0654
 3.85916
 3.91728
 3.94602
 9.04944
 9.01239
 8.98681
 8.97767
 8.88832
 8.92247
 8.7584
 8.71911
 4.39761
 4.29676
 4.28236
 4.45921
 6.15498
 6.15524
 6.31098
 6.08231
 3.68957
 3.46393
 3.52453
 3.54836
 4.99944
 5.14422
 8.20343
 8.2869
 8.24778
 8.11685
 0.191475
 0.101734
 -0.00795312
 0.152856
 6.04287
 6.17042
 5.8846
 6.00947
 1.63618
 1.7221
 1.89553
 1.74338
 8.16525
 8.28532
 8.1647
 8.2301
 1.22654
 0.876964
 0.98071
 0.93173
 4.011
 4.28123
 4.06514
 4.09236
 6.89659
 7.07179
 7.19956
 7.10036
 -0.845174
 -0.749467
 -0.770041
 -0.625842
 6.58863
 6.38564
 6.54503
 6.59005
 5.77606
 6.03357
 5.85182
 5.97158
 0.0942929
 0.0515677
 0.258186
 0.0238949
 5.14428
 5.41955
 5.33294
 5.33882
 1.8016
 1.6383
 1.74917
 1.82211
 1.90708
 2.0725
 2.00425
 5.6946
 6.00764
 5.87462
 5.92014
 1.99063
 1.79792
 1.93456
 1.85901
 7.65064
 7.47223
 7.49476
 7.65402
 1.4088
 1.2668
 1.28077
 1.37588
 1.51622
 1.59823
 1.4733
 1.56029
 7.32289
 7.36165
 7.05955
 7.21973
 7.2067
 7.26838
 7.1045
 7.34034
 11.3543
 11.3192
 11.4258
 11.3969
 2.52368
 2.77599
 2.74616
 8.79632
 8.59379
 8.58614
 8.68196
 0.522788
 0.722158
 0.671744
 0.642371
 7.37321
 1.67506
 1.91225
 1.85339
 1.68098
 1.66254
 1.86689
 1.84892
 10.3695
 10.5152
 10.4714
 10.4033
 10.5752
 10.5684
 10.5977
 10.6378
 0.597049
 0.804661
 0.627409
 0.476682
 7.18275
 7.25761
 7.09852
 7.28835
 3.33087
 3.43327
 3.19772
 6.40023
 6.55224
 6.41204
 6.65097
 5.69967
 5.68887
 5.76003
 1.66414
 1.75083
 1.42634
 4.26733
 4.12283
 4.09826
 4.24289
 6.33729
 6.5224
 6.52915
 6.39351
 7.36898
 7.31073
 7.39768
 7.32767
 3.34558
 3.20435
 3.18393
 8.22466
 8.1459
 8.37235
 8.37781
 7.22378
 6.91932
 7.13027
 5.84674
 5.54916
 5.61191
 5.73035
 7.40332
 7.24049
 7.24925
 7.30807
 7.3027
 7.09018
 7.05032
 7.10416
 1.50679
 1.66992
 1.64373
 1.68492
 5.494
 5.65943
 5.54183
 5.43769
 6.63282
 6.66218
 4.58241
 4.71996
 4.62852
 4.82524
 0.809697
 0.698846
 0.617948
 0.673601
 0.707293
 11.5089
 11.5455
 11.56
 11.51
 2.24409
 2.00839
 2.14712
 -0.190213
 -0.138679
 -0.0149137
 -0.148076
 2.74086
 3.0406
 2.97336
 3.02573
 7.41542
 7.35144
 7.26201
 7.42432
 5.65513
 5.79184
 5.83755
 5.83587
 -0.376812
 -0.373571
 -0.309675
 -0.263877
 2.50766
 2.67481
 2.8105
 2.64557
 8.32001
 8.45019
 8.4602
 8.25087
 5.92282
 5.88484
 5.8416
 6.13094
 6.19496
 6.10628
 6.00779
 6.15972
 11.53
 11.55
 11.5495
 11.5209
 7.66477
 7.70025
 7.74986
 7.59986
 2.53665
 2.26201
 2.54424
 2.40616
 4.09328
 4.11271
 3.91622
 4.17582
 5.39508
 5.27406
 5.11428
 5.33051
 3.08798
 2.86424
 2.93585
 2.9421
 3.9907
 3.98336
 3.80712
 4.00628
 2.92689
 2.93246
 3.09191
 2.68574
 -0.904944
 -0.54086
 -0.644676
 -0.997733
 2.19408
 2.31495
 2.36324
 2.65798
 3.04337
 3.18614
 3.32321
 3.09577
 3.39634
 4.65348
 4.66307
 4.79165
 4.46555
 0.588583
 0.673533
 0.724582
 0.717446
 5.5496
 5.66323
 5.479
 5.54894
 4.26188
 4.17038
 4.06279
 4.38533
 4.96018
 5.16849
 5.02349
 4.8572
 6.27037
 6.52675
 6.33263
 6.49559
 9.68909
 9.62001
 9.44781
 9.69779
 -1.17976
 -0.843031
 3.62671
 3.75063
 3.76635
 11.0324
 11.0288
 11.038
 6.94701
 7.07173
 6.99078
 7.13344
 8.86128
 8.83694
 9.04877
 9.05997
 7.69894
 7.78138
 7.66144
 7.87767
 0.351985
 0.672562
 0.52562
 0.500996
 4.69621
 4.93505
 4.84214
 4.96604
 3.25696
 3.01502
 3.03459
 2.83293
 4.03849
 4.08606
 4.23882
 4.35966
 2.94566
 2.86461
 3.03878
 2.98689
 5.32438
 5.32058
 1.75657
 2.24404
 1.79176
 2.20296
 2.76447
 2.90655
 3.01143
 2.61075
 6.99867
 7.19898
 6.9715
 7.16837
 7.03764
 6.98602
 6.99117
 6.97106
 4.41267
 4.38932
 4.46869
 4.32624
 4.5218
 4.40789
 4.2745
 4.13191
 7.75432
 7.96699
 8.02544
 7.7064
 2.94763
 3.10208
 3.17723
 3.20578
 -0.683861
 -0.555962
 -0.654313
 -0.580527
 1.56668
 1.69102
 1.66934
 1.77141
 -0.919924
 -1.0304
 -0.827337
 -1.08051
 1.28098
 1.05186
 1.115
 1.10074
 4.77708
 4.52236
 4.7478
 4.68716
 3.25408
 3.4005
 5.22377
 4.9808
 5.28367
 5.14869
 7.08823
 6.92941
 6.94935
 6.88687
 2.39136
 2.10069
 2.08822
 2.30885
 5.29868
 5.35011
 5.29106
 5.50808
 5.80953
 5.95695
 6.00736
 5.92339
 7.35504
 7.3501
 7.26788
 7.12727
 6.70433
 6.72801
 6.81369
 6.55017
 7.1927
 7.0874
 7.05541
 7.13716
 9.56603
 9.54017
 9.63892
 9.60721
 2.57409
 2.49643
 2.73463
 2.54596
 3.44985
 3.38972
 9.23023
 9.18088
 9.19796
 9.35045
 6.45348
 6.39003
 3.65173
 3.81666
 3.6201
 1.74177
 1.69138
 7.67493
 7.70176
 7.7794
 7.5853
 9.38478
 9.29648
 9.30533
 9.26428
 7.92549
 7.83371
 7.73706
 7.70224
 6.48073
 6.36088
 6.31464
 6.27874
 3.99545
 4.2507
 4.25782
 4.23772
 3.24156
 3.33355
 3.36254
 3.40204
 6.56657
 6.3944
 6.37969
 6.42898
 4.32056
 4.34289
 4.24704
 4.54698
 4.82024
 4.96078
 5.00469
 4.90087
 4.61164
 4.46596
 4.36722
 4.4693
 4.426
 4.7181
 4.41242
 5.2309
 5.37887
 5.07396
 5.20288
 6.11311
 6.03299
 6.2372
 6.14457
 7.20886
 7.06968
 7.29672
 7.07786
 0.575447
 0.648299
 0.508503
 0.367585
 5.50886
 5.51208
 5.31879
 5.32895
 7.99182
 7.99572
 8.22526
 8.04474
 8.31793
 8.30421
 8.34718
 8.3999
 7.90299
 8.0104
 8.00297
 7.93207
 7.23887
 7.25573
 7.06025
 7.02451
 7.25354
 7.35993
 7.40534
 7.3328
 1.04095
 0.90521
 0.906084
 0.857215
 5.72048
 5.7249
 5.76438
 5.57573
 2.79365
 2.62679
 2.79763
 2.88219
 7.17113
 6.9637
 7.21627
 7.05914
 0.365286
 0.278119
 0.29535
 0.0768976
 -0.00042817
 0.0405228
 -0.187903
 2.86135
 3.28239
 3.14093
 3.1255
 6.91116
 6.82883
 7.01326
 6.8677
 -0.56695
 -0.265542
 -0.330291
 5.96278
 6.11084
 6.00936
 6.24562
 1.31847
 1.28203
 1.78085
 1.70346
 1.50865
 1.7665
 6.26729
 6.38242
 6.31008
 8.08053
 8.01886
 8.20333
 8.14075
 7.14051
 7.23783
 7.0714
 7.05973
 4.90823
 4.68642
 4.96369
 0.0951318
 0.507126
 0.470971
 2.88502
 3.13404
 3.21495
 3.0762
 0.0812045
 0.139477
 0.428115
 -0.121764
 5.82613
 5.62235
 5.52625
 5.65343
 1.11546
 1.0581
 0.942939
 1.28616
 4.75367
 4.70594
 4.84878
 4.94284
 6.73824
 6.90775
 6.81796
 -0.382832
 -0.179159
 -0.292983
 -0.60809
 3.50865
 4.22014
 3.97355
 4.05221
 4.1704
 3.83475
 3.81333
 3.97441
 6.83876
 6.94044
 6.92913
 6.93624
 6.94206
 6.72422
 5.71163
 5.90518
 5.91685
 5.95602
 5.74169
 5.51408
 5.69003
 5.55668
 3.03861
 -0.605757
 -0.269932
 -0.206399
 -0.424669
 10.0444
 10.1944
 10.1078
 10.1225
 6.47865
 6.59104
 6.87978
 6.9387
 6.85656
 6.81394
 6.96217
 6.94231
 7.17123
 7.08585
 2.727
 2.9928
 2.96186
 2.82462
 2.54182
 2.42828
 2.69253
 2.50626
 6.54868
 6.69791
 3.25283
 3.22972
 2.95285
 3.13468
 3.15347
 2.9167
 3.1367
 4.30959
 4.45847
 4.56938
 4.63735
 5.47865
 5.65817
 5.49521
 5.66826
 2.6967
 2.39672
 2.43143
 2.66424
 1.95676
 1.88316
 1.74343
 1.95658
 2.27638
 2.03783
 2.21829
 2.57609
 2.49975
 2.55102
 2.73787
 5.75958
 5.70538
 5.68246
 5.83387
 8.77269
 8.80625
 8.71197
 8.69589
 6.23257
 6.25681
 6.34954
 6.30344
 1.94155
 2.16968
 2.32452
 2.11439
 3.29591
 3.38032
 3.39707
 3.19999
 6.16787
 6.0638
 5.99905
 5.97658
 3.34584
 3.56765
 3.42746
 3.35839
 4.47979
 4.40792
 4.707
 4.40357
 4.49846
 4.29665
 4.37275
 4.3036
 3.4571
 3.31667
 3.33168
 0.792927
 0.72525
 0.851448
 0.803566
 6.29812
 6.11496
 6.2009
 6.17834
 5.21697
 5.01769
 5.04491
 5.09361
 8.57531
 8.67043
 8.65354
 8.51444
 7.33095
 7.20118
 7.22179
 7.30759
 7.1138
 7.38152
 7.25673
 7.41531
 7.4331
 7.33809
 7.36131
 7.29523
 4.53615
 4.65114
 4.60677
 8.06342
 8.09624
 8.01966
 7.98973
 7.62165
 7.55715
 7.43647
 7.59896
 -0.418766
 -0.188427
 -0.172711
 -0.331413
 4.4307
 4.54858
 4.6473
 4.72845
 1.96951
 1.94814
 2.06283
 2.16848
 4.05126
 3.95405
 4.09366
 4.22392
 3.51527
 3.3459
 3.51249
 3.45829
 6.84179
 6.99089
 6.91619
 7.12349
 5.01767
 4.64142
 4.93274
 4.89368
 1.8519
 1.69778
 1.87145
 1.8006
 3.93654
 4.01773
 3.73503
 3.78856
 7.48571
 7.56838
 7.38672
 7.32526
 0.769558
 0.689835
 0.735314
 0.654389
 6.03879
 6.20541
 7.65207
 5.02141
 4.92825
 4.79258
 5.06742
 5.53681
 5.35922
 5.56925
 5.60959
 9.25603
 9.28112
 9.12862
 6.33656
 6.50715
 6.5481
 6.6515
 3.98496
 3.64636
 3.78713
 3.60451
 4.77557
 4.61786
 4.71149
 4.7793
 0.981953
 0.877963
 0.855622
 0.922794
 7.26666
 6.99159
 7.18252
 6.92898
 6.938
 6.98858
 6.7622
 8.93607
 9.14779
 9.03716
 8.94732
 7.3438
 7.14577
 7.28233
 4.0883
 3.67496
 4.0228
 7.46038
 7.48004
 7.61853
 7.54994
 5.48075
 5.30067
 5.25638
 5.27294
 11.51
 11.5148
 11.5085
 11.4253
 5.75337
 5.82127
 5.81238
 8.02408
 8.05434
 8.02545
 8.02373
 5.75025
 5.84109
 6.00281
 5.85171
 7.57262
 7.42564
 7.43567
 7.36475
 3.06094
 2.96947
 3.10505
 2.91463
 2.49974
 2.68027
 2.52408
 2.42633
 0.0050989
 0.00820463
 -0.108101
 0.165694
 4.31143
 4.57291
 4.36463
 4.29322
 7.64397
 7.81694
 7.65947
 7.75689
 6.69982
 6.77167
 8.62686
 8.62474
 8.57254
 8.57664
 5.34315
 5.26606
 6.31626
 6.03595
 6.09392
 7.08476
 6.98108
 6.89944
 6.99608
 0.434171
 0.337259
 0.664282
 0.619516
 0.790749
 0.854105
 0.946937
 0.831361
 6.86806
 6.79858
 6.90422
 7.05585
 8.07102
 8.02531
 4.05929
 3.98709
 4.04731
 3.84421
 7.04563
 7.11716
 6.9742
 6.99207
 6.03475
 6.26362
 5.87388
 -1.1173
 -1.20161
 -0.989825
 4.86413
 4.60264
 4.70363
 4.69349
 1.33863
 1.06061
 1.38629
 1.50777
 4.51761
 4.32796
 4.28483
 4.5364
 2.73775
 2.56297
 2.52605
 2.85363
 7.7041
 7.55492
 7.68211
 7.74994
 7.0411
 6.82048
 7.10806
 6.88473
 4.46239
 4.66807
 4.28049
 4.53929
 6.22755
 6.02541
 5.97087
 6.24607
 7.68524
 7.62173
 7.56256
 7.40864
 5.45132
 5.36062
 5.2425
 5.14282
 3.39522
 3.35759
 3.50146
 4.63669
 4.42694
 4.57125
 4.45186
 10.8307
 10.6992
 10.6256
 10.7134
 8.06765
 8.06964
 8.03881
 8.0565
 6.35327
 6.36456
 6.36763
 6.18822
 9.37572
 9.2455
 9.44255
 9.32197
 1.24508
 1.26443
 1.44859
 -0.252631
 -0.0792698
 0.127053
 -0.0540144
 2.34736
 1.95883
 2.1104
 2.10835
 4.71299
 3.45698
 3.19697
 3.11247
 3.30251
 5.01779
 4.86744
 5.11288
 5.11142
 7.78971
 7.9511
 7.86085
 6.9263
 6.87825
 6.82721
 7.06934
 10.7912
 10.9271
 10.8085
 10.9796
 9.09245
 9.10207
 9.03977
 9.07556
 6.44664
 6.45006
 6.33388
 6.22499
 -0.465313
 -0.137897
 -0.243868
 -0.2146
 10.445
 10.4322
 10.3046
 10.3413
 2.99231
 2.78822
 3.13572
 2.90389
 4.67945
 4.66522
 4.47114
 4.64586
 6.81976
 7.11758
 7.1088
 5.24703
 5.45803
 5.4939
 5.48291
 -0.0909295
 -0.156472
 -0.22162
 7.67201
 7.41331
 7.37517
 5.73805
 5.66508
 5.45217
 5.49537
 6.46717
 6.51585
 6.56409
 6.60787
 6.29452
 6.33118
 6.12229
 6.0808
 8.00226
 8.10182
 8.09624
 7.92482
 5.30452
 5.16977
 5.36633
 5.15481
 0.287469
 0.650762
 0.638615
 0.821977
 1.07771
 1.1501
 1.17181
 0.954907
 8.2919
 8.27088
 8.24794
 8.28998
 1.49503
 1.40412
 1.42815
 1.68761
 0.596661
 0.287591
 0.378126
 0.670436
 1.50219
 1.51415
 1.78108
 1.75107
 3.64045
 3.68735
 3.51343
 3.6048
 4.9378
 5.08364
 4.86767
 6.43719
 6.70866
 6.62513
 6.5717
 2.50902
 2.65732
 2.79561
 2.50018
 2.38914
 2.29678
 2.18004
 2.2509
 -1.21425
 -1.21825
 -0.874894
 -1.084
 9.203
 9.10036
 9.13069
 9.10682
 8.57757
 8.64859
 8.61338
 8.50714
 7.93325
 7.96326
 7.75546
 7.972
 6.27695
 6.52542
 6.35476
 6.36673
 6.06503
 6.04445
 6.05327
 0.477783
 0.313305
 0.0820327
 0.2243
 2.16178
 2.25814
 2.38119
 2.38584
 5.29826
 5.43857
 5.49766
 5.38428
 0.944457
 0.796864
 4.15566
 4.14875
 4.15493
 4.34719
 1.15849
 1.05151
 0.775999
 1.0056
 4.47292
 4.20705
 4.52841
 4.17826
 6.48589
 6.36969
 6.63015
 6.53331
 8.50301
 8.61366
 8.51962
 8.39532
 10.9225
 10.7931
 10.9774
 10.8627
 1.42513
 1.51735
 1.55283
 1.38351
 0.665602
 0.641565
 0.616617
 0.461764
 5.74197
 5.96956
 5.82528
 5.93882
 4.83926
 4.94783
 4.97859
 4.83012
 7.17302
 7.33836
 7.05771
 3.7846
 3.94721
 3.92821
 4.01749
 7.22904
 7.26524
 7.14627
 7.14648
 5.13985
 5.32792
 5.48407
 5.36253
 3.50934
 3.62345
 3.56101
 3.48159
 4.61824
 4.68581
 4.75433
 1.38851
 1.61454
 1.53532
 1.5401
 3.73237
 3.47482
 9.4807
 9.25948
 9.50447
 9.40367
 2.61929
 2.76515
 2.66893
 6.81217
 6.75635
 6.75583
 6.80978
 3.87758
 3.9082
 3.97736
 4.99398
 5.18707
 4.97289
 5.10443
 3.85043
 4.0895
 3.72824
 3.93092
 3.65049
 3.41003
 10.2735
 10.2704
 10.371
 10.2711
 10.6802
 10.8294
 10.8941
 10.753
 4.82404
 5.06484
 4.96935
 5.0713
 4.00948
 4.1372
 4.02112
 4.1809
 10.1688
 10.1953
 10.1592
 10.0513
 6.92898
 7.12224
 8.0281
 7.99404
 7.93731
 7.79515
 3.60688
 3.68614
 3.3983
 3.56329
 4.15559
 4.09088
 3.90042
 4.24224
 3.76718
 4.00518
 4.05914
 4.00291
 6.49195
 6.48074
 6.31284
 6.49364
 7.5398
 7.57672
 7.7292
 7.52147
 8.80293
 8.63369
 8.6503
 8.79364
 7.51099
 7.51715
 7.51141
 7.2494
 2.55467
 2.71497
 2.49709
 2.62691
 4.82665
 5.28607
 5.05739
 9.32458
 9.24118
 9.128
 3.26305
 2.92342
 3.1069
 3.11485
 3.00912
 3.40719
 3.2047
 3.127
 5.67989
 5.80731
 5.87583
 5.44397
 5.37499
 5.19737
 5.36452
 7.62364
 7.7246
 7.76357
 7.76246
 1.8703
 1.95265
 1.77645
 1.86763
 7.97354
 8.00937
 7.99919
 7.93567
 8.0491
 8.14284
 8.05538
 -0.284112
 -0.592714
 -0.728935
 -0.501068
 1.63126
 1.47445
 6.7672
 6.84412
 6.67312
 6.7273
 5.01008
 4.79219
 5.00676
 5.39921
 5.49995
 5.45178
 5.62954
 7.67406
 7.53569
 7.61181
 2.08699
 1.93958
 2.26352
 2.1604
 7.65648
 7.42948
 7.59047
 7.62626
 2.94077
 3.13779
 3.22787
 3.13594
 7.91019
 7.82943
 7.47355
 7.65864
 7.51879
 7.59712
 6.88037
 6.97036
 6.92417
 6.87001
 9.07056
 9.12589
 9.26839
 9.15995
 2.49944
 2.26112
 6.35473
 6.24152
 6.21899
 6.23706
 -0.0464362
 0.0532159
 -0.00733156
 -0.111227
 6.42226
 6.52568
 6.29764
 6.15854
 2.1008
 1.86473
 1.79519
 1.78762
 0.809845
 0.544935
 0.965465
 0.611849
 2.96558
 3.20182
 0.680829
 0.469099
 0.539957
 0.619703
 7.6497
 7.67594
 7.6844
 7.52204
 0.730617
 0.650777
 0.625361
 0.746032
 -0.350281
 -0.629971
 -0.584318
 -0.392165
 4.04102
 4.02994
 3.83241
 3.89566
 5.24783
 5.32921
 5.10678
 5.00745
 1.02838
 1.32611
 1.14106
 1.01919
 9.31218
 9.14609
 9.24651
 9.35151
 1.16089
 0.845041
 6.32476
 6.20078
 6.17585
 6.00315
 1.35298
 1.46013
 1.67393
 1.64692
 7.59042
 7.42803
 7.45667
 7.46545
 5.92943
 6.20382
 6.10694
 5.96568
 7.23663
 7.28826
 7.07463
 7.60818
 7.69945
 7.60111
 7.75905
 7.96638
 7.82707
 7.86892
 7.79947
 3.99002
 4.13029
 4.19668
 1.59103
 1.56603
 1.36262
 1.3894
 4.57365
 4.68459
 4.76233
 7.5881
 7.71224
 7.62085
 4.94785
 4.65258
 4.90802
 4.73316
 3.80079
 3.84377
 3.78096
 3.53087
 5.5289
 5.30796
 5.27659
 5.35971
 5.79989
 5.89494
 5.9486
 6.06489
 6.17269
 6.19851
 5.86714
 5.76732
 5.6471
 5.96255
 1.4805
 1.58113
 1.48958
 1.67438
 3.08316
 3.23243
 3.10225
 3.01098
 5.4093
 5.3427
 5.44228
 5.15449
 7.62398
 7.7435
 7.64971
 4.53808
 4.66777
 4.54095
 4.50663
 6.64592
 6.87674
 6.78923
 6.89444
 9.86335
 9.81603
 9.89304
 9.93732
 6.08574
 6.18594
 6.13031
 6.14657
 1.23417
 1.28564
 1.05727
 1.14347
 6.15652
 5.93035
 6.05561
 6.16745
 7.85607
 7.86558
 7.79744
 7.73691
 7.62624
 7.72516
 7.71823
 5.36046
 5.32449
 5.37463
 3.65803
 6.23481
 6.52042
 6.35184
 6.35818
 0.844593
 0.902455
 0.752936
 1.26424
 1.21262
 1.10921
 6.23032
 6.04299
 6.18373
 6.07103
 -0.44678
 -0.543977
 -0.612437
 -0.635523
 7.5175
 4.21992
 4.40679
 4.25863
 4.32446
 7.41529
 7.34432
 7.36945
 7.33382
 0.920364
 0.789269
 1.12236
 0.921611
 3.33997
 3.01819
 3.14611
 3.2697
 2.3531
 2.21994
 2.49256
 2.43524
 7.9586
 7.90669
 7.83665
 7.95929
 6.64211
 6.48538
 6.65473
 6.64805
 4.55168
 4.6769
 4.49771
 4.70631
 6.38855
 6.58536
 6.3142
 6.50683
 3.49288
 3.40428
 3.19912
 3.25011
 7.40627
 7.4764
 7.30491
 7.31289
 6.73065
 6.64064
 6.48782
 6.58555
 4.10248
 4.07981
 4.11474
 3.85356
 0.711797
 0.442719
 0.596675
 0.429702
 7.93305
 7.89608
 7.75581
 7.81551
 8.96603
 9.15049
 8.95617
 8.9747
 0.77877
 0.573645
 0.666647
 0.603062
 8.91143
 9.05013
 8.71346
 8.78392
 8.81199
 8.66006
 4.97518
 4.86615
 5.04604
 5.17596
 6.65664
 6.54603
 6.5497
 6.72582
 -1.08106
 -1.17215
 -1.15231
 -1.00275
 0.97733
 1.00023
 0.708031
 3.36645
 3.38716
 3.20054
 3.45811
 7.67397
 7.62789
 7.79559
 7.57488
 6.78487
 6.81817
 6.87934
 6.95009
 6.83677
 6.71182
 3.35074
 2.99972
 3.11207
 3.25804
 3.71267
 3.70848
 3.89648
 3.66047
 3.04918
 3.07242
 3.28946
 3.0566
 -0.211604
 -0.25322
 0.166031
 -0.348846
 2.58535
 2.57623
 2.79826
 5.99627
 4.59354
 4.64505
 4.58328
 4.74172
 4.5054
 4.73273
 4.66448
 4.6037
 1.81444
 1.92952
 1.94643
 2.06928
 2.60371
 2.74254
 2.73209
 2.52216
 4.04255
 4.22761
 4.23266
 6.32688
 6.44506
 6.27746
 6.55242
 4.66948
 4.33548
 4.53651
 4.49236
 6.15719
 6.03983
 6.25128
 10.3787
 10.3816
 10.468
 10.3164
 1.62784
 1.25795
 1.40665
 1.52462
 1.84341
 1.45249
 1.66421
 10.27
 4.44286
 4.39244
 4.47044
 4.21111
 4.10166
 4.0579
 8.6593
 8.62374
 8.64199
 8.58869
 7.88128
 7.82709
 7.67018
 7.89742
 6.98395
 6.88762
 6.9179
 7.09387
 7.27713
 7.19289
 7.08505
 7.27648
 7.29667
 7.15038
 5.91663
 6.05774
 6.11378
 6.13016
 5.75763
 5.56479
 -1.35241
 -1.36456
 7.56555
 7.30224
 7.58134
 7.4138
 5.41549
 5.47609
 5.34415
 5.56209
 8.01731
 7.97074
 8.2313
 8.15217
 1.40138
 1.25762
 1.63103
 1.47935
 1.87106
 2.06086
 1.88236
 2.07902
 3.53484
 3.38142
 3.34919
 3.45558
 4.62044
 4.54834
 4.2588
 4.38783
 4.82936
 4.94109
 7.60741
 2.84901
 2.6155
 2.66357
 2.61517
 -0.0858383
 -0.033477
 -0.37376
 0.0303763
 1.69378
 1.43928
 1.74535
 1.6411
 11.5006
 11.5019
 11.4815
 11.4406
 0.0906745
 0.0458325
 0.142713
 0.132164
 7.06894
 7.06419
 7.2324
 6.97244
 6.32571
 6.52945
 6.44875
 6.5953
 3.1728
 3.14488
 3.02702
 2.98426
 3.15839
 3.21498
 3.32504
 3.27027
 7.63884
 7.37037
 7.50798
 7.44323
 0.412884
 0.317992
 0.439516
 0.40336
 1.33575
 1.20248
 1.26675
 1.12654
 2.8172
 2.77651
 2.6172
 2.61355
 1.02777
 1.19999
 1.11463
 1.02811
 6.67347
 6.49079
 6.4913
 6.42156
 7.62771
 7.59045
 7.54204
 7.49075
 1.56372
 1.73834
 1.81559
 1.75973
 5.58246
 5.60813
 5.6754
 5.84127
 5.28728
 5.38144
 5.4221
 5.30287
 10.7118
 10.6401
 10.5755
 10.6323
 0.235068
 0.184373
 0.897854
 0.852901
 1.05705
 0.726235
 8.27828
 8.43208
 8.48292
 8.24435
 6.61373
 6.84684
 6.85057
 6.93615
 1.26018
 1.41283
 1.15062
 1.10325
 5.92621
 5.86462
 5.97481
 5.77471
 6.13178
 6.07263
 6.28694
 6.27111
 -0.0916982
 -0.149085
 -0.0221951
 0.0341026
 4.63414
 4.6904
 4.62555
 4.54162
 5.10594
 5.0392
 5.09073
 5.22926
 2.33787
 2.22309
 2.15617
 2.28616
 3.46697
 3.53351
 3.60002
 3.72445
 5.81542
 5.78607
 6.02975
 6.60679
 6.45787
 6.55608
 6.29525
 8.61866
 8.67732
 8.70702
 8.47091
 6.31695
 6.20375
 6.16746
 6.13266
 4.84667
 4.9683
 4.8688
 5.01984
 -0.250651
 -0.3286
 -0.296201
 -0.0106747
 6.30883
 5.98065
 6.15575
 6.15978
 8.15687
 8.15724
 8.27733
 8.36788
 2.92542
 2.71984
 2.82116
 2.98375
 3.84476
 3.87892
 3.98395
 4.72058
 4.44412
 4.40893
 4.33712
 8.74638
 8.74755
 8.73855
 8.62275
 4.41015
 4.60085
 4.52211
 4.67826
 0.562035
 0.535596
 0.543777
 0.503626
 4.62452
 4.6182
 4.56925
 4.48706
 8.0158
 8.1152
 8.05356
 7.99594
 7.38107
 7.26088
 7.39675
 7.53638
 -1.48493
 -1.40985
 -1.50182
 -1.50998
 6.70528
 6.66508
 6.69283
 6.92556
 3.91953
 4.24389
 4.15124
 4.06818
 -1.21988
 -1.2432
 -1.0827
 -1.07799
 0.866981
 0.557422
 0.723284
 2.90933
 2.93162
 2.67584
 2.60316
 1.34751
 1.32634
 1.03716
 1.42796
 9.98824
 9.8917
 9.797
 9.83219
 7.21919
 7.03837
 7.29111
 0.21058
 -0.0385421
 0.00948504
 -0.0259936
 4.02014
 4.078
 3.86498
 4.15086
 2.24371
 2.30321
 2.02745
 2.44419
 7.86037
 7.8776
 8.01626
 8.09076
 5.97652
 5.76332
 6.0093
 5.8467
 3.4439
 3.7794
 3.67165
 8.53619
 8.47604
 8.3931
 8.40666
 7.47641
 7.72032
 7.61694
 7.68015
 6.1646
 0.187227
 0.0589133
 0.14692
 -0.0217776
 9.7084
 9.70748
 9.82716
 9.83498
 2.38811
 2.02408
 2.20908
 1.9758
 3.78047
 3.93096
 3.85905
 4.07792
 10.4499
 1.77361
 1.94911
 1.66832
 0.304432
 0.00659989
 0.181272
 0.155085
 5.37394
 5.33261
 5.04075
 5.25398
 3.4795
 3.48756
 3.3156
 3.6072
 7.11473
 7.28815
 5.00722
 5.10364
 5.09857
 4.88534
 7.11672
 7.22318
 7.31936
 7.17419
 6.47522
 6.55481
 6.29273
 6.29677
 3.00005
 3.14808
 2.99827
 2.93344
 9.20949
 9.22104
 9.22126
 9.04429
 7.67704
 7.77348
 7.70438
 7.82247
 8.94299
 8.82111
 8.14649
 8.151
 8.13201
 8.13937
 8.31841
 8.43024
 8.25037
 8.39901
 -0.0230262
 0.0708262
 0.2801
 0.276327
 4.09512
 4.09681
 4.18452
 3.87301
 5.9976
 5.73739
 5.90912
 5.88561
 4.60583
 4.68248
 4.73179
 4.5408
 -0.0592585
 -0.0233656
 8.60447
 8.68362
 8.66585
 8.60134
 -0.00563361
 -0.0795253
 0.108817
 9.5335
 9.58455
 9.53959
 9.61447
 0.532657
 0.780894
 0.591684
 0.759043
 6.32841
 6.46143
 6.2721
 6.46761
 5.50373
 5.47063
 5.56217
 0.0776327
 0.209964
 0.163506
 0.036529
 4.26166
 4.45552
 4.23131
 4.40174
 5.37483
 5.27966
 5.10363
 5.28609
 6.24741
 6.34789
 5.8077
 6.13156
 5.89209
 6.02212
 3.82252
 4.04501
 3.94161
 -0.22368
 0.116089
 0.149603
 -0.116306
 5.59954
 5.47113
 5.61855
 5.56873
 5.92427
 6.03279
 6.62181
 6.80163
 6.84785
 6.68625
 9.37872
 9.35649
 9.21882
 4.34012
 4.29508
 4.55877
 4.56551
 0.134641
 0.122408
 0.0996342
 8.92609
 9.02338
 8.9245
 5.50832
 5.65101
 5.55368
 5.73245
 3.29858
 3.29822
 3.54864
 3.46102
 9.87687
 9.93097
 9.88929
 9.86438
 1.44121
 1.37229
 1.50539
 1.53994
 3.16034
 3.31769
 3.29056
 3.36957
 1.66757
 1.59898
 1.75052
 0.26445
 0.212122
 -0.109973
 0.0887115
 4.80228
 5.04034
 4.83135
 4.80304
 0.69693
 0.76211
 0.834491
 0.879628
 6.351
 6.41299
 6.28956
 6.49929
 -0.124036
 3.6689
 5.11062
 5.19926
 5.01725
 5.2561
 3.79678
 3.84701
 4.02797
 4.06017
 2.63391
 2.57359
 2.70721
 2.89663
 3.79839
 3.88898
 3.65223
 3.75519
 2.26484
 2.41173
 2.21538
 2.24951
 5.0984
 5.22052
 5.13928
 4.97352
 5.36012
 5.29262
 5.25648
 5.16917
 5.97702
 6.02179
 6.09023
 5.86223
 5.20346
 5.21204
 5.38676
 7.85454
 7.82226
 7.85393
 7.72827
 4.94006
 3.33786
 3.06961
 3.04817
 3.1885
 0.276742
 0.256927
 0.535436
 6.50213
 6.76303
 6.6553
 6.73364
 4.65509
 4.40438
 4.4738
 3.71827
 3.75088
 3.89787
 3.92138
 3.25822
 3.18119
 2.96925
 2.91111
 1.10151
 0.980839
 0.837701
 1.02851
 7.22414
 7.26108
 7.14697
 7.41193
 4.49348
 4.63014
 4.67174
 4.74604
 5.23181
 5.34471
 5.47134
 5.24889
 5.45071
 5.57459
 5.6001
 5.72884
 5.04397
 5.11822
 5.0016
 5.21632
 2.59524
 2.96707
 2.53938
 2.79545
 5.41019
 5.71881
 5.60228
 5.56436
 8.64871
 8.64352
 8.65076
 8.59162
 8.80154
 8.69751
 8.71918
 5.03577
 5.00345
 4.83207
 4.80612
 4.92873
 4.84934
 4.77022
 4.70582
 5.25327
 5.42142
 5.14152
 5.14371
 0.488228
 0.457286
 0.751539
 0.712742
 2.57461
 2.78821
 2.80243
 2.56118
 6.79128
 6.67884
 6.70525
 6.65824
 7.7409
 7.55372
 7.58278
 7.81826
 1.30029
 1.35792
 1.49345
 1.2902
 9.64785
 9.74173
 9.71149
 9.56767
 6.1563
 5.97096
 6.07674
 6.09956
 8.12379
 8.01535
 8.03367
 7.30139
 7.19947
 7.17836
 7.04706
 2.96289
 3.02434
 2.85265
 3.18828
 7.21984
 7.46125
 7.37212
 7.30291
 8.68758
 8.37426
 8.58573
 9.85253
 9.7231
 9.64341
 9.69885
 -0.36925
 -0.448168
 -0.557708
 -0.745483
 7.04908
 7.16591
 7.06923
 7.00327
 4.03405
 4.31976
 4.26806
 4.08933
 0.724525
 0.878972
 1.06384
 0.904897
 1.9907
 1.70361
 2.09123
 1.92376
 6.89473
 6.86201
 6.98277
 6.90567
 8.23754
 8.40328
 8.53899
 8.36248
 4.47057
 4.34369
 4.55319
 4.44025
 8.17542
 7.96619
 5.78496
 6.0678
 6.01003
 5.86159
 5.55454
 5.57128
 5.68431
 5.49324
 5.78982
 5.77292
 5.86988
 7.81418
 7.75635
 7.8137
 3.92815
 3.92271
 3.85284
 3.7901
 4.26827
 4.29433
 4.44545
 4.10162
 6.88135
 6.67582
 6.76817
 6.86175
 2.47536
 2.23897
 2.5652
 2.45794
 5.10023
 5.34636
 5.21303
 5.02236
 8.00417
 8.00541
 8.03926
 8.01084
 6.1735
 6.03934
 6.16551
 4.16002
 4.1661
 4.34902
 4.18932
 4.87246
 4.75324
 4.62591
 -0.339651
 -0.250869
 -0.195043
 -0.140308
 8.98897
 9.06354
 8.97329
 9.18142
 6.40987
 6.21959
 6.24443
 6.3652
 6.52048
 6.56266
 6.71649
 6.51414
 -0.54153
 -0.464191
 -0.732751
 -0.908547
 2.31443
 2.19648
 2.21856
 7.14251
 7.17803
 7.25167
 7.16061
 2.04126
 2.30181
 2.19135
 7.04461
 7.0315
 7.16003
 7.12301
 10.9151
 10.8287
 10.9011
 10.8263
 0.740515
 0.65654
 0.488913
 0.781377
 7.78442
 7.83486
 7.9097
 8.04732
 -0.0255289
 0.0442001
 0.0795607
 0.0199011
 7.376
 7.17245
 7.32879
 7.24156
 10.8522
 11.0084
 10.8792
 10.8779
 8.52055
 8.68124
 8.54226
 8.46484
 7.71808
 7.59286
 7.48197
 7.74694
 5.07783
 5.35895
 7.7739
 7.74086
 8.00163
 7.96376
 3.96101
 4.07071
 4.13672
 4.2539
 5.31608
 5.31293
 5.41757
 5.15385
 0.871985
 1.15498
 0.682529
 0.635868
 1.37473
 1.49618
 1.31956
 1.2575
 1.88571
 2.05186
 1.91641
 2.09189
 1.18994
 1.14188
 1.08893
 1.24009
 3.22362
 3.28729
 3.0847
 3.24356
 1.78875
 1.55006
 1.6191
 1.72416
 8.83598
 9.03512
 9.0602
 8.81576
 1.06371
 0.924937
 0.985025
 1.01813
 5.87562
 6.02534
 6.11853
 6.03986
 2.33411
 2.68945
 2.59284
 1.33649
 1.12452
 1.13929
 1.21566
 7.70153
 7.88686
 7.90391
 7.83494
 8.57773
 8.62962
 8.70915
 8.66714
 2.82172
 2.86058
 2.9836
 2.65053
 5.61473
 5.6397
 5.68385
 5.79797
 3.24798
 3.39545
 3.26416
 3.29923
 3.29111
 3.29488
 2.89378
 6.10757
 6.16095
 6.31675
 3.38928
 3.3046
 4.52478
 4.78824
 -0.220659
 -0.361005
 -0.349986
 -0.236789
 4.72634
 4.63844
 4.75218
 4.5254
 3.38681
 3.48934
 3.21297
 3.48497
 4.18915
 4.07305
 4.1718
 3.99059
 1.82138
 2.00501
 1.89543
 2.03319
 2.06034
 5.65176
 5.62
 5.8123
 5.81774
 8.07055
 8.07016
 8.0676
 8.05488
 3.33678
 3.55265
 3.32943
 3.45868
 3.23152
 3.3523
 3.41637
 3.17675
 10.5701
 10.4809
 10.4317
 10.332
 5.03016
 4.86011
 4.94971
 5.06943
 5.13701
 5.30724
 5.37839
 5.21069
 3.53715
 3.69519
 7.76097
 7.71665
 7.64606
 7.74053
 6.47859
 6.37537
 6.43419
 6.54062
 7.49757
 7.57283
 7.63607
 7.61975
 6.68992
 6.56349
 6.58878
 6.72031
 7.42657
 7.44127
 7.51797
 7.40696
 2.25972
 2.36126
 2.28194
 2.13698
 1.03604
 1.05999
 1.28595
 1.14198
 6.95449
 7.0342
 7.13562
 6.94642
 5.04045
 5.21599
 5.05652
 5.13238
 1.88982
 2.14854
 1.95856
 2.08211
 5.81235
 5.91115
 5.93131
 5.70353
 6.97576
 6.84981
 8.39079
 8.32042
 8.27985
 8.40736
 5.42723
 5.49182
 5.59848
 5.68059
 1.7295
 1.83367
 1.82368
 1.55803
 0.270546
 0.426883
 0.375111
 0.243953
 10.1754
 10.1698
 5.82555
 5.66439
 5.60341
 5.55505
 6.10458
 6.37028
 6.20045
 6.19287
 6.33948
 6.39706
 7.34149
 7.24717
 7.27473
 7.18784
 5.34391
 5.16887
 5.08773
 8.79968
 8.6985
 8.69045
 8.61182
 1.20064
 1.02837
 1.35446
 1.17296
 0.467983
 0.481227
 0.474433
 -0.482583
 -0.299096
 -0.10754
 -0.279112
 4.32188
 4.01486
 4.13094
 4.08931
 5.0708
 4.82816
 5.16818
 4.95478
 2.36155
 2.03468
 1.91369
 2.11336
 3.50941
 3.53688
 3.33507
 3.5192
 3.90533
 3.71453
 3.81464
 4.73956
 4.70335
 4.81063
 4.56537
 2.9183
 2.5089
 2.65453
 2.87592
 5.73552
 5.82796
 5.71974
 5.69
 4.89417
 4.94894
 4.73067
 5.00998
 3.4545
 3.50369
 3.60761
 3.40789
 5.05226
 5.1904
 5.24839
 5.0304
 10.802
 10.8427
 10.7075
 10.7113
 7.23523
 7.30599
 7.3047
 7.42333
 2.94279
 2.94
 2.70472
 2.67749
 7.25916
 7.22358
 7.43202
 7.49665
 7.73479
 7.95516
 7.72825
 7.5889
 1.49677
 1.53372
 1.38238
 1.68097
 1.7398
 1.97366
 1.75806
 1.81293
 0.96854
 1.17377
 0.957697
 0.909086
 2.43965
 2.45106
 2.2492
 2.32906
 5.93892
 5.97029
 6.09346
 5.96955
 7.19888
 7.26045
 7.12109
 7.29095
 3.25797
 3.57826
 3.24098
 3.4985
 7.1159
 7.06102
 7.03989
 7.04851
 8.36115
 8.32037
 8.27407
 8.19663
 5.26089
 5.10665
 5.23097
 5.08174
 6.30437
 6.42106
 6.55582
 6.14431
 6.08649
 5.85748
 6.04693
 8.19826
 8.29386
 8.43456
 8.30004
 7.00544
 7.03179
 7.10826
 7.06094
 3.10902
 2.97515
 3.08878
 2.9937
 4.80381
 4.63276
 4.59931
 -0.500664
 -0.276236
 -0.305699
 -0.438785
 0.514908
 0.311319
 0.150671
 0.376725
 6.34938
 6.21204
 6.42266
 6.21673
 4.3499
 4.19495
 7.89352
 7.90527
 8.07694
 7.83568
 4.7573
 4.93957
 5.03524
 4.87632
 0.894044
 0.827714
 1.04844
 0.861664
 7.15313
 7.11644
 7.05122
 5.81956
 5.78509
 5.74416
 5.979
 6.242
 5.98962
 6.02715
 6.08574
 5.17355
 4.9714
 4.94729
 5.21533
 5.35069
 5.2391
 5.10446
 5.26399
 4.71722
 4.5962
 4.74113
 4.55073
 5.55121
 5.41204
 2.21717
 2.32918
 1.97276
 2.25417
 5.39378
 5.5799
 5.51376
 5.39591
 3.87004
 4.17613
 4.05939
 5.46845
 5.28601
 5.40352
 5.2995
 3.96421
 4.06731
 4.17339
 4.02115
 7.29438
 7.4661
 7.33538
 7.55037
 5.67928
 5.7124
 5.50104
 4.354
 4.32986
 4.0787
 4.473
 5.36497
 5.39526
 5.26021
 7.50647
 7.44706
 7.60404
 3.70726
 3.73284
 3.73603
 3.96023
 5.06726
 4.92319
 4.90224
 10.1931
 10.1525
 10.091
 10.3186
 3.53726
 3.68333
 3.78522
 3.51718
 6.15901
 6.37839
 6.35098
 6.40046
 1.99337
 1.99722
 1.91722
 1.77425
 1.56977
 1.72156
 1.45666
 1.49677
 7.67342
 7.45197
 7.72159
 7.68025
 4.51485
 4.6623
 4.76551
 6.60822
 6.79844
 6.66943
 6.67271
 1.27825
 1.61548
 1.43296
 4.95941
 4.79282
 4.91134
 4.72453
 3.2249
 3.13942
 3.14052
 3.18549
 0.923339
 0.828285
 0.7634
 0.947535
 11.3012
 11.4026
 11.3774
 11.3007
 6.82634
 6.79251
 6.68626
 6.84007
 4.50731
 4.16063
 4.2905
 4.21238
 8.39858
 8.52456
 8.55724
 5.05357
 4.88145
 4.93902
 5.09341
 0.462687
 3.49969
 3.641
 3.8939
 3.67876
 1.72422
 1.73134
 1.68208
 1.59655
 2.44532
 2.53794
 2.57984
 2.42985
 4.47076
 4.54477
 4.79079
 5.02474
 5.02798
 5.00934
 9.88002
 9.74633
 9.87012
 9.7879
 6.52537
 6.60038
 6.67287
 6.78741
 6.76917
 6.63845
 6.75517
 0.504913
 0.0881582
 0.50411
 0.52339
 5.18148
 5.19744
 4.96654
 4.98264
 4.39118
 4.476
 4.63594
 4.50008
 1.40508
 1.55235
 1.29322
 1.5554
 4.9179
 4.96645
 4.75294
 4.9419
 8.90535
 8.84873
 8.99471
 8.94437
 5.38829
 5.45631
 5.34456
 5.42122
 6.87849
 6.87252
 6.84513
 6.72819
 7.21484
 7.34753
 7.32005
 7.25168
 8.17951
 8.12391
 8.18648
 8.18758
 9.19886
 9.2682
 9.30052
 9.10639
 -0.529445
 -0.33045
 -0.423713
 -0.358875
 9.60834
 9.55404
 9.68915
 9.47176
 5.19151
 5.31257
 5.17805
 5.35669
 -0.245495
 -0.213955
 -0.0663569
 -0.0970805
 5.99587
 6.0276
 5.91604
 5.85033
 8.08888
 0.95568
 1.08789
 1.04199
 0.809793
 7.36011
 8.97773
 8.79898
 8.77163
 8.93613
 4.18483
 3.9408
 2.30842
 2.57582
 2.27154
 2.53589
 1.58279
 1.61092
 1.46033
 1.48622
 -0.675451
 -0.446216
 -0.686423
 2.26768
 2.00457
 2.01872
 2.03871
 5.85775
 0.149556
 3.28752
 3.362
 3.43225
 0.479876
 0.311372
 0.276605
 0.360801
 5.91681
 5.92329
 5.93429
 6.05459
 6.80413
 6.75477
 6.88462
 6.96006
 3.35099
 3.49458
 3.43337
 3.13199
 0.392833
 0.203568
 0.449136
 0.456825
 1.23119
 1.29319
 1.16304
 1.31073
 3.87258
 3.55073
 3.58974
 9.21916
 9.31379
 9.03
 9.21448
 11.1761
 11.0348
 11.1114
 11.041
 8.19468
 8.39233
 8.41488
 8.30991
 4.61099
 4.4385
 4.64764
 8.78388
 8.63792
 8.6963
 8.81676
 1.94129
 2.00752
 1.75147
 2.04946
 2.0022
 2.14386
 2.0501
 7.28806
 7.35849
 3.04708
 2.86259
 -1.20578
 -1.03997
 -1.25055
 -0.422306
 -0.506015
 -0.469311
 -0.585938
 5.55961
 5.72796
 5.45303
 5.58633
 6.58107
 6.61832
 6.70522
 6.50365
 5.33724
 5.34358
 5.15302
 5.18907
 0.0520153
 0.0699759
 0.0123862
 0.0708495
 3.11484
 3.01112
 3.08062
 3.21321
 8.17087
 8.18121
 8.17189
 8.04636
 2.99053
 2.92224
 3.08043
 2.84414
 4.415
 4.36932
 4.54905
 4.32589
 3.38011
 3.22764
 3.25281
 11.5616
 11.5285
 11.5111
 6.56062
 6.657
 5.89308
 5.8877
 6.05556
 5.79794
 2.57586
 2.35093
 2.50327
 2.57436
 2.98739
 2.89252
 2.63452
 2.85101
 2.8351
 2.94948
 2.59694
 10.0087
 10.0189
 8.27377
 8.29394
 8.20077
 8.26021
 4.39367
 10.1219
 10.2576
 10.201
 10.1931
 6.93112
 6.72457
 6.88803
 6.91352
 5.69005
 5.77733
 9.15509
 8.89438
 8.91784
 9.05215
 -0.549869
 -0.805788
 -0.700938
 -0.604052
 0.310845
 0.2414
 0.347257
 0.0464432
 7.54012
 7.23813
 7.46095
 7.30281
 6.59176
 6.69366
 6.3564
 6.43105
 6.56035
 6.66588
 6.56181
 2.70085
 2.57627
 2.87396
 2.69381
 8.08777
 7.98375
 7.90963
 7.88624
 5.19698
 5.11319
 5.22604
 3.76467
 3.72212
 3.62498
 3.46596
 6.66266
 6.62797
 6.5083
 6.58947
 7.17686
 7.00703
 6.90391
 7.0873
 7.23358
 7.35495
 7.32296
 7.18502
 5.99184
 5.91732
 5.77001
 5.92199
 3.57259
 3.72693
 6.8887
 6.85234
 6.80115
 6.95204
 -0.616713
 -0.239299
 -0.288087
 -0.311275
 7.46528
 7.37441
 7.46187
 7.3527
 8.73731
 8.78081
 8.60468
 8.69311
 4.3259
 4.27598
 9.56122
 9.52199
 9.6607
 9.48475
 6.26694
 6.1535
 6.34782
 0.582501
 0.663642
 0.503045
 0.471102
 9.37169
 9.43438
 9.38602
 7.27507
 7.28326
 7.12463
 7.18211
 9.04862
 7.31656
 7.39073
 7.36012
 7.5341
 4.96107
 5.08875
 4.93879
 4.96406
 5.71621
 5.67391
 5.57161
 5.72881
 0.278931
 0.00683746
 4.69516
 4.5888
 4.63158
 4.69253
 7.40895
 7.60602
 7.38061
 7.61864
 6.47642
 6.10872
 6.30072
 6.46646
 0.99864
 1.1703
 1.15307
 1.14449
 5.71137
 5.63767
 5.45086
 5.51553
 4.33912
 1.68703
 1.54883
 1.75205
 6.409
 6.3648
 6.54118
 6.29491
 3.1209
 3.18527
 3.07323
 3.33525
 6.10231
 6.23169
 6.22961
 6.02617
 0.285651
 0.530057
 0.57457
 0.435432
 -1.13931
 -1.2552
 -1.07751
 7.26654
 7.14488
 6.98218
 7.09927
 3.90949
 3.80906
 4.05394
 3.96809
 3.18293
 3.12032
 2.97804
 2.88246
 6.63122
 6.61862
 7.18761
 7.26325
 7.32103
 7.13206
 6.03827
 5.75668
 4.04877
 3.97791
 4.07983
 4.15237
 3.62732
 3.54647
 3.38834
 3.63495
 5.84949
 5.77077
 5.61871
 5.71016
 4.24998
 4.23042
 4.2224
 1.2372
 1.50982
 1.57878
 1.4504
 2.354
 2.4238
 2.28886
 5.8937
 5.61534
 5.89467
 5.74812
 7.03207
 7.24325
 7.34608
 7.11478
 3.1686
 3.40813
 3.39504
 3.23533
 5.70797
 5.72616
 5.9254
 8.09715
 8.11879
 8.08932
 8.11566
 6.64695
 6.6685
 6.58723
 6.52539
 2.16768
 2.21305
 2.36714
 -0.495338
 -0.233764
 -0.267349
 3.36499
 3.26231
 3.24974
 6.65886
 6.82309
 6.59526
 6.7645
 -0.251286
 -0.285398
 -0.23635
 -0.379319
 3.70028
 3.81362
 3.69879
 3.54747
 1.82308
 1.7188
 1.40035
 1.46262
 2.15053
 2.03679
 2.15193
 2.12946
 8.62084
 8.74274
 8.74312
 5.98527
 5.94054
 6.06842
 5.9216
 1.91056
 1.80436
 2.00584
 2.00088
 5.46691
 5.37722
 5.34911
 5.14586
 2.96362
 2.96216
 3.01355
 3.25074
 0.685674
 0.535054
 8.20814
 8.08793
 8.11043
 8.03433
 2.57393
 2.69897
 2.40323
 2.63304
 6.01573
 6.09879
 6.15685
 5.96685
 3.37391
 3.62683
 -0.0808262
 -0.0716452
 0.118422
 -0.16966
 1.8395
 1.56486
 1.92687
 1.44803
 -0.468703
 -0.487419
 -0.666514
 -0.787608
 2.73545
 2.77327
 2.65353
 3.32892
 3.05082
 3.10288
 3.1787
 3.02176
 3.1789
 3.11119
 3.33788
 6.92794
 6.8783
 7.04274
 7.08865
 8.94461
 9.01544
 8.84211
 5.03443
 5.00608
 4.99708
 1.31234
 1.52964
 1.39667
 1.58732
 5.81764
 5.69475
 5.53562
 5.68404
 7.45438
 7.65054
 7.61274
 7.44464
 4.97037
 5.15758
 5.25785
 5.25549
 6.14093
 5.89737
 6.12729
 -0.0660818
 -0.155303
 0.125569
 0.118996
 8.03099
 7.97302
 7.66431
 7.57054
 7.55686
 2.99735
 2.91286
 3.12764
 2.78814
 5.22732
 5.0208
 5.01554
 5.1073
 7.70483
 7.67399
 7.53986
 7.67679
 4.36589
 4.70607
 4.69164
 4.47505
 6.38799
 6.51697
 6.28833
 6.29863
 1.05662
 0.99215
 0.674305
 6.64262
 6.67408
 6.52415
 6.53878
 4.45171
 4.30702
 7.78706
 7.58694
 7.6478
 7.7544
 7.5315
 7.68189
 7.60907
 7.67234
 0.745177
 0.886831
 7.28332
 7.12916
 7.21592
 7.3449
 4.95168
 5.14276
 5.03692
 4.94771
 6.11926
 8.77644
 8.91221
 8.869
 4.27452
 4.31218
 4.24726
 4.41971
 0.707718
 0.684681
 0.848888
 0.590927
 8.57518
 8.55367
 8.48951
 8.62808
 7.56641
 7.4382
 7.60286
 7.57278
 3.2593
 3.15426
 3.14686
 8.39985
 8.3856
 8.29474
 8.25497
 -0.531999
 -0.302183
 -0.444362
 -0.576137
 8.16123
 8.05239
 8.01201
 8.2292
 3.59639
 3.81589
 3.65254
 3.43124
 6.06715
 5.95444
 5.99442
 6.11825
 7.666
 7.60535
 7.63741
 6.29156
 6.08666
 6.30721
 6.13899
 7.83342
 7.98723
 7.88568
 7.88587
 7.42085
 7.53129
 7.45036
 2.50187
 2.69895
 2.45093
 2.63908
 2.85979
 5.26203
 4.8701
 5.12212
 5.11339
 0.503901
 0.587347
 0.724522
 0.585324
 4.27552
 4.05508
 4.39942
 4.1364
 3.54183
 3.38523
 3.5461
 3.60715
 7.60481
 7.67596
 7.49889
 7.22647
 7.27623
 3.80269
 4.05764
 3.86948
 3.76884
 0.690879
 0.376174
 4.64102
 4.58666
 4.7726
 4.53963
 7.83206
 7.87109
 7.72777
 1.17433
 1.04779
 1.2485
 1.16919
 4.69732
 4.95326
 4.87296
 4.82439
 7.6829
 7.77281
 7.68207
 7.61718
 5.17339
 5.20419
 4.92871
 5.12215
 3.73138
 3.38391
 8.44785
 8.52534
 8.48427
 8.57086
 7.2948
 7.02837
 6.90615
 6.99663
 6.86161
 6.90332
 6.93771
 7.13892
 7.07158
 6.96481
 4.83008
 4.83746
 4.87923
 3.91059
 3.99647
 4.0717
 4.16452
 7.01028
 7.03125
 6.99725
 7.02664
 6.05213
 6.07924
 4.39107
 4.54342
 4.46627
 4.61714
 4.41984
 4.39215
 5.28804
 5.06627
 5.03935
 5.23198
 9.50619
 9.33791
 9.36869
 9.2885
 4.47065
 7.83494
 7.68422
 7.79074
 7.82717
 0.0324404
 -0.169546
 0.0576392
 2.74896
 2.81724
 2.9409
 2.71611
 5.26004
 5.14935
 5.22159
 5.49685
 4.84871
 4.69001
 4.92091
 7.33567
 7.20775
 7.27711
 7.3692
 0.897522
 0.720912
 1.13598
 0.839049
 3.68137
 3.7515
 3.57376
 3.63585
 0.924987
 0.849606
 1.18461
 1.006
 8.01488
 7.99185
 8.13829
 8.12968
 6.97633
 6.84697
 2.61305
 2.69842
 2.80682
 2.67409
 0.5763
 0.553361
 0.510439
 0.650627
 -1.11673
 -1.21144
 -1.03529
 -1.28208
 0.792715
 0.96165
 0.773105
 3.72473
 3.5658
 3.77144
 3.6479
 1.0607
 0.968701
 0.870227
 0.948006
 8.13519
 7.99777
 7.872
 8.0256
 1.76404
 1.61682
 1.57102
 3.7353
 3.79723
 3.85336
 3.85359
 7.86088
 7.93004
 7.85827
 7.97418
 3.25897
 3.03434
 3.17291
 3.1561
 4.17642
 4.02004
 3.95889
 4.14389
 6.70598
 6.6219
 6.54587
 6.42769
 8.25189
 8.22359
 8.40844
 8.39647
 5.62833
 5.56889
 5.41335
 5.59274
 9.80822
 9.76795
 9.58149
 9.66869
 7.48203
 7.37742
 7.49948
 7.13369
 7.30533
 7.30805
 7.35071
 10.3697
 10.3132
 10.4641
 10.3079
 1.25568
 1.41481
 1.3967
 2.07531
 2.04593
 1.86194
 1.90568
 6.99344
 6.73519
 6.81717
 8.9024
 8.86376
 8.94011
 8.17046
 8.31878
 8.16744
 8.15518
 6.9087
 6.93233
 6.78853
 7.04924
 3.6163
 3.34333
 3.49181
 3.52685
 9.45881
 9.45907
 9.35348
 9.50786
 4.01488
 4.33011
 4.36959
 4.11126
 2.07109
 1.90334
 2.2347
 2.06533
 4.44458
 4.45712
 4.15802
 4.28351
 5.68304
 5.80568
 5.53642
 7.73917
 7.75488
 7.73857
 7.64167
 0.863468
 0.678598
 0.614122
 0.681024
 1.78417
 1.65819
 1.80243
 1.93493
 6.79656
 6.66165
 6.74682
 6.87278
 0.327287
 0.21015
 0.0999861
 0.741783
 0.415649
 0.682911
 0.621946
 0.420984
 0.385285
 0.572816
 0.50764
 9.26575
 9.30468
 10.3802
 10.3547
 10.4385
 10.2648
 3.77685
 3.86596
 4.00384
 5.195
 5.32999
 5.03953
 5.28211
 4.89879
 4.69105
 4.75754
 4.87293
 11.4615
 5.79989
 3.9993
 3.80717
 1.8681
 1.73854
 1.80264
 1.802
 8.90787
 6.23198
 6.07091
 6.23616
 -1.34194
 -1.21619
 -1.22325
 -1.22864
 4.83056
 4.9738
 4.83185
 4.66792
 0.104695
 0.238594
 0.113279
 0.308874
 5.67457
 5.47378
 5.81785
 6.17901
 5.97069
 6.09971
 1.30393
 1.22724
 1.4896
 1.27801
 4.04935
 4.15001
 4.29146
 4.39307
 8.08609
 8.19851
 7.97786
 8.0245
 1.84535
 1.48049
 1.61867
 0.174056
 -0.161588
 -0.16418
 0.159693
 1.91641
 1.96391
 2.14402
 1.93333
 7.00146
 7.02609
 6.73693
 7.04192
 6.64049
 6.76257
 6.73816
 6.75112
 1.12059
 0.956305
 0.971547
 0.938874
 5.84559
 5.83851
 6.00676
 2.43862
 2.40719
 2.49588
 2.61349
 7.74181
 7.59367
 7.82631
 7.81015
 3.84877
 3.74859
 4.02003
 3.90834
 7.90754
 7.79825
 7.90136
 7.8888
 4.50041
 4.3469
 4.50906
 4.42779
 2.19057
 2.1556
 1.9586
 2.35384
 8.22807
 8.27603
 8.15861
 4.68618
 4.51432
 1.61565
 1.72407
 1.7372
 1.87858
 5.83614
 5.94624
 5.96522
 8.02521
 8.17254
 8.21225
 8.13895
 3.32166
 3.24081
 3.34713
 3.16533
 3.70105
 3.73007
 3.40613
 3.64649
 10.9587
 10.9645
 10.8324
 10.9163
 5.00044
 5.2082
 5.07834
 10.0248
 9.91222
 9.87357
 4.84177
 4.87045
 4.97582
 4.89206
 5.10349
 7.97159
 7.9399
 8.17292
 8.09935
 5.59579
 5.43
 5.35242
 1.8588
 1.85718
 1.86872
 1.95862
 5.33518
 5.24335
 5.14097
 5.14415
 5.14706
 5.22155
 5.26363
 -1.02172
 -0.909629
 -0.875487
 -0.710221
 7.17517
 6.85115
 6.9293
 7.03392
 8.43722
 8.42969
 8.36669
 8.37783
 6.24668
 6.31004
 6.02897
 6.21966
 1.35399
 1.24041
 1.20649
 1.51884
 11.0417
 10.9257
 11.0177
 10.856
 2.53437
 2.76333
 2.61424
 2.59864
 8.43519
 8.54418
 8.47617
 8.49489
 1.74572
 2.22036
 2.10028
 1.88859
 2.32724
 2.45607
 2.5673
 2.41932
 2.5355
 2.42437
 6.96371
 7.07023
 7.08129
 6.98953
 0.881423
 0.868785
 0.879688
 2.57106
 2.88871
 2.74766
 2.51405
 7.26941
 7.09238
 7.20954
 7.37265
 6.26363
 6.33646
 6.11069
 11.5734
 11.5702
 11.6172
 11.5717
 5.11365
 5.37339
 5.10423
 0.891869
 0.740958
 0.934046
 0.994542
 2.07727
 2.23077
 1.13402
 0.91159
 0.747597
 1.05817
 2.87089
 2.8504
 8.51922
 8.46606
 8.65369
 8.36535
 2.33877
 2.3869
 2.36157
 2.60847
 4.8146
 4.70164
 6.41032
 6.27536
 6.31757
 6.39209
 2.19241
 2.08515
 2.01121
 2.09226
 6.86659
 7.16246
 7.14778
 6.92812
 1.04381
 1.06663
 0.849299
 0.555862
 4.13106
 4.07704
 4.30471
 8.75518
 8.82686
 8.84611
 8.74868
 3.67962
 3.72325
 3.81665
 3.9306
 7.16303
 7.3232
 7.36696
 7.43505
 7.00798
 7.20479
 7.07081
 11.1649
 11.1739
 11.1712
 11.094
 8.22182
 7.98217
 7.92388
 8.1394
 2.02949
 2.14473
 1.92854
 2.15704
 5.19422
 5.13828
 5.32576
 6.07427
 7.71313
 7.62794
 7.68466
 7.57041
 5.99008
 6.13607
 6.00463
 5.93895
 3.0092
 2.71015
 2.67452
 2.94754
 7.7736
 7.77025
 7.47921
 8.95303
 4.18885
 4.10174
 4.32897
 4.00505
 7.64678
 7.41935
 10.1716
 10.2762
 7.68851
 7.56168
 7.69076
 7.87621
 2.92384
 2.7456
 1.56657
 1.57945
 1.49179
 1.61446
 6.42501
 6.26978
 6.24805
 6.27893
 0.194316
 0.146823
 -0.0263389
 0.139662
 6.37198
 6.34759
 6.69555
 6.67568
 2.51751
 2.48863
 2.60095
 2.86574
 7.26237
 7.25307
 7.1697
 7.16157
 2.32332
 2.19575
 2.4616
 2.29219
 5.75154
 5.59292
 0.595018
 0.716305
 3.35221
 3.20055
 3.42183
 3.1481
 3.33517
 3.43246
 3.41922
 3.19354
 4.5471
 4.67102
 4.48744
 4.48052
 2.34627
 2.60643
 2.32451
 2.14885
 7.32383
 7.48916
 7.39048
 7.40045
 0.755673
 0.85732
 0.880553
 0.457932
 0.373309
 0.593099
 0.446374
 7.84631
 7.66367
 7.66768
 7.74973
 2.94501
 3.19365
 3.15923
 3.05181
 7.86006
 7.71857
 7.70461
 7.56363
 4.83631
 5.33627
 5.07794
 5.07386
 5.32238
 1.75911
 1.7251
 1.72331
 1.97875
 9.78082
 9.88859
 9.81427
 9.6856
 3.07124
 2.94566
 2.79349
 2.98162
 4.93647
 4.75971
 5.12634
 4.98216
 2.9195
 3.07495
 3.10547
 3.11606
 3.46638
 -0.966531
 -0.835801
 -0.542865
 -0.691887
 2.18958
 2.17649
 2.49947
 2.41949
 10.1369
 10.0675
 9.96539
 10.1584
 5.78918
 5.99226
 6.0767
 5.90093
 6.66142
 4.78056
 4.80172
 4.74079
 4.58824
 1.05275
 1.0557
 1.27023
 1.3771
 1.75151
 1.7793
 1.54287
 1.07457
 1.55144
 1.32372
 1.42306
 10.9944
 10.9298
 2.4788
 2.50991
 2.49756
 6.80516
 6.81383
 6.86272
 6.66324
 2.75567
 2.85851
 2.72347
 2.90942
 4.54065
 3.25425
 3.46168
 3.24627
 3.3057
 0.485846
 0.861368
 0.751148
 0.509451
 3.29875
 3.14788
 2.87288
 3.24787
 5.86239
 5.79298
 6.04884
 5.65712
 7.89878
 7.86777
 7.94894
 7.83344
 -0.657895
 -0.395385
 -0.719763
 -0.622857
 2.86133
 2.95302
 2.77513
 3.03009
 -0.346924
 -0.2475
 -0.289441
 -0.455611
 6.76723
 7.01147
 6.76749
 6.73545
 4.58021
 4.68113
 0.566034
 0.250642
 0.589206
 0.425324
 4.56823
 4.51433
 4.51754
 4.32471
 5.26495
 5.0485
 4.68252
 4.59524
 4.46641
 4.68426
 1.61631
 1.64361
 1.7193
 1.4789
 6.37376
 6.59239
 6.68952
 6.49587
 8.6072
 8.48288
 8.58529
 8.58499
 8.10107
 8.15308
 8.15883
 8.16266
 6.54513
 6.44452
 6.43272
 6.59409
 5.67083
 5.92118
 5.74945
 5.52464
 5.80449
 5.66874
 5.59101
 4.89667
 5.02613
 5.09528
 4.93662
 8.67693
 8.71245
 8.64782
 6.01919
 6.13043
 5.90987
 5.95033
 4.57822
 4.39289
 4.41381
 4.65449
 6.97374
 7.14294
 6.89257
 7.1588
 6.6123
 6.45955
 6.49726
 6.51282
 4.27927
 4.27206
 4.1215
 3.9808
 5.13197
 5.2977
 5.14673
 5.19236
 3.13004
 3.2268
 3.13876
 3.21819
 8.18054
 8.13578
 8.07936
 1.9623
 2.07899
 1.81008
 2.05135
 6.96613
 6.80472
 6.92407
 7.04422
 5.6922
 5.79102
 5.87871
 5.63194
 5.33408
 5.1667
 5.11712
 3.87859
 3.89103
 3.81611
 3.66239
 3.40132
 3.37845
 3.24145
 3.48859
 3.05634
 3.00302
 2.83465
 1.50942
 1.44899
 1.44399
 3.48669
 3.57961
 3.71946
 3.58048
 1.30131
 1.19567
 1.46416
 0.83079
 0.818432
 0.878576
 1.06936
 5.2063
 5.55684
 5.35689
 5.44578
 6.67934
 6.8051
 6.64229
 6.78965
 7.42074
 1.4897
 1.58757
 1.23948
 1.49216
 1.32322
 1.71827
 11.253
 11.3178
 11.2442
 11.1941
 2.44245
 2.62048
 5.65985
 5.8397
 5.61791
 -0.350711
 -0.566707
 3.83509
 4.13537
 4.04806
 3.99566
 5.80592
 5.70924
 5.70481
 2.3925
 2.00224
 2.22535
 2.10452
 6.70475
 6.65889
 6.78399
 6.59124
 10.4066
 10.2885
 10.3178
 10.4434
 4.1492
 4.1108
 4.2016
 3.94077
 1.64359
 1.24773
 1.62438
 2.16419
 2.18151
 2.12373
 2.30817
 7.06576
 7.31747
 7.2638
 7.41811
 7.04466
 6.91392
 7.67733
 7.54344
 7.72563
 -0.427311
 -0.269235
 1.69645
 1.92656
 1.67509
 1.96299
 4.66718
 4.39895
 4.443
 2.61182
 2.85791
 2.43019
 2.43155
 6.96625
 7.22456
 7.17703
 7.05238
 5.02034
 5.04131
 4.86102
 4.82008
 5.12526
 4.97744
 4.96486
 5.1312
 7.27862
 7.19593
 7.26995
 6.90126
 6.99497
 6.92038
 6.94003
 -1.17881
 -1.37748
 -1.25354
 -1.47726
 8.33699
 8.5376
 0.980872
 0.864321
 0.904544
 1.03849
 5.64799
 5.46375
 5.54538
 5.63678
 4.59881
 4.45961
 4.46376
 4.44476
 8.13853
 8.01337
 4.80371
 4.9406
 4.94812
 5.0687
 5.6691
 5.73992
 5.7945
 5.60599
 1.7955
 1.831
 1.907
 1.77595
 5.31304
 5.17203
 5.13809
 5.40562
 6.81929
 6.8076
 3.854
 3.84919
 3.96361
 3.79899
 2.8906
 2.97504
 2.79852
 4.65139
 4.44826
 4.51814
 4.40822
 7.54632
 7.45551
 7.58912
 7.36324
 10.5966
 10.4679
 10.486
 10.6111
 5.23403
 5.3473
 5.19584
 4.97584
 4.36869
 4.10087
 4.30806
 4.35541
 5.88367
 5.77857
 5.98601
 5.94369
 6.49135
 6.59732
 6.46652
 6.38204
 1.7167
 1.5001
 3.78781
 3.89205
 3.97122
 9.50586
 9.56719
 9.64686
 9.48162
 7.23678
 7.37757
 7.14002
 7.43877
 4.70326
 4.63875
 4.759
 4.8326
 1.73709
 1.64325
 1.65214
 5.55564
 5.63261
 5.85173
 5.85906
 6.92608
 6.69236
 6.77598
 6.93809
 2.60918
 2.86713
 2.88199
 2.7292
 3.89879
 3.96108
 4.03999
 4.02391
 1.97611
 1.93715
 1.9576
 2.36218
 2.32895
 2.32977
 2.32176
 6.1175
 6.07174
 6.2188
 6.29646
 5.39026
 5.44251
 5.27378
 10.3957
 10.373
 10.395
 10.4793
 6.87721
 6.86585
 8.52487
 8.63162
 8.47452
 8.37578
 7.37824
 8.01254
 1.12622
 6.74497
 6.93299
 6.78861
 7.01497
 -0.594316
 3.76177
 3.94629
 3.76432
 4.02678
 6.79206
 6.61825
 6.71148
 6.07374
 5.91797
 5.91357
 1.8716
 1.84278
 2.13356
 1.88059
 2.02178
 2.15045
 1.98478
 2.14694
 7.73989
 7.95362
 7.96082
 7.80681
 0.395716
 0.353274
 0.252097
 0.524752
 5.00137
 5.17958
 5.33399
 2.06554
 1.90082
 2.00539
 4.3204
 4.50261
 4.43367
 4.28418
 6.73546
 6.63947
 6.85823
 6.78817
 4.34115
 4.04695
 4.32105
 6.53921
 6.48055
 6.47236
 6.67047
 5.62174
 5.35813
 1.79378
 1.64954
 1.5969
 1.40429
 1.09104
 0.810667
 0.967497
 1.03774
 7.30967
 7.14038
 7.37088
 7.21972
 2.79965
 3.09508
 2.95416
 2.73355
 3.91263
 4.22196
 3.96997
 3.8243
 5.93722
 6.10057
 5.85236
 5.96224
 1.37019
 1.47676
 1.54929
 1.66895
 5.52991
 5.70687
 5.41701
 5.50097
 5.00419
 5.15012
 5.15472
 4.84627
 5.51345
 5.63661
 5.47288
 5.44969
 7.16841
 6.98938
 7.48493
 7.3642
 7.24455
 7.44868
 8.75965
 8.9714
 8.81889
 8.76463
 3.79479
 3.80833
 3.84409
 3.61292
 4.07559
 4.27047
 4.26934
 0.323727
 0.279886
 0.236997
 0.262609
 -0.441736
 -0.563851
 -0.350662
 0.782604
 0.675807
 0.999109
 4.34293
 4.10995
 3.95812
 4.25376
 3.15661
 3.02171
 2.89219
 3.26115
 1.90862
 1.71275
 1.86638
 1.67982
 6.58463
 6.76664
 6.72282
 6.6085
 8.43674
 8.30924
 8.22857
 8.23308
 -0.459563
 -0.492079
 -0.285857
 -0.68603
 6.96818
 7.02873
 7.11118
 6.93411
 4.56417
 4.56979
 4.46428
 4.61916
 -0.658718
 -0.58959
 -0.30683
 -0.826298
 3.62454
 3.83499
 3.55819
 3.62945
 5.7958
 5.88397
 5.8028
 5.87417
 6.90416
 7.04968
 7.02703
 7.99069
 7.80951
 7.91974
 8.01962
 7.54679
 7.61721
 7.52959
 7.63247
 7.48867
 7.57959
 7.06375
 6.95892
 7.25701
 2.08989
 2.22453
 2.25916
 2.28908
 0.629169
 0.774705
 0.725723
 0.751339
 3.42836
 3.5016
 3.4614
 3.74571
 5.37793
 1.19655
 1.10142
 1.13046
 1.27899
 8.03544
 8.04504
 8.05462
 8.08608
 0.00947653
 -0.126803
 0.0553887
 -0.246855
 6.11874
 6.26451
 6.00341
 2.97218
 7.90846
 7.92555
 8.04091
 7.2833
 7.3775
 7.48158
 7.21306
 4.73505
 4.76636
 5.03439
 4.84769
 2.57269
 2.56596
 2.72864
 2.41338
 5.38861
 3.04496
 3.14824
 3.18867
 5.30382
 5.34332
 5.29615
 5.10038
 6.55613
 6.50437
 6.64626
 6.64897
 6.03912
 6.26677
 6.09997
 6.06942
 2.94473
 7.11913
 7.09147
 7.01091
 2.20895
 2.35345
 2.15136
 2.29199
 1.49042
 1.5699
 1.30314
 1.63619
 0.658738
 0.525628
 0.686501
 6.57119
 6.55938
 6.68584
 6.55252
 8.21906
 8.32401
 8.22907
 1.83675
 1.8685
 1.41521
 1.50387
 1.61244
 1.62181
 5.35685
 5.32549
 5.19673
 -0.0695475
 0.00207816
 -0.184406
 0.0221046
 1.67548
 1.7515
 1.65732
 1.57289
 3.64818
 3.61128
 3.51005
 3.46153
 4.56189
 4.50087
 4.62352
 4.78318
 6.95891
 6.98538
 7.03474
 6.89871
 1.50827
 1.5
 1.61499
 1.32673
 6.44817
 6.39483
 6.62312
 6.0584
 5.90131
 5.87178
 5.82869
 0.660738
 0.710613
 0.409163
 0.562002
 3.08214
 3.05471
 3.12913
 3.20664
 -0.199286
 -0.0381468
 0.142919
 -0.0860077
 6.09148
 5.96741
 5.8917
 5.91654
 4.61802
 4.54955
 4.77391
 4.39932
 1.37845
 1.41249
 1.26676
 1.35189
 4.74793
 4.6
 4.81386
 4.77484
 -0.170293
 -0.430414
 -0.211778
 6.64715
 6.70997
 6.74054
 6.71308
 4.18139
 4.18666
 4.25265
 4.38345
 3.75062
 3.53849
 3.70941
 3.67367
 4.9962
 5.10871
 4.81158
 5.02866
 1.55772
 1.56423
 1.29635
 1.46524
 5.26441
 5.47278
 5.33995
 5.40579
 3.90242
 3.95658
 3.93211
 4.07636
 8.12958
 8.12036
 8.15113
 8.12871
 2.1997
 2.1569
 2.33315
 2.43572
 8.16709
 8.17025
 8.1732
 6.99546
 7.07996
 7.07863
 6.97748
 7.59508
 7.51019
 7.21078
 7.45239
 2.52072
 2.60341
 2.46006
 2.32177
 3.26425
 2.98685
 3.21214
 3.16511
 6.13862
 6.30776
 6.2885
 6.39543
 -0.842973
 -0.689751
 -0.518847
 10.3183
 10.3465
 3.90114
 3.72415
 4.01076
 3.91811
 9.07428
 9.2128
 9.36864
 9.23097
 3.29737
 3.25993
 3.02408
 3.13255
 5.94176
 6.46874
 6.54007
 6.58525
 6.68804
 2.53825
 2.48837
 2.44544
 2.36075
 1.24426
 1.35009
 1.11593
 1.30374
 8.12249
 8.12251
 2.93934
 2.83559
 2.51529
 2.86536
 4.16935
 4.52868
 4.12995
 4.32346
 6.84115
 6.83961
 6.95275
 6.6109
 5.26915
 5.44705
 5.48416
 5.25656
 1.80661
 2.05599
 1.56577
 0.562937
 0.629433
 0.602407
 0.623435
 -0.604144
 -0.602496
 -0.677599
 6.35594
 6.46172
 6.43009
 6.32034
 0.760771
 0.922014
 0.997419
 1.02624
 7.69675
 7.82792
 7.7746
 7.73687
 3.43623
 3.47454
 3.39673
 3.6481
 4.36175
 4.12052
 4.30853
 4.29925
 0.527967
 0.524193
 0.542106
 0.39145
 3.16868
 3.04777
 3.22541
 3.35215
 9.43662
 9.51411
 9.55272
 9.44561
 5.37312
 5.65218
 5.39845
 5.59012
 6.2697
 6.02968
 6.03885
 6.2668
 2.61944
 2.51036
 2.72105
 2.88582
 7.48722
 7.60457
 7.65643
 7.64355
 3.9343
 4.08118
 4.05758
 3.82251
 6.46203
 6.59566
 6.62851
 8.30938
 8.40158
 8.38269
 8.45009
 3.83034
 3.64132
 3.96218
 3.45658
 3.48021
 3.59601
 7.09688
 7.25956
 7.37598
 7.41906
 7.43328
 7.35856
 7.29562
 0.89707
 11.3908
 11.3245
 11.3429
 11.4471
 1.62056
 1.77219
 1.44968
 1.64173
 7.84107
 6.00659
 6.04367
 6.08502
 5.84243
 6.29907
 6.41417
 6.06384
 7.04781
 6.81902
 6.92635
 6.99957
 9.39419
 9.42555
 9.33042
 9.53327
 7.70498
 7.57801
 7.58858
 4.6256
 4.72923
 4.72129
 6.38386
 6.44962
 -1.13292
 -0.879142
 -0.868502
 7.59129
 7.44587
 7.65957
 6.08594
 5.94383
 5.86965
 0.753522
 0.543454
 0.561523
 2.45718
 2.44706
 2.24216
 2.43563
 6.95236
 6.86081
 6.80019
 8.16551
 8.32773
 0.263705
 0.429148
 0.166272
 0.254002
 8.92424
 8.87444
 9.04668
 8.76715
 7.55299
 7.61102
 10.5866
 10.6933
 9.97891
 10.0007
 9.9333
 6.06233
 5.95415
 6.15291
 0.410013
 0.642195
 0.76567
 3.0368
 3.01757
 2.81896
 6.84638
 6.73852
 6.56951
 6.46849
 6.62936
 1.25531
 8.25091
 8.25286
 8.18663
 8.18004
 6.23213
 5.91252
 6.13843
 6.1224
 2.68781
 2.72688
 2.58225
 2.94944
 2.91992
 3.0472
 2.9873
 6.08588
 6.14995
 5.97995
 5.84358
 2.94688
 2.88426
 2.71148
 2.7225
 2.29347
 2.4701
 2.36052
 2.12412
 5.03333
 2.93713
 2.86403
 2.8353
 2.76186
 -0.0429886
 -0.157572
 -0.0400599
 0.0974093
 7.20722
 7.49806
 7.54206
 7.32951
 0.401164
 0.24407
 0.359297
 0.382655
 10.7039
 10.6456
 10.7453
 0.330795
 0.471254
 0.117152
 0.20967
 7.15331
 7.18972
 7.34983
 7.32995
 2.16603
 2.37071
 2.22027
 2.06989
 7.53773
 7.52631
 7.87194
 7.79578
 -0.293605
 1.86151
 2.15972
 2.03867
 2.24816
 1.18076
 0.977992
 1.0619
 8.08685
 8.0074
 8.13974
 8.19839
 2.55985
 2.71709
 2.71364
 2.83012
 4.09267
 3.89447
 3.87979
 3.96229
 4.37345
 4.25568
 4.52814
 4.54462
 -0.704337
 -0.466174
 5.73026
 5.71101
 5.7343
 6.05049
 5.89864
 5.83073
 5.74019
 2.79877
 2.94303
 2.60119
 2.56409
 2.85643
 2.75667
 2.76246
 2.58326
 3.79076
 3.75643
 3.61078
 3.84796
 7.11349
 7.11646
 6.69111
 6.80527
 6.81474
 6.08089
 5.95259
 5.95021
 5.92748
 8.42136
 8.54839
 8.52345
 8.52682
 6.21465
 6.34366
 6.49221
 9.33469
 9.33612
 9.19355
 6.21807
 6.23825
 6.39429
 6.10797
 7.10418
 6.88874
 7.15921
 5.28166
 2.76202
 2.85076
 2.5941
 5.79306
 5.84379
 5.71721
 5.61534
 7.65288
 7.64268
 7.251
 7.4515
 5.00221
 4.87272
 4.80634
 4.80185
 1.95971
 2.10163
 -0.899227
 -0.720707
 -0.598041
 -0.920845
 2.70725
 2.76724
 2.59743
 2.90264
 5.68937
 5.72101
 5.74312
 5.63331
 -0.211127
 -0.235221
 -0.621489
 -0.0738637
 0.250697
 0.15076
 0.0947045
 4.77559
 5.02212
 5.10132
 4.87452
 7.94674
 7.99044
 7.86408
 5.60887
 5.62865
 5.40886
 5.61176
 8.07816
 8.27119
 8.06773
 8.28178
 3.29626
 3.30088
 3.24105
 3.70031
 8.09772
 8.09445
 8.10932
 8.06117
 7.04257
 6.93871
 6.89417
 6.97294
 0.300325
 0.54136
 0.241446
 0.472575
 4.67846
 4.67006
 4.84212
 4.65952
 6.25812
 6.36583
 6.19936
 6.34176
 2.71095
 2.6781
 2.1296
 1.78922
 1.90073
 1.93262
 5.89554
 5.69315
 5.75019
 5.51041
 5.45068
 5.32743
 5.40724
 5.42753
 7.83162
 7.72609
 7.86523
 5.97997
 6.10856
 6.20845
 11.0875
 11.2123
 11.1087
 11.1756
 6.93037
 6.85875
 8.09472
 8.01876
 8.08649
 8.23005
 4.13477
 4.33154
 4.15558
 4.38638
 9.33271
 9.1677
 9.09424
 9.24247
 7.40117
 7.44609
 7.61492
 3.29915
 3.24435
 3.27596
 3.3754
 7.33804
 7.19601
 7.39515
 7.59882
 7.58402
 7.74319
 7.7085
 6.12106
 6.21924
 6.19444
 6.00717
 2.30447
 1.77393
 10.0588
 9.99714
 7.0201
 7.1569
 5.58035
 5.74273
 5.67492
 5.70703
 3.48303
 3.32516
 3.47674
 3.21161
 5.09394
 5.07541
 4.97157
 4.93714
 8.05361
 8.30715
 8.10604
 8.19507
 4.18594
 4.41968
 4.29781
 7.89743
 7.94335
 7.87562
 7.8828
 0.957054
 0.953406
 0.780743
 1.0683
 3.48828
 3.49326
 3.48693
 3.68792
 7.69444
 7.58722
 7.74603
 5.53014
 5.74367
 5.55255
 5.45917
 8.16949
 8.19041
 8.13004
 7.40778
 7.23676
 7.29141
 7.38928
 7.53959
 7.57219
 7.41224
 7.51836
 5.73912
 5.89431
 5.93515
 5.99981
 0.139436
 0.246774
 0.380786
 0.33669
 3.90545
 3.67138
 3.77867
 3.71465
 5.74285
 5.97628
 5.80666
 4.69455
 4.78838
 4.78273
 1.16076
 1.44469
 1.1833
 1.36048
 3.77848
 3.73738
 3.94779
 3.65205
 5.92463
 5.78016
 5.72773
 5.73287
 8.37632
 8.34115
 7.73526
 7.8333
 7.64841
 7.64453
 10.3162
 10.3599
 10.483
 10.316
 2.67669
 2.64428
 2.63344
 2.74126
 7.2361
 7.41357
 7.36231
 7.37548
 5.06422
 5.25047
 5.13156
 5.34916
 8.63416
 8.70718
 8.67736
 8.73622
 4.52559
 4.62744
 4.73271
 4.71741
 5.53839
 2.85187
 2.97283
 3.1018
 3.03669
 5.85404
 6.06463
 6.10399
 5.90797
 5.92583
 5.82717
 5.70135
 5.76201
 6.41394
 6.58122
 6.52068
 6.62509
 7.63091
 7.79847
 7.53432
 1.75978
 1.71063
 1.64827
 2.04372
 5.97449
 6.03398
 6.03479
 6.09993
 1.96985
 1.88421
 1.72145
 3.35376
 3.50718
 3.37315
 3.46947
 2.36336
 2.03984
 2.21402
 2.01743
 7.75413
 7.613
 7.78319
 11.4621
 11.4042
 11.3885
 3.02101
 2.76026
 2.8292
 4.47409
 4.1397
 4.30704
 4.10433
 6.24316
 6.16899
 6.0872
 6.23718
 5.70806
 5.64067
 5.88751
 5.83074
 9.6423
 9.53954
 9.77703
 9.53005
 5.00669
 5.10156
 5.12289
 5.14535
 4.08465
 4.06897
 3.91202
 4.15609
 7.29625
 7.28557
 6.87359
 7.19466
 7.03512
 7.01351
 3.19598
 3.36144
 3.24468
 3.25838
 7.46433
 7.28578
 3.91505
 4.01205
 7.9823
 11.2102
 11.2366
 11.2141
 11.1197
 8.6373
 8.48221
 -0.390131
 -0.658768
 -0.442036
 8.26086
 8.12137
 7.99138
 8.12834
 2.94241
 2.93005
 7.05724
 7.09722
 7.07356
 7.06118
 6.50578
 6.20176
 6.31918
 2.79444
 2.6934
 2.75758
 2.53063
 3.70779
 3.50325
 3.68242
 3.6128
 1.62094
 1.607
 1.37397
 5.78488
 5.95331
 5.76804
 6.03012
 5.23947
 1.4879
 1.85892
 1.57686
 1.66528
 8.1548
 8.19475
 8.10395
 8.03636
 4.80689
 4.97607
 4.75999
 4.94393
 2.59478
 2.91334
 2.685
 2.8566
 10.5983
 10.5653
 10.5238
 10.509
 7.66679
 -0.213166
 6.10915
 5.84546
 6.01705
 6.19166
 4.77769
 4.60888
 4.83707
 4.90006
 7.10069
 7.31836
 7.20313
 7.14687
 4.60703
 4.70377
 4.61981
 4.57885
 7.83619
 7.8001
 7.6516
 7.87061
 7.73756
 7.63391
 7.75028
 5.71343
 5.54379
 5.81221
 5.70221
 2.49399
 2.31361
 2.71992
 -0.972065
 -1.21545
 -1.00717
 -0.886298
 9.76566
 9.90283
 9.92324
 5.41279
 5.41683
 5.61153
 5.53696
 5.72778
 5.46923
 0.781846
 0.818077
 0.85528
 0.626002
 3.05308
 3.20984
 3.14105
 3.30314
 7.63947
 7.3933
 7.56958
 8.95217
 5.91598
 6.12991
 6.05563
 5.92629
 5.45614
 5.33713
 5.37066
 3.37581
 3.48414
 3.45982
 3.3087
 2.65229
 2.88893
 2.71567
 2.83908
 6.02799
 6.1514
 3.01398
 3.03781
 2.95947
 2.80823
 4.48174
 4.54214
 4.49847
 4.3213
 0.304984
 0.175818
 3.94051
 4.1269
 3.9492
 4.03805
 3.09773
 2.9949
 2.95076
 2.85524
 3.45572
 3.32661
 3.45624
 3.44965
 5.32785
 5.22177
 5.82379
 5.70184
 5.84641
 5.95433
 6.49519
 6.65456
 6.57868
 6.54078
 4.45526
 4.32431
 4.31677
 4.44003
 7.7907
 7.66796
 7.58258
 7.50829
 7.13589
 7.16672
 7.23208
 7.17157
 10.0774
 9.99667
 10.0105
 10.1456
 6.49667
 6.76814
 4.56829
 4.86577
 4.64092
 4.73831
 6.06934
 6.10962
 6.01797
 5.90038
 4.89907
 4.77266
 4.6922
 4.8321
 5.74285
 5.71652
 2.78387
 2.87233
 -0.297205
 -0.34152
 -0.360161
 -0.412343
 8.14991
 5.86658
 5.88472
 5.8246
 5.6963
 5.0945
 5.27638
 5.22173
 5.19437
 6.81775
 6.92268
 6.96736
 7.10625
 3.23811
 3.49696
 3.26293
 3.49087
 4.75466
 4.88268
 4.94636
 4.76625
 7.84894
 7.90435
 7.77848
 7.90936
 7.9857
 6.21677
 6.02152
 6.25249
 6.14836
 6.34136
 6.09012
 6.29918
 6.33364
 7.62479
 7.61937
 7.76216
 7.62861
 7.19212
 7.14144
 6.9244
 7.02372
 5.55922
 5.39331
 5.64828
 5.66271
 7.76742
 7.8625
 7.91754
 7.86046
 4.59648
 4.53049
 4.78862
 6.91802
 6.92073
 6.94778
 6.97901
 9.31601
 9.21953
 4.63252
 4.49784
 4.45218
 4.88359
 4.6597
 4.75233
 4.64613
 8.09146
 7.97443
 7.9128
 8.56213
 8.48809
 8.48384
 8.54373
 3.9048
 3.93936
 3.79395
 3.98303
 4.76212
 5.01382
 4.74371
 2.267
 2.64522
 2.47717
 5.35335
 5.49812
 5.46177
 1.63902
 1.66479
 1.60514
 10.2597
 10.3554
 10.3517
 10.268
 0.262908
 0.179396
 0.303028
 0.158366
 6.58476
 6.73566
 4.41205
 4.58295
 7.58779
 7.57244
 7.61148
 7.46247
 4.08625
 4.16214
 3.93305
 2.68377
 2.51766
 2.55296
 2.52057
 1.54424
 1.86278
 8.11765
 8.09894
 8.1684
 4.62497
 4.65081
 4.82975
 7.14126
 7.30318
 7.12101
 8.0151
 8.01349
 8.05901
 8.12548
 5.90761
 5.83189
 6.01086
 5.76645
 6.1351
 6.33108
 6.28515
 6.15764
 3.40148
 3.46291
 3.48447
 3.26159
 2.81274
 2.97342
 2.87804
 3.12056
 6.27612
 6.26444
 6.12849
 3.94605
 4.00876
 4.12327
 3.27712
 3.1033
 3.22119
 3.16907
 -1.44324
 -1.31498
 -1.50376
 5.26879
 5.31307
 5.31829
 3.27254
 3.1492
 3.40997
 5.4603
 5.35347
 5.58713
 6.65105
 6.85079
 6.80479
 8.11061
 8.0468
 8.07982
 8.04664
 5.33528
 5.66232
 5.4719
 5.60691
 6.9564
 7.01448
 7.13505
 7.71012
 7.53794
 3.52332
 3.65385
 3.3513
 3.54881
 3.50268
 3.32712
 3.5905
 3.72016
 7.57555
 7.40838
 7.32384
 7.27119
 7.7643
 7.93128
 7.83333
 7.93947
 8.85466
 8.93386
 8.84914
 8.98855
 0.628069
 0.525862
 1.89252
 2.17557
 2.01928
 1.8627
 0.15389
 6.74953
 6.55906
 6.75597
 5.12243
 5.06599
 5.21327
 5.27425
 7.67386
 7.69153
 5.56774
 5.61199
 5.43909
 8.23748
 8.17662
 2.17656
 2.15845
 1.9349
 2.33554
 1.37671
 1.43987
 1.06795
 1.27966
 2.68071
 2.64346
 2.8631
 6.61082
 6.48225
 6.49166
 1.47349
 1.50411
 1.42229
 1.36794
 7.05015
 7.25907
 7.1004
 7.02342
 2.51114
 2.6465
 2.68895
 2.52038
 6.94637
 7.13074
 7.17019
 6.87403
 7.80779
 7.74316
 7.86608
 0.150755
 -0.21745
 -0.0411623
 0.0525771
 8.04839
 7.98625
 8.01697
 5.95992
 5.89454
 5.70681
 5.81969
 0.346833
 0.119199
 0.241416
 6.95804
 7.08934
 6.91406
 7.02069
 3.7857
 0.847334
 0.714629
 1.17912
 0.913392
 8.33596
 8.29511
 8.21742
 8.30395
 3.4316
 3.74227
 3.50757
 3.42321
 5.34782
 5.28247
 5.53454
 7.78612
 7.88991
 7.76423
 8.07751
 3.75548
 3.81405
 3.6539
 7.20986
 7.27712
 10.1395
 10.2667
 10.1367
 10.0575
 8.71124
 9.04677
 9.06251
 1.32267
 1.42508
 0.975435
 1.28565
 1.33786
 1.20131
 8.57886
 8.53399
 8.69023
 8.48884
 6.19526
 6.11372
 6.12928
 6.03979
 5.63924
 5.8838
 5.86863
 5.80027
 4.6385
 4.71205
 4.49139
 4.68979
 4.60089
 4.90591
 4.71157
 4.87749
 0.606068
 7.88044
 7.94743
 7.87048
 7.92022
 0.466549
 0.623064
 0.373861
 4.47848
 4.68151
 4.77435
 4.69341
 8.05545
 7.90072
 7.85111
 4.86584
 5.02658
 4.90356
 5.03583
 5.39467
 3.46495
 3.40117
 3.17646
 3.25773
 7.04934
 7.05415
 7.05221
 5.40105
 5.09018
 5.21159
 0.285351
 0.38193
 0.614792
 0.409042
 5.44047
 5.48726
 5.55486
 10.6553
 10.6091
 10.7393
 5.45393
 5.5809
 5.46896
 5.7504
 3.35523
 3.1603
 3.21675
 5.22382
 5.18245
 1.7075
 1.60122
 1.82896
 1.79458
 2.72079
 2.53532
 2.63659
 2.67027
 0.0171439
 0.0893874
 0.23097
 0.371758
 4.73138
 5.0872
 4.83097
 4.76714
 3.0238
 3.07202
 3.1509
 3.23364
 1.71001
 1.55098
 1.39628
 7.27878
 7.1772
 7.43556
 7.34022
 5.63822
 5.4574
 6.50893
 6.63724
 6.48979
 6.55684
 3.55213
 3.57997
 3.58884
 3.45268
 5.47958
 5.30725
 5.35913
 5.53931
 3.73909
 3.84925
 3.59606
 3.82421
 5.27537
 5.22886
 5.05566
 5.04671
 5.52137
 5.6727
 5.66275
 1.85868
 2.01669
 1.90254
 0.911108
 0.919281
 0.984963
 0.636062
 1.64538
 1.6623
 1.50478
 3.05042
 2.75865
 3.00034
 9.78397
 9.79433
 9.90362
 5.68126
 5.45384
 5.63237
 2.0697
 1.96811
 2.07982
 2.0987
 5.68775
 5.60212
 5.70305
 4.61607
 4.5506
 4.5586
 4.73286
 3.73881
 4.15395
 4.01187
 4.02758
 5.38727
 5.24029
 5.28317
 5.15039
 7.49388
 7.38824
 7.47492
 7.55497
 5.61613
 4.62606
 4.64245
 4.53105
 4.887
 8.06524
 8.0138
 7.99405
 8.00221
 8.03255
 7.90552
 7.9906
 7.90943
 7.74793
 7.64916
 7.70842
 7.78529
 3.7513
 3.78859
 3.53766
 3.42847
 7.18768
 7.29185
 7.22272
 7.1988
 -0.364177
 -0.137828
 -0.317868
 -0.147924
 8.94689
 8.87121
 8.76754
 8.77796
 7.20473
 7.18735
 7.22527
 8.32354
 8.43472
 8.51148
 8.48455
 7.72405
 7.82993
 7.6208
 7.94574
 7.92224
 5.10563
 5.13731
 5.00884
 4.73331
 0.979397
 1.18126
 1.24933
 0.909991
 0.953277
 0.805604
 1.02145
 7.66916
 7.77991
 0.0422563
 -0.114955
 0.107276
 1.77531
 1.82147
 1.76755
 1.61372
 7.74882
 7.82849
 7.72827
 0.156794
 0.0643344
 0.234446
 0.00656519
 6.45604
 6.41632
 6.28992
 6.56504
 7.63903
 7.84531
 7.757
 7.60752
 8.43306
 8.19887
 8.29469
 8.34249
 9.44682
 9.39589
 9.52595
 9.52238
 4.1689
 3.82001
 4.00309
 3.85867
 6.31687
 6.30819
 6.38067
 6.60967
 0.102395
 0.377654
 0.122261
 10.7589
 10.616
 10.7124
 10.5482
 8.74453
 8.59222
 8.68348
 8.55402
 0.279369
 -0.0351546
 0.130475
 0.150902
 5.36229
 5.33282
 5.17908
 1.54302
 1.23921
 1.19453
 7.45336
 7.4657
 7.67166
 0.0292408
 0.254578
 0.274346
 0.127074
 1.66202
 1.75444
 1.80782
 1.98683
 7.00277
 6.90845
 6.76359
 6.90822
 6.3368
 6.51693
 6.34837
 6.56082
 2.56849
 2.56215
 2.50267
 2.27929
 4.93462
 5.04427
 5.17287
 5.08493
 9.05778
 8.9118
 8.91167
 8.91808
 1.53386
 1.97725
 1.69061
 1.80447
 -0.214068
 5.03489
 4.98395
 4.85718
 4.86259
 0.946429
 0.807859
 0.857616
 0.619638
 8.03447
 8.03304
 8.01089
 8.00749
 0.165677
 -0.00960759
 0.242622
 0.334694
 5.50442
 5.55291
 6.2661
 6.3622
 6.23432
 6.174
 2.63855
 2.85612
 2.87394
 2.86752
 4.58715
 4.3649
 4.40406
 6.36042
 6.38996
 6.32095
 2.6434
 2.66592
 2.90375
 2.90366
 2.95634
 3.06913
 2.85278
 3.01816
 7.54508
 7.69138
 7.70653
 5.3948
 4.99463
 4.99385
 5.22415
 9.07723
 8.97144
 8.82314
 9.02905
 9.15361
 -0.0169076
 0.388516
 -0.0331075
 0.297648
 5.08187
 5.192
 5.27441
 5.09137
 1.19286
 1.0385
 5.80777
 6.07496
 6.06086
 7.12874
 7.28803
 7.02505
 7.07066
 0.286278
 0.375462
 0.192273
 0.201084
 7.85354
 7.80005
 7.8229
 7.08263
 7.15021
 7.01868
 7.13563
 6.42164
 6.23252
 6.37426
 6.58952
 3.45831
 3.07637
 3.3037
 3.21226
 7.33022
 7.10661
 7.23148
 7.25294
 2.7392
 4.22556
 3.99133
 3.92731
 4.26859
 0.988582
 0.912228
 1.14735
 0.425718
 0.52175
 0.537597
 0.704545
 4.112
 4.00684
 4.26328
 4.14317
 -0.605691
 -0.591154
 -0.586169
 -0.346088
 6.49989
 4.40672
 4.6775
 4.68665
 4.48264
 5.03732
 5.32583
 5.19636
 5.13083
 9.42478
 9.27493
 9.23629
 9.38842
 5.53656
 5.48732
 5.42079
 5.64307
 6.00365
 5.96977
 5.91007
 5.82748
 5.81499
 5.78621
 5.64355
 1.39184
 1.60493
 1.69231
 5.95021
 6.14547
 6.11494
 5.99501
 1.47251
 1.15348
 1.32692
 5.28425
 5.41363
 5.00027
 4.87577
 4.93485
 4.83531
 4.89412
 4.83562
 5.17287
 5.12788
 4.88483
 4.96928
 1.20341
 1.08426
 1.09292
 6.43814
 0.699552
 4.5825
 4.44718
 4.60224
 4.78364
 7.63494
 7.60855
 7.78789
 7.30448
 7.14138
 7.07109
 4.99317
 4.92186
 5.11621
 5.39103
 5.40049
 5.3086
 5.20915
 5.18256
 5.33117
 5.05507
 5.2944
 10.7974
 10.7709
 10.8963
 2.5933
 2.8379
 2.60852
 5.52617
 5.46857
 1.91013
 2.22238
 2.13446
 2.22504
 4.30302
 4.13482
 4.29784
 9.30624
 9.29409
 9.44996
 9.38909
 5.9057
 6.1226
 5.95379
 6.05573
 7.48288
 7.56333
 7.64488
 7.69518
 3.54032
 3.82364
 3.67364
 3.55969
 6.70582
 6.83997
 6.73173
 6.93182
 9.00786
 9.03108
 9.03998
 6.39842
 6.46487
 6.56014
 6.51585
 3.49027
 3.25421
 3.33473
 3.3279
 5.29394
 5.09335
 5.0654
 5.18183
 7.27179
 7.35465
 7.25922
 6.18891
 6.32901
 6.26334
 6.29489
 7.33937
 7.51534
 7.31031
 7.46714
 8.04335
 7.84724
 7.86866
 8.08414
 0.418578
 0.287717
 0.366087
 0.297286
 7.76581
 7.63828
 7.6843
 7.63473
 7.34556
 7.46062
 7.28987
 7.3064
 4.00021
 3.73369
 3.82991
 3.67782
 6.40837
 6.46315
 6.29065
 6.35994
 -1.19044
 -1.28031
 -1.25749
 -1.30306
 5.88352
 5.96603
 5.79766
 8.0168
 8.12921
 8.08336
 7.94186
 7.83322
 7.90657
 7.85644
 7.90975
 7.59598
 7.8435
 3.30446
 3.50788
 3.33259
 3.61263
 -0.747108
 -0.603411
 -0.696003
 -0.662684
 6.13041
 6.30593
 6.20885
 6.31278
 7.59566
 7.69798
 7.71278
 3.67607
 3.89209
 3.91532
 3.72189
 5.71246
 5.74455
 5.64338
 5.51068
 7.14641
 7.1394
 7.15931
 7.01306
 8.09446
 7.85778
 8.00087
 2.33293
 2.11341
 2.01759
 2.28251
 1.9516
 1.95498
 2.16549
 6.07622
 6.07717
 5.95622
 5.86935
 5.94604
 6.03517
 5.8266
 7.15733
 6.99418
 6.92095
 6.96138
 3.74537
 3.80547
 3.95063
 7.63041
 7.62949
 7.80254
 5.077
 4.86927
 4.95377
 1.88634
 2.15604
 2.0041
 3.37811
 3.42957
 6.48278
 6.3617
 6.50216
 6.35552
 6.29017
 6.36724
 5.55876
 5.78266
 6.98982
 8.26763
 8.24036
 8.36994
 1.36035
 1.39223
 1.72215
 6.10029
 5.95898
 6.01373
 6.13018
 7.04253
 5.25062
 5.11191
 3.62972
 3.56449
 3.67292
 3.48245
 5.30067
 5.452
 5.2576
 5.98302
 5.88642
 6.15612
 5.95267
 6.4044
 6.091
 5.92474
 6.06461
 6.14235
 5.83879
 1.36993
 1.58143
 1.63606
 1.4813
 1.24174
 1.07725
 0.78766
 0.883242
 7.67841
 7.54017
 5.2536
 5.29735
 5.35918
 5.50389
 4.63257
 4.57962
 4.50757
 4.42419
 3.8649
 3.68316
 3.87858
 3.9137
 5.61825
 5.72924
 5.79727
 5.59255
 5.91296
 5.78963
 5.87966
 5.96886
 1.89159
 2.20493
 1.92684
 1.99641
 7.40308
 7.20903
 7.17948
 7.0534
 7.43996
 7.24842
 7.35141
 2.45999
 2.26234
 2.02292
 1.94062
 7.22777
 7.10158
 7.1467
 7.02414
 0.916683
 1.02636
 0.864819
 0.964628
 1.8557
 1.98114
 1.90622
 2.02538
 6.26237
 6.16943
 6.33095
 6.24788
 3.28171
 3.20929
 3.33953
 3.54241
 7.08169
 6.98679
 6.85543
 6.80993
 2.7073
 2.82988
 2.7837
 7.72499
 7.62278
 7.74947
 7.67357
 4.32808
 4.39776
 4.27816
 4.19975
 6.4006
 6.34828
 2.91416
 2.59166
 2.73997
 2.82567
 2.63835
 2.68244
 2.82252
 5.80682
 5.55733
 5.78227
 2.31509
 2.32655
 2.24054
 2.06039
 8.97867
 8.92294
 8.82119
 8.87006
 7.08305
 7.02322
 6.87509
 6.83921
 4.17485
 4.43765
 4.40361
 4.15402
 1.13866
 1.09095
 1.24817
 1.08503
 1.749
 1.54531
 1.50796
 1.70184
 0.897107
 0.911871
 0.856882
 1.26299
 1.17929
 6.67328
 6.56198
 6.68829
 6.52247
 7.47682
 7.42057
 7.66515
 7.51283
 6.86151
 6.85622
 6.46981
 6.28298
 6.42359
 6.42545
 5.9853
 5.96519
 5.7615
 5.96472
 7.49859
 7.49451
 7.62184
 4.92622
 5.05056
 5.01645
 5.09454
 -1.22352
 -1.15205
 -0.967711
 6.60726
 6.63918
 6.58147
 6.41965
 1.96574
 2.25014
 2.07222
 1.99938
 3.45752
 3.20791
 3.29036
 5.20033
 5.3108
 5.10984
 3.38376
 3.15017
 3.38175
 1.89443
 2.07659
 3.58025
 3.55105
 3.55023
 7.0319
 6.964
 6.91922
 7.11365
 0.914838
 0.770678
 0.921007
 0.993286
 4.27602
 4.0363
 4.176
 9.61589
 9.77102
 9.81923
 9.63196
 7.82808
 7.91052
 4.64077
 6.42498
 6.19087
 6.34839
 6.42297
 5.06788
 4.86168
 4.87183
 2.91522
 2.87184
 3.03953
 2.90398
 0.770796
 0.653447
 5.42046
 5.49768
 5.48882
 5.61222
 8.00998
 8.13228
 8.14452
 7.96651
 1.67038
 1.5379
 1.56841
 1.66576
 4.12758
 4.04056
 4.16423
 10.5199
 10.5804
 10.6885
 10.6885
 7.67462
 7.7041
 7.84405
 6.74599
 6.60959
 6.84268
 6.69821
 4.32799
 4.30467
 4.42599
 4.16693
 5.28561
 5.13294
 8.1167
 8.06841
 8.0841
 8.07749
 3.98195
 3.76374
 6.80545
 7.01144
 6.90548
 6.84798
 6.11266
 6.03493
 6.24984
 6.10293
 5.25991
 5.06521
 4.98381
 5.13962
 6.81602
 6.90179
 7.08924
 3.47316
 3.75845
 3.46764
 3.69284
 2.3274
 2.13991
 1.95861
 2.29334
 2.60146
 2.6169
 2.59437
 2.38812
 8.08964
 8.24669
 8.13568
 8.25789
 5.28704
 5.40974
 9.94414
 10.0877
 10.0281
 10.1672
 6.1715
 6.33992
 6.42007
 0.105119
 11.1077
 11.071
 11.0714
 11.2559
 5.44886
 5.34452
 5.45225
 5.43265
 6.58645
 6.41468
 6.51027
 2.446
 2.2618
 2.23336
 2.46663
 2.40912
 2.4891
 2.25056
 2.25898
 2.57176
 2.47197
 2.65738
 2.73796
 6.97922
 6.83409
 7.07313
 6.83738
 7.59899
 7.6559
 7.74463
 7.72881
 3.97019
 3.97683
 3.73186
 3.99152
 6.01864
 6.26899
 5.94601
 6.11283
 -0.847319
 0.971763
 0.887858
 4.38604
 4.40197
 5.88967
 6.0397
 5.99968
 0.806171
 0.456778
 0.678953
 0.746042
 5.56646
 5.6493
 4.55086
 4.71436
 9.30697
 9.16786
 9.33085
 9.18125
 7.00629
 7.07071
 7.19402
 7.10613
 4.03977
 3.78719
 4.00087
 3.85171
 9.00487
 9.16043
 9.0414
 8.97534
 -0.430259
 -0.338981
 -0.561881
 -0.363431
 1.08595
 1.35068
 0.587436
 0.747261
 0.936789
 0.573723
 2.34488
 2.16419
 6.33014
 6.24186
 6.36393
 10.852
 10.7286
 10.8909
 10.8782
 8.83386
 8.73266
 8.70376
 8.83421
 0.982186
 0.804332
 0.981683
 1.09902
 3.16156
 2.8569
 3.02558
 4.89213
 5.07617
 5.20565
 4.99281
 6.79022
 6.5805
 6.75284
 6.81682
 1.68002
 1.46749
 1.61303
 0.933693
 5.06975
 4.8332
 6.8588
 6.79812
 3.61475
 3.38175
 3.67774
 3.59471
 7.51444
 7.71242
 7.45376
 7.73078
 7.79891
 7.96124
 7.90434
 10.6753
 10.4651
 10.496
 10.5635
 6.7131
 6.61368
 6.62916
 6.47641
 1.74029
 1.70737
 2.15715
 1.9643
 2.06494
 1.96435
 7.08925
 7.09879
 6.93398
 7.20699
 2.77687
 2.90305
 2.70279
 3.52223
 3.51654
 3.45797
 3.6342
 2.02535
 1.8449
 2.07939
 1.8176
 6.84155
 6.67623
 6.73296
 6.80997
 0.412767
 0.779768
 5.91061
 9.67844
 9.61899
 9.52985
 9.47566
 2.77094
 2.82832
 2.64894
 8.87018
 8.9691
 8.89652
 9.01967
 3.46221
 3.48557
 3.48408
 3.28942
 7.94832
 7.95497
 8.1236
 7.90194
 7.42763
 7.45246
 7.30398
 7.27128
 3.82033
 3.66376
 3.64481
 6.45116
 6.36845
 6.49615
 6.59775
 4.22219
 4.26051
 4.12787
 4.43156
 4.54864
 4.70462
 2.11458
 2.04017
 2.06513
 3.45695
 3.42769
 3.58297
 9.8085
 9.78775
 9.65676
 9.765
 7.66581
 7.51165
 7.74095
 7.45871
 1.55806
 1.86122
 1.86315
 1.87921
 2.38169
 2.44902
 7.21247
 6.89519
 7.18801
 3.50402
 3.75063
 3.70424
 3.81925
 3.61786
 3.67529
 3.76227
 6.97351
 7.059
 6.95307
 6.91612
 0.617086
 0.613206
 6.31137
 6.37812
 6.30801
 6.20825
 7.10477
 7.09204
 7.03201
 3.36171
 3.29767
 5.38015
 5.46563
 5.42171
 5.24454
 7.9515
 8.01328
 3.98451
 4.06822
 6.31025
 6.55197
 6.51049
 6.37528
 4.90579
 4.91145
 5.04633
 4.78329
 4.9314
 5.05101
 4.93967
 8.39649
 8.37413
 8.44666
 8.1714
 8.88663
 8.88274
 8.77556
 8.82377
 3.35562
 3.51768
 3.68684
 3.55065
 1.38538
 1.35535
 1.51254
 1.51742
 4.54062
 4.4287
 4.60221
 5.22471
 5.32944
 5.41867
 5.35351
 5.25891
 2.60356
 2.55213
 6.70554
 6.53794
 6.69388
 6.73906
 7.39746
 1.3655
 1.40444
 1.57416
 1.49542
 5.15536
 5.4641
 5.37556
 5.20879
 10.4824
 10.3936
 5.78764
 6.01223
 5.798
 9.83495
 9.79425
 9.86452
 9.72267
 4.13939
 4.29402
 4.16559
 4.24048
 7.95463
 7.78321
 7.74379
 7.03882
 6.89579
 0.217201
 0.255823
 0.261263
 0.682938
 0.683715
 0.81022
 7.6716
 7.43988
 7.03891
 7.04139
 10.1513
 10.2422
 10.254
 10.2732
 1.39751
 1.69087
 1.33109
 7.45334
 7.42465
 7.33677
 7.54863
 7.18754
 7.25481
 7.07213
 7.25805
 3.37035
 3.29805
 3.19903
 3.31598
 4.22511
 3.81411
 4.00679
 3.54028
 3.50153
 3.73899
 3.51735
 2.67227
 2.8909
 2.48323
 3.00105
 8.07295
 8.06166
 7.59675
 7.58624
 7.51646
 4.35129
 4.43984
 4.63348
 4.54712
 7.32162
 7.33344
 7.14735
 7.21251
 3.12146
 3.23834
 3.1949
 3.07182
 8.01366
 7.83268
 1.45129
 1.6013
 1.54337
 1.70943
 3.16991
 3.49795
 3.35628
 3.11329
 6.76726
 6.74982
 6.80347
 6.65423
 1.87281
 1.62147
 5.8575
 5.81064
 5.74865
 5.70534
 8.93775
 8.9126
 8.93027
 8.89896
 7.97305
 7.88487
 7.97986
 7.85371
 0.0588792
 -0.017733
 -0.0797846
 -0.0561032
 1.06797
 1.16122
 1.2375
 6.84333
 6.87067
 6.89708
 0.207938
 0.0902385
 5.75768
 5.68656
 5.81311
 5.57314
 1.70964
 1.86068
 1.6663
 1.85583
 7.21802
 7.30713
 7.19418
 7.33088
 8.42482
 8.26863
 8.33606
 2.20861
 1.94549
 1.96549
 1.98635
 6.217
 5.98407
 6.02437
 6.08429
 7.56194
 7.49834
 7.38846
 7.67764
 8.12961
 8.35299
 8.06628
 4.46688
 4.66316
 4.35376
 5.05808
 5.00937
 5.16954
 4.95348
 4.4583
 4.48905
 4.29342
 4.52767
 6.37939
 6.20881
 6.37269
 6.21844
 7.08255
 7.04528
 6.95239
 7.16092
 7.67881
 7.8152
 3.70054
 3.43104
 3.71998
 3.7227
 4.89789
 5.1511
 4.94929
 5.05859
 4.7732
 5.04229
 5.07453
 5.16341
 4.83492
 4.98027
 9.73736
 9.69175
 9.5727
 9.66322
 0.992305
 0.780232
 1.01701
 6.07921
 6.08888
 6.14076
 6.25431
 5.56473
 5.71487
 5.56887
 7.84559
 7.74198
 7.90998
 7.86058
 7.42855
 7.57474
 7.47108
 7.51089
 6.19357
 6.14799
 6.00275
 7.22051
 7.3123
 3.18392
 3.30234
 3.04139
 -0.19079
 -0.213536
 -0.0382429
 -0.158764
 7.45185
 7.63911
 7.62257
 7.436
 5.56074
 5.39995
 5.33945
 5.51885
 2.59726
 2.53701
 2.75152
 2.74295
 7.32596
 7.25112
 7.38045
 7.13961
 6.87973
 6.7763
 6.72093
 6.58186
 2.20517
 2.38615
 2.63662
 2.57333
 6.93269
 6.74669
 1.35004
 1.43029
 1.24098
 4.44109
 4.61732
 8.54473
 8.61022
 8.65831
 8.68459
 6.12235
 6.0438
 5.98589
 6.02716
 8.59278
 8.65685
 8.5852
 5.5817
 5.6128
 4.12578
 3.98399
 3.77988
 4.11127
 6.18342
 6.16911
 3.73691
 3.53652
 6.28322
 6.39094
 6.29425
 6.23275
 3.66996
 3.82313
 3.58184
 3.54835
 2.82663
 2.60799
 2.39697
 2.54326
 0.317893
 0.294286
 0.382128
 0.372495
 5.41296
 5.31998
 7.40562
 7.40887
 7.68043
 7.75887
 2.75931
 2.99219
 7.85351
 7.68588
 7.80578
 9.40551
 9.37908
 9.15696
 9.25386
 9.66331
 9.53506
 9.60707
 4.99085
 4.75655
 4.79433
 4.82201
 6.24415
 6.08754
 6.21314
 7.49358
 6.80487
 6.67045
 6.88256
 6.70611
 7.55022
 7.42512
 7.66753
 7.51554
 6.43856
 6.57343
 6.4085
 6.5604
 3.35795
 3.736
 3.71593
 3.4086
 0.300632
 0.383376
 0.379095
 0.205817
 5.85858
 5.91843
 5.66676
 5.74362
 2.22149
 2.3337
 1.96436
 2.0287
 6.82099
 3.33239
 3.63159
 3.48804
 3.53327
 8.40798
 8.49559
 8.41935
 8.40228
 3.30917
 3.10298
 3.09254
 6.60421
 1.31642
 1.30593
 1.4245
 1.02331
 0.781934
 0.78928
 0.771519
 0.546419
 0.779778
 0.607071
 0.569436
 5.19352
 5.22887
 5.16694
 5.40369
 0.702465
 0.689917
 0.606078
 0.611395
 7.53385
 7.65001
 7.68314
 7.71869
 3.86313
 3.94422
 3.91289
 4.12325
 5.92842
 5.71151
 5.75086
 5.90668
 9.13154
 9.02793
 9.10165
 4.11922
 5.52441
 5.57857
 5.66677
 5.43534
 0.792338
 0.605655
 0.618656
 0.544204
 0.946056
 0.81791
 0.623693
 0.688979
 4.03621
 4.09671
 3.97014
 4.13339
 6.81638
 6.92381
 6.983
 6.91329
 6.12584
 5.933
 6.05792
 1.25111
 1.11632
 1.28453
 1.47448
 0.729288
 0.609955
 0.613548
 0.799225
 7.5749
 7.67575
 7.66986
 2.24785
 2.07734
 0.630159
 0.68285
 0.645851
 7.47765
 7.59302
 7.40976
 7.39651
 3.03714
 2.71017
 3.07994
 3.13622
 6.14454
 4.46474
 4.41825
 4.28301
 4.44894
 4.00035
 4.16207
 3.95622
 4.28811
 0.939497
 0.823124
 1.86296
 1.5896
 1.77048
 1.55065
 1.98446
 1.6801
 1.81609
 1.57628
 2.1507
 2.4139
 2.078
 2.33552
 3.08959
 2.90955
 3.07284
 2.95779
 8.91514
 8.741
 0.971436
 0.884701
 0.747283
 8.07958
 8.10619
 8.07132
 7.09293
 7.30167
 7.35014
 7.15005
 2.96381
 3.07925
 2.90979
 2.736
 5.75097
 5.93163
 5.85457
 5.8413
 -0.285692
 -0.115506
 -0.26056
 -0.427838
 4.55766
 4.60162
 4.45781
 4.51328
 2.11005
 1.93589
 2.15767
 3.73416
 3.73418
 4.60514
 4.91498
 4.67014
 4.67361
 5.01296
 5.2554
 5.08825
 5.21335
 7.7854
 7.72885
 7.70145
 3.85143
 3.68827
 3.75894
 3.59698
 6.31239
 6.24118
 6.10036
 1.45778
 1.51586
 1.22646
 1.57377
 0.612907
 4.29514
 4.58753
 4.60169
 4.42953
 3.79513
 3.6496
 3.62008
 3.70282
 3.93602
 4.03527
 4.12079
 10.786
 10.8713
 10.7425
 10.7484
 7.19438
 7.04122
 7.94126
 8.07048
 5.61862
 5.92188
 5.83004
 5.71235
 11.4934
 11.4473
 -0.0247378
 -0.0908966
 -0.179107
 -0.339973
 2.99968
 2.62734
 7.72166
 7.74483
 7.65181
 7.65942
 5.53958
 5.52174
 5.37228
 5.43212
 1.95941
 1.75071
 1.82925
 2.07388
 6.94082
 7.0068
 6.86055
 6.92556
 5.79638
 5.96375
 5.74277
 5.84316
 1.80785
 1.71283
 1.69502
 1.48043
 5.83611
 5.77078
 5.78005
 6.00021
 0.368321
 0.530918
 0.486437
 0.554453
 3.96032
 3.79026
 3.85009
 7.15061
 7.153
 7.38237
 7.18753
 4.26331
 4.41835
 4.30396
 4.45584
 4.8548
 5.00982
 6.50397
 6.23999
 6.19579
 3.79682
 3.83225
 3.60396
 3.55907
 0.181713
 0.205125
 0.0300039
 0.0438158
 1.33418
 1.15955
 1.01107
 1.35455
 7.38435
 7.41675
 7.55548
 7.51126
 8.05376
 8.06829
 8.09867
 8.08094
 7.71588
 7.92976
 7.78948
 7.86057
 8.29573
 8.27613
 8.33824
 5.11284
 5.14616
 5.11628
 5.38326
 2.28398
 2.16652
 3.01042
 2.73456
 2.9009
 2.93571
 2.61944
 2.48464
 2.72921
 7.17029
 7.30543
 7.25408
 7.3547
 5.16914
 5.131
 5.00964
 5.03629
 -0.351129
 -0.378214
 -0.440758
 -0.528334
 4.78037
 4.88992
 4.97002
 4.7585
 4.46856
 4.6961
 4.44484
 4.6584
 1.09977
 0.97222
 1.17453
 1.16159
 7.87164
 8.11507
 8.01111
 7.9314
 3.17072
 3.15294
 7.94931
 8.06526
 2.16988
 2.40647
 2.21181
 2.02705
 4.77358
 4.81337
 4.70496
 4.96502
 8.62941
 8.48785
 8.59332
 7.97716
 8.02105
 8.12443
 8.10295
 6.66815
 6.86209
 4.76866
 4.85597
 4.71901
 4.85668
 3.57262
 3.60107
 3.43313
 6.11581
 6.27185
 6.23175
 6.08071
 6.31735
 6.05223
 6.32721
 6.15422
 2.61731
 2.79799
 2.71416
 2.72077
 8.37831
 8.39018
 8.31052
 0.0723304
 0.0338566
 0.321465
 0.293442
 4.05937
 4.12971
 4.1002
 7.41613
 7.35937
 7.29861
 0.66491
 0.68571
 0.88672
 0.578042
 2.07195
 6.73728
 6.93491
 6.90977
 6.84014
 0.980241
 1.39304
 1.20332
 1.03766
 4.16048
 3.90732
 3.99121
 0.109869
 0.0638904
 0.0629042
 0.0930391
 0.968967
 1.14195
 1.1509
 0.945507
 0.852972
 8.63744
 8.53016
 5.53744
 5.60849
 5.36267
 5.5199
 8.72688
 8.8178
 8.80766
 8.76207
 6.55248
 3.96594
 3.91087
 4.21175
 3.12576
 2.96795
 2.80182
 3.13835
 6.50874
 6.4767
 6.61265
 6.67672
 7.02671
 7.06472
 4.33217
 4.19687
 4.22649
 6.88037
 6.98551
 6.8728
 6.76658
 7.09251
 7.08823
 6.99953
 6.95617
 0.645372
 0.572716
 6.46337
 6.32363
 6.45559
 6.472
 8.38103
 8.12686
 8.39277
 8.19662
 7.20051
 7.15966
 6.82334
 7.10972
 8.25984
 8.35143
 8.24889
 2.38424
 2.59762
 2.39714
 3.18428
 3.15511
 1.01784
 0.965801
 1.12424
 7.70209
 7.87366
 7.81688
 7.86807
 7.49058
 7.40557
 7.34352
 11.0077
 10.8671
 10.999
 11.0811
 2.52861
 2.80476
 2.50963
 2.37594
 6.86893
 6.78293
 6.89168
 6.61619
 4.06853
 4.22435
 4.13771
 4.03397
 2.78774
 2.84935
 3.07115
 2.96355
 7.44641
 7.43984
 7.37528
 7.30823
 5.59872
 5.43375
 5.61812
 3.38208
 3.33727
 3.1964
 4.01389
 4.01089
 4.11555
 3.88875
 5.8056
 6.00564
 6.01972
 5.99421
 3.85334
 3.75692
 3.6716
 8.33459
 8.05662
 8.29062
 8.26015
 5.33616
 5.31526
 5.29102
 5.48097
 7.58496
 7.74009
 7.74296
 7.65932
 7.81873
 8.05011
 7.77341
 7.82952
 -0.540124
 -0.794866
 -0.4368
 7.5849
 7.69857
 7.60043
 -0.313747
 2.32709
 2.30592
 2.59673
 2.46917
 7.94194
 3.19213
 6.801
 6.82032
 6.93887
 6.90355
 8.32358
 8.41764
 8.49089
 8.40785
 3.65113
 5.70695
 0.00708509
 0.049534
 0.0525134
 0.102573
 10.875
 10.7613
 10.8012
 6.78354
 6.92289
 6.9488
 8.21634
 8.32591
 -0.760404
 -0.865255
 -0.579005
 -0.670857
 6.11692
 6.38819
 6.21741
 6.15972
 1.96384
 1.72129
 1.70479
 3.90511
 4.08115
 3.48462
 3.57731
 3.23023
 3.4352
 0.737818
 0.892164
 0.96742
 0.814527
 5.72134
 5.74254
 5.46735
 5.55975
 1.15566
 1.03076
 1.27438
 1.16379
 5.25256
 5.15415
 4.94915
 5.22257
 2.55528
 2.55124
 2.44498
 2.68371
 2.38274
 2.63318
 2.40603
 1.95519
 7.26032
 7.49381
 7.21041
 7.11049
 5.1326
 0.503995
 0.163971
 0.315734
 0.263452
 4.52007
 4.47009
 4.71421
 4.39777
 4.17929
 4.17084
 7.77869
 7.85955
 7.92907
 7.73546
 6.55893
 6.7288
 6.55645
 5.19903
 5.23513
 5.32569
 5.43488
 -0.155593
 0.0718649
 0.0961012
 0.0499081
 6.99229
 6.99771
 7.12487
 7.16294
 3.17112
 3.47112
 3.44172
 3.31195
 5.40016
 5.35367
 5.51641
 7.79129
 7.65351
 7.71692
 7.6841
 9.34122
 9.32329
 9.50035
 9.26507
 6.57041
 6.72972
 6.79281
 1.6915
 1.69412
 1.56887
 4.60327
 2.81819
 3.0815
 2.94472
 2.94867
 6.88927
 6.94075
 6.9103
 6.91205
 1.18466
 0.868898
 1.02099
 1.11661
 4.74548
 5.03069
 3.70194
 3.82618
 3.78004
 3.66279
 3.43594
 3.49669
 3.85495
 9.55431
 9.47327
 9.6778
 9.53206
 -0.974036
 -1.30129
 -1.21593
 -0.996138
 6.51437
 6.35211
 6.42713
 7.32803
 7.23134
 7.45915
 7.17915
 3.51327
 3.73562
 3.6304
 10.4032
 10.5338
 10.6016
 10.4926
 2.8679
 2.87099
 2.44708
 2.37649
 2.59489
 2.54726
 8.09382
 8.18413
 8.13643
 8.24085
 7.65568
 7.65159
 7.59685
 7.71722
 8.9921
 8.85111
 8.78553
 8.99466
 5.71248
 9.13737
 9.04477
 9.0715
 8.99491
 2.59903
 2.83769
 2.89126
 2.97732
 7.68759
 7.52549
 3.22949
 3.08472
 3.09421
 3.35574
 1.65837
 1.51635
 1.6428
 1.54844
 -0.23221
 -0.390883
 -0.37146
 -0.612622
 10.8632
 10.9126
 10.7497
 4.10835
 3.89374
 3.9579
 4.0077
 2.24013
 2.18273
 2.41312
 2.28515
 9.59985
 9.47538
 9.43257
 9.60349
 4.22943
 2.54553
 2.44682
 2.38049
 2.62063
 0.917479
 0.778429
 0.919527
 5.76357
 5.69473
 5.71929
 5.58403
 0.092697
 -0.237426
 -0.337527
 -0.172931
 4.43554
 4.34635
 4.45449
 4.47866
 4.26334
 7.0977
