 -85.8611
 -85.8624
 -85.8621
 -85.8628
 -85.8834
 -85.8836
 -85.8841
 -85.8844
 -85.8783
 -85.8776
 -85.8785
 -85.8778
 -85.8792
 -85.8784
 -85.8783
 -85.8779
 -85.8916
 -85.8921
 -85.8912
 -85.891
 -85.8904
 -85.8899
 -85.8909
 -85.8901
 -85.8562
 -85.8554
 -85.8557
 -85.8562
 -85.8574
 -85.8577
 -85.8577
 -85.8572
 -85.8903
 -85.89
 -85.8894
 -85.89
 -85.8902
 -85.8903
 -85.8901
 -85.891
 -85.8532
 -85.8527
 -85.8535
 -85.8536
 -85.8778
 -85.878
 -85.8772
 -85.8777
 -85.8653
 -85.8653
 -85.8646
 -85.866
 -85.8849
 -85.8838
 -85.8834
 -85.8841
 -85.8744
 -85.8741
 -85.8746
 -85.8752
 -85.8589
 -85.8582
 -85.8594
 -85.8583
 -85.8886
 -85.889
 -85.8884
 -85.8891
 -85.88
 -85.8795
 -85.8802
 -85.8797
 -85.875
 -85.8753
 -85.8754
 -85.8759
 -85.8872
 -85.8872
 -85.8876
 -85.8881
 -85.857
 -85.856
 -85.8571
 -85.8564
 -85.8928
 -85.893
 -85.8935
 -85.8934
 -85.8408
 -85.8403
 -85.84
 -85.8409
 -85.8828
 -85.8831
 -85.8823
 -85.8822
 -85.8734
 -85.8727
 -85.8734
 -85.8738
 -85.8764
 -85.8767
 -85.8763
 -85.876
 -85.8697
 -85.8707
 -85.8712
 -85.8698
 -85.8584
 -85.8577
 -85.8586
 -85.8583
 -85.865
 -85.8648
 -85.864
 -85.8645
 -85.884
 -85.8839
 -85.8835
 -85.883
 -85.8738
 -85.875
 -85.8735
 -85.8741
 -85.8655
 -85.8662
 -85.8661
 -85.8655
 -85.8814
 -85.8806
 -85.8816
 -85.8808
 -85.8835
 -85.8831
 -85.883
 -85.8832
 -85.8657
 -85.865
 -85.8659
 -85.8645
 -85.86
 -85.8599
 -85.8597
 -85.8598
 -85.8806
 -85.8794
 -85.8805
 -85.8802
 -85.8527
 -85.8532
 -85.8533
 -85.8536
 -85.8818
 -85.8818
 -85.8831
 -85.8827
 -85.894
 -85.8935
 -85.8939
 -85.8934
 -85.8773
 -85.8772
 -85.8776
 -85.8764
 -85.8834
 -85.8841
 -85.8837
 -85.8836
 -85.8547
 -85.8546
 -85.8553
 -85.8541
 -85.8802
 -85.8797
 -85.8799
 -85.8807
 -85.8902
 -85.89
 -85.8906
 -85.8904
 -85.8632
 -85.864
 -85.8636
 -85.8633
 -85.8807
 -85.8818
 -85.8815
 -85.8815
 -85.8593
 -85.8601
 -85.8593
 -85.8584
 -85.8666
 -85.866
 -85.8657
 -85.8653
 -85.8752
 -85.8745
 -85.8743
 -85.8738
 -85.8579
 -85.8576
 -85.8573
 -85.8579
 -85.8758
 -85.8751
 -85.8751
 -85.8757
 -85.8675
 -85.8664
 -85.8675
 -85.8661
 -85.8774
 -85.8779
 -85.8774
 -85.878
 -85.8644
 -85.8652
 -85.8647
 -85.8658
 -85.8775
 -85.8774
 -85.8782
 -85.8769
 -85.882
 -85.8821
 -85.8826
 -85.883
 -85.8832
 -85.8828
 -85.8832
 -85.882
 -85.8633
 -85.8633
 -85.8621
 -85.8638
 -85.8692
 -85.8687
 -85.8689
 -85.87
 -85.8427
 -85.842
 -85.8415
 -85.8422
 -85.8649
 -85.8648
 -85.864
 -85.8647
 -85.8739
 -85.8751
 -85.8747
 -85.8748
 -85.8681
 -85.8679
 -85.8691
 -85.8672
 -85.8675
 -85.8686
 -85.8674
 -85.8685
 -85.8582
 -85.8577
 -85.8585
 -85.8585
 -85.8879
 -85.8887
 -85.8889
 -85.8878
 -85.8917
 -85.8919
 -85.8921
 -85.8923
 -85.8758
 -85.8769
 -85.8751
 -85.8757
 -85.8652
 -85.865
 -85.8657
 -85.8647
 -85.8816
 -85.882
 -85.8824
 -85.8815
 -85.857
 -85.8555
 -85.8559
 -85.8559
 -85.8568
 -85.856
 -85.8558
 -85.8569
 -85.8413
 -85.8407
 -85.8417
 -85.8415
 -85.8779
 -85.8787
 -85.8783
 -85.8791
 -85.8628
 -85.8637
 -85.864
 -85.8628
 -85.861
 -85.8602
 -85.8612
 -85.8617
 -85.8924
 -85.8929
 -85.8927
 -85.893
 -85.8599
 -85.8596
 -85.8589
 -85.8598
 -85.8613
 -85.8609
 -85.8602
 -85.8612
 -85.8628
 -85.8634
 -85.8627
 -85.8621
 -85.8709
 -85.8707
 -85.8715
 -85.8713
 -85.8617
 -85.8627
 -85.862
 -85.8623
 -85.8664
 -85.867
 -85.8672
 -85.8666
 -85.8691
 -85.8688
 -85.8685
 -85.8681
 -85.8595
 -85.8585
 -85.8598
 -85.8588
 -85.8387
 -85.8385
 -85.8399
 -85.8399
 -85.8577
 -85.858
 -85.8585
 -85.8581
 -85.8783
 -85.8778
 -85.8787
 -85.8772
 -85.8785
 -85.8782
 -85.879
 -85.8783
 -85.883
 -85.8826
 -85.8824
 -85.8834
 -85.8567
 -85.8566
 -85.8567
 -85.8571
 -85.8932
 -85.8932
 -85.8928
 -85.8935
 -85.8825
 -85.8833
 -85.8825
 -85.8827
 -85.8534
 -85.8533
 -85.8525
 -85.8525
 -85.8668
 -85.8668
 -85.8664
 -85.868
 -85.861
 -85.8615
 -85.8603
 -85.8607
 -85.8612
 -85.8608
 -85.8608
 -85.8571
 -85.857
 -85.857
 -85.8567
 -85.8801
 -85.8796
 -85.8792
 -85.8804
 -85.8698
 -85.871
 -85.8705
 -85.8699
 -85.8791
 -85.88
 -85.8793
 -85.8649
 -85.8637
 -85.8645
 -85.864
 -85.8725
 -85.873
 -85.8728
 -85.8719
 -85.8867
 -85.8859
 -85.8859
 -85.8872
 -85.8571
 -85.8573
 -85.8585
 -85.858
 -85.8597
 -85.859
 -85.8586
 -85.8591
 -85.8782
 -85.8773
 -85.8771
 -85.8774
 -85.8818
 -85.8813
 -85.8826
 -85.8825
 -85.8546
 -85.8547
 -85.8542
 -85.8536
 -85.8591
 -85.8593
 -85.8607
 -85.8603
 -85.8685
 -85.8695
 -85.8701
 -85.8686
 -85.8904
 -85.8909
 -85.8906
 -85.8908
 -85.8779
 -85.8788
 -85.879
 -85.8787
 -85.8726
 -85.8712
 -85.8725
 -85.8726
 -85.8443
 -85.843
 -85.8444
 -85.8442
 -85.8709
 -85.87
 -85.8712
 -85.8718
 -85.8864
 -85.8857
 -85.8864
 -85.8853
 -85.8621
 -85.8607
 -85.8628
 -85.8623
 -85.8601
 -85.8603
 -85.8594
 -85.86
 -85.8599
 -85.8589
 -85.8591
 -85.8594
 -85.8519
 -85.8518
 -85.8518
 -85.8522
 -85.861
 -85.8597
 -85.8598
 -85.8598
 -85.8786
 -85.8784
 -85.8786
 -85.878
 -85.8559
 -85.8563
 -85.8566
 -85.8568
 -85.8899
 -85.8893
 -85.8896
 -85.8899
 -85.8565
 -85.8554
 -85.8555
 -85.8564
 -85.8863
 -85.8853
 -85.8863
 -85.8857
 -85.8705
 -85.8697
 -85.8697
 -85.8703
 -85.8667
 -85.8675
 -85.8679
 -85.867
 -85.8639
 -85.8639
 -85.865
 -85.8641
 -85.8622
 -85.8621
 -85.8615
 -85.8612
 -85.8927
 -85.8932
 -85.8934
 -85.8933
 -85.863
 -85.8625
 -85.863
 -85.8626
 -85.8941
 -85.8937
 -85.8939
 -85.8934
 -85.8821
 -85.882
 -85.8829
 -85.8822
 -85.8477
 -85.8488
 -85.8486
 -85.8475
 -85.8909
 -85.8908
 -85.8913
 -85.8916
 -85.8589
 -85.86
 -85.8591
 -85.8583
 -85.8468
 -85.8462
 -85.8459
 -85.8466
 -85.885
 -85.8849
 -85.8845
 -85.8849
 -85.8918
 -85.8923
 -85.892
 -85.8919
 -85.8749
 -85.8752
 -85.8747
 -85.8745
 -85.8838
 -85.883
 -85.884
 -85.8832
 -85.861
 -85.86
 -85.8605
 -85.8604
 -85.8769
 -85.8766
 -85.8769
 -85.8778
 -85.8663
 -85.8658
 -85.8666
 -85.8667
 -85.8577
 -85.8581
 -85.8575
 -85.8575
 -85.8538
 -85.8536
 -85.8535
 -85.8543
 -85.87
 -85.8697
 -85.8706
 -85.8694
 -85.8726
 -85.8726
 -85.8723
 -85.8717
 -85.8604
 -85.8602
 -85.8609
 -85.8613
 -85.8605
 -85.8593
 -85.8604
 -85.8602
 -85.8795
 -85.8797
 -85.879
 -85.879
 -85.8906
 -85.8904
 -85.8911
 -85.8912
 -85.8895
 -85.889
 -85.8896
 -85.8898
 -85.8892
 -85.8883
 -85.8885
 -85.8889
 -85.8803
 -85.8799
 -85.8806
 -85.8797
 -85.8603
 -85.8593
 -85.8601
 -85.8598
 -85.8608
 -85.8613
 -85.8615
 -85.8618
 -85.8723
 -85.872
 -85.8707
 -85.8707
 -85.8822
 -85.8817
 -85.883
 -85.8826
 -85.882
 -85.8815
 -85.8817
 -85.8824
 -85.8755
 -85.8747
 -85.8752
 -85.8753
 -85.8778
 -85.8785
 -85.8774
 -85.8777
 -85.8543
 -85.8541
 -85.8545
 -85.8554
 -85.8341
 -85.8335
 -85.8343
 -85.833
 -85.8625
 -85.8624
 -85.8613
 -85.8619
 -85.8379
 -85.8392
 -85.8388
 -85.8625
 -85.8624
 -85.8629
 -85.8618
 -85.8872
 -85.8867
 -85.8871
 -85.8865
 -85.8745
 -85.8751
 -85.8752
 -85.8759
 -85.8905
 -85.8902
 -85.8909
 -85.8901
 -85.8602
 -85.8604
 -85.8594
 -85.8602
 -85.881
 -85.8807
 -85.8819
 -85.8816
 -85.8756
 -85.8756
 -85.8745
 -85.875
 -85.8921
 -85.8924
 -85.8926
 -85.8918
 -85.8857
 -85.8855
 -85.8858
 -85.8866
 -85.8626
 -85.8635
 -85.8629
 -85.8626
 -85.8808
 -85.8806
 -85.8799
 -85.8807
 -85.8867
 -85.8855
 -85.8863
 -85.8857
 -85.8466
 -85.8453
 -85.8459
 -85.8454
 -85.8741
 -85.8745
 -85.8749
 -85.875
 -85.8866
 -85.8868
 -85.8873
 -85.8867
 -85.8788
 -85.8796
 -85.8782
 -85.88
 -85.8856
 -85.8847
 -85.8857
 -85.8856
 -85.8608
 -85.8616
 -85.8621
 -85.862
 -85.8855
 -85.887
 -85.8854
 -85.8867
 -85.8691
 -85.8696
 -85.868
 -85.8689
 -85.8713
 -85.8718
 -85.8724
 -85.8711
 -85.8853
 -85.8853
 -85.8846
 -85.8857
 -85.8939
 -85.8936
 -85.8936
 -85.8939
 -85.8544
 -85.8549
 -85.8553
 -85.8556
 -85.8658
 -85.8665
 -85.8671
 -85.8661
 -85.8768
 -85.8763
 -85.8758
 -85.8761
 -85.8855
 -85.886
 -85.8859
 -85.8861
 -85.8633
 -85.8626
 -85.8629
 -85.863
 -85.8558
 -85.8568
 -85.8573
 -85.856
 -85.8814
 -85.8815
 -85.8805
 -85.8805
 -85.8787
 -85.8795
 -85.8787
 -85.879
 -85.8912
 -85.8916
 -85.8921
 -85.8912
 -85.8581
 -85.8592
 -85.8579
 -85.8588
 -85.8918
 -85.8923
 -85.8922
 -85.8918
 -85.8651
 -85.8662
 -85.8656
 -85.8653
 -85.835
 -85.8348
 -85.8352
 -85.8355
 -85.8887
 -85.8891
 -85.8895
 -85.8892
 -85.8802
 -85.8807
 -85.8798
 -85.8788
 -85.8893
 -85.8893
 -85.8889
 -85.8888
 -85.8722
 -85.8711
 -85.8719
 -85.8724
 -85.8701
 -85.8707
 -85.8709
 -85.8703
 -85.8843
 -85.8833
 -85.8836
 -85.8837
 -85.8603
 -85.8606
 -85.8598
 -85.8604
 -85.8588
 -85.8593
 -85.8594
 -85.859
 -85.8422
 -85.8417
 -85.8417
 -85.8414
 -85.8755
 -85.8762
 -85.8766
 -85.8769
 -85.8729
 -85.8724
 -85.8738
 -85.8729
 -85.879
 -85.8777
 -85.8785
 -85.8792
 -85.866
 -85.8672
 -85.8673
 -85.8657
 -85.8906
 -85.8905
 -85.891
 -85.89
 -85.8919
 -85.8927
 -85.8919
 -85.8917
 -85.8796
 -85.8799
 -85.8808
 -85.8808
 -85.8281
 -85.828
 -85.8283
 -85.8288
 -85.8689
 -85.8683
 -85.8691
 -85.8678
 -85.8696
 -85.8693
 -85.8683
 -85.8693
 -85.869
 -85.8691
 -85.868
 -85.868
 -85.8846
 -85.8843
 -85.8852
 -85.8841
 -85.8452
 -85.8463
 -85.8444
 -85.8451
 -85.8402
 -85.8403
 -85.8392
 -85.839
 -85.8847
 -85.8841
 -85.8847
 -85.8839
 -85.8643
 -85.8654
 -85.8638
 -85.8653
 -85.868
 -85.8679
 -85.8682
 -85.8683
 -85.8796
 -85.879
 -85.8789
 -85.878
 -85.8595
 -85.86
 -85.8603
 -85.8599
 -85.8859
 -85.885
 -85.8853
 -85.8858
 -85.8662
 -85.8644
 -85.8654
 -85.8641
 -85.8646
 -85.8644
 -85.8636
 -85.8643
 -85.8558
 -85.8552
 -85.8563
 -85.855
 -85.8687
 -85.87
 -85.8691
 -85.8701
 -85.8872
 -85.8876
 -85.8876
 -85.887
 -85.8806
 -85.8817
 -85.882
 -85.8811
 -85.8592
 -85.859
 -85.8599
 -85.8598
 -85.863
 -85.8641
 -85.8642
 -85.863
 -85.8897
 -85.89
 -85.8904
 -85.8903
 -85.8856
 -85.885
 -85.8854
 -85.885
 -85.8697
 -85.8693
 -85.8687
 -85.8693
 -85.8564
 -85.8566
 -85.8566
 -85.8569
 -85.8494
 -85.851
 -85.8507
 -85.8495
 -85.8797
 -85.8788
 -85.8783
 -85.8793
 -85.8564
 -85.8554
 -85.8564
 -85.8543
 -85.8879
 -85.8871
 -85.8871
 -85.8878
 -85.8771
 -85.8783
 -85.8776
 -85.8768
 -85.8872
 -85.887
 -85.8867
 -85.8869
 -85.8817
 -85.8808
 -85.8807
 -85.8812
 -85.8695
 -85.869
 -85.8694
 -85.8701
 -85.8609
 -85.8595
 -85.8598
 -85.8604
 -85.8509
 -85.8525
 -85.8511
 -85.8512
 -85.8545
 -85.8531
 -85.8546
 -85.8542
 -85.8604
 -85.8591
 -85.859
 -85.8594
 -85.8713
 -85.8717
 -85.8715
 -85.87
 -85.8717
 -85.8719
 -85.8721
 -85.8711
 -85.8727
 -85.8718
 -85.8734
 -85.8725
 -85.8801
 -85.8795
 -85.8803
 -85.8802
 -85.8452
 -85.8441
 -85.8444
 -85.8443
 -85.8753
 -85.8755
 -85.8751
 -85.8759
 -85.8589
 -85.8579
 -85.8583
 -85.8586
 -85.8678
 -85.8689
 -85.8682
 -85.8689
 -85.8913
 -85.8904
 -85.8912
 -85.891
 -85.8708
 -85.8703
 -85.8703
 -85.8699
 -85.8568
 -85.8564
 -85.8567
 -85.8556
 -85.8673
 -85.8672
 -85.8679
 -85.8684
 -85.8612
 -85.8618
 -85.8617
 -85.861
 -85.8698
 -85.8687
 -85.8699
 -85.8691
 -85.846
 -85.8451
 -85.8455
 -85.8462
 -85.8683
 -85.8683
 -85.8692
 -85.8693
 -85.8804
 -85.8801
 -85.8808
 -85.8803
 -85.8777
 -85.8778
 -85.8782
 -85.8778
 -85.8896
 -85.8884
 -85.8894
 -85.8889
 -85.8632
 -85.863
 -85.8639
 -85.8633
 -85.8606
 -85.8613
 -85.8605
 -85.8623
 -85.889
 -85.8881
 -85.889
 -85.8888
 -85.8614
 -85.8614
 -85.8624
 -85.8615
 -85.8872
 -85.8869
 -85.8876
 -85.8868
 -85.8742
 -85.8755
 -85.8747
 -85.8752
 -85.8715
 -85.8701
 -85.8715
 -85.8718
 -85.8608
 -85.8617
 -85.8615
 -85.8607
 -85.8703
 -85.8702
 -85.8711
 -85.8701
 -85.8875
 -85.8872
 -85.8877
 -85.8876
 -85.8345
 -85.8347
 -85.835
 -85.8338
 -85.8561
 -85.856
 -85.856
 -85.8562
 -85.8561
 -85.8562
 -85.8561
 -85.8554
 -85.8643
 -85.8647
 -85.8639
 -85.8652
 -85.8678
 -85.8671
 -85.8677
 -85.8672
 -85.8634
 -85.8629
 -85.8625
 -85.8636
 -85.8915
 -85.8911
 -85.8921
 -85.8909
 -85.8603
 -85.8597
 -85.8599
 -85.8609
 -85.879
 -85.8792
 -85.8796
 -85.8787
 -85.8715
 -85.8853
 -85.8844
 -85.8846
 -85.8846
 -85.8774
 -85.878
 -85.8786
 -85.8782
 -85.8538
 -85.8545
 -85.8548
 -85.8542
 -85.8653
 -85.8649
 -85.8655
 -85.8662
 -85.8619
 -85.8609
 -85.8616
 -85.8618
 -85.8866
 -85.886
 -85.886
 -85.8861
 -85.8688
 -85.8672
 -85.8683
 -85.8679
 -85.8876
 -85.8878
 -85.887
 -85.8869
 -85.8812
 -85.8818
 -85.8809
 -85.882
 -85.8543
 -85.8549
 -85.8545
 -85.8555
 -85.86
 -85.8589
 -85.8607
 -85.86
 -85.8805
 -85.8811
 -85.8811
 -85.8805
 -85.8704
 -85.8691
 -85.8702
 -85.8564
 -85.8558
 -85.8562
 -85.8569
 -85.8794
 -85.878
 -85.8789
 -85.8781
 -85.862
 -85.861
 -85.861
 -85.8617
 -85.8707
 -85.8692
 -85.8699
 -85.8707
 -85.8891
 -85.8891
 -85.8882
 -85.889
 -85.8641
 -85.8637
 -85.8632
 -85.864
 -85.8854
 -85.8845
 -85.8853
 -85.8856
 -85.8725
 -85.872
 -85.8726
 -85.8715
 -85.8832
 -85.8827
 -85.8821
 -85.8826
 -85.8884
 -85.8885
 -85.8892
 -85.8888
 -85.8647
 -85.8645
 -85.8652
 -85.8652
 -85.8344
 -85.836
 -85.8357
 -85.8365
 -85.8918
 -85.8914
 -85.8914
 -85.8913
 -85.8787
 -85.8784
 -85.8778
 -85.8783
 -85.8579
 -85.8579
 -85.8595
 -85.8583
 -85.8673
 -85.8679
 -85.8682
 -85.8672
 -85.8474
 -85.8477
 -85.8478
 -85.8468
 -85.8878
 -85.8882
 -85.8891
 -85.8882
 -85.8571
 -85.8567
 -85.8569
 -85.857
 -85.8748
 -85.8756
 -85.8744
 -85.875
 -85.8593
 -85.8575
 -85.8588
 -85.8589
 -85.8928
 -85.8927
 -85.8928
 -85.892
 -85.8926
 -85.8925
 -85.892
 -85.8917
 -85.8813
 -85.8804
 -85.8802
 -85.8814
 -85.8757
 -85.8761
 -85.8757
 -85.875
 -85.876
 -85.8567
 -85.8568
 -85.8556
 -85.8564
 -85.8588
 -85.8584
 -85.8581
 -85.8592
 -85.8795
 -85.8803
 -85.8804
 -85.8804
 -85.8581
 -85.8587
 -85.8587
 -85.8581
 -85.861
 -85.8608
 -85.8606
 -85.8616
 -85.8808
 -85.8812
 -85.8809
 -85.8802
 -85.8653
 -85.8664
 -85.8653
 -85.8664
 -85.8802
 -85.8802
 -85.8804
 -85.881
 -85.8619
 -85.8617
 -85.8609
 -85.8618
 -85.8645
 -85.8653
 -85.8654
 -85.8655
 -85.8692
 -85.87
 -85.8688
 -85.8699
 -85.8755
 -85.8765
 -85.8758
 -85.8767
 -85.8841
 -85.8837
 -85.8848
 -85.8848
 -85.874
 -85.8738
 -85.8733
 -85.8734
 -85.8742
 -85.8745
 -85.8749
 -85.8745
 -85.8542
 -85.8542
 -85.8547
 -85.855
 -85.8789
 -85.8791
 -85.8794
 -85.8792
 -85.8717
 -85.872
 -85.8724
 -85.8717
 -85.8734
 -85.8734
 -85.8728
 -85.8734
 -85.8661
 -85.8663
 -85.8652
 -85.8659
 -85.8565
 -85.8564
 -85.8569
 -85.8557
 -85.883
 -85.8829
 -85.8835
 -85.8835
 -85.8569
 -85.8561
 -85.8564
 -85.8575
 -85.8918
 -85.8918
 -85.8925
 -85.8921
 -85.8857
 -85.8851
 -85.8862
 -85.8859
 -85.8863
 -85.8863
 -85.8863
 -85.886
 -85.8857
 -85.8856
 -85.8854
 -85.8862
 -85.8813
 -85.8816
 -85.8808
 -85.8817
 -85.8491
 -85.8485
 -85.8473
 -85.8739
 -85.8727
 -85.8738
 -85.8734
 -85.8848
 -85.8845
 -85.8842
 -85.8848
 -85.8656
 -85.8646
 -85.8652
 -85.8655
 -85.862
 -85.8622
 -85.8616
 -85.8623
 -85.8819
 -85.882
 -85.8828
 -85.8812
 -85.8689
 -85.8686
 -85.8691
 -85.8698
 -85.8629
 -85.8629
 -85.8626
 -85.8624
 -85.891
 -85.8917
 -85.8779
 -85.8776
 -85.8769
 -85.8768
 -85.8696
 -85.8695
 -85.8688
 -85.8754
 -85.8756
 -85.8753
 -85.8746
 -85.8508
 -85.8506
 -85.8517
 -85.8516
 -85.8855
 -85.8861
 -85.886
 -85.8853
 -85.8752
 -85.8749
 -85.8744
 -85.8745
 -85.8655
 -85.8646
 -85.8651
 -85.8659
 -85.8731
 -85.872
 -85.8724
 -85.8728
 -85.8576
 -85.8573
 -85.8578
 -85.8576
 -85.8549
 -85.8563
 -85.8553
 -85.8556
 -85.8685
 -85.8693
 -85.8695
 -85.869
 -85.8572
 -85.857
 -85.8571
 -85.858
 -85.8697
 -85.8692
 -85.8694
 -85.869
 -85.8864
 -85.8863
 -85.8855
 -85.8853
 -85.8586
 -85.8591
 -85.8594
 -85.859
 -85.8422
 -85.8432
 -85.8423
 -85.843
 -85.8767
 -85.8751
 -85.8762
 -85.8763
 -85.8674
 -85.8681
 -85.8673
 -85.8681
 -85.8576
 -85.8574
 -85.8582
 -85.858
 -85.87
 -85.8693
 -85.8703
 -85.8703
 -85.8897
 -85.8894
 -85.8898
 -85.8897
 -85.8611
 -85.8611
 -85.8607
 -85.8611
 -85.8773
 -85.8765
 -85.8764
 -85.8763
 -85.8671
 -85.868
 -85.8673
 -85.8687
 -85.8811
 -85.8815
 -85.8813
 -85.8821
 -85.8865
 -85.8864
 -85.8868
 -85.8861
 -85.8582
 -85.8589
 -85.8584
 -85.8598
 -85.8638
 -85.8645
 -85.8643
 -85.8641
 -85.8753
 -85.8752
 -85.8741
 -85.8747
 -85.8573
 -85.8575
 -85.8574
 -85.8577
 -85.8353
 -85.8344
 -85.8345
 -85.8351
 -85.8729
 -85.872
 -85.872
 -85.8718
 -85.833
 -85.8328
 -85.8331
 -85.8339
 -85.8348
 -85.8361
 -85.8359
 -85.8353
 -85.8511
 -85.8518
 -85.8516
 -85.8507
 -85.8788
 -85.8781
 -85.8776
 -85.8772
 -85.8784
 -85.879
 -85.8792
 -85.8797
 -85.8797
 -85.8792
 -85.8796
 -85.8787
 -85.877
 -85.876
 -85.8763
 -85.8772
 -85.8472
 -85.8464
 -85.8471
 -85.8468
 -85.859
 -85.8586
 -85.8595
 -85.8592
 -85.8577
 -85.8567
 -85.8571
 -85.8569
 -85.8655
 -85.8666
 -85.8656
 -85.8667
 -85.8738
 -85.8733
 -85.8739
 -85.8734
 -85.8812
 -85.881
 -85.8806
 -85.8812
 -85.8599
 -85.8611
 -85.8614
 -85.8604
 -85.8789
 -85.8706
 -85.8712
 -85.8714
 -85.8709
 -85.8923
 -85.8925
 -85.8932
 -85.8928
 -85.8686
 -85.8688
 -85.8693
 -85.8687
 -85.888
 -85.8889
 -85.8882
 -85.8585
 -85.8589
 -85.8593
 -85.8583
 -85.8382
 -85.8391
 -85.8387
 -85.8392
 -85.8705
 -85.8705
 -85.8717
 -85.8699
 -85.866
 -85.8646
 -85.8648
 -85.8648
 -85.8574
 -85.858
 -85.8586
 -85.8588
 -85.8586
 -85.859
 -85.8582
 -85.8591
 -85.85
 -85.8489
 -85.8496
 -85.8496
 -85.8755
 -85.8753
 -85.8758
 -85.877
 -85.8706
 -85.8717
 -85.8704
 -85.8712
 -85.8635
 -85.8627
 -85.8636
 -85.8632
 -85.8687
 -85.8681
 -85.8697
 -85.8819
 -85.8815
 -85.8814
 -85.8603
 -85.8604
 -85.8592
 -85.8589
 -85.852
 -85.8517
 -85.8517
 -85.8519
 -85.8619
 -85.8626
 -85.8625
 -85.8618
 -85.8518
 -85.8509
 -85.8521
 -85.8506
 -85.8837
 -85.8847
 -85.884
 -85.8843
 -85.8811
 -85.8815
 -85.8817
 -85.8823
 -85.8574
 -85.8571
 -85.8573
 -85.8571
 -85.8483
 -85.8469
 -85.8479
 -85.8483
 -85.873
 -85.8717
 -85.8728
 -85.8723
 -85.8906
 -85.8898
 -85.8907
 -85.89
 -85.8513
 -85.8512
 -85.8508
 -85.8513
 -85.8783
 -85.8776
 -85.8774
 -85.8786
 -85.8417
 -85.8411
 -85.8418
 -85.8413
 -85.881
 -85.8814
 -85.8809
 -85.8821
 -85.8662
 -85.8654
 -85.8667
 -85.8651
 -85.8839
 -85.8839
 -85.8846
 -85.8846
 -85.8583
 -85.8585
 -85.8587
 -85.8594
 -85.8645
 -85.8637
 -85.8638
 -85.8637
 -85.8601
 -85.8597
 -85.8608
 -85.8607
 -85.862
 -85.8616
 -85.8627
 -85.8611
 -85.8729
 -85.8735
 -85.8734
 -85.8725
 -85.8682
 -85.8675
 -85.8684
 -85.8684
 -85.8846
 -85.8839
 -85.8834
 -85.8835
 -85.8917
 -85.8921
 -85.8911
 -85.8911
 -85.8669
 -85.8668
 -85.8661
 -85.8667
 -85.8862
 -85.8858
 -85.8857
 -85.8866
 -85.8801
 -85.8812
 -85.8817
 -85.8809
 -85.8459
 -85.8454
 -85.8444
 -85.8458
 -85.8559
 -85.8576
 -85.8571
 -85.8567
 -85.866
 -85.8654
 -85.8651
 -85.8654
 -85.8502
 -85.8495
 -85.8493
 -85.8487
 -85.8736
 -85.8746
 -85.8745
 -85.8742
 -85.8832
 -85.8847
 -85.8839
 -85.884
 -85.8508
 -85.8523
 -85.8508
 -85.8508
 -85.8689
 -85.8697
 -85.8692
 -85.8693
 -85.8625
 -85.8624
 -85.8624
 -85.862
 -85.8354
 -85.8362
 -85.8362
 -85.8354
 -85.8651
 -85.865
 -85.8648
 -85.8658
 -85.8711
 -85.8717
 -85.8716
 -85.8718
 -85.8806
 -85.8816
 -85.881
 -85.8818
 -85.8617
 -85.862
 -85.8622
 -85.871
 -85.8708
 -85.8705
 -85.8709
 -85.8638
 -85.8637
 -85.865
 -85.8641
 -85.8786
 -85.8778
 -85.8784
 -85.8783
 -85.8783
 -85.8793
 -85.8792
 -85.8789
 -85.8872
 -85.8865
 -85.887
 -85.8862
 -85.8593
 -85.8594
 -85.8601
 -85.8593
 -85.8899
 -85.8902
 -85.8905
 -85.8901
 -85.8609
 -85.8617
 -85.8611
 -85.8607
 -85.8705
 -85.8716
 -85.8715
 -85.8721
 -85.8723
 -85.8714
 -85.8715
 -85.8711
 -85.8341
 -85.8332
 -85.8339
 -85.8338
 -85.863
 -85.8624
 -85.8631
 -85.8632
 -85.8698
 -85.8697
 -85.8705
 -85.8715
 -85.8691
 -85.8695
 -85.8695
 -85.8685
 -85.892
 -85.892
 -85.8913
 -85.8919
 -85.8608
 -85.8617
 -85.8622
 -85.8612
 -85.8624
 -85.8618
 -85.8627
 -85.8616
 -85.8807
 -85.8815
 -85.8808
 -85.8813
 -85.8582
 -85.858
 -85.8574
 -85.8573
 -85.8577
 -85.8575
 -85.8581
 -85.8574
 -85.8777
 -85.8765
 -85.8776
 -85.877
 -85.8788
 -85.8787
 -85.8779
 -85.8787
 -85.8728
 -85.8728
 -85.874
 -85.8737
 -85.8616
 -85.8613
 -85.876
 -85.8753
 -85.8765
 -85.8755
 -85.8622
 -85.8626
 -85.8622
 -85.8624
 -85.8673
 -85.8683
 -85.8686
 -85.8682
 -85.8882
 -85.8878
 -85.8875
 -85.8884
 -85.8675
 -85.8678
 -85.8682
 -85.8684
 -85.8822
 -85.8828
 -85.8831
 -85.8819
 -85.8596
 -85.8613
 -85.8607
 -85.8612
 -85.8658
 -85.865
 -85.8648
 -85.8653
 -85.8696
 -85.8712
 -85.8704
 -85.8707
 -85.8593
 -85.8586
 -85.8583
 -85.8588
 -85.8426
 -85.8428
 -85.8424
 -85.8418
 -85.8907
 -85.8906
 -85.8905
 -85.8907
 -85.8515
 -85.8513
 -85.8517
 -85.8511
 -85.8742
 -85.8746
 -85.8737
 -85.8737
 -85.8424
 -85.8425
 -85.8432
 -85.8421
 -85.8756
 -85.8764
 -85.8757
 -85.8757
 -85.8611
 -85.861
 -85.8607
 -85.8608
 -85.8611
 -85.8613
 -85.8605
 -85.861
 -85.8722
 -85.8726
 -85.8715
 -85.8723
 -85.8848
 -85.8838
 -85.8846
 -85.8837
 -85.8652
 -85.8664
 -85.8662
 -85.8663
 -85.8573
 -85.857
 -85.8573
 -85.8576
 -85.8843
 -85.8854
 -85.8848
 -85.8857
 -85.8603
 -85.8594
 -85.8607
 -85.8608
 -85.8652
 -85.8662
 -85.8659
 -85.8665
 -85.8803
 -85.8818
 -85.8815
 -85.8809
 -85.8717
 -85.8726
 -85.8727
 -85.8728
 -85.8685
 -85.8679
 -85.8685
 -85.869
 -85.8881
 -85.8887
 -85.889
 -85.8892
 -85.8856
 -85.8859
 -85.8858
 -85.8855
 -85.8743
 -85.8743
 -85.8732
 -85.8738
 -85.8684
 -85.869
 -85.8682
 -85.87
 -85.8632
 -85.8635
 -85.8636
 -85.8649
 -85.8563
 -85.8562
 -85.8556
 -85.882
 -85.8825
 -85.8822
 -85.883
 -85.8415
 -85.8408
 -85.84
 -85.8401
 -85.8784
 -85.8773
 -85.8779
 -85.8778
 -85.8598
 -85.8588
 -85.8593
 -85.8594
 -85.8581
 -85.8574
 -85.8577
 -85.8576
 -85.8858
 -85.885
 -85.8854
 -85.8865
 -85.8724
 -85.8717
 -85.8727
 -85.872
 -85.8687
 -85.8684
 -85.862
 -85.867
 -85.868
 -85.8669
 -85.8675
 -85.8427
 -85.8434
 -85.8774
 -85.8778
 -85.8782
 -85.8539
 -85.8545
 -85.8532
 -85.854
 -85.8776
 -85.8766
 -85.8769
 -85.8769
 -85.8652
 -85.8661
 -85.8659
 -85.8658
 -85.8617
 -85.863
 -85.8622
 -85.8623
 -85.8881
 -85.8881
 -85.889
 -85.8885
 -85.8543
 -85.8551
 -85.8542
 -85.8552
 -85.8768
 -85.8769
 -85.877
 -85.8776
 -85.8894
 -85.8896
 -85.8887
 -85.8888
 -85.8716
 -85.8706
 -85.8716
 -85.8709
 -85.8767
 -85.8755
 -85.876
 -85.8759
 -85.8698
 -85.8707
 -85.87
 -85.8686
 -85.8927
 -85.8917
 -85.8924
 -85.8915
 -85.892
 -85.892
 -85.8916
 -85.8913
 -85.8913
 -85.891
 -85.8909
 -85.8913
 -85.8674
 -85.8665
 -85.8673
 -85.8672
 -85.8743
 -85.8733
 -85.8737
 -85.8742
 -85.868
 -85.8679
 -85.8672
 -85.8677
 -85.8665
 -85.8662
 -85.8674
 -85.8661
 -85.8788
 -85.8792
 -85.8793
 -85.8784
 -85.8846
 -85.8857
 -85.8853
 -85.8857
 -85.8842
 -85.8845
 -85.8836
 -85.8848
 -85.8711
 -85.8716
 -85.8709
 -85.8715
 -85.8692
 -85.8691
 -85.8689
 -85.8685
 -85.8609
 -85.8603
 -85.8607
 -85.8616
 -85.8809
 -85.8817
 -85.8816
 -85.8807
 -85.8503
 -85.8503
 -85.8494
 -85.8509
 -85.8829
 -85.8835
 -85.8828
 -85.8826
 -85.8734
 -85.8747
 -85.8733
 -85.8744
 -85.8726
 -85.8731
 -85.8727
 -85.8722
 -85.8546
 -85.8545
 -85.854
 -85.8532
 -85.8312
 -85.8318
 -85.8309
 -85.8311
 -85.8639
 -85.8647
 -85.8639
 -85.8641
 -85.8829
 -85.8818
 -85.8822
 -85.8828
 -85.8582
 -85.8575
 -85.8581
 -85.8586
 -85.8741
 -85.8745
 -85.8735
 -85.8746
 -85.8754
 -85.8762
 -85.877
 -85.8767
 -85.8806
 -85.8811
 -85.8799
 -85.8803
 -85.8485
 -85.8477
 -85.8478
 -85.8485
 -85.8493
 -85.8494
 -85.8489
 -85.8489
 -85.8827
 -85.884
 -85.8834
 -85.8835
 -85.8791
 -85.8778
 -85.8778
 -85.8787
 -85.8636
 -85.8637
 -85.8632
 -85.8633
 -85.8701
 -85.8697
 -85.8705
 -85.871
 -85.8732
 -85.8736
 -85.8733
 -85.8731
 -85.8628
 -85.8624
 -85.8636
 -85.8625
 -85.8769
 -85.8764
 -85.8765
 -85.8758
 -85.8949
 -85.8943
 -85.8947
 -85.8948
 -85.8748
 -85.8758
 -85.8758
 -85.8764
 -85.8703
 -85.8707
 -85.87
 -85.8713
 -85.8703
 -85.8702
 -85.8694
 -85.8704
 -85.8733
 -85.8738
 -85.8734
 -85.8726
 -85.8903
 -85.8905
 -85.8899
 -85.8903
 -85.8848
 -85.884
 -85.8845
 -85.8764
 -85.8764
 -85.877
 -85.8763
 -85.8572
 -85.8571
 -85.8579
 -85.8571
 -85.8662
 -85.8663
 -85.8656
 -85.8666
 -85.8843
 -85.8832
 -85.8831
 -85.8832
 -85.8609
 -85.8612
 -85.8614
 -85.8618
 -85.8648
 -85.8641
 -85.864
 -85.8651
 -85.8661
 -85.8657
 -85.8645
 -85.8654
 -85.8784
 -85.8778
 -85.8777
 -85.8776
 -85.8734
 -85.8726
 -85.8736
 -85.8718
 -85.8765
 -85.8748
 -85.8754
 -85.8757
 -85.8589
 -85.8592
 -85.8594
 -85.859
 -85.866
 -85.8667
 -85.8669
 -85.866
 -85.8777
 -85.877
 -85.8778
 -85.8784
 -85.8642
 -85.8646
 -85.8651
 -85.8638
 -85.8748
 -85.8755
 -85.8756
 -85.875
 -85.8584
 -85.8582
 -85.8586
 -85.8581
 -85.8894
 -85.8895
 -85.8888
 -85.8894
 -85.8604
 -85.8597
 -85.8606
 -85.861
 -85.859
 -85.8575
 -85.8584
 -85.8584
 -85.8798
 -85.8798
 -85.8804
 -85.8807
 -85.8606
 -85.8607
 -85.861
 -85.8609
 -85.8758
 -85.8755
 -85.8759
 -85.875
 -85.8537
 -85.8539
 -85.8527
 -85.853
 -85.8726
 -85.8722
 -85.8725
 -85.8732
 -85.8873
 -85.8884
 -85.8874
 -85.888
 -85.873
 -85.8718
 -85.8717
 -85.8725
 -85.8806
 -85.881
 -85.8806
 -85.8806
 -85.8754
 -85.875
 -85.8752
 -85.8758
 -85.8748
 -85.8752
 -85.8753
 -85.8761
 -85.8903
 -85.8904
 -85.8907
 -85.8895
 -85.8588
 -85.8584
 -85.8579
 -85.8579
 -85.8595
 -85.8591
 -85.8583
 -85.859
 -85.8857
 -85.8856
 -85.8852
 -85.8862
 -85.8879
 -85.8883
 -85.8877
 -85.8626
 -85.8623
 -85.8623
 -85.8628
 -85.8768
 -85.8778
 -85.8767
 -85.8767
 -85.8737
 -85.8741
 -85.8731
 -85.8742
 -85.8583
 -85.8591
 -85.8576
 -85.8583
 -85.8808
 -85.8815
 -85.8812
 -85.8812
 -85.8695
 -85.8684
 -85.8686
 -85.8695
 -85.8725
 -85.8715
 -85.8717
 -85.8715
 -85.8817
 -85.8823
 -85.8823
 -85.8822
 -85.8562
 -85.8559
 -85.8563
 -85.8567
 -85.8625
 -85.8614
 -85.8618
 -85.8616
 -85.8912
 -85.8905
 -85.8911
 -85.8909
 -85.8591
 -85.859
 -85.8592
 -85.8603
 -85.8567
 -85.8563
 -85.8565
 -85.8566
 -85.8701
 -85.8703
 -85.8699
 -85.8711
 -85.8433
 -85.8436
 -85.8428
 -85.8443
 -85.8717
 -85.8719
 -85.8714
 -85.8719
 -85.8825
 -85.8822
 -85.8819
 -85.8817
 -85.8851
 -85.8846
 -85.8848
 -85.8544
 -85.8544
 -85.8549
 -85.8545
 -85.8607
 -85.8616
 -85.8604
 -85.8613
 -85.8586
 -85.8583
 -85.8576
 -85.8576
 -85.8621
 -85.8614
 -85.8619
 -85.8617
 -85.8916
 -85.892
 -85.8923
 -85.8921
 -85.8556
 -85.8557
 -85.8553
 -85.8547
 -85.8605
 -85.8598
 -85.8604
 -85.8614
 -85.8847
 -85.8853
 -85.8848
 -85.8845
 -85.8651
 -85.865
 -85.8656
 -85.8613
 -85.8605
 -85.8614
 -85.8731
 -85.8727
 -85.8718
 -85.8448
 -85.8461
 -85.8463
 -85.8453
 -85.8722
 -85.8729
 -85.8725
 -85.8731
 -85.8715
 -85.8721
 -85.8708
 -85.871
 -85.8857
 -85.8863
 -85.8855
 -85.8854
 -85.8882
 -85.888
 -85.8891
 -85.888
 -85.8576
 -85.8567
 -85.8566
 -85.8584
 -85.8738
 -85.8747
 -85.8748
 -85.8744
 -85.8734
 -85.8742
 -85.8745
 -85.8743
 -85.8688
 -85.87
 -85.8694
 -85.8702
 -85.864
 -85.8643
 -85.8645
 -85.8632
 -85.8739
 -85.8729
 -85.8737
 -85.874
 -85.859
 -85.8592
 -85.8589
 -85.8594
 -85.8874
 -85.8871
 -85.8874
 -85.8876
 -85.8624
 -85.8621
 -85.8625
 -85.8632
 -85.8849
 -85.8842
 -85.8846
 -85.8846
 -85.8891
 -85.8887
 -85.8881
 -85.8889
 -85.8892
 -85.889
 -85.8889
 -85.8887
 -85.8606
 -85.86
 -85.8799
 -85.8797
 -85.8791
 -85.8796
 -85.8586
 -85.8598
 -85.8592
 -85.8588
 -85.8819
 -85.8832
 -85.8829
 -85.8831
 -85.8846
 -85.8842
 -85.8851
 -85.8842
 -85.8627
 -85.8635
 -85.8635
 -85.8631
 -85.8737
 -85.8738
 -85.8745
 -85.8743
 -85.862
 -85.862
 -85.8628
 -85.8621
 -85.8669
 -85.8668
 -85.867
 -85.8679
 -85.8367
 -85.8382
 -85.8363
 -85.8376
 -85.8868
 -85.8864
 -85.8875
 -85.8867
 -85.8625
 -85.8618
 -85.8628
 -85.8635
 -85.8544
 -85.8537
 -85.8537
 -85.8546
 -85.8683
 -85.8677
 -85.8687
 -85.8688
 -85.8541
 -85.8527
 -85.8524
 -85.8541
 -85.8678
 -85.8669
 -85.8664
 -85.8675
 -85.8795
 -85.8793
 -85.8802
 -85.8788
 -85.8694
 -85.8688
 -85.8688
 -85.8691
 -85.8859
 -85.887
 -85.886
 -85.8683
 -85.8692
 -85.8682
 -85.8691
 -85.8365
 -85.836
 -85.836
 -85.8358
 -85.8922
 -85.8923
 -85.8926
 -85.8922
 -85.8734
 -85.8731
 -85.8736
 -85.8729
 -85.8823
 -85.8818
 -85.881
 -85.882
 -85.8575
 -85.8583
 -85.8563
 -85.8572
 -85.8637
 -85.8645
 -85.8631
 -85.8641
 -85.8639
 -85.8653
 -85.8644
 -85.8652
 -85.8885
 -85.8881
 -85.8888
 -85.8892
 -85.8652
 -85.8645
 -85.864
 -85.8643
 -85.8914
 -85.8912
 -85.8916
 -85.8908
 -85.8787
 -85.8777
 -85.8778
 -85.8789
 -85.8591
 -85.8593
 -85.8596
 -85.8591
 -85.8427
 -85.843
 -85.8439
 -85.8424
 -85.8671
 -85.8658
 -85.8665
 -85.8654
 -85.8699
 -85.87
 -85.8708
 -85.8699
 -85.88
 -85.88
 -85.8795
 -85.8789
 -85.8378
 -85.8366
 -85.8382
 -85.8376
 -85.8673
 -85.8667
 -85.8679
 -85.8675
 -85.8906
 -85.8901
 -85.8899
 -85.89
 -85.8839
 -85.8845
 -85.8843
 -85.884
 -85.8835
 -85.8837
 -85.8843
 -85.8833
 -85.8825
 -85.8819
 -85.8816
 -85.882
 -85.8838
 -85.8849
 -85.8843
 -85.8842
 -85.8759
 -85.8761
 -85.8759
 -85.876
 -85.86
 -85.8617
 -85.8626
 -85.8626
 -85.8622
 -85.8783
 -85.8774
 -85.8777
 -85.8775
 -85.8781
 -85.8783
 -85.8771
 -85.8773
 -85.8519
 -85.8523
 -85.8523
 -85.8519
 -85.8865
 -85.8864
 -85.8861
 -85.8865
 -85.882
 -85.8827
 -85.8836
 -85.883
 -85.8591
 -85.8602
 -85.86
 -85.8602
 -85.8602
 -85.86
 -85.8616
 -85.8622
 -85.8619
 -85.8626
 -85.8594
 -85.8584
 -85.857
 -85.8578
 -85.8779
 -85.8788
 -85.8785
 -85.8779
 -85.8913
 -85.8913
 -85.8911
 -85.8914
 -85.8706
 -85.87
 -85.8706
 -85.8696
 -85.8884
 -85.8873
 -85.8867
 -85.8868
 -85.8677
 -85.8676
 -85.8671
 -85.868
 -85.8776
 -85.877
 -85.8764
 -85.8765
 -85.8581
 -85.8578
 -85.8577
 -85.8567
 -85.8741
 -85.875
 -85.8737
 -85.8744
 -85.8756
 -85.8767
 -85.8772
 -85.8758
 -85.8604
 -85.86
 -85.8593
 -85.8597
 -85.865
 -85.8644
 -85.866
 -85.8653
 -85.868
 -85.8679
 -85.8671
 -85.8666
 -85.874
 -85.8746
 -85.8742
 -85.8745
 -85.8513
 -85.8515
 -85.8519
 -85.8528
 -85.876
 -85.8751
 -85.8757
 -85.8762
 -85.8651
 -85.864
 -85.8652
 -85.8659
 -85.8796
 -85.8794
 -85.8796
 -85.8789
 -85.8854
 -85.8847
 -85.8853
 -85.8849
 -85.8895
 -85.8891
 -85.889
 -85.8893
 -85.8881
 -85.8885
 -85.8874
 -85.892
 -85.8921
 -85.8925
 -85.8926
 -85.8834
 -85.8827
 -85.8818
 -85.8827
 -85.8697
 -85.8694
 -85.8701
 -85.87
 -85.8885
 -85.8881
 -85.8876
 -85.8885
 -85.8722
 -85.8723
 -85.8718
 -85.8716
 -85.8743
 -85.8748
 -85.8745
 -85.8886
 -85.8892
 -85.8888
 -85.8887
 -85.887
 -85.8864
 -85.8867
 -85.873
 -85.8726
 -85.8735
 -85.8737
 -85.8646
 -85.8652
 -85.8645
 -85.8659
 -85.8789
 -85.8782
 -85.878
 -85.8778
 -85.8889
 -85.8894
 -85.8891
 -85.8888
 -85.8608
 -85.8606
 -85.8612
 -85.8602
 -85.8695
 -85.8693
 -85.8685
 -85.8685
 -85.8707
 -85.8719
 -85.8705
 -85.8708
 -85.8796
 -85.8788
 -85.8794
 -85.8796
 -85.8612
 -85.8605
 -85.8618
 -85.8607
 -85.8577
 -85.857
 -85.8578
 -85.8575
 -85.8707
 -85.8708
 -85.8706
 -85.8715
 -85.8908
 -85.8904
 -85.8903
 -85.8905
 -85.8629
 -85.8619
 -85.863
 -85.8625
 -85.8585
 -85.8592
 -85.8582
 -85.8592
 -85.876
 -85.8747
 -85.876
 -85.8758
 -85.8619
 -85.8622
 -85.8617
 -85.8587
 -85.8594
 -85.8591
 -85.8746
 -85.8741
 -85.8754
 -85.8744
 -85.859
 -85.8587
 -85.8581
 -85.859
 -85.8594
 -85.8584
 -85.8592
 -85.8592
 -85.8761
 -85.8764
 -85.8759
 -85.8591
 -85.8589
 -85.885
 -85.8851
 -85.8863
 -85.8864
 -85.8787
 -85.88
 -85.8801
 -85.8795
 -85.8512
 -85.8521
 -85.8505
 -85.8524
 -85.8449
 -85.8451
 -85.8442
 -85.8451
 -85.8617
 -85.8601
 -85.8611
 -85.8612
 -85.8877
 -85.8876
 -85.888
 -85.8876
 -85.8775
 -85.8769
 -85.8764
 -85.8769
 -85.8562
 -85.8561
 -85.856
 -85.8559
 -85.8622
 -85.8624
 -85.8628
 -85.8636
 -85.8627
 -85.8628
 -85.8626
 -85.8604
 -85.8611
 -85.8611
 -85.8611
 -85.8611
 -85.8605
 -85.8613
 -85.8616
 -85.8583
 -85.8575
 -85.8582
 -85.8574
 -85.8904
 -85.8908
 -85.8905
 -85.8905
 -85.8884
 -85.889
 -85.8881
 -85.8705
 -85.8699
 -85.8706
 -85.8695
 -85.8613
 -85.8601
 -85.8615
 -85.861
 -85.8923
 -85.8927
 -85.8586
 -85.8581
 -85.8582
 -85.8578
 -85.8726
 -85.8743
 -85.8732
 -85.8738
 -85.8765
 -85.8763
 -85.859
 -85.8589
 -85.8599
 -85.859
 -85.8891
 -85.8895
 -85.8889
 -85.8899
 -85.8915
 -85.891
 -85.8911
 -85.892
 -85.8682
 -85.8687
 -85.8682
 -85.851
 -85.8518
 -85.8513
 -85.8599
 -85.8611
 -85.8598
 -85.8601
 -85.8814
 -85.8806
 -85.8819
 -85.8806
 -85.8638
 -85.8629
 -85.863
 -85.8622
 -85.8631
 -85.8625
 -85.8635
 -85.8624
 -85.8779
 -85.8778
 -85.8783
 -85.8792
 -85.8385
 -85.8389
 -85.8382
 -85.8373
 -85.8803
 -85.8806
 -85.8813
 -85.8811
 -85.8811
 -85.881
 -85.8817
 -85.8821
 -85.8576
 -85.8577
 -85.8565
 -85.8573
 -85.887
 -85.8873
 -85.8874
 -85.8867
 -85.8365
 -85.8353
 -85.8356
 -85.8347
 -85.8894
 -85.8881
 -85.8881
 -85.8879
 -85.8842
 -85.8836
 -85.8623
 -85.8629
 -85.8627
 -85.8634
 -85.8567
 -85.8559
 -85.8563
 -85.857
 -85.8865
 -85.8871
 -85.887
 -85.8868
 -85.8645
 -85.8648
 -85.8647
 -85.8641
 -85.8907
 -85.8902
 -85.8905
 -85.8616
 -85.8607
 -85.8604
 -85.8556
 -85.8565
 -85.8568
 -85.8896
 -85.8899
 -85.8896
 -85.8894
 -85.862
 -85.8615
 -85.8615
 -85.8615
 -85.8868
 -85.8869
 -85.8557
 -85.8563
 -85.8556
 -85.8559
 -85.8716
 -85.8725
 -85.8726
 -85.8717
 -85.8631
 -85.8626
 -85.8664
 -85.8682
 -85.868
 -85.8669
 -85.8623
 -85.8622
 -85.8623
 -85.8613
 -85.8911
 -85.8919
 -85.8909
 -85.8912
 -85.8572
 -85.8568
 -85.857
 -85.8843
 -85.8372
 -85.837
 -85.8372
 -85.8366
 -85.8863
 -85.8865
 -85.8869
 -85.8855
 -85.8631
 -85.8632
 -85.8646
 -85.8643
 -85.8799
 -85.8796
 -85.8796
 -85.8798
 -85.8622
 -85.8616
 -85.8612
 -85.862
 -85.8777
 -85.8519
 -85.8517
 -85.8517
 -85.852
 -85.8775
 -85.8776
 -85.8773
 -85.8765
 -85.8835
 -85.8839
 -85.8842
 -85.8829
 -85.8835
 -85.8826
 -85.8838
 -85.8867
 -85.8874
 -85.8871
 -85.887
 -85.8576
 -85.8578
 -85.8588
 -85.8583
 -85.8856
 -85.8856
 -85.8855
 -85.8862
 -85.8544
 -85.8542
 -85.8544
 -85.8534
 -85.8847
 -85.8852
 -85.8855
 -85.8855
 -85.8701
 -85.8695
 -85.8694
 -85.8691
 -85.8796
 -85.8802
 -85.8805
 -85.8807
 -85.873
 -85.8725
 -85.8722
 -85.8719
 -85.8894
 -85.8883
 -85.8728
 -85.872
 -85.872
 -85.8727
 -85.8517
 -85.8514
 -85.8526
 -85.8514
 -85.8539
 -85.8534
 -85.855
 -85.8537
 -85.8729
 -85.8737
 -85.8738
 -85.8739
 -85.881
 -85.8811
 -85.8808
 -85.8819
 -85.8822
 -85.8816
 -85.8819
 -85.8826
 -85.8885
 -85.8876
 -85.8879
 -85.8874
 -85.8825
 -85.8835
 -85.883
 -85.8825
 -85.8539
 -85.8539
 -85.8545
 -85.8533
 -85.8586
 -85.8586
 -85.8584
 -85.8598
 -85.8925
 -85.8922
 -85.892
 -85.892
 -85.8746
 -85.8749
 -85.8748
 -85.8761
 -85.8598
 -85.8609
 -85.8598
 -85.8607
 -85.8408
 -85.8406
 -85.8419
 -85.8403
 -85.8864
 -85.8868
 -85.886
 -85.8875
 -85.8609
 -85.8609
 -85.8612
 -85.8618
 -85.8668
 -85.8677
 -85.8663
 -85.867
 -85.8541
 -85.8538
 -85.854
 -85.8546
 -85.8772
 -85.8767
 -85.8771
 -85.8772
 -85.8885
 -85.8886
 -85.8883
 -85.8885
 -85.8754
 -85.8742
 -85.8746
 -85.8744
 -85.8682
 -85.8683
 -85.8694
 -85.8689
 -85.8524
 -85.8529
 -85.8533
 -85.8518
 -85.8883
 -85.8787
 -85.8793
 -85.8783
 -85.8792
 -85.8666
 -85.8662
 -85.8654
 -85.8656
 -85.8807
 -85.8813
 -85.8811
 -85.8818
 -85.8598
 -85.8593
 -85.8594
 -85.8603
 -85.877
 -85.8775
 -85.8765
 -85.8514
 -85.8527
 -85.8517
 -85.8515
 -85.8844
 -85.8829
 -85.8839
 -85.8834
 -85.8575
 -85.8573
 -85.8579
 -85.8575
 -85.894
 -85.8938
 -85.894
 -85.8943
 -85.861
 -85.8611
 -85.8613
 -85.8611
 -85.844
 -85.8463
 -85.846
 -85.8453
 -85.8505
 -85.8504
 -85.8514
 -85.8512
 -85.8925
 -85.8922
 -85.8919
 -85.8917
 -85.8898
 -85.8896
 -85.8901
 -85.8902
 -85.8706
 -85.8714
 -85.8711
 -85.8714
 -85.8619
 -85.8616
 -85.8623
 -85.8731
 -85.8731
 -85.8718
 -85.8724
 -85.8785
 -85.8781
 -85.8791
 -85.8791
 -85.8727
 -85.8745
 -85.8739
 -85.8737
 -85.8714
 -85.8718
 -85.8731
 -85.8724
 -85.8918
 -85.8913
 -85.8913
 -85.8911
 -85.859
 -85.8587
 -85.8598
 -85.859
 -85.8507
 -85.849
 -85.8492
 -85.8808
 -85.8801
 -85.8805
 -85.8801
 -85.8862
 -85.8869
 -85.8864
 -85.8862
 -85.8603
 -85.8601
 -85.8605
 -85.8593
 -85.8594
 -85.8598
 -85.8587
 -85.8874
 -85.8869
 -85.8877
 -85.8865
 -85.8693
 -85.8692
 -85.8699
 -85.8692
 -85.8595
 -85.8585
 -85.8593
 -85.8593
 -85.8666
 -85.8661
 -85.8662
 -85.8668
 -85.8845
 -85.8844
 -85.8837
 -85.8844
 -85.8599
 -85.8612
 -85.8593
 -85.8609
 -85.8675
 -85.8662
 -85.8666
 -85.867
 -85.8632
 -85.864
 -85.8634
 -85.8899
 -85.8897
 -85.8893
 -85.8894
 -85.8695
 -85.8697
 -85.869
 -85.87
 -85.8926
 -85.8924
 -85.8932
 -85.8725
 -85.8729
 -85.8727
 -85.8724
 -85.8524
 -85.8532
 -85.8519
 -85.8523
 -85.8755
 -85.8757
 -85.8763
 -85.877
 -85.8711
 -85.8722
 -85.8707
 -85.8608
 -85.861
 -85.8618
 -85.8612
 -85.8571
 -85.8573
 -85.8568
 -85.8575
 -85.8606
 -85.8611
 -85.8617
 -85.8605
 -85.8432
 -85.8434
 -85.8446
 -85.8447
 -85.865
 -85.8648
 -85.8643
 -85.8643
 -85.8633
 -85.8629
 -85.8642
 -85.8627
 -85.8877
 -85.8868
 -85.8869
 -85.8881
 -85.8559
 -85.8571
 -85.8567
 -85.8564
 -85.8779
 -85.8775
 -85.8781
 -85.8784
 -85.8904
 -85.8905
 -85.89
 -85.8897
 -85.8906
 -85.8898
 -85.8902
 -85.8905
 -85.8837
 -85.8843
 -85.8837
 -85.8841
 -85.8912
 -85.8918
 -85.8918
 -85.8906
 -85.8881
 -85.8883
 -85.8882
 -85.8927
 -85.8916
 -85.8919
 -85.8919
 -85.8541
 -85.8536
 -85.854
 -85.8533
 -85.8664
 -85.8656
 -85.8651
 -85.8657
 -85.8634
 -85.8645
 -85.8638
 -85.8646
 -85.865
 -85.8645
 -85.8644
 -85.8642
 -85.8891
 -85.8885
 -85.889
 -85.8892
 -85.8665
 -85.8665
 -85.8657
 -85.8653
 -85.8608
 -85.8597
 -85.8597
 -85.8605
 -85.8791
 -85.8788
 -85.8797
 -85.8786
 -85.8615
 -85.8625
 -85.8615
 -85.8621
 -85.8812
 -85.8806
 -85.8805
 -85.8728
 -85.8738
 -85.8738
 -85.887
 -85.8862
 -85.8865
 -85.8866
 -85.8667
 -85.8671
 -85.8664
 -85.8664
 -85.8772
 -85.8765
 -85.8767
 -85.8773
 -85.8646
 -85.8634
 -85.864
 -85.8648
 -85.8928
 -85.8924
 -85.8905
 -85.8903
 -85.89
 -85.8907
 -85.8529
 -85.8526
 -85.8527
 -85.8522
 -85.8776
 -85.8783
 -85.8785
 -85.879
 -85.8606
 -85.8617
 -85.8608
 -85.8602
 -85.8331
 -85.8314
 -85.833
 -85.8324
 -85.8615
 -85.8612
 -85.8606
 -85.8611
 -85.8808
 -85.8799
 -85.8807
 -85.8561
 -85.8559
 -85.857
 -85.857
 -85.89
 -85.8893
 -85.8902
 -85.8896
 -85.8617
 -85.8621
 -85.8617
 -85.8621
 -85.8771
 -85.8779
 -85.8774
 -85.8772
 -85.8528
 -85.8533
 -85.8522
 -85.8529
 -85.8402
 -85.8401
 -85.8407
 -85.841
 -85.8599
 -85.8606
 -85.8598
 -85.8597
 -85.8655
 -85.8652
 -85.8658
 -85.8738
 -85.8725
 -85.874
 -85.8734
 -85.8577
 -85.8577
 -85.8567
 -85.8813
 -85.881
 -85.8815
 -85.882
 -85.8838
 -85.885
 -85.8839
 -85.8849
 -85.88
 -85.8792
 -85.8799
 -85.88
 -85.8895
 -85.8879
 -85.8885
 -85.8888
 -85.883
 -85.8824
 -85.8828
 -85.8629
 -85.8635
 -85.8634
 -85.8638
 -85.882
 -85.8813
 -85.8787
 -85.8778
 -85.8775
 -85.8784
 -85.8806
 -85.8803
 -85.8804
 -85.881
 -85.8602
 -85.8606
 -85.8604
 -85.8595
 -85.8609
 -85.8615
 -85.8609
 -85.8616
 -85.8335
 -85.8342
 -85.8344
 -85.8339
 -85.8608
 -85.8615
 -85.8608
 -85.8631
 -85.8627
 -85.8625
 -85.8628
 -85.8707
 -85.8707
 -85.8702
 -85.87
 -85.8632
 -85.8642
 -85.8642
 -85.8636
 -85.853
 -85.8536
 -85.8529
 -85.8528
 -85.884
 -85.883
 -85.8839
 -85.8831
 -85.8702
 -85.8709
 -85.8701
 -85.8696
 -85.8892
 -85.8892
 -85.8889
 -85.8894
 -85.8747
 -85.8739
 -85.8747
 -85.8742
 -85.8886
 -85.8889
 -85.8886
 -85.842
 -85.843
 -85.8426
 -85.8428
 -85.8802
 -85.8814
 -85.8803
 -85.8805
 -85.8679
 -85.8671
 -85.868
 -85.8676
 -85.8587
 -85.8581
 -85.8643
 -85.8644
 -85.8649
 -85.8646
 -85.8674
 -85.8664
 -85.8667
 -85.8874
 -85.8876
 -85.8871
 -85.8875
 -85.8876
 -85.8872
 -85.8866
 -85.887
 -85.8589
 -85.8585
 -85.859
 -85.8587
 -85.8695
 -85.8691
 -85.8617
 -85.8626
 -85.862
 -85.8612
 -85.8822
 -85.8817
 -85.8829
 -85.8829
 -85.8521
 -85.8521
 -85.852
 -85.8524
 -85.8599
 -85.8602
 -85.8595
 -85.8594
 -85.8616
 -85.8624
 -85.8629
 -85.8624
 -85.8723
 -85.8721
 -85.8723
 -85.8735
 -85.8815
 -85.8813
 -85.8808
 -85.8808
 -85.8829
 -85.8822
 -85.8816
 -85.8824
 -85.8375
 -85.8373
 -85.837
 -85.8366
 -85.8563
 -85.8571
 -85.8575
 -85.874
 -85.8725
 -85.8733
 -85.875
 -85.8759
 -85.875
 -85.876
 -85.8887
 -85.8891
 -85.8888
 -85.8894
 -85.8693
 -85.8611
 -85.861
 -85.86
 -85.8604
 -85.8778
 -85.8772
 -85.8765
 -85.8769
 -85.8836
 -85.8827
 -85.8829
 -85.8838
 -85.8864
 -85.8865
 -85.8589
 -85.8585
 -85.8582
 -85.858
 -85.8711
 -85.8718
 -85.8715
 -85.872
 -85.8566
 -85.8563
 -85.8565
 -85.8568
 -85.8753
 -85.8654
 -85.8647
 -85.8663
 -85.8667
 -85.8636
 -85.8642
 -85.8646
 -85.8641
 -85.889
 -85.8881
 -85.8902
 -85.8906
 -85.8907
 -85.8904
 -85.8468
 -85.8462
 -85.8465
 -85.8469
 -85.8827
 -85.8829
 -85.8819
 -85.8832
 -85.8754
 -85.8743
 -85.8746
 -85.8755
 -85.8394
 -85.8397
 -85.8397
 -85.8391
 -85.8707
 -85.8708
 -85.8712
 -85.8703
 -85.8701
 -85.8691
 -85.8685
 -85.8687
 -85.858
 -85.857
 -85.8582
 -85.8578
 -85.8923
 -85.8927
 -85.8928
 -85.8928
 -85.869
 -85.868
 -85.8682
 -85.8624
 -85.8634
 -85.8633
 -85.8625
 -85.8908
 -85.8917
 -85.8911
 -85.8913
 -85.8624
 -85.8618
 -85.8611
 -85.8627
 -85.8676
 -85.8683
 -85.8848
 -85.8849
 -85.8855
 -85.8842
 -85.8738
 -85.8739
 -85.8749
 -85.8748
 -85.8898
 -85.8894
 -85.89
 -85.8897
 -85.8686
 -85.87
 -85.8603
 -85.8606
 -85.8608
 -85.8608
 -85.8625
 -85.8625
 -85.8631
 -85.8634
 -85.8858
 -85.8858
 -85.8849
 -85.8852
 -85.8836
 -85.8832
 -85.8838
 -85.8839
 -85.8822
 -85.8811
 -85.8822
 -85.8818
 -85.8633
 -85.8644
 -85.8639
 -85.8633
 -85.8469
 -85.8463
 -85.8467
 -85.8469
 -85.8909
 -85.8915
 -85.8909
 -85.8912
 -85.8576
 -85.8578
 -85.8579
 -85.8585
 -85.8731
 -85.8736
 -85.874
 -85.8731
 -85.8645
 -85.8661
 -85.865
 -85.8655
 -85.8729
 -85.8718
 -85.8727
 -85.877
 -85.8781
 -85.877
 -85.8781
 -85.8707
 -85.8715
 -85.871
 -85.8703
 -85.8804
 -85.8806
 -85.8813
 -85.8801
 -85.8802
 -85.88
 -85.8803
 -85.879
 -85.8391
 -85.8407
 -85.8392
 -85.853
 -85.8541
 -85.8544
 -85.854
 -85.8727
 -85.872
 -85.8723
 -85.8723
 -85.8852
 -85.8858
 -85.8854
 -85.8861
 -85.8606
 -85.8595
 -85.8605
 -85.8619
 -85.8624
 -85.8624
 -85.8759
 -85.8755
 -85.8762
 -85.8762
 -85.8725
 -85.8732
 -85.8736
 -85.8736
 -85.8946
 -85.8945
 -85.8943
 -85.8946
 -85.8505
 -85.8509
 -85.8502
 -85.8489
 -85.8817
 -85.8821
 -85.8658
 -85.867
 -85.8669
 -85.8661
 -85.8796
 -85.8801
 -85.88
 -85.8802
 -85.8746
 -85.8749
 -85.8755
 -85.875
 -85.8672
 -85.8671
 -85.868
 -85.8665
 -85.8786
 -85.8794
 -85.8791
 -85.8793
 -85.8589
 -85.8592
 -85.8592
 -85.8598
 -85.8557
 -85.855
 -85.8558
 -85.8555
 -85.8842
 -85.8845
 -85.8853
 -85.8862
 -85.8725
 -85.873
 -85.8737
 -85.8447
 -85.8444
 -85.8451
 -85.8862
 -85.8867
 -85.8868
 -85.887
 -85.8875
 -85.8872
 -85.8869
 -85.8867
 -85.8708
 -85.871
 -85.8714
 -85.8717
 -85.8888
 -85.8893
 -85.8892
 -85.8892
 -85.8896
 -85.8904
 -85.8897
 -85.8905
 -85.8672
 -85.8676
 -85.8683
 -85.8674
 -85.8829
 -85.8833
 -85.8837
 -85.8836
 -85.8942
 -85.8943
 -85.894
 -85.8945
 -85.8828
 -85.8827
 -85.8823
 -85.8834
 -85.8733
 -85.8722
 -85.8727
 -85.8717
 -85.8856
 -85.8858
 -85.8852
 -85.885
 -85.8802
 -85.8799
 -85.8806
 -85.8761
 -85.8769
 -85.8478
 -85.8481
 -85.8476
 -85.8473
 -85.8756
 -85.8765
 -85.8762
 -85.8762
 -85.8485
 -85.8487
 -85.8489
 -85.849
 -85.8484
 -85.8481
 -85.8495
 -85.8495
 -85.874
 -85.8745
 -85.8745
 -85.8738
 -85.8657
 -85.8658
 -85.865
 -85.8661
 -85.8772
 -85.8782
 -85.8779
 -85.8778
 -85.8718
 -85.8712
 -85.8545
 -85.854
 -85.8543
 -85.8549
 -85.8909
 -85.8912
 -85.8914
 -85.8911
 -85.8661
 -85.8656
 -85.867
 -85.8663
 -85.8854
 -85.8851
 -85.8845
 -85.8851
 -85.8546
 -85.8537
 -85.8545
 -85.8541
 -85.8878
 -85.8887
 -85.8885
 -85.8886
 -85.8758
 -85.8748
 -85.8756
 -85.8757
 -85.8611
 -85.86
 -85.8593
 -85.8599
 -85.8941
 -85.8939
 -85.8939
 -85.8936
 -85.8637
 -85.8646
 -85.8639
 -85.8638
 -85.8671
 -85.8659
 -85.8668
 -85.866
 -85.8914
 -85.8915
 -85.891
 -85.8917
 -85.8707
 -85.8694
 -85.8699
 -85.8699
 -85.886
 -85.8866
 -85.8861
 -85.8859
 -85.8852
 -85.8846
 -85.8848
 -85.868
 -85.8665
 -85.867
 -85.867
 -85.8852
 -85.8859
 -85.8854
 -85.8857
 -85.8583
 -85.8591
 -85.859
 -85.8582
 -85.8873
 -85.8878
 -85.8877
 -85.8875
 -85.8869
 -85.8867
 -85.8871
 -85.8868
 -85.8595
 -85.8592
 -85.8607
 -85.8599
 -85.8605
 -85.8603
 -85.8611
 -85.8599
 -85.8292
 -85.8294
 -85.8287
 -85.8289
 -85.8821
 -85.8812
 -85.8812
 -85.8487
 -85.85
 -85.8502
 -85.8494
 -85.8901
 -85.8894
 -85.8896
 -85.8897
 -85.8588
 -85.8858
 -85.885
 -85.8851
 -85.8857
 -85.8859
 -85.8851
 -85.8853
 -85.837
 -85.836
 -85.8364
 -85.8368
 -85.835
 -85.8353
 -85.835
 -85.8346
 -85.8895
 -85.8888
 -85.8893
 -85.8898
 -85.8605
 -85.8601
 -85.8608
 -85.8599
 -85.8798
 -85.8795
 -85.8804
 -85.8644
 -85.8637
 -85.8644
 -85.8633
 -85.868
 -85.868
 -85.8679
 -85.8855
 -85.8853
 -85.8863
 -85.8755
 -85.8763
 -85.8763
 -85.8756
 -85.8649
 -85.8638
 -85.8638
 -85.8646
 -85.8598
 -85.8602
 -85.8597
 -85.8601
 -85.8799
 -85.8805
 -85.8806
 -85.8534
 -85.8541
 -85.8525
 -85.8524
 -85.8598
 -85.8614
 -85.8601
 -85.8669
 -85.8685
 -85.8681
 -85.8676
 -85.8576
 -85.8585
 -85.8586
 -85.8582
 -85.86
 -85.861
 -85.8612
 -85.8609
 -85.886
 -85.8854
 -85.8855
 -85.8854
 -85.8691
 -85.8684
 -85.8688
 -85.8694
 -85.8625
 -85.8626
 -85.8731
 -85.8726
 -85.8729
 -85.872
 -85.8883
 -85.8903
 -85.8906
 -85.8905
 -85.8903
 -85.8278
 -85.8276
 -85.8275
 -85.8279
 -85.884
 -85.8849
 -85.8843
 -85.8926
 -85.8924
 -85.8922
 -85.8925
 -85.8824
 -85.8813
 -85.8817
 -85.8814
 -85.8594
 -85.8597
 -85.8602
 -85.8594
 -85.8683
 -85.8677
 -85.8674
 -85.8673
 -85.893
 -85.893
 -85.8928
 -85.8927
 -85.882
 -85.8814
 -85.8809
 -85.8815
 -85.8528
 -85.8521
 -85.852
 -85.8534
 -85.867
 -85.8671
 -85.8673
 -85.8658
 -85.8661
 -85.8665
 -85.867
 -85.8662
 -85.8278
 -85.8276
 -85.8276
 -85.8279
 -85.8582
 -85.858
 -85.8578
 -85.8585
 -85.8824
 -85.8834
 -85.8825
 -85.8829
 -85.8761
 -85.876
 -85.877
 -85.8758
 -85.8694
 -85.8699
 -85.8708
 -85.8699
 -85.8808
 -85.8817
 -85.8813
 -85.8814
 -85.8762
 -85.8764
 -85.8771
 -85.8762
 -85.8811
 -85.881
 -85.8805
 -85.8819
 -85.8941
 -85.8934
 -85.8936
 -85.8942
 -85.8837
 -85.8832
 -85.8831
 -85.8819
 -85.8802
 -85.8795
 -85.8792
 -85.8801
 -85.8792
 -85.8731
 -85.873
 -85.8724
 -85.874
 -85.8906
 -85.8903
 -85.8902
 -85.8902
 -85.8692
 -85.8686
 -85.8694
 -85.8691
 -85.8756
 -85.876
 -85.8764
 -85.875
 -85.8716
 -85.8705
 -85.8713
 -85.8721
 -85.8647
 -85.8632
 -85.8644
 -85.8635
 -85.8423
 -85.8428
 -85.8442
 -85.8424
 -85.8945
 -85.8939
 -85.8786
 -85.878
 -85.878
 -85.8314
 -85.8314
 -85.8314
 -85.8615
 -85.8607
 -85.8611
 -85.8603
 -85.8481
 -85.8484
 -85.8467
 -85.8466
 -85.8564
 -85.8559
 -85.8567
 -85.8552
 -85.8904
 -85.8894
 -85.8899
 -85.8899
 -85.8735
 -85.8725
 -85.8728
 -85.8724
 -85.8795
 -85.8806
 -85.8804
 -85.8812
 -85.8762
 -85.8762
 -85.8754
 -85.875
 -85.8814
 -85.8817
 -85.881
 -85.8812
 -85.8702
 -85.8701
 -85.8856
 -85.8839
 -85.8857
 -85.8842
 -85.8815
 -85.8809
 -85.8805
 -85.8819
 -85.8611
 -85.8601
 -85.8613
 -85.8603
 -85.8614
 -85.8616
 -85.8616
 -85.8618
 -85.8751
 -85.8752
 -85.8749
 -85.8755
 -85.8736
 -85.874
 -85.8746
 -85.8752
 -85.8567
 -85.8554
 -85.8552
 -85.8567
 -85.8805
 -85.88
 -85.8797
 -85.8795
 -85.8934
 -85.8931
 -85.8934
 -85.8932
 -85.8867
 -85.8863
 -85.8864
 -85.8861
 -85.8941
 -85.8944
 -85.894
 -85.8945
 -85.8878
 -85.8884
 -85.8882
 -85.8883
 -85.8727
 -85.8739
 -85.8727
 -85.873
 -85.8802
 -85.8795
 -85.8708
 -85.8718
 -85.8705
 -85.8712
 -85.8612
 -85.8619
 -85.862
 -85.8623
 -85.8836
 -85.8844
 -85.8844
 -85.8837
 -85.8704
 -85.87
 -85.8704
 -85.8694
 -85.8673
 -85.8665
 -85.8663
 -85.8667
 -85.8595
 -85.8596
 -85.8601
 -85.8606
 -85.8626
 -85.8623
 -85.862
 -85.8634
 -85.8595
 -85.86
 -85.8603
 -85.8597
 -85.844
 -85.8443
 -85.8436
 -85.8437
 -85.8826
 -85.8829
 -85.882
 -85.8827
 -85.879
 -85.8793
 -85.8455
 -85.8463
 -85.8461
 -85.8449
 -85.8642
 -85.8644
 -85.8781
 -85.8775
 -85.8781
 -85.8867
 -85.8867
 -85.8581
 -85.858
 -85.8577
 -85.8585
 -85.8454
 -85.8461
 -85.8461
 -85.8463
 -85.8559
 -85.8563
 -85.8569
 -85.8572
 -85.8639
 -85.8644
 -85.8648
 -85.865
 -85.8765
 -85.8754
 -85.8754
 -85.8755
 -85.8791
 -85.8787
 -85.8786
 -85.8784
 -85.8636
 -85.8646
 -85.8645
 -85.8644
 -85.8757
 -85.8756
 -85.876
 -85.8747
 -85.872
 -85.8714
 -85.8712
 -85.8717
 -85.8736
 -85.8743
 -85.8748
 -85.8743
 -85.8742
 -85.8731
 -85.8744
 -85.8706
 -85.87
 -85.8714
 -85.8708
 -85.8654
 -85.8658
 -85.8648
 -85.8652
 -85.8604
 -85.8611
 -85.86
 -85.861
 -85.8902
 -85.8901
 -85.8905
 -85.8908
 -85.8689
 -85.8689
 -85.8698
 -85.8698
 -85.8555
 -85.8553
 -85.8543
 -85.8552
 -85.8529
 -85.8529
 -85.8527
 -85.8524
 -85.857
 -85.8565
 -85.8565
 -85.8568
 -85.8593
 -85.8593
 -85.8603
 -85.8605
 -85.8602
 -85.8597
 -85.8594
 -85.8598
 -85.8894
 -85.8898
 -85.8898
 -85.8899
 -85.8676
 -85.8676
 -85.8674
 -85.8683
 -85.8821
 -85.8825
 -85.882
 -85.8816
 -85.8603
 -85.8613
 -85.8599
 -85.8609
 -85.8909
 -85.8913
 -85.8912
 -85.8917
 -85.8918
 -85.8918
 -85.8922
 -85.8809
 -85.8792
 -85.8797
 -85.8799
 -85.8622
 -85.8626
 -85.8617
 -85.8623
 -85.8932
 -85.8926
 -85.8927
 -85.8667
 -85.8659
 -85.8664
 -85.8651
 -85.8877
 -85.8878
 -85.8865
 -85.8868
 -85.8875
 -85.8866
 -85.8651
 -85.8644
 -85.8647
 -85.8533
 -85.8536
 -85.8525
 -85.853
 -85.8598
 -85.8592
 -85.8601
 -85.8602
 -85.8721
 -85.8731
 -85.8719
 -85.891
 -85.8899
 -85.8901
 -85.8812
 -85.8804
 -85.88
 -85.8806
 -85.8913
 -85.8913
 -85.8904
 -85.8919
 -85.8679
 -85.8688
 -85.8693
 -85.8686
 -85.8875
 -85.8877
 -85.8881
 -85.887
 -85.8725
 -85.8727
 -85.872
 -85.8717
 -85.8629
 -85.862
 -85.8625
 -85.8927
 -85.8921
 -85.8924
 -85.8931
 -85.8792
 -85.8759
 -85.877
 -85.8767
 -85.8762
 -85.8769
 -85.8769
 -85.8763
 -85.8621
 -85.8617
 -85.8616
 -85.8616
 -85.8615
 -85.8626
 -85.8686
 -85.8676
 -85.8674
 -85.8672
 -85.8673
 -85.8684
 -85.8675
 -85.8682
 -85.8807
 -85.8934
 -85.8926
 -85.8925
 -85.8931
 -85.8392
 -85.838
 -85.8389
 -85.8389
 -85.8646
 -85.8639
 -85.8623
 -85.862
 -85.8624
 -85.8626
 -85.8615
 -85.8616
 -85.8605
 -85.8609
 -85.8819
 -85.881
 -85.8812
 -85.8816
 -85.8828
 -85.8833
 -85.8822
 -85.8829
 -85.8628
 -85.862
 -85.8797
 -85.8796
 -85.8808
 -85.8801
 -85.8807
 -85.8815
 -85.8807
 -85.8747
 -85.8741
 -85.8736
 -85.8733
 -85.8691
 -85.8682
 -85.8689
 -85.8682
 -85.8822
 -85.8833
 -85.8831
 -85.8824
 -85.885
 -85.8852
 -85.8857
 -85.8851
 -85.8833
 -85.8842
 -85.8834
 -85.8827
 -85.883
 -85.8829
 -85.8821
 -85.8685
 -85.8688
 -85.8687
 -85.8681
 -85.8502
 -85.8502
 -85.8508
 -85.8508
 -85.8659
 -85.8656
 -85.8652
 -85.8655
 -85.8847
 -85.884
 -85.8836
 -85.8843
 -85.8794
 -85.8792
 -85.8791
 -85.88
 -85.8656
 -85.8662
 -85.8665
 -85.8667
 -85.8795
 -85.8786
 -85.8792
 -85.8794
 -85.8742
 -85.8745
 -85.873
 -85.8744
 -85.8746
 -85.8756
 -85.8753
 -85.8754
 -85.8793
 -85.8797
 -85.8798
 -85.8902
 -85.8903
 -85.89
 -85.8901
 -85.8655
 -85.8664
 -85.8659
 -85.8661
 -85.8712
 -85.8722
 -85.872
 -85.8717
 -85.8503
 -85.8496
 -85.8497
 -85.8507
 -85.8593
 -85.86
 -85.8599
 -85.8593
 -85.8606
 -85.8591
 -85.8598
 -85.859
 -85.8592
 -85.8596
 -85.8595
 -85.8599
 -85.8738
 -85.8733
 -85.8735
 -85.8561
 -85.856
 -85.8564
 -85.8565
 -85.8575
 -85.8579
 -85.8586
 -85.8574
 -85.8926
 -85.8922
 -85.8921
 -85.8923
 -85.8745
 -85.8739
 -85.8738
 -85.8733
 -85.8856
 -85.8856
 -85.8853
 -85.8848
 -85.8762
 -85.8767
 -85.876
 -85.8754
 -85.879
 -85.8797
 -85.8791
 -85.8793
 -85.8617
 -85.8609
 -85.8614
 -85.8602
 -85.8712
 -85.8729
 -85.8717
 -85.8718
 -85.8852
 -85.8857
 -85.8849
 -85.8852
 -85.877
 -85.8767
 -85.8778
 -85.8775
 -85.858
 -85.8576
 -85.8588
 -85.859
 -85.8902
 -85.8905
 -85.8902
 -85.8905
 -85.866
 -85.8652
 -85.8573
 -85.8715
 -85.8719
 -85.8724
 -85.8712
 -85.8689
 -85.8696
 -85.8686
 -85.8686
 -85.8469
 -85.8467
 -85.8479
 -85.8646
 -85.8638
 -85.8636
 -85.8631
 -85.8763
 -85.8778
 -85.8773
 -85.878
 -85.8722
 -85.873
 -85.8725
 -85.8723
 -85.8887
 -85.889
 -85.8891
 -85.8888
 -85.86
 -85.8613
 -85.8604
 -85.8612
 -85.8611
 -85.8609
 -85.8621
 -85.8479
 -85.8465
 -85.8471
 -85.8479
 -85.8595
 -85.8605
 -85.8599
 -85.8756
 -85.8774
 -85.8759
 -85.8593
 -85.8592
 -85.8585
 -85.8589
 -85.8689
 -85.8699
 -85.8701
 -85.8699
 -85.8279
 -85.8279
 -85.8279
 -85.8285
 -85.8681
 -85.8677
 -85.8679
 -85.8553
 -85.8551
 -85.8553
 -85.8554
 -85.8679
 -85.8675
 -85.8666
 -85.8674
 -85.8586
 -85.8594
 -85.8593
 -85.8597
 -85.8799
 -85.8802
 -85.8797
 -85.8804
 -85.8823
 -85.8817
 -85.8823
 -85.8826
 -85.8918
 -85.8919
 -85.8921
 -85.8915
 -85.875
 -85.8738
 -85.8748
 -85.8752
 -85.8582
 -85.8575
 -85.8581
 -85.8577
 -85.8622
 -85.8617
 -85.852
 -85.8519
 -85.8524
 -85.8523
 -85.87
 -85.8704
 -85.8646
 -85.866
 -85.8657
 -85.8612
 -85.8617
 -85.8621
 -85.8615
 -85.8899
 -85.8901
 -85.8891
 -85.8893
 -85.8892
 -85.889
 -85.8887
 -85.889
 -85.8617
 -85.8621
 -85.8616
 -85.8607
 -85.856
 -85.8563
 -85.8765
 -85.8766
 -85.8764
 -85.8773
 -85.8608
 -85.8604
 -85.8612
 -85.8611
 -85.8659
 -85.8647
 -85.8668
 -85.8943
 -85.8945
 -85.894
 -85.8722
 -85.8734
 -85.8728
 -85.8729
 -85.8871
 -85.8879
 -85.8869
 -85.8866
 -85.8736
 -85.8745
 -85.8746
 -85.8736
 -85.8819
 -85.8827
 -85.8828
 -85.8815
 -85.858
 -85.8587
 -85.8582
 -85.8578
 -85.8601
 -85.8613
 -85.8597
 -85.8609
 -85.8741
 -85.8732
 -85.8747
 -85.8736
 -85.865
 -85.8661
 -85.8664
 -85.8649
 -85.8574
 -85.8577
 -85.8581
 -85.8589
 -85.8691
 -85.8696
 -85.8701
 -85.8706
 -85.8784
 -85.8786
 -85.878
 -85.8735
 -85.8743
 -85.8738
 -85.8743
 -85.8329
 -85.8341
 -85.8344
 -85.8338
 -85.8563
 -85.8562
 -85.8564
 -85.8563
 -85.8645
 -85.8643
 -85.8645
 -85.8654
 -85.8448
 -85.8456
 -85.8442
 -85.8451
 -85.8869
 -85.8867
 -85.8862
 -85.8923
 -85.8919
 -85.8916
 -85.8919
 -85.8833
 -85.8847
 -85.884
 -85.8841
 -85.8732
 -85.8784
 -85.8794
 -85.8797
 -85.8791
 -85.8713
 -85.872
 -85.8708
 -85.8708
 -85.8554
 -85.8543
 -85.855
 -85.8609
 -85.8613
 -85.8615
 -85.8601
 -85.8335
 -85.8325
 -85.8335
 -85.832
 -85.8471
 -85.847
 -85.8476
 -85.847
 -85.8638
 -85.8638
 -85.8644
 -85.865
 -85.893
 -85.8923
 -85.8925
 -85.8923
 -85.8362
 -85.8362
 -85.8373
 -85.8368
 -85.881
 -85.8816
 -85.8804
 -85.8811
 -85.8735
 -85.8736
 -85.8745
 -85.8736
 -85.8618
 -85.8602
 -85.8601
 -85.8699
 -85.8689
 -85.8686
 -85.8686
 -85.8924
 -85.8925
 -85.8927
 -85.8562
 -85.8578
 -85.8581
 -85.8685
 -85.8691
 -85.8701
 -85.8699
 -85.8641
 -85.8639
 -85.8637
 -85.8634
 -85.8652
 -85.8651
 -85.8661
 -85.8663
 -85.8551
 -85.8545
 -85.8545
 -85.8556
 -85.87
 -85.8707
 -85.8696
 -85.8708
 -85.8902
 -85.889
 -85.8891
 -85.8886
 -85.8885
 -85.8883
 -85.888
 -85.8888
 -85.8535
 -85.8536
 -85.8538
 -85.8534
 -85.8863
 -85.8864
 -85.8864
 -85.8856
 -85.8894
 -85.8902
 -85.8899
 -85.8891
 -85.8858
 -85.8859
 -85.8849
 -85.8851
 -85.8785
 -85.8782
 -85.879
 -85.8786
 -85.8719
 -85.8713
 -85.8723
 -85.8639
 -85.8625
 -85.863
 -85.8632
 -85.8827
 -85.8822
 -85.8815
 -85.8824
 -85.8837
 -85.8839
 -85.8844
 -85.8842
 -85.8947
 -85.8946
 -85.8941
 -85.8943
 -85.8472
 -85.8479
 -85.8476
 -85.8478
 -85.8523
 -85.8519
 -85.8521
 -85.8525
 -85.8553
 -85.8551
 -85.8564
 -85.8551
 -85.8645
 -85.8633
 -85.8641
 -85.8641
 -85.8662
 -85.8664
 -85.8663
 -85.8899
 -85.8904
 -85.891
 -85.8907
 -85.8846
 -85.8843
 -85.8839
 -85.8838
 -85.8708
 -85.8701
 -85.8699
 -85.8705
 -85.8889
 -85.8894
 -85.8762
 -85.8763
 -85.8763
 -85.8754
 -85.8886
 -85.8889
 -85.8896
 -85.889
 -85.8746
 -85.8757
 -85.8743
 -85.8759
 -85.8636
 -85.8644
 -85.8628
 -85.8635
 -85.8515
 -85.8507
 -85.8514
 -85.8522
 -85.8324
 -85.8334
 -85.8319
 -85.8329
 -85.8874
 -85.8869
 -85.8869
 -85.8875
 -85.8887
 -85.8888
 -85.8889
 -85.8893
 -85.8678
 -85.8666
 -85.8675
 -85.8669
 -85.873
 -85.8725
 -85.8724
 -85.8731
 -85.8602
 -85.8594
 -85.8608
 -85.8768
 -85.8762
 -85.8763
 -85.8758
 -85.8604
 -85.8603
 -85.8608
 -85.8609
 -85.8715
 -85.8706
 -85.8699
 -85.8704
 -85.879
 -85.8785
 -85.8789
 -85.8791
 -85.8737
 -85.8734
 -85.873
 -85.8862
 -85.8854
 -85.8857
 -85.8857
 -85.8776
 -85.8787
 -85.8435
 -85.8449
 -85.8432
 -85.8439
 -85.8828
 -85.8823
 -85.8827
 -85.8617
 -85.862
 -85.8621
 -85.8616
 -85.8776
 -85.8776
 -85.8772
 -85.8713
 -85.8703
 -85.8715
 -85.8707
 -85.8771
 -85.8759
 -85.8775
 -85.8767
 -85.8775
 -85.8786
 -85.8382
 -85.8381
 -85.8375
 -85.8381
 -85.8338
 -85.8327
 -85.8321
 -85.8332
 -85.8722
 -85.8712
 -85.8716
 -85.8711
 -85.8767
 -85.8761
 -85.8766
 -85.8759
 -85.8385
 -85.8384
 -85.8386
 -85.8394
 -85.8615
 -85.8605
 -85.8542
 -85.8545
 -85.8548
 -85.8555
 -85.878
 -85.8778
 -85.8789
 -85.8783
 -85.8761
 -85.8762
 -85.8771
 -85.8757
 -85.8771
 -85.8762
 -85.876
 -85.8761
 -85.8643
 -85.8645
 -85.8651
 -85.8643
 -85.858
 -85.8575
 -85.8567
 -85.8581
 -85.8484
 -85.8495
 -85.8493
 -85.8483
 -85.8587
 -85.8587
 -85.8587
 -85.8601
 -85.8828
 -85.8822
 -85.8831
 -85.8827
 -85.8723
 -85.8701
 -85.8713
 -85.846
 -85.8467
 -85.8474
 -85.8798
 -85.881
 -85.8804
 -85.8804
 -85.8805
 -85.8791
 -85.8798
 -85.8802
 -85.868
 -85.8673
 -85.867
 -85.8695
 -85.8699
 -85.8708
 -85.8699
 -85.8584
 -85.858
 -85.8578
 -85.8578
 -85.8858
 -85.8856
 -85.8862
 -85.8859
 -85.8568
 -85.8566
 -85.8567
 -85.857
 -85.8554
 -85.855
 -85.8554
 -85.8919
 -85.8927
 -85.8931
 -85.8925
 -85.8853
 -85.8859
 -85.8629
 -85.8624
 -85.8633
 -85.8631
 -85.8715
 -85.8726
 -85.8716
 -85.8696
 -85.8692
 -85.8694
 -85.8684
 -85.8572
 -85.8581
 -85.8577
 -85.8851
 -85.8857
 -85.8847
 -85.8849
 -85.857
 -85.8584
 -85.8574
 -85.8572
 -85.8813
 -85.8806
 -85.8801
 -85.8804
 -85.8572
 -85.8575
 -85.8583
 -85.8573
 -85.858
 -85.8576
 -85.8619
 -85.8613
 -85.8616
 -85.8619
 -85.8475
 -85.8471
 -85.8461
 -85.847
 -85.8829
 -85.8838
 -85.8653
 -85.8658
 -85.866
 -85.8659
 -85.8919
 -85.8917
 -85.8919
 -85.8921
 -85.864
 -85.8633
 -85.8644
 -85.8652
 -85.8843
 -85.8851
 -85.8853
 -85.8852
 -85.8888
 -85.8896
 -85.8884
 -85.8893
 -85.8811
 -85.8801
 -85.8903
 -85.8908
 -85.8906
 -85.8904
 -85.8575
 -85.8575
 -85.8572
 -85.8582
 -85.8903
 -85.8905
 -85.8906
 -85.8903
 -85.8926
 -85.8933
 -85.893
 -85.8926
 -85.8756
 -85.8756
 -85.8765
 -85.8762
 -85.8698
 -85.8693
 -85.8704
 -85.8709
 -85.8877
 -85.8868
 -85.8875
 -85.8878
 -85.8448
 -85.8459
 -85.8451
 -85.8446
 -85.8873
 -85.8882
 -85.865
 -85.8658
 -85.8658
 -85.8668
 -85.8873
 -85.8869
 -85.8863
 -85.8863
 -85.8586
 -85.8594
 -85.8593
 -85.8592
 -85.8664
 -85.8649
 -85.8654
 -85.8662
 -85.8591
 -85.8588
 -85.8602
 -85.8583
 -85.8578
 -85.8583
 -85.8576
 -85.8564
 -85.8571
 -85.8568
 -85.8572
 -85.8764
 -85.8757
 -85.8754
 -85.8865
 -85.8865
 -85.8872
 -85.8871
 -85.8742
 -85.8737
 -85.8732
 -85.8585
 -85.8579
 -85.8583
 -85.8715
 -85.8728
 -85.8716
 -85.8725
 -85.8777
 -85.8776
 -85.8777
 -85.8787
 -85.8687
 -85.8696
 -85.8698
 -85.8695
 -85.8681
 -85.8677
 -85.8674
 -85.8661
 -85.8655
 -85.8653
 -85.8666
 -85.8672
 -85.8677
 -85.8662
 -85.8869
 -85.8865
 -85.8869
 -85.8862
 -85.8797
 -85.8791
 -85.8797
 -85.88
 -85.87
 -85.8702
 -85.8697
 -85.8712
 -85.8565
 -85.8557
 -85.8563
 -85.8745
 -85.8739
 -85.8744
 -85.8746
 -85.8623
 -85.8611
 -85.8617
 -85.8611
 -85.8407
 -85.8411
 -85.8405
 -85.8402
 -85.8667
 -85.8661
 -85.8665
 -85.8664
 -85.8876
 -85.8875
 -85.8883
 -85.888
 -85.8657
 -85.8667
 -85.8661
 -85.8655
 -85.8572
 -85.8572
 -85.8575
 -85.8578
 -85.8579
 -85.8574
 -85.8576
 -85.8693
 -85.8695
 -85.8691
 -85.8783
 -85.8654
 -85.8638
 -85.8648
 -85.8647
 -85.889
 -85.8889
 -85.8893
 -85.8878
 -85.888
 -85.8883
 -85.8651
 -85.8661
 -85.8654
 -85.8659
 -85.8924
 -85.8927
 -85.8929
 -85.8929
 -85.8589
 -85.8759
 -85.8749
 -85.8755
 -85.8753
 -85.8586
 -85.8589
 -85.8588
 -85.8591
 -85.8886
 -85.8891
 -85.8881
 -85.8886
 -85.8789
 -85.8801
 -85.8797
 -85.8791
 -85.8836
 -85.8842
 -85.8831
 -85.8833
 -85.8564
 -85.8567
 -85.857
 -85.8565
 -85.8632
 -85.864
 -85.8631
 -85.8633
 -85.8745
 -85.8738
 -85.8745
 -85.8736
 -85.8637
 -85.8626
 -85.8641
 -85.8631
 -85.8783
 -85.8787
 -85.8795
 -85.8793
 -85.8593
 -85.8589
 -85.8598
 -85.8598
 -85.8624
 -85.8627
 -85.8635
 -85.8632
 -85.8759
 -85.876
 -85.876
 -85.8769
 -85.8886
 -85.8894
 -85.889
 -85.8895
 -85.8545
 -85.8549
 -85.8556
 -85.8554
 -85.8478
 -85.8464
 -85.8478
 -85.8476
 -85.8894
 -85.89
 -85.8897
 -85.8897
 -85.8493
 -85.8484
 -85.8492
 -85.8486
 -85.8483
 -85.8493
 -85.8718
 -85.8721
 -85.8714
 -85.871
 -85.863
 -85.8635
 -85.8635
 -85.8627
 -85.8946
 -85.8946
 -85.8946
 -85.8943
 -85.8885
 -85.8884
 -85.8893
 -85.8786
 -85.8785
 -85.8793
 -85.8783
 -85.858
 -85.8583
 -85.8574
 -85.8585
 -85.8623
 -85.8622
 -85.8619
 -85.8617
 -85.8623
 -85.8628
 -85.8789
 -85.8804
 -85.8799
 -85.8793
 -85.8773
 -85.8772
 -85.8764
 -85.8775
 -85.88
 -85.8798
 -85.879
 -85.8799
 -85.8923
 -85.8923
 -85.8914
 -85.8926
 -85.882
 -85.8819
 -85.8811
 -85.8666
 -85.8733
 -85.8729
 -85.8732
 -85.8725
 -85.8739
 -85.8728
 -85.8731
 -85.8737
 -85.886
 -85.8857
 -85.8856
 -85.8852
 -85.882
 -85.8814
 -85.8815
 -85.8822
 -85.8768
 -85.876
 -85.8759
 -85.8645
 -85.8637
 -85.8646
 -85.8632
 -85.873
 -85.8744
 -85.8736
 -85.8736
 -85.8662
 -85.8669
 -85.8658
 -85.8362
 -85.8361
 -85.8355
 -85.8367
 -85.8863
 -85.8875
 -85.887
 -85.8861
 -85.885
 -85.8864
 -85.8856
 -85.8375
 -85.8743
 -85.8744
 -85.8742
 -85.8752
 -85.8765
 -85.8767
 -85.8516
 -85.8517
 -85.8516
 -85.852
 -85.8554
 -85.8558
 -85.8569
 -85.8555
 -85.8606
 -85.8611
 -85.8608
 -85.861
 -85.8601
 -85.8606
 -85.8609
 -85.86
 -85.8599
 -85.8606
 -85.8665
 -85.8656
 -85.8653
 -85.8654
 -85.8675
 -85.8685
 -85.8947
 -85.8946
 -85.8574
 -85.859
 -85.8574
 -85.8583
 -85.8697
 -85.8694
 -85.8701
 -85.8689
 -85.8538
 -85.8542
 -85.8526
 -85.8529
 -85.8872
 -85.8876
 -85.8866
 -85.887
 -85.8846
 -85.8839
 -85.8845
 -85.8839
 -85.8783
 -85.879
 -85.8791
 -85.8786
 -85.8746
 -85.8748
 -85.8761
 -85.8757
 -85.8721
 -85.8717
 -85.8575
 -85.8811
 -85.8819
 -85.8819
 -85.882
 -85.8914
 -85.8912
 -85.892
 -85.891
 -85.8854
 -85.8863
 -85.8852
 -85.8856
 -85.828
 -85.828
 -85.8282
 -85.8285
 -85.8916
 -85.8918
 -85.8915
 -85.8916
 -85.8609
 -85.8609
 -85.8601
 -85.8613
 -85.8648
 -85.8637
 -85.8641
 -85.8633
 -85.8802
 -85.8804
 -85.8809
 -85.881
 -85.8807
 -85.8804
 -85.88
 -85.8802
 -85.8582
 -85.8594
 -85.8587
 -85.8591
 -85.8912
 -85.8914
 -85.8911
 -85.8913
 -85.8875
 -85.8879
 -85.8877
 -85.8881
 -85.8811
 -85.8812
 -85.8818
 -85.8819
 -85.8878
 -85.8872
 -85.8876
 -85.8878
 -85.8624
 -85.8634
 -85.8634
 -85.8637
 -85.8582
 -85.8584
 -85.8586
 -85.8589
 -85.8866
 -85.8861
 -85.8858
 -85.8859
 -85.8687
 -85.8684
 -85.8682
 -85.8673
 -85.8697
 -85.8693
 -85.8691
 -85.8696
 -85.8341
 -85.8347
 -85.835
 -85.8349
 -85.8912
 -85.8914
 -85.8885
 -85.8885
 -85.8881
 -85.889
 -85.8537
 -85.853
 -85.8527
 -85.8538
 -85.8634
 -85.8622
 -85.8621
 -85.8617
 -85.8877
 -85.8872
 -85.8882
 -85.8882
 -85.8676
 -85.8679
 -85.8674
 -85.8685
 -85.8656
 -85.8659
 -85.8648
 -85.8649
 -85.892
 -85.8922
 -85.8918
 -85.8918
 -85.874
 -85.8737
 -85.874
 -85.8743
 -85.8717
 -85.872
 -85.8718
 -85.8711
 -85.8839
 -85.8842
 -85.8845
 -85.8839
 -85.8788
 -85.8785
 -85.8782
 -85.8777
 -85.8678
 -85.8678
 -85.8667
 -85.8636
 -85.8644
 -85.8639
 -85.8653
 -85.8501
 -85.8495
 -85.8495
 -85.851
 -85.8647
 -85.8653
 -85.8655
 -85.8657
 -85.8731
 -85.8726
 -85.8729
 -85.8723
 -85.8916
 -85.8918
 -85.8917
 -85.8909
 -85.8653
 -85.8669
 -85.8661
 -85.8659
 -85.8538
 -85.8538
 -85.8529
 -85.8524
 -85.8805
 -85.8814
 -85.8809
 -85.8803
 -85.8771
 -85.8768
 -85.8764
 -85.873
 -85.8742
 -85.8745
 -85.8748
 -85.8487
 -85.8486
 -85.8487
 -85.8495
 -85.8746
 -85.8738
 -85.8741
 -85.8736
 -85.8908
 -85.8908
 -85.8909
 -85.8909
 -85.8736
 -85.8735
 -85.8739
 -85.8741
 -85.8559
 -85.8554
 -85.8558
 -85.856
 -85.8594
 -85.86
 -85.8593
 -85.8586
 -85.8948
 -85.8946
 -85.8948
 -85.8947
 -85.8623
 -85.8625
 -85.8624
 -85.861
 -85.8768
 -85.8756
 -85.8759
 -85.8764
 -85.8945
 -85.8947
 -85.8944
 -85.8942
 -85.8889
 -85.8898
 -85.8893
 -85.8807
 -85.8806
 -85.8817
 -85.882
 -85.8868
 -85.887
 -85.8878
 -85.8865
 -85.8408
 -85.8416
 -85.8422
 -85.842
 -85.8592
 -85.8603
 -85.8587
 -85.8903
 -85.891
 -85.8908
 -85.8909
 -85.8764
 -85.876
 -85.877
 -85.8757
 -85.8834
 -85.8832
 -85.8842
 -85.8826
 -85.855
 -85.8549
 -85.8541
 -85.8537
 -85.8673
 -85.8685
 -85.8672
 -85.868
 -85.8784
 -85.877
 -85.8775
 -85.8527
 -85.8529
 -85.8534
 -85.8533
 -85.859
 -85.857
 -85.8574
 -85.8571
 -85.866
 -85.8906
 -85.891
 -85.8906
 -85.8911
 -85.8423
 -85.8422
 -85.8414
 -85.8415
 -85.8835
 -85.8849
 -85.8843
 -85.8851
 -85.8774
 -85.8769
 -85.877
 -85.8761
 -85.8364
 -85.8855
 -85.885
 -85.8859
 -85.8903
 -85.8911
 -85.8905
 -85.8906
 -85.8702
 -85.8701
 -85.8716
 -85.8706
 -85.8796
 -85.8795
 -85.8802
 -85.8791
 -85.8608
 -85.86
 -85.8719
 -85.8715
 -85.8714
 -85.8723
 -85.8606
 -85.8599
 -85.8595
 -85.8602
 -85.8638
 -85.8634
 -85.8648
 -85.8648
 -85.8811
 -85.8805
 -85.8812
 -85.8813
 -85.8456
 -85.8454
 -85.8454
 -85.8466
 -85.8583
 -85.8579
 -85.8582
 -85.8577
 -85.8477
 -85.8484
 -85.8553
 -85.8554
 -85.8556
 -85.8554
 -85.8539
 -85.8533
 -85.8542
 -85.8534
 -85.8918
 -85.8914
 -85.891
 -85.8909
 -85.8757
 -85.8757
 -85.8753
 -85.8766
 -85.8669
 -85.8683
 -85.8676
 -85.8675
 -85.873
 -85.8726
 -85.8724
 -85.8733
 -85.8912
 -85.8911
 -85.8524
 -85.8519
 -85.852
 -85.8524
 -85.891
 -85.8912
 -85.8906
 -85.8437
 -85.8435
 -85.8437
 -85.8432
 -85.8895
 -85.8886
 -85.8892
 -85.8888
 -85.8644
 -85.8637
 -85.8646
 -85.8636
 -85.8696
 -85.8695
 -85.8692
 -85.8905
 -85.8901
 -85.8903
 -85.8906
 -85.8755
 -85.8746
 -85.8755
 -85.8749
 -85.8698
 -85.8703
 -85.8709
 -85.8702
 -85.8646
 -85.8642
 -85.8672
 -85.8654
 -85.8666
 -85.8661
 -85.8772
 -85.8762
 -85.8768
 -85.8918
 -85.8911
 -85.8909
 -85.8917
 -85.8692
 -85.8698
 -85.8691
 -85.8695
 -85.8674
 -85.8668
 -85.8631
 -85.8621
 -85.8619
 -85.8628
 -85.8459
 -85.8461
 -85.8471
 -85.8755
 -85.8758
 -85.8746
 -85.8746
 -85.8914
 -85.8915
 -85.8915
 -85.8476
 -85.8472
 -85.8476
 -85.8688
 -85.8681
 -85.8685
 -85.8677
 -85.8793
 -85.8794
 -85.8785
 -85.8788
 -85.8412
 -85.8406
 -85.8409
 -85.8412
 -85.8872
 -85.8874
 -85.8869
 -85.8868
 -85.8801
 -85.8795
 -85.8796
 -85.8792
 -85.8853
 -85.8855
 -85.885
 -85.8901
 -85.8903
 -85.8911
 -85.8905
 -85.8727
 -85.8716
 -85.8726
 -85.8727
 -85.8901
 -85.8899
 -85.8897
 -85.8895
 -85.8647
 -85.8645
 -85.8651
 -85.8641
 -85.8916
 -85.8783
 -85.8715
 -85.8712
 -85.872
 -85.8709
 -85.8772
 -85.8769
 -85.8763
 -85.8761
 -85.8823
 -85.8824
 -85.8818
 -85.8813
 -85.8777
 -85.8774
 -85.8783
 -85.8779
 -85.8831
 -85.8826
 -85.8833
 -85.8832
 -85.8715
 -85.8709
 -85.8711
 -85.872
 -85.8699
 -85.8701
 -85.8703
 -85.8707
 -85.8672
 -85.8669
 -85.8666
 -85.8677
 -85.8704
 -85.8703
 -85.8695
 -85.8572
 -85.8574
 -85.8571
 -85.8577
 -85.8726
 -85.8791
 -85.8801
 -85.8802
 -85.8798
 -85.8908
 -85.8908
 -85.89
 -85.8632
 -85.8617
 -85.8622
 -85.8618
 -85.8736
 -85.8747
 -85.8744
 -85.8775
 -85.8772
 -85.8768
 -85.8765
 -85.8795
 -85.88
 -85.8807
 -85.881
 -85.8883
 -85.8886
 -85.8892
 -85.8886
 -85.8602
 -85.8601
 -85.8606
 -85.8594
 -85.8737
 -85.8731
 -85.873
 -85.8725
 -85.8706
 -85.8702
 -85.8695
 -85.8706
 -85.8698
 -85.8693
 -85.8691
 -85.8685
 -85.8719
 -85.8716
 -85.8722
 -85.8711
 -85.882
 -85.8807
 -85.8823
 -85.8812
 -85.8697
 -85.8684
 -85.8689
 -85.8692
 -85.8521
 -85.8522
 -85.8521
 -85.8525
 -85.8494
 -85.8499
 -85.8496
 -85.8718
 -85.872
 -85.8726
 -85.8729
 -85.8722
 -85.8723
 -85.8728
 -85.8732
 -85.8702
 -85.8693
 -85.8708
 -85.8707
 -85.8898
 -85.8899
 -85.889
 -85.8891
 -85.8825
 -85.8818
 -85.8815
 -85.8823
 -85.8624
 -85.863
 -85.8628
 -85.8631
 -85.856
 -85.8572
 -85.857
 -85.8554
 -85.8879
 -85.8875
 -85.8871
 -85.8878
 -85.8431
 -85.8422
 -85.8425
 -85.8436
 -85.8654
 -85.8663
 -85.8658
 -85.8657
 -85.8546
 -85.8551
 -85.855
 -85.8594
 -85.86
 -85.8601
 -85.8608
 -85.881
 -85.8809
 -85.8815
 -85.8801
 -85.8593
 -85.8582
 -85.8585
 -85.859
 -85.8497
 -85.8518
 -85.8504
 -85.841
 -85.842
 -85.8426
 -85.842
 -85.8928
 -85.893
 -85.8931
 -85.8936
 -85.8615
 -85.8608
 -85.8613
 -85.8617
 -85.8759
 -85.8747
 -85.875
 -85.8756
 -85.8891
 -85.8888
 -85.8882
 -85.8887
 -85.8851
 -85.8859
 -85.8848
 -85.8851
 -85.8623
 -85.8625
 -85.8618
 -85.8622
 -85.8528
 -85.8517
 -85.8507
 -85.8519
 -85.8748
 -85.8753
 -85.8743
 -85.8748
 -85.8538
 -85.8548
 -85.8677
 -85.8661
 -85.8664
 -85.8673
 -85.8686
 -85.8685
 -85.8679
 -85.8689
 -85.8672
 -85.8673
 -85.8668
 -85.8566
 -85.8569
 -85.8566
 -85.8763
 -85.8764
 -85.8767
 -85.8769
 -85.8753
 -85.8751
 -85.8746
 -85.876
 -85.8621
 -85.8631
 -85.8626
 -85.8622
 -85.8828
 -85.8835
 -85.8825
 -85.8828
 -85.8714
 -85.8702
 -85.8708
 -85.8716
 -85.8565
 -85.8565
 -85.8563
 -85.8565
 -85.8661
 -85.8669
 -85.8662
 -85.8761
 -85.876
 -85.8753
 -85.8759
 -85.8727
 -85.8733
 -85.8737
 -85.8925
 -85.8924
 -85.8922
 -85.892
 -85.848
 -85.8475
 -85.8482
 -85.8466
 -85.8649
 -85.8658
 -85.8658
 -85.8651
 -85.8638
 -85.8635
 -85.8628
 -85.8638
 -85.8928
 -85.8927
 -85.8935
 -85.8939
 -85.8842
 -85.8847
 -85.8845
 -85.8598
 -85.8598
 -85.8592
 -85.8598
 -85.884
 -85.8831
 -85.8834
 -85.8615
 -85.8616
 -85.8609
 -85.8611
 -85.8322
 -85.8328
 -85.8324
 -85.8329
 -85.8896
 -85.8897
 -85.8902
 -85.8893
 -85.8567
 -85.8565
 -85.8561
 -85.8554
 -85.892
 -85.8918
 -85.8916
 -85.8918
 -85.859
 -85.86
 -85.8592
 -85.8597
 -85.833
 -85.8317
 -85.8327
 -85.8328
 -85.8511
 -85.8502
 -85.851
 -85.8513
 -85.8571
 -85.8578
 -85.8583
 -85.857
 -85.8709
 -85.8697
 -85.8558
 -85.856
 -85.8543
 -85.8546
 -85.877
 -85.8763
 -85.8761
 -85.8756
 -85.87
 -85.87
 -85.8696
 -85.8709
 -85.8889
 -85.8881
 -85.8893
 -85.8895
 -85.8872
 -85.8869
 -85.8875
 -85.8876
 -85.8854
 -85.8847
 -85.8853
 -85.8847
 -85.8883
 -85.8884
 -85.8886
 -85.8881
 -85.8794
 -85.8793
 -85.88
 -85.8794
 -85.8859
 -85.8866
 -85.8864
 -85.8862
 -85.849
 -85.8476
 -85.8475
 -85.8491
 -85.8877
 -85.8881
 -85.8881
 -85.8879
 -85.8672
 -85.8664
 -85.8659
 -85.8663
 -85.8836
 -85.8824
 -85.8826
 -85.8874
 -85.888
 -85.8881
 -85.8877
 -85.8569
 -85.856
 -85.8559
 -85.8564
 -85.8514
 -85.8512
 -85.8507
 -85.8509
 -85.881
 -85.881
 -85.8804
 -85.8818
 -85.8679
 -85.8679
 -85.8676
 -85.867
 -85.8798
 -85.8794
 -85.8797
 -85.8795
 -85.8795
 -85.8795
 -85.8809
 -85.8659
 -85.8657
 -85.8649
 -85.8789
 -85.8793
 -85.874
 -85.8728
 -85.8917
 -85.8921
 -85.8921
 -85.8917
 -85.8727
 -85.873
 -85.8725
 -85.8736
 -85.8788
 -85.8785
 -85.8796
 -85.8785
 -85.876
 -85.8764
 -85.876
 -85.8767
 -85.8859
 -85.8842
 -85.8845
 -85.8839
 -85.8838
 -85.8688
 -85.869
 -85.8681
 -85.8681
 -85.855
 -85.855
 -85.855
 -85.8551
 -85.8789
 -85.8782
 -85.8791
 -85.8785
 -85.88
 -85.8795
 -85.8792
 -85.8802
 -85.8355
 -85.8363
 -85.8366
 -85.8371
 -85.8717
 -85.8725
 -85.872
 -85.8715
 -85.8706
 -85.8698
 -85.8695
 -85.8702
 -85.8785
 -85.8779
 -85.8578
 -85.8579
 -85.8583
 -85.8578
 -85.8643
 -85.8649
 -85.8647
 -85.8641
 -85.859
 -85.8586
 -85.8584
 -85.8585
 -85.8629
 -85.8635
 -85.8634
 -85.8627
 -85.8585
 -85.8584
 -85.8581
 -85.8587
 -85.8846
 -85.8841
 -85.8844
 -85.8849
 -85.8876
 -85.8874
 -85.8867
 -85.8872
 -85.8617
 -85.8613
 -85.8608
 -85.8617
 -85.8716
 -85.8709
 -85.8716
 -85.8711
 -85.8855
 -85.8847
 -85.8854
 -85.885
 -85.8684
 -85.8678
 -85.8678
 -85.869
 -85.8615
 -85.8623
 -85.853
 -85.8535
 -85.8537
 -85.8529
 -85.8702
 -85.8698
 -85.8692
 -85.8688
 -85.8857
 -85.8854
 -85.8854
 -85.8864
 -85.891
 -85.8905
 -85.8907
 -85.8912
 -85.838
 -85.8379
 -85.867
 -85.8679
 -85.8681
 -85.8685
 -85.8657
 -85.8643
 -85.8652
 -85.8652
 -85.8648
 -85.8646
 -85.8595
 -85.8599
 -85.8599
 -85.8601
 -85.8701
 -85.871
 -85.8714
 -85.849
 -85.8497
 -85.8497
 -85.8503
 -85.8878
 -85.8883
 -85.8872
 -85.8879
 -85.8909
 -85.8909
 -85.8908
 -85.8928
 -85.8925
 -85.8919
 -85.8923
 -85.8753
 -85.8766
 -85.8762
 -85.8763
 -85.8716
 -85.8728
 -85.8713
 -85.8723
 -85.8831
 -85.8842
 -85.8846
 -85.884
 -85.8781
 -85.8779
 -85.8788
 -85.878
 -85.8769
 -85.8777
 -85.8772
 -85.8733
 -85.8734
 -85.873
 -85.8742
 -85.8814
 -85.883
 -85.8824
 -85.8815
 -85.8685
 -85.8679
 -85.8684
 -85.8685
 -85.8723
 -85.872
 -85.8731
 -85.8718
 -85.8794
 -85.8792
 -85.8788
 -85.8795
 -85.8718
 -85.8712
 -85.871
 -85.8719
 -85.8334
 -85.833
 -85.8342
 -85.8341
 -85.8604
 -85.86
 -85.86
 -85.8595
 -85.8813
 -85.8812
 -85.8823
 -85.8824
 -85.859
 -85.8591
 -85.8578
 -85.8575
 -85.8565
 -85.8553
 -85.8565
 -85.8574
 -85.8861
 -85.8859
 -85.8864
 -85.8855
 -85.885
 -85.8841
 -85.8849
 -85.8847
 -85.8882
 -85.8875
 -85.888
 -85.8884
 -85.8823
 -85.8823
 -85.8831
 -85.8828
 -85.8669
 -85.8667
 -85.8661
 -85.8667
 -85.8605
 -85.8602
 -85.861
 -85.8601
 -85.8799
 -85.8785
 -85.8799
 -85.8788
 -85.8608
 -85.8611
 -85.8613
 -85.8612
 -85.8537
 -85.8539
 -85.8542
 -85.8545
 -85.871
 -85.8717
 -85.8711
 -85.8717
 -85.8651
 -85.8645
 -85.8639
 -85.8658
 -85.8662
 -85.8674
 -85.8665
 -85.8538
 -85.8533
 -85.8524
 -85.8532
 -85.8616
 -85.8614
 -85.8611
 -85.8612
 -85.8808
 -85.8813
 -85.8809
 -85.8811
 -85.8727
 -85.8736
 -85.8737
 -85.8932
 -85.8927
 -85.8927
 -85.893
 -85.8895
 -85.8901
 -85.8905
 -85.8899
 -85.8646
 -85.8653
 -85.8642
 -85.8653
 -85.8743
 -85.875
 -85.8549
 -85.8549
 -85.8537
 -85.8553
 -85.8728
 -85.8719
 -85.8715
 -85.8723
 -85.8879
 -85.8881
 -85.8874
 -85.888
 -85.8606
 -85.8608
 -85.8611
 -85.8676
 -85.8678
 -85.8681
 -85.8668
 -85.865
 -85.8662
 -85.8662
 -85.866
 -85.8711
 -85.8719
 -85.8721
 -85.871
 -85.8694
 -85.8699
 -85.8706
 -85.8698
 -85.8724
 -85.8729
 -85.8722
 -85.8732
 -85.8686
 -85.8693
 -85.884
 -85.8834
 -85.8846
 -85.8838
 -85.8691
 -85.8683
 -85.8686
 -85.8692
 -85.8768
 -85.8756
 -85.8762
 -85.8689
 -85.8698
 -85.8691
 -85.8697
 -85.8772
 -85.8767
 -85.8762
 -85.8768
 -85.8592
 -85.8584
 -85.859
 -85.8579
 -85.8689
 -85.8687
 -85.8698
 -85.8748
 -85.875
 -85.876
 -85.8743
 -85.8705
 -85.8703
 -85.8709
 -85.8589
 -85.8592
 -85.8584
 -85.8777
 -85.8776
 -85.8774
 -85.8766
 -85.871
 -85.8717
 -85.8718
 -85.839
 -85.8393
 -85.8396
 -85.838
 -85.8781
 -85.8774
 -85.877
 -85.8782
 -85.8658
 -85.8648
 -85.865
 -85.8646
 -85.8854
 -85.8853
 -85.8856
 -85.8859
 -85.887
 -85.8864
 -85.8874
 -85.8872
 -85.8563
 -85.8576
 -85.856
 -85.8562
 -85.8744
 -85.8737
 -85.8731
 -85.8628
 -85.8618
 -85.8625
 -85.8625
 -85.8867
 -85.8857
 -85.8863
 -85.8724
 -85.8732
 -85.8726
 -85.8734
 -85.8804
 -85.8808
 -85.8807
 -85.8805
 -85.889
 -85.8892
 -85.8895
 -85.8889
 -85.8294
 -85.8287
 -85.8289
 -85.8294
 -85.8626
 -85.8629
 -85.8634
 -85.8625
 -85.8737
 -85.8753
 -85.8747
 -85.8751
 -85.8522
 -85.8514
 -85.8511
 -85.871
 -85.8718
 -85.8717
 -85.8708
 -85.89
 -85.8789
 -85.8782
 -85.8772
 -85.8782
 -85.8862
 -85.8862
 -85.8863
 -85.8867
 -85.8831
 -85.8828
 -85.8826
 -85.8833
 -85.8743
 -85.874
 -85.8725
 -85.8715
 -85.8716
 -85.8715
 -85.8403
 -85.8413
 -85.8404
 -85.841
 -85.8643
 -85.8639
 -85.8635
 -85.8629
 -85.8628
 -85.8635
 -85.863
 -85.8904
 -85.8913
 -85.8905
 -85.8904
 -85.8711
 -85.8711
 -85.872
 -85.8721
 -85.874
 -85.8736
 -85.8729
 -85.8735
 -85.8871
 -85.8865
 -85.8875
 -85.8866
 -85.872
 -85.8717
 -85.8728
 -85.872
 -85.848
 -85.8483
 -85.8473
 -85.8476
 -85.8702
 -85.8699
 -85.8705
 -85.8701
 -85.8623
 -85.8624
 -85.8625
 -85.8631
 -85.8603
 -85.8596
 -85.8597
 -85.8601
 -85.855
 -85.8553
 -85.8549
 -85.8549
 -85.8461
 -85.8458
 -85.8455
 -85.8469
 -85.8924
 -85.892
 -85.8922
 -85.8921
 -85.8427
 -85.843
 -85.842
 -85.8435
 -85.8713
 -85.8706
 -85.8713
 -85.8705
 -85.8919
 -85.8919
 -85.8914
 -85.8916
 -85.8669
 -85.8666
 -85.8672
 -85.8674
 -85.8549
 -85.8886
 -85.8882
 -85.8884
 -85.8892
 -85.8587
 -85.8475
 -85.8488
 -85.8489
 -85.8477
 -85.8756
 -85.8767
 -85.8835
 -85.8825
 -85.8838
 -85.8828
 -85.8859
 -85.8859
 -85.8864
 -85.8862
 -85.8931
 -85.8926
 -85.8933
 -85.8839
 -85.8849
 -85.8847
 -85.8846
 -85.8671
 -85.891
 -85.8799
 -85.8797
 -85.8793
 -85.8909
 -85.8912
 -85.8914
 -85.891
 -85.8675
 -85.8674
 -85.8675
 -85.8668
 -85.862
 -85.8623
 -85.8615
 -85.8612
 -85.879
 -85.8784
 -85.8787
 -85.8799
 -85.8902
 -85.8906
 -85.8899
 -85.8898
 -85.8879
 -85.8877
 -85.888
 -85.8876
 -85.8766
 -85.8779
 -85.8778
 -85.8452
 -85.8445
 -85.8466
 -85.8452
 -85.8305
 -85.8316
 -85.8309
 -85.8315
 -85.8524
 -85.8512
 -85.8509
 -85.8517
 -85.8732
 -85.874
 -85.8731
 -85.8488
 -85.8497
 -85.8493
 -85.8487
 -85.8843
 -85.8841
 -85.885
 -85.885
 -85.8852
 -85.8847
 -85.885
 -85.8587
 -85.8584
 -85.8805
 -85.881
 -85.8947
 -85.8943
 -85.8946
 -85.8925
 -85.8928
 -85.8926
 -85.8929
 -85.8686
 -85.868
 -85.8692
 -85.8687
 -85.8639
 -85.8638
 -85.8633
 -85.8644
 -85.8705
 -85.8703
 -85.8713
 -85.871
 -85.8915
 -85.8915
 -85.8917
 -85.8915
 -85.8807
 -85.8811
 -85.8809
 -85.8803
 -85.8547
 -85.8546
 -85.8546
 -85.8552
 -85.8807
 -85.8811
 -85.8805
 -85.8813
 -85.8747
 -85.875
 -85.8741
 -85.8751
 -85.8793
 -85.8799
 -85.8798
 -85.8275
 -85.8278
 -85.8279
 -85.8635
 -85.8628
 -85.8676
 -85.8676
 -85.8669
 -85.8681
 -85.8832
 -85.884
 -85.8833
 -85.8832
 -85.8808
 -85.8811
 -85.8821
 -85.8815
 -85.8815
 -85.8811
 -85.8824
 -85.8403
 -85.8403
 -85.8543
 -85.8541
 -85.8547
 -85.8544
 -85.8748
 -85.8398
 -85.8387
 -85.8391
 -85.8392
 -85.862
 -85.863
 -85.8623
 -85.8621
 -85.8689
 -85.8685
 -85.8466
 -85.8484
 -85.8483
 -85.8474
 -85.8924
 -85.8931
 -85.8928
 -85.8925
 -85.8899
 -85.8902
 -85.8899
 -85.8907
 -85.8577
 -85.8594
 -85.8581
 -85.8589
 -85.8633
 -85.8627
 -85.8645
 -85.8642
 -85.8637
 -85.8633
 -85.8637
 -85.8822
 -85.8827
 -85.8816
 -85.8822
 -85.8546
 -85.8554
 -85.8558
 -85.8559
 -85.8706
 -85.8709
 -85.8705
 -85.878
 -85.8783
 -85.8786
 -85.8793
 -85.8632
 -85.8634
 -85.864
 -85.8636
 -85.8598
 -85.8606
 -85.8613
 -85.8603
 -85.8605
 -85.8599
 -85.8601
 -85.8608
 -85.8665
 -85.8669
 -85.8677
 -85.8669
 -85.8778
 -85.8773
 -85.8621
 -85.8623
 -85.8625
 -85.8618
 -85.8928
 -85.8918
 -85.8921
 -85.8921
 -85.8592
 -85.8597
 -85.8593
 -85.8598
 -85.8508
 -85.8504
 -85.8514
 -85.851
 -85.875
 -85.875
 -85.8441
 -85.8442
 -85.8434
 -85.8444
 -85.8649
 -85.8656
 -85.8645
 -85.8904
 -85.8903
 -85.8907
 -85.8907
 -85.8454
 -85.8449
 -85.8451
 -85.86
 -85.8599
 -85.8606
 -85.8603
 -85.8467
 -85.8591
 -85.8588
 -85.8589
 -85.8581
 -85.8719
 -85.8713
 -85.8721
 -85.8719
 -85.8677
 -85.8679
 -85.8684
 -85.8676
 -85.891
 -85.8917
 -85.8734
 -85.8739
 -85.8737
 -85.8734
 -85.8582
 -85.8569
 -85.8584
 -85.8569
 -85.8641
 -85.8658
 -85.8649
 -85.8643
 -85.8883
 -85.8879
 -85.8879
 -85.888
 -85.8681
 -85.8686
 -85.8694
 -85.8691
 -85.8751
 -85.8857
 -85.886
 -85.8853
 -85.8642
 -85.8645
 -85.8635
 -85.8647
 -85.8805
 -85.8802
 -85.8805
 -85.8797
 -85.8655
 -85.8647
 -85.8649
 -85.8658
 -85.8908
 -85.8903
 -85.89
 -85.8906
 -85.8943
 -85.8945
 -85.8941
 -85.8602
 -85.8607
 -85.8615
 -85.861
 -85.8771
 -85.8774
 -85.8764
 -85.8768
 -85.8797
 -85.88
 -85.8805
 -85.8808
 -85.8627
 -85.8628
 -85.8594
 -85.8589
 -85.8587
 -85.8597
 -85.8664
 -85.8679
 -85.8756
 -85.8759
 -85.8755
 -85.8752
 -85.8775
 -85.8778
 -85.8785
 -85.8774
 -85.8668
 -85.8674
 -85.8681
 -85.8676
 -85.8746
 -85.8747
 -85.8748
 -85.887
 -85.8862
 -85.8859
 -85.8864
 -85.8833
 -85.883
 -85.8834
 -85.867
 -85.8681
 -85.8667
 -85.8677
 -85.8604
 -85.8592
 -85.8587
 -85.8601
 -85.8801
 -85.8791
 -85.8791
 -85.8797
 -85.8682
 -85.868
 -85.8669
 -85.856
 -85.8559
 -85.856
 -85.8559
 -85.8632
 -85.8631
 -85.8635
 -85.8638
 -85.8845
 -85.8841
 -85.8836
 -85.893
 -85.8923
 -85.8925
 -85.8792
 -85.8797
 -85.8798
 -85.8631
 -85.8623
 -85.8634
 -85.8627
 -85.8927
 -85.8927
 -85.8927
 -85.893
 -85.8782
 -85.8777
 -85.8781
 -85.8787
 -85.8855
 -85.8858
 -85.8867
 -85.8866
 -85.8846
 -85.885
 -85.8846
 -85.8847
 -85.8501
 -85.849
 -85.8492
 -85.8664
 -85.8666
 -85.866
 -85.8667
 -85.8856
 -85.8859
 -85.8852
 -85.8853
 -85.8695
 -85.8699
 -85.8699
 -85.8708
 -85.8808
 -85.8809
 -85.8808
 -85.8799
 -85.8887
 -85.8892
 -85.8545
 -85.8551
 -85.855
 -85.8554
 -85.8827
 -85.8821
 -85.8833
 -85.8824
 -85.8669
 -85.8666
 -85.8662
 -85.8672
 -85.8796
 -85.8785
 -85.8918
 -85.8918
 -85.8912
 -85.892
 -85.8853
 -85.8863
 -85.885
 -85.8866
 -85.893
 -85.8931
 -85.8936
 -85.8938
 -85.8822
 -85.8822
 -85.8826
 -85.8796
 -85.8807
 -85.8805
 -85.8802
 -85.8803
 -85.8797
 -85.88
 -85.8792
 -85.8617
 -85.8619
 -85.8612
 -85.8609
 -85.8481
 -85.8477
 -85.8489
 -85.8713
 -85.8714
 -85.8715
 -85.8869
 -85.8862
 -85.8866
 -85.8859
 -85.8672
 -85.8678
 -85.8686
 -85.8678
 -85.8585
 -85.8573
 -85.8577
 -85.8586
 -85.872
 -85.8711
 -85.8706
 -85.8707
 -85.8651
 -85.8664
 -85.8652
 -85.892
 -85.8922
 -85.8915
 -85.8914
 -85.8553
 -85.8556
 -85.8583
 -85.8587
 -85.8588
 -85.8813
 -85.8815
 -85.8807
 -85.8821
 -85.8708
 -85.8719
 -85.8718
 -85.8715
 -85.8572
 -85.8574
 -85.858
 -85.8574
 -85.8741
 -85.8725
 -85.8727
 -85.8736
 -85.8646
 -85.864
 -85.8651
 -85.8652
 -85.8881
 -85.8884
 -85.8893
 -85.8633
 -85.8632
 -85.8639
 -85.8639
 -85.8739
 -85.8746
 -85.8566
 -85.8576
 -85.8573
 -85.8567
 -85.8579
 -85.8572
 -85.8576
 -85.8572
 -85.8887
 -85.8884
 -85.8596
 -85.8603
 -85.8599
 -85.8591
 -85.8723
 -85.8715
 -85.8719
 -85.8724
 -85.8659
 -85.8503
 -85.8494
 -85.8497
 -85.8751
 -85.8749
 -85.8751
 -85.8744
 -85.8894
 -85.8895
 -85.8891
 -85.8898
 -85.8502
 -85.8506
 -85.8507
 -85.8497
 -85.8587
 -85.8593
 -85.8585
 -85.8587
 -85.8791
 -85.8794
 -85.8795
 -85.8515
 -85.8514
 -85.8521
 -85.8523
 -85.8929
 -85.8924
 -85.8926
 -85.893
 -85.8544
 -85.855
 -85.8552
 -85.8541
 -85.8783
 -85.8774
 -85.878
 -85.8788
 -85.8664
 -85.8671
 -85.8668
 -85.8662
 -85.8573
 -85.8576
 -85.8573
 -85.8649
 -85.8658
 -85.8648
 -85.8656
 -85.8574
 -85.8566
 -85.8571
 -85.8571
 -85.8589
 -85.8583
 -85.8586
 -85.8832
 -85.8824
 -85.8834
 -85.8821
 -85.8814
 -85.8702
 -85.872
 -85.8708
 -85.8709
 -85.8904
 -85.8901
 -85.8897
 -85.8901
 -85.8754
 -85.8764
 -85.8749
 -85.8761
 -85.8779
 -85.8785
 -85.8779
 -85.8777
 -85.8585
 -85.8582
 -85.859
 -85.8596
 -85.8592
 -85.8778
 -85.8769
 -85.8774
 -85.8781
 -85.8899
 -85.8908
 -85.873
 -85.8734
 -85.8724
 -85.8735
 -85.8571
 -85.857
 -85.8575
 -85.8878
 -85.8883
 -85.8876
 -85.8879
 -85.8733
 -85.8721
 -85.8725
 -85.8728
 -85.8582
 -85.8578
 -85.8583
 -85.8585
 -85.8706
 -85.8705
 -85.8718
 -85.8709
 -85.8774
 -85.8789
 -85.8532
 -85.8528
 -85.853
 -85.8526
 -85.8588
 -85.8604
 -85.8609
 -85.8606
 -85.8613
 -85.861
 -85.8606
 -85.8595
 -85.8597
 -85.8604
 -85.8727
 -85.8725
 -85.8724
 -85.8763
 -85.8759
 -85.8755
 -85.8752
 -85.8615
 -85.8614
 -85.8616
 -85.8614
 -85.867
 -85.8667
 -85.8743
 -85.8738
 -85.8741
 -85.8735
 -85.8744
 -85.8744
 -85.8707
 -85.8715
 -85.8718
 -85.8708
 -85.8435
 -85.8449
 -85.8446
 -85.8451
 -85.874
 -85.8574
 -85.8581
 -85.8576
 -85.8575
 -85.892
 -85.8924
 -85.8919
 -85.8816
 -85.8814
 -85.8808
 -85.8817
 -85.8702
 -85.8706
 -85.8702
 -85.8689
 -85.8732
 -85.8739
 -85.8728
 -85.8599
 -85.8606
 -85.8603
 -85.8598
 -85.8883
 -85.8888
 -85.8877
 -85.8885
 -85.8785
 -85.8782
 -85.8789
 -85.8786
 -85.8883
 -85.8886
 -85.8875
 -85.8881
 -85.8544
 -85.8544
 -85.8538
 -85.8538
 -85.8613
 -85.862
 -85.883
 -85.8827
 -85.8823
 -85.8828
 -85.8898
 -85.8897
 -85.8899
 -85.8896
 -85.8942
 -85.8944
 -85.894
 -85.8946
 -85.889
 -85.8885
 -85.889
 -85.8778
 -85.8786
 -85.8776
 -85.8782
 -85.8894
 -85.8897
 -85.8898
 -85.8897
 -85.8549
 -85.8557
 -85.8563
 -85.8555
 -85.8858
 -85.8864
 -85.8865
 -85.8782
 -85.8779
 -85.8776
 -85.8776
 -85.8572
 -85.8569
 -85.8572
 -85.8567
 -85.8792
 -85.8801
 -85.8795
 -85.8796
 -85.8756
 -85.8762
 -85.8766
 -85.8756
 -85.8619
 -85.8623
 -85.863
 -85.8635
 -85.854
 -85.8541
 -85.8532
 -85.8532
 -85.868
 -85.8683
 -85.869
 -85.8682
 -85.8413
 -85.8414
 -85.8429
 -85.842
 -85.8583
 -85.8588
 -85.8581
 -85.8602
 -85.8593
 -85.8592
 -85.859
 -85.8369
 -85.8372
 -85.8362
 -85.8375
 -85.8878
 -85.8873
 -85.8874
 -85.8846
 -85.8848
 -85.8854
 -85.8853
 -85.8607
 -85.8622
 -85.8618
 -85.8486
 -85.8489
 -85.8484
 -85.8536
 -85.8529
 -85.8537
 -85.8538
 -85.8618
 -85.8617
 -85.8624
 -85.8611
 -85.8783
 -85.8796
 -85.879
 -85.8788
 -85.8438
 -85.8437
 -85.8443
 -85.8433
 -85.8764
 -85.8751
 -85.875
 -85.8762
 -85.8845
 -85.8848
 -85.8839
 -85.8844
 -85.8745
 -85.8745
 -85.8759
 -85.8753
 -85.8688
 -85.8681
 -85.8694
 -85.8578
 -85.8578
 -85.8578
 -85.8583
 -85.8887
 -85.8892
 -85.8894
 -85.8891
 -85.8858
 -85.8864
 -85.8858
 -85.8853
 -85.8617
 -85.8624
 -85.8619
 -85.8612
 -85.8901
 -85.8904
 -85.8907
 -85.8899
 -85.8908
 -85.8902
 -85.8902
 -85.8905
 -85.8906
 -85.89
 -85.8903
 -85.8464
 -85.8462
 -85.8372
 -85.8375
 -85.8369
 -85.8381
 -85.8769
 -85.8765
 -85.8759
 -85.8703
 -85.8698
 -85.8711
 -85.8699
 -85.8723
 -85.8733
 -85.873
 -85.8724
 -85.8283
 -85.8675
 -85.876
 -85.8769
 -85.8857
 -85.8862
 -85.886
 -85.8859
 -85.8485
 -85.8651
 -85.8659
 -85.8651
 -85.8948
 -85.8945
 -85.8946
 -85.8945
 -85.8726
 -85.8719
 -85.8726
 -85.8734
 -85.8907
 -85.8903
 -85.8908
 -85.8901
 -85.8686
 -85.8697
 -85.8678
 -85.866
 -85.8671
 -85.8664
 -85.8882
 -85.8883
 -85.8876
 -85.8883
 -85.8765
 -85.876
 -85.8754
 -85.875
 -85.8552
 -85.8546
 -85.8558
 -85.8556
 -85.885
 -85.8863
 -85.8858
 -85.8909
 -85.8917
 -85.8917
 -85.8909
 -85.8853
 -85.8851
 -85.8846
 -85.8851
 -85.861
 -85.8609
 -85.8625
 -85.8608
 -85.8631
 -85.8626
 -85.8627
 -85.8627
 -85.8882
 -85.8887
 -85.8887
 -85.8887
 -85.8673
 -85.8674
 -85.8665
 -85.8835
 -85.8836
 -85.8833
 -85.8828
 -85.8567
 -85.8575
 -85.8563
 -85.8564
 -85.8774
 -85.8778
 -85.8766
 -85.8771
 -85.8563
 -85.8569
 -85.8563
 -85.8563
 -85.874
 -85.8745
 -85.8737
 -85.8743
 -85.8843
 -85.8843
 -85.885
 -85.8838
 -85.8545
 -85.8542
 -85.8549
 -85.8728
 -85.8736
 -85.8869
 -85.8866
 -85.8864
 -85.886
 -85.8671
 -85.8666
 -85.8664
 -85.8553
 -85.8547
 -85.8544
 -85.8548
 -85.8798
 -85.8802
 -85.8798
 -85.8805
 -85.8775
 -85.8774
 -85.8787
 -85.8777
 -85.832
 -85.832
 -85.833
 -85.8324
 -85.8719
 -85.8709
 -85.8715
 -85.8406
 -85.8415
 -85.8418
 -85.8723
 -85.8721
 -85.8714
 -85.8721
 -85.8711
 -85.8541
 -85.8545
 -85.8529
 -85.8536
 -85.8689
 -85.8699
 -85.87
 -85.8859
 -85.8858
 -85.8859
 -85.8855
 -85.8697
 -85.8702
 -85.8707
 -85.8707
 -85.8711
 -85.8709
 -85.8708
 -85.8941
 -85.8939
 -85.8937
 -85.8933
 -85.8593
 -85.861
 -85.8606
 -85.8601
 -85.8528
 -85.8528
 -85.8533
 -85.8532
 -85.8656
 -85.8654
 -85.8666
 -85.8657
 -85.8874
 -85.8875
 -85.8878
 -85.8869
 -85.8314
 -85.8323
 -85.8314
 -85.8328
 -85.8835
 -85.8826
 -85.8831
 -85.8832
 -85.8526
 -85.8519
 -85.8525
 -85.8523
 -85.8858
 -85.8842
 -85.8847
 -85.8854
 -85.8828
 -85.8824
 -85.8819
 -85.8824
 -85.8837
 -85.884
 -85.8613
 -85.8607
 -85.8606
 -85.8612
 -85.8889
 -85.8889
 -85.8889
 -85.8822
 -85.8811
 -85.8815
 -85.8824
 -85.8601
 -85.8609
 -85.8603
 -85.8596
 -85.8648
 -85.8645
 -85.8655
 -85.8276
 -85.8276
 -85.8272
 -85.8275
 -85.8707
 -85.8697
 -85.871
 -85.889
 -85.8895
 -85.8889
 -85.8887
 -85.8841
 -85.8836
 -85.8878
 -85.8886
 -85.8889
 -85.8882
 -85.8807
 -85.8808
 -85.851
 -85.8512
 -85.8501
 -85.8518
 -85.8834
 -85.8834
 -85.8834
 -85.8826
 -85.8722
 -85.8727
 -85.8646
 -85.8652
 -85.8649
 -85.8646
 -85.8853
 -85.8857
 -85.8859
 -85.8857
 -85.8619
 -85.8603
 -85.8605
 -85.8616
 -85.8884
 -85.8884
 -85.8891
 -85.8899
 -85.8753
 -85.8755
 -85.8745
 -85.8508
 -85.8504
 -85.8502
 -85.8508
 -85.8782
 -85.8781
 -85.8778
 -85.8772
 -85.8593
 -85.8584
 -85.8583
 -85.8577
 -85.8603
 -85.8592
 -85.86
 -85.8305
 -85.8304
 -85.8305
 -85.831
 -85.854
 -85.8551
 -85.8554
 -85.8543
 -85.884
 -85.8836
 -85.8844
 -85.8836
 -85.8711
 -85.8715
 -85.8705
 -85.8658
 -85.8577
 -85.8582
 -85.8579
 -85.8583
 -85.8673
 -85.8665
 -85.8672
 -85.8676
 -85.8812
 -85.8824
 -85.8825
 -85.8814
 -85.8564
 -85.8564
 -85.8581
 -85.8489
 -85.875
 -85.8754
 -85.8744
 -85.8758
 -85.858
 -85.8591
 -85.8389
 -85.838
 -85.8575
 -85.8581
 -85.8575
 -85.8566
 -85.8811
 -85.8817
 -85.8868
 -85.8868
 -85.887
 -85.8867
 -85.8647
 -85.8655
 -85.8655
 -85.8655
 -85.8913
 -85.8915
 -85.8919
 -85.8915
 -85.8638
 -85.8641
 -85.8623
 -85.8623
 -85.8832
 -85.8834
 -85.8828
 -85.882
 -85.8603
 -85.8604
 -85.8608
 -85.8608
 -85.8831
 -85.8835
 -85.8825
 -85.8831
 -85.8675
 -85.8685
 -85.8896
 -85.8894
 -85.8802
 -85.8809
 -85.88
 -85.881
 -85.8797
 -85.8793
 -85.8795
 -85.8804
 -85.8738
 -85.8734
 -85.8742
 -85.874
 -85.883
 -85.8822
 -85.8833
 -85.8838
 -85.8599
 -85.8591
 -85.8596
 -85.8595
 -85.8892
 -85.8891
 -85.8889
 -85.8899
 -85.8903
 -85.8897
 -85.8901
 -85.8564
 -85.8573
 -85.8573
 -85.8569
 -85.8803
 -85.8794
 -85.8795
 -85.88
 -85.8552
 -85.8562
 -85.8562
 -85.8571
 -85.8731
 -85.8698
 -85.871
 -85.8711
 -85.8699
 -85.8855
 -85.8855
 -85.8854
 -85.8847
 -85.842
 -85.8412
 -85.8417
 -85.8427
 -85.8799
 -85.8804
 -85.881
 -85.8802
 -85.8718
 -85.8727
 -85.8709
 -85.8716
 -85.8821
 -85.8815
 -85.8814
 -85.8812
 -85.8784
 -85.894
 -85.8938
 -85.8932
 -85.8935
 -85.8838
 -85.884
 -85.883
 -85.8832
 -85.8384
 -85.8388
 -85.8396
 -85.8383
 -85.8676
 -85.8667
 -85.8662
 -85.867
 -85.8627
 -85.8725
 -85.8726
 -85.8728
 -85.8736
 -85.8883
 -85.8884
 -85.8877
 -85.8873
 -85.8859
 -85.8858
 -85.8867
 -85.8881
 -85.8869
 -85.8875
 -85.8872
 -85.8318
 -85.8321
 -85.883
 -85.8827
 -85.8826
 -85.8618
 -85.8618
 -85.8615
 -85.8625
 -85.8814
 -85.881
 -85.8814
 -85.8807
 -85.8738
 -85.8799
 -85.8791
 -85.88
 -85.8797
 -85.8896
 -85.8883
 -85.8887
 -85.8895
 -85.8796
 -85.8802
 -85.8811
 -85.8797
 -85.867
 -85.8674
 -85.866
 -85.8681
 -85.8571
 -85.8572
 -85.8568
 -85.8574
 -85.8933
 -85.8926
 -85.8933
 -85.8931
 -85.8815
 -85.8812
 -85.8817
 -85.8808
 -85.8927
 -85.8924
 -85.8926
 -85.893
 -85.8621
 -85.8607
 -85.8621
 -85.8623
 -85.8732
 -85.8727
 -85.8895
 -85.8904
 -85.8895
 -85.8899
 -85.8735
 -85.8737
 -85.8736
 -85.8745
 -85.8705
 -85.8713
 -85.8733
 -85.8736
 -85.8744
 -85.8733
 -85.8864
 -85.8864
 -85.8861
 -85.8869
 -85.8645
 -85.8634
 -85.8629
 -85.8639
 -85.8496
 -85.8504
 -85.8497
 -85.8497
 -85.8551
 -85.8547
 -85.8547
 -85.8546
 -85.8633
 -85.8639
 -85.864
 -85.8632
 -85.8679
 -85.8666
 -85.8675
 -85.8695
 -85.8682
 -85.8689
 -85.8692
 -85.8727
 -85.8722
 -85.8718
 -85.8726
 -85.8494
 -85.8493
 -85.8497
 -85.8664
 -85.8656
 -85.8668
 -85.8666
 -85.8741
 -85.8749
 -85.8749
 -85.8738
 -85.8608
 -85.8597
 -85.8611
 -85.8598
 -85.8639
 -85.8646
 -85.8645
 -85.8644
 -85.875
 -85.8749
 -85.8755
 -85.8762
 -85.8721
 -85.8713
 -85.872
 -85.8718
 -85.8804
 -85.8801
 -85.8803
 -85.88
 -85.8544
 -85.8546
 -85.8549
 -85.8851
 -85.8846
 -85.8856
 -85.8849
 -85.8609
 -85.8619
 -85.8611
 -85.8605
 -85.8681
 -85.8677
 -85.8672
 -85.8685
 -85.8697
 -85.8705
 -85.8707
 -85.8764
 -85.8764
 -85.8767
 -85.8773
 -85.8793
 -85.8794
 -85.88
 -85.8789
 -85.8802
 -85.8806
 -85.8811
 -85.8867
 -85.887
 -85.8871
 -85.8793
 -85.8788
 -85.8783
 -85.8787
 -85.8868
 -85.887
 -85.8862
 -85.889
 -85.889
 -85.8889
 -85.8883
 -85.8702
 -85.8684
 -85.8695
 -85.8689
 -85.8623
 -85.8617
 -85.8627
 -85.8619
 -85.8592
 -85.8867
 -85.8865
 -85.8876
 -85.8864
 -85.887
 -85.8856
 -85.8297
 -85.8293
 -85.8298
 -85.8303
 -85.8832
 -85.8825
 -85.868
 -85.8676
 -85.8686
 -85.8926
 -85.8931
 -85.8768
 -85.8757
 -85.876
 -85.8763
 -85.8673
 -85.8677
 -85.8678
 -85.8835
 -85.8849
 -85.8842
 -85.8846
 -85.8627
 -85.8631
 -85.8624
 -85.8635
 -85.836
 -85.8368
 -85.8366
 -85.8357
 -85.8758
 -85.876
 -85.8757
 -85.8767
 -85.8859
 -85.8873
 -85.8861
 -85.8845
 -85.8842
 -85.8846
 -85.884
 -85.8603
 -85.859
 -85.8591
 -85.8585
 -85.8614
 -85.8621
 -85.8565
 -85.8573
 -85.8562
 -85.8923
 -85.8918
 -85.8854
 -85.8845
 -85.8854
 -85.8845
 -85.8731
 -85.8742
 -85.8739
 -85.883
 -85.8821
 -85.8837
 -85.8835
 -85.8609
 -85.8593
 -85.8596
 -85.8604
 -85.8713
 -85.8711
 -85.8721
 -85.8723
 -85.871
 -85.8716
 -85.8719
 -85.8711
 -85.8589
 -85.8594
 -85.8588
 -85.8618
 -85.8612
 -85.8616
 -85.8615
 -85.8943
 -85.8946
 -85.8944
 -85.8949
 -85.8523
 -85.851
 -85.8885
 -85.889
 -85.8889
 -85.8885
 -85.8688
 -85.8697
 -85.8692
 -85.8688
 -85.8743
 -85.8749
 -85.8749
 -85.8751
 -85.855
 -85.8556
 -85.8721
 -85.8714
 -85.8714
 -85.8708
 -85.868
 -85.8677
 -85.8674
 -85.8683
 -85.8859
 -85.8858
 -85.8856
 -85.886
 -85.8698
 -85.8706
 -85.8707
 -85.8696
 -85.8624
 -85.8625
 -85.8776
 -85.8776
 -85.8771
 -85.8778
 -85.8813
 -85.8812
 -85.8818
 -85.8731
 -85.874
 -85.8737
 -85.8742
 -85.8582
 -85.8587
 -85.8579
 -85.8592
 -85.8353
 -85.8364
 -85.8361
 -85.8351
 -85.8705
 -85.8701
 -85.871
 -85.8719
 -85.875
 -85.876
 -85.8751
 -85.8751
 -85.8669
 -85.8675
 -85.8664
 -85.8666
 -85.8629
 -85.8624
 -85.8631
 -85.8635
 -85.8863
 -85.8869
 -85.8775
 -85.8771
 -85.8767
 -85.8441
 -85.8437
 -85.8431
 -85.8444
 -85.8596
 -85.8589
 -85.86
 -85.8584
 -85.8734
 -85.8736
 -85.8732
 -85.8727
 -85.8863
 -85.8865
 -85.8865
 -85.8688
 -85.8684
 -85.8673
 -85.8673
 -85.8617
 -85.8629
 -85.8624
 -85.8616
 -85.8822
 -85.8811
 -85.8811
 -85.8817
 -85.8763
 -85.876
 -85.8757
 -85.8757
 -85.8841
 -85.8842
 -85.8841
 -85.8837
 -85.8838
 -85.8839
 -85.8837
 -85.8659
 -85.8662
 -85.8654
 -85.865
 -85.8698
 -85.8694
 -85.8703
 -85.8374
 -85.8376
 -85.8375
 -85.8369
 -85.8623
 -85.8624
 -85.8516
 -85.851
 -85.852
 -85.8526
 -85.8588
 -85.8557
 -85.8875
 -85.8628
 -85.8619
 -85.8625
 -85.8615
 -85.8932
 -85.8775
 -85.8769
 -85.8774
 -85.8764
 -85.8624
 -85.8631
 -85.8626
 -85.8663
 -85.8672
 -85.8671
 -85.8848
 -85.8851
 -85.8841
 -85.885
 -85.8852
 -85.8847
 -85.8853
 -85.8847
 -85.857
 -85.8558
 -85.8558
 -85.8566
 -85.8904
 -85.8904
 -85.8909
 -85.89
 -85.8714
 -85.8706
 -85.8698
 -85.885
 -85.8854
 -85.8852
 -85.8746
 -85.8737
 -85.874
 -85.8747
 -85.8628
 -85.8634
 -85.8623
 -85.8625
 -85.8752
 -85.8764
 -85.8751
 -85.864
 -85.8645
 -85.8644
 -85.8635
 -85.8687
 -85.8699
 -85.8855
 -85.8861
 -85.8862
 -85.8868
 -85.8876
 -85.8884
 -85.8879
 -85.8877
 -85.8584
 -85.8593
 -85.8581
 -85.8591
 -85.8814
 -85.8803
 -85.8809
 -85.8816
 -85.8769
 -85.8755
 -85.8766
 -85.8773
 -85.8672
 -85.8663
 -85.8677
 -85.867
 -85.8865
 -85.8862
 -85.8859
 -85.8855
 -85.869
 -85.8681
 -85.8696
 -85.8691
 -85.8716
 -85.8711
 -85.871
 -85.8724
 -85.8687
 -85.8681
 -85.8689
 -85.869
 -85.8598
 -85.8608
 -85.8573
 -85.858
 -85.8586
 -85.8574
 -85.8497
 -85.8483
 -85.8495
 -85.8498
 -85.8772
 -85.8771
 -85.8768
 -85.8779
 -85.8754
 -85.8748
 -85.8746
 -85.8911
 -85.8913
 -85.8913
 -85.8913
 -85.8922
 -85.8926
 -85.8919
 -85.8885
 -85.8889
 -85.888
 -85.8747
 -85.8758
 -85.8763
 -85.875
 -85.8799
 -85.8803
 -85.8808
 -85.8794
 -85.8855
 -85.8861
 -85.8858
 -85.8863
 -85.8633
 -85.8624
 -85.8626
 -85.8632
 -85.8525
 -85.8533
 -85.8538
 -85.8538
 -85.8928
 -85.8929
 -85.8923
 -85.8934
 -85.8612
 -85.8608
 -85.8603
 -85.8613
 -85.8732
 -85.8731
 -85.8736
 -85.8729
 -85.8931
 -85.8931
 -85.8924
 -85.8936
 -85.8774
 -85.8765
 -85.8777
 -85.8774
 -85.8681
 -85.8677
 -85.8682
 -85.8678
 -85.8617
 -85.861
 -85.8612
 -85.8557
 -85.8567
 -85.856
 -85.8555
 -85.8589
 -85.8587
 -85.8591
 -85.8585
 -85.8578
 -85.8576
 -85.8604
 -85.861
 -85.8593
 -85.8837
 -85.8832
 -85.8831
 -85.883
 -85.8906
 -85.8903
 -85.8904
 -85.8903
 -85.8792
 -85.8788
 -85.8792
 -85.8781
 -85.8694
 -85.8869
 -85.8872
 -85.8871
 -85.8866
 -85.8563
 -85.8563
 -85.8562
 -85.8561
 -85.8912
 -85.8915
 -85.8911
 -85.8919
 -85.8652
 -85.8646
 -85.8659
 -85.8812
 -85.8557
 -85.8557
 -85.8549
 -85.8598
 -85.8592
 -85.8586
 -85.8601
 -85.8727
 -85.8727
 -85.8714
 -85.8724
 -85.8827
 -85.8827
 -85.8821
 -85.8833
 -85.8693
 -85.8811
 -85.8806
 -85.8806
 -85.8699
 -85.8698
 -85.8699
 -85.8709
 -85.8641
 -85.8644
 -85.8637
 -85.8636
 -85.8664
 -85.8653
 -85.8661
 -85.8663
 -85.8815
 -85.8609
 -85.8611
 -85.8615
 -85.8834
 -85.8829
 -85.8836
 -85.8831
 -85.8866
 -85.8864
 -85.8872
 -85.8861
 -85.8899
 -85.8903
 -85.8898
 -85.8637
 -85.8638
 -85.8632
 -85.8637
 -85.8536
 -85.8531
 -85.8537
 -85.8846
 -85.8846
 -85.8861
 -85.8859
 -85.8855
 -85.8855
 -85.8697
 -85.87
 -85.8705
 -85.8917
 -85.8916
 -85.8921
 -85.8915
 -85.8864
 -85.8862
 -85.8865
 -85.8867
 -85.8783
 -85.8783
 -85.8788
 -85.8791
 -85.8738
 -85.8741
 -85.8735
 -85.8728
 -85.8617
 -85.8616
 -85.8613
 -85.862
 -85.886
 -85.886
 -85.8856
 -85.8865
 -85.8643
 -85.8646
 -85.8634
 -85.8668
 -85.8676
 -85.8678
 -85.8679
 -85.8902
 -85.89
 -85.8909
 -85.8905
 -85.8807
 -85.8808
 -85.8806
 -85.8802
 -85.8921
 -85.8917
 -85.8912
 -85.8919
 -85.8658
 -85.8664
 -85.8668
 -85.8667
 -85.8734
 -85.8736
 -85.8727
 -85.8743
 -85.888
 -85.8878
 -85.8884
 -85.8881
 -85.8725
 -85.8732
 -85.8721
 -85.8723
 -85.8922
 -85.8927
 -85.8922
 -85.863
 -85.8626
 -85.8626
 -85.8627
 -85.8754
 -85.8754
 -85.8749
 -85.8745
 -85.8773
 -85.878
 -85.8773
 -85.8775
 -85.8712
 -85.8707
 -85.8721
 -85.871
 -85.8866
 -85.8867
 -85.8874
 -85.8868
 -85.8706
 -85.8696
 -85.8702
 -85.8699
 -85.8772
 -85.877
 -85.877
 -85.8766
 -85.8559
 -85.8559
 -85.8557
 -85.8559
 -85.8845
 -85.8846
 -85.884
 -85.8836
 -85.8548
 -85.8547
 -85.8548
 -85.8616
 -85.8611
 -85.8612
 -85.8617
 -85.8576
 -85.858
 -85.8598
 -85.8583
 -85.8821
 -85.882
 -85.8825
 -85.8829
 -85.8792
 -85.8802
 -85.8793
 -85.8796
 -85.8649
 -85.8641
 -85.8642
 -85.8636
 -85.8939
 -85.8936
 -85.8932
 -85.8378
 -85.8376
 -85.8769
 -85.8775
 -85.8764
 -85.877
 -85.8466
 -85.8455
 -85.8443
 -85.8453
 -85.8791
 -85.8794
 -85.8802
 -85.8797
 -85.8672
 -85.8647
 -85.8642
 -85.8641
 -85.8635
 -85.8831
 -85.8832
 -85.8835
 -85.8838
 -85.8884
 -85.888
 -85.8888
 -85.8882
 -85.8558
 -85.8558
 -85.881
 -85.8814
 -85.8826
 -85.8813
 -85.875
 -85.8734
 -85.8753
 -85.8744
 -85.8612
 -85.8612
 -85.8607
 -85.8624
 -85.8707
 -85.8697
 -85.8696
 -85.8707
 -85.8855
 -85.8846
 -85.8864
 -85.8909
 -85.8907
 -85.8907
 -85.8906
 -85.8929
 -85.8929
 -85.8931
 -85.8651
 -85.8646
 -85.8647
 -85.8654
 -85.8886
 -85.8883
 -85.8879
 -85.8879
 -85.8581
 -85.8574
 -85.8577
 -85.8578
 -85.879
 -85.8786
 -85.8791
 -85.8779
 -85.8749
 -85.876
 -85.8751
 -85.8752
 -85.8908
 -85.8908
 -85.8907
 -85.8912
 -85.8802
 -85.8805
 -85.8801
 -85.8795
 -85.8435
 -85.8429
 -85.8427
 -85.8435
 -85.8692
 -85.8677
 -85.869
 -85.8682
 -85.8649
 -85.8659
 -85.8661
 -85.8647
 -85.8826
 -85.8827
 -85.8821
 -85.8817
 -85.859
 -85.8584
 -85.8582
 -85.8582
 -85.8765
 -85.8759
 -85.8758
 -85.8768
 -85.8635
 -85.8631
 -85.8626
 -85.852
 -85.8515
 -85.8513
 -85.8512
 -85.8765
 -85.8773
 -85.8762
 -85.8783
 -85.8783
 -85.8779
 -85.861
 -85.8603
 -85.8596
 -85.8582
 -85.8581
 -85.8585
 -85.8588
 -85.8882
 -85.8287
 -85.8292
 -85.8291
 -85.8283
 -85.8865
 -85.886
 -85.887
 -85.8864
 -85.8558
 -85.8665
 -85.8663
 -85.8662
 -85.8672
 -85.8649
 -85.8642
 -85.8661
 -85.8597
 -85.8611
 -85.8604
 -85.86
 -85.8449
 -85.8447
 -85.8455
 -85.8439
 -85.8579
 -85.8585
 -85.8584
 -85.874
 -85.8736
 -85.8736
 -85.8651
 -85.8648
 -85.8944
 -85.8939
 -85.8938
 -85.8576
 -85.8585
 -85.8573
 -85.8656
 -85.8664
 -85.8667
 -85.8885
 -85.8892
 -85.8892
 -85.8832
 -85.8833
 -85.8839
 -85.8833
 -85.8612
 -85.8615
 -85.8619
 -85.8547
 -85.8538
 -85.8906
 -85.8902
 -85.891
 -85.8907
 -85.848
 -85.8484
 -85.847
 -85.8491
 -85.8574
 -85.8571
 -85.8352
 -85.8344
 -85.8405
 -85.8403
 -85.8407
 -85.8662
 -85.867
 -85.8659
 -85.89
 -85.8893
 -85.8889
 -85.8806
 -85.8806
 -85.8812
 -85.8622
 -85.8621
 -85.863
 -85.8635
 -85.8627
 -85.8877
 -85.8545
 -85.8544
 -85.8548
 -85.8548
 -85.8653
 -85.8669
 -85.8657
 -85.8659
 -85.8825
 -85.8825
 -85.883
 -85.8803
 -85.8804
 -85.8799
 -85.8801
 -85.8663
 -85.8659
 -85.8668
 -85.8676
 -85.8815
 -85.8817
 -85.8825
 -85.8824
 -85.8835
 -85.883
 -85.8835
 -85.8841
 -85.8714
 -85.8811
 -85.8815
 -85.8816
 -85.8819
 -85.8919
 -85.8922
 -85.8919
 -85.8916
 -85.8594
 -85.8579
 -85.8575
 -85.8586
 -85.8908
 -85.8913
 -85.8911
 -85.891
 -85.8341
 -85.8348
 -85.8339
 -85.8898
 -85.8894
 -85.8904
 -85.8902
 -85.8599
 -85.8598
 -85.8588
 -85.8589
 -85.885
 -85.8843
 -85.8849
 -85.8854
 -85.8576
 -85.8577
 -85.8558
 -85.8562
 -85.8919
 -85.8849
 -85.884
 -85.8845
 -85.8838
 -85.8882
 -85.8887
 -85.8886
 -85.8546
 -85.8551
 -85.8545
 -85.8542
 -85.8819
 -85.8814
 -85.8813
 -85.8808
 -85.8762
 -85.8772
 -85.8772
 -85.8768
 -85.8748
 -85.8752
 -85.8743
 -85.8741
 -85.8938
 -85.8932
 -85.8677
 -85.8678
 -85.8676
 -85.8663
 -85.8671
 -85.8675
 -85.8679
 -85.8815
 -85.8808
 -85.8821
 -85.8823
 -85.8807
 -85.8811
 -85.881
 -85.8817
 -85.8769
 -85.8772
 -85.8776
 -85.8766
 -85.8605
 -85.8605
 -85.8633
 -85.8628
 -85.8627
 -85.8658
 -85.8665
 -85.8665
 -85.8666
 -85.8525
 -85.8516
 -85.852
 -85.8519
 -85.8654
 -85.8646
 -85.8638
 -85.8447
 -85.8447
 -85.8457
 -85.8654
 -85.8654
 -85.8646
 -85.866
 -85.8601
 -85.8612
 -85.8596
 -85.8708
 -85.882
 -85.8816
 -85.8826
 -85.8677
 -85.8676
 -85.8682
 -85.8687
 -85.8571
 -85.8571
 -85.8592
 -85.8582
 -85.8721
 -85.8729
 -85.873
 -85.8731
 -85.8844
 -85.8839
 -85.8938
 -85.8935
 -85.8932
 -85.8938
 -85.8818
 -85.8819
 -85.8823
 -85.8812
 -85.8688
 -85.8687
 -85.8686
 -85.8692
 -85.8918
 -85.8919
 -85.8928
 -85.8914
 -85.8916
 -85.8917
 -85.8919
 -85.873
 -85.872
 -85.8715
 -85.8725
 -85.8569
 -85.8566
 -85.8572
 -85.8678
 -85.8678
 -85.8689
 -85.8678
 -85.8536
 -85.8525
 -85.8538
 -85.8524
 -85.8792
 -85.8792
 -85.8794
 -85.8774
 -85.856
 -85.8561
 -85.856
 -85.8562
 -85.8613
 -85.8618
 -85.862
 -85.8617
 -85.8901
 -85.8894
 -85.8904
 -85.8896
 -85.8726
 -85.8727
 -85.8719
 -85.8727
 -85.8652
 -85.8646
 -85.8654
 -85.8647
 -85.8829
 -85.883
 -85.8837
 -85.8849
 -85.8845
 -85.8843
 -85.8668
 -85.8679
 -85.8675
 -85.8688
 -85.8691
 -85.8698
 -85.8694
 -85.8694
 -85.8571
 -85.8576
 -85.8569
 -85.8661
 -85.8655
 -85.865
 -85.8312
 -85.8303
 -85.8311
 -85.8306
 -85.8619
 -85.8623
 -85.8544
 -85.8549
 -85.8545
 -85.8536
 -85.8752
 -85.8743
 -85.8751
 -85.8741
 -85.8452
 -85.8465
 -85.8469
 -85.8459
 -85.8594
 -85.8592
 -85.8584
 -85.88
 -85.8802
 -85.8801
 -85.8796
 -85.8588
 -85.8597
 -85.8585
 -85.8565
 -85.8566
 -85.8555
 -85.8559
 -85.8653
 -85.8648
 -85.8649
 -85.8659
 -85.8833
 -85.8851
 -85.8403
 -85.8408
 -85.8612
 -85.8606
 -85.8694
 -85.8685
 -85.8689
 -85.8687
 -85.8789
 -85.8797
 -85.879
 -85.8799
 -85.8708
 -85.8709
 -85.8714
 -85.8716
 -85.854
 -85.8524
 -85.8535
 -85.8532
 -85.8757
 -85.8748
 -85.8751
 -85.8571
 -85.8566
 -85.857
 -85.8569
 -85.8886
 -85.8884
 -85.8891
 -85.8881
 -85.8795
 -85.8795
 -85.8796
 -85.8787
 -85.858
 -85.8586
 -85.8577
 -85.8689
 -85.8678
 -85.8688
 -85.8692
 -85.8542
 -85.8539
 -85.8543
 -85.8588
 -85.8599
 -85.8596
 -85.859
 -85.8587
 -85.8586
 -85.8594
 -85.8588
 -85.8685
 -85.8677
 -85.8675
 -85.8671
 -85.8919
 -85.8916
 -85.8912
 -85.8914
 -85.877
 -85.8781
 -85.8776
 -85.8778
 -85.8679
 -85.8667
 -85.8675
 -85.8734
 -85.873
 -85.8729
 -85.8879
 -85.887
 -85.8879
 -85.8873
 -85.8771
 -85.8772
 -85.8765
 -85.8776
 -85.867
 -85.8679
 -85.868
 -85.8681
 -85.8524
 -85.8526
 -85.8578
 -85.8574
 -85.8582
 -85.8582
 -85.8375
 -85.8371
 -85.836
 -85.8373
 -85.8825
 -85.8826
 -85.8826
 -85.8822
 -85.8596
 -85.8587
 -85.859
 -85.8589
 -85.871
 -85.8703
 -85.8707
 -85.8697
 -85.8506
 -85.8501
 -85.8502
 -85.85
 -85.8739
 -85.8736
 -85.8732
 -85.8731
 -85.8687
 -85.8813
 -85.8811
 -85.8803
 -85.8805
 -85.8673
 -85.8661
 -85.8659
 -85.8669
 -85.8664
 -85.8669
 -85.8676
 -85.8672
 -85.8641
 -85.8632
 -85.8634
 -85.863
 -85.8575
 -85.8566
 -85.858
 -85.8854
 -85.8856
 -85.8858
 -85.8843
 -85.8665
 -85.8663
 -85.8662
 -85.8659
 -85.8846
 -85.8849
 -85.8855
 -85.8798
 -85.8791
 -85.8796
 -85.8794
 -85.8834
 -85.8846
 -85.884
 -85.8847
 -85.8553
 -85.8563
 -85.8552
 -85.8282
 -85.8286
 -85.8287
 -85.8803
 -85.8813
 -85.8811
 -85.874
 -85.8756
 -85.8749
 -85.8758
 -85.8651
 -85.8655
 -85.8659
 -85.865
 -85.8679
 -85.8682
 -85.867
 -85.8672
 -85.8425
 -85.8432
 -85.8415
 -85.8434
 -85.8711
 -85.8707
 -85.8706
 -85.8705
 -85.8763
 -85.8765
 -85.8771
 -85.8759
 -85.8596
 -85.8597
 -85.8618
 -85.8602
 -85.861
 -85.8611
 -85.8804
 -85.8797
 -85.8802
 -85.8801
 -85.8592
 -85.8599
 -85.8774
 -85.8769
 -85.8543
 -85.8301
 -85.8299
 -85.83
 -85.8307
 -85.8503
 -85.8513
 -85.8928
 -85.8934
 -85.8929
 -85.8526
 -85.8535
 -85.8543
 -85.8534
 -85.8815
 -85.8813
 -85.8612
 -85.861
 -85.8612
 -85.8612
 -85.864
 -85.8656
 -85.865
 -85.8814
 -85.8819
 -85.8815
 -85.8824
 -85.8778
 -85.8787
 -85.8779
 -85.8782
 -85.8862
 -85.8864
 -85.8872
 -85.868
 -85.8671
 -85.8681
 -85.8669
 -85.8709
 -85.8864
 -85.8854
 -85.8862
 -85.886
 -85.8548
 -85.8546
 -85.855
 -85.8554
 -85.873
 -85.8721
 -85.8728
 -85.872
 -85.8826
 -85.8816
 -85.8824
 -85.8817
 -85.8347
 -85.835
 -85.8354
 -85.8356
 -85.8581
 -85.8918
 -85.8659
 -85.8671
 -85.8662
 -85.8654
 -85.8725
 -85.8732
 -85.8721
 -85.8719
 -85.8599
 -85.8587
 -85.8594
 -85.8596
 -85.8741
 -85.8737
 -85.8741
 -85.8743
 -85.8574
 -85.8576
 -85.8583
 -85.8563
 -85.8569
 -85.8575
 -85.8569
 -85.8675
 -85.8684
 -85.8669
 -85.8677
 -85.8827
 -85.8832
 -85.8818
 -85.8938
 -85.8943
 -85.8939
 -85.8937
 -85.8421
 -85.8412
 -85.841
 -85.8701
 -85.8702
 -85.8683
 -85.8687
 -85.8677
 -85.8691
 -85.8895
 -85.8893
 -85.8894
 -85.8897
 -85.8803
 -85.8797
 -85.8801
 -85.8795
 -85.8574
 -85.8586
 -85.8578
 -85.8482
 -85.8671
 -85.8662
 -85.8665
 -85.8672
 -85.8692
 -85.8696
 -85.8694
 -85.8796
 -85.8792
 -85.8792
 -85.8799
 -85.8832
 -85.8821
 -85.8828
 -85.8824
 -85.8662
 -85.8656
 -85.8808
 -85.8807
 -85.8812
 -85.8818
 -85.8747
 -85.8744
 -85.8746
 -85.8754
 -85.8913
 -85.8915
 -85.8765
 -85.8757
 -85.8766
 -85.8761
 -85.8809
 -85.8812
 -85.8815
 -85.8818
 -85.8796
 -85.8801
 -85.8795
 -85.8796
 -85.8703
 -85.8707
 -85.8677
 -85.8682
 -85.8674
 -85.8669
 -85.8635
 -85.8628
 -85.8632
 -85.8633
 -85.8745
 -85.8752
 -85.8751
 -85.8746
 -85.8567
 -85.8574
 -85.8578
 -85.8582
 -85.8597
 -85.8595
 -85.8592
 -85.8595
 -85.8396
 -85.8401
 -85.8399
 -85.8389
 -85.8635
 -85.8621
 -85.8734
 -85.8721
 -85.8732
 -85.8727
 -85.866
 -85.8657
 -85.8664
 -85.8669
 -85.8719
 -85.8724
 -85.8728
 -85.8722
 -85.8683
 -85.8683
 -85.8811
 -85.8807
 -85.8926
 -85.8928
 -85.8928
 -85.893
 -85.8534
 -85.8678
 -85.8677
 -85.868
 -85.8686
 -85.8718
 -85.8708
 -85.8711
 -85.8711
 -85.8619
 -85.8613
 -85.8611
 -85.8603
 -85.8792
 -85.8782
 -85.8792
 -85.8783
 -85.8724
 -85.8717
 -85.8714
 -85.8723
 -85.8573
 -85.8571
 -85.8577
 -85.8566
 -85.8563
 -85.865
 -85.8662
 -85.8651
 -85.8659
 -85.8648
 -85.8662
 -85.8651
 -85.8646
 -85.8576
 -85.8576
 -85.8569
 -85.8576
 -85.8599
 -85.8602
 -85.8614
 -85.861
 -85.8684
 -85.8692
 -85.8679
 -85.8678
 -85.8577
 -85.8573
 -85.857
 -85.8572
 -85.8737
 -85.8741
 -85.8729
 -85.8621
 -85.8621
 -85.8619
 -85.8617
 -85.8464
 -85.8472
 -85.8733
 -85.8738
 -85.8741
 -85.8726
 -85.8737
 -85.8732
 -85.8737
 -85.8548
 -85.8554
 -85.8558
 -85.8524
 -85.8528
 -85.8528
 -85.8524
 -85.8771
 -85.877
 -85.8775
 -85.8766
 -85.8726
 -85.8714
 -85.8727
 -85.8843
 -85.8831
 -85.8836
 -85.8696
 -85.8689
 -85.869
 -85.8862
 -85.8863
 -85.8863
 -85.8371
 -85.8364
 -85.8366
 -85.8371
 -85.8913
 -85.8915
 -85.8912
 -85.8915
 -85.8634
 -85.8626
 -85.8747
 -85.8737
 -85.8572
 -85.8573
 -85.8572
 -85.858
 -85.876
 -85.8758
 -85.8768
 -85.8817
 -85.8823
 -85.8822
 -85.8824
 -85.886
 -85.885
 -85.8549
 -85.855
 -85.8547
 -85.8737
 -85.8735
 -85.8727
 -85.8609
 -85.86
 -85.861
 -85.855
 -85.855
 -85.8546
 -85.8543
 -85.8672
 -85.8674
 -85.8666
 -85.8677
 -85.866
 -85.865
 -85.8654
 -85.8658
 -85.8785
 -85.8782
 -85.8781
 -85.879
 -85.8814
 -85.881
 -85.8813
 -85.8805
 -85.8648
 -85.8646
 -85.8656
 -85.8771
 -85.8769
 -85.8764
 -85.88
 -85.8807
 -85.8802
 -85.8803
 -85.8946
 -85.8944
 -85.8947
 -85.8707
 -85.8705
 -85.8704
 -85.8793
 -85.8798
 -85.8787
 -85.8695
 -85.8701
 -85.869
 -85.8628
 -85.8618
 -85.8619
 -85.8551
 -85.8556
 -85.8554
 -85.8556
 -85.8697
 -85.8694
 -85.8704
 -85.8696
 -85.8609
 -85.8605
 -85.8597
 -85.8571
 -85.8579
 -85.8791
 -85.8785
 -85.8798
 -85.879
 -85.8791
 -85.8797
 -85.8789
 -85.8782
 -85.8578
 -85.8587
 -85.8591
 -85.8594
 -85.8573
 -85.8565
 -85.8569
 -85.8564
 -85.8496
 -85.8491
 -85.8496
 -85.8488
 -85.889
 -85.8893
 -85.8851
 -85.8843
 -85.8847
 -85.8852
 -85.8911
 -85.8623
 -85.8632
 -85.8621
 -85.8714
 -85.8717
 -85.871
 -85.8708
 -85.8579
 -85.8578
 -85.8688
 -85.8687
 -85.8694
 -85.854
 -85.8543
 -85.884
 -85.8841
 -85.8848
 -85.8835
 -85.8867
 -85.8866
 -85.8877
 -85.8872
 -85.8823
 -85.8826
 -85.8817
 -85.8633
 -85.8639
 -85.8638
 -85.886
 -85.886
 -85.8863
 -85.8865
 -85.8607
 -85.8595
 -85.8604
 -85.8609
 -85.8831
 -85.8826
 -85.8825
 -85.8831
 -85.861
 -85.8599
 -85.8596
 -85.8615
 -85.8556
 -85.8561
 -85.8552
 -85.8913
 -85.8922
 -85.8917
 -85.8915
 -85.8563
 -85.8567
 -85.8566
 -85.8671
 -85.8675
 -85.8682
 -85.8675
 -85.8898
 -85.8905
 -85.8902
 -85.8607
 -85.8599
 -85.8607
 -85.8601
 -85.8769
 -85.8885
 -85.8888
 -85.8875
 -85.8883
 -85.8539
 -85.8542
 -85.8546
 -85.8541
 -85.8796
 -85.8783
 -85.8792
 -85.8797
 -85.8709
 -85.8712
 -85.8699
 -85.8557
 -85.8551
 -85.8559
 -85.8539
 -85.8779
 -85.8777
 -85.8783
 -85.8598
 -85.8595
 -85.8382
 -85.8373
 -85.8384
 -85.8388
 -85.85
 -85.8481
 -85.8479
 -85.8864
 -85.8861
 -85.8879
 -85.8869
 -85.8868
 -85.8872
 -85.8516
 -85.8521
 -85.8509
 -85.8522
 -85.8659
 -85.8664
 -85.8664
 -85.8666
 -85.8687
 -85.8675
 -85.8676
 -85.868
 -85.8729
 -85.8726
 -85.8736
 -85.8727
 -85.8736
 -85.8721
 -85.8731
 -85.8724
 -85.8898
 -85.8572
 -85.8569
 -85.8572
 -85.857
 -85.8902
 -85.8899
 -85.8906
 -85.8744
 -85.8734
 -85.8731
 -85.8734
 -85.8551
 -85.856
 -85.8562
 -85.8721
 -85.8713
 -85.8719
 -85.8712
 -85.8698
 -85.8783
 -85.8786
 -85.8794
 -85.8791
 -85.8612
 -85.8612
 -85.8612
 -85.87
 -85.8716
 -85.8711
 -85.8904
 -85.89
 -85.8895
 -85.89
 -85.8691
 -85.8687
 -85.8685
 -85.8347
 -85.8352
 -85.8341
 -85.8691
 -85.8685
 -85.869
 -85.8677
 -85.8788
 -85.8796
 -85.8794
 -85.8707
 -85.8708
 -85.8863
 -85.8866
 -85.8859
 -85.886
 -85.8824
 -85.8831
 -85.8827
 -85.8826
 -85.8921
 -85.8919
 -85.8915
 -85.8913
 -85.8732
 -85.8716
 -85.8728
 -85.8732
 -85.8807
 -85.8804
 -85.8801
 -85.8797
 -85.8862
 -85.8868
 -85.8872
 -85.8602
 -85.8607
 -85.8593
 -85.8598
 -85.868
 -85.8689
 -85.8643
 -85.8637
 -85.8645
 -85.8641
 -85.8789
 -85.8787
 -85.8788
 -85.8793
 -85.8691
 -85.87
 -85.8696
 -85.8689
 -85.8784
 -85.878
 -85.8792
 -85.8782
 -85.8704
 -85.8708
 -85.8713
 -85.8715
 -85.8696
 -85.8688
 -85.869
 -85.8854
 -85.8849
 -85.8854
 -85.8889
 -85.8887
 -85.8886
 -85.8897
 -85.8874
 -85.8874
 -85.8879
 -85.881
 -85.8819
 -85.8811
 -85.8413
 -85.841
 -85.8403
 -85.8679
 -85.869
 -85.8681
 -85.8849
 -85.8853
 -85.8849
 -85.8848
 -85.8678
 -85.8683
 -85.8678
 -85.8735
 -85.874
 -85.8738
 -85.8731
 -85.8769
 -85.8751
 -85.8758
 -85.8756
 -85.8698
 -85.8704
 -85.8703
 -85.871
 -85.8587
 -85.8593
 -85.8587
 -85.8584
 -85.8682
 -85.8735
 -85.8735
 -85.874
 -85.8723
 -85.8563
 -85.8565
 -85.8567
 -85.8566
 -85.8552
 -85.856
 -85.8555
 -85.8559
 -85.8574
 -85.8577
 -85.8576
 -85.857
 -85.8773
 -85.8773
 -85.8782
 -85.8787
 -85.8602
 -85.8596
 -85.8599
 -85.8601
 -85.8919
 -85.8912
 -85.8917
 -85.8913
 -85.848
 -85.8485
 -85.8492
 -85.849
 -85.8593
 -85.8594
 -85.8591
 -85.8536
 -85.8531
 -85.8528
 -85.8528
 -85.8565
 -85.856
 -85.8571
 -85.8569
 -85.8571
 -85.8713
 -85.8711
 -85.8717
 -85.873
 -85.8891
 -85.8885
 -85.8882
 -85.889
 -85.8888
 -85.8892
 -85.8886
 -85.8582
 -85.8576
 -85.8909
 -85.8914
 -85.8908
 -85.8856
 -85.8854
 -85.8855
 -85.8862
 -85.8565
 -85.8561
 -85.8565
 -85.8916
 -85.8918
 -85.8913
 -85.892
 -85.8638
 -85.864
 -85.8646
 -85.8633
 -85.8576
 -85.8565
 -85.857
 -85.8578
 -85.8533
 -85.8545
 -85.854
 -85.8538
 -85.8445
 -85.8448
 -85.844
 -85.844
 -85.8755
 -85.877
 -85.8764
 -85.8767
 -85.8647
 -85.8648
 -85.8644
 -85.8633
 -85.8913
 -85.8908
 -85.8913
 -85.8334
 -85.8345
 -85.8339
 -85.8351
 -85.8498
 -85.8508
 -85.8502
 -85.8512
 -85.8912
 -85.892
 -85.8916
 -85.8915
 -85.8703
 -85.8703
 -85.8712
 -85.8872
 -85.888
 -85.8883
 -85.8579
 -85.8578
 -85.8566
 -85.8914
 -85.8911
 -85.8909
 -85.8912
 -85.8854
 -85.885
 -85.8848
 -85.8842
 -85.8614
 -85.8619
 -85.8625
 -85.8618
 -85.8647
 -85.8637
 -85.8646
 -85.8634
 -85.8829
 -85.8829
 -85.8829
 -85.8838
 -85.8725
 -85.872
 -85.8714
 -85.8718
 -85.8465
 -85.8475
 -85.8477
 -85.8474
 -85.8863
 -85.885
 -85.8858
 -85.8854
 -85.8922
 -85.871
 -85.8713
 -85.8719
 -85.8718
 -85.8885
 -85.889
 -85.8887
 -85.8895
 -85.8564
 -85.8564
 -85.8566
 -85.8566
 -85.8907
 -85.8912
 -85.8905
 -85.8902
 -85.8692
 -85.869
 -85.8651
 -85.8646
 -85.8653
 -85.8656
 -85.8821
 -85.8812
 -85.8812
 -85.8812
 -85.8735
 -85.8744
 -85.8742
 -85.8645
 -85.8643
 -85.8647
 -85.8825
 -85.8824
 -85.8816
 -85.8817
 -85.8803
 -85.8799
 -85.8807
 -85.88
 -85.8583
 -85.8578
 -85.8576
 -85.8698
 -85.8716
 -85.8717
 -85.8705
 -85.8481
 -85.8478
 -85.8488
 -85.8474
 -85.8465
 -85.8915
 -85.8902
 -85.8915
 -85.8905
 -85.8713
 -85.8708
 -85.8704
 -85.8713
 -85.887
 -85.8875
 -85.8675
 -85.8661
 -85.8662
 -85.8607
 -85.86
 -85.8612
 -85.861
 -85.8909
 -85.8907
 -85.8912
 -85.8912
 -85.8574
 -85.8576
 -85.8576
 -85.8613
 -85.861
 -85.8617
 -85.8611
 -85.8642
 -85.8653
 -85.8645
 -85.8633
 -85.8787
 -85.8801
 -85.8791
 -85.8796
 -85.8597
 -85.8609
 -85.8603
 -85.8601
 -85.8814
 -85.8758
 -85.8768
 -85.8771
 -85.8755
 -85.8888
 -85.889
 -85.8882
 -85.8903
 -85.89
 -85.89
 -85.8895
 -85.8765
 -85.877
 -85.876
 -85.8765
 -85.8929
 -85.8928
 -85.8928
 -85.8922
 -85.8643
 -85.8742
 -85.8729
 -85.8729
 -85.8738
 -85.8714
 -85.8699
 -85.8707
 -85.871
 -85.8447
 -85.8459
 -85.8462
 -85.8451
 -85.8686
 -85.8688
 -85.8691
 -85.868
 -85.8671
 -85.8672
 -85.8675
 -85.868
 -85.8678
 -85.8679
 -85.8687
 -85.8872
 -85.8866
 -85.8863
 -85.8671
 -85.8659
 -85.8662
 -85.8667
 -85.8862
 -85.8872
 -85.8867
 -85.8701
 -85.8694
 -85.8722
 -85.8728
 -85.8726
 -85.872
 -85.8717
 -85.872
 -85.8709
 -85.8711
 -85.8723
 -85.8719
 -85.888
 -85.8883
 -85.8883
 -85.8645
 -85.8898
 -85.8735
 -85.8741
 -85.8733
 -85.8725
 -85.8564
 -85.8563
 -85.8554
 -85.8585
 -85.8595
 -85.86
 -85.872
 -85.8724
 -85.8714
 -85.8693
 -85.8693
 -85.8697
 -85.8702
 -85.8714
 -85.8706
 -85.8719
 -85.8707
 -85.8339
 -85.8342
 -85.8332
 -85.8826
 -85.8817
 -85.8824
 -85.8692
 -85.8695
 -85.8844
 -85.8835
 -85.8838
 -85.8834
 -85.8746
 -85.8754
 -85.8746
 -85.8451
 -85.8455
 -85.8442
 -85.8446
 -85.8669
 -85.8658
 -85.8668
 -85.8659
 -85.859
 -85.8587
 -85.8583
 -85.858
 -85.8783
 -85.8771
 -85.8779
 -85.8783
 -85.8631
 -85.8622
 -85.8629
 -85.8617
 -85.848
 -85.8478
 -85.8479
 -85.8643
 -85.864
 -85.8635
 -85.8638
 -85.8784
 -85.8793
 -85.8789
 -85.8791
 -85.8703
 -85.8713
 -85.8715
 -85.8709
 -85.8603
 -85.86
 -85.8604
 -85.8661
 -85.8654
 -85.8657
 -85.8656
 -85.8587
 -85.8578
 -85.8588
 -85.858
 -85.854
 -85.8552
 -85.8548
 -85.8537
 -85.8908
 -85.8911
 -85.8908
 -85.8911
 -85.8578
 -85.8584
 -85.8583
 -85.8584
 -85.8599
 -85.8593
 -85.8601
 -85.8601
 -85.8769
 -85.8779
 -85.8777
 -85.8783
 -85.8636
 -85.8634
 -85.8643
 -85.8639
 -85.8942
 -85.8943
 -85.8943
 -85.8944
 -85.8679
 -85.8675
 -85.8683
 -85.8557
 -85.8552
 -85.8554
 -85.8561
 -85.8575
 -85.8571
 -85.8573
 -85.8571
 -85.8575
 -85.8561
 -85.88
 -85.8792
 -85.88
 -85.8789
 -85.894
 -85.8935
 -85.8938
 -85.8936
 -85.8657
 -85.8649
 -85.8653
 -85.8648
 -85.8585
 -85.8581
 -85.858
 -85.878
 -85.8771
 -85.8771
 -85.8778
 -85.8679
 -85.8678
 -85.8681
 -85.8689
 -85.8607
 -85.8609
 -85.8606
 -85.8614
 -85.8551
 -85.8563
 -85.8556
 -85.883
 -85.8839
 -85.8842
 -85.8832
 -85.8858
 -85.8856
 -85.885
 -85.8659
 -85.8657
 -85.8663
 -85.8669
 -85.8666
 -85.8662
 -85.8673
 -85.8603
 -85.8613
 -85.8618
 -85.8614
 -85.8777
 -85.8773
 -85.8767
 -85.8574
 -85.8574
 -85.8565
 -85.8709
 -85.8719
 -85.8716
 -85.8857
 -85.8848
 -85.8854
 -85.8792
 -85.8791
 -85.8639
 -85.8645
 -85.8638
 -85.8645
 -85.8649
 -85.8644
 -85.869
 -85.8679
 -85.8608
 -85.8542
 -85.8544
 -85.8537
 -85.8866
 -85.8865
 -85.8854
 -85.8659
 -85.8667
 -85.8664
 -85.8658
 -85.8613
 -85.8704
 -85.8709
 -85.878
 -85.8783
 -85.8777
 -85.8786
 -85.8703
 -85.8695
 -85.8705
 -85.8661
 -85.8666
 -85.8652
 -85.8662
 -85.8642
 -85.8657
 -85.8671
 -85.8663
 -85.8658
 -85.8675
 -85.8875
 -85.8868
 -85.8867
 -85.8873
 -85.8881
 -85.8886
 -85.8893
 -85.8891
 -85.8573
 -85.858
 -85.8699
 -85.8699
 -85.8695
 -85.8687
 -85.874
 -85.8743
 -85.8747
 -85.875
 -85.8766
 -85.8773
 -85.8766
 -85.8763
 -85.8691
 -85.8685
 -85.8682
 -85.8692
 -85.8674
 -85.8681
 -85.8676
 -85.8673
 -85.8856
 -85.8845
 -85.8856
 -85.8854
 -85.8582
 -85.8592
 -85.8596
 -85.8602
 -85.8585
 -85.8595
 -85.859
 -85.8827
 -85.8834
 -85.8844
 -85.8847
 -85.8604
 -85.861
 -85.8607
 -85.8613
 -85.8898
 -85.8893
 -85.8898
 -85.8896
 -85.8862
 -85.8858
 -85.8861
 -85.8856
 -85.865
 -85.8655
 -85.8647
 -85.8651
 -85.8795
 -85.8798
 -85.8794
 -85.8786
 -85.861
 -85.8615
 -85.8622
 -85.8624
 -85.8824
 -85.8819
 -85.8821
 -85.8579
 -85.8583
 -85.8577
 -85.8581
 -85.8754
 -85.875
 -85.8756
 -85.876
 -85.8642
 -85.8645
 -85.8814
 -85.8827
 -85.8821
 -85.8819
 -85.8831
 -85.8829
 -85.8823
 -85.8681
 -85.8693
 -85.8682
 -85.8839
 -85.8839
 -85.8843
 -85.8848
 -85.8488
 -85.8491
 -85.8498
 -85.8496
 -85.8607
 -85.8611
 -85.8617
 -85.862
 -85.8755
 -85.8744
 -85.8745
 -85.8755
 -85.888
 -85.8882
 -85.8877
 -85.8883
 -85.8861
 -85.8868
 -85.8869
 -85.8863
 -85.888
 -85.8879
 -85.8881
 -85.8877
 -85.888
 -85.8625
 -85.8631
 -85.8624
 -85.8633
 -85.8584
 -85.8587
 -85.8574
 -85.8582
 -85.8622
 -85.8622
 -85.8641
 -85.865
 -85.8643
 -85.8642
 -85.8667
 -85.8666
 -85.8677
 -85.8667
 -85.859
 -85.8591
 -85.8584
 -85.8715
 -85.8709
 -85.8711
 -85.8708
 -85.8945
 -85.8943
 -85.8939
 -85.8627
 -85.8625
 -85.8629
 -85.8638
 -85.8841
 -85.883
 -85.8837
 -85.884
 -85.8785
 -85.8795
 -85.8791
 -85.8702
 -85.8697
 -85.8707
 -85.8794
 -85.8803
 -85.8794
 -85.8855
 -85.885
 -85.8786
 -85.8787
 -85.8786
 -85.8612
 -85.8615
 -85.8617
 -85.8608
 -85.8889
 -85.8894
 -85.889
 -85.8888
 -85.8757
 -85.8766
 -85.8761
 -85.8426
 -85.8414
 -85.8409
 -85.8423
 -85.8554
 -85.8549
 -85.8733
 -85.8642
 -85.8655
 -85.8647
 -85.8642
 -85.8715
 -85.8725
 -85.8724
 -85.8819
 -85.882
 -85.8814
 -85.882
 -85.8903
 -85.8905
 -85.87
 -85.8697
 -85.8698
 -85.8691
 -85.8542
 -85.8533
 -85.8533
 -85.8542
 -85.8865
 -85.8869
 -85.8869
 -85.8866
 -85.8753
 -85.8757
 -85.8751
 -85.8354
 -85.8348
 -85.8341
 -85.8342
 -85.858
 -85.8578
 -85.8573
 -85.8625
 -85.8632
 -85.8619
 -85.8626
 -85.8752
 -85.8754
 -85.8749
 -85.8761
 -85.8701
 -85.8708
 -85.8559
 -85.8561
 -85.8561
 -85.8561
 -85.876
 -85.8769
 -85.8625
 -85.8613
 -85.8618
 -85.8622
 -85.8658
 -85.8662
 -85.8652
 -85.8659
 -85.8705
 -85.8714
 -85.8717
 -85.871
 -85.8617
 -85.8612
 -85.8602
 -85.8783
 -85.8772
 -85.8784
 -85.8774
 -85.8831
 -85.8838
 -85.8845
 -85.8833
 -85.882
 -85.8821
 -85.8822
 -85.8828
 -85.8534
 -85.8525
 -85.853
 -85.8522
 -85.871
 -85.8704
 -85.8399
 -85.8389
 -85.8391
 -85.8382
 -85.8657
 -85.8648
 -85.8643
 -85.8907
 -85.8309
 -85.8313
 -85.8313
 -85.8299
 -85.8689
 -85.8693
 -85.8688
 -85.8689
 -85.8638
 -85.8647
 -85.8641
 -85.8824
 -85.8831
 -85.8832
 -85.8824
 -85.8828
 -85.8824
 -85.8834
 -85.8833
 -85.8818
 -85.8822
 -85.8815
 -85.8812
 -85.8615
 -85.8622
 -85.8611
 -85.8621
 -85.8576
 -85.8572
 -85.8567
 -85.8568
 -85.8764
 -85.8765
 -85.8774
 -85.8764
 -85.8662
 -85.865
 -85.8667
 -85.8659
 -85.8938
 -85.8882
 -85.8884
 -85.8745
 -85.8746
 -85.8667
 -85.8659
 -85.8661
 -85.8889
 -85.8898
 -85.8892
 -85.889
 -85.8683
 -85.8679
 -85.8746
 -85.8738
 -85.845
 -85.8461
 -85.8449
 -85.846
 -85.8615
 -85.8611
 -85.8605
 -85.8609
 -85.8757
 -85.8768
 -85.8759
 -85.8764
 -85.847
 -85.846
 -85.8468
 -85.8473
 -85.8923
 -85.892
 -85.8927
 -85.8922
 -85.8883
 -85.8875
 -85.8901
 -85.8896
 -85.889
 -85.8902
 -85.8835
 -85.8841
 -85.8645
 -85.8649
 -85.8642
 -85.8325
 -85.8335
 -85.8322
 -85.8324
 -85.8483
 -85.849
 -85.8492
 -85.8485
 -85.8887
 -85.8892
 -85.8887
 -85.8884
 -85.8797
 -85.8808
 -85.8802
 -85.8723
 -85.8713
 -85.8707
 -85.8717
 -85.8625
 -85.8639
 -85.8628
 -85.8625
 -85.8857
 -85.8863
 -85.8861
 -85.889
 -85.871
 -85.8722
 -85.8613
 -85.8616
 -85.8784
 -85.8794
 -85.8782
 -85.8785
 -85.8576
 -85.8566
 -85.8579
 -85.8565
 -85.857
 -85.8561
 -85.8565
 -85.8341
 -85.8356
 -85.8353
 -85.8349
 -85.8624
 -85.863
 -85.8629
 -85.8637
 -85.886
 -85.8862
 -85.8845
 -85.8852
 -85.8849
 -85.8852
 -85.8609
 -85.8608
 -85.8616
 -85.8604
 -85.882
 -85.8815
 -85.8823
 -85.8787
 -85.8787
 -85.879
 -85.8782
 -85.8849
 -85.8853
 -85.8845
 -85.8855
 -85.8626
 -85.8635
 -85.8632
 -85.8627
 -85.8903
 -85.8894
 -85.8674
 -85.8428
 -85.8432
 -85.8439
 -85.8443
 -85.8816
 -85.8815
 -85.8821
 -85.8484
 -85.8477
 -85.848
 -85.8473
 -85.8782
 -85.8781
 -85.8781
 -85.8789
 -85.856
 -85.856
 -85.8551
 -85.8562
 -85.8594
 -85.8592
 -85.8599
 -85.8601
 -85.8771
 -85.8777
 -85.8777
 -85.8644
 -85.8648
 -85.8643
 -85.8637
 -85.8762
 -85.8759
 -85.8766
 -85.8752
 -85.8737
 -85.8732
 -85.8836
 -85.8839
 -85.8838
 -85.8788
 -85.879
 -85.8782
 -85.8423
 -85.8425
 -85.8434
 -85.8426
 -85.8574
 -85.8581
 -85.857
 -85.8584
 -85.8857
 -85.8847
 -85.8848
 -85.8847
 -85.884
 -85.8838
 -85.8599
 -85.8616
 -85.86
 -85.879
 -85.878
 -85.8783
 -85.8778
 -85.8786
 -85.8784
 -85.8781
 -85.8619
 -85.8614
 -85.862
 -85.8621
 -85.889
 -85.8891
 -85.8648
 -85.8644
 -85.8648
 -85.8654
 -85.8609
 -85.8609
 -85.8613
 -85.8797
 -85.88
 -85.8698
 -85.8693
 -85.8698
 -85.8705
 -85.8568
 -85.8565
 -85.8768
 -85.8766
 -85.8652
 -85.8638
 -85.864
 -85.8647
 -85.8717
 -85.8717
 -85.871
 -85.8723
 -85.8716
 -85.8711
 -85.8717
 -85.8514
 -85.8515
 -85.851
 -85.8528
 -85.848
 -85.8481
 -85.8488
 -85.8486
 -85.8787
 -85.878
 -85.8772
 -85.8779
