 30.9476
 31.288
 31.2804
 31.559
 32.1286
 32.1775
 32.0462
 32.0001
 32.6672
 32.689
 32.654
 32.7066
 32.5611
 32.5421
 32.7188
 32.6478
 31.6833
 31.5254
 31.7174
 31.7299
 31.7208
 31.7826
 31.6515
 31.7578
 29.1445
 28.6109
 28.8382
 29.0609
 28.8848
 29.1247
 29.167
 28.7804
 31.659
 31.7148
 31.8121
 31.6903
 31.7425
 31.7366
 31.7663
 31.633
 27.2116
 26.8486
 27.3652
 27.4802
 32.3974
 32.4085
 32.4398
 32.4001
 31.9714
 31.9977
 31.8575
 32.1008
 32.4132
 32.4603
 32.5254
 32.4632
 32.6691
 32.6495
 32.6583
 32.6649
 30.4046
 30.2086
 30.595
 30.2292
 32.0735
 32.0023
 32.0727
 31.9674
 32.3112
 32.3462
 32.3031
 32.3523
 32.8874
 32.9059
 32.916
 32.9288
 31.8761
 31.9275
 31.8628
 31.7508
 29.2664
 28.8139
 29.4222
 28.985
 31.4073
 31.43
 31.2921
 31.2579
 23.4425
 23.1702
 23.1559
 23.5355
 32.5174
 32.4243
 32.4794
 32.5235
 32.8719
 32.8295
 32.7119
 32.7811
 32.7007
 32.7335
 32.7269
 32.7414
 32.4832
 32.5981
 32.6017
 32.4783
 30.3259
 30.0098
 30.2713
 30.3186
 31.7108
 31.685
 31.5336
 31.5918
 32.4756
 32.4942
 32.494
 32.5778
 32.7212
 32.6618
 32.7377
 32.7268
 31.8572
 31.9285
 31.9685
 31.8602
 32.6084
 32.6541
 32.6234
 32.6588
 32.0753
 32.1117
 32.1114
 32.1142
 31.947
 31.7545
 31.9681
 31.6523
 30.8037
 30.7859
 30.8208
 30.8308
 32.8564
 32.8916
 32.8989
 32.8252
 28.363
 28.6074
 28.6495
 28.7289
 32.456
 32.4311
 32.3165
 32.3392
 31.1065
 31.219
 31.102
 31.2483
 32.8028
 32.8228
 32.8156
 32.8282
 32.4518
 32.3913
 32.4138
 32.4888
 28.9767
 28.9795
 29.3333
 28.6339
 32.7026
 32.7353
 32.7263
 32.6541
 31.525
 31.5643
 31.4846
 31.5351
 31.423
 31.5591
 31.5363
 31.4729
 32.5662
 32.4807
 32.5063
 32.473
 30.9609
 31.1353
 30.8892
 30.5955
 32.0171
 31.8851
 31.8157
 31.7811
 32.8391
 32.8164
 32.8306
 32.7605
 30.3771
 30.3065
 30.1985
 30.3438
 32.5062
 32.5535
 32.5116
 32.5163
 32.4794
 32.3233
 32.3845
 32.2266
 32.9289
 32.8708
 32.798
 32.8817
 32.0081
 32.1053
 32.0364
 32.2108
 32.4816
 32.4919
 32.4597
 32.5647
 32.3032
 32.3545
 32.2772
 32.1962
 32.4502
 32.5271
 32.4967
 32.5951
 31.8504
 31.8276
 31.603
 31.9626
 32.38
 32.3266
 32.3872
 32.4271
 24.4163
 24.0933
 23.9337
 24.2371
 31.8426
 31.7224
 31.5478
 31.8234
 32.8826
 32.8137
 32.8649
 32.8781
 32.2732
 32.2834
 32.5194
 32.2171
 32.3608
 32.4823
 32.2769
 32.3698
 29.6052
 29.3607
 29.622
 29.6782
 31.9214
 31.8183
 31.7235
 31.9152
 31.6773
 31.6598
 31.5856
 31.5519
 32.9544
 32.8859
 32.912
 32.9134
 31.8928
 31.8277
 31.9458
 31.6918
 32.3631
 32.3621
 32.2976
 32.379
 29.7517
 28.7243
 29.2728
 29.3436
 29.3085
 29.1144
 28.7279
 29.5665
 23.4478
 23.1992
 23.5527
 23.3415
 32.6849
 32.5682
 32.6581
 32.6062
 31.6478
 31.9689
 31.9841
 31.7603
 30.8469
 30.6756
 30.9401
 31.0605
 31.5456
 31.4071
 31.4443
 31.3876
 30.3189
 30.2006
 29.918
 30.2642
 30.8744
 30.6484
 30.5704
 30.8337
 31.4042
 31.5757
 31.3573
 31.1376
 32.4838
 32.4028
 32.4561
 32.4137
 31.0053
 31.277
 31.0561
 31.1568
 31.9349
 31.9922
 32.0525
 31.9682
 32.283
 32.2539
 32.2433
 32.1703
 30.5416
 30.1107
 30.645
 30.1818
 22.6808
 22.4783
 22.7551
 22.8888
 29.7205
 30.0123
 30.1801
 29.9085
 32.5065
 32.6326
 32.56
 32.6158
 32.568
 32.6702
 32.6153
 32.7634
 32.3013
 32.466
 32.4026
 32.4136
 28.7685
 28.7558
 28.9656
 29.1543
 31.2422
 31.2896
 31.3959
 31.2158
 32.6088
 32.5269
 32.6514
 32.5786
 28.5695
 28.5464
 28.1346
 28.1003
 32.1297
 32.1283
 32.0152
 32.3426
 30.7248
 30.9947
 30.4625
 30.6823
 30.8266
 30.6907
 30.6013
 28.6324
 28.6178
 28.5096
 28.3627
 32.5003
 32.5584
 32.5844
 32.5177
 32.669
 32.7819
 32.7072
 32.6555
 32.6507
 32.5516
 32.7164
 32.1698
 31.9056
 32.0712
 32.0113
 32.6165
 32.6386
 32.6263
 32.5721
 31.9856
 32.1774
 32.1514
 31.9588
 29.979
 30.0764
 30.4228
 30.4005
 30.8045
 30.6899
 30.532
 30.6554
 32.6636
 32.6998
 32.6723
 32.6688
 32.6448
 32.6745
 32.5969
 32.6091
 29.0838
 29.0671
 28.9377
 28.6284
 30.7731
 30.9307
 31.2179
 31.0419
 32.4136
 32.4868
 32.5239
 32.4815
 31.8956
 31.8251
 31.8572
 31.8122
 32.6164
 32.596
 32.5689
 32.5935
 32.8029
 32.7415
 32.8315
 32.8059
 23.82
 23.6145
 23.8789
 23.9517
 32.5324
 32.4051
 32.4455
 32.5467
 31.9576
 32.1122
 31.9607
 32.1007
 31.4977
 31.1356
 31.6529
 31.5027
 30.6406
 30.6747
 30.363
 30.5093
 30.0884
 29.7314
 29.9044
 29.9964
 26.5897
 26.5716
 26.5707
 26.7821
 31.4267
 31.0837
 31.1217
 31.0459
 32.7321
 32.697
 32.6884
 32.7327
 28.6311
 28.5838
 28.7334
 28.9684
 32.0424
 32.1506
 32.0312
 32.0173
 29.5749
 29.101
 29.1801
 29.5396
 32.0473
 32.1898
 32.023
 32.1122
 32.3431
 32.2692
 32.2505
 32.3636
 32.1215
 32.1758
 32.2355
 32.1248
 31.5183
 31.5182
 31.8127
 31.611
 31.0495
 31.0412
 30.8466
 30.7326
 31.4327
 31.2804
 31.252
 31.2561
 31.183
 31.0768
 31.1812
 31.1017
 31.0513
 31.1585
 31.1004
 31.2704
 32.34
 32.4432
 32.304
 32.407
 25.1991
 25.6981
 25.6187
 25.2409
 31.4547
 31.461
 31.4032
 31.3648
 30.4399
 30.7618
 30.4747
 30.2556
 25.1713
 24.9924
 24.7621
 25.1699
 32.2751
 32.3138
 32.3568
 32.334
 31.5592
 31.4497
 31.5168
 31.5697
 32.5235
 32.5614
 32.5092
 32.5718
 32.349
 32.4367
 32.3455
 32.455
 30.6881
 30.3077
 30.5098
 30.5035
 32.4961
 32.557
 32.5331
 32.5235
 32.1384
 31.9851
 32.0793
 32.1132
 29.0989
 29.3117
 28.9628
 28.9798
 27.7296
 27.485
 27.5862
 28.0122
 32.4601
 32.3683
 32.4692
 32.3563
 32.8653
 32.9665
 32.889
 32.9207
 30.9717
 30.9108
 31.0514
 31.2223
 30.5446
 30.1259
 30.5247
 30.4678
 32.6091
 32.4898
 32.507
 32.6453
 31.6744
 31.8156
 31.6005
 31.5674
 31.8417
 31.8783
 31.8287
 31.7679
 31.906
 32.0104
 31.9646
 31.9378
 32.4699
 32.4729
 32.3554
 32.4319
 30.5145
 30.0146
 30.4119
 30.2521
 30.6116
 30.8771
 30.9376
 30.9639
 32.4405
 32.52
 32.3929
 32.4289
 32.7372
 32.7918
 32.7012
 32.7762
 32.6429
 32.667
 32.6043
 32.5461
 32.6928
 32.6869
 32.6833
 32.6833
 32.499
 32.4406
 32.4788
 32.5
 28.325
 28.3993
 28.7014
 29.0363
 22.7702
 23.3599
 22.6188
 22.7836
 31.6022
 31.6448
 31.3283
 31.5523
 22.5075
 22.8054
 22.7289
 31.2311
 31.1017
 31.2293
 30.8446
 31.7421
 31.8156
 31.7501
 31.8172
 32.6205
 32.6375
 32.6214
 32.6124
 31.7576
 31.83
 31.7521
 31.8769
 30.4728
 30.5099
 30.181
 30.5323
 32.6343
 32.579
 32.4073
 32.4538
 32.7603
 32.8824
 32.8632
 32.729
 31.4394
 31.349
 31.3481
 31.5842
 32.2545
 32.2948
 32.2654
 32.166
 31.5071
 31.7572
 31.6057
 31.4641
 32.4182
 32.4124
 32.4968
 32.3475
 32.1873
 32.2935
 32.2926
 32.2773
 25.575
 24.9944
 25.157
 25.0464
 32.6456
 32.6587
 32.6596
 32.662
 31.9488
 31.9343
 31.9647
 32.0998
 32.7863
 32.7482
 32.831
 32.7228
 31.9222
 32.0401
 31.9339
 31.9112
 30.9667
 31.1963
 31.3157
 31.4389
 32.3004
 32.1766
 32.3285
 32.1966
 32.7048
 32.7321
 32.5922
 32.6932
 32.7161
 32.674
 32.7359
 32.6296
 32.2766
 32.3509
 32.3889
 32.2341
 31.1543
 31.2374
 31.2314
 31.1665
 28.4868
 28.8259
 29.0456
 29.2442
 31.8411
 32.0296
 32.0722
 31.8851
 32.4493
 32.5182
 32.4785
 32.4678
 32.4758
 32.3827
 32.4469
 32.3599
 31.3772
 31.3027
 31.343
 31.3349
 29.2537
 29.8636
 30.0756
 29.4443
 32.4471
 32.4379
 32.5465
 32.5228
 32.3698
 32.3348
 32.3938
 32.3509
 31.5694
 31.4546
 31.3575
 31.5552
 30.1553
 30.6244
 30.0459
 30.3144
 31.7454
 31.5881
 31.6012
 31.7289
 32.0802
 32.3248
 32.299
 32.231
 22.6145
 22.7702
 22.5904
 22.4989
 31.9323
 31.9298
 31.8175
 31.9067
 32.7074
 32.6729
 32.7381
 32.791
 32.0989
 32.0736
 32.1573
 32.1452
 32.5981
 32.6453
 32.77
 32.6492
 32.7331
 32.8337
 32.8451
 32.7912
 32.3363
 32.4271
 32.4417
 32.3951
 30.4819
 30.7255
 30.3408
 30.5656
 29.9624
 30.2006
 30.2097
 30.0974
 23.6052
 23.3935
 23.4707
 23.4748
 32.6563
 32.6549
 32.6217
 32.633
 32.7921
 32.7717
 32.7275
 32.7954
 32.7963
 32.9077
 32.7327
 32.7688
 32.0199
 32.2689
 32.2855
 32.0106
 31.5796
 31.5326
 31.4935
 31.7226
 31.5421
 31.3886
 31.5356
 31.5609
 32.609
 32.6606
 32.559
 32.5344
 -87.3291
 -88.4165
 -83.1104
 -37.1712
 32.3235
 32.2444
 32.3516
 32.2891
 32.3365
 32.2792
 32.2672
 32.2919
 32.3131
 32.2934
 32.2829
 32.2458
 32.3575
 32.3703
 32.2586
 32.3913
 24.8844
 25.273
 24.5301
 24.8193
 23.1404
 22.9041
 22.8166
 22.7181
 31.987
 32.0478
 32.0213
 32.1234
 31.9063
 32.1307
 31.8219
 32.1611
 32.1952
 32.1477
 32.222
 32.2164
 32.4109
 32.431
 32.49
 32.4509
 29.8961
 30.1159
 30.2327
 30.0095
 32.2567
 32.3291
 32.2701
 32.2144
 32.1875
 31.9232
 31.9902
 31.7412
 31.8023
 31.6023
 31.5091
 31.7932
 29.0844
 28.8915
 29.4444
 28.9819
 32.2582
 32.4231
 32.2615
 32.3522
 32.2032
 32.1693
 32.1765
 32.2248
 32.5833
 32.5171
 32.4649
 32.532
 30.0813
 30.0324
 30.3457
 30.5205
 31.7677
 32.0497
 32.0532
 31.7823
 31.8964
 31.8543
 31.7778
 31.8318
 32.3863
 32.4921
 32.4353
 32.4351
 32.3517
 32.306
 32.2661
 32.3255
 28.5409
 28.656
 28.5831
 28.8674
 26.2641
 27.3812
 27.2947
 26.7236
 32.6672
 32.7842
 32.7989
 32.7592
 29.908
 29.521
 29.9116
 29.0623
 31.9774
 32.0957
 32.0753
 31.9933
 32.761
 32.6627
 32.6849
 32.6896
 32.4805
 32.5319
 32.5828
 32.4659
 32.4753
 32.5466
 32.5407
 32.4962
 32.4885
 32.4142
 32.4928
 32.5251
 30.8447
 30.2535
 30.4075
 30.6393
 27.3826
 28.0785
 27.3212
 27.6976
 29.094
 28.5477
 29.1652
 28.7686
 30.6716
 30.3116
 30.2225
 30.3753
 32.835
 32.8411
 32.7878
 32.8043
 32.7667
 32.5886
 32.7685
 32.5834
 32.8174
 32.8227
 32.9345
 32.9507
 32.7977
 32.8151
 32.7485
 32.7525
 25.1084
 24.6404
 24.6918
 24.5746
 32.7512
 32.7347
 32.7439
 32.7258
 30.1786
 29.8091
 29.9882
 29.9639
 32.1338
 32.3916
 32.1746
 32.295
 31.753
 31.9472
 31.7971
 31.8757
 32.475
 32.4408
 32.3954
 32.4441
 29.403
 29.112
 29.2484
 28.825
 32.2813
 32.2694
 32.3693
 32.382
 30.8812
 30.9319
 30.9762
 30.7004
 32.6178
 32.538
 32.6568
 32.5895
 25.0211
 24.6683
 24.9983
 25.4126
 32.1103
 32.0978
 32.2377
 32.2696
 32.6134
 32.6597
 32.5959
 32.6656
 32.4361
 32.4203
 32.4182
 32.4139
 31.8177
 31.9924
 31.8604
 31.9228
 31.2485
 31.2163
 31.4361
 31.3002
 31.015
 31.1947
 30.9999
 31.4742
 31.5532
 31.7555
 31.6114
 31.6491
 31.0362
 31.1538
 31.4574
 31.0655
 32.2452
 32.2654
 32.1585
 32.3025
 32.6534
 32.6487
 32.6398
 32.5974
 32.8257
 32.7689
 32.7652
 32.9345
 30.4974
 30.845
 30.8203
 30.4777
 32.5962
 32.5475
 32.5876
 32.5724
 32.2508
 32.2619
 32.2091
 32.22
 22.7789
 22.6413
 22.6962
 23.2927
 28.2723
 28.137
 28.1317
 28.3813
 28.9281
 28.9328
 28.897
 28.5773
 31.7838
 31.8668
 31.6781
 31.9651
 32.1651
 32.0203
 32.1183
 32.0375
 31.7748
 31.7609
 31.7159
 31.8607
 31.482
 31.5236
 31.3672
 31.5543
 30.3813
 30.1174
 30.1187
 30.6667
 32.7494
 32.8223
 32.7867
 32.8688
 32.6774
 32.1903
 32.2907
 32.3012
 32.3493
 32.7302
 32.6952
 32.6636
 32.7109
 27.7458
 28.1179
 28.2349
 28.0029
 31.8877
 31.8104
 31.965
 32.0707
 31.3865
 31.236
 31.4016
 31.5122
 32.033
 32.1488
 32.1128
 32.0944
 32.5193
 32.3062
 32.4783
 32.3262
 31.7693
 31.7561
 31.8327
 31.8473
 32.565
 32.5329
 32.5539
 32.4938
 28.2
 28.6346
 28.4119
 29.1287
 30.7916
 30.3827
 30.9494
 30.7795
 32.987
 32.9214
 32.9148
 32.9315
 32.709
 32.5825
 32.6341
 29.4293
 29.2692
 29.3588
 29.6113
 32.7016
 32.7957
 32.7014
 32.7535
 31.4502
 31.303
 31.2372
 31.5134
 32.6589
 32.5858
 32.6066
 32.7159
 31.911
 31.9165
 32.0853
 31.9452
 31.7069
 31.6445
 31.4696
 31.6779
 32.2894
 32.4635
 32.3562
 32.2905
 32.5696
 32.5359
 32.5712
 32.528
 32.3469
 32.3791
 32.4285
 32.4022
 32.0653
 32.0624
 31.9349
 32.0095
 31.6435
 31.6103
 31.7513
 31.7282
 22.6318
 22.405
 22.4928
 22.5115
 31.2272
 31.2816
 31.3221
 31.2988
 32.4742
 32.5772
 32.4989
 32.4328
 30.3734
 30.2634
 30.957
 30.4512
 32.2478
 32.3693
 32.3751
 32.2569
 26.1794
 26.2883
 26.3272
 25.8808
 31.9571
 31.8278
 31.7101
 31.7863
 28.8679
 28.5145
 28.662
 28.7018
 32.5242
 32.4948
 32.5143
 32.4952
 30.5383
 29.7441
 30.4031
 30.2352
 31.1868
 31.2288
 31.2119
 31.3396
 31.3975
 31.3861
 31.4969
 31.5076
 32.3404
 32.3913
 32.4621
 32.2649
 32.5083
 32.5831
 32.5966
 32.6656
 32.6276
 29.9504
 30.1022
 29.6137
 29.9374
 30.2995
 30.1719
 30.0924
 30.4556
 32.5886
 32.5322
 32.5253
 32.5111
 29.3734
 29.7412
 29.8014
 29.3447
 31.0737
 31.0296
 30.9423
 31.1392
 32.4573
 32.4109
 32.4008
 32.5283
 31.9006
 32.0415
 31.8717
 32.0676
 32.577
 32.5725
 32.624
 32.5166
 30.8843
 30.7504
 30.5316
 30.9526
 31.6107
 31.7568
 31.814
 31.8143
 32.4078
 32.5251
 32.3725
 32.4779
 32.6613
 32.6265
 32.6304
 32.5892
 32.3572
 32.4071
 32.244
 32.2937
 32.4839
 32.4674
 32.4762
 32.4647
 32.6071
 32.5374
 32.6073
 32.5584
 27.8608
 27.8199
 28.0598
 28.1735
 32.7022
 32.7484
 32.6718
 32.7415
 32.9314
 32.9571
 32.8869
 32.8606
 32.6326
 32.6647
 32.6121
 32.6516
 32.1762
 32.3018
 32.0463
 32.1776
 29.2939
 29.3031
 29.4411
 28.8885
 32.4815
 32.5451
 32.507
 32.4439
 29.3839
 29.0451
 29.1051
 29.7759
 31.5758
 31.5781
 31.4064
 31.5182
 32.4268
 32.5349
 32.4029
 32.4564
 32.4942
 32.4687
 32.4219
 32.4916
 32.0082
 32.0947
 32.0927
 31.9476
 32.4572
 32.4633
 32.5271
 32.4734
 25.8798
 25.5486
 25.0478
 32.6248
 32.5892
 32.6184
 32.5976
 32.4681
 32.543
 32.5574
 32.5282
 31.8235
 31.5504
 31.7073
 31.7189
 31.0461
 31.0566
 30.95
 31.0868
 32.657
 32.6307
 32.6047
 32.6948
 32.3842
 32.4103
 32.4278
 32.4519
 31.252
 31.2401
 31.2184
 31.1655
 31.5726
 31.3944
 32.6282
 32.6363
 32.6695
 32.6757
 32.4504
 32.4067
 32.3394
 32.7259
 32.7267
 32.7092
 32.7257
 27.157
 27.0232
 27.5621
 27.4564
 32.3007
 32.2432
 32.2353
 32.3709
 32.6839
 32.6827
 32.6845
 32.6824
 31.8288
 31.6436
 31.7124
 31.9084
 32.5148
 32.4925
 32.4963
 32.4839
 29.5044
 29.1846
 29.6909
 29.3295
 28.3672
 29.3014
 28.6271
 28.7507
 32.281
 32.3644
 32.2994
 32.2955
 29.3989
 29.2233
 29.4456
 29.6423
 32.3212
 32.2945
 32.2871
 32.2758
 32.1645
 32.2005
 32.2963
 32.3139
 29.5832
 29.911
 30.0116
 29.7407
 23.8772
 24.2033
 23.8017
 24.0417
 32.6515
 32.7342
 32.7183
 32.5872
 32.112
 32.202
 32.153
 32.2023
 29.0802
 29.1228
 29.5025
 29.4879
 32.4195
 32.3943
 32.4903
 32.4527
 32.1692
 32.2253
 32.1739
 32.1872
 30.7292
 30.7559
 30.6174
 30.8032
 33.0277
 32.9502
 32.9682
 33.0491
 32.4322
 32.4784
 32.4091
 32.5531
 32.5497
 32.4947
 32.4836
 32.4509
 32.3498
 32.3168
 32.2767
 32.3852
 30.1516
 30.5146
 30.3323
 30.6988
 31.392
 31.5449
 31.5186
 31.4799
 32.5348
 32.5426
 32.622
 32.5377
 28.8124
 29.076
 28.9322
 29.0725
 22.5602
 22.9316
 22.9565
 22.6493
 32.559
 32.5262
 32.6108
 32.5325
 25.27
 25.9003
 24.3239
 23.6301
 22.7701
 22.4384
 22.4518
 22.5471
 27.6314
 27.9235
 27.8413
 27.4792
 32.7724
 32.7729
 32.8184
 32.7913
 32.7581
 32.678
 32.6948
 32.6372
 32.6086
 32.6994
 32.6279
 32.6929
 32.6316
 32.636
 32.6309
 32.6188
 25.1978
 24.9206
 25.0125
 25.1794
 30.0316
 29.854
 30.2331
 30.0901
 30.0196
 29.7599
 29.7814
 29.7724
 31.8864
 32.0375
 31.9129
 31.9958
 32.466
 32.4818
 32.4771
 32.4533
 32.6668
 32.6236
 32.6714
 32.5806
 30.6944
 31.0839
 31.1377
 30.7379
 32.7031
 32.5464
 32.7105
 32.6058
 32.5536
 31.4382
 31.439
 31.2983
 31.3774
 32.2182
 32.2419
 32.3158
 32.2496
 32.0301
 31.9477
 32.0237
 29.8343
 29.968
 30.1316
 29.8157
 22.5607
 22.8766
 22.5955
 22.9104
 32.7795
 32.7613
 32.8358
 32.7192
 32.1104
 31.7926
 32.0194
 31.8574
 29.7086
 29.8884
 30.1432
 30.2873
 30.511
 30.5887
 30.3281
 30.6294
 26.7665
 26.0293
 26.4041
 26.569
 32.7346
 32.7108
 32.6759
 32.6533
 32.816
 32.8674
 32.7202
 32.8594
 31.4908
 31.0921
 31.3537
 31.2414
 32.5061
 32.4859
 32.5466
 32.2787
 32.3645
 32.387
 31.0762
 31.0802
 30.633
 30.5174
 26.447
 26.2961
 26.3029
 26.4709
 31.1179
 31.3204
 31.2293
 31.0671
 27.3295
 26.8721
 27.3029
 26.6485
 32.5674
 32.4121
 32.5155
 32.5098
 32.2382
 32.2339
 32.1943
 32.1592
 28.8353
 28.6483
 28.7189
 28.6728
 26.2273
 25.8121
 26.114
 26.3396
 32.7738
 32.7236
 32.7707
 32.8071
 31.6854
 31.7647
 31.5756
 31.735
 26.968
 26.9546
 26.7663
 27.0196
 32.5737
 32.6054
 32.597
 32.5683
 23.5336
 23.174
 23.3061
 23.1703
 32.545
 32.435
 32.5859
 32.3763
 32.1657
 32.0523
 32.219
 32.1236
 32.5107
 32.5156
 32.3983
 32.4361
 29.5372
 29.6902
 29.7302
 30.0809
 31.7462
 31.5792
 31.5813
 31.634
 31.1629
 31.0815
 31.3686
 31.323
 31.4011
 31.4032
 31.6959
 31.0595
 32.6225
 32.639
 32.7229
 32.6879
 32.3281
 32.2292
 32.3586
 32.3334
 32.4632
 32.6024
 32.5713
 32.4471
 31.4901
 31.3832
 31.6284
 31.6716
 32.0478
 32.0306
 31.9302
 32.0195
 32.1956
 32.2281
 32.2561
 32.1416
 32.6236
 32.4801
 32.4775
 32.5181
 25.3176
 25.1448
 24.8444
 25.2711
 29.3424
 29.9492
 29.9064
 29.7102
 32.0731
 32.0076
 31.9478
 31.9737
 27.2288
 26.9157
 26.7859
 26.5224
 32.5407
 32.494
 32.5111
 32.5723
 32.5566
 32.3948
 32.4784
 32.4379
 27.2013
 27.9381
 27.4124
 27.1595
 32.3065
 32.3718
 32.3702
 32.3361
 31.0931
 31.0892
 31.1134
 30.9944
 22.4457
 22.4007
 22.3826
 22.4158
 31.6637
 31.6307
 31.6369
 31.7916
 32.5036
 32.5624
 32.5539
 32.5485
 32.6957
 32.6913
 32.719
 32.6348
 31.0346
 31.0619
 31.1373
 32.4935
 32.4722
 32.458
 32.4825
 31.6845
 31.706
 31.8493
 31.7341
 32.6397
 32.698
 32.6383
 32.6973
 32.6017
 32.4497
 32.63
 32.5124
 31.9597
 32.0017
 31.9677
 32.1129
 30.1894
 30.315
 30.4651
 30.1487
 31.5837
 31.5697
 31.5168
 31.5755
 30.6952
 30.9949
 30.7104
 30.5046
 32.8128
 32.8718
 32.8554
 32.883
 32.813
 32.6743
 32.8274
 32.7402
 23.3452
 24.5052
 23.2996
 23.5645
 31.3006
 31.183
 31.3348
 31.3528
 32.6283
 32.689
 32.6819
 32.707
 32.4069
 32.4277
 32.449
 32.3047
 31.2461
 31.2676
 31.3903
 31.3646
 30.733
 31.0307
 31.2019
 30.7941
 31.0805
 30.9429
 31.2776
 30.8411
 32.6274
 32.5267
 32.5837
 32.5856
 29.6665
 29.6377
 29.4257
 29.4376
 29.9999
 29.9245
 30.2302
 29.9431
 32.5826
 32.6658
 32.5714
 32.6976
 32.7215
 32.6838
 32.7433
 32.6945
 32.619
 32.6148
 32.6674
 32.6293
 31.0011
 30.8893
 32.8592
 32.8042
 32.8213
 32.7934
 30.971
 31.0898
 31.0039
 31.011
 32.1013
 32.2386
 32.2627
 32.2295
 32.0916
 32.1583
 32.1813
 32.1042
 32.0981
 32.1374
 32.1798
 32.2054
 32.5759
 32.5868
 32.5626
 32.6309
 30.7974
 31.2906
 31.1133
 31.3367
 31.8716
 31.6709
 31.6593
 31.768
 32.6544
 32.6464
 32.6115
 32.7464
 30.2531
 29.8413
 29.6844
 29.8737
 23.8611
 23.8415
 23.7441
 23.5389
 31.8944
 31.904
 31.9806
 31.9327
 27.2011
 27.1432
 27.4752
 27.0154
 32.4688
 32.4803
 32.5047
 32.5255
 23.8513
 23.838
 24.1953
 23.878
 32.6825
 32.6791
 32.6732
 32.6663
 30.7856
 30.7833
 30.6896
 30.6742
 30.5584
 30.695
 30.3288
 30.541
 32.5354
 32.5485
 32.4983
 32.6073
 32.3764
 32.4478
 32.3443
 32.4681
 31.8108
 32.1278
 32.0806
 32.0586
 28.6788
 28.5876
 28.7274
 28.9565
 32.2723
 32.1385
 32.1993
 32.1043
 31.0336
 30.6336
 31.0924
 31.0478
 31.9769
 32.038
 32.1292
 32.1122
 32.4664
 32.3153
 32.3786
 32.3862
 32.623
 32.6509
 32.6411
 32.6319
 32.2423
 32.1523
 32.2243
 32.2469
 31.944
 31.9138
 31.8239
 31.8049
 32.4654
 32.3912
 32.4403
 32.4733
 32.6711
 32.6716
 32.6378
 32.6532
 32.4949
 32.5604
 32.4873
 32.6456
 31.8291
 31.8958
 31.9539
 32.1129
 29.0774
 29.0239
 28.7348
 32.2382
 32.2659
 32.1925
 32.1829
 23.5783
 23.4638
 23.1517
 23.1515
 32.4319
 32.4927
 32.467
 32.5262
 30.3121
 29.8589
 30.1286
 30.1404
 29.4408
 28.9086
 28.9924
 28.9473
 32.0774
 32.1743
 32.0958
 31.9953
 32.516
 32.4956
 32.5943
 32.5737
 32.2782
 32.2404
 31.0687
 32.155
 32.2625
 32.2464
 32.2453
 24.0686
 24.3715
 32.5367
 32.5537
 32.5556
 28.0763
 28.3544
 27.7962
 28.1559
 32.4466
 32.505
 32.4743
 32.4531
 31.8271
 31.9986
 31.9297
 31.9569
 30.86
 31.2952
 31.0491
 31.13
 32.1609
 32.1655
 32.0727
 32.0994
 28.3226
 28.813
 28.3571
 28.9506
 32.7078
 32.7192
 32.6889
 32.6893
 31.8315
 31.8163
 31.9591
 31.9378
 32.804
 32.7137
 32.82
 32.7603
 32.6502
 32.7087
 32.6966
 32.7001
 32.5842
 32.7057
 32.6487
 32.5078
 31.4327
 31.6091
 31.4695
 31.6132
 31.641
 31.5946
 31.6573
 31.7839
 31.81
 31.9061
 31.9599
 31.8147
 32.0878
 31.9607
 32.134
 32.1236
 32.6364
 32.6031
 32.6192
 32.6334
 32.2312
 32.1776
 32.1379
 32.1711
 32.4625
 32.3175
 32.5253
 32.3978
 32.6542
 32.6489
 32.6373
 32.7182
 32.346
 32.2593
 32.3198
 32.2268
 32.2126
 32.174
 32.2392
 32.0664
 32.419
 32.4594
 32.4536
 32.419
 32.3443
 32.3745
 32.3035
 32.2576
 30.7498
 30.5167
 30.6701
 30.9758
 32.4868
 32.4298
 32.4074
 32.5195
 27.329
 27.3801
 27.0193
 27.7482
 32.577
 32.5423
 32.5714
 32.5659
 32.8017
 32.8578
 32.8402
 32.8389
 32.7686
 32.9011
 32.7314
 32.928
 29.1748
 28.9826
 28.7141
 28.5409
 24.3948
 24.657
 30.7727
 27.4601
 31.435
 31.6355
 31.467
 31.47
 32.4987
 32.4989
 32.3752
 32.4585
 29.5659
 29.1668
 29.4236
 29.842
 32.6177
 32.5858
 32.6371
 32.6329
 32.8075
 32.7943
 32.772
 32.7587
 32.6158
 32.582
 32.6576
 32.6497
 26.4519
 26.1766
 26.106
 26.562
 26.436
 26.526
 26.3156
 26.1321
 32.3909
 32.2639
 32.2404
 32.3373
 32.6877
 32.7257
 32.9162
 32.8228
 31.3958
 31.4079
 31.3099
 31.3211
 32.4241
 32.4053
 32.4947
 32.536
 32.8847
 32.7691
 32.8106
 32.8224
 31.4231
 31.2683
 31.639
 31.3673
 32.7407
 32.8341
 32.6956
 32.7628
 30.9049
 31.0822
 30.9692
 30.9436
 32.7812
 32.706
 32.7338
 32.7214
 32.5769
 32.7085
 32.6426
 32.6734
 32.6654
 32.6617
 32.5815
 32.7359
 32.644
 32.6597
 32.6334
 32.6033
 31.6598
 31.637
 31.706
 31.671
 32.4804
 32.5771
 32.5456
 32.8963
 32.8354
 32.8796
 32.8672
 29.0372
 29.0032
 29.2491
 28.861
 32.0729
 32.1161
 31.9959
 32.0982
 32.2758
 32.4334
 32.5414
 32.4142
 30.744
 30.8291
 30.9161
 31.0024
 32.1271
 31.9688
 31.9508
 32.1217
 32.193
 32.1947
 31.9743
 32.0646
 32.7704
 32.8503
 32.8626
 32.8057
 32.8346
 32.8386
 32.8573
 32.8529
 32.8627
 32.885
 32.8984
 32.8831
 29.5633
 29.759
 29.8142
 29.6323
 31.8445
 31.9624
 31.9889
 31.8156
 32.6822
 32.6938
 32.6678
 32.6269
 31.6822
 31.7839
 31.8417
 31.6306
 32.5966
 32.5074
 32.5396
 32.5318
 29.3608
 29.1644
 29.4688
 29.078
 31.8899
 31.8968
 32.0002
 31.8889
 30.5418
 30.3225
 30.6415
 30.7268
 30.3271
 29.5943
 30.1156
 30.134
 32.4515
 32.3886
 32.3398
 32.3413
 30.7991
 30.884
 30.9152
 30.8375
 32.6227
 32.6735
 32.6329
 32.6539
 28.7917
 28.8925
 28.2339
 28.4114
 32.5902
 32.5524
 32.5466
 32.6273
 32.0323
 31.8705
 31.9803
 31.9036
 32.5866
 32.6241
 32.6154
 32.6862
 32.7139
 32.7049
 32.6778
 32.7229
 32.7029
 32.7013
 32.6278
 32.6925
 32.5914
 32.6218
 32.5391
 32.5443
 31.7371
 31.6773
 31.6383
 31.796
 30.095
 29.685
 29.6153
 29.4303
 30.4405
 30.3553
 30.062
 30.3124
 32.1899
 32.1629
 32.2412
 32.1036
 32.1611
 32.0996
 32.1731
 31.097
 31.018
 30.9952
 31.1592
 32.8845
 32.8798
 32.8223
 32.8174
 32.4355
 32.4544
 32.4421
 32.4503
 30.5779
 30.7431
 30.3503
 30.5183
 32.65
 32.615
 32.6198
 32.5881
 32.422
 32.3275
 32.3111
 32.4645
 32.7058
 32.7281
 32.6627
 32.7503
 32.5762
 32.5375
 32.4976
 32.5003
 28.6528
 28.4097
 28.6965
 28.9489
 31.6334
 31.4009
 31.5209
 31.4037
 31.6991
 31.8762
 31.7424
 31.7888
 30.006
 29.9389
 30.099
 30.5825
 28.5897
 28.3503
 28.4024
 28.5345
 32.4093
 32.4448
 32.4053
 32.5086
 23.7912
 24.1147
 23.7185
 24.2296
 32.8655
 32.855
 32.8264
 32.8723
 32.5783
 32.6704
 32.6869
 32.6897
 32.3201
 32.3673
 32.3516
 28.4202
 28.526
 28.6551
 28.5355
 30.7039
 31.0169
 30.6782
 30.969
 30.2197
 30.0643
 29.9584
 29.8669
 31.2618
 31.1642
 31.157
 31.2004
 31.6396
 31.5349
 31.5045
 31.5451
 29.0313
 29.0513
 28.9102
 28.671
 31.3009
 31.1094
 31.2735
 31.5611
 32.44
 32.4158
 32.4414
 32.4773
 31.8163
 31.7212
 31.8545
 31.2259
 31.1229
 31.3144
 32.458
 32.5112
 32.4514
 25.047
 25.3769
 25.5154
 25.127
 32.9053
 32.9331
 32.9919
 32.9332
 32.6574
 32.6804
 32.5847
 32.5908
 32.0893
 32.0432
 32.1577
 32.1763
 31.9976
 32.0381
 31.872
 32.029
 30.0741
 29.6425
 29.5648
 30.1852
 32.9234
 32.8552
 32.9349
 32.7825
 32.473
 32.4744
 32.4624
 32.4854
 32.4814
 32.546
 32.5317
 32.5437
 31.8693
 31.9798
 32.0053
 31.7724
 32.7863
 32.7101
 32.8363
 32.6908
 29.666
 29.7336
 29.5511
 29.8629
 32.2551
 32.2971
 32.2446
 32.2032
 31.5025
 31.4418
 31.4879
 31.6971
 32.2139
 32.3394
 32.3226
 32.1207
 31.9703
 32.0348
 32.0857
 31.984
 32.2129
 32.2634
 32.2337
 32.2673
 30.5453
 30.2719
 32.7373
 32.706
 32.7895
 32.7831
 30.3909
 30.9143
 30.5827
 30.4991
 32.4836
 32.3659
 32.416
 32.3811
 32.1175
 32.2917
 32.111
 32.2405
 31.5503
 31.7129
 31.7093
 31.6125
 32.7383
 32.6592
 32.727
 32.7292
 31.0126
 31.0684
 31.1927
 31.0697
 32.2456
 32.162
 32.2288
 32.2438
 22.5383
 22.8363
 22.5996
 22.5775
 31.963
 32.0145
 31.8869
 32.0182
 31.2724
 31.248
 31.4066
 31.6535
 28.1139
 27.7954
 27.8346
 28.3015
 32.3636
 32.2914
 32.4006
 32.3528
 28.9347
 28.5879
 28.2591
 29.0886
 32.5516
 32.3873
 32.3702
 32.5214
 32.7732
 32.7957
 32.7076
 32.8015
 32.2942
 32.2321
 32.2471
 32.2838
 32.1269
 31.9333
 32.1391
 32.4528
 32.467
 32.5995
 32.573
 22.4335
 22.4045
 22.3825
 22.4587
 31.5072
 31.4509
 31.422
 31.5513
 32.6921
 32.7048
 32.714
 32.6752
 32.7591
 32.815
 32.8963
 32.825
 29.9518
 30.3091
 29.3506
 29.8673
 31.5837
 31.7633
 31.5292
 31.7371
 31.9147
 32.1044
 31.9524
 32.073
 32.0843
 32.1129
 32.0112
 31.9789
 31.7288
 31.5896
 31.51
 31.542
 31.5881
 31.6061
 31.5789
 31.6738
 32.5508
 32.5719
 32.565
 32.5456
 29.8007
 29.8738
 30.0582
 29.8711
 23.3804
 23.7758
 24.002
 23.3037
 32.3823
 32.2444
 32.4042
 32.1384
 32.3906
 32.4153
 32.4472
 32.4502
 32.5146
 32.5552
 32.554
 32.6171
 22.529
 22.3444
 22.6327
 22.3671
 32.2463
 32.1833
 32.2952
 32.2214
 31.7174
 31.7446
 31.8026
 31.7665
 32.5514
 32.4295
 32.4663
 32.4872
 32.2015
 32.2963
 32.1936
 32.3259
 32.1642
 32.2726
 32.2641
 32.2458
 32.4438
 32.3411
 32.423
 32.4151
 32.7193
 32.748
 32.7254
 32.7032
 30.4904
 30.8603
 31.1635
 31.2544
 31.002
 32.8337
 32.9867
 32.9319
 32.8536
 32.846
 32.819
 32.8549
 32.9145
 26.3633
 26.6317
 26.4707
 26.3486
 32.3526
 32.3734
 32.4348
 32.3952
 32.5525
 32.542
 32.4244
 32.4604
 29.9596
 30.4875
 30.371
 30.9193
 30.889
 30.898
 30.8507
 31.0169
 30.9629
 31.1058
 30.7934
 30.3644
 29.8606
 30.2539
 32.711
 32.6621
 32.6661
 32.7428
 31.8558
 31.8512
 31.9196
 31.8339
 32.4916
 32.4768
 32.5418
 32.4115
 31.998
 32.1703
 32.2006
 32.2306
 32.3106
 32.3069
 32.225
 32.3283
 32.6379
 32.6784
 32.6729
 32.6638
 30.1598
 30.1043
 30.0584
 29.7934
 32.6969
 32.6793
 32.6785
 32.6441
 32.9235
 32.8727
 32.8499
 32.945
 30.4931
 30.3562
 29.9659
 30.2023
 31.8608
 31.748
 32.0668
 31.9606
 32.3409
 32.3323
 32.281
 32.304
 32.6474
 32.6511
 32.6592
 32.6787
 27.8313
 27.8869
 28.1456
 28.1807
 32.4647
 32.5157
 32.5446
 32.4665
 32.1486
 31.9452
 32.1844
 32.2459
 32.7466
 32.7329
 32.7358
 32.7545
 31.9128
 32.0142
 31.9518
 31.9641
 31.9473
 32.051
 32.0012
 31.9781
 31.9859
 31.9231
 32.0822
 31.5772
 31.5136
 31.463
 31.3865
 32.3239
 32.4214
 32.4739
 32.3666
 32.3366
 32.3197
 32.366
 32.3588
 31.7584
 31.8184
 31.8801
 31.7788
 32.581
 32.6065
 32.5594
 32.5482
 32.5643
 32.5347
 32.5333
 32.3806
 32.2478
 32.3155
 32.317
 32.199
 32.3435
 32.2761
 32.6421
 32.5709
 32.6224
 32.6492
 32.0314
 31.9683
 31.9518
 32.1679
 32.6863
 32.7211
 32.7371
 32.7311
 31.9606
 31.8818
 31.9671
 32.0093
 31.0972
 31.0774
 31.2528
 30.9983
 32.472
 32.4202
 32.3677
 32.3004
 32.6424
 32.6329
 32.5571
 32.6373
 32.498
 32.6059
 32.5863
 32.6198
 31.149
 31.0147
 31.4492
 31.0567
 29.8389
 29.5776
 29.8861
 29.722
 32.8351
 32.8401
 32.8122
 32.873
 31.4544
 31.5116
 31.5223
 31.5374
 31.21
 30.8751
 31.2323
 31.0451
 29.9817
 30.447
 30.0617
 30.3006
 32.6532
 32.6519
 32.6343
 32.6805
 31.1935
 31.2319
 31.1053
 29.5319
 29.8795
 29.7149
 32.6415
 32.6501
 32.6605
 32.6368
 30.4216
 30.4029
 29.9331
 30.3241
 30.1922
 29.7517
 30.0577
 30.1142
 32.5195
 32.5416
 32.5237
 30.5055
 30.4067
 32.1362
 32.1313
 32.0147
 31.9931
 32.7026
 32.6784
 32.6723
 32.6405
 27.9133
 28.171
 27.6215
 28.3883
 24.6962
 24.7221
 24.2682
 24.7662
 31.4569
 31.0917
 31.3903
 31.3132
 32.258
 32.2683
 32.1928
 32.2357
 32.4034
 32.4602
 32.4413
 32.4546
 28.4289
 28.1992
 28.231
 28.1388
 31.0623
 31.0882
 31.1939
 31.7115
 31.505
 31.5028
 31.4077
 30.7202
 30.9198
 31.0065
 31.0023
 30.8084
 30.6639
 31.0211
 30.9993
 29.9169
 29.4496
 29.8882
 29.6719
 32.0116
 31.8885
 31.9837
 31.9328
 31.874
 31.7866
 31.9766
 32.4726
 32.416
 32.4782
 32.3749
 31.073
 30.7492
 31.1397
 31.0264
 31.5496
 31.4407
 29.6636
 29.4133
 29.453
 29.1455
 32.8633
 32.8929
 32.8646
 32.852
 32.66
 32.6895
 30.489
 30.2503
 30.6009
 30.4992
 31.9566
 31.8755
 31.9916
 31.8165
 31.677
 31.7646
 31.6952
 31.5496
 32.2792
 32.3199
 32.2873
 26.8461
 27.2006
 27.0856
 31.0388
 31.3195
 31.0362
 31.1611
 32.5543
 32.6125
 32.49
 32.57
 31.6136
 31.459
 31.4203
 31.2679
 31.1834
 31.0892
 31.3006
 30.9862
 32.8228
 32.7963
 32.7889
 32.7284
 22.8382
 22.9591
 22.8997
 22.7229
 32.5352
 32.5717
 32.4418
 32.4356
 32.6846
 32.6814
 32.6467
 32.6348
 29.8302
 29.7243
 29.1531
 29.6556
 32.2775
 32.1819
 32.1701
 32.291
 22.6102
 22.3901
 22.5939
 22.4912
 32.0213
 32.1623
 32.1751
 32.1291
 32.1584
 32.3313
 31.5871
 31.6633
 31.6102
 31.7667
 29.2635
 28.8466
 29.1841
 29.4246
 32.3467
 32.2353
 32.2231
 32.2825
 31.5832
 31.6402
 31.6098
 31.4638
 31.4178
 31.4707
 31.4495
 30.9709
 30.8023
 30.551
 28.7994
 29.3474
 29.3882
 32.0613
 31.9618
 32.0255
 32.0713
 30.9442
 30.8251
 30.8213
 30.7591
 32.3051
 32.2915
 28.4666
 28.8278
 28.4813
 28.5018
 32.6869
 32.6981
 32.7332
 32.5912
 31.6917
 31.4957
 32.2318
 32.4874
 32.4022
 32.2817
 31.5875
 31.4842
 31.4895
 31.3769
 31.6385
 31.5295
 31.7092
 31.6722
 28.8839
 28.724
 28.8519
 32.5197
 22.348
 22.4428
 22.3935
 22.3211
 32.2476
 32.1325
 32.1417
 32.3066
 31.3087
 31.3414
 31.7474
 31.6282
 32.437
 32.5368
 32.4903
 32.4247
 31.3466
 31.2085
 31.109
 31.2628
 32.6931
 26.4945
 26.4188
 26.4296
 26.5682
 32.5806
 32.6524
 32.627
 32.6649
 32.2635
 32.2773
 32.1478
 32.3487
 32.4555
 32.5851
 32.464
 32.1766
 32.0008
 32.1681
 32.0928
 30.2507
 30.4147
 30.831
 30.634
 31.9124
 31.8966
 31.9308
 31.8326
 28.4015
 28.4213
 28.443
 27.9636
 31.9931
 31.9329
 31.9344
 31.9313
 32.4462
 32.3866
 32.3802
 32.3438
 32.6196
 32.5903
 32.5568
 32.5464
 32.4606
 32.4548
 32.4497
 32.429
 31.9641
 32.0868
 32.8271
 32.8157
 32.8335
 32.8653
 27.2053
 26.872
 27.5519
 26.9131
 28.95
 28.7193
 29.2369
 28.8136
 32.5312
 32.5441
 32.4803
 32.5194
 32.5845
 32.5811
 32.5785
 32.4909
 32.416
 32.485
 32.4387
 32.4078
 32.1396
 32.2521
 32.2537
 32.3304
 32.4356
 32.4237
 32.4393
 32.5077
 28.7737
 28.8573
 29.0806
 28.5107
 30.3549
 30.1933
 30.1683
 30.6366
 31.4861
 31.5943
 31.6598
 31.638
 32.8433
 32.7547
 32.8308
 32.7542
 30.5381
 30.8327
 30.5281
 30.7484
 23.4137
 23.4254
 23.7302
 23.3139
 32.25
 32.1898
 32.2688
 32.1234
 30.6799
 30.7706
 30.8124
 30.9611
 32.3464
 32.4456
 32.2391
 32.4235
 27.8377
 27.6581
 27.7698
 28.2047
 32.7588
 32.7864
 32.7827
 32.795
 32.0352
 32.03
 32.0752
 32.0286
 32.6712
 32.6658
 32.6536
 32.6524
 32.6768
 32.5956
 32.7168
 32.6922
 27.6198
 27.8816
 28.1501
 27.4779
 31.9798
 32.6205
 32.5928
 32.6629
 32.5651
 32.1802
 32.1063
 31.9971
 31.9669
 32.4024
 32.3519
 32.4021
 32.2771
 30.6576
 30.44
 30.5718
 30.7552
 32.988
 32.9255
 32.976
 27.2741
 27.9778
 27.4301
 27.3255
 32.3186
 32.441
 32.3717
 32.4106
 28.9043
 28.8056
 29.1436
 28.8698
 31.1211
 31.1915
 31.1509
 31.0633
 30.8462
 30.944
 30.9131
 30.9392
 24.5924
 25.6389
 25.5145
 25.0366
 27.4134
 27.3604
 27.6491
 27.5975
 31.4886
 31.604
 31.6225
 31.7115
 31.8857
 31.9308
 31.8917
 31.8563
 32.5432
 32.6176
 32.5595
 32.6117
 31.3259
 31.3414
 31.5194
 32.9276
 32.8437
 32.7886
 32.8045
 32.663
 32.7522
 32.5676
 32.692
 32.5923
 32.6281
 32.619
 32.6448
 32.6105
 32.6045
 32.669
 32.6399
 31.3307
 31.3988
 31.4172
 31.4633
 29.8477
 29.5727
 30.2928
 29.8398
 27.4733
 26.5052
 26.8409
 32.4441
 32.4902
 32.5587
 32.6403
 32.4283
 32.3313
 32.3393
 32.3822
 30.9864
 30.9808
 31.0309
 30.0389
 30.0831
 30.3655
 29.7295
 32.1217
 32.1593
 32.0243
 32.1755
 32.4273
 32.3914
 32.4825
 32.4183
 30.4991
 30.1478
 30.4846
 30.5717
 31.9928
 31.9052
 31.9446
 32.0228
 32.386
 32.366
 32.4358
 32.3995
 31.034
 31.4261
 30.8767
 31.2632
 32.2033
 32.0389
 32.1416
 32.121
 31.4748
 31.7107
 31.5662
 31.9836
 32.0037
 32.0356
 32.1101
 32.4386
 32.5213
 32.419
 32.466
 31.4599
 31.4988
 31.3266
 32.5529
 32.5528
 32.5783
 32.5552
 28.1824
 28.542
 27.8817
 28.158
 32.9234
 32.8928
 32.8295
 32.855
 32.7516
 32.7458
 32.7402
 31.176
 31.2843
 31.403
 31.1591
 28.6288
 28.8296
 28.5125
 28.8875
 30.5667
 30.8364
 30.9751
 30.5681
 24.1176
 24.4625
 24.6097
 24.7756
 31.8235
 31.7608
 31.6681
 31.6875
 31.5022
 31.3148
 31.7374
 31.2395
 31.8992
 32.0948
 32.0505
 31.8713
 29.1574
 29.7157
 29.4479
 29.3964
 32.7125
 32.6998
 32.6992
 32.6497
 31.4295
 31.3852
 31.4337
 31.5036
 31.4047
 31.5769
 31.4895
 31.4898
 32.492
 32.452
 32.4341
 32.4904
 31.5289
 31.4077
 31.4318
 31.6029
 32.108
 32.1169
 32.1203
 31.4049
 31.5765
 31.5376
 31.544
 27.639
 27.3562
 27.5197
 27.2838
 32.2681
 32.2146
 32.1539
 32.2528
 31.6823
 31.9357
 31.7055
 31.9475
 31.7131
 31.49
 31.5782
 31.4963
 31.8698
 31.9226
 31.8196
 31.8083
 32.1257
 32.1012
 32.0576
 31.8948
 30.8577
 30.4578
 30.3538
 30.8054
 32.3788
 32.388
 32.3537
 32.4536
 31.2955
 31.5488
 31.3488
 31.3982
 32.5097
 32.5483
 32.6074
 32.683
 32.7004
 32.7274
 31.9868
 32.0962
 32.1623
 32.0885
 31.9897
 32.0117
 31.9312
 31.9078
 32.6408
 32.6579
 32.6486
 32.5734
 31.6495
 31.4295
 31.5095
 31.7415
 31.405
 31.5188
 31.8892
 31.9345
 31.9486
 31.7843
 27.5483
 27.3231
 27.2415
 26.9136
 32.6342
 32.623
 32.5816
 32.6014
 31.1925
 31.5317
 31.3493
 31.0813
 23.9163
 27.4569
 24.1774
 25.3438
 30.6622
 30.4685
 30.2536
 30.5231
 32.6354
 32.7178
 32.6301
 28.9324
 28.9133
 29.4942
 29.3269
 31.4623
 31.6191
 31.4864
 31.6272
 31.0137
 31.0555
 31.0008
 31.0342
 32.6744
 32.6357
 32.6304
 32.6659
 28.3379
 28.6033
 28.0402
 28.4064
 23.1469
 22.8688
 23.199
 23.3215
 30.3407
 30.5661
 30.3667
 30.2654
 31.8194
 31.7529
 31.8736
 32.7025
 32.7218
 32.7691
 32.7633
 29.9133
 30.079
 29.7369
 32.4573
 32.5077
 32.4181
 32.3827
 32.5683
 32.4554
 32.5344
 32.4607
 32.5861
 32.6315
 32.5903
 32.5851
 31.7259
 31.9676
 31.907
 31.8514
 32.3776
 32.3549
 32.2102
 31.481
 31.5518
 31.5905
 31.6156
 32.4728
 32.5337
 32.7542
 32.8026
 32.7875
 32.8345
 32.6744
 32.6772
 32.6362
 32.6222
 30.8942
 31.0701
 30.9905
 30.7106
 30.7238
 30.8583
 30.6717
 30.8151
 24.1756
 23.2826
 23.2439
 23.5062
 30.5256
 30.8488
 30.542
 31.5532
 31.4613
 31.3982
 31.4326
 32.3887
 32.4061
 32.3819
 32.3633
 31.6795
 31.8565
 31.7792
 31.6913
 27.7376
 28.039
 27.6549
 27.6891
 32.2843
 32.4559
 32.3536
 32.3748
 32.7347
 32.8117
 32.7448
 32.6429
 32.2193
 32.2311
 32.2493
 32.1404
 32.6979
 32.6401
 32.6663
 32.6476
 31.7204
 31.6062
 31.7235
 23.1789
 23.7568
 23.4497
 23.5041
 32.6253
 32.5284
 32.5994
 32.5851
 32.1454
 32.0546
 32.1729
 32.1071
 30.1478
 29.6816
 31.5083
 31.5592
 31.6404
 31.6367
 32.2898
 32.0936
 32.1166
 32.0275
 31.9884
 32.0928
 32.0363
 31.7796
 31.8456
 31.9116
 31.926
 29.6216
 29.6059
 29.8805
 29.5432
 32.3443
 32.342
 31.2964
 31.5413
 31.3746
 31.1797
 32.4293
 32.5215
 32.3886
 32.3725
 28.0228
 28.0154
 27.995
 28.2098
 30.3606
 30.4823
 30.2323
 30.2364
 31.0409
 31.3332
 31.4677
 31.3312
 32.7581
 32.7831
 32.8277
 32.783
 32.6575
 32.6316
 32.6839
 32.7286
 32.5547
 32.5641
 32.6304
 32.5771
 22.4128
 22.3802
 22.3173
 22.3202
 29.0817
 29.5606
 29.5799
 32.6117
 32.6048
 32.6135
 32.6849
 32.6848
 32.7496
 32.5976
 32.0067
 31.9327
 31.9899
 31.8788
 32.2769
 31.1371
 31.1074
 30.8235
 30.8213
 32.7634
 32.7597
 32.7808
 32.7957
 32.3107
 32.4205
 32.4266
 32.3075
 32.5918
 32.6081
 29.8274
 29.7397
 29.5022
 29.4386
 32.4614
 32.4125
 32.4049
 32.47
 28.3866
 28.357
 28.5274
 28.6443
 32.6543
 32.1689
 32.0039
 32.1638
 32.2113
 31.4136
 31.5477
 31.6605
 31.5213
 31.9912
 32.1385
 31.8655
 31.8016
 31.7269
 31.8125
 25.524
 24.9262
 25.1982
 25.3892
 32.4346
 32.4368
 32.5647
 32.4383
 32.9252
 32.8679
 32.7853
 32.7854
 22.8153
 22.8123
 22.8855
 22.6968
 32.3825
 32.4165
 32.4239
 32.3671
 32.5176
 32.4652
 32.377
 32.3781
 30.3107
 29.9708
 30.3612
 30.2571
 31.5564
 31.4123
 31.3957
 31.334
 32.317
 32.2243
 32.323
 31.3407
 31.5193
 31.4935
 31.3646
 31.7733
 31.633
 31.7295
 31.7085
 31.4433
 31.3784
 31.1451
 31.6806
 32.1459
 32.2298
 32.3514
 32.3963
 32.3192
 32.4532
 32.7093
 32.6684
 32.6895
 32.6648
 31.7533
 31.8055
 31.5892
 31.7362
 32.3695
 32.4772
 30.6459
 30.8234
 30.8672
 30.7964
 31.2154
 31.3094
 31.4795
 31.5854
 32.3569
 32.3228
 32.4306
 32.3918
 32.5227
 32.6019
 32.4585
 32.5012
 32.5402
 32.615
 32.5412
 32.4851
 31.2352
 31.5459
 31.4366
 31.2599
 25.3085
 25.1015
 25.2013
 25.3798
 31.5067
 31.3559
 31.4593
 31.3902
 29.4997
 29.5198
 29.5775
 29.8093
 32.7683
 32.6525
 32.7494
 32.6596
 32.1145
 32.3099
 32.1799
 32.2559
 32.7563
 32.762
 32.6871
 32.6434
 32.6157
 32.6284
 32.5347
 32.5037
 32.5538
 32.5054
 32.4505
 32.674
 32.6418
 32.6412
 32.7103
 32.565
 32.5897
 32.5784
 32.6376
 22.7088
 23.0699
 22.6708
 28.5116
 28.9513
 29.1176
 28.958
 32.4528
 32.4399
 32.4392
 32.457
 32.3871
 32.2774
 32.3492
 32.289
 31.0452
 30.7795
 31.0539
 30.9635
 31.0857
 31.1238
 32.7035
 32.7279
 32.7388
 32.7244
 32.6416
 32.5853
 32.6541
 32.6442
 30.9262
 30.9832
 31.0584
 30.8987
 27.4495
 27.491
 27.2776
 26.5986
 32.5414
 32.5836
 31.9057
 32.0643
 32.0925
 31.9264
 32.6144
 32.6809
 32.6477
 32.6099
 32.5597
 32.5916
 32.5856
 32.5615
 32.1385
 32.1624
 32.2783
 32.0492
 32.7393
 32.6973
 32.668
 32.6825
 29.7129
 29.8941
 29.8248
 30.1254
 28.848
 28.4746
 28.8426
 28.7136
 32.2675
 32.2172
 32.1707
 32.0208
 32.6087
 32.6389
 32.6453
 24.667
 24.403
 24.8449
 31.9918
 31.9895
 31.9502
 31.8987
 32.1476
 32.2163
 32.2242
 32.2245
 32.8078
 32.8453
 32.9331
 32.8155
 32.001
 31.9347
 31.9566
 31.9418
 31.6097
 31.3908
 31.6066
 31.4265
 32.1725
 32.2566
 32.2798
 32.2278
 32.1258
 32.0636
 32.0635
 32.0621
 30.9803
 30.9278
 31.0562
 30.8995
 32.5611
 32.5097
 32.5772
 32.449
 32.5659
 32.6085
 32.5828
 32.5669
 32.3268
 32.274
 32.3529
 32.3622
 32.649
 32.6551
 32.6611
 32.6442
 32.6253
 26.3559
 26.3828
 26.2008
 26.0756
 32.5373
 32.5233
 32.4716
 32.5599
 25.5276
 25.6836
 25.7618
 25.82
 26.2118
 26.0315
 26.6875
 26.7368
 32.4761
 32.5176
 32.4738
 32.52
 32.0107
 31.9966
 31.8318
 32.0733
 32.4094
 32.3857
 32.3773
 32.3985
 32.787
 32.7109
 28.1472
 27.7901
 27.9243
 28.432
 31.5946
 31.5415
 31.5
 31.622
 32.3072
 32.3046
 32.5026
 32.4
 32.0107
 32.0151
 32.118
 32.0693
 28.0626
 27.8168
 28.1636
 27.8725
 32.0899
 31.9388
 31.9881
 31.9631
 32.6444
 32.6493
 32.6523
 32.6603
 31.2505
 30.9681
 30.6203
 30.9121
 31.1786
 31.2525
 31.2319
 31.3389
 31.4703
 31.7375
 31.5276
 31.4506
 32.256
 32.2545
 32.3376
 32.1256
 31.6465
 31.6222
 31.7236
 31.6061
 32.775
 32.7303
 32.8195
 32.8217
 32.3955
 32.2956
 32.3235
 32.4046
 32.2665
 32.3122
 32.2984
 32.454
 32.3064
 32.353
 32.3622
 32.4379
 32.3082
 32.3651
 32.3557
 29.4628
 29.9735
 29.9028
 29.5225
 32.2715
 32.1982
 32.1949
 32.2709
 32.2806
 32.3152
 32.235
 32.3095
 30.3443
 30.2614
 30.7371
 30.4611
 30.3772
 30.2226
 30.557
 30.0795
 -37.9388
 -1.69618
 -72.6494
 -76.3691
 32.2287
 32.3524
 32.3062
 26.7112
 27.3918
 27.3467
 26.9702
 31.9243
 31.9878
 31.9858
 31.9406
 30.2962
 32.2517
 32.3295
 32.2513
 32.1779
 32.2573
 32.2746
 32.3679
 22.5357
 22.446
 22.4348
 22.4908
 22.4938
 22.484
 22.5926
 22.4703
 31.8591
 31.9379
 31.8481
 31.7892
 30.5876
 30.4045
 30.7602
 30.3613
 32.6334
 32.6662
 32.5931
 31.7534
 31.5563
 31.7231
 31.4018
 32.3394
 32.3188
 32.2695
 32.0956
 32.1841
 31.9851
 32.9132
 32.8397
 32.8191
 32.8462
 31.8116
 31.6045
 31.6118
 31.7388
 29.9643
 30.0836
 29.8839
 30.0539
 32.7569
 32.7476
 32.7265
 28.3923
 28.478
 27.7821
 27.8703
 30.6332
 31.057
 30.6521
 32.3951
 32.5375
 32.4356
 32.509
 30.2958
 30.6065
 30.608
 30.4667
 30.2106
 30.658
 30.7446
 30.6495
 32.0189
 32.0786
 32.0555
 32.0468
 32.7407
 32.6588
 32.6541
 32.7449
 31.4483
 31.5019
 32.4694
 32.4941
 32.462
 32.4702
 31.666
 32.143
 32.0848
 32.1175
 32.1497
 -88.8406
 -88.5268
 -86.2293
 -79.6542
 32.3677
 32.2875
 32.3591
 31.5213
 31.6041
 31.5964
 31.548
 32.5398
 32.6411
 32.6601
 32.6305
 29.9291
 30.0628
 30.2522
 29.9092
 32.4401
 32.3427
 32.4442
 32.2262
 31.4419
 31.4943
 31.534
 31.5354
 32.2005
 32.2463
 32.3196
 32.2557
 27.8513
 27.3186
 27.2669
 27.9027
 32.2123
 32.2205
 32.2838
 32.0216
 31.9224
 32.0064
 32.0837
 31.9426
 -84.4879
 -83.9607
 -84.6775
 -87.5877
 29.453
 29.342
 29.1587
 29.5699
 32.3495
 32.2503
 32.381
 32.3228
 32.8137
 32.815
 32.7965
 32.7804
 32.4211
 32.3973
 32.4151
 32.54
 32.6025
 32.5465
 32.6248
 32.5785
 32.563
 32.6464
 32.5386
 32.6365
 32.4776
 32.472
 32.5034
 32.4298
 31.1401
 31.3186
 31.2598
 31.0978
 32.3413
 32.3736
 32.3825
 32.5313
 32.6445
 32.6468
 32.7475
 32.701
 32.6591
 32.6717
 32.6544
 32.6778
 32.6928
 31.8644
 31.9255
 31.932
 31.9273
 32.3542
 32.2947
 32.4121
 32.3688
 32.7575
 32.7956
 32.7973
 32.7508
 32.5941
 32.5668
 32.61
 32.64
 31.9905
 31.7393
 31.9141
 31.8175
 23.5619
 23.8529
 24.5155
 23.721
 31.0126
 31.1634
 32.776
 32.7869
 32.7925
 24.9853
 25.7194
 25.5307
 30.8334
 30.6848
 30.8343
 30.573
 26.3495
 26.4117
 25.838
 25.8182
 29.8808
 29.686
 29.98
 29.4666
 31.7714
 31.9195
 31.8542
 31.8352
 32.7039
 32.6588
 32.6665
 32.6819
 32.6376
 32.5849
 32.5333
 32.4705
 32.5509
 32.68
 32.573
 32.7875
 32.6945
 32.5974
 32.699
 32.6461
 32.4849
 32.5066
 32.3471
 32.508
 32.3608
 32.4819
 32.4124
 32.456
 32.5033
 32.3097
 30.8843
 30.5686
 30.9119
 30.6492
 30.9842
 31.0985
 31.0846
 31.0725
 32.8179
 32.7878
 32.7982
 32.816
 32.7335
 32.676
 32.6817
 32.6705
 29.4002
 28.9172
 28.6134
 29.6991
 32.3728
 32.5
 32.5271
 32.5028
 31.2026
 31.2603
 31.1839
 31.2539
 32.2408
 32.2908
 32.3085
 32.3488
 31.1231
 31.0614
 31.1885
 31.0319
 32.1906
 32.0586
 32.0931
 32.0835
 32.8341
 32.8164
 32.7995
 32.7864
 32.589
 32.6265
 32.5079
 32.5954
 32.4812
 32.5349
 30.613
 30.9364
 30.8587
 30.9762
 32.4451
 32.2986
 32.3023
 32.3561
 32.4664
 32.4708
 32.4545
 32.3737
 32.0584
 31.9709
 31.9248
 31.977
 30.1827
 30.1246
 30.2855
 30.6871
 31.4519
 31.2937
 31.2349
 31.5392
 30.8912
 30.9967
 31.1651
 31.009
 23.9617
 24.0365
 23.8197
 23.8217
 32.5268
 32.4736
 32.5326
 32.4685
 32.6944
 32.731
 25.0518
 25.1282
 25.1262
 24.658
 31.7369
 31.7968
 32.6126
 32.6298
 32.6146
 32.4271
 32.3735
 29.3297
 29.1695
 28.9702
 29.5381
 24.3505
 24.7689
 24.6455
 24.7543
 28.7824
 29.1423
 29.394
 29.437
 31.6882
 31.6154
 31.6877
 31.8017
 32.8675
 32.817
 32.8479
 32.8188
 32.3317
 32.3573
 32.3701
 32.3616
 31.438
 31.6697
 31.6716
 31.59
 32.9689
 32.9022
 32.9534
 32.9421
 32.4368
 32.4025
 32.4022
 32.4031
 32.8701
 32.8365
 32.8567
 32.7577
 32.6143
 32.6404
 32.6598
 32.6194
 32.5406
 32.6958
 32.6122
 32.0435
 32.1124
 32.1567
 31.9349
 30.5217
 30.7182
 30.324
 30.7472
 31.7717
 31.8121
 31.7407
 31.6771
 32.7971
 32.7908
 32.7541
 32.8138
 28.6581
 28.7113
 28.0429
 28.6057
 28.0084
 27.9192
 27.8993
 27.6343
 28.6837
 28.39
 28.3938
 28.7308
 30.6736
 30.5787
 30.9689
 31.027
 30.6548
 30.3949
 30.2996
 30.436
 32.2832
 32.2143
 32.1887
 32.145
 32.1036
 32.0932
 32.0676
 32.1763
 32.5894
 32.4886
 32.5345
 32.6092
 30.7444
 31.2184
 30.7057
 30.9528
 31.6989
 31.6636
 31.6838
 31.708
 31.6783
 31.7037
 31.5324
 32.4905
 32.6411
 32.6403
 32.612
 30.9359
 31.0561
 30.7599
 31.0428
 31.3114
 31.4828
 31.4534
 32.1796
 32.1349
 32.0211
 31.9166
 32.2468
 32.2293
 32.3662
 32.342
 32.2577
 32.4069
 31.7323
 31.6474
 31.7221
 28.648
 28.8289
 28.3215
 28.4515
 31.0584
 30.8023
 31.0112
 31.117
 32.8331
 32.8309
 32.8674
 31.6741
 31.823
 31.7995
 32.5594
 32.6537
 32.6479
 32.5961
 31.6512
 31.6607
 31.8109
 31.547
 32.1867
 32.3284
 32.3673
 32.3383
 31.9135
 31.8944
 31.8614
 31.9722
 32.5655
 32.5951
 32.5654
 32.6112
 31.2343
 31.0839
 31.1569
 31.427
 31.5245
 31.483
 31.3471
 32.7091
 32.7802
 32.758
 32.8113
 32.802
 32.5334
 32.5056
 32.5583
 30.9913
 30.8572
 30.9559
 30.9458
 30.9491
 31.2154
 32.5673
 32.45
 32.3717
 32.2732
 32.1885
 32.2864
 32.1655
 32.2444
 32.5395
 31.2954
 31.4732
 31.4755
 31.3488
 22.7964
 22.5716
 22.7827
 22.6792
 31.713
 31.5245
 31.0671
 30.9968
 31.058
 31.1025
 30.9278
 30.9987
 30.5418
 30.7655
 32.4786
 32.5647
 32.58
 32.514
 32.3632
 32.3961
 32.5127
 32.3375
 31.5842
 31.5713
 32.5307
 32.4544
 32.3718
 32.4199
 32.6188
 32.5526
 32.6124
 32.6405
 32.6834
 32.6825
 32.6675
 32.5182
 32.4172
 32.4972
 32.4179
 32.518
 32.3873
 32.423
 32.51
 32.3027
 32.373
 32.2028
 32.3877
 32.2818
 32.2048
 32.2225
 32.5144
 32.5535
 32.4436
 32.5085
 32.2769
 32.3061
 32.3206
 32.2231
 26.1941
 26.0874
 26.4046
 26.4224
 31.7993
 31.7961
 31.6721
 31.7319
 32.2568
 32.3228
 32.3732
 32.3198
 32.8344
 32.9423
 32.9432
 32.8941
 32.2947
 32.3673
 32.4382
 32.4502
 32.822
 32.8786
 32.7929
 32.8262
 32.8219
 32.8181
 32.7989
 32.8052
 32.7164
 32.716
 32.7284
 32.71
 32.6907
 32.6187
 32.6308
 32.1403
 32.1222
 32.2031
 32.1873
 31.7711
 31.9551
 31.8699
 31.8929
 32.6085
 32.6676
 32.6566
 32.6423
 27.3298
 26.9604
 26.8217
 27.233
 30.5348
 30.8779
 30.7274
 30.6724
 30.9832
 30.4863
 30.7049
 30.3605
 30.0319
 30.3258
 30.2711
 30.3749
 32.8353
 32.8387
 32.8121
 28.147
 28.0497
 28.2525
 28.3625
 29.6295
 29.7871
 30.0987
 29.9224
 31.3776
 31.5323
 31.5341
 31.4014
 32.6403
 32.6237
 32.6337
 32.6299
 32.2799
 32.32
 32.4203
 32.3467
 32.8379
 32.8368
 32.8827
 32.8618
 32.671
 32.6564
 32.7074
 32.7163
 31.2124
 31.0073
 31.088
 30.7849
 32.8032
 32.8201
 32.8244
 32.7911
 32.0512
 31.9731
 31.9976
 31.9583
 32.6892
 32.6989
 32.6414
 32.651
 30.222
 30.0692
 30.4246
 30.509
 32.0549
 32.0063
 32.0776
 31.9902
 32.1447
 31.9846
 29.8432
 32.5993
 32.6139
 32.6224
 32.5915
 32.4259
 32.4587
 32.4123
 32.3748
 24.802
 24.7198
 25.1917
 31.7172
 31.5424
 31.5159
 31.3823
 32.7945
 32.7219
 32.7706
 32.679
 32.5175
 32.6056
 32.5454
 32.5737
 32.0006
 31.9394
 31.9384
 31.9707
 30.3493
 30.9449
 30.5754
 31.1768
 31.1715
 30.9581
 31.3633
 26.2016
 25.5455
 25.8377
 26.1605
 30.2464
 30.5904
 30.3896
 32.6599
 32.6146
 32.6493
 29.8356
 29.7682
 29.4283
 29.5939
 32.4551
 32.482
 32.5358
 32.4764
 -87.9795
 -93.945
 -91.8482
 -58.972
 32.2378
 32.1872
 32.185
 28.8136
 28.7277
 28.7922
 28.7545
 32.631
 32.5367
 32.4944
 32.5885
 29.7881
 30.1607
 30.1381
 30.2069
 32.3259
 32.2909
 32.319
 32.2682
 32.2741
 32.3765
 32.3348
 32.2599
 31.7288
 31.7201
 31.6457
 31.8114
 32.9014
 32.8848
 32.8732
 32.8927
 29.3953
 28.8862
 29.3947
 29.0827
 31.5274
 31.4837
 26.7175
 26.7643
 26.7705
 26.8377
 32.8067
 32.8304
 31.8575
 32.0187
 32.0188
 30.6228
 30.8301
 30.9722
 30.8245
 31.6828
 31.611
 31.8202
 31.7862
 31.8655
 31.8677
 31.9208
 31.9017
 31.3436
 31.4924
 31.3985
 31.0487
 28.3182
 28.4615
 32.6555
 32.6431
 32.6383
 32.6321
 31.1592
 30.9912
 31.2169
 31.1354
 32.1928
 32.0898
 32.3881
 30.9925
 30.9635
 31.0888
 32.5886
 32.6337
 32.6045
 32.6352
 32.052
 31.9761
 32.0998
 32.1344
 32.6481
 32.673
 32.6664
 32.6761
 32.633
 32.5603
 32.6008
 32.6464
 29.1714
 29.6121
 29.2295
 29.0741
 31.1294
 31.3189
 31.0361
 31.3312
 32.6446
 32.6247
 32.6252
 32.6259
 31.9862
 32.1336
 32.1762
 31.9707
 29.4407
 29.7145
 29.6983
 30.2082
 32.4747
 32.5891
 32.5194
 32.5518
 32.3739
 32.3853
 32.4315
 32.6242
 32.657
 32.6308
 32.6477
 23.6644
 23.0183
 22.6034
 22.7455
 28.1809
 28.2757
 28.2885
 28.245
 31.8087
 31.7998
 31.8297
 31.9522
 24.7491
 25.1406
 24.4043
 24.9514
 31.9096
 31.8637
 32.0009
 31.5529
 31.6726
 31.7792
 31.6954
 32.4201
 32.2931
 32.374
 32.3487
 32.6614
 32.7116
 32.5607
 32.5734
 32.6406
 32.7981
 32.8167
 32.7872
 32.8355
 29.4855
 29.0356
 29.2986
 31.1349
 31.1462
 31.1583
 30.8965
 23.6012
 24.8837
 23.7179
 25.5667
 25.571
 25.4975
 25.7459
 25.4714
 31.7505
 31.7555
 31.8837
 31.9668
 31.3738
 31.5473
 31.4747
 31.5072
 22.4277
 22.3712
 22.3779
 22.443
 32.5421
 32.4633
 32.5556
 32.4933
 32.9496
 32.8912
 32.9309
 32.9403
 31.3669
 30.9551
 30.9083
 32.3983
 32.4028
 32.311
 32.3234
 31.5699
 31.4726
 31.4657
 29.8764
 30.3344
 30.4066
 32.5209
 32.5596
 32.6887
 32.6529
 31.485
 31.4293
 31.3571
 31.3501
 31.7803
 31.716
 31.9593
 31.9905
 28.5868
 28.3745
 28.3166
 28.7601
 32.5494
 32.5719
 32.5507
 32.6153
 31.6342
 31.7708
 31.7839
 31.8427
 32.0633
 32.0228
 32.0316
 31.9916
 28.0856
 28.0732
 28.227
 28.0785
 32.0755
 32.0117
 31.9966
 32.1386
 31.8688
 31.7025
 31.7369
 31.8713
 31.8721
 31.9299
 32.0352
 32.0358
 32.7376
 32.6962
 32.6781
 32.6866
 32.7833
 32.7619
 32.8327
 31.7766
 31.443
 31.6161
 31.588
 32.2281
 32.2782
 32.2881
 32.1825
 32.5055
 32.4255
 32.3995
 32.4202
 30.9705
 30.9953
 31.1458
 31.0739
 25.1266
 25.4157
 25.3032
 25.3596
 26.8273
 26.636
 26.7909
 27.2312
 29.0932
 29.0495
 29.6231
 29.0376
 31.6617
 31.4896
 31.6292
 31.6609
 32.4433
 32.4756
 32.4772
 31.8149
 31.756
 31.6447
 31.7095
 32.4075
 32.4454
 32.5151
 32.4676
 32.5003
 32.4264
 32.4145
 32.4846
 32.0149
 31.9367
 32.6764
 32.691
 32.7123
 32.6965
 32.1808
 32.137
 31.9717
 32.0669
 32.7654
 32.8088
 32.7534
 32.7882
 31.6308
 31.7698
 31.5645
 31.7673
 27.4644
 27.1408
 27.4556
 27.6222
 25.8263
 23.7215
 27.3551
 24.452
 32.1798
 32.2373
 32.2092
 32.1624
 31.5702
 31.5382
 31.55
 31.4788
 32.528
 32.4278
 32.5274
 32.516
 32.6368
 32.6111
 32.6113
 32.6608
 30.6024
 30.3029
 30.7677
 32.4102
 32.4427
 32.3867
 32.4354
 30.4286
 30.3255
 30.6009
 30.5815
 32.7614
 32.6991
 32.5957
 32.6458
 32.71
 32.7228
 32.7458
 32.6877
 32.658
 32.6428
 32.7741
 31.8171
 31.8985
 31.8953
 31.9026
 32.6321
 32.5491
 24.125
 25.0137
 24.2356
 24.4062
 32.5586
 32.6497
 32.624
 31.5542
 31.5875
 31.6656
 31.4707
 32.9631
 33.0009
 33.0047
 32.4542
 32.4867
 32.5103
 32.4295
 32.7506
 32.7795
 32.7162
 32.7907
 32.6405
 32.5934
 22.4889
 22.5282
 22.4368
 22.4767
 22.538
 23.3201
 23.8823
 22.6626
 32.7514
 32.6596
 32.6967
 32.6896
 32.8974
 32.9302
 32.8274
 32.7656
 22.801
 22.7429
 22.7808
 23.0206
 30.9411
 30.656
 28.9854
 29.097
 29.1638
 29.592
 32.5166
 32.5708
 32.4943
 32.484
 32.6846
 32.6441
 32.6518
 32.6752
 32.6017
 32.6594
 32.667
 32.6543
 31.4956
 31.4874
 31.7264
 31.5128
 29.9422
 29.7985
 29.5515
 29.9412
 26.3808
 27.0443
 26.9031
 26.4644
 29.8562
 29.8932
 29.8873
 30.4247
 32.3763
 32.5382
 32.4488
 32.5284
 32.7256
 32.6744
 32.7255
 24.8926
 25.0135
 25.4176
 32.5512
 32.4344
 32.5267
 32.539
 32.5193
 32.6472
 32.5691
 32.5617
 32.1618
 32.0932
 32.0901
 32.6783
 32.7587
 32.7574
 32.6922
 29.3354
 29.0563
 28.932
 28.9571
 32.4496
 32.4698
 32.3842
 32.442
 28.4792
 28.4267
 28.4455
 28.6118
 28.6148
 28.3551
 28.6125
 31.375
 31.2289
 31.1573
 31.2882
 31.9307
 31.8777
 31.2012
 31.0766
 31.3277
 31.2681
 32.6877
 32.6937
 32.7446
 32.3643
 32.2853
 32.3613
 32.2485
 29.3746
 29.7082
 29.423
 32.4189
 32.3676
 32.4253
 32.4228
 29.8595
 30.2851
 29.9229
 29.8596
 32.5333
 32.6268
 32.5995
 32.5022
 28.6361
 28.8607
 30.0759
 29.7723
 30.1354
 29.8274
 31.2902
 31.2034
 31.2908
 31.2876
 25.6164
 25.4639
 25.0241
 25.3102
 32.5572
 32.4278
 31.6868
 31.8084
 31.82
 31.7872
 31.5149
 31.5725
 31.541
 31.4997
 31.9332
 31.7785
 31.9869
 32.1484
 32.3333
 32.2503
 32.2201
 32.1939
 31.8934
 31.7835
 31.9532
 31.7946
 32.5207
 32.5748
 32.0807
 32.0053
 32.0507
 32.0321
 29.4446
 29.3066
 29.394
 29.7511
 32.1456
 32.1062
 32.0737
 32.169
 31.522
 31.3279
 31.3301
 31.4745
 32.4905
 32.4731
 32.4612
 32.4558
 32.7131
 32.659
 32.7043
 32.7261
 31.9214
 32.0791
 32.0058
 31.9019
 25.0096
 25.372
 25.1674
 24.805
 31.957
 31.7743
 31.9616
 32.0058
 32.1635
 32.2452
 32.1745
 32.146
 32.3296
 32.3163
 29.4479
 29.8566
 29.8048
 29.8035
 32.1511
 32.0132
 32.1031
 32.1263
 30.4678
 30.5295
 30.7454
 29.5895
 29.4512
 29.7399
 29.2975
 28.5497
 28.9721
 28.8749
 29.0625
 32.8549
 32.8724
 32.8548
 32.2267
 32.2141
 32.1593
 32.1789
 32.8144
 32.8216
 32.7013
 29.7712
 29.3767
 29.7427
 32.4881
 32.4801
 32.4684
 32.4909
 32.674
 32.7057
 32.6666
 32.6235
 32.2585
 32.3234
 32.3474
 32.3256
 32.2098
 32.1304
 32.0912
 32.2398
 32.0974
 32.0051
 32.4349
 32.5665
 32.5998
 32.4087
 32.0233
 32.2244
 32.0795
 32.1574
 32.3475
 32.4065
 32.3928
 32.3283
 32.776
 32.6561
 32.5898
 32.6467
 29.8819
 29.6252
 29.9524
 32.695
 32.6748
 32.6849
 32.7175
 31.6792
 31.4198
 31.4673
 31.3792
 23.4646
 23.5936
 23.4666
 23.4067
 32.0124
 31.9348
 31.9811
 31.9532
 31.9878
 32.003
 31.9391
 31.9463
 31.9571
 32.1117
 32.009
 31.9213
 28.8199
 28.7569
 29.0468
 29.1842
 29.5806
 29.2499
 29.1627
 32.3746
 32.3646
 32.3137
 32.7511
 32.1307
 31.822
 31.912
 31.915
 31.9597
 31.9731
 31.9074
 32.1603
 32.1422
 32.0722
 31.8412
 31.9287
 31.7844
 31.8671
 31.2533
 31.1988
 31.1786
 31.1659
 29.9322
 32.874
 32.9396
 32.9705
 32.907
 30.3511
 30.6067
 30.4701
 30.4471
 31.898
 31.8692
 32.0363
 31.8971
 32.4683
 32.3167
 32.4185
 32.4437
 32.3852
 32.3286
 32.4001
 32.4289
 28.6534
 28.7889
 28.9893
 28.5875
 31.4957
 31.6697
 31.5068
 31.4686
 32.9904
 32.9773
 32.9151
 32.9155
 31.7455
 31.5754
 31.701
 31.6753
 32.6464
 32.6553
 32.5903
 32.6083
 30.1654
 30.1299
 30.4261
 30.3592
 31.3789
 31.4925
 31.6362
 31.5303
 32.6455
 32.6442
 32.6392
 32.6211
 31.6875
 31.5095
 31.6248
 31.5765
 29.0622
 29.2251
 29.4538
 29.4307
 25.8799
 25.3583
 26.013
 26.045
 31.8286
 31.775
 31.8171
 31.7185
 25.9564
 25.4744
 26.8846
 26.7231
 26.5205
 26.9875
 32.6279
 32.6543
 32.6158
 32.5519
 31.3628
 31.5518
 31.5423
 31.3421
 31.03
 30.9797
 30.9872
 31.0898
 31.9957
 32.0019
 31.8832
 32.4496
 32.4432
 32.4323
 32.5132
 29.5889
 29.6754
 29.1968
 29.8216
 31.2763
 31.2028
 31.0868
 30.9257
 31.1157
 31.3534
 32.5587
 32.4843
 32.5046
 32.5181
 32.4772
 32.4707
 32.5096
 32.4801
 32.3846
 32.3377
 32.4701
 32.3832
 31.5226
 31.4895
 31.6899
 31.47
 32.37
 32.3318
 32.4303
 32.1266
 32.6924
 32.6229
 32.5909
 32.6046
 32.621
 32.6275
 32.6706
 32.7617
 32.2847
 32.3779
 32.3501
 32.4212
 32.3959
 32.4139
 32.4348
 32.3299
 32.7977
 32.8218
 32.7896
 32.0926
 31.8068
 31.9881
 31.8881
 32.57
 32.5341
 32.6017
 32.5137
 31.8824
 31.9877
 31.8006
 22.2758
 22.3597
 22.2291
 22.2588
 32.285
 32.1859
 32.2191
 32.0609
 32.1775
 32.0212
 32.1032
 22.6333
 32.678
 32.6737
 32.6572
 32.6575
 32.8412
 32.8131
 26.5546
 26.8036
 26.7294
 26.7417
 29.3457
 29.4182
 29.6799
 29.1113
 31.2006
 31.2846
 31.0711
 30.6109
 30.2367
 30.4055
 30.7918
 30.3599
 30.3161
 30.6376
 32.2072
 32.0531
 31.9788
 32.0693
 32.4594
 32.6141
 30.8993
 30.9214
 30.0981
 30.495
 29.9039
 30.2611
 32.3504
 32.2939
 32.4591
 32.3681
 28.7069
 28.8722
 28.228
 28.2941
 32.1774
 32.1444
 32.3122
 32.2587
 31.9889
 32.064
 31.9809
 32.0659
 32.4322
 32.4341
 32.3994
 32.4121
 32.8809
 32.9693
 32.9479
 32.9733
 32.8555
 32.821
 29.7991
 32.477
 32.3966
 32.437
 32.4081
 31.5649
 31.5633
 31.398
 31.6076
 32.0984
 31.9727
 32.112
 32.0518
 -90.6784
 -85.771
 -82.4367
 -69.4634
 31.7162
 31.7036
 31.7911
 31.7675
 30.7826
 30.7583
 30.4028
 31.0339
 32.1623
 31.8387
 31.9996
 31.8264
 32.7712
 32.7813
 32.6624
 32.7377
 32.7302
 32.71
 32.7599
 32.7574
 29.3817
 30.1922
 29.8308
 29.9109
 31.8221
 31.7397
 31.8218
 31.809
 32.1836
 32.0913
 32.1333
 32.0662
 32.2755
 32.2558
 32.2127
 32.2097
 31.7437
 31.8115
 31.8394
 31.7524
 31.5623
 31.7878
 31.7848
 31.8564
 29.799
 29.7876
 29.9728
 30.0148
 32.1782
 32.2767
 32.2811
 32.2613
 32.7
 32.5337
 32.6302
 32.5273
 32.3045
 32.2627
 32.2361
 32.2846
 23.1037
 22.6989
 22.6261
 22.7036
 31.6469
 31.6393
 31.9517
 31.9267
 32.0267
 31.8981
 27.7482
 27.213
 27.0292
 27.9917
 31.5897
 31.2074
 31.2358
 31.0112
 32.1113
 32.2022
 32.1067
 32.0527
 32.417
 32.4503
 32.2961
 32.4404
 31.8225
 31.8561
 31.6903
 31.6821
 31.5079
 31.5094
 31.5634
 31.6635
 32.7085
 32.6859
 32.6993
 32.7078
 32.5617
 32.5801
 32.5744
 32.5159
 32.503
 32.471
 32.422
 32.4047
 32.5052
 32.4745
 32.5427
 32.5658
 32.1925
 32.2427
 32.0207
 31.4271
 31.6479
 31.5288
 31.8151
 27.1691
 26.9365
 26.8272
 27.5372
 31.7143
 31.7536
 31.8117
 31.8356
 32.7015
 32.6552
 32.663
 32.6641
 31.373
 31.3534
 31.39
 31.5365
 31.7577
 32.1082
 31.9201
 31.9652
 28.6203
 28.6158
 28.2973
 27.9787
 32.4841
 32.4766
 32.5103
 32.5709
 32.5603
 32.5197
 32.5581
 32.8351
 32.8213
 32.8472
 32.8361
 26.7036
 26.7054
 26.7444
 27.1463
 32.6514
 32.623
 32.6334
 32.6322
 31.9943
 32.0234
 31.9461
 31.9699
 32.7009
 32.527
 32.6933
 32.4934
 28.4826
 28.2142
 28.3318
 28.5169
 30.2743
 30.5985
 30.3312
 29.989
 30.8285
 30.8542
 30.7994
 30.7971
 31.6275
 31.7089
 31.6675
 31.3175
 32.6644
 32.7064
 32.6765
 32.7029
 30.9655
 30.932
 31.0169
 31.0174
 32.0682
 31.9554
 31.99
 32.444
 32.5005
 32.3791
 32.3594
 32.0237
 32.0939
 31.9127
 32.0743
 23.1613
 23.3733
 23.6233
 23.4423
 30.7076
 30.84
 30.4576
 31.6209
 31.4344
 31.4618
 31.5012
 32.7904
 32.8099
 32.7654
 32.7677
 32.2603
 32.3124
 32.198
 32.3317
 29.3717
 29.2987
 28.8553
 28.7006
 32.4248
 32.5684
 32.3976
 32.5492
 32.5129
 32.5715
 32.5932
 27.0275
 27.3886
 27.6872
 27.5404
 30.0257
 29.5041
 29.8858
 29.6708
 31.9096
 31.462
 31.43
 31.4095
 31.3434
 23.7934
 23.7531
 23.4159
 23.2955
 32.4602
 32.3534
 32.3802
 32.3637
 32.5397
 32.5368
 32.4715
 32.5513
 22.4278
 32.1316
 32.2228
 32.0845
 31.657
 31.5548
 31.6407
 31.6161
 32.7534
 32.6706
 32.731
 32.7861
 32.7106
 32.723
 32.7143
 32.7185
 30.623
 30.23
 32.5675
 32.527
 32.5534
 32.6009
 30.7517
 30.5767
 30.3492
 30.5683
 31.7261
 31.6136
 31.8783
 31.7925
 32.5655
 32.5816
 32.5529
 32.5083
 25.0256
 25.1272
 25.0625
 25.5559
 29.2244
 28.9447
 29.1347
 28.8119
 26.2121
 26.4814
 28.1532
 28.0779
 28.1156
 28.1671
 27.7894
 27.288
 28.0111
 27.4771
 31.5453
 31.6468
 31.679
 31.7114
 32.8181
 32.7812
 32.7979
 32.7299
 32.0997
 32.3079
 32.0729
 32.1981
 32.4867
 32.4726
 32.4549
 32.4792
 31.433
 31.4392
 26.7168
 26.5024
 26.561
 26.7109
 31.5184
 31.4421
 31.5337
 24.0133
 23.8011
 24.067
 23.7281
 31.5482
 31.6477
 31.6043
 31.6665
 31.7753
 31.6232
 31.879
 31.6487
 32.4032
 32.4517
 32.3716
 31.3922
 31.4327
 31.4427
 31.3718
 32.7025
 32.7044
 32.699
 32.7132
 32.4915
 32.5019
 32.5552
 32.5291
 31.7253
 31.6805
 32.2699
 32.1562
 32.262
 32.1442
 32.7216
 32.7602
 32.7107
 31.3821
 31.5524
 31.5789
 31.4676
 32.3068
 32.3646
 32.2886
 32.325
 32.1089
 32.0286
 31.4749
 31.4063
 31.2978
 31.652
 24.4734
 24.5301
 24.9428
 32.9286
 32.8754
 32.8676
 32.8883
 31.6571
 31.6446
 31.6272
 26.2917
 25.8819
 26.1452
 32.2606
 32.3071
 32.3501
 32.2133
 32.5479
 32.5632
 32.6147
 32.6069
 23.0644
 22.9954
 23.1047
 23.0719
 32.196
 32.183
 32.2664
 32.2682
 32.4181
 32.5422
 32.5319
 32.4859
 31.9439
 31.91
 31.9758
 31.5478
 31.552
 31.3255
 31.4074
 32.5651
 32.4985
 32.5265
 32.5766
 31.9
 31.9258
 32.0061
 31.9902
 31.8114
 31.6804
 31.8328
 31.5952
 31.4449
 32.7404
 32.5254
 32.5045
 32.5591
 32.4933
 32.6497
 32.6319
 32.6922
 32.6957
 32.4346
 32.4107
 32.4542
 32.5365
 32.6062
 32.6346
 32.5981
 32.6082
 32.1755
 32.2126
 32.1187
 32.1401
 32.5875
 32.5388
 32.5754
 32.6257
 32.4641
 32.5041
 32.5083
 32.5441
 32.0522
 31.996
 31.9205
 32.1382
 32.5092
 32.4816
 32.4706
 29.0123
 29.0792
 29.0654
 29.4821
 32.6247
 32.7948
 32.598
 32.5965
 32.7446
 31.7325
 31.7209
 31.8575
 31.8368
 31.5573
 31.6894
 31.6214
 32.707
 32.7119
 32.7043
 32.5529
 32.479
 32.5949
 32.5203
 32.6291
 32.6536
 32.5507
 32.5677
 31.9212
 31.8816
 31.8078
 31.8894
 30.5776
 30.3846
 30.6871
 30.0676
 32.6772
 32.7646
 32.7742
 32.7033
 32.5831
 32.5682
 32.5079
 32.6789
 32.4491
 32.4152
 32.3821
 32.3387
 32.5738
 32.5623
 32.6007
 32.5148
 32.3425
 32.4505
 32.3274
 32.3982
 32.4639
 32.2678
 32.3456
 32.3577
 26.5429
 26.5806
 26.5153
 26.6928
 26.3039
 26.7911
 26.7215
 32.652
 32.6929
 32.7392
 32.7332
 32.7675
 32.6159
 32.6936
 32.7595
 32.5166
 32.5226
 32.5834
 32.4981
 31.7789
 31.7821
 31.8877
 31.9217
 32.4329
 32.504
 32.4936
 32.4117
 31.0993
 31.2926
 31.22
 31.2927
 29.7152
 30.1511
 29.9623
 29.4677
 32.1346
 32.1838
 32.2288
 32.1397
 23.8114
 23.3617
 23.4626
 23.9318
 31.8186
 31.9694
 31.8617
 31.8684
 28.4645
 28.9471
 28.8696
 30.6216
 30.6388
 30.7638
 31.1083
 32.4535
 32.549
 32.483
 32.5299
 30.5995
 30.0049
 30.2913
 30.3354
 26.8703
 27.9636
 27.1308
 23.4309
 23.6145
 23.8482
 23.644
 31.3769
 31.3418
 31.2881
 31.2215
 30.6696
 30.4561
 30.6782
 30.7592
 32.641
 32.6606
 32.6731
 32.6288
 31.8952
 31.9797
 32.0409
 31.9918
 32.3327
 32.2255
 32.3797
 32.3045
 30.8788
 30.9259
 30.7256
 30.8564
 28.5657
 28.0626
 27.6587
 28.1773
 32.7662
 32.7546
 32.7403
 32.735
 28.4036
 29.1429
 32.4488
 32.329
 32.4129
 32.3875
 32.2191
 32.2162
 32.1536
 32.2397
 32.0679
 32.0904
 32.0159
 29.2273
 29.3386
 29.2074
 32.488
 32.504
 32.4985
 32.4723
 32.6236
 32.6236
 32.6185
 32.6208
 31.0392
 31.3792
 31.2311
 31.0661
 32.4326
 32.3147
 32.4538
 32.3922
 32.5736
 32.4581
 32.5216
 32.6115
 28.507
 28.517
 28.3756
 28.4738
 32.217
 32.4059
 32.281
 32.6794
 32.67
 32.6974
 32.6229
 32.6065
 32.646
 32.6365
 31.3677
 31.4804
 31.4528
 31.5155
 25.8694
 25.5873
 25.9601
 25.3445
 31.6346
 31.8752
 31.8222
 31.7128
 31.5727
 31.5336
 31.3568
 31.6106
 31.2654
 31.3077
 31.1585
 31.0605
 32.5604
 32.4846
 32.5116
 30.9329
 30.956
 30.7498
 31.0032
 32.1114
 32.2422
 32.1647
 30.6867
 30.7008
 30.4378
 30.514
 24.0665
 23.0464
 24.7087
 23.8542
 31.7983
 31.7786
 31.7809
 31.8849
 29.334
 29.1674
 28.8808
 28.5191
 31.6448
 31.7524
 31.7682
 31.7311
 30.2363
 30.6063
 30.3083
 30.4811
 24.1316
 25.9817
 24.7805
 24.51
 27.3119
 26.8879
 27.3383
 27.4755
 29.6165
 29.8191
 30.2415
 29.522
 32.5226
 32.4711
 29.4591
 29.6601
 29.0442
 29.1188
 32.8296
 32.9162
 32.9194
 32.8927
 32.653
 32.656
 32.6954
 32.7667
 31.9756
 32.0685
 31.8614
 31.8618
 32.0202
 32.133
 32.1013
 31.9868
 32.3236
 32.2605
 32.3096
 32.4491
 32.0211
 32.0119
 31.9888
 32.0709
 32.5072
 32.5549
 32.4781
 32.5337
 32.2749
 32.194
 32.2223
 32.2873
 26.3801
 25.8706
 25.7534
 26.5082
 31.7484
 31.713
 31.7221
 31.7398
 32.3633
 32.3431
 32.0913
 32.1103
 32.5418
 32.5945
 32.6135
 32.0826
 31.9862
 31.9827
 32.099
 29.5298
 28.9738
 28.9616
 29.0728
 27.0789
 26.9111
 26.7176
 26.8683
 32.3367
 32.3357
 32.4517
 32.2908
 32.197
 32.2055
 32.2808
 32.1035
 32.6258
 32.6702
 32.6201
 32.5255
 32.5319
 32.534
 32.4752
 32.1346
 32.0595
 31.9607
 32.7137
 32.7277
 32.7308
 32.7685
 31.3517
 31.2915
 31.31
 31.3587
 32.6946
 32.6517
 32.6563
 32.6221
 32.5687
 32.6608
 32.5419
 32.62
 32.9582
 32.9403
 32.8679
 32.8593
 32.3495
 32.2239
 32.1671
 32.2501
 32.242
 32.2834
 32.3201
 32.205
 32.1972
 28.6995
 28.7044
 28.7172
 28.7468
 32.4039
 32.4741
 32.4156
 32.4856
 32.6508
 32.8273
 32.7671
 32.7317
 22.5508
 22.4441
 22.4324
 22.5119
 32.6924
 32.7474
 32.7835
 32.6794
 32.5804
 32.5627
 32.5168
 32.5399
 32.6163
 32.6629
 29.0171
 29.1773
 29.404
 29.1117
 31.6089
 31.7252
 31.6615
 31.5305
 29.8434
 29.6772
 29.4578
 29.4511
 31.2629
 31.4136
 31.374
 31.2582
 30.3894
 30.3717
 30.1108
 30.3685
 32.5713
 32.5629
 32.5013
 32.444
 31.7829
 31.7411
 31.8539
 31.7956
 30.9348
 30.7889
 30.5814
 30.8775
 32.7685
 32.8231
 32.8187
 32.7175
 32.3109
 32.4428
 32.3876
 32.4364
 32.3615
 32.2502
 32.1174
 32.3231
 30.9049
 31.0574
 27.5532
 27.8347
 27.9957
 27.5156
 32.9031
 32.8667
 32.7147
 32.7743
 32.1317
 32.1689
 32.1702
 32.0791
 31.8102
 31.8945
 31.8987
 31.7524
 22.5179
 22.8034
 32.3475
 32.4414
 32.4173
 32.5109
 31.8971
 31.7221
 31.8328
 31.8998
 31.7992
 31.8339
 30.2714
 30.4975
 30.4076
 30.6098
 32.6459
 32.5697
 32.6966
 26.6509
 27.1219
 27.0688
 27.3172
 31.9337
 31.8795
 31.9792
 31.9277
 31.8253
 31.8005
 31.7981
 31.352
 31.4073
 31.4846
 31.4497
 32.8986
 32.7851
 32.883
 32.827
 32.4921
 32.5473
 32.4707
 32.5231
 32.3615
 32.2699
 32.2119
 32.2942
 32.5084
 32.4613
 32.4134
 32.4893
 32.6291
 32.525
 32.5406
 32.793
 32.8154
 32.7486
 32.7732
 32.6538
 32.5395
 32.5882
 32.6576
 32.2278
 32.1672
 32.2458
 32.2704
 32.8013
 32.7414
 32.8295
 32.8557
 32.7165
 32.7292
 32.7282
 32.6536
 32.5891
 32.5715
 32.5656
 32.6223
 23.6454
 24.3681
 23.0186
 22.9594
 30.3279
 30.1998
 30.1987
 29.9214
 32.6119
 32.5664
 32.5546
 32.5482
 30.7744
 30.8647
 30.5598
 30.429
 29.5109
 28.9333
 29.5342
 29.8799
 32.0111
 31.9861
 31.9127
 32.0647
 31.9361
 32.0261
 31.97
 31.9621
 31.7028
 31.8192
 31.6924
 31.7054
 32.169
 32.1814
 32.1087
 32.1186
 32.3193
 32.1303
 32.1613
 32.1319
 30.7213
 30.6188
 30.8311
 30.4677
 32.7442
 32.7788
 32.7632
 32.8036
 30.8863
 30.9801
 30.9812
 31.0136
 27.6708
 27.7403
 27.9369
 28.2487
 32.5177
 32.5748
 32.5265
 32.5619
 31.7555
 31.6582
 31.45
 32.1784
 32.2739
 32.4364
 32.3179
 28.375
 28.0673
 27.6254
 28.1029
 30.7984
 30.7846
 30.591
 30.7136
 32.6922
 32.6423
 32.6848
 32.6028
 32.9105
 32.9029
 32.9082
 31.376
 31.4884
 31.5181
 31.4255
 31.6821
 31.5637
 31.5271
 31.6061
 32.064
 32.192
 31.9856
 32.1956
 32.522
 32.532
 29.2269
 29.2148
 28.8148
 29.4455
 32.9318
 32.8306
 32.9168
 32.9706
 31.6458
 31.6391
 31.7439
 31.6708
 30.5922
 30.6262
 30.7081
 32.4481
 32.5388
 32.445
 32.3399
 32.1018
 32.2619
 32.281
 32.2396
 32.5249
 32.6032
 32.5907
 32.5049
 32.2852
 32.3327
 32.3729
 32.3309
 32.6678
 32.6097
 32.5882
 32.6718
 32.2489
 32.2803
 32.1691
 32.162
 32.0144
 32.1488
 32.3154
 32.246
 32.254
 32.3192
 32.6566
 32.6851
 32.7041
 32.3165
 32.3744
 32.3046
 32.3428
 32.7524
 32.7585
 32.7688
 32.7391
 30.5345
 30.1151
 30.4312
 29.9697
 32.309
 32.2863
 32.4075
 32.8581
 32.8928
 32.7791
 32.8641
 32.4601
 32.4396
 32.4883
 29.7289
 29.9309
 29.5113
 32.8271
 32.83
 32.8392
 32.8405
 32.4883
 32.4597
 32.5122
 22.7302
 22.8188
 22.9909
 22.5498
 32.5784
 32.6331
 32.6323
 32.5948
 31.9581
 31.6973
 31.7323
 31.6808
 32.4005
 32.422
 32.3972
 32.2808
 32.1803
 32.2906
 32.1538
 32.1822
 29.8534
 30.3105
 29.6828
 29.8408
 32.8403
 32.9105
 32.8638
 31.4455
 31.2767
 31.4243
 31.3857
 31.9347
 32.0994
 32.0319
 32.5782
 32.6287
 32.6014
 32.5991
 32.6871
 32.6838
 32.6826
 32.6444
 32.0432
 31.9475
 31.9807
 32.0491
 17.3162
 -35.3291
 17.5335
 29.4936
 31.0712
 31.1278
 31.2798
 31.0673
 32.7074
 32.6744
 32.6655
 32.7057
 27.7509
 27.3874
 27.2734
 32.3911
 32.4278
 32.402
 32.3836
 31.7773
 32.6494
 32.6485
 32.7961
 32.7462
 32.3959
 32.3917
 32.3374
 32.3066
 32.5121
 32.6544
 32.663
 32.6206
 32.7199
 32.7633
 32.6044
 32.5705
 32.5566
 32.5768
 23.4317
 23.8089
 23.2067
 23.5976
 31.4926
 31.3898
 31.2935
 31.1297
 31.1824
 31.3812
 31.1999
 31.9074
 31.6493
 31.9211
 31.9156
 32.5206
 32.5211
 32.6048
 32.5855
 32.4728
 32.4704
 32.4694
 32.4616
 32.215
 32.2485
 32.1845
 32.2613
 32.7229
 32.73
 32.7477
 32.849
 26.3915
 26.4726
 26.0075
 26.1889
 32.4127
 32.3889
 32.4456
 32.4055
 30.9802
 30.9531
 31.0093
 31.2147
 30.5217
 30.2226
 30.2379
 30.4016
 28.102
 28.2564
 28.1098
 28.087
 25.1678
 24.9663
 24.6427
 25.2611
 31.2447
 31.4265
 31.3641
 31.362
 24.0931
 24.2223
 23.7627
 24.5074
 32.5297
 32.4766
 32.5219
 32.4613
 31.2966
 31.3436
 31.3711
 31.3668
 32.1446
 32.1367
 32.23
 32.2748
 28.6532
 32.0417
 32.0942
 32.068
 31.9867
 30.5898
 25.9648
 26.6335
 26.7806
 26.1964
 32.8826
 32.8372
 32.4434
 32.5718
 32.4751
 32.561
 31.8904
 31.9221
 31.851
 31.8784
 31.193
 31.3144
 31.1891
 32.3363
 32.2579
 32.2284
 32.2061
 32.2033
 31.5823
 32.6344
 32.6934
 32.6875
 31.9496
 31.8948
 31.8442
 31.9618
 32.0712
 32.071
 32.0567
 31.9634
 31.4639
 31.5881
 31.2868
 31.2844
 32.6501
 32.7251
 32.7323
 32.6206
 31.5261
 31.4218
 31.5462
 31.5046
 32.1628
 32.203
 32.1336
 32.2049
 32.6914
 32.6535
 32.6497
 25.4256
 25.1395
 25.9283
 25.3342
 25.8536
 24.2873
 26.3171
 23.1293
 28.4375
 27.7685
 27.7345
 28.0273
 32.5696
 32.5926
 32.6377
 26.508
 27.0214
 26.7909
 26.319
 32.0913
 32.1022
 32.0045
 32.512
 32.4227
 32.5235
 32.4942
 30.7082
 30.5765
 32.7364
 32.4749
 30.9467
 31.0571
 30.9498
 31.3213
 31.3146
 31.3072
 31.2664
 32.4364
 32.3103
 32.4819
 32.4022
 31.4168
 31.3516
 31.2357
 31.4989
 32.5702
 32.6741
 32.7655
 32.6993
 31.7307
 31.7199
 31.7151
 31.7472
 32.5947
 32.6062
 32.6323
 32.6675
 28.0733
 28.1116
 28.2423
 28.607
 32.7246
 32.718
 32.7479
 32.6606
 32.8931
 32.8364
 32.8939
 32.8862
 32.539
 32.4344
 32.4833
 -86.454
 -90.1462
 -89.5739
 31.3958
 31.3308
 32.1156
 32.1499
 31.9337
 32.1886
 32.6079
 32.5133
 32.6231
 32.5789
 32.6207
 32.6084
 32.5158
 32.6802
 32.6838
 32.6779
 32.5955
 22.7665
 22.7266
 27.8625
 27.7836
 28.0317
 27.9136
 32.6477
 22.8786
 22.5515
 22.712
 22.5221
 30.9509
 31.2837
 31.002
 31.014
 32.2788
 32.1653
 25.2411
 26.1844
 25.9148
 25.455
 31.1984
 31.0625
 31.1601
 31.1793
 31.52
 31.5343
 31.61
 31.3895
 30.0274
 30.6361
 30.265
 30.5758
 31.7614
 31.6791
 32.0385
 32.0044
 31.3491
 31.2295
 31.349
 32.5043
 32.5393
 32.5617
 32.4849
 28.568
 28.7181
 28.9976
 29.0691
 32.7525
 32.7154
 32.7347
 32.9622
 33.0016
 32.9519
 32.9115
 31.2883
 31.3186
 31.4544
 31.363
 30.9147
 31.2424
 31.3901
 31.0285
 30.3189
 30.0292
 30.1043
 30.4025
 32.2069
 32.12
 32.3454
 32.3591
 32.5586
 32.5977
 30.954
 31.0174
 31.0692
 30.8368
 31.3726
 31.5423
 31.5206
 31.5113
 29.799
 30.0115
 29.8001
 30.0543
 26.4954
 26.4363
 27.0498
 26.66
 32.8628
 32.7351
 24.0523
 24.1504
 23.7714
 24.3765
 31.9873
 32.2463
 31.8804
 31.853
 31.9385
 31.8089
 31.8206
 24.4805
 24.1406
 24.4639
 30.3804
 30.3578
 30.7179
 30.6026
 25.9295
 30.6253
 30.4103
 30.5694
 30.1333
 32.591
 32.544
 32.5834
 32.6869
 32.1476
 32.1638
 32.2228
 32.1427
 31.7345
 31.6056
 32.8573
 32.9282
 32.9597
 32.9183
 30.2991
 29.8001
 30.2658
 29.8782
 31.6443
 32.0721
 31.8737
 31.6307
 32.0135
 32.0824
 32.0626
 32.0834
 32.4904
 32.5672
 32.652
 32.5888
 32.8662
 32.1565
 32.08
 32.1649
 31.7826
 31.8345
 31.6345
 31.8763
 32.6107
 32.6085
 32.5783
 32.6648
 32.2267
 32.0948
 32.0878
 32.2503
 31.7395
 31.8426
 31.8514
 31.8007
 30.9855
 30.9308
 31.0619
 30.3493
 30.6359
 30.9386
 30.6573
 32.8851
 32.7397
 32.8452
 32.8549
 32.5006
 32.5118
 32.4465
 32.4084
 31.3578
 31.4539
 30.8247
 30.8491
 30.664
 31.0356
 32.2987
 32.449
 32.4509
 32.4624
 32.4767
 32.4678
 32.4507
 32.4267
 32.3951
 32.4991
 32.2179
 32.3268
 32.3338
 32.2417
 32.4839
 32.4859
 32.4652
 31.9941
 32.1604
 32.161
 32.1336
 32.3362
 32.358
 32.3066
 32.2552
 32.3927
 32.2028
 32.295
 30.9848
 30.6488
 30.4236
 30.7715
 32.483
 32.5303
 32.5608
 32.4914
 32.179
 32.1922
 32.0707
 28.1855
 28.1495
 28.2463
 28.1649
 31.3027
 31.3099
 31.3832
 31.471
 32.4565
 32.3883
 32.5591
 31.2875
 31.4319
 31.4671
 32.6042
 32.5681
 32.589
 31.3297
 31.1184
 31.4491
 31.1714
 31.5162
 31.5551
 31.5288
 31.4512
 32.6901
 32.6899
 32.6649
 32.6427
 32.295
 32.2497
 32.092
 32.1514
 32.4431
 32.4219
 32.4795
 32.4671
 27.2167
 26.8977
 26.8155
 31.9494
 31.9543
 31.8591
 31.9837
 32.4612
 32.3551
 32.4892
 32.4923
 32.4424
 32.4741
 32.5392
 32.6014
 32.514
 32.5032
 32.5229
 32.5755
 31.6155
 31.5857
 28.0164
 28.4686
 28.3206
 28.6256
 32.3036
 32.345
 32.2612
 32.3562
 32.0254
 31.9772
 31.9073
 32.0671
 32.5899
 32.5504
 31.5904
 31.5832
 31.6577
 31.5092
 32.285
 32.1985
 32.3145
 32.097
 31.441
 31.4583
 31.3305
 31.2459
 32.5615
 32.6141
 32.5666
 32.552
 32.4249
 32.5076
 32.4945
 32.4899
 32.5715
 32.5595
 32.5912
 31.0512
 31.1468
 30.8159
 30.7771
 26.0407
 25.8905
 26.4064
 32.7602
 32.7764
 32.7953
 32.0512
 32.132
 32.0565
 32.1688
 32.1121
 32.1768
 32.2523
 32.1664
 30.1112
 29.5936
 29.5445
 30.0784
 32.826
 32.8925
 32.7053
 32.83
 32.1627
 32.3131
 32.138
 31.6245
 31.5688
 31.692
 31.695
 28.7909
 29.0187
 29.3044
 29.5413
 29.6078
 32.5753
 32.6037
 32.6139
 32.5235
 32.7679
 32.8758
 32.736
 32.8737
 29.632
 29.7828
 30.0079
 29.7211
 32.8327
 32.828
 32.8514
 32.7987
 31.6631
 31.4685
 31.839
 31.7442
 32.0582
 32.0491
 31.9139
 31.2963
 31.2791
 31.4246
 31.4191
 32.5908
 32.6172
 29.3341
 29.7924
 29.568
 29.4394
 30.1111
 29.6225
 29.8533
 29.727
 31.8029
 31.9001
 30.3
 30.6908
 30.4087
 30.2288
 32.5808
 32.5452
 32.5701
 32.6188
 32.1794
 26.5218
 26.0081
 26.1873
 32.9169
 32.8473
 32.8365
 32.9146
 31.9029
 31.9012
 31.955
 31.851
 27.1859
 27.3274
 27.4623
 26.997
 29.5649
 29.867
 29.4939
 29.5589
 32.4507
 32.3631
 32.3475
 27.7655
 27.8145
 28.0919
 28.2323
 31.333
 31.5047
 31.3726
 31.3289
 28.3128
 28.7027
 28.8502
 28.067
 32.6524
 32.6789
 32.6556
 32.6211
 32.1034
 32.167
 32.1484
 32.0308
 29.4648
 29.6217
 29.652
 31.8607
 31.9996
 31.8621
 31.9946
 28.9679
 28.5342
 28.9168
 28.8504
 29.9534
 29.6835
 29.8933
 32.5197
 32.5283
 32.4771
 32.4206
 32.4781
 32.691
 32.6651
 32.6514
 32.6684
 31.8436
 31.9493
 31.9432
 31.9578
 32.8178
 32.8336
 32.7839
 32.8136
 32.4396
 32.4023
 32.4256
 32.4852
 29.6315
 29.3909
 29.8832
 30.7716
 30.6839
 32.8266
 32.7637
 32.8568
 32.7861
 31.9358
 31.8144
 32.5432
 32.5186
 32.4905
 32.5307
 28.9169
 28.8045
 29.3152
 32.0162
 32.013
 32.0926
 32.0255
 32.5876
 32.5033
 32.5836
 32.5363
 29.2167
 28.9549
 29.1993
 29.3966
 32.713
 32.7184
 32.7867
 32.7101
 32.7702
 32.6759
 27.1826
 26.9517
 27.086
 26.708
 30.5481
 30.977
 31.2312
 31.1322
 31.3279
 31.2406
 31.0669
 30.7465
 30.8106
 30.994
 32.8256
 32.7146
 32.784
 32.4768
 32.5208
 32.4926
 32.5332
 31.0367
 30.9963
 30.9972
 31.0062
 31.9728
 31.9381
 32.5176
 32.5399
 32.6982
 32.6669
 32.6956
 32.7035
 32.4353
 32.5288
 32.5297
 32.46
 24.397
 24.7891
 24.6615
 25.0533
 32.5479
 29.0125
 29.4363
 29.1532
 29.0103
 31.5876
 31.5619
 31.6355
 32.5631
 32.678
 32.6698
 32.5682
 32.4709
 32.4974
 32.4922
 32.4014
 32.7189
 32.7179
 32.6808
 30.146
 30.4224
 30.2507
 30.0179
 31.8693
 31.8011
 32.0041
 31.8507
 32.7562
 32.7641
 32.7033
 32.6918
 31.9602
 31.9535
 32.0716
 32.0135
 28.9091
 29
 28.4991
 28.5344
 30.9914
 31.163
 32.572
 32.616
 32.6566
 32.6353
 31.7788
 31.856
 31.8495
 31.8509
 31.0558
 31.02
 31.0867
 30.9521
 32.0242
 32.0837
 31.9847
 32.7542
 32.7724
 32.8133
 32.7857
 32.3029
 32.2418
 32.1762
 32.2421
 28.3301
 28.6699
 29.187
 28.6542
 32.2054
 32.1762
 32.1463
 32.7194
 32.7215
 32.704
 32.6851
 28.8039
 28.6739
 28.8902
 28.4436
 32.4106
 32.2987
 32.4194
 32.3876
 32.5924
 32.5974
 32.5892
 32.5814
 31.504
 31.4907
 31.6953
 31.7343
 27.8632
 27.9707
 27.2861
 27.2997
 32.2649
 32.2309
 32.2819
 32.2336
 23.5998
 23.5942
 24.3603
 24.0325
 30.2218
 30.4704
 30.2206
 30.8496
 30.5774
 30.4854
 30.3469
 22.4641
 22.4724
 22.4283
 22.5328
 32.1462
 32.2423
 32.2414
 32.2127
 32.2506
 32.1535
 32.1832
 31.2481
 31.5731
 31.4692
 26.2282
 26.3068
 26.0405
 28.4526
 28.0287
 28.4297
 28.5227
 31
 30.9739
 31.2065
 30.784
 32.7403
 32.7014
 32.7547
 32.7544
 24.3476
 24.2734
 24.5972
 24.0522
 32.8673
 32.8744
 32.8588
 32.8414
 32.3147
 32.2372
 32.3635
 32.3087
 32.8759
 32.7958
 32.8257
 32.6918
 32.2676
 32.1967
 32.3529
 29.3414
 29.257
 29.4394
 29.6488
 31.9535
 31.8503
 31.8529
 31.8423
 32.2632
 32.1568
 32.2548
 32.2571
 31.2716
 31.4244
 31.2799
 31.2134
 31.5456
 31.511
 31.4688
 31.9233
 31.7957
 31.913
 31.8795
 31.8838
 31.7983
 31.952
 31.8629
 24.8836
 24.8717
 22.3783
 22.3785
 22.3627
 22.436
 32.502
 32.5182
 32.5101
 32.5076
 32.491
 32.5167
 32.47
 32.8395
 32.8622
 32.8706
 32.8361
 -74.502
 32.2845
 32.6677
 32.6134
 32.4511
 32.3645
 32.4371
 32.3816
 26.2229
 31.7425
 31.8891
 31.7292
 30.9209
 31.0076
 31.0043
 31.0058
 32.8103
 32.8099
 32.8457
 32.8741
 31.3711
 31.4954
 31.4108
 31.4793
 32.3743
 32.4238
 32.2133
 31.9773
 32.2209
 32.0886
 32.2729
 32.1924
 32.3355
 32.2634
 32.9059
 32.891
 32.8738
 32.9595
 28.3972
 28.0916
 28.7519
 28.6308
 32.26
 32.0688
 32.1324
 31.6642
 31.5514
 31.5371
 31.678
 32.3001
 32.303
 32.3926
 32.3002
 31.2598
 31.2402
 31.6657
 31.1982
 31.3161
 31.1768
 31.1933
 31.179
 32.0986
 32.0097
 32.018
 32.0198
 32.1282
 32.3666
 32.1468
 32.4775
 32.4458
 32.5133
 32.5337
 29.6989
 30.0268
 29.4351
 29.4752
 32.7324
 32.8065
 32.7547
 32.7757
 28.9503
 29.1922
 28.9108
 29.0255
 32.5863
 32.4532
 32.4443
 32.5048
 32.3836
 32.3347
 32.273
 32.4835
 27.9928
 27.8857
 28.1147
 32.5451
 32.57
 32.2804
 32.381
 32.3587
 32.4491
 32.2696
 32.2086
 32.1679
 28.5325
 27.9275
 27.9033
 28.1477
 32.6856
 32.6508
 32.7324
 32.6471
 32.7323
 32.7765
 32.683
 32.747
 26.6848
 26.2271
 23.9961
 24.6775
 32.9741
 32.892
 32.921
 23.0634
 23.3243
 23.4125
 32.5902
 32.6244
 32.7108
 32.7849
 32.7316
 28.9621
 29.1214
 28.5282
 28.7558
 32.329
 32.4177
 32.4793
 32.3845
 32.4163
 32.4163
 32.4441
 32.5452
 32.5451
 32.5831
 32.5778
 32.6783
 32.5917
 32.5309
 31.0589
 31.1232
 31.1761
 31.2613
 30.9382
 31.4362
 31.3389
 31.2317
 27.3134
 27.4223
 27.5014
 27.4986
 31.8394
 31.762
 32.0563
 31.865
 32.1506
 32.0526
 32.0891
 32.1845
 29.477
 25.4979
 27.9643
 24.2965
 32.6948
 32.7881
 32.6732
 32.6721
 27.2396
 26.8609
 27.0665
 27.0183
 32.353
 32.4977
 32.5
 32.4371
 32.1249
 32.2227
 32.2454
 32.1597
 32.5945
 32.532
 31.2988
 31.1158
 31.1137
 31.2298
 31.8314
 31.8644
 31.845
 32.3846
 32.5133
 32.445
 32.3803
 30.4374
 30.8199
 30.5438
 30.2009
 31.8128
 31.7716
 31.9486
 -86.8197
 -85.7852
 -84.3117
 -86.347
 32.6473
 32.6757
 32.7411
 32.0201
 31.909
 31.9353
 31.9834
 32.2573
 32.2973
 31.904
 31.8415
 31.7385
 31.9063
 32.3215
 32.2856
 27.3517
 27.3468
 26.814
 27.7428
 32.3696
 32.4
 32.3771
 32.474
 32.6313
 32.5759
 31.6772
 31.8568
 31.8306
 31.7253
 32.6883
 32.6599
 32.5538
 32.6456
 31.4609
 30.8142
 30.78
 31.2715
 32.0136
 32.037
 31.9683
 31.7569
 32.5279
 32.4994
 32.5809
 26.3925
 26.129
 26.083
 26.4567
 32.6502
 32.6912
 32.7022
 32.6813
 30.9511
 30.6317
 30.6348
 30.5068
 31.2773
 30.9435
 31.1568
 29.2046
 27.1145
 31.7387
 27.2881
 28.1181
 28.8959
 29.126
 28.4962
 32.0897
 32.1821
 32.0978
 32.1693
 32.9195
 32.9437
 32.8904
 31.9722
 29.3512
 29.5303
 29.4165
 29.7868
 31.9469
 31.8288
 31.9966
 32.0213
 32.6667
 32.5628
 32.5416
 32.61
 29.4886
 29.4654
 30.2222
 25.8717
 32.5706
 32.5308
 32.5819
 32.5498
 29.5728
 30.1486
 22.3177
 22.5498
 29.4679
 29.7717
 29.4205
 28.926
 32.5464
 32.4972
 32.3358
 32.34
 32.2718
 32.3569
 32.0656
 32.2503
 32.1735
 32.2405
 31.782
 31.7598
 31.6401
 31.7771
 31.9501
 31.9738
 31.6092
 31.605
 32.4482
 32.4298
 32.4536
 32.5634
 30.2517
 30.2617
 30.4373
 30.4908
 32.2728
 32.2092
 32.3204
 32.2275
 32.2893
 32.3383
 31.8718
 31.8973
 32.7075
 32.6827
 32.704
 32.6972
 32.7416
 32.689
 32.6781
 32.6311
 32.6531
 32.6168
 32.6468
 32.6527
 32.3331
 32.4691
 32.3781
 32.2563
 30.1103
 29.7258
 29.9898
 29.9368
 31.8624
 31.8208
 31.8877
 31.6427
 31.6651
 31.7752
 31.6929
 29.2531
 29.7359
 29.6787
 29.412
 32.3139
 32.4638
 32.4132
 32.4337
 29.441
 29.5779
 29.741
 30.0027
 32.6564
 32.4918
 32.5007
 32.5395
 32.5746
 32.2006
 32.1897
 32.1777
 32.27
 23.5413
 23.3133
 23.3339
 23.7978
 32.3877
 32.3293
 32.2575
 32.3238
 32.698
 32.5882
 32.6361
 32.5626
 32.6465
 32.7248
 32.7181
 32.6869
 32.4413
 31.1302
 31.1824
 31.3235
 31.2434
 32.3107
 32.3155
 32.4243
 32.3786
 22.795
 22.7779
 22.9763
 22.6933
 32.3379
 32.1667
 32.0838
 32.256
 31.7542
 32.4011
 32.4708
 32.4565
 32.4219
 32.0171
 32.0202
 32.0871
 32.1588
 32.1192
 32.063
 32.0277
 32.0223
 32.2194
 32.1052
 32.1724
 24.1442
 23.8733
 32.4991
 32.4606
 32.3705
 31.0844
 31.1107
 30.9428
 31.282
 32.5771
 32.614
 32.5202
 32.5961
 32.6466
 32.6312
 32.6563
 32.5882
 32.7114
 31.6093
 31.7744
 31.7546
 31.6153
 32.6033
 32.5762
 32.49
 32.5863
 32.331
 32.4223
 32.2811
 32.4724
 28.639
 28.7275
 28.5074
 28.8461
 31.2915
 31.4538
 31.2285
 31.3029
 32.4803
 32.506
 32.4381
 32.506
 31.4254
 31.4941
 31.4457
 31.3159
 31.4341
 31.1373
 31.4555
 31.4609
 32.4586
 32.4592
 31.8164
 31.6991
 31.8382
 31.7639
 32.5889
 32.5697
 32.5432
 32.5499
 32.5008
 32.5734
 32.8354
 32.5933
 32.7357
 32.7811
 32.0671
 32.142
 32.1531
 32.0723
 31.7119
 31.4505
 31.3569
 31.5943
 27.2416
 27.5731
 27.2532
 27.2887
 28.2205
 28.261
 28.2243
 28.1304
 31.7844
 31.9524
 31.9578
 31.8687
 32.2343
 32.1522
 32.1597
 32.3809
 32.214
 32.3001
 32.3559
 32.6126
 32.6085
 32.5544
 32.6601
 26.9405
 26.9333
 27.0707
 32.3488
 32.0825
 32.2577
 32.2044
 32.7467
 32.9058
 32.82
 32.7859
 31.1856
 30.9313
 31.3337
 30.8179
 31.3134
 31.557
 31.4644
 31.4768
 32.6516
 32.6416
 32.6251
 32.6185
 32.67
 32.603
 32.7314
 32.7602
 32.7036
 32.7127
 32.6269
 32.6271
 28.1742
 28.303
 28.4673
 32.281
 32.2911
 32.2113
 32.3027
 31.0505
 31.2233
 31.0534
 30.8659
 32.5798
 32.5979
 32.5232
 32.6197
 32.581
 32.6711
 32.623
 32.4724
 32.5222
 32.4848
 32.4337
 32.6671
 32.6429
 32.6227
 32.6692
 32.6342
 32.6626
 32.5461
 32.2205
 32.0719
 32.1735
 32.864
 32.9089
 32.9353
 32.7912
 31.9241
 31.8395
 31.9733
 31.9335
 31.9327
 31.9558
 32.0496
 32.7679
 32.6606
 32.7454
 32.7133
 31.5247
 31.3668
 31.5733
 31.3084
 30.0407
 32.0999
 32.1643
 32.0484
 32.0693
 31.9891
 32.1662
 24.4722
 -18.7625
 29.4794
 19.7445
 32.4377
 32.5105
 32.3995
 32.3451
 32.45
 31.4033
 31.2543
 32.6119
 32.6552
 32.6711
 32.684
 32.0802
 32.1405
 32.1307
 32.5561
 32.3963
 32.5415
 32.4221
 31.3999
 31.4172
 31.2542
 31.5098
 22.4588
 22.5555
 22.5602
 22.4437
 32.6853
 32.6924
 32.6959
 32.6768
 32.1828
 32.055
 32.2303
 32.4
 32.38
 32.3755
 32.4572
 31.1299
 30.576
 30.7181
 30.3575
 30.9422
 31.0074
 29.8888
 30.1686
 29.7773
 31.2978
 31.4027
 32.0971
 32.1836
 32.0594
 32.2406
 32.844
 32.7397
 32.7884
 32.4942
 32.5529
 32.4567
 32.4385
 31.3045
 30.877
 30.8971
 31.1004
 32.4891
 32.4572
 32.4985
 32.4961
 32.5894
 32.666
 32.6323
 32.5794
 30.6537
 30.7768
 30.5671
 31.3011
 31.2083
 31.3139
 31.315
 30.9774
 30.8599
 30.9591
 30.8181
 28.17
 27.6041
 31.8478
 31.9035
 31.8762
 31.994
 32.4733
 32.5752
 32.54
 32.511
 32.673
 32.6869
 32.6632
 32.704
 28.3102
 28.6184
 32.4558
 32.4472
 32.4576
 32.4012
 32.3801
 32.3231
 32.3026
 32.4109
 32.3604
 32.4179
 32.4515
 32.4081
 32.4798
 32.5479
 32.5338
 32.469
 31.1304
 31.1634
 32.7405
 32.7491
 32.7511
 32.7118
 32.5433
 32.5913
 32.5165
 32.6655
 32.6594
 32.6432
 32.6825
 29.9025
 30.12
 29.855
 30.2807
 22.4915
 22.4334
 22.452
 22.4927
 32.7232
 32.6635
 32.7074
 32.7846
 32.6581
 32.6465
 32.6524
 32.6655
 32.0189
 32.0922
 31.9794
 32.0083
 31.6424
 31.5572
 31.7231
 31.7687
 32.3057
 32.1874
 32.8098
 32.7925
 32.8435
 23.9524
 23.7344
 23.6941
 24.1671
 30.6374
 30.2977
 30.882
 30.2253
 32.6185
 32.6139
 32.6059
 32.6071
 32.3712
 32.3427
 32.3119
 32.531
 32.4552
 32.3552
 32.3701
 31.0132
 31.2296
 31.2436
 30.9817
 32.5257
 32.5882
 32.6087
 32.5485
 32.4253
 32.4531
 32.4523
 32.4371
 32.0375
 32.0202
 31.9974
 32.466
 32.4633
 32.4744
 32.4376
 32.1188
 32.2484
 32.0096
 32.1035
 32.5329
 32.5012
 32.5166
 22.4477
 22.4622
 22.4198
 22.4277
 31.1058
 31.1889
 27.1965
 26.8798
 27.3188
 27.6876
 30.4059
 28.7236
 31.9536
 31.2351
 30.8796
 31.1873
 30.7288
 31.3194
 32.6164
 32.6364
 32.6186
 32.6477
 31.4844
 31.7455
 31.6404
 32.0503
 32.1407
 32.1458
 32.1227
 32.1193
 32.2757
 32.1511
 32.4064
 32.4954
 32.3834
 32.4481
 29.2218
 28.6815
 28.6038
 29.0679
 31.5966
 31.5707
 31.5903
 31.7166
 32.7954
 32.6597
 32.6571
 32.4211
 32.3466
 32.3907
 32.595
 32.6805
 32.669
 32.6135
 31.241
 31.3421
 31.0189
 31.1382
 32.9583
 32.9127
 32.9515
 31.471
 31.524
 31.5176
 31.2603
 32.3145
 32.4624
 32.3221
 32.2675
 32.2344
 32.1638
 31.9604
 31.8141
 31.8762
 31.949
 30.436
 30.7261
 30.3756
 30.677
 32.4214
 32.5184
 32.5266
 32.402
 32.8751
 32.9278
 32.8613
 32.8597
 32.337
 32.1118
 32.2993
 32.2848
 31.9586
 31.9826
 32.0153
 32.0342
 32.7358
 32.6269
 32.7535
 32.5788
 32.6111
 32.555
 32.5662
 32.6449
 32.2281
 32.1762
 32.2643
 32.252
 30.7129
 31.067
 30.2025
 30.4869
 30.6904
 30.3102
 26.5262
 25.8554
 26.2294
 26.4923
 32.986
 32.9774
 32.8445
 32.8697
 32.6483
 32.7468
 32.6642
 31.8845
 31.8544
 31.8183
 31.8164
 31.1948
 31.1585
 31.2293
 31.7813
 31.7614
 31.9013
 32.6797
 32.6708
 32.6329
 32.6736
 32.4777
 32.4105
 32.3789
 32.507
 32.3795
 32.2814
 32.3839
 32.2793
 31.3129
 31.1074
 31.1471
 31.2944
 27.4659
 27.9062
 28.1638
 28.1437
 31.3277
 31.3335
 31.4126
 31.1927
 30.8004
 30.7514
 30.6069
 30.8607
 32.487
 32.4783
 32.4688
 32.4677
 31.2189
 31.3279
 31.428
 31.1951
 32.4003
 32.4368
 32.4096
 32.4267
 32.1872
 32.1229
 32.1753
 32.1115
 31.0427
 30.8449
 30.7938
 28.7803
 29.2378
 28.9669
 28.6128
 29.5899
 29.3831
 29.6096
 29.3501
 29.9872
 29.8434
 30.9611
 31.1854
 30.6764
 32.0553
 32.0989
 32.1133
 32.1572
 32.058
 32.1581
 32.1009
 32.1449
 32.6927
 32.665
 32.6937
 32.6802
 32.4341
 31.7275
 31.6909
 31.7221
 31.7528
 28.4652
 28.3211
 28.4201
 28.2256
 31.4731
 31.3478
 31.5062
 31.3211
 32.0631
 32.0985
 32.2184
 32.552
 28.7709
 28.685
 28.4289
 30.6856
 30.458
 30.2128
 30.8091
 32.6445
 32.6613
 32.6614
 32.7173
 32.3109
 32.2829
 32.3808
 32.2666
 32.3105
 32.6591
 32.6763
 32.7274
 32.48
 32.5173
 32.5248
 32.5538
 31.5009
 31.5747
 31.359
 31.3742
 32.1145
 31.8452
 32.0453
 32.0471
 32.5796
 30.6608
 30.7223
 30.7875
 32.2284
 32.2691
 32.214
 32.241
 32.2339
 32.2391
 32.137
 32.2859
 31.8118
 31.7918
 31.8381
 31.4272
 31.4236
 31.3202
 31.4525
 28.3616
 27.8635
 28.2418
 31.9959
 32.0633
 31.8658
 31.909
 31.9905
 31.9637
 32.6691
 32.7157
 32.7653
 31.427
 31.4728
 31.4049
 31.5228
 32.3218
 32.3937
 32.3615
 32.2797
 32.4594
 32.6991
 32.5407
 32.5487
 32.8924
 32.8917
 32.8197
 32.8649
 30.8568
 30.8676
 30.7565
 30.9207
 31.9601
 31.9214
 31.9778
 31.8235
 31.8116
 31.9126
 31.592
 32.0064
 32.1187
 32.1469
 32.1865
 32.053
 32.0317
 31.9069
 32.008
 32.6486
 32.6971
 32.7333
 32.7383
 31.5382
 31.6027
 31.7132
 31.5698
 32.0112
 32.03
 32.0837
 32.0948
 32.6598
 32.6457
 32.6525
 32.6516
 32.2897
 32.2951
 32.2285
 32.304
 32.5572
 32.4838
 32.487
 32.4625
 31.5117
 31.326
 31.4756
 31.3211
 31.3164
 31.1818
 31.2206
 32.9551
 32.9622
 32.8996
 32.9849
 32.5773
 32.4956
 32.5602
 32.5896
 32.4525
 32.5056
 32.4979
 32.4793
 32.1901
 32.2054
 32.0899
 32.1464
 32.6709
 32.5538
 32.7193
 32.6571
 32.6792
 32.682
 32.6628
 32.7137
 27.9701
 28.0444
 27.915
 27.9219
 32.3975
 32.3638
 32.4722
 32.5015
 28.3216
 28.3339
 28.2677
 31.0912
 30.9512
 30.927
 31.093
 30.061
 30.2789
 30.7903
 30.3478
 32.2475
 32.3484
 32.2704
 32.1999
 32.4982
 32.3665
 32.4434
 32.4877
 31.8817
 31.7358
 31.8539
 31.7133
 31.1799
 31.2372
 31.3403
 22.4404
 22.4064
 32.7071
 32.679
 32.7105
 32.7177
 25.5769
 25.2272
 24.7534
 25.1263
 32.5201
 32.5518
 32.4347
 32.4234
 32.2632
 31.5106
 31.4192
 31.359
 31.2152
 32.5106
 32.4388
 32.4434
 32.3975
 32.2714
 32.2775
 32.1833
 32.3027
 28.0717
 28.084
 32.6816
 32.6652
 32.5535
 32.6344
 32.7841
 32.8266
 32.8257
 32.842
 31.4707
 31.4154
 31.3119
 31.627
 32.8419
 32.729
 32.6652
 32.8341
 32.3129
 32.394
 32.2289
 31.9486
 32.0037
 31.9949
 32.0461
 31.2791
 31.2531
 31.2391
 31.72
 31.6195
 31.6397
 31.764
 31.7632
 31.8966
 31.8999
 31.9272
 29.224
 28.8517
 29.0156
 29.16
 32.6359
 32.4891
 32.5812
 32.6002
 32.9682
 32.9421
 32.945
 32.932
 31.881
 31.922
 31.9481
 31.7918
 32.54
 32.491
 32.5998
 32.6162
 24.5596
 24.2638
 24.0548
 24.3334
 32.4164
 32.3578
 32.4183
 32.4298
 32.1701
 32.224
 32.2961
 32.1145
 32.4481
 32.3907
 32.4531
 32.5519
 29.8486
 29.5471
 29.4494
 29.4147
 32.8529
 32.8971
 32.75
 32.7213
 31.7608
 31.5925
 31.5532
 27.9722
 27.7821
 27.7204
 27.6448
 32.5339
 32.4788
 32.5396
 32.4787
 32.5206
 32.5842
 30.6547
 30.2585
 30.0063
 30.4387
 30.4435
 30.6027
 30.7841
 31.8496
 -52.2072
 18.4729
 20.9298
 -64.4945
 32.2407
 32.3431
 32.1699
 32.2577
 29.4147
 32.1081
 32.0804
 32.0219
 32.2396
 32.1122
 31.987
 32.2927
 30.9274
 31.2653
 31.0921
 31.0653
 24.2723
 24.2842
 24.4761
 23.7626
 29.1987
 29.5642
 29.6014
 32.7096
 32.7016
 32.6808
 31.6944
 31.6193
 31.0389
 31.1703
 31.1893
 29.8659
 30.171
 29.5965
 31.9018
 31.9792
 32.0706
 31.7156
 31.5979
 31.6535
 32.4275
 32.4226
 32.3353
 32.4468
 31.1082
 31.1828
 31.2773
 28.0167
 27.5369
 31.6888
 31.8343
 31.67
 31.705
 26.0198
 25.9568
 25.5889
 26.3571
 30.1242
 29.9883
 22.5374
 22.9236
 22.877
 22.9479
 22.9522
 32.0836
 32.1021
 31.9623
 31.6407
 31.8082
 31.8089
 32.5913
 32.5516
 32.5023
 31.1144
 31.2269
 31.3447
 31.4853
 31.3514
 32.1125
 27.9585
 28.0003
 28.1302
 28.1802
 32.2763
 32.4915
 32.2952
 32.4159
 32.5474
 32.6179
 32.5545
 32.277
 32.2909
 32.3298
 32.2919
 32.027
 32.0648
 32.2053
 32.2615
 32.8235
 32.7428
 32.7271
 32.7376
 32.3878
 32.4703
 32.4263
 32.3386
 32.7724
 32.4139
 32.5666
 32.4535
 32.4118
 31.6145
 31.5495
 31.6052
 31.7091
 30.7635
 30.1832
 30.1263
 30.6418
 31.6843
 31.6453
 31.6974
 31.7227
 23.006
 22.6855
 23.2893
 31.599
 31.6562
 31.4433
 31.5749
 30.6777
 30.5488
 30.2808
 30.3165
 32.3901
 32.4734
 32.4305
 32.3598
 30.1797
 30.2486
 29.3685
 29.5602
 31.3731
 32.1668
 32.2874
 32.2523
 32.3321
 32.1146
 32.018
 32.0583
 28.6463
 28.8493
 28.3842
 28.1883
 32.2665
 32.3788
 32.3163
 32.3676
 32.6707
 32.7064
 32.6866
 32.6596
 32.6752
 32.6956
 32.6823
 32.6872
 31.2747
 31.4013
 32.2665
 32.2672
 32.1946
 32.4814
 32.5885
 32.6343
 32.6005
 32.6719
 32.7142
 32.5363
 32.5592
 32.5379
 32.4785
 32.4839
 32.4482
 32.6412
 32.6723
 32.5667
 32.6026
 30.8306
 30.7141
 31.3179
 31.1304
 31.1479
 31.9822
 32.0856
 32.0202
 32.0194
 27.3758
 26.9679
 26.9785
 26.9795
 32.307
 32.0889
 31.9544
 24.8886
 24.8684
 25.2118
 31.9598
 31.8972
 31.6754
 32.0336
 30.898
 31.3066
 30.8901
 32.5381
 32.6406
 32.603
 32.5191
 32.5588
 32.5956
 32.6838
 32.6673
 29.7187
 29.7367
 30.7229
 30.2508
 32.9061
 32.8994
 32.9581
 32.9468
 32.1624
 32.2229
 31.165
 31.2569
 31.3276
 31.1636
 32.4846
 32.5821
 32.4932
 32.6474
 32.2463
 32.2558
 32.2207
 32.3084
 31.5082
 31.4968
 31.325
 31.5664
 31.6709
 31.6111
 31.5947
 32.7651
 32.6442
 32.6663
 32.6936
 28.4764
 28.3692
 28.7434
 32.5481
 32.5526
 32.616
 32.5195
 28.6346
 28.178
 28.7327
 28.101
 32.5881
 32.6099
 32.5952
 32.734
 28.1712
 28.1936
 28.0872
 28.2643
 30.8543
 30.9694
 31.0466
 30.9794
 31.5267
 31.6605
 31.5402
 31.6108
 32.4444
 32.462
 32.4462
 32.4617
 31.7203
 31.6392
 31.7701
 31.6783
 32.8177
 32.7679
 32.2092
 32.0487
 32.0546
 32.0691
 32.3674
 32.5002
 32.5042
 32.6202
 32.4481
 32.4785
 32.4848
 32.4549
 29.0517
 29.3689
 29.002
 31.9912
 31.9081
 31.8512
 29.8722
 28.6692
 31.218
 25.8097
 30.92
 30.9886
 28.5862
 28.6207
 28.4891
 28.0951
 32.4989
 32.4956
 32.4974
 32.5152
 24.8121
 25.2961
 25.5632
 25.0867
 30.1333
 29.9971
 29.5046
 32.7341
 32.6822
 32.6783
 32.7011
 30.3365
 30.5541
 30.1954
 29.7893
 29.7507
 29.4403
 29.5037
 31.9489
 31.9075
 31.9325
 32.046
 32.3506
 32.1136
 23.0595
 23.1779
 30.7919
 30.5426
 32.3199
 32.2095
 32.2557
 32.2379
 32.6278
 32.6268
 32.648
 32.5662
 32.3585
 32.4028
 32.4082
 32.3934
 28.7622
 27.9877
 28.5889
 28.3623
 32.7154
 32.7084
 32.7265
 28.6444
 28.5982
 28.7511
 28.7449
 31.8288
 31.7878
 31.729
 31.8194
 32.7228
 32.7214
 32.7681
 32.7962
 29.4371
 29.6303
 29.313
 32.5942
 32.4925
 32.5907
 32.5858
 28.4605
 28.3855
 28.5445
 29.8859
 30.2793
 30.1336
 30.0012
 30.0184
 29.9352
 30.267
 30.0477
 32.6414
 32.5482
 32.5721
 32.4697
 31.6235
 31.7143
 31.8682
 31.7686
 32.7927
 32.635
 32.5897
 32.8104
 32.3421
 32.1548
 32.2832
 32.6408
 32.6293
 32.6109
 31.9543
 32.0234
 31.9519
 31.9877
 32.6631
 32.6097
 32.6817
 32.6076
 32.4619
 32.5252
 32.4438
 32.5845
 27.7813
 27.7818
 29.3055
 29
 29.6524
 29.6703
 22.5302
 22.4752
 22.5455
 22.5529
 32.5475
 32.4969
 32.5413
 32.5348
 30.6522
 30.3475
 30.3569
 30.354
 32.5083
 32.4997
 32.5018
 32.4727
 27.0804
 26.7225
 26.9264
 26.6358
 32.6844
 32.6784
 32.6638
 32.6729
 32.2185
 32.3069
 32.4897
 32.3851
 32.387
 32.4295
 32.3332
 32.3402
 32.3576
 32.1335
 32.1773
 32.2917
 32.2243
 31.587
 31.3911
 31.4811
 31.3817
 29.8015
 29.4617
 30.0985
 32.1563
 32.1331
 32.0791
 32.2592
 31.9755
 31.8888
 31.9126
 31.8714
 32.294
 32.2299
 32.1926
 32.7297
 32.7443
 32.6941
 32.7757
 32.3194
 32.262
 32.2895
 32.2258
 29.5189
 29.7289
 29.3808
 -87.2868
 -61.941
 -55.9968
 32.4971
 32.3941
 32.4327
 32.83
 32.7978
 32.8403
 32.8337
 31.9724
 31.9481
 32.0173
 31.8084
 32.5706
 32.5174
 32.4034
 32.4479
 23.7943
 24.1968
 23.4272
 24.0888
 32.3952
 32.3746
 32.3609
 32.3544
 32.9145
 32.9574
 32.7164
 32.7266
 30.2186
 30.2741
 31.1492
 30.59
 30.88
 30.9211
 32.6851
 32.7436
 32.7318
 32.6719
 29.8706
 30.401
 32.7237
 32.7008
 29.1024
 19.3343
 19.7739
 26.8553
 29.4939
 26.8538
 27.3845
 31.3726
 31.2749
 31.3653
 28.1865
 28.7414
 29.1922
 28.631
 32.6123
 32.5725
 30.9908
 30.8887
 30.9163
 30.9698
 31.5304
 31.8472
 31.7907
 32.3804
 32.4568
 32.4348
 32.3145
 32.6877
 32.6839
 32.7982
 32.7308
 32.2392
 32.216
 32.1437
 32.2121
 32.0975
 32.2488
 32.0236
 32.4907
 32.1171
 32.2645
 32.1628
 32.1954
 28.2482
 28.1559
 28.4022
 28.6528
 32.7425
 32.679
 32.5938
 32.5994
 32.4729
 32.6041
 32.5071
 32.5505
 22.4213
 22.4752
 22.2729
 22.3408
 29.3478
 31.378
 32.0427
 32.2172
 32.0983
 31.978
 32.6534
 32.5995
 32.6256
 32.6288
 31.0064
 30.6961
 30.7819
 31.0083
 32.6863
 32.6892
 32.7171
 32.715
 28.7297
 28.8867
 29.2826
 29.2203
 29.5877
 29.7511
 29.5291
 32.4734
 32.4476
 32.3709
 32.452
 32.5509
 32.4204
 32.6331
 31.0204
 30.9235
 31.0298
 31.0886
 23.2198
 23.0474
 23.065
 32.387
 32.3959
 32.4014
 32.3642
 32.3638
 32.442
 32.0097
 31.9851
 32.0679
 31.8846
 32.5075
 32.5369
 32.5264
 32.5704
 29.9203
 30.4485
 30.0262
 26.1033
 32.1795
 31.9444
 32.0289
 32.1386
 32.4165
 32.444
 32.4087
 32.723
 32.7709
 32.709
 32.7106
 32.542
 32.6308
 32.5744
 32.5975
 32.1101
 32.0165
 32.8003
 32.7807
 32.8647
 32.7776
 32.7396
 32.7316
 32.7151
 32.7285
 31.8708
 31.7822
 32.49
 32.5461
 32.5901
 32.5758
 32.6581
 32.6386
 32.6413
 32.5404
 32.7616
 32.7343
 32.7403
 32.7902
 32.4511
 32.4937
 32.3906
 32.5065
 32.4318
 32.3422
 31.5163
 31.3299
 31.4229
 31.4681
 32.6343
 32.5505
 32.6342
 32.5251
 29.3085
 29.7015
 29.7739
 30.0021
 30.9333
 30.9804
 30.8244
 30.9644
 22.7702
 22.7669
 22.8389
 22.578
 31.6161
 31.3344
 32.5663
 32.5941
 32.5866
 32.5732
 32.1321
 32.1557
 32.1734
 32.264
 32.5869
 32.5671
 32.521
 32.6079
 32.2323
 32.2828
 32.3522
 32.3508
 31.5514
 31.5185
 31.4948
 31.4981
 28.6466
 32.1418
 32.1305
 32.1611
 32.2567
 32.9669
 32.9233
 32.8657
 32.8193
 31.1121
 31.0102
 30.9024
 30.7826
 32.4835
 32.5605
 32.5412
 32.6159
 32.4642
 32.4591
 32.4287
 32.4414
 28.8196
 28.6185
 29.0123
 28.8767
 28.574
 31.994
 32.1203
 31.9102
 31.981
 31.9294
 32.1628
 31.827
 32.0666
 29.7426
 29.7336
 29.4357
 29.7295
 30.7274
 30.8567
 31.2169
 31.0544
 32.3445
 32.3611
 32.2615
 32.2386
 29.2265
 28.8735
 28.788
 29.0068
 32.9172
 32.9304
 32.9365
 31.108
 31.1326
 31.1316
 31.0345
 24.6452
 24.9328
 32.7721
 32.8205
 32.7878
 32.9311
 32.9301
 32.9199
 32.9263
 28.4
 28.7656
 28.9378
 26.8087
 27.0448
 27.1974
 26.9138
 32.7022
 32.7725
 32.637
 32.5908
 32.7323
 32.729
 32.7751
 32.4596
 32.6328
 32.539
 32.524
 32.4841
 32.4867
 32.1527
 32.204
 32.1029
 22.4981
 22.4867
 22.5266
 22.5112
 31.8792
 31.8283
 31.9109
 31.825
 31.5951
 31.3576
 32.7849
 32.6459
 30.0631
 30.0767
 29.8914
 30.2875
 32.6737
 32.779
 32.7022
 32.2247
 32.1805
 32.2016
 32.1806
 32.0792
 32.2085
 28.4659
 28.558
 28.3258
 32.6326
 32.5921
 32.5554
 30.5881
 30.282
 30.5742
 28.5943
 28.6917
 28.6475
 28.2529
 32.151
 32.2305
 32.0781
 32.2718
 31.977
 31.7479
 31.7884
 31.9722
 32.4269
 32.4072
 32.4631
 32.417
 32.487
 32.5666
 32.5305
 32.6095
 32.1407
 32.0644
 32.2404
 32.7734
 32.8078
 32.8086
 32.8914
 32.768
 32.7761
 32.6532
 30.8147
 30.8791
 30.802
 32.5196
 32.6471
 32.6413
 32.5636
 32.5229
 32.5741
 32.5536
 32.6185
 32.3894
 31.5106
 31.1937
 31.286
 28.3432
 28.4851
 28.383
 28.3977
 32.4068
 32.3293
 32.411
 32.3486
 31.3303
 31.2424
 31.0319
 29.6294
 30.0367
 32.7602
 32.8142
 32.7477
 32.7418
 32.6714
 32.6221
 32.7141
 32.7161
 29.9236
 30.2534
 30.4427
 30.6132
 29.1989
 28.7014
 28.9896
 28.7382
 26.3581
 26.113
 26.2725
 25.9479
 31.7056
 31.6703
 32.2306
 32.3459
 32.2737
 32.2035
 31.6427
 31.3987
 31.5892
 31.3665
 32.5623
 32.5783
 32.5257
 32.5248
 29.5731
 29.4639
 32.6161
 32.5584
 32.5281
 28.1801
 28.4051
 32.305
 32.3216
 32.2234
 32.3984
 31.9334
 31.9974
 31.785
 31.9511
 32.5746
 32.5098
 32.5548
 31.4691
 31.5922
 31.6114
 31.8504
 31.884
 31.8364
 31.834
 31.1191
 30.669
 30.9703
 31.0779
 32.5159
 32.5631
 32.623
 32.5345
 31.329
 30.9946
 30.9076
 31.3662
 29.4427
 29.6336
 29.4433
 31.6928
 31.526
 31.615
 31.6702
 28.3067
 28.3949
 28.2879
 32.2495
 32.3138
 32.2475
 32.5802
 31.6336
 31.5283
 31.5744
 31.1202
 30.9285
 31.1149
 30.9676
 32.5092
 31.9172
 31.8377
 32.0365
 31.9488
 27.7065
 27.7843
 28.0645
 27.7386
 32.8265
 32.9051
 32.8543
 32.8397
 32.4638
 32.5239
 32.3423
 29.5577
 29.1078
 29.4508
 28.7403
 32.7385
 32.8237
 32.7032
 30.5131
 30.3514
 22.5183
 22.4037
 22.5709
 22.8899
 26.6368
 25.3938
 25.4427
 31.8185
 31.8562
 31.8405
 31.9618
 32.0228
 31.9532
 26.9682
 27.0185
 26.5882
 27.2735
 31.8664
 31.9168
 31.9118
 32.0075
 32.3551
 32.2268
 32.2297
 32.2717
 32.5383
 32.566
 32.5197
 32.4908
 32.6676
 32.644
 32.6607
 32.6235
 31.7285
 28.7227
 28.523
 28.7517
 28.6068
 31.8326
 31.8988
 31.7845
 32.9284
 32.8645
 32.8975
 32.9691
 28.7496
 29.1223
 29.2712
 32.4532
 32.4674
 32.5076
 32.4225
 32.5684
 32.447
 32.449
 32.3435
 32.394
 30.8547
 30.947
 30.8647
 32.4081
 32.5711
 32.6063
 31.7659
 31.8188
 31.9107
 31.8264
 32.4079
 32.3294
 32.3554
 22.5525
 22.4974
 23.2316
 32.4219
 32.3753
 32.3721
 32.3049
 32.5258
 32.4071
 32.5162
 32.5359
 32.5557
 32.3203
 32.2259
 32.3671
 32.3103
 32.6164
 32.5205
 32.556
 32.5948
 31.5367
 31.5818
 31.6664
 31.7531
 32.855
 32.7722
 32.8546
 32.8015
 32.3736
 32.456
 32.434
 32.4172
 32.3473
 32.2633
 32.1825
 30.4118
 30.6975
 30.1309
 30.3075
 32.3215
 32.3793
 31.5219
 31.3385
 31.5308
 31.4495
 32.638
 32.6074
 32.6452
 32.6077
 32.422
 32.5075
 32.4575
 32.404
 32.7851
 32.8114
 32.7869
 32.8465
 32.5169
 32.5189
 32.5946
 32.5998
 32.3874
 32.3016
 32.3104
 32.2868
 32.3348
 32.3187
 32.0133
 32.0302
 32.0365
 31.9101
 32.5461
 32.5295
 32.4459
 32.6436
 32.507
 32.5996
 23.6576
 23.2575
 23.3318
 32.1711
 32.246
 32.1653
 32.3976
 32.3682
 32.4543
 32.4051
 32.1829
 32.2281
 32.2122
 32.8087
 32.8509
 32.6264
 32.8189
 32.6866
 32.7514
 32.7702
 32.733
 32.7943
 32.8021
 32.8123
 32.8378
 29.9594
 30.1224
 30.0292
 29.7789
 32.2325
 32.8681
 32.9191
 32.905
 32.9076
 28.1696
 28.3438
 28.3587
 28.3629
 28.3888
 28.7611
 28.5194
 28.7698
 29.1063
 29.3807
 29.2192
 29.0265
 32.6598
 32.7409
 32.6081
 32.5648
 30.7497
 30.5231
 30.7042
 30.7143
 31.1937
 31.3029
 31.261
 31.3186
 26.0766
 26.3187
 26.6109
 26.5755
 30.9449
 31.0019
 30.9787
 27.7366
 27.383
 27.0258
 27.1864
 29.5871
 29.325
 29.8554
 28.5978
 28.5979
 32.7534
 32.7295
 32.7556
 32.8244
 32.136
 32.1932
 32.2123
 31.9495
 31.9764
 31.9127
 32.0225
 29.2853
 29.0049
 31.4697
 31.3874
 31.4865
 32.3373
 32.3397
 32.2827
 32.2941
 29.5256
 29.282
 29.6564
 31.7285
 31.666
 31.8353
 31.6222
 31.5822
 31.5695
 31.7136
 31.4436
 29.8005
 29.3018
 29.489
 29.8812
 27.1059
 27.9761
 27.6339
 27.4401
 24.5107
 24.5938
 24.1732
 24.1972
 32.6801
 32.6815
 32.7202
 32.6441
 31.8328
 31.837
 31.7532
 31.477
 31.686
 31.8497
 31.6873
 22.878
 22.4792
 22.834
 22.5132
 26.7965
 27.2934
 27.006
 27.3468
 31.8929
 31.6643
 31.7986
 31.7943
 32.6677
 32.7326
 32.7276
 32.2282
 32.1532
 32.1014
 30.3875
 30.4252
 29.963
 31.611
 31.7788
 31.7715
 31.6429
 31.9718
 31.9849
 31.982
 32.1076
 30.8651
 30.9813
 31.2071
 31.0445
 32.0201
 31.8729
 31.992
 31.7596
 32.4762
 32.4599
 32.4329
 32.352
 32.6216
 32.5634
 32.5109
 32.5777
 25.8477
 26.342
 26.3093
 26.2198
 32.1104
 32.282
 32.1833
 32.2051
 31.4666
 32.3954
 32.4279
 32.4239
 32.4376
 32.0052
 31.9608
 31.9676
 31.881
 28.3997
 28.41
 28.4248
 28.4464
 31.6737
 31.5805
 31.6979
 31.7429
 32.5926
 32.5274
 31.8905
 31.7702
 31.8999
 31.9473
 32.5455
 32.6189
 32.6163
 32.6514
 32.6489
 32.6323
 32.6097
 31.6406
 31.6787
 31.677
 32.4937
 32.4629
 32.5656
 32.6086
 32.2859
 32.3215
 32.2536
 32.2965
 29.843
 29.3544
 29.3742
 32.6081
 32.8055
 32.7824
 32.7179
 25.4339
 26.134
 26.6632
 25.9428
 25.516
 31.5478
 31.7323
 31.5234
 31.7444
 32.8529
 32.7614
 32.7946
 32.8372
 31.8249
 31.7796
 32.3764
 32.292
 32.323
 30.5474
 30.202
 30.76
 30.6901
 31.6538
 31.6313
 31.6369
 31.577
 28.8185
 29.0439
 28.921
 30.656
 30.492
 30.7444
 30.5204
 31.9767
 32.1085
 31.9807
 31.7386
 32.6979
 32.527
 32.5663
 32.5073
 30.2552
 30.6745
 30.4688
 30.4392
 32.4151
 32.8478
 32.828
 32.783
 32.8156
 31.9371
 31.8904
 31.9898
 31.7444
 31.776
 31.806
 31.8593
 32.6569
 32.6832
 32.6778
 32.6801
 31.2301
 31.2194
 31.1931
 31.3266
 31.5377
 32.5758
 32.5859
 32.6226
 32.587
 32.8483
 32.7539
 32.8538
 32.7608
 24.5249
 24.8336
 25.001
 24.3409
 32.2332
 32.2296
 32.2691
 32.1656
 32.0523
 32.0753
 32.1024
 32.1743
 32.5004
 32.491
 32.5998
 32.1426
 32.2639
 32.3153
 32.3651
 32.2181
 32.1719
 32.3504
 31.9248
 31.7637
 31.8437
 32.4576
 32.3553
 32.5749
 32.6154
 32.6058
 32.5763
 32.5186
 32.5206
 32.8618
 32.8523
 32.8632
 32.8703
 32.1733
 32.0978
 32.0924
 31.6453
 31.9486
 32.6022
 32.5515
 32.5398
 32.6464
 29.798
 29.8709
 29.4333
 30.6595
 30.8746
 31.0663
 32.548
 32.6164
 32.5486
 32.3555
 32.3814
 32.3296
 32.3742
 32.4784
 32.4503
 32.5729
 32.5443
 23.7437
 23.654
 24.8857
 32.4486
 32.5593
 32.4337
 32.6523
 32.6
 32.078
 32.2629
 32.2434
 32.2255
 32.5313
 32.5081
 32.516
 24.7884
 24.9252
 24.5195
 24.7309
 32.3323
 32.3019
 32.4796
 32.031
 29.8145
 29.5522
 29.3735
 29.206
 32.7756
 32.8287
 32.813
 32.8003
 31.6018
 31.3406
 31.5649
 31.2794
 25.7148
 25.7766
 25.6796
 31.5772
 31.5275
 31.3847
 31.4607
 32.5707
 32.5096
 32.5181
 32.5327
 32.7489
 32.8239
 32.7972
 32.7814
 30.2004
 29.9955
 30.2388
 31.8815
 31.7296
 31.8159
 31.7717
 30.5579
 30.2163
 30.6444
 30.2871
 28.7022
 29.1737
 29.1432
 28.5394
 31.9324
 31.8395
 31.8697
 31.8281
 29.0002
 29.3396
 29.195
 29.3533
 30.0882
 29.81
 30.2038
 30.1917
 32.8059
 32.7271
 32.7887
 32.7623
 31.7586
 31.7466
 31.8823
 31.7752
 31.0171
 30.943
 30.9474
 30.9659
 32.3951
 32.379
 32.5302
 28.712
 28.2874
 28.4991
 29.0079
 28.8183
 28.5989
 28.7237
 28.5791
 29.992
 29.2995
 32.7765
 32.7561
 32.7179
 32.7535
 31.2353
 31.3582
 31.3071
 31.3124
 31.9928
 31.8274
 31.9038
 31.8008
 29.7317
 29.3625
 29.3653
 32.6864
 32.701
 32.728
 32.6815
 32.3775
 32.5065
 32.3165
 32.5599
 30.5165
 30.5241
 30.5242
 30.7931
 28.5725
 29.2619
 28.8572
 32.3457
 32.267
 32.2266
 32.2962
 32.5121
 32.426
 32.5541
 32.1131
 32.0199
 32.0816
 32.2642
 32.3166
 32.3794
 32.3971
 30.7695
 31.0696
 31.1943
 30.9839
 32.6285
 32.5661
 32.6804
 29.8008
 29.7279
 29.346
 32.6679
 32.6388
 32.6926
 32.3323
 32.4598
 32.4478
 32.5397
 32.5885
 31.6355
 31.7296
 31.5857
 31.767
 31.7397
 31.718
 32.6605
 32.5574
 31.2991
 27.7952
 27.9044
 27.4331
 31.966
 31.9912
 32.1337
 31.8174
 31.9563
 31.901
 31.866
 30.9216
 32.5587
 32.6103
 32.8993
 32.9754
 32.9143
 32.8806
 32.5389
 32.661
 32.6748
 32.2393
 32.3137
 32.1731
 32.1933
 31.7296
 31.9784
 32.4237
 32.3052
 32.1956
 32.3637
 32.1502
 32.2308
 32.2415
 32.1594
 32.1549
 32.0823
 31.9453
 31.9874
 29.6919
 30.0644
 32.4851
 32.6033
 32.5472
 32.5086
 32.6829
 32.6757
 32.6919
 32.6915
 32.512
 32.4765
 32.5491
 32.5458
 32.4149
 32.3288
 32.2751
 32.41
 32.0906
 32.1805
 32.0996
 32.052
 32.3274
 32.4467
 32.3517
 32.3743
 30.378
 30.6818
 30.7644
 30.8987
 30.1822
 30.5545
 30.2906
 32.4273
 32.3394
 32.234
 32.2318
 30.3397
 30.5948
 30.5328
 30.774
 32.1242
 32.1886
 32.0988
 32.1337
 32.4801
 32.5556
 32.5382
 32.5543
 31.7687
 31.8633
 31.739
 31.7671
 32.6147
 32.602
 32.6485
 32.6884
 30.7621
 30.9372
 31.0625
 31.1652
 32.6469
 32.6684
 32.6174
 29.2541
 29.5662
 29.1648
 29.3538
 32.7655
 32.7506
 32.7727
 32.7535
 31.6002
 31.6668
 32.5945
 32.5792
 32.5922
 32.6536
 32.5281
 32.5289
 32.5623
 32.2327
 32.4261
 32.2512
 32.5076
 32.5453
 32.5066
 32.4013
 25.5775
 25.7525
 26.0864
 25.9419
 30.8433
 30.9248
 31.1715
 31.2283
 32.6423
 32.6476
 32.6601
 32.6419
 31.9677
 31.9873
 32.0414
 32.0123
 32.3135
 32.2345
 32.2152
 32.3274
 31.7059
 31.6575
 31.6693
 32.0895
 32.0901
 31.2603
 31.3616
 31.1917
 31.4216
 30.0748
 30.1762
 29.6251
 29.9974
 30.9927
 30.969
 31.8957
 32.1252
 31.9782
 31.9928
 32.1084
 32.1583
 32.2775
 32.1529
 30.05
 30.0718
 29.7289
 32.4416
 32.4353
 32.4078
 32.4513
 31.0156
 31.0511
 31.1556
 31.6661
 31.6004
 31.6085
 31.8114
 32.0452
 32.1336
 32.0641
 32.0433
 32.5825
 32.4823
 32.4686
 32.4406
 32.424
 32.4079
 32.7649
 32.6931
 32.863
 32.3067
 32.4381
 32.6345
 32.6132
 32.6189
 30.7778
 30.9568
 31.0544
 30.6614
 32.0144
 31.9426
 32.026
 32.067
 32.7972
 32.7869
 32.8607
 24.114
 23.567
 23.5004
 24.0371
 29.4884
 29.3452
 32.6377
 31.9779
 32.2401
 32.0483
 31.9386
 32.8562
 32.9099
 32.9161
 32.7948
 32.7174
 32.7807
 32.7911
 32.1481
 32.0791
 32.3939
 32.3615
 32.358
 32.2892
 28.812
 28.432
 28.4196
 28.9048
 32.398
 32.3162
 32.3636
 32.4
 32.4668
 32.4587
 32.4542
 22.4749
 22.5473
 22.8346
 22.866
 29.321
 29.275
 28.7792
 31.3709
 31.6569
 31.2684
 31.5235
 32.7059
 32.7081
 32.7116
 32.7056
 32.5354
 32.5546
 28.124
 28.3099
 28.233
 28.2901
 32.5181
 32.4575
 31.4878
 31.161
 31.1578
 31.3025
 31.856
 31.9261
 31.7598
 31.8481
 32.7501
 32.8427
 32.7766
 32.7855
 31.2168
 31.1022
 30.8125
 32.5299
 32.6389
 32.571
 32.5878
 32.3736
 32.3113
 32.2108
 32.4016
 32.2905
 32.3003
 32.3411
 32.1947
 28.514
 28.0779
 28.3924
 28.1214
 32.4154
 32.3811
 23.0465
 22.9743
 22.9257
 22.8015
 32.1583
 32.0953
 31.9554
 31.4789
 26.4589
 28.3943
 30.3803
 21.7526
 32.3019
 32.2939
 32.2625
 32.2689
 31.403
 31.6231
 31.5117
 32.2344
 32.2077
 32.1271
 32.2864
 32.3119
 32.3362
 32.2586
 32.2831
 32.1843
 32.1723
 32.232
 32.2588
 30.9381
 31.1516
 30.6975
 31.1937
 29.6056
 29.5618
 29.2308
 29.3933
 32.6741
 32.6753
 32.6534
 32.6731
 32.3104
 32.067
 32.3721
 32.2239
 31.1338
 31.9484
 31.8528
 32.6705
 32.6755
 32.0435
 31.8765
 31.9475
 31.9668
 31.8234
 31.9138
 31.9305
 32.2465
 32.2154
 32.7253
 32.6943
 24.9012
 25.2543
 24.8953
 25.2908
 30.7685
 30.6445
 30.4248
 30.638
 32.5418
 32.5092
 32.5687
 32.4606
 25.7854
 25.219
 25.6497
 25.7962
 31.2068
 31.3002
 31.1626
 31.2736
 32.0481
 32.2075
 31.868
 31.9162
 31.9903
 31.8559
 32.3978
 32.3432
 31.825
 31.8493
 31.7308
 23.2016
 22.5434
 23.2105
 23.5487
 26.397
 26.7222
 26.783
 26.333
 32.0133
 31.913
 32.0122
 32.0731
 32.5028
 32.3532
 32.3869
 32.765
 32.7277
 32.713
 32.6966
 31.1781
 31.4389
 31.1424
 31.049
 31.9397
 31.8795
 31.9776
 31.8895
 32.7071
 32.7361
 31.1055
 31.1528
 32.6542
 32.6424
 32.7304
 32.7285
 30.2078
 29.6327
 30.268
 29.6618
 29.1755
 28.7979
 28.8064
 22.7323
 22.4746
 22.4255
 22.5842
 31.4019
 31.5194
 31.5402
 31.6997
 32.2957
 32.2447
 32.3878
 32.2872
 32.3869
 32.2834
 30.7267
 30.7503
 31.0898
 30.4789
 32.519
 32.5669
 32.4994
 32.7766
 32.8391
 32.7391
 32.7998
 32.3375
 32.2071
 32.3146
 32.2151
 31.0221
 31.2729
 31.1994
 31.0886
 31.7945
 31.9413
 32.1004
 23.5342
 23.7704
 23.9688
 24.136
 32.4701
 32.5051
 32.4476
 26.2291
 25.8865
 26.0753
 25.8138
 32.4894
 32.4883
 32.4344
 32.3894
 28.8957
 28.8933
 28.3556
 29.0464
 29.8835
 29.7925
 30.1694
 30.2506
 32.642
 32.6059
 32.5976
 31.6236
 31.7378
 31.5551
 31.4112
 32.7918
 32.7715
 32.7772
 32.7725
 32.4801
 32.6027
 32.0322
 32.0123
 32.0363
 32.7762
 32.7401
 32.7125
 23.5237
 23.5913
 23.943
 23.6395
 29.7796
 30.0787
 29.5224
 30.2072
 31.9977
 32.1222
 32.168
 32.1863
 32.5346
 32.5933
 30.7647
 31.394
 30.8962
 32.6177
 32.6887
 32.7103
 32.8039
 32.7678
 32.8026
 32.8039
 30.8223
 30.663
 30.856
 30.931
 31.7572
 31.8113
 32.1267
 32.0431
 32.1316
 32.2599
 30.9408
 30.957
 31.0686
 32.7712
 32.756
 32.4578
 32.3611
 32.5176
 32.4718
 28.5435
 28.3237
 32.7036
 32.7633
 31.7831
 31.4437
 31.4788
 31.7477
 32.5206
 32.4385
 32.5339
 32.5093
 32.4834
 32.4738
 32.5141
 27.8902
 27.9297
 27.7452
 28.5316
 26.3193
 26.2891
 26.6575
 26.4844
 32.5841
 32.5657
 32.612
 32.5848
 31.9785
 31.9643
 32.0156
 32.0205
 32.6256
 32.6372
 32.6836
 32.4622
 32.4543
 32.4016
 32.4665
 32.4227
 32.2906
 32.2673
 31.3148
 31.5397
 31.3683
 31.2588
 30.1292
 31.9665
 31.9969
 32.0699
 32.009
 32.6365
 32.5141
 32.5802
 32.6434
 22.2932
 22.3269
 32.2694
 32.1299
 32.2683
 23.2442
 23.3213
 23.2815
 23.6237
 32.7742
 32.7627
 32.7759
 32.7907
 28.6343
 29.1607
 29.3414
 30.7928
 30.9601
 31.7183
 31.7062
 31.7317
 31.9294
 31.922
 31.9576
 29.5133
 30.1521
 31.0692
 31.108
 22.809
 22.6398
 22.5299
 22.678
 31.9212
 32.1019
 31.9306
 29.9026
 29.9557
 30.2176
 29.6969
 30.8283
 30.7624
 31.0157
 30.7772
 32.6895
 32.6335
 32.6549
 32.6879
 32.8831
 32.7469
 32.846
 32.6256
 32.6545
 32.6737
 32.6378
 32.4809
 32.571
 32.4014
 32.5949
 28.6772
 28.7274
 29.7626
 29.7913
 29.8939
 32.7627
 32.7762
 32.7449
 32.7603
 30.2364
 30.1851
 30.6396
 30.5319
 32.6451
 32.7211
 32.7119
 32.6935
 28.7056
 29.104
 32.1691
 32.2163
 32.16
 32.2398
 32.52
 32.606
 32.5674
 32.5081
 31.1646
 31.182
 31.101
 31.3027
 32.3531
 32.2283
 32.1664
 32.208
 32.246
 32.27
 25.9471
 26.0546
 25.9863
 26.0673
 28.7302
 29.0139
 28.6454
 29.0751
 31.7776
 31.711
 31.6088
 31.6503
 32.0517
 32.1018
 32.1415
 31.1518
 31.0694
 31.0574
 31.8036
 31.7136
 32.518
 32.4623
 32.3618
 32.419
 32.2014
 32.2935
 32.2186
 32.299
 30.7069
 30.5651
 30.7081
 30.4383
 27.715
 28.1064
 28.0079
 32.4302
 32.3386
 32.3316
 32.4774
 31.822
 31.9429
 31.9367
 31.9395
 30.105
 30.1898
 30.3711
 29.7735
 28.4708
 27.8588
 28.7069
 32.6203
 32.7314
 32.6952
 32.5298
 32.5456
 32.4993
 32.5613
 32.7806
 32.7661
 32.7334
 32.754
 31.9145
 31.9647
 31.8675
 32.0126
 30.6579
 30.7232
 30.9352
 30.4903
 29.334
 28.9473
 32.6621
 32.598
 32.6523
 32.6445
 32.6209
 32.5741
 32.6007
 32.5827
 32.6163
 32.5739
 32.5842
 32.7539
 32.8344
 32.6812
 23.602
 23.8618
 24.0925
 23.9442
 32.0842
 31.8834
 31.9756
 32.2678
 32.2431
 32.1329
 32.1335
 32.1784
 32.0976
 32.1748
 28.8685
 29.1845
 28.6706
 28.8247
 29.8891
 29.5086
 29.8017
 29.7236
 31.8533
 31.9054
 32.0551
 30.5366
 30.3263
 32.404
 32.4284
 32.3335
 31.5987
 31.5249
 31.6645
 31.5925
 30.2231
 29.7326
 29.8439
 30.0808
 32.2502
 32.316
 32.3535
 32.3604
 32.3204
 32.3268
 32.3445
 32.3883
 30.249
 30.3722
 30.1367
 30.5912
 31.0709
 31.2618
 31.3735
 31.5677
 32.3601
 32.4326
 32.5027
 32.499
 30.9981
 31.2366
 32.1982
 32.2321
 32.1595
 32.973
 32.938
 27.2985
 27.1364
 26.8802
 26.8468
 31.8952
 31.9745
 32.0187
 31.9833
 26.7349
 26.5955
 26.875
 32.314
 32.307
 32.8038
 32.8116
 32.7167
 32.807
 31.789
 31.781
 32.5915
 32.5879
 31.7875
 31.6565
 31.7739
 31.8351
 32.7583
 32.8578
 32.8048
 32.7176
 32.4693
 32.3905
 32.3321
 32.3819
 31.7377
 31.7048
 31.7727
 31.7676
 32.5268
 32.577
 30.3985
 30.3206
 29.7648
 29.5608
 32.2537
 32.3142
 29.3077
 29.7123
 29.3758
 24.3175
 24.3582
 25.1349
 24.9088
 23.8039
 24.1077
 23.9153
 32.9647
 32.98
 32.9587
 32.969
 31.7792
 31.9346
 31.8141
 30.2261
 31.1868
 31.3362
 31.0622
 31.2957
 30.1852
 30.4746
 29.8664
 30.2173
 31.4854
 31.3281
 31.5185
 31.3487
 32.8419
 32.9424
 32.957
 32.8516
 31.8527
 31.8971
 31.9132
 31.7956
 32.2246
 32.198
 32.3484
 32.2864
 32.3067
 32.3496
 32.2231
 32.2521
 31.1719
 32.639
 32.7048
 32.6826
 32.7269
 27.4455
 27.2433
 27.448
 27.4571
 32.5779
 32.5373
 32.538
 31.4233
 32.012
 31.9728
 32.0514
 31.9772
 31.8602
 31.809
 31.8091
 31.9854
 32.1419
 32.0246
 31.9751
 32.5684
 32.5617
 32.5836
 32.4737
 32.0552
 31.9946
 31.9601
 31.9363
 29.9707
 29.6353
 29.6104
 29.3658
 32.6767
 32.6832
 32.6959
 32.7122
 32.0582
 32.1363
 32.1337
 32.0456
 25.4326
 25.857
 25.5717
 32.7353
 32.361
 32.3302
 32.2691
 32.4126
 31.9012
 31.8188
 31.8163
 31.7922
 31.8008
 31.6938
 31.6224
 31.6705
 32.4571
 32.4677
 32.4421
 32.4552
 31.0432
 30.9564
 30.8697
 30.939
 31.8507
 31.9717
 31.9425
 31.8179
 31.8143
 31.8464
 31.9498
 31.746
 31.6847
 31.7478
 31.768
 30.0475
 29.8499
 29.7994
 32.5333
 32.4423
 32.0519
 32.1015
 32.1039
 30.2688
 29.9676
 30.4463
 30.4842
 32.5671
 32.5356
 32.6721
 32.6454
 31.9397
 32.9304
 32.9189
 32.9431
 32.9576
 32.7497
 32.8061
 32.7692
 32.8091
 31.7198
 31.6774
 32.1708
 32.0629
 32.1289
 32.0757
 32.2098
 32.0788
 32.1263
 32.0539
 32.3781
 32.4475
 32.3593
 32.4704
 32.4179
 32.3929
 32.3704
 32.3478
 26.2222
 26.6914
 32.0064
 31.9694
 31.9083
 28.2335
 28.1909
 28.3154
 30.6663
 30.2795
 30.1889
 30.5249
 32.5131
 32.5497
 32.5105
 32.43
 32.214
 32.0892
 32.1577
 32.1646
 31.4317
 31.5427
 31.4158
 31.3476
 32.712
 32.7081
 32.7303
 32.7333
 32.2704
 32.2055
 32.2561
 32.4514
 32.4513
 32.9007
 32.8767
 32.8898
 32.8243
 32.5604
 32.6166
 32.4526
 32.555
 29.4884
 29.5772
 29.629
 32.726
 32.6521
 32.7012
 32.6441
 31.8718
 31.9135
 32.0287
 32.1471
 32.1636
 32.0608
 32.1803
 31.884
 32.8111
 32.7308
 32.7298
 32.7355
 32.4472
 32.4198
 32.4342
 32.4291
 32.7844
 32.8331
 32.8221
 23.9241
 25.5786
 23.6006
 23.6603
 30.6315
 30.8745
 28.9428
 28.5219
 32.3195
 32.18
 32.3238
 32.3228
 -87.8512
 -62.3545
 31.5419
 31.4949
 31.4593
 31.3695
 32.6101
 32.4361
 29.1062
 29.0602
 29.2972
 29.3037
 32.3327
 32.3413
 32.4245
 32.4017
 32.2155
 32.1038
 32.1556
 32.2618
 30.8138
 30.6983
 30.9499
 30.8521
 32.1983
 32.0291
 32.1622
 32.1367
 32.0627
 31.9678
 31.989
 31.9072
 32.3575
 32.3813
 32.3078
 32.3088
 31.9171
 32.0233
 31.9956
 32.0399
 32.574
 32.5607
 32.537
 30.6591
 30.6207
 30.0799
 30.5485
 32.7045
 32.7318
 32.7551
 32.7226
 32.606
 32.5946
 31.6228
 31.8839
 31.9776
 32.6595
 32.658
 32.6034
 32.5995
 31.7931
 31.7928
 31.6472
 31.6258
 31.998
 31.924
 31.8822
 32.0052
 30.6075
 30.4546
 30.1753
 30.268
 28.2709
 28.1625
 28.1268
 28.1874
 29.8926
 29.399
 29.6701
 29.558
 27.7972
 27.841
 27.6772
 32.5076
 32.4915
 32.4865
 32.4025
 32.4804
 32.4297
 32.6413
 32.5471
 32.6345
 32.6024
 32.3851
 32.3111
 32.4261
 30.8997
 30.683
 30.7378
 30.5981
 32.5076
 32.5248
 32.5527
 32.5545
 31.4855
 31.4794
 31.4534
 31.3598
 32.4472
 32.4314
 32.475
 32.4798
 32.5215
 32.534
 32.5162
 32.4761
 31.9947
 31.9194
 32.0084
 32.0472
 29.1221
 28.3434
 28.7907
 28.9737
 32.5418
 32.6677
 28.7711
 28.4794
 32.1954
 32.2382
 32.1448
 32.0837
 32.6829
 32.7135
 32.7953
 32.7224
 27.0725
 27.4575
 27.1502
 29.0939
 28.9945
 28.7568
 28.8231
 31.6534
 31.4614
 32.6598
 32.6358
 32.6625
 32.6218
 32.6989
 32.7156
 32.6904
 32.1843
 32.0321
 32.2369
 32.2602
 31.7568
 31.9524
 31.7131
 31.8416
 32.5528
 32.6875
 32.6714
 32.6272
 27.5242
 27.4997
 27.8015
 31.6464
 31.6141
 31.7183
 31.715
 32.7321
 32.7313
 32.7106
 29.8571
 30.0161
 30.1418
 31.9753
 31.9549
 32.0543
 31.898
 32.3728
 31.3156
 30.975
 30.9707
 31.0912
 31.9174
 32.0422
 32.038
 31.9657
 32.5788
 32.5866
 32.5851
 31.7636
 31.7631
 31.7587
 31.7434
 32.01
 32.1055
 32.0686
 31.9252
 31.9433
 27.002
 27.3314
 32.3452
 32.3102
 32.4395
 32.3605
 26.45
 26.1353
 26.1573
 26.2637
 31.5238
 32.8152
 32.7641
 32.8162
 32.5895
 32.5332
 32.443
 32.564
 31.5353
 31.5347
 31.4151
 31.2525
 31.009
 30.9757
 32.7586
 32.7679
 32.7332
 30.9732
 30.7767
 31.0078
 31.1972
 30.5455
 30.5991
 30.7469
 30.8242
 32.0525
 31.9352
 31.6708
 31.8173
 31.6845
 31.6185
 28.0053
 28.745
 27.8512
 28.4539
 30.9762
 30.9715
 31.4563
 31.0005
 27.9996
 27.765
 28.1377
 32.3453
 32.4205
 32.2042
 32.5395
 32.6141
 32.0258
 32.0104
 32.0825
 29.55
 29.1568
 29.3014
 28.9986
 30.0825
 30.3293
 30.3988
 26.4117
 24.0574
 25.6907
 26.8328
 32.4112
 32.528
 32.428
 32.376
 31.1896
 31.4264
 31.1416
 31.5426
 32.7665
 32.7941
 32.8256
 32.7917
 32.2854
 32.31
 32.4162
 32.3159
 30.4316
 30.3966
 30.5611
 30.6704
 32.3044
 32.3729
 32.2828
 32.4456
 32.4737
 32.4111
 32.7629
 32.8352
 32.697
 32.6316
 32.0973
 32.002
 31.9706
 31.9785
 32.8691
 32.8438
 32.8372
 27.7822
 28.7932
 28.0396
 28.1694
 32.5131
 32.5218
 32.5327
 32.4342
 29.9759
 29.626
 29.5977
 29.8684
 29.5326
 28.8551
 29.6539
 29.5151
 31.3509
 31.1929
 31.4078
 29.5205
 29.2459
 29.5216
 31.2471
 32.311
 32.2832
 32.3802
 32.3648
 28.4882
 32.5075
 31.2655
 31.2206
 31.0739
 31.1238
 27.7194
 27.3806
 27.0839
 27.3646
 32.6157
 32.3317
 31.6061
 31.6601
 31.6234
 31.6323
 24.2293
 23.3034
 23.6022
 31.5147
 31.3293
 31.3256
 28.2464
 28.0522
 31.1091
 31.033
 31.166
 31.0967
 32.0299
 31.7407
 31.9263
 31.9844
 32.3901
 32.3142
 32.3031
 32.71
 32.722
 32.7812
 32.8066
 32.7198
 32.7943
 31.8171
 31.9048
 31.8975
 31.8169
 32.2958
 32.2125
 32.3337
 32.3241
 32.0969
 32.0146
 32.1021
 32.02
 32.7431
 32.6951
 32.7266
 32.6848
 32.6187
 32.5531
 32.5277
 32.6366
 32.2634
 32.3418
 32.2866
 32.0932
 30.5371
 30.043
 30.7034
 30.8201
 32.4072
 31.7505
 31.6324
 31.6707
 31.6583
 32.6933
 32.7281
 32.7816
 32.7904
 32.752
 32.6922
 29.2539
 29.1859
 28.8923
 29.3647
 31.4728
 31.3224
 31.5188
 32.5369
 32.5317
 32.5203
 32.4221
 31.2822
 31.3865
 31.4185
 31.3502
 30.8265
 30.8184
 30.5696
 30.5115
 32.6475
 32.7301
 32.7508
 32.7272
 32.2866
 32.3343
 32.2398
 28.9456
 29.2992
 29.1231
 29.3002
 24.6666
 24.539
 23.9952
 24.7437
 31.597
 31.2919
 31.1219
 32.3779
 32.3683
 32.2841
 32.5218
 32.2769
 32.3897
 32.3916
 32.369
 31.2517
 31.1881
 31.2581
 31.2508
 32.3258
 32.1213
 32.2286
 32.2402
 32.8796
 32.8288
 32.6146
 32.6522
 32.6232
 32.6003
 32.7729
 32.8013
 32.8596
 24.1995
 24.37
 23.8472
 24.1972
 31.0434
 30.8757
 30.9416
 31.0232
 31.4623
 31.6253
 31.5665
 30.2379
 30.4054
 29.9442
 30.5232
 32.4096
 32.5883
 32.5566
 22.4773
 22.5853
 22.681
 22.4449
 32.3291
 32.2815
 32.2598
 32.2968
 32.3236
 32.316
 28.6479
 28.4464
 28.5447
 28.2233
 29.3479
 29.3447
 29.5167
 29.183
 25.9676
 26.4931
 26.6828
 25.9507
 32.2349
 25.4042
 25.6234
 25.4832
 25.8275
 32.5878
 32.6171
 32.6725
 32.6618
 29.67
 29.9343
 32.3579
 32.3385
 32.325
 32.3972
 32.365
 32.3206
 32.3928
 32.3111
 31.491
 31.4386
 31.4421
 31.2884
 23.6491
 24.1702
 22.8372
 32.6989
 32.6644
 32.6842
 32.6764
 32.2331
 32.2317
 32.2587
 32.2732
 24.2395
 24.5412
 24.7452
 24.1562
 32.441
 32.5372
 32.5356
 32.4722
 32.5444
 32.0023
 31.955
 32.0008
 32.1658
 32.1202
 32.1246
 32.2077
 31.5688
 31.4416
 31.3986
 31.4479
 32.7215
 32.697
 32.7105
 32.703
 32.7109
 30.7496
 30.3383
 30.8019
 32.6642
 32.6016
 32.6241
 32.6642
 32.7089
 32.7167
 32.6493
 32.6953
 31.6401
 31.3228
 31.3995
 27.9417
 25.1624
 25.5561
 24.7054
 32.7284
 32.7596
 32.7428
 32.4457
 32.4535
 32.513
 30.6835
 30.9766
 30.6775
 31.2479
 32.673
 32.7377
 31.889
 31.9697
 31.9696
 31.9493
 31.8064
 31.8204
 31.8312
 32.1888
 32.1184
 32.8005
 32.7453
 32.7716
 32.2944
 32.4639
 32.369
 29.9293
 22.4186
 22.346
 22.4105
 22.3593
 32.4612
 32.4547
 32.4683
 32.4432
 22.6905
 22.7165
 23.017
 22.664
 32.5642
 32.4913
 32.5181
 32.8875
 32.8018
 32.8578
 32.8339
 30.9666
 31.32
 30.7444
 30.8416
 32.8187
 32.8413
 32.8086
 32.7708
 32.6687
 32.5825
 32.6175
 32.4839
 32.7302
 31.6441
 31.8073
 31.7331
 29.7932
 29.7596
 29.7999
 32.9535
 32.8152
 32.8532
 32.8923
 32.3923
 32.2778
 32.3731
 32.3424
 31.0245
 31.1124
 30.9958
 31.1015
 32.6766
 32.7304
 30.9743
 31.0814
 31.1036
 32.6543
 28.4695
 28.8499
 29.2732
 29.1401
 30.8374
 31.0503
 30.9038
 30.9735
 32.4334
 32.4516
 32.4276
 32.1574
 32.0884
 28.0677
 28.203
 27.8079
 28.3005
 32.5019
 32.5454
 28.5152
 28.2835
 32.7988
 32.7746
 32.7782
 27.1116
 26.8246
 27.3706
 31.1851
 31.2241
 31.0925
 31.211
 32.2337
 32.206
 32.1759
 32.256
 31.7869
 31.775
 31.8277
 32.3355
 32.2614
 32.3606
 32.2312
 31.7568
 31.9301
 31.9103
 31.9107
 24.624
 24.5793
 24.3106
 32.5507
 32.4779
 32.5256
 32.474
 32.4268
 32.6316
 32.6315
 32.6911
 32.6773
 23.6653
 24.024
 23.9046
 23.8418
 30.4722
 30.5176
 30.6184
 30.8183
 32.5497
 32.5306
 32.4829
 32.4882
 32.3467
 32.4265
 32.3718
 32.4478
 32.1902
 32.0005
 32.161
 32.1143
 31.2543
 31.0938
 31.123
 31.2982
 30.0123
 30.3198
 29.9333
 23.597
 23.5322
 23.6997
 32.7039
 32.6121
 32.4383
 32.4082
 32.4382
 32.4635
 32.1225
 32.1722
 32.0466
 32.0274
 31.6967
 32.8111
 32.3104
 32.4249
 32.4194
 32.4975
 26.3178
 16.8068
 19.2202
 25.5469
 32.4474
 32.4968
 30.4934
 30.6957
 30.9192
 31.4812
 31.38
 31.6306
 31.6951
 28.5062
 28.2853
 32.1105
 32.0336
 31.9302
