 26.6572
 26.5716
 26.6028
 26.5483
 25.1981
 25.1944
 25.1422
 25.1181
 25.5923
 25.6411
 25.5789
 25.6472
 25.5336
 25.5697
 25.6154
 25.6233
 24.7569
 24.6825
 24.7855
 24.7995
 24.7821
 24.8328
 24.7395
 24.8142
 26.9835
 27.0529
 27.0319
 26.9806
 26.9398
 26.9154
 26.9162
 26.9608
 24.7425
 24.7711
 24.83
 24.7628
 24.7999
 24.7925
 24.8147
 24.7215
 27.1869
 27.2361
 27.162
 27.1504
 25.5386
 25.5362
 25.5868
 25.5508
 26.3372
 26.3512
 26.3948
 26.2971
 25.2276
 25.3002
 25.3263
 25.2798
 25.819
 25.8276
 25.7952
 25.7538
 26.7738
 26.8231
 26.7417
 26.8221
 24.9886
 24.9442
 24.9861
 24.9175
 25.4056
 25.4398
 25.3912
 25.4303
 25.838
 25.8288
 25.8208
 25.7882
 24.9458
 24.9558
 24.9245
 24.8714
 26.8873
 26.9602
 26.887
 26.9335
 24.5984
 24.6031
 24.5307
 24.516
 27.6952
 27.7409
 27.7321
 27.6675
 25.3606
 25.321
 25.3719
 25.3861
 25.9193
 25.9503
 25.8819
 25.8763
 25.7466
 25.742
 25.7717
 25.7901
 26.148
 26.0917
 26.0625
 26.136
 26.7806
 26.8274
 26.7676
 26.7711
 26.3651
 26.3826
 26.4401
 26.4028
 25.2861
 25.2977
 25.3135
 25.3578
 25.8702
 25.7726
 25.8855
 25.8556
 26.323
 26.2696
 26.2785
 26.3195
 25.4843
 25.5437
 25.4849
 25.5348
 25.1744
 25.2027
 25.2021
 25.1966
 26.3414
 26.4055
 26.3369
 26.4285
 26.7193
 26.7252
 26.741
 26.738
 25.5352
 25.6036
 25.5567
 25.5542
 27.0201
 26.9991
 26.9778
 26.9768
 25.367
 25.357
 25.2604
 25.2833
 24.404
 24.477
 24.4193
 24.4916
 25.6935
 25.7134
 25.6855
 25.7546
 25.3121
 25.2638
 25.284
 25.3188
 26.9812
 26.9848
 26.9224
 27.0249
 25.4734
 25.5224
 25.5021
 25.4472
 24.7284
 24.7512
 24.6963
 24.7305
 26.4921
 26.4404
 26.4649
 26.4895
 25.4699
 25.3855
 25.4085
 25.3915
 26.6986
 26.6342
 26.6726
 26.7351
 26.3426
 26.3778
 26.399
 26.4152
 25.8269
 25.8679
 25.877
 25.9248
 26.8061
 26.8371
 26.8564
 26.7922
 25.69
 25.7436
 25.7325
 25.7007
 26.2568
 26.3148
 26.2386
 26.3356
 25.7022
 25.6653
 25.6869
 25.6693
 26.4205
 26.3668
 26.409
 26.3335
 25.583
 25.59
 25.5429
 25.6335
 25.3067
 25.311
 25.2726
 25.2338
 25.2954
 25.342
 25.316
 25.3909
 26.4756
 26.4954
 26.5611
 26.455
 26.0986
 26.1274
 26.1313
 26.0576
 27.6104
 27.6347
 27.6832
 27.6336
 26.4064
 26.4226
 26.4748
 26.4147
 25.9111
 25.8261
 25.8706
 25.862
 26.2278
 26.2283
 26.1546
 26.2692
 26.3142
 26.2552
 26.3136
 26.2588
 26.843
 26.8804
 26.8207
 26.8292
 24.9286
 24.8607
 24.824
 24.9307
 24.7779
 24.7586
 24.726
 24.7035
 25.8012
 25.7276
 25.8439
 25.804
 26.3839
 26.3987
 26.3622
 26.4292
 25.3426
 25.3226
 25.2879
 25.3473
 26.8827
 27.0014
 26.9579
 26.9597
 26.8936
 26.953
 26.9707
 26.9009
 27.7613
 27.814
 27.7559
 27.7604
 25.6419
 25.5653
 25.6166
 25.5605
 26.5065
 26.4474
 26.4355
 26.501
 26.6238
 26.6684
 26.5875
 26.5977
 24.6644
 24.5915
 24.6168
 24.5815
 26.7661
 26.8032
 26.8536
 26.7855
 26.64
 26.6697
 26.7054
 26.6413
 26.5278
 26.4849
 26.537
 26.5826
 26.005
 26.0113
 25.9645
 25.9681
 26.5885
 26.5196
 26.5707
 26.5473
 26.3482
 26.3183
 26.3008
 26.329
 26.0831
 26.0989
 26.1259
 26.1415
 26.7185
 26.796
 26.706
 26.7958
 27.9129
 27.9116
 27.8426
 27.849
 26.8622
 26.8451
 26.8007
 26.8319
 25.5783
 25.6325
 25.5694
 25.6561
 25.578
 25.6123
 25.5643
 25.6302
 25.2874
 25.3447
 25.3408
 25.3032
 27.0224
 27.0344
 27.0168
 26.9875
 24.5147
 24.5281
 24.5824
 24.4831
 25.3913
 25.3377
 25.4054
 25.3808
 27.0047
 26.9968
 27.0559
 27.0793
 26.3273
 26.3354
 26.3482
 26.2641
 26.6503
 26.6081
 26.7025
 26.6647
 26.6374
 26.6657
 26.6675
 26.9748
 26.9859
 26.9911
 27.0231
 25.4626
 25.502
 25.5417
 25.4467
 26.1418
 26.0638
 26.0865
 26.1248
 25.5686
 25.5055
 25.5692
 26.4192
 26.4996
 26.4429
 26.4662
 25.9874
 25.9363
 25.9538
 26.0186
 25.0067
 25.1075
 25.0986
 24.9791
 26.8985
 26.8941
 26.8129
 26.8458
 26.6991
 26.7457
 26.7859
 26.7361
 25.6409
 25.7072
 25.7151
 25.691
 25.4048
 25.4418
 25.3531
 25.3581
 26.9708
 26.9448
 26.9737
 27.0173
 26.7316
 26.7134
 26.6101
 26.6385
 26.1685
 26.1023
 26.0648
 26.1625
 24.8439
 24.8051
 24.8254
 24.8093
 25.6105
 25.5493
 25.521
 25.5534
 25.9369
 26.0236
 25.9593
 25.9374
 27.6513
 27.7407
 27.6576
 27.6605
 26.0629
 26.0986
 26.0264
 25.9972
 25.007
 25.081
 25.008
 25.0936
 26.5627
 26.6531
 26.5293
 26.547
 26.7609
 26.747
 26.8103
 26.7708
 26.7283
 26.7901
 26.7825
 26.7641
 27.3049
 27.3138
 27.311
 27.275
 26.5897
 26.6851
 26.6757
 26.6761
 25.634
 25.6343
 25.6243
 25.6726
 27.0101
 26.9767
 26.9559
 26.9382
 24.9441
 25.0019
 24.9465
 24.9322
 26.9064
 26.9818
 26.9818
 26.9105
 25.0435
 25.1346
 25.0311
 25.0894
 26.1192
 26.1648
 26.1622
 26.1317
 26.2257
 26.1633
 26.1508
 26.2021
 26.4626
 26.4628
 26.3831
 26.4411
 26.5882
 26.5881
 26.6486
 26.6547
 24.5955
 24.5235
 24.5051
 24.5153
 26.5359
 26.5844
 26.5337
 26.5734
 24.4015
 24.4661
 24.4257
 24.518
 25.3568
 25.3873
 25.3096
 25.367
 27.4864
 27.4219
 27.4304
 27.4871
 24.6737
 24.6818
 24.6401
 24.6183
 26.7787
 26.72
 26.7792
 26.8337
 27.4046
 27.4617
 27.4876
 27.4075
 25.1799
 25.2023
 25.2345
 25.2083
 24.7129
 24.6339
 24.6931
 24.7275
 25.7526
 25.7483
 25.7653
 25.7907
 25.2475
 25.3171
 25.2362
 25.3143
 26.6858
 26.7592
 26.7139
 26.7418
 25.6496
 25.6789
 25.6573
 25.6076
 26.2895
 26.2921
 26.2462
 26.2422
 26.928
 26.8924
 26.942
 26.9457
 27.1747
 27.1806
 27.1984
 27.1282
 26.0859
 26.1044
 26.0507
 26.1249
 25.9423
 25.9609
 25.9694
 26.0138
 26.7353
 26.7417
 26.6843
 26.6885
 26.7028
 26.798
 26.7174
 26.7205
 25.5515
 25.5278
 25.5693
 25.5863
 24.7583
 24.8147
 24.7163
 24.6971
 24.8798
 24.9114
 24.8659
 24.8431
 24.9155
 24.9809
 24.9632
 24.9289
 25.3955
 25.4289
 25.3679
 25.425
 26.695
 26.7847
 26.7208
 26.743
 26.6603
 26.6156
 26.5996
 26.5895
 25.9091
 25.955
 26.0053
 26.0258
 25.422
 25.4535
 25.3759
 25.4215
 25.4302
 25.4611
 25.4323
 25.3878
 25.7922
 25.847
 25.803
 25.791
 25.5887
 25.5346
 25.5968
 25.5902
 27.0638
 27.0765
 27.042
 26.9804
 28.133
 28.1884
 28.1199
 28.1956
 26.5532
 26.563
 26.6241
 26.5887
 27.9631
 27.8933
 27.9033
 26.5866
 26.5989
 26.5555
 26.6148
 24.9124
 24.954
 24.9233
 24.9638
 25.842
 25.8177
 25.7979
 25.7523
 24.8325
 24.865
 24.8047
 24.8804
 26.7298
 26.7219
 26.7965
 26.7448
 25.4334
 25.4282
 25.3234
 25.3511
 25.7823
 25.8075
 25.8696
 25.8146
 24.6136
 24.5701
 24.5594
 24.681
 25.1746
 25.1904
 25.1642
 25.1109
 26.5201
 26.4635
 26.5021
 26.5207
 25.3901
 25.3951
 25.4536
 25.3754
 25.079
 25.1678
 25.1277
 25.1524
 27.3897
 27.4633
 27.4548
 27.4573
 25.8583
 25.8388
 25.7994
 25.7916
 25.0438
 25.0223
 25.0228
 25.0841
 25.5831
 25.5313
 25.6227
 25.4964
 25.0382
 25.1072
 25.0344
 25.0343
 26.6538
 26.5942
 26.5614
 26.5843
 25.1543
 25.0532
 25.168
 25.0729
 26.1417
 26.1098
 26.2011
 26.1418
 26.0232
 25.9981
 25.9636
 26.0331
 25.1765
 25.2077
 25.2461
 25.1462
 24.4402
 24.4925
 24.4937
 24.4562
 27.1147
 27.0826
 27.0435
 27.0213
 26.3689
 26.3132
 26.2852
 26.3552
 25.6116
 25.6558
 25.6747
 25.6582
 25.2257
 25.1786
 25.1996
 25.1697
 26.5178
 26.5835
 26.5526
 26.5428
 26.9567
 26.8982
 26.865
 26.9465
 25.3682
 25.3638
 25.4457
 25.4345
 25.4828
 25.434
 25.4886
 25.4627
 24.6747
 24.613
 24.5608
 24.6676
 26.8062
 26.7267
 26.8204
 26.769
 24.7577
 24.6893
 24.6983
 24.7463
 26.3946
 26.3405
 26.3975
 26.4155
 28.0828
 28.0909
 28.0461
 28.033
 24.9294
 24.9097
 24.8567
 24.8964
 25.5015
 25.4684
 25.5356
 25.5854
 24.9983
 24.9875
 25.031
 25.0312
 25.968
 26.0438
 26.0085
 25.9682
 26.1198
 26.097
 26.0843
 26.1161
 25.2457
 25.3191
 25.317
 25.2876
 26.7073
 26.6796
 26.7417
 26.6944
 26.858
 26.8265
 26.8141
 26.8553
 27.7256
 27.7552
 27.7815
 27.7956
 25.7321
 25.6961
 25.667
 25.6462
 25.9211
 25.9424
 25.8399
 25.9129
 25.6166
 25.7157
 25.6314
 25.5963
 26.3349
 26.2516
 26.2419
 26.3465
 24.71
 24.7048
 24.6706
 24.7835
 24.6942
 24.599
 24.6946
 24.708
 25.5485
 25.5266
 25.4765
 25.4693
 28.6047
 28.6258
 28.5888
 28.5241
 26.0989
 26.1319
 26.0906
 26.1716
 26.0746
 26.086
 26.16
 26.0871
 26.1059
 26.0864
 26.1709
 26.1624
 25.1862
 25.2106
 25.1314
 25.2169
 27.5835
 27.504
 27.6192
 27.5868
 27.7084
 27.7336
 27.7599
 27.815
 25.0967
 25.1416
 25.1023
 25.1705
 26.4456
 26.3686
 26.4751
 26.3885
 26.2501
 26.2635
 26.2391
 26.2356
 25.4482
 25.4716
 25.5016
 25.549
 26.7826
 26.7457
 26.723
 26.7566
 25.1517
 25.1986
 25.1875
 25.1392
 26.3355
 26.4427
 26.394
 26.4771
 26.4064
 26.3996
 26.4578
 26.4279
 26.9588
 26.9984
 26.9387
 27.0128
 26.1762
 26.1069
 26.1359
 26.0876
 25.0541
 25.0249
 25.0323
 25.0716
 25.4308
 25.3683
 25.3425
 25.3999
 26.7683
 26.7736
 26.7203
 26.7314
 26.5633
 26.4897
 26.49
 26.5613
 24.8866
 24.8596
 24.8147
 24.8468
 25.2082
 25.2643
 25.2336
 25.2445
 26.0443
 26.0672
 26.1042
 26.0652
 27.0546
 27.038
 27.0396
 27.0169
 27.2967
 27.2132
 27.2406
 27.302
 25.5285
 25.6012
 25.6273
 25.5731
 26.9011
 26.9619
 26.9008
 27.02
 24.9431
 25.0203
 25.014
 24.9501
 25.6551
 25.5693
 25.6157
 25.663
 25.1903
 25.2132
 25.2391
 25.1945
 25.3891
 25.4655
 25.4563
 25.4101
 26.1049
 26.1411
 26.0994
 26.06
 26.6474
 26.7566
 26.7344
 26.682
 27.197
 27.0996
 27.1742
 27.1834
 26.9824
 27.065
 26.9772
 26.9918
 26.6638
 26.7268
 26.7372
 26.6874
 26.0463
 26.0226
 26.0161
 26.1308
 26.0531
 25.9929
 26.0262
 26.0641
 25.992
 26.044
 25.9541
 26.0081
 25.5928
 25.6254
 25.5631
 25.5742
 27.5018
 27.5783
 27.5181
 27.5216
 25.8271
 25.8077
 25.8357
 25.7717
 26.7827
 26.8458
 26.8152
 26.8009
 26.2613
 26.188
 26.2384
 26.2
 24.7707
 24.8795
 24.7903
 24.8259
 25.9961
 26.0251
 26.0253
 26.0577
 26.8963
 26.9293
 26.9081
 26.9813
 26.2272
 26.2471
 26.1959
 26.1635
 26.6269
 26.5888
 26.5926
 26.6505
 26.0699
 26.1489
 26.0765
 26.1413
 27.4211
 27.4774
 27.455
 27.393
 26.2682
 26.2582
 26.2186
 26.211
 25.5175
 25.5359
 25.4865
 25.5404
 25.5615
 25.5545
 25.5324
 25.5495
 24.8295
 24.9495
 24.8572
 24.9005
 26.4953
 26.5025
 26.4395
 26.4844
 26.667
 26.624
 26.6803
 26.5624
 24.7775
 24.8747
 24.7897
 24.8088
 26.6529
 26.6581
 26.5949
 26.6501
 25.0851
 25.1045
 25.0353
 25.1154
 25.8146
 25.7292
 25.7777
 25.734
 26.0604
 26.1497
 26.063
 26.0534
 26.6843
 26.6169
 26.6248
 26.6849
 26.0792
 26.0713
 25.9913
 26.0669
 25.0743
 25.0878
 25.0623
 25.057
 28.1747
 28.1371
 28.1054
 28.2206
 27.0854
 27.1011
 27.1016
 27.081
 27.0104
 26.9888
 27.0119
 27.0607
 26.4232
 26.3926
 26.4567
 26.3709
 26.2691
 26.3188
 26.2822
 26.311
 26.5205
 26.5665
 26.5811
 26.5226
 24.6506
 24.6793
 24.5782
 24.687
 26.7099
 26.752
 26.7478
 26.6635
 25.6291
 25.6353
 25.6106
 25.6814
 25.9906
 25.1403
 25.2066
 25.2049
 25.2243
 25.6864
 25.6303
 25.5854
 25.632
 27.1314
 27.1019
 27.0912
 27.1188
 26.3647
 26.391
 26.3412
 26.3033
 26.5448
 26.6175
 26.5754
 26.5819
 25.0155
 25.0854
 25.0702
 25.0619
 26.2252
 26.3146
 26.2528
 26.2702
 24.9262
 24.9185
 24.9835
 24.9771
 25.4241
 25.3876
 25.4491
 25.3702
 27.125
 27.0844
 27.1069
 27.0289
 26.6983
 26.7627
 26.6523
 26.7026
 25.6162
 25.5726
 25.5628
 25.6052
 26.0675
 26.1408
 26.0487
 26.9783
 27.0098
 26.9724
 26.9521
 25.5312
 25.6437
 25.563
 25.615
 26.5865
 26.6764
 26.6512
 26.6321
 26.0915
 26.1808
 26.1319
 26.0857
 24.9013
 24.9021
 25.0014
 24.9199
 26.431
 26.4572
 26.4945
 26.4441
 25.1732
 25.2629
 25.1973
 25.168
 25.9631
 26.0103
 25.9677
 26.039
 25.2651
 25.3056
 25.3595
 25.323
 24.9822
 24.9815
 24.9051
 24.9421
 26.3756
 26.3857
 26.3341
 26.3383
 28.0842
 27.9909
 27.9843
 27.9464
 24.5342
 24.5745
 24.5851
 24.5859
 25.5618
 25.6015
 25.6132
 25.5705
 26.8134
 26.8183
 26.6995
 26.7909
 26.2482
 26.1943
 26.1898
 26.2504
 27.3898
 27.3698
 27.3929
 27.4416
 24.9515
 24.9009
 24.8234
 24.8819
 27.0081
 27.0544
 27.0278
 27.0179
 25.7428
 25.6837
 25.7681
 25.7243
 26.7356
 26.8506
 26.7594
 26.7635
 24.4909
 24.503
 24.4986
 24.5698
 24.5929
 24.6055
 24.6542
 24.6905
 25.346
 25.4024
 25.4269
 25.3235
 25.7096
 25.6966
 25.7127
 25.7665
 25.7079
 26.8541
 26.8472
 26.9139
 26.8723
 26.7721
 26.7979
 26.8222
 26.7586
 25.5022
 25.4468
 25.4428
 25.4336
 26.8898
 26.8301
 26.8359
 26.8925
 26.6436
 26.6745
 26.6766
 26.6165
 25.376
 25.3498
 25.3561
 25.4247
 26.3492
 26.2697
 26.3461
 26.2753
 25.506
 25.5008
 25.5021
 25.4492
 26.5876
 26.5958
 26.6475
 26.6125
 26.4397
 26.4028
 26.3857
 26.3795
 26.1413
 26.0783
 26.1616
 26.1019
 25.743
 25.6721
 25.707
 25.6407
 25.2221
 25.2547
 25.1556
 25.177
 25.7837
 25.8006
 25.8353
 25.8259
 25.8164
 25.7745
 25.768
 25.7757
 27.1768
 27.1777
 27.1337
 27.1106
 25.6077
 25.6084
 25.5699
 25.5997
 26.0206
 26.0098
 25.9708
 26.0144
 25.9204
 25.9324
 25.9711
 25.938
 26.3848
 26.3758
 26.4351
 26.3926
 26.9553
 26.9668
 26.9246
 27.025
 25.3306
 25.3575
 25.327
 25.2957
 26.9293
 26.9765
 26.9549
 26.8891
 24.6765
 24.6803
 24.5873
 24.6446
 25.2309
 25.2795
 25.2008
 25.2306
 25.2188
 25.2066
 25.1958
 25.2251
 25.0638
 25.0986
 25.1029
 25.0272
 25.4213
 25.395
 25.4528
 25.3972
 27.408
 27.4458
 27.512
 25.843
 25.9293
 25.8567
 25.8626
 25.2579
 25.2926
 25.309
 25.2726
 26.3899
 26.4582
 26.423
 26.4052
 26.6226
 26.5913
 26.6498
 26.5862
 25.4156
 25.4024
 25.3622
 25.4682
 26.1488
 26.1692
 26.1493
 26.0845
 26.5617
 26.5533
 26.592
 26.5931
 24.6844
 24.5929
 25.6142
 25.6217
 25.6875
 25.6778
 26.1161
 26.1396
 26.1718
 25.8119
 25.7902
 25.7963
 25.8629
 27.1978
 27.2371
 27.1604
 27.17
 25.1742
 25.1316
 25.1296
 25.2062
 25.8321
 25.8481
 25.8851
 25.8753
 26.3974
 26.448
 26.4121
 26.3599
 25.8596
 25.9202
 25.9017
 25.8709
 26.9487
 26.98
 26.9206
 26.9432
 27.0787
 26.9698
 27.0487
 27.0254
 26.1346
 26.0879
 26.0597
 26.0994
 26.8551
 26.8627
 26.8751
 26.8182
 26.044
 26.0773
 26.0626
 26.0868
 25.0853
 25.104
 25.1726
 25.1803
 26.8362
 26.8008
 26.7685
 26.8115
 27.7104
 27.643
 27.6512
 27.6196
 25.6412
 25.758
 25.694
 25.6527
 26.2085
 26.1645
 26.2249
 26.1671
 26.9126
 26.9289
 26.8577
 26.8767
 26.1157
 26.1472
 26.0822
 26.0919
 24.9878
 25.0116
 24.9751
 24.986
 26.6798
 26.6881
 26.7227
 26.6959
 25.7366
 25.7613
 25.7608
 25.7908
 26.2845
 26.2039
 26.253
 26.1676
 25.4483
 25.4014
 25.403
 25.3614
 25.143
 25.1407
 25.1095
 25.1701
 26.8036
 26.7532
 26.7877
 26.6938
 26.4448
 26.3962
 26.4095
 26.4254
 25.72
 25.7264
 25.8102
 25.7521
 26.9422
 26.9175
 26.9256
 26.9038
 28.1229
 28.2031
 28.1946
 28.1553
 25.8782
 25.9285
 25.9408
 25.9357
 28.2843
 28.3041
 28.2493
 28.2016
 28.1517
 28.074
 28.0615
 28.0906
 27.2066
 27.1646
 27.1645
 27.2256
 25.6032
 25.6437
 25.6839
 25.7014
 25.6381
 25.5787
 25.5801
 25.5353
 25.5337
 25.592
 25.5485
 25.6159
 25.6695
 25.734
 25.7205
 25.6445
 27.4475
 27.5053
 27.462
 27.4956
 26.8215
 26.8598
 26.7843
 26.8084
 26.805
 26.9081
 26.8991
 26.8585
 26.3191
 26.2506
 26.3164
 26.2396
 25.7884
 25.8274
 25.7884
 25.8127
 25.4644
 25.4642
 25.4944
 25.4375
 26.7356
 26.6694
 26.659
 26.7248
 25.5791
 26.1502
 26.1138
 26.1046
 26.1429
 24.5841
 24.5734
 24.4932
 24.5419
 26.2063
 26.2084
 26.1594
 26.2039
 24.9947
 24.9233
 24.9768
 26.8883
 26.8407
 26.8233
 26.9032
 27.9874
 27.9261
 27.931
 27.898
 26.0593
 26.0678
 25.9997
 26.1022
 26.3915
 26.4638
 26.4586
 26.4604
 26.8909
 26.8351
 26.8029
 26.794
 26.7846
 26.7576
 26.8202
 26.7528
 27.2462
 27.361
 27.2931
 27.3021
 25.7581
 25.7646
 25.7188
 25.6378
 26.0947
 26.0339
 26.1032
 26.0628
 26.5494
 26.5894
 26.5437
 26.5591
 26.1507
 26.2046
 26.0773
 25.2982
 25.3392
 25.3524
 26.6737
 26.6677
 26.7419
 26.7518
 27.3158
 27.3517
 27.3502
 27.3221
 26.5288
 26.4927
 26.4883
 26.5445
 27.2227
 27.283
 27.2027
 27.3091
 25.3354
 25.2358
 25.308
 25.292
 25.3372
 25.3167
 25.2954
 25.2601
 26.9522
 26.9815
 26.9681
 26.9807
 27.3092
 27.4006
 27.3484
 27.3246
 25.8797
 25.9593
 25.895
 25.9313
 24.7568
 24.81
 24.7163
 24.7944
 27.2944
 27.2938
 27.3371
 27.2882
 25.5579
 25.6217
 25.6219
 25.5456
 27.7442
 27.7808
 27.7242
 27.7559
 25.4502
 25.4027
 25.4697
 25.354
 26.299
 26.3483
 26.2716
 26.3706
 25.3372
 25.3364
 25.2668
 25.2782
 26.8839
 26.8631
 26.8438
 26.7838
 26.3934
 26.4449
 26.4342
 26.4447
 26.6132
 26.6371
 26.577
 26.5736
 26.6029
 26.6371
 26.5645
 26.6469
 25.8912
 25.8529
 25.8668
 25.9199
 26.1847
 26.2392
 26.1799
 26.1823
 25.2477
 25.3116
 25.3312
 25.2927
 24.6517
 24.5937
 24.7237
 24.7369
 26.2195
 26.2263
 26.273
 26.2312
 25.0925
 25.1133
 25.1431
 25.0517
 25.4862
 25.3947
 25.3695
 25.4065
 27.464
 27.5099
 27.5729
 27.4871
 26.9403
 26.8295
 26.8481
 26.8851
 26.3041
 26.3511
 26.3681
 26.3365
 27.2506
 27.3055
 27.3176
 27.3472
 25.8183
 25.7485
 25.7593
 25.7938
 25.3318
 25.223
 25.2828
 25.2647
 27.206
 27.1222
 27.2008
 27.2067
 26.103
 26.0533
 26.0936
 26.0792
 26.5506
 26.5629
 26.5618
 26.595
 28.0761
 28.0287
 27.9909
 28.0526
 26.42
 26.4314
 26.4336
 26.3806
 26.0765
 26.0394
 26.0517
 26.0278
 25.5524
 25.5017
 25.5375
 25.482
 26.6472
 26.6303
 26.6217
 26.0619
 26.0719
 26.0877
 26.0766
 26.4611
 26.5041
 26.382
 26.4488
 25.6284
 25.6865
 25.6306
 25.6652
 25.5916
 25.5117
 25.5524
 25.5413
 24.969
 25.0113
 24.9817
 25.0604
 26.7646
 26.7811
 26.7265
 26.7865
 24.7505
 24.736
 24.7107
 24.7377
 26.6506
 26.597
 26.645
 26.6769
 26.1007
 26.0344
 26.0423
 26.0077
 26.0283
 26.0922
 26.0718
 26.1085
 28.2076
 28.2737
 28.2043
 28.2335
 26.4534
 26.4932
 26.4484
 26.436
 26.1043
 26.1281
 26.0627
 25.9934
 26.1394
 26.1237
 26.1093
 26.1931
 24.5385
 24.5448
 24.613
 24.5773
 26.659
 26.5915
 26.5527
 26.6391
 26.5768
 26.6159
 26.545
 26.6306
 25.491
 25.4178
 25.4708
 25.4469
 26.8127
 26.8296
 26.8669
 26.8781
 26.8769
 26.8919
 26.8524
 26.9018
 25.6211
 25.7009
 25.6273
 25.683
 25.6273
 25.6187
 25.6752
 25.6189
 25.9533
 25.9443
 25.8548
 25.8917
 26.5949
 26.6262
 25.7848
 25.8292
 25.757
 25.8153
 26.5938
 26.5553
 26.6004
 26.5751
 26.2749
 26.2114
 26.187
 26.2046
 24.9745
 25.0157
 25.0401
 24.9736
 26.1926
 26.1748
 26.1436
 26.131
 25.395
 25.359
 25.3361
 25.4147
 26.7071
 26.6097
 26.643
 26.6183
 26.3771
 26.4349
 26.4413
 26.4191
 26.1296
 26.0115
 26.0684
 26.0742
 26.8257
 26.8784
 26.8988
 26.8517
 27.6456
 27.5888
 27.6395
 27.6673
 24.8641
 24.8764
 24.9126
 24.8857
 27.2246
 27.2206
 27.1951
 27.2486
 25.7733
 25.7516
 25.8147
 25.8134
 27.6338
 27.6128
 27.6131
 27.6872
 25.8036
 25.7426
 25.7798
 25.7872
 26.6643
 26.6738
 26.6984
 26.679
 26.6731
 26.6543
 26.7145
 26.6783
 25.9054
 25.8837
 25.9503
 25.9179
 25.1999
 25.2602
 25.2013
 25.2735
 26.3905
 26.3003
 26.3146
 26.3157
 26.9686
 26.9962
 26.9653
 26.9312
 25.1999
 25.1102
 25.1511
 25.0883
 26.6419
 26.6538
 26.5917
 26.577
 26.3442
 26.2798
 26.3052
 26.2615
 25.4466
 25.3242
 25.3569
 25.3904
 25.9797
 25.9231
 25.9025
 25.9009
 26.155
 26.1697
 26.1435
 26.1061
 24.9525
 24.9187
 24.8767
 24.854
 25.223
 25.1913
 25.2037
 25.2315
 25.8686
 25.854
 25.9328
 25.9038
 26.1908
 26.1573
 26.2202
 26.0914
 26.5045
 26.4838
 26.4842
 26.4019
 26.9795
 26.9804
 27.0387
 25.3482
 25.324
 25.3172
 25.281
 27.6405
 27.6793
 27.7654
 27.7234
 25.515
 25.5898
 25.5497
 25.5723
 26.7568
 26.8417
 26.7941
 26.7868
 26.9064
 26.9752
 26.9482
 26.9594
 25.0619
 25.1247
 25.092
 25.0111
 26.0089
 26.0441
 25.9931
 26.0342
 26.103
 26.1237
 26.6089
 26.2431
 26.1811
 26.2646
 26.217
 27.6758
 27.6117
 25.6255
 25.6066
 25.5886
 27.0355
 27.0155
 27.0904
 27.0435
 25.56
 25.6279
 25.6057
 25.5998
 26.3166
 26.2602
 26.2763
 26.2875
 26.6146
 26.5239
 26.5772
 26.5657
 25.0403
 25.0405
 24.9651
 25.015
 27.0562
 26.9975
 27.0684
 26.996
 25.7204
 25.7246
 25.6982
 25.6652
 24.8455
 24.8364
 24.915
 24.9137
 26.0341
 26.0995
 26.0529
 26.0924
 25.6699
 25.7681
 25.739
 25.7386
 26.1464
 26.1024
 26.1492
 26.2399
 24.5792
 24.7024
 24.5975
 24.7002
 24.7015
 24.6888
 24.7248
 24.7886
 24.8229
 24.8637
 24.8743
 24.8188
 26.27
 26.3209
 26.2612
 26.2706
 25.8283
 25.9095
 25.8767
 25.8443
 26.1733
 26.1779
 26.2245
 26.188
 26.3458
 26.3499
 26.2848
 26.3674
 25.5782
 25.5629
 25.5546
 25.6287
 25.2202
 25.1554
 25.1905
 25.1411
 25.1753
 25.1501
 25.2093
 25.1105
 25.9618
 25.9336
 25.9801
 25.9342
 26.1632
 26.1596
 26.1823
 26.2111
 26.6831
 26.7106
 26.6964
 26.6239
 25.4046
 25.3532
 25.346
 25.4256
 27.1788
 27.1692
 27.2433
 27.1885
 25.385
 25.3532
 25.3833
 25.3877
 25.9357
 25.8388
 25.9267
 25.8587
 25.9521
 25.9512
 25.9355
 26.0135
 27.0148
 27.0089
 27.0314
 27.0942
 28.3472
 28.2881
 28.3883
 28.3736
 26.4362
 26.3749
 26.4369
 26.4219
 25.3523
 25.4128
 25.3739
 25.3472
 26.885
 26.9499
 26.8992
 26.8647
 25.815
 25.7775
 25.857
 25.785
 25.7743
 25.7303
 25.6725
 25.6907
 25.4756
 25.4432
 25.5327
 25.509
 27.345
 27.3641
 27.3794
 27.3179
 27.3269
 27.3095
 27.3461
 27.3619
 25.3116
 25.2224
 25.2425
 25.2717
 25.5797
 25.6652
 25.6957
 25.6341
 26.501
 26.49
 26.5282
 26.5293
 26.1047
 26.1205
 26.0645
 26.0354
 25.9754
 25.9537
 25.958
 25.9994
 26.4887
 26.5419
 26.4362
 26.5231
 25.6919
 25.7426
 25.7092
 25.7607
 24.3105
 24.4093
 24.3403
 24.3249
 25.7899
 25.7051
 25.7186
 25.6806
 26.1127
 26.0899
 26.1302
 26.0572
 26.0881
 26.0899
 26.1409
 26.097
 25.9359
 25.8913
 25.9269
 25.9789
 24.7679
 24.7657
 24.8204
 24.7771
 25.2618
 25.3218
 25.2898
 25.7197
 25.7097
 25.6858
 25.7247
 26.9815
 26.9932
 26.9201
 26.99
 26.2773
 26.2817
 26.3281
 26.2564
 25.197
 25.2836
 25.3206
 25.2779
 26.6812
 26.6505
 26.6438
 26.6136
 26.4169
 26.4563
 26.4601
 26.3974
 26.3208
 26.358
 26.4218
 26.3534
 25.5875
 25.6373
 25.653
 25.6374
 25.917
 25.9653
 25.9137
 26.0175
 25.7157
 25.8182
 25.7807
 25.7614
 26.8391
 26.8009
 26.798
 26.8246
 26.3754
 26.3372
 26.3232
 26.3816
 25.6343
 25.6766
 25.6211
 25.5651
 26.3883
 26.365
 26.3275
 26.4172
 25.7724
 25.703
 25.7088
 25.7369
 26.8679
 26.8921
 26.8505
 26.9024
 24.9206
 24.9068
 24.9738
 24.9216
 26.6982
 26.7347
 26.6717
 26.6497
 26.7495
 26.8712
 26.7973
 26.7974
 25.4404
 25.4316
 25.3869
 25.3756
 26.7302
 26.7184
 26.7037
 26.7056
 25.7679
 25.8031
 25.7714
 25.8335
 27.0236
 27.0282
 27.097
 27.088
 25.9281
 25.9588
 25.9467
 25.8893
 24.9968
 24.8937
 24.9746
 24.9209
 25.8881
 25.9792
 25.9767
 25.9418
 25.5195
 25.4956
 25.5113
 25.5239
 25.7743
 25.7954
 25.769
 25.7478
 25.7709
 25.7576
 25.7283
 25.6873
 24.8169
 24.795
 24.7721
 24.8734
 26.8171
 26.8484
 26.8928
 26.889
 26.7309
 26.7618
 26.8245
 26.7682
 25.1151
 25.1034
 25.1485
 25.057
 25.0413
 25.0053
 25.045
 26.5294
 26.5609
 26.5625
 26.5121
 25.8045
 25.7373
 25.7878
 25.7972
 25.7912
 25.7739
 25.8349
 25.7655
 26.7625
 26.7052
 26.7937
 26.7456
 25.482
 25.4409
 25.454
 25.4367
 26.1499
 26.2134
 26.2068
 26.1393
 25.9202
 25.9916
 25.9758
 26.0062
 25.4271
 25.3832
 25.3677
 25.3803
 27.0361
 27.0627
 27.0313
 26.9976
 26.5408
 26.6154
 26.6085
 26.591
 24.7762
 24.8794
 24.8008
 24.8266
 26.8084
 26.8202
 26.799
 26.7071
 27.0368
 27.0698
 27.0522
 27.0484
 26.1335
 26.1061
 26.1379
 26.0574
 27.6641
 27.6451
 27.6821
 27.602
 26.03
 26.0154
 26.0456
 26.0241
 25.3861
 25.4242
 25.4407
 25.4499
 25.1926
 25.2314
 25.2158
 27.0852
 27.0767
 27.066
 27.0883
 26.6648
 26.5948
 26.6786
 26.61
 26.7307
 26.7513
 26.7673
 26.8053
 26.5943
 26.649
 26.61
 26.6361
 24.7321
 24.6819
 24.6583
 24.6776
 26.972
 26.9623
 26.9898
 27.0273
 26.628
 26.6802
 26.6377
 26.5744
 25.2564
 25.2286
 25.2618
 25.2894
 26.3919
 26.4173
 26.3762
 26.5454
 26.6294
 26.5815
 25.841
 25.9126
 25.9526
 27.5437
 27.4746
 27.463
 27.5182
 26.0218
 25.9928
 26.0271
 25.9682
 26.0112
 25.9834
 26.0669
 26.0437
 25.0831
 25.048
 25.1166
 25.1297
 24.9514
 24.979
 24.8652
 24.9691
 26.801
 26.8431
 26.849
 26.7536
 25.8836
 25.8092
 25.8186
 25.8145
 25.8216
 25.7759
 25.748
 25.7708
 26.1325
 26.057
 26.089
 26.0353
 26.4406
 26.4078
 26.4073
 26.4811
 25.8893
 25.9401
 25.9207
 25.871
 26.8177
 26.8016
 26.8319
 26.7844
 25.0815
 25.1053
 25.0764
 25.057
 26.6323
 26.6392
 26.6012
 26.5819
 25.1752
 25.2406
 25.211
 25.1674
 24.9045
 24.9461
 24.9777
 24.9143
 25.0238
 25.0484
 25.0423
 25.0598
 26.6781
 26.7215
 25.5686
 25.5741
 25.6232
 25.596
 26.7731
 26.7014
 26.734
 26.7607
 25.3886
 25.2848
 25.3231
 25.2999
 25.1507
 25.2226
 25.1327
 25.2103
 26.4594
 26.4291
 26.4135
 26.4477
 25.9242
 25.9219
 25.8717
 25.9031
 26.5805
 26.5748
 26.5308
 26.5744
 26.2499
 26.2406
 26.2364
 26.178
 27.9907
 27.8879
 28.0039
 27.9086
 25.0009
 25.0353
 24.951
 25.0208
 26.5535
 26.6306
 26.5475
 26.5403
 27.0504
 27.1072
 27.1019
 27.0346
 26.1838
 26.2057
 26.1511
 26.1184
 27.0027
 27.1029
 27.1026
 27.0177
 26.2679
 26.3357
 26.3466
 26.3023
 25.5461
 25.5691
 25.4942
 25.5876
 26.0626
 26.1025
 26.1048
 26.0788
 25.0857
 24.9802
 25.0873
 26.1845
 26.1197
 26.2283
 26.1464
 28.0403
 28.0654
 28.068
 28.1048
 24.6584
 24.6307
 24.6096
 24.6675
 25.9826
 25.9865
 25.9517
 25.9946
 25.4293
 25.4734
 25.5226
 25.4608
 26.8424
 26.7877
 26.9191
 26.8637
 26.4123
 26.3701
 26.4759
 26.4259
 26.4505
 26.3603
 26.3992
 26.3603
 24.9952
 25.0354
 24.9799
 24.9446
 26.35
 26.4004
 26.4358
 26.4176
 24.6845
 24.7041
 24.6686
 24.74
 25.5613
 25.6254
 25.6272
 25.5555
 26.7913
 26.7751
 26.7531
 26.7878
 27.6817
 27.6789
 27.6239
 27.7092
 26.2476
 26.3328
 26.286
 26.3443
 26.0427
 26.0474
 25.9935
 26.0626
 25.46
 25.471
 25.4986
 25.5562
 27.9097
 27.9587
 27.8732
 27.9315
 26.2202
 26.2694
 26.1873
 26.2055
 24.8069
 24.8412
 24.8607
 24.8428
 25.3212
 25.2595
 25.2824
 25.3022
 25.2462
 25.2691
 25.2061
 25.286
 25.2465
 25.3028
 25.3144
 25.2905
 25.2664
 25.1886
 25.2395
 25.2426
 25.8028
 25.7795
 25.8059
 25.8058
 26.7461
 26.6226
 26.56
 26.5472
 26.5891
 25.6597
 25.7466
 25.7163
 25.7066
 25.6744
 25.6543
 25.7316
 25.7297
 27.3231
 27.2869
 27.2836
 27.3217
 25.152
 25.156
 25.1883
 25.1603
 25.4097
 25.3633
 25.3028
 25.3427
 26.831
 26.7324
 26.7523
 26.6516
 26.6528
 26.6693
 26.6178
 26.576
 26.5885
 26.5502
 26.7007
 26.7698
 26.8562
 26.8098
 25.656
 25.5909
 25.6064
 25.6751
 24.8219
 24.8066
 24.8422
 24.8054
 26.0711
 26.0977
 26.0561
 26.1279
 24.9324
 25.036
 25.0588
 25.0709
 26.2113
 26.2299
 26.2505
 26.1848
 25.6219
 25.6804
 25.7141
 25.7039
 26.7151
 26.7246
 26.7428
 26.7837
 25.899
 25.8243
 25.9212
 25.8587
 25.8057
 25.7372
 25.7009
 25.8041
 26.6951
 26.7252
 26.7789
 26.7542
 26.3879
 26.4268
 26.3122
 26.3466
 26.1801
 26.1889
 26.2369
 26.278
 25.8365
 25.8134
 25.8388
 25.8071
 27.1298
 27.1354
 27.1137
 27.057
 25.6659
 25.7326
 25.7034
 25.6535
 26.4078
 26.4833
 26.3966
 26.3663
 25.575
 25.584
 25.5747
 25.6143
 25.0393
 25.0991
 25.0534
 25.076
 24.9424
 24.9898
 24.9783
 24.9614
 24.9348
 24.8951
 25.0008
 24.6742
 24.6312
 24.6029
 24.5678
 25.2434
 25.3136
 25.373
 25.2873
 26.054
 26.0666
 26.0238
 26.0334
 24.8628
 24.8997
 24.9368
 24.8722
 26.0095
 26.0091
 26.0427
 26.05
 25.7891
 25.7546
 25.7705
 25.1022
 25.0358
 25.0728
 25.0769
 25.0785
 25.1513
 25.1204
 25.8706
 25.8793
 25.8368
 25.8239
 26.4414
 26.4053
 26.4477
 26.3681
 25.606
 25.6549
 25.6721
 25.68
 24.9658
 24.9213
 24.9576
 24.9835
 26.5948
 26.6235
 26.6048
 26.6597
 26.1136
 26.1341
 26.1737
 26.1908
 26.0226
 25.9298
 26.0122
 26.0203
 25.5051
 25.5696
 25.5319
 25.5328
 26.6632
 26.7124
 26.6307
 26.698
 26.8744
 26.9328
 26.8686
 26.8607
 26.1
 26.1014
 26.1086
 26.054
 24.6781
 24.7155
 24.7221
 24.7167
 26.5475
 26.6145
 26.5384
 26.5805
 26.7902
 26.7504
 26.824
 26.7444
 25.7096
 25.7848
 25.7059
 25.7222
 26.572
 26.5296
 26.5691
 26.8425
 26.7865
 26.8106
 25.8248
 25.8757
 25.7812
 25.8518
 26.7708
 26.8074
 26.8411
 26.7715
 26.8263
 26.8965
 26.8308
 26.8423
 25.662
 25.6488
 25.6755
 26.6579
 26.6642
 25.1259
 25.1102
 25.0313
 25.019
 25.6093
 25.5284
 25.5309
 25.551
 27.1851
 27.1406
 27.2217
 27.1208
 27.5418
 27.4881
 27.5852
 27.5125
 26.5321
 26.6474
 26.584
 26.5683
 25.0737
 25.076
 25.0372
 25.0638
 25.5637
 25.6092
 25.6333
 25.6121
 27.0683
 27.0789
 27.0876
 27.0962
 26.5725
 26.5717
 26.5324
 26.5304
 26.584
 26.5589
 26.57
 26.742
 26.6972
 26.6934
 26.6964
 26.6951
 26.7482
 26.6958
 26.6679
 26.8402
 26.9185
 26.8661
 26.9102
 24.9287
 24.8601
 24.9144
 24.9003
 24.8889
 24.8327
 24.9321
 26.1055
 26.1464
 26.0962
 26.1607
 26.5911
 26.6733
 26.5804
 26.5984
 24.6703
 24.6143
 26.8486
 26.9001
 26.8823
 26.9207
 25.9301
 25.8341
 25.8946
 25.8453
 25.7404
 25.7656
 26.7837
 26.7852
 26.7298
 26.7788
 24.8902
 24.8405
 24.914
 24.8008
 24.7325
 24.7833
 24.7414
 24.6458
 26.2016
 26.1757
 26.1943
 27.3086
 27.2475
 27.273
 26.6575
 26.5756
 26.6643
 26.6494
 25.3995
 25.458
 25.3577
 25.4437
 26.4198
 26.4539
 26.4834
 26.5109
 26.5105
 26.5436
 26.4907
 26.5519
 25.6471
 25.6407
 25.6221
 25.5499
 27.8845
 27.8098
 27.8857
 27.9379
 25.4816
 25.4765
 25.4129
 25.4192
 25.4695
 25.4754
 25.4259
 25.409
 26.8794
 26.8674
 26.9614
 26.8968
 25.1052
 25.0584
 25.0511
 25.1176
 28.0102
 28.0771
 28.0989
 28.1436
 24.9328
 25.0416
 25.043
 25.0346
 25.1878
 25.2586
 26.5346
 26.4875
 26.4956
 26.4545
 26.9464
 27.0176
 26.9775
 26.925
 25.1481
 25.0871
 25.0906
 25.1207
 26.4524
 26.4415
 26.445
 26.4805
 24.6525
 24.6902
 24.6683
 26.6195
 26.6808
 26.686
 27.0372
 26.9599
 26.9373
 24.976
 24.9322
 24.9574
 24.9841
 26.609
 26.6531
 26.6573
 26.6412
 25.1192
 25.1123
 27.0603
 27.0085
 27.059
 27.0375
 26.0568
 25.989
 25.9978
 26.0315
 26.5747
 26.592
 26.3276
 26.2178
 26.2206
 26.2829
 26.4924
 26.4966
 26.4908
 26.5617
 24.7242
 24.669
 24.7652
 24.7422
 26.9912
 27.0267
 27.0128
 25.2965
 27.9443
 27.9903
 27.978
 28.0011
 25.1162
 25.0864
 25.0626
 25.1656
 26.5136
 26.5068
 26.4071
 26.4351
 25.4401
 25.4805
 25.4664
 25.4461
 26.4925
 26.5412
 26.5681
 26.5082
 25.6595
 27.3168
 27.3432
 27.3446
 27.3086
 25.6286
 25.6386
 25.6489
 25.697
 25.2248
 25.2041
 25.159
 25.2771
 25.274
 25.3474
 25.2711
 25.0936
 25.0103
 25.0777
 25.0558
 26.8608
 26.8436
 26.7703
 26.8107
 25.035
 25.0324
 25.0455
 24.9855
 27.0439
 27.0638
 27.0449
 27.1134
 25.093
 25.0552
 25.039
 25.0371
 26.1395
 26.1714
 26.1799
 26.1927
 25.4896
 25.4547
 25.4329
 25.4195
 25.8492
 25.8796
 25.8974
 25.9127
 24.8873
 24.9715
 26.024
 26.0809
 26.066
 26.0265
 27.2367
 27.262
 27.1834
 27.2605
 27.0455
 27.0714
 26.9848
 27.0602
 25.8643
 25.8171
 25.7998
 25.8003
 25.4543
 25.4579
 25.4619
 25.3878
 25.3217
 25.3808
 25.3425
 25.3093
 25.0333
 25.1012
 25.0869
 25.1317
 25.3324
 25.2626
 25.3028
 25.3375
 26.9947
 27.0191
 26.9716
 27.0566
 26.7773
 26.7785
 26.7935
 26.7094
 24.6203
 24.6765
 24.7034
 24.6942
 25.8204
 25.7784
 25.8052
 25.7122
 26.6727
 26.59
 26.657
 26.6304
 27.677
 27.6831
 27.6133
 27.7414
 25.0966
 25.0667
 25.1199
 25.0121
 26.6631
 26.6394
 26.6236
 26.5845
 26.2802
 26.2315
 26.3117
 26.2701
 27.1196
 27.1321
 27.1228
 27.0713
 25.7125
 25.7489
 25.7227
 25.7214
 24.972
 24.9663
 24.9938
 24.9721
 25.7892
 25.88
 25.8447
 25.8592
 26.2416
 26.2075
 26.1632
 26.1972
 27.2011
 27.1621
 27.13
 27.2231
 24.9466
 25.5511
 25.5093
 25.5812
 25.5041
 26.2379
 26.2679
 26.3206
 26.2794
 25.3866
 25.3525
 25.3674
 25.3055
 26.6451
 26.7242
 26.6743
 26.6434
 25.773
 25.7244
 25.7938
 27.2236
 27.1151
 27.1942
 27.1799
 25.2221
 25.3297
 25.2662
 25.2979
 26.9465
 26.9598
 26.9074
 26.9458
 24.4125
 24.446
 24.4224
 24.3751
 26.7015
 26.696
 26.6792
 26.6976
 27.5843
 27.4398
 27.4627
 27.5168
 27.2529
 27.2609
 27.2101
 27.1903
 24.6395
 24.69
 24.7072
 24.7393
 24.8802
 24.8891
 24.8592
 24.8479
 26.1121
 26.0618
 26.0809
 26.0501
 26.6226
 26.6559
 26.6174
 25.9637
 25.9675
 26.043
 26.0167
 25.5855
 25.6251
 25.5378
 25.5559
 25.883
 25.7742
 25.811
 25.8275
 26.0089
 25.9968
 25.8952
 25.9421
 24.5926
 24.6395
 24.6422
 24.6683
 26.8089
 26.8314
 26.7405
 26.8076
 27.2079
 27.2939
 27.2985
 25.428
 25.4633
 25.4673
 25.5083
 25.1943
 25.1367
 25.165
 25.1788
 26.6725
 26.6801
 26.6604
 26.7789
 26.766
 26.7315
 26.8225
 25.0244
 25.0599
 24.9904
 25.0857
 26.1236
 26.1394
 26.0772
 26.1187
 26.7494
 26.8199
 26.7656
 26.7774
 26.2478
 26.2809
 26.2773
 26.2333
 25.2435
 25.2353
 25.2921
 25.2405
 26.6659
 26.5887
 26.703
 26.6131
 26.1895
 26.2888
 26.2763
 26.2193
 26.4941
 26.4169
 26.4714
 24.9137
 24.9264
 24.9593
 24.9777
 26.0521
 26.0607
 26.0917
 26.0204
 24.5976
 24.6292
 24.5105
 25.9826
 25.9422
 25.967
 25.9824
 27.15
 27.1056
 27.1809
 27.154
 25.8403
 25.8255
 25.7914
 25.7408
 26.0398
 25.954
 26.0611
 26.6581
 26.6494
 26.5806
 26.5896
 26.9851
 26.9686
 27.0128
 26.9435
 26.6607
 26.6272
 26.5885
 26.6639
 27.6231
 27.601
 27.5433
 27.5352
 26.3203
 26.3303
 26.3552
 26.3679
 26.5269
 26.549
 26.4736
 26.5642
 24.9296
 25.0293
 25.0085
 24.9024
 26.9455
 26.8671
 26.8841
 26.9097
 25.6711
 25.69
 25.6557
 25.6238
 24.672
 24.6538
 24.6897
 24.726
 24.66
 24.7556
 24.711
 24.6964
 25.3012
 25.2662
 25.2898
 25.2915
 24.6747
 24.5933
 24.6026
 24.7157
 24.9824
 24.9819
 24.9889
 24.5744
 24.6778
 24.6519
 24.6532
 27.164
 27.1983
 27.1622
 27.2273
 26.2551
 26.3428
 26.3489
 26.3307
 26.4611
 26.397
 26.4459
 26.3938
 26.416
 26.4497
 26.4511
 26.4658
 24.9007
 24.9397
 24.8831
 24.8713
 26.3332
 26.3276
 26.3924
 26.3934
 26.6478
 26.7143
 26.7227
 26.6709
 25.4756
 25.4919
 25.4338
 25.5191
 26.5724
 26.5244
 26.5786
 26.511
 25.4206
 25.4674
 25.4979
 25.9458
 25.8833
 25.8671
 25.0062
 25.0767
 25.0884
 25.0566
 26.2419
 26.2155
 26.2628
 26.2612
 25.652
 25.7059
 25.6855
 25.6312
 26.4348
 26.5124
 26.4786
 26.4156
 24.5836
 24.6311
 24.8196
 24.8435
 24.8645
 24.7785
 27.2083
 27.2349
 27.2288
 27.2751
 25.6524
 25.6087
 25.5922
 25.552
 26.6503
 26.5966
 26.6663
 26.6851
 28.2357
 28.3347
 28.2373
 28.271
 26.6464
 26.6744
 26.7127
 26.6684
 25.4829
 25.545
 25.4842
 26.9865
 26.9976
 26.9117
 26.9133
 24.7041
 24.7779
 24.699
 24.7654
 26.6647
 26.6309
 26.6535
 26.616
 25.7201
 25.6593
 25.6761
 25.7142
 27.0693
 27.0677
 27.1248
 27.0762
 27.8384
 27.7922
 27.8068
 27.7671
 26.7459
 26.6918
 26.7442
 26.7657
 26.3113
 26.337
 26.2889
 25.8669
 25.9708
 25.8764
 25.9183
 26.8546
 26.8519
 26.9087
 25.3731
 25.4027
 25.3549
 25.3181
 25.3122
 25.2295
 25.3152
 25.2466
 25.4954
 25.5665
 25.5129
 25.4995
 24.8008
 24.9426
 24.9001
 24.8732
 25.303
 25.3251
 25.2668
 26.4794
 26.4298
 26.4483
 26.4092
 25.3792
 25.4355
 25.6133
 25.6672
 25.6854
 25.6504
 25.5094
 25.5301
 25.5124
 25.4811
 26.7263
 26.7016
 26.7139
 26.7668
 26.7122
 26.6561
 26.7026
 26.644
 28.2866
 28.2393
 28.2135
 28.2526
 26.6876
 26.6362
 26.6879
 26.4324
 26.4554
 26.4712
 26.4467
 25.9775
 25.978
 26.0118
 26.0239
 26.456
 26.3974
 26.3858
 26.4305
 27.1535
 27.1157
 27.1633
 27.1615
 25.2056
 25.3004
 25.234
 25.268
 26.1548
 26.1117
 26.1502
 26.1914
 25.0258
 25.0293
 25.0461
 24.9965
 25.8848
 25.9296
 25.8837
 25.9201
 24.8381
 24.7938
 24.8314
 27.7544
 27.6954
 27.7052
 27.711
 25.5174
 25.4231
 25.4947
 25.4844
 26.1539
 26.2055
 26.1427
 26.1696
 26.7982
 26.8302
 26.4229
 26.4066
 26.3739
 26.389
 26.2382
 26.3059
 26.2946
 24.9889
 24.9666
 25.028
 24.9868
 24.9011
 24.9381
 24.9855
 24.9713
 26.8246
 26.8442
 26.8076
 26.831
 26.1588
 26.1744
 26.5852
 26.5248
 26.5639
 26.6147
 25.3345
 25.3921
 25.2907
 25.2838
 27.1103
 27.0752
 27.1182
 27.0554
 26.7516
 26.7385
 26.7936
 26.8011
 26.6001
 26.534
 26.5054
 26.5385
 25.9468
 25.9548
 25.9661
 25.8713
 25.4612
 25.4635
 25.5021
 25.5135
 25.3395
 25.3645
 25.4148
 25.3641
 28.0531
 28.0604
 28.0975
 28.1211
 26.984
 26.9236
 26.8883
 25.8243
 25.9324
 25.8681
 25.7856
 25.7414
 25.8024
 25.7134
 24.9597
 24.9108
 24.9474
 24.8888
 26.07
 26.6499
 26.6466
 26.7061
 26.6955
 25.617
 25.6476
 25.6982
 25.677
 25.2453
 25.3171
 25.3154
 25.2374
 25.2559
 25.2538
 26.8462
 26.882
 26.9054
 26.9121
 25.9616
 25.9041
 25.9208
 25.9045
 27.0391
 27.0698
 27.0522
 27.0173
 25.748
 26.372
 26.4039
 26.3047
 26.2829
 26.4589
 26.417
 26.3924
 26.433
 24.9613
 25.0301
 24.8481
 24.8027
 24.7646
 24.8182
 27.3736
 27.4357
 27.3925
 27.3737
 25.3198
 25.3144
 25.3931
 25.2961
 25.8127
 25.8754
 25.8333
 25.7691
 27.9471
 27.9197
 27.9283
 27.9779
 26.0011
 26.0037
 25.971
 26.0309
 26.0673
 26.1351
 26.1727
 26.1724
 26.836
 26.8947
 26.7968
 26.8301
 24.6643
 24.593
 24.5863
 24.5666
 26.1115
 26.1754
 26.1771
 26.4931
 26.4323
 26.4254
 26.4866
 24.8104
 24.7278
 24.7899
 24.7787
 26.5361
 26.579
 26.6247
 26.5406
 26.1748
 26.1339
 25.2033
 25.2132
 25.1618
 25.2621
 25.8597
 25.8457
 25.7774
 25.7749
 24.8126
 24.8466
 24.7576
 24.8107
 26.158
 26.0632
 26.7502
 26.7317
 26.7145
 26.7138
 26.5415
 26.5308
 26.488
 26.4713
 25.1515
 25.1358
 25.2111
 25.1838
 25.3322
 25.3692
 25.3034
 25.3136
 25.3582
 25.4247
 25.3649
 25.3619
 26.542
 26.4683
 26.4984
 26.5345
 27.4634
 27.5162
 27.4993
 27.4761
 24.6693
 24.5945
 24.6574
 24.6228
 26.819
 26.8196
 26.8094
 26.781
 25.9111
 25.8492
 25.8524
 25.8859
 26.43
 26.3379
 26.402
 26.3688
 25.9118
 25.9869
 25.9103
 25.6612
 25.592
 25.6559
 25.5659
 26.0662
 26.0253
 26.0516
 26.1026
 25.4806
 25.4537
 25.4149
 25.4961
 25.4613
 25.4863
 25.4608
 25.5554
 27.8926
 27.8045
 27.8884
 27.0383
 26.9795
 26.9331
 26.958
 25.8568
 25.8974
 25.8799
 25.8869
 25.2259
 25.155
 25.1936
 25.1556
 26.6203
 26.7059
 26.6227
 26.5856
 26.5418
 26.5367
 25.7691
 25.8062
 25.7678
 25.7634
 25.927
 25.8617
 25.8523
 25.842
 24.2972
 24.3209
 24.3618
 24.2752
 27.2216
 27.1823
 27.2347
 27.3037
 25.4084
 25.4059
 26.3169
 26.2644
 26.253
 26.3168
 25.5243
 25.5003
 25.5024
 25.4845
 25.782
 25.7749
 25.7358
 25.7496
 26.2718
 26.2663
 26.2131
 26.3079
 25.6294
 25.5736
 25.5836
 25.5783
 26.8176
 26.7909
 26.7986
 26.7508
 27.0209
 27.0908
 27.0104
 27.0488
 25.19
 25.1626
 25.1247
 25.0342
 25.9142
 25.886
 25.8395
 27.4951
 27.5366
 27.4748
 25.0866
 25.0596
 25.0462
 25.0204
 25.0547
 25.0803
 25.1027
 25.105
 26.064
 26.0537
 26.0494
 26.0014
 24.9551
 24.9147
 24.9309
 24.9231
 24.759
 24.6663
 24.7508
 24.6659
 26.2325
 26.2069
 26.1566
 26.2221
 25.2129
 25.1804
 25.1612
 25.1661
 24.3401
 24.3109
 24.3879
 24.2979
 25.3749
 25.3618
 25.4017
 25.3097
 25.8491
 25.9412
 25.9
 25.959
 25.1619
 25.1223
 25.1719
 25.1865
 25.528
 25.5407
 25.5046
 25.6974
 25.6464
 27.2643
 27.2688
 27.277
 27.3061
 25.6998
 25.6433
 25.651
 25.6714
 27.4535
 27.4408
 27.4283
 27.4285
 27.3573
 27.3601
 27.3071
 27.2655
 25.7839
 25.7606
 25.7508
 25.8077
 26.3447
 26.3454
 26.3951
 26.3179
 25.5842
 25.5236
 25.5373
 25.5468
 26.021
 26.0613
 27.0893
 27.1232
 27.1079
 27.055
 24.7288
 24.7043
 24.6736
 24.7323
 26.332
 26.3894
 26.2925
 26.3294
 25.062
 25.0806
 25.1326
 25.0953
 27.0632
 27.1256
 27.07
 27.083
 25.0139
 24.9156
 24.9471
 24.9303
 25.6954
 25.7735
 25.713
 25.7229
 26.6016
 26.6599
 26.6996
 26.6695
 24.4694
 24.5068
 24.4971
 24.5518
 26.4895
 26.4193
 26.4725
 26.4892
 26.2112
 26.3137
 26.2505
 26.2715
 24.7335
 24.7214
 24.7809
 24.7183
 26.0596
 26.1505
 26.1319
 26.1351
 25.1848
 25.1337
 25.1593
 25.1909
 25.1698
 25.2115
 25.1934
 26.2127
 26.3249
 26.2697
 26.2988
 25.2253
 25.1618
 25.1998
 25.1831
 26.8924
 26.8254
 26.8294
 26.9032
 25.0862
 25.0448
 25.0485
 25.0813
 25.1089
 25.1308
 25.0911
 25.122
 26.7411
 26.7542
 26.6336
 26.6955
 26.6961
 26.7208
 26.6604
 26.7484
 28.5277
 28.5067
 28.5833
 28.5686
 25.2822
 25.3566
 25.343
 27.3132
 27.2212
 27.2299
 27.2563
 24.8659
 24.9128
 24.9032
 24.8866
 26.7673
 25.1173
 25.1768
 25.1485
 25.1015
 25.1179
 25.1565
 25.1733
 28.0051
 28.0982
 28.0802
 28.0414
 28.0733
 28.1003
 28.0984
 28.1265
 24.8449
 24.8961
 24.8451
 24.8076
 26.6934
 26.7207
 26.6624
 26.7333
 25.5424
 25.5755
 25.5042
 26.4224
 26.4728
 26.4258
 26.508
 26.1974
 26.1917
 26.22
 25.0853
 25.1178
 25.0196
 25.8213
 25.7768
 25.7633
 25.8045
 26.4169
 26.477
 26.4851
 26.4355
 26.7613
 26.7407
 26.7734
 26.7464
 25.5711
 25.5361
 25.5282
 27.1082
 27.0733
 27.1597
 27.1653
 26.7315
 26.5996
 26.6699
 26.2577
 26.1624
 26.1715
 26.2294
 26.747
 26.6844
 26.6958
 26.7179
 26.7385
 26.6581
 26.6438
 26.664
 25.0439
 25.0827
 25.079
 25.0864
 26.1761
 26.2307
 26.1802
 26.1566
 26.4836
 26.5148
 25.8365
 25.8832
 25.849
 25.9111
 24.8423
 24.9565
 24.9272
 24.9472
 24.9592
 28.6089
 28.6405
 28.6602
 28.613
 25.2626
 25.1992
 25.234
 24.6724
 24.7023
 24.7191
 24.6879
 25.3981
 25.4835
 25.4741
 25.4789
 26.7741
 26.7498
 26.7157
 26.7786
 26.2014
 26.2429
 26.275
 26.2389
 24.622
 24.635
 24.6581
 24.6646
 25.2728
 25.3164
 25.3586
 25.3124
 27.1232
 27.1624
 27.1683
 27.0903
 26.2825
 26.2612
 26.2524
 26.3423
 26.3718
 26.3429
 26.3067
 26.354
 28.6442
 28.6648
 28.6592
 28.6407
 26.9015
 26.91
 26.931
 26.867
 25.3048
 25.2323
 25.3145
 25.2729
 25.7583
 25.7634
 25.7096
 25.7796
 26.0983
 26.0493
 26.001
 26.0965
 25.4874
 25.4285
 25.4517
 25.4506
 25.6867
 25.6985
 25.6369
 25.7019
 25.4181
 25.4149
 25.4607
 25.3521
 24.447
 24.5541
 24.5183
 24.4168
 25.2336
 25.2594
 25.2743
 25.3606
 25.4571
 25.4885
 25.5401
 25.4809
 25.56
 25.8909
 25.8909
 25.9321
 25.8373
 24.881
 24.9096
 24.9196
 24.9161
 26.1588
 26.1915
 26.1348
 26.1558
 25.8048
 25.7826
 25.7512
 25.838
 25.9788
 26.0427
 26.0014
 25.9519
 26.3918
 26.4789
 26.4123
 26.4732
 27.6622
 27.6328
 27.5682
 27.6885
 24.3602
 24.4589
 25.6407
 25.6727
 25.6795
 28.2953
 28.3015
 28.3164
 26.5979
 26.6401
 26.6129
 26.6652
 27.3161
 27.3197
 27.4095
 27.4053
 26.9069
 26.9376
 26.8888
 26.9673
 24.7882
 24.8718
 24.8381
 24.8249
 25.9192
 25.9928
 25.9591
 26.0055
 25.513
 25.4487
 25.4453
 25.3897
 25.6945
 25.731
 25.7554
 25.8208
 25.4659
 25.4304
 25.4874
 25.465
 26.0908
 26.0883
 25.1502
 25.2746
 25.1638
 25.2671
 25.3684
 25.4068
 25.4371
 25.3153
 26.62
 26.6976
 26.6096
 26.6876
 26.689
 26.6741
 26.6757
 26.6636
 25.8584
 25.8455
 25.8717
 25.8338
 25.8541
 25.8105
 25.7738
 25.7304
 26.9143
 27.0021
 27.0184
 26.902
 25.4017
 25.4565
 25.4789
 25.4816
 24.4912
 24.5259
 24.4884
 24.5233
 25.1052
 25.1384
 25.1394
 25.1675
 24.4389
 24.4034
 24.4727
 24.3846
 25.0492
 24.9803
 24.9977
 24.9941
 25.9505
 25.8688
 25.934
 25.9134
 25.5213
 25.558
 26.06
 25.9879
 26.0791
 26.0405
 26.6619
 26.6047
 26.6131
 26.5919
 25.3036
 25.2123
 25.2113
 25.2668
 26.0799
 26.0947
 26.0768
 26.1451
 26.2075
 26.2565
 26.2725
 26.2439
 26.7534
 26.7495
 26.719
 26.6704
 26.539
 26.5228
 26.5699
 26.4724
 26.7342
 26.6828
 26.6888
 26.7133
 27.6476
 27.6427
 27.6974
 27.6697
 25.3529
 25.3285
 25.3889
 25.3377
 25.5774
 25.5658
 27.443
 27.4555
 27.4577
 27.5162
 26.4431
 26.4184
 25.613
 25.6613
 25.6049
 25.1847
 25.1628
 26.8895
 26.8934
 26.9301
 26.8493
 27.5331
 27.5068
 27.5009
 27.4832
 26.9681
 26.9394
 26.901
 26.8871
 26.4624
 26.3927
 26.3827
 26.381
 25.7338
 25.801
 25.8057
 25.7986
 25.4611
 25.4867
 25.4966
 25.5045
 26.4694
 26.4221
 26.4085
 26.4224
 25.8557
 25.8537
 25.8293
 25.9183
 25.9065
 25.9471
 25.9629
 25.9295
 25.9097
 25.8638
 25.8376
 25.8565
 25.8123
 25.9083
 25.8163
 26.0707
 26.1164
 26.0272
 26.063
 26.3301
 26.3029
 26.3959
 26.327
 26.7095
 26.6555
 26.7449
 26.6564
 24.8463
 24.866
 24.8279
 24.7901
 26.1882
 26.1869
 26.1131
 26.1255
 27.0083
 27.0046
 27.1174
 27.0322
 27.1477
 27.1206
 27.1563
 27.1686
 26.9868
 27.041
 27.0356
 27.0101
 26.7181
 26.7219
 26.6537
 26.6396
 26.7685
 26.8064
 26.8232
 26.7935
 25.0424
 25.0056
 24.9978
 24.9785
 26.1763
 26.1768
 26.1889
 26.1294
 25.4106
 25.3463
 25.3954
 25.4304
 26.7142
 26.6484
 26.729
 26.6756
 24.7891
 24.7662
 24.7724
 24.7433
 24.7196
 24.7342
 24.6549
 25.3961
 25.5146
 25.4804
 25.4726
 26.6036
 26.5705
 26.637
 26.5859
 24.5438
 24.6367
 24.6186
 26.2918
 26.3457
 26.2914
 26.3771
 25.0656
 25.0546
 25.1815
 25.1628
 25.1113
 25.186
 26.3695
 26.4039
 26.3791
 26.9746
 26.9499
 27.0194
 26.9997
 26.7166
 26.7358
 26.668
 26.6744
 25.9888
 25.9191
 26.0127
 24.7223
 24.828
 24.8171
 25.42
 25.4964
 25.5125
 25.4713
 24.7187
 24.7413
 24.8162
 24.6667
 26.2475
 26.1834
 26.1527
 26.1919
 24.9461
 24.936
 24.9079
 24.9911
 25.9017
 25.889
 25.9295
 25.9666
 26.5444
 26.6166
 26.5812
 24.6061
 24.663
 24.6328
 24.5477
 25.6008
 25.7963
 25.7243
 25.7562
 25.7862
 25.6424
 25.6314
 25.6814
 26.5629
 26.6075
 26.5956
 26.5981
 26.601
 26.5185
 26.2552
 26.3174
 26.3109
 26.314
 26.1858
 26.1119
 26.1638
 26.1201
 25.4535
 24.5319
 24.6319
 24.641
 24.5744
 27.8015
 27.881
 27.8628
 27.8689
 26.49
 26.519
 26.6133
 26.6355
 26.5968
 26.5797
 26.6128
 26.6102
 26.6919
 26.6656
 25.3734
 25.45
 25.4463
 25.4046
 25.3217
 25.304
 25.3782
 25.3084
 26.4591
 26.5225
 25.5045
 25.4846
 25.4083
 25.4573
 25.5001
 25.4329
 25.4939
 25.7821
 25.8323
 25.8654
 25.8834
 26.1354
 26.1898
 26.1357
 26.1958
 25.3782
 25.2887
 25.3029
 25.3716
 25.1828
 25.1823
 25.126
 25.2012
 25.2387
 25.177
 25.2181
 25.3559
 25.3456
 25.3394
 25.3898
 26.2393
 26.2231
 26.2122
 26.2626
 27.2915
 27.3225
 27.271
 27.2633
 26.3736
 26.3808
 26.4111
 26.3954
 25.1678
 25.2286
 25.2699
 25.2167
 25.5486
 25.5887
 25.5898
 25.5408
 26.3921
 26.3591
 26.3348
 26.3312
 25.5715
 25.6332
 25.5864
 25.5743
 25.8652
 25.8434
 25.9261
 25.8362
 25.8684
 25.8095
 25.8335
 25.8076
 25.5834
 25.5339
 25.543
 24.9799
 24.9601
 25.0009
 24.9887
 26.3985
 26.3373
 26.3647
 26.3614
 26.0816
 26.0236
 26.0288
 26.0408
 27.2138
 27.245
 27.2257
 27.1725
 26.7786
 26.7429
 26.7379
 26.7806
 26.7156
 26.8121
 26.7614
 26.8198
 26.788
 26.7565
 26.7662
 26.7355
 25.8811
 25.9132
 25.9007
 27.054
 27.0689
 27.0284
 27.015
 26.8627
 26.8394
 26.8016
 26.8711
 24.5763
 24.6522
 24.6542
 24.5971
 25.827
 25.8585
 25.896
 25.9207
 25.1977
 25.1993
 25.2412
 25.2488
 25.7461
 25.7183
 25.7609
 25.7962
 25.5942
 25.5509
 25.6008
 25.5895
 26.5719
 26.6231
 26.6003
 26.6723
 26.0149
 25.8991
 25.9915
 25.9734
 25.1219
 25.0751
 25.1137
 25.0921
 25.7025
 25.7266
 25.6406
 25.6534
 26.8245
 26.8671
 26.8018
 26.7659
 24.9471
 24.9238
 24.946
 24.9126
 26.3003
 26.353
 26.9106
 25.9964
 25.9686
 25.923
 26.0087
 26.1522
 26.0905
 26.1588
 26.1734
 27.5347
 27.5443
 27.4806
 26.3878
 26.4492
 26.4628
 26.5001
 25.7187
 25.6224
 25.6659
 25.6055
 25.903
 25.866
 25.8864
 25.9115
 24.9547
 24.9229
 24.9172
 24.9375
 26.7245
 26.6252
 26.6969
 26.6049
 26.609
 26.621
 26.547
 27.37
 27.4673
 27.4027
 27.3877
 26.7645
 26.6856
 26.7454
 25.7236
 25.6094
 25.7048
 26.7974
 26.8074
 26.8618
 26.8326
 26.1328
 26.0734
 26.0647
 26.0609
 28.6354
 28.6441
 28.6259
 28.5535
 26.2208
 26.2395
 26.2408
 27.0478
 27.0646
 27.0488
 27.0483
 26.2648
 26.2905
 26.3469
 26.2997
 26.8789
 26.8263
 26.8313
 26.7939
 25.4186
 25.3911
 25.4272
 25.3761
 25.2844
 25.3406
 25.3006
 25.2668
 24.7315
 24.729
 24.6929
 24.7798
 25.822
 25.8985
 25.8381
 25.8195
 26.868
 26.9418
 26.8763
 26.9188
 26.5363
 26.5615
 27.3052
 27.3023
 27.2747
 27.2792
 26.1378
 26.113
 26.3873
 26.2877
 26.3118
 26.6561
 26.6186
 26.5917
 26.6228
 24.7854
 24.7505
 24.8501
 24.8373
 24.9016
 24.9138
 24.9401
 24.914
 26.6031
 26.5876
 26.6324
 26.6723
 27.08
 27.0575
 25.7315
 25.7064
 25.722
 25.6674
 26.6962
 26.7162
 26.6655
 26.6645
 26.3153
 26.3978
 26.2719
 24.3587
 24.3345
 24.4081
 25.9441
 25.8656
 25.8913
 25.893
 25.0181
 24.9509
 25.0356
 25.0667
 25.8405
 25.7898
 25.7754
 25.8503
 25.4035
 25.3562
 25.352
 25.4328
 26.8941
 26.833
 26.8817
 26.9151
 26.6493
 26.5599
 26.6745
 26.589
 25.8275
 25.8873
 25.7686
 25.8463
 26.3717
 26.3046
 26.2894
 26.376
 26.8812
 26.8666
 26.8347
 26.7925
 26.1268
 26.1052
 26.0611
 26.0303
 25.5022
 25.4956
 25.5376
 25.8819
 25.8201
 25.861
 25.8288
 28.2072
 28.1445
 28.0829
 28.1254
 27.0692
 27.0772
 27.0555
 27.0662
 26.4105
 26.4085
 26.4219
 26.3559
 27.5621
 27.4945
 27.5718
 27.5416
 24.97
 24.9657
 25.0236
 24.6484
 24.7045
 24.7642
 24.7136
 25.2788
 25.1753
 25.2178
 25.2137
 25.9108
 25.5589
 25.4733
 25.456
 25.5116
 26.0117
 25.9652
 26.0426
 26.0496
 26.9045
 26.9518
 26.9294
 26.5978
 26.5801
 26.5563
 26.6494
 28.2177
 28.2893
 28.2227
 28.3088
 27.4486
 27.4457
 27.431
 27.4086
 26.4425
 26.4438
 26.4051
 26.3701
 24.5768
 24.6751
 24.6393
 24.6542
 28.0204
 27.9841
 27.9278
 27.9309
 25.4483
 25.3864
 25.4836
 25.4165
 25.9451
 25.9336
 25.8813
 25.9334
 26.5804
 26.6939
 26.682
 26.0397
 26.1129
 26.1152
 26.1111
 24.6989
 24.664
 24.6507
 26.8729
 26.7744
 26.7624
 26.2659
 26.2507
 26.1818
 26.195
 26.4326
 26.4504
 26.4696
 26.4836
 26.3903
 26.401
 26.336
 26.3228
 26.9738
 27.0193
 27.0009
 26.9365
 26.0859
 26.0421
 26.1059
 26.0454
 24.7385
 24.83
 24.8302
 24.8745
 24.9957
 25.0026
 25.0031
 24.9586
 27.1469
 27.1232
 27.1315
 27.1361
 25.0488
 25.0173
 25.0192
 25.0968
 24.8476
 24.7584
 24.7809
 24.8606
 25.0141
 25.0267
 25.0974
 25.0917
 25.6356
 25.6393
 25.5919
 25.6159
 25.9925
 26.0374
 25.9767
 26.4385
 26.5307
 26.5109
 26.4808
 25.2759
 25.3174
 25.3471
 25.2623
 25.3182
 25.2811
 25.254
 25.2713
 24.343
 24.3491
 24.4565
 24.3961
 27.53
 27.4827
 27.4935
 27.4804
 27.2719
 27.3097
 27.2932
 27.2459
 26.9799
 27.0046
 26.9273
 27.0085
 26.3456
 26.4396
 26.3772
 26.3871
 26.3679
 26.3624
 26.3645
 24.8181
 24.7784
 24.7153
 24.7528
 25.257
 25.2872
 25.3236
 25.313
 26.0943
 26.138
 26.1581
 26.1251
 24.9588
 24.9206
 25.766
 25.7677
 25.7725
 25.8246
 25.0295
 25.0014
 24.9156
 24.9771
 25.8636
 25.7901
 25.8794
 25.7825
 26.4478
 26.4155
 26.51
 26.4921
 27.2103
 27.249
 27.2189
 27.1562
 28.2966
 28.2089
 28.3121
 28.2635
 25.0775
 25.1011
 25.1065
 25.0664
 24.7987
 24.787
 24.785
 24.7414
 26.2463
 26.3216
 26.2801
 26.3244
 25.9602
 25.9921
 26.0024
 25.9612
 26.6855
 26.7511
 26.6405
 25.6068
 25.6563
 25.6445
 25.6717
 26.7157
 26.7274
 26.6836
 26.6872
 26.0733
 26.1276
 26.1756
 26.1366
 25.5982
 25.6288
 25.6178
 25.587
 25.8881
 25.9071
 25.9436
 24.9792
 25.038
 25.0227
 25.0251
 25.6328
 25.5577
 27.559
 27.4395
 27.548
 27.5066
 25.3726
 25.4214
 25.3966
 26.6025
 26.5753
 26.5865
 26.5887
 25.7307
 25.7473
 25.7645
 25.9643
 26.0317
 25.9659
 25.998
 25.6753
 25.7416
 25.6365
 25.7016
 25.6092
 25.543
 27.9687
 27.97
 28.0314
 27.9576
 28.0987
 28.1909
 28.21
 28.1368
 25.9496
 26.0181
 25.9891
 26.0214
 25.7505
 25.7894
 25.746
 25.7824
 27.916
 27.9288
 27.8902
 27.8543
 26.5928
 26.6664
 27.0119
 27.0029
 26.9634
 26.9104
 25.5824
 25.6127
 25.5277
 25.5697
 25.7619
 25.7348
 25.6841
 25.7841
 25.6296
 25.7022
 25.7195
 25.6988
 26.4539
 26.4515
 26.3938
 26.4549
 26.8504
 26.8409
 26.9195
 26.8366
 27.2585
 27.1952
 27.1912
 27.2467
 26.8371
 26.8496
 26.8461
 26.7411
 25.3166
 25.3791
 25.319
 25.3629
 25.9467
 26.093
 26.0223
 27.5638
 27.5098
 27.475
 25.5108
 25.4124
 25.4694
 25.4743
 25.4365
 25.556
 25.4906
 25.4746
 26.1705
 26.2112
 26.2366
 26.1597
 26.1443
 26.0825
 26.1306
 26.8538
 26.8992
 26.9142
 26.914
 25.2058
 25.2263
 25.1759
 25.2072
 27.039
 27.0602
 27.0527
 27.0201
 27.057
 27.102
 27.0661
 24.5939
 24.5107
 24.468
 24.5369
 25.0483
 25.0076
 26.5521
 26.5763
 26.5189
 26.5433
 26.0027
 25.9355
 26.0101
 26.0967
 26.132
 26.1153
 26.1683
 26.8675
 26.8194
 26.8328
 25.2519
 25.2137
 25.2906
 25.267
 26.8909
 26.8038
 26.8623
 26.8749
 25.4311
 25.4932
 25.5077
 25.4674
 27.0053
 26.964
 26.8139
 26.8942
 26.8392
 26.8689
 26.6276
 26.6627
 26.6477
 26.6192
 27.4535
 27.466
 27.5321
 27.503
 25.3422
 25.2683
 26.4178
 26.3801
 26.374
 26.3785
 24.6839
 24.7135
 24.6921
 24.6717
 26.4532
 26.4782
 26.3922
 26.353
 25.2195
 25.1569
 25.1366
 25.129
 24.8902
 24.8225
 24.9356
 24.8345
 25.4371
 25.5006
 24.9339
 24.8804
 24.9021
 24.9122
 26.8494
 26.857
 26.8561
 26.7992
 24.9657
 24.9383
 24.9273
 24.9717
 24.6247
 24.5328
 24.5369
 24.6047
 25.685
 25.6787
 25.6256
 25.6405
 26.0723
 26.0935
 26.0228
 25.9951
 24.9333
 25.0179
 24.9697
 24.9279
 27.5011
 27.4049
 27.4423
 27.5217
 24.9639
 24.871
 26.4265
 26.3821
 26.3815
 26.3223
 25.0533
 25.0667
 25.1423
 25.1343
 26.8439
 26.7815
 26.7935
 26.7963
 26.2627
 26.3577
 26.3282
 26.2742
 26.7077
 26.7346
 26.6515
 26.8615
 26.9052
 26.8716
 26.9365
 27.0083
 26.944
 26.9641
 26.9304
 25.7308
 25.7688
 25.7864
 25.1137
 25.105
 25.0512
 25.0665
 25.8984
 25.9322
 25.9401
 26.8708
 26.9179
 26.8943
 25.9537
 25.8575
 25.9379
 25.8866
 25.6647
 25.6825
 25.6556
 25.5865
 26.1238
 26.0507
 26.0424
 26.071
 26.2437
 26.2757
 26.29
 26.3384
 26.3675
 26.366
 26.2647
 26.2411
 26.1986
 26.2987
 25.0508
 25.1086
 25.0646
 25.1116
 25.4241
 25.4682
 25.4359
 25.4051
 26.1618
 26.1186
 26.1457
 26.0543
 26.8457
 26.8907
 26.8671
 25.8769
 25.9139
 25.874
 25.8703
 26.5115
 26.5961
 26.5669
 26.6039
 27.7669
 27.763
 27.7958
 27.8201
 26.3365
 26.3694
 26.3549
 26.359
 25.0055
 25.0138
 24.9591
 24.9776
 26.342
 26.2617
 26.3025
 26.34
 26.9629
 26.9655
 26.9396
 26.9095
 26.8675
 26.8988
 26.8866
 26.0706
 26.0572
 26.0645
 25.6399
 26.4037
 26.4954
 26.4315
 26.4348
 24.9206
 24.9329
 24.893
 25.0411
 25.0276
 24.9941
 26.3548
 26.2867
 26.3304
 26.2918
 24.5451
 24.5199
 24.5018
 24.4942
 26.8526
 25.8105
 25.867
 25.8272
 25.8404
 26.8074
 26.7847
 26.7901
 26.7687
 24.9166
 24.8913
 24.9867
 24.9199
 25.5089
 25.4108
 25.4562
 25.4867
 25.2865
 25.2507
 25.3191
 25.3106
 27.0169
 26.9904
 26.9554
 27.0108
 26.5086
 26.4543
 26.5144
 26.5128
 25.9202
 25.9548
 25.8897
 25.9515
 26.4044
 26.474
 26.3674
 26.4468
 25.5677
 25.5483
 25.4901
 25.5047
 26.8037
 26.8449
 26.7755
 26.77
 26.5355
 26.4908
 26.4414
 26.48
 25.7331
 25.7269
 25.739
 25.6607
 24.8298
 24.7446
 24.7957
 24.7559
 26.949
 26.9562
 26.8751
 26.9246
 27.3874
 27.4603
 27.3817
 27.387
 24.8874
 24.8438
 24.8642
 24.8291
 27.3817
 27.4413
 27.2542
 27.2813
 27.275
 27.2107
 25.9871
 25.9496
 26.0047
 26.0475
 26.4978
 26.4632
 26.4635
 26.5291
 24.3864
 24.3531
 24.3606
 24.4159
 24.9497
 24.9551
 24.8754
 25.5062
 25.5104
 25.4637
 25.5375
 26.9209
 26.8987
 26.9633
 26.8807
 26.5471
 26.5568
 26.5799
 26.6061
 26.5686
 26.5247
 25.5252
 25.4322
 25.4606
 25.4958
 25.596
 25.5917
 25.647
 25.5821
 25.422
 25.4209
 25.4914
 25.4228
 24.6475
 24.6322
 24.7506
 24.6125
 25.3063
 25.298
 25.3623
 26.2926
 25.8714
 25.8774
 25.854
 25.9054
 25.84
 25.9068
 25.8921
 25.8918
 25.1625
 25.205
 25.2046
 25.2397
 25.3269
 25.3596
 25.3623
 25.2983
 25.7519
 25.8075
 25.801
 26.431
 26.447
 26.3943
 26.5091
 25.8805
 25.7763
 25.845
 25.8186
 26.3524
 26.3165
 26.3841
 27.9352
 27.9319
 27.973
 27.8936
 25.1242
 25.0363
 25.0679
 25.0532
 25.1351
 25.0322
 25.0883
 27.9572
 25.8308
 25.8128
 25.8364
 25.7593
 25.7748
 25.7567
 27.3029
 27.2903
 27.2961
 27.2625
 26.965
 26.9427
 26.8865
 26.9691
 26.6478
 26.608
 26.5926
 26.6557
 26.7225
 26.6928
 26.659
 26.7277
 26.7351
 26.6812
 26.2635
 26.2985
 26.3139
 26.3367
 26.2409
 26.1846
 24.2864
 24.2893
 26.8671
 26.7526
 26.8559
 26.7913
 26.111
 26.1257
 26.0996
 26.1652
 26.9584
 26.9504
 27.0641
 27.0078
 25.0608
 25.0259
 25.1336
 25.0926
 25.1091
 25.1604
 25.1094
 25.1648
 25.5554
 25.5188
 25.5058
 25.5324
 25.9394
 25.9266
 25.8384
 25.8824
 25.9617
 25.9985
 26.8597
 25.3959
 25.3295
 25.3495
 25.3321
 24.6698
 24.6768
 24.5815
 24.6982
 25.0891
 25.0213
 25.1009
 25.0727
 28.6238
 28.613
 28.6007
 28.5727
 24.7508
 24.7406
 24.7773
 24.7712
 26.6548
 26.6494
 26.7107
 26.6228
 26.4422
 26.5051
 26.4811
 26.5321
 25.5243
 25.518
 25.4755
 25.4749
 25.5208
 25.5294
 25.5645
 25.5509
 26.8637
 26.7618
 26.8161
 26.7863
 24.8377
 24.8012
 24.8426
 24.834
 25.0555
 25.0112
 25.0325
 24.9925
 25.3583
 25.3451
 25.3028
 25.3024
 24.9046
 24.949
 24.938
 24.9047
 26.5236
 26.4605
 26.4632
 26.4331
 26.9042
 26.8775
 26.8702
 26.8357
 25.0902
 25.1458
 25.1591
 25.1447
 26.202
 26.1892
 26.2277
 26.2801
 26.0421
 26.0708
 26.0812
 26.0443
 28.1715
 28.1495
 28.0802
 28.1435
 24.7562
 24.7432
 24.916
 24.9018
 24.9609
 24.8733
 27.1154
 27.1879
 27.2136
 27.1096
 26.5166
 26.5968
 26.5925
 26.6235
 25.0258
 25.0721
 25.0086
 24.9842
 26.3264
 26.3038
 26.3387
 26.2729
 26.3126
 26.2914
 26.3654
 26.3583
 24.6692
 24.6587
 24.6952
 24.7282
 25.9065
 25.9188
 25.9006
 25.8766
 26.0383
 26.0172
 26.0354
 26.0746
 25.3093
 25.274
 25.2533
 25.2733
 25.5528
 25.5643
 25.5902
 25.6244
 26.2405
 26.2309
 26.3077
 26.4993
 26.4499
 26.4851
 26.4017
 27.2364
 27.2395
 27.2714
 27.1583
 26.3799
 26.336
 26.3256
 26.314
 25.9714
 26.0073
 25.9724
 26.0242
 24.5928
 24.5762
 24.5899
 24.6698
 26.3951
 26.2909
 26.3456
 26.3479
 27.0817
 27.0778
 27.1306
 27.1552
 25.4035
 25.3564
 25.3835
 25.4301
 25.6521
 25.6537
 25.6869
 25.9362
 25.8463
 25.8452
 25.8205
 27.2402
 27.2334
 27.227
 27.1823
 25.8216
 25.8773
 25.8519
 25.905
 24.902
 24.8995
 24.8891
 24.8842
 25.8945
 25.8672
 25.8767
 25.822
 27.0274
 27.0753
 27.0439
 27.0165
 26.8017
 26.7634
 26.8174
 26.8668
 24.2362
 24.2562
 24.2214
 24.2183
 26.5508
 26.5397
 26.5471
 26.6252
 25.6874
 25.7855
 25.7531
 25.7359
 24.3377
 24.326
 24.3807
 24.3792
 24.9414
 24.8638
 24.8988
 25.4013
 25.4115
 25.3389
 25.3198
 25.012
 25.0227
 24.9335
 25.0358
 27.8708
 27.8269
 27.7696
 27.7936
 26.7117
 26.6405
 26.7276
 24.726
 24.6437
 24.6574
 24.6604
 25.7321
 25.7471
 25.6824
 25.7609
 25.2312
 25.2466
 25.1736
 25.2818
 26.9235
 26.9292
 26.9768
 27.0157
 26.3461
 26.2832
 26.3627
 26.3092
 25.5361
 25.6283
 25.6052
 27.2582
 27.241
 27.2025
 27.2021
 26.8226
 26.8882
 26.852
 26.8749
 26.3498
 24.6945
 24.6651
 24.6759
 24.6304
 27.7111
 27.7066
 27.7593
 27.7685
 25.3078
 25.2164
 25.2612
 25.2064
 25.635
 25.6763
 25.6432
 25.714
 28.0609
 25.1168
 25.1696
 25.089
 24.7476
 24.6726
 24.7226
 24.7107
 26.1448
 26.1139
 26.0244
 26.1022
 25.6036
 25.6087
 25.5619
 25.6386
 26.6667
 26.7305
 25.9991
 26.0276
 26.0246
 25.9596
 26.6911
 26.7309
 26.7582
 26.6982
 26.4479
 26.4752
 26.3846
 26.3826
 25.454
 25.4902
 25.4501
 25.4286
 27.4269
 27.4191
 27.4178
 27.3431
 26.8889
 26.9327
 26.9
 26.9548
 27.3724
 27.2982
 27.1011
 27.1028
 27.0901
 27.0936
 27.17
 27.2131
 27.1362
 27.2045
 24.6958
 24.7317
 24.7774
 24.7827
 25.7469
 25.7407
 25.7672
 25.674
 26.3117
 26.2318
 26.2784
 26.2766
 25.8463
 25.8674
 25.8803
 25.8245
 24.652
 24.656
 27.2901
 27.3315
 27.3227
 27.284
 24.6646
 24.6421
 24.6908
 27.5834
 27.6217
 27.5854
 27.6255
 24.7748
 24.8356
 24.7929
 24.8403
 26.3835
 26.4289
 26.3615
 26.4248
 26.1541
 26.1393
 26.1688
 24.6529
 24.6859
 24.6803
 24.6418
 25.7901
 25.8455
 25.7775
 25.8319
 26.1018
 26.0735
 26.0142
 26.0745
 26.3388
 26.3787
 26.2259
 26.3388
 26.2522
 26.2969
 25.6697
 25.7332
 25.7021
 24.608
 24.7067
 24.7181
 24.6481
 26.1834
 26.1411
 26.1875
 26.1761
 26.2784
 26.311
 26.5054
 26.5887
 26.5997
 26.5568
 27.5922
 27.5769
 27.5211
 25.8528
 25.8364
 25.9132
 25.9182
 24.748
 24.7432
 24.735
 27.3414
 27.411
 27.3354
 26.1174
 26.1735
 26.1409
 26.1947
 25.512
 25.5166
 25.587
 25.5632
 27.7466
 27.7681
 27.7455
 27.7411
 25.0756
 25.0604
 25.1025
 25.1089
 25.4665
 25.5244
 25.5151
 25.5261
 25.059
 25.0392
 25.081
 24.7227
 24.7145
 24.6093
 24.6631
 25.929
 25.9974
 25.9346
 25.9335
 24.9047
 24.9191
 24.9502
 24.9534
 26.409
 26.4283
 26.3886
 26.4559
 24.6407
 25.6446
 26.0298
 26.0602
 26.0048
 26.0793
 25.6502
 25.6595
 25.7195
 25.7266
 25.3454
 25.3279
 25.3635
 25.4211
 25.6543
 25.6849
 25.6144
 25.6424
 25.2194
 25.2575
 25.2003
 25.2111
 26.0292
 26.0655
 26.0371
 25.9885
 26.0986
 26.0748
 26.0644
 26.0397
 26.2954
 26.3055
 26.3286
 26.2552
 26.0383
 26.0395
 26.0968
 26.9872
 26.9708
 26.9917
 26.9441
 25.9922
 25.5478
 25.4522
 25.448
 25.5096
 24.7733
 24.769
 24.8429
 26.4645
 26.557
 26.5162
 26.5468
 25.9055
 25.8309
 25.8471
 25.6116
 25.6063
 25.6658
 25.6591
 25.5124
 25.4978
 25.4335
 25.4241
 24.9716
 24.9402
 24.9006
 24.9494
 26.7118
 26.7199
 26.6808
 26.7776
 25.8335
 25.8858
 25.9026
 25.9143
 26.0691
 26.1118
 26.1471
 26.091
 26.1374
 26.1834
 26.1856
 26.2293
 26.0153
 26.0413
 26.0068
 26.0679
 25.3183
 25.4158
 25.3041
 25.3713
 26.1153
 26.2113
 26.1745
 26.1649
 27.3075
 27.3073
 27.3067
 27.2734
 27.303
 27.2547
 27.254
 26.0165
 26.0109
 25.9576
 25.9531
 25.9964
 25.9472
 25.936
 25.926
 26.0615
 26.1196
 26.0307
 26.0226
 24.8101
 24.8078
 24.8814
 24.8787
 25.3236
 25.3868
 25.3851
 25.3175
 26.5497
 26.5131
 26.5167
 26.5023
 26.9122
 26.8442
 26.8442
 26.9341
 25.0509
 25.0655
 25.1005
 25.048
 27.6794
 27.6965
 27.6785
 27.6237
 26.3184
 26.2568
 26.291
 26.2998
 27.0609
 27.0246
 27.0277
 26.7724
 26.7148
 26.717
 26.6839
 25.4281
 25.4585
 25.4086
 25.4936
 26.6939
 26.7885
 26.7495
 26.7282
 27.2708
 27.1507
 27.2314
 27.7665
 27.6879
 27.6483
 27.6553
 24.5932
 24.5736
 24.5329
 24.4878
 26.648
 26.6893
 26.6558
 26.6334
 25.7052
 25.7887
 25.7762
 25.7174
 24.8762
 24.9226
 24.9677
 24.9298
 25.2036
 25.1207
 25.2328
 25.1798
 26.5781
 26.5719
 26.6118
 26.5864
 27.1087
 27.1745
 27.2243
 27.1589
 25.8661
 25.8265
 25.8846
 25.8498
 27.0678
 26.9856
 26.2535
 26.3487
 26.3345
 26.2776
 26.1302
 26.136
 26.171
 26.1101
 26.1972
 26.1916
 26.2214
 26.9435
 26.9174
 26.9417
 25.6593
 25.6589
 25.6418
 25.6207
 25.7795
 25.7861
 25.8329
 25.7311
 26.585
 26.5137
 26.5441
 26.5804
 25.3105
 25.2381
 25.333
 25.2974
 26.0259
 26.0984
 26.0592
 26.0025
 27.0579
 27.0588
 27.0741
 27.0595
 26.4004
 26.3703
 26.406
 25.765
 25.764
 25.8211
 25.7628
 25.9625
 25.932
 25.8877
 24.5889
 24.6302
 24.6347
 24.6573
 27.3977
 27.4206
 27.3946
 27.4801
 26.4362
 26.3717
 26.3816
 26.4211
 26.4579
 26.474
 26.5282
 26.4588
 24.5255
 24.552
 24.4713
 24.4151
 25.3123
 25.2741
 25.2825
 26.6992
 26.7291
 26.7423
 26.7239
 25.1611
 25.2368
 25.2018
 26.6437
 26.6416
 26.6863
 26.6727
 28.2378
 28.1807
 28.2516
 28.2035
 24.882
 24.8607
 24.8292
 24.9025
 26.9339
 26.9506
 26.9794
 27.0442
 24.7166
 24.752
 24.7617
 24.743
 26.7741
 26.688
 26.7473
 26.7207
 28.2593
 28.3389
 28.2559
 28.2703
 27.1928
 27.2789
 27.22
 27.1661
 26.9279
 26.8662
 26.8356
 26.9374
 26.0005
 26.0934
 26.9011
 26.9003
 26.9994
 26.9808
 25.7285
 25.7634
 25.7842
 25.8154
 26.1043
 26.103
 26.1485
 26.0645
 24.9249
 24.9994
 24.868
 24.8575
 25.0325
 25.0788
 25.0416
 25.0008
 25.1818
 25.2018
 25.184
 25.2451
 25.0093
 24.9995
 24.9831
 25.0279
 25.4815
 25.5063
 25.445
 25.493
 25.153
 25.0889
 25.1094
 25.1439
 27.3371
 27.4244
 27.4389
 27.3273
 24.9071
 24.8757
 24.8881
 24.899
 26.2803
 26.3359
 26.3475
 26.3166
 25.3001
 25.393
 25.3664
 25.0329
 24.9741
 24.9785
 25.0139
 26.8916
 26.9593
 26.9678
 26.9369
 27.2531
 27.2825
 27.3272
 27.3036
 25.3589
 25.3704
 25.4154
 25.3148
 26.1457
 26.1585
 26.1831
 26.2077
 25.5139
 25.5602
 25.5162
 25.511
 25.5097
 25.5084
 25.403
 26.3418
 26.3579
 26.416
 25.5512
 25.5339
 25.8625
 25.9495
 24.6023
 24.569
 24.5684
 24.5992
 25.9102
 25.8773
 25.9109
 25.8401
 25.5318
 25.5704
 25.4857
 25.564
 25.8044
 25.7683
 25.785
 25.7337
 25.1758
 25.1699
 25.1369
 25.1777
 25.1806
 26.1903
 26.1879
 26.2492
 26.2518
 27.0738
 27.0739
 27.0718
 27.0629
 25.498
 25.5646
 25.5006
 25.5409
 25.519
 25.5773
 25.5813
 25.5209
 28.0837
 28.0487
 28.0155
 27.9602
 26.0239
 25.9762
 26.0029
 26.0341
 26.0224
 26.0782
 26.0974
 26.0413
 25.582
 25.6283
 26.9169
 26.899
 26.869
 26.9086
 26.4539
 26.4178
 26.442
 26.4788
 26.8166
 26.8482
 26.8743
 26.8635
 26.5104
 26.4647
 26.4738
 26.523
 26.8103
 26.8164
 26.8448
 26.7967
 25.3117
 25.331
 25.3035
 25.265
 24.9081
 24.9039
 24.9683
 24.9292
 26.6303
 26.6564
 26.6932
 26.6161
 26.0324
 26.102
 26.0463
 26.0564
 25.179
 25.2582
 25.2085
 25.2446
 26.2851
 26.3064
 26.306
 26.2388
 26.6307
 26.5869
 27.1739
 27.1483
 27.1288
 27.1818
 26.1921
 26.2122
 26.2271
 26.2666
 25.108
 25.1378
 25.1398
 25.066
 24.8039
 24.8473
 24.8386
 24.7877
 27.8667
 27.8538
 26.2425
 26.1953
 26.1647
 26.163
 26.3051
 26.3996
 26.3379
 26.341
 26.4089
 26.4403
 26.7492
 26.7124
 26.7243
 26.688
 26.1218
 26.0529
 26.0399
 27.3208
 27.2786
 27.2777
 27.243
 24.9802
 24.9346
 25.0175
 24.9747
 24.8522
 24.8494
 24.8455
 24.5598
 24.6104
 24.6591
 24.6223
 25.8379
 25.7373
 25.7848
 25.7637
 26.0087
 25.9364
 26.0417
 25.9766
 25.2719
 25.1868
 25.1523
 25.2076
 25.554
 25.553
 25.4968
 25.5523
 25.6799
 25.6159
 25.6431
 25.946
 25.9352
 25.9662
 25.8952
 25.4464
 25.3404
 25.3775
 25.4369
 26.2229
 26.2449
 26.2108
 26.2034
 25.9844
 25.9981
 25.9392
 26.0309
 25.5916
 25.6052
 25.6311
 25.5679
 26.0163
 26.0652
 26.0843
 26.0142
 28.2162
 28.242
 28.1763
 28.1717
 26.7113
 26.7378
 26.7349
 26.7811
 25.4467
 25.4389
 25.3832
 25.3761
 26.7281
 26.7126
 26.7915
 26.8155
 26.897
 26.9839
 26.8933
 26.8433
 25.038
 25.0406
 24.9974
 25.0832
 25.0742
 25.1366
 25.0821
 25.0914
 24.886
 24.9456
 24.8791
 24.8755
 25.2531
 25.2583
 25.2035
 25.2209
 26.3024
 26.2893
 26.3474
 26.2898
 26.7513
 26.775
 26.7184
 26.7781
 25.536
 25.6223
 25.5358
 25.6028
 26.7164
 26.6971
 26.6853
 26.693
 27.1957
 27.1706
 27.1597
 27.1191
 26.0861
 26.0397
 26.0748
 26.0271
 26.3907
 26.4305
 26.4744
 26.3639
 26.3512
 26.2792
 26.3445
 27.0957
 27.1311
 27.1962
 27.1385
 26.6313
 26.6409
 26.6688
 26.6497
 25.5042
 25.4651
 25.4973
 25.4609
 25.9733
 25.9187
 25.9119
 24.5725
 24.6369
 24.6409
 24.5942
 24.7909
 24.7356
 24.6992
 24.755
 26.4427
 26.3967
 26.4661
 26.3979
 25.7767
 25.7341
 26.9595
 26.962
 27.0306
 26.9398
 25.9562
 25.9998
 26.0453
 26.0013
 24.8546
 24.8409
 24.9019
 24.8531
 26.7
 26.6866
 26.6529
 26.2708
 26.2704
 26.2423
 26.3225
 26.3921
 26.2987
 26.32
 26.3434
 26.048
 25.9865
 25.98
 26.0635
 26.0618
 26.029
 25.9887
 26.0381
 25.8946
 25.8509
 25.8918
 25.8453
 26.1316
 26.0861
 25.2107
 25.2285
 25.1279
 25.2127
 26.0763
 26.1393
 26.1153
 26.0798
 25.6653
 25.7568
 25.7296
 26.1093
 26.0515
 26.0834
 26.0521
 25.725
 25.7534
 25.7836
 25.7367
 26.732
 26.7945
 26.7471
 26.825
 26.2157
 26.2253
 26.1607
 25.8293
 25.8282
 25.7408
 25.8647
 26.1183
 26.1248
 26.0823
 26.8135
 26.795
 26.8563
 25.6582
 25.6632
 25.6621
 25.7251
 25.9911
 25.9433
 25.9427
 27.9373
 27.9315
 27.8936
 28.0154
 25.5717
 25.6149
 25.6412
 25.5704
 26.3422
 26.4163
 26.408
 26.4214
 25.2207
 25.2275
 25.2067
 25.1537
 25.1127
 25.1576
 25.0854
 25.0958
 26.878
 26.7938
 26.8904
 26.8784
 25.8819
 25.9366
 25.9594
 26.4717
 26.5461
 26.5015
 26.4972
 24.9819
 25.0765
 25.0292
 25.9887
 25.9433
 25.9775
 25.9158
 25.5289
 25.5085
 25.5085
 25.511
 24.9592
 24.9191
 24.9205
 24.9669
 28.4474
 28.5274
 28.5034
 28.4454
 26.5707
 26.5616
 26.5238
 26.575
 25.8486
 25.7466
 25.782
 25.7641
 27.1707
 27.2348
 27.233
 25.9731
 25.9194
 25.9396
 25.9847
 24.8119
 25.586
 25.6196
 25.7085
 25.6466
 25.1695
 25.1706
 25.1498
 25.1281
 25.3124
 25.3593
 25.3686
 25.333
 25.8502
 25.8774
 25.9244
 25.9962
 25.9991
 25.9905
 27.7443
 27.6891
 27.7301
 27.695
 26.4718
 26.4989
 26.5227
 26.5598
 26.5497
 26.5068
 26.5478
 24.8546
 24.7238
 24.8608
 24.8601
 26.0514
 26.0584
 25.9859
 25.9932
 25.7816
 25.8065
 25.8534
 25.8119
 25.0706
 25.1015
 25.0441
 25.1078
 25.9793
 25.9949
 25.9326
 26.0067
 27.3735
 27.329
 27.3928
 27.3732
 26.1131
 26.1365
 26.105
 26.1271
 26.5835
 26.5808
 26.572
 26.5325
 26.7316
 26.7795
 26.7581
 26.7372
 27.1108
 27.0858
 27.1158
 27.1118
 27.4631
 27.4967
 27.493
 27.4122
 24.5158
 24.5929
 24.5615
 24.5731
 27.6569
 27.6255
 27.6786
 27.5642
 26.0608
 26.0955
 26.0532
 26.1105
 24.5813
 24.6012
 24.631
 24.6268
 26.3035
 26.3093
 26.2767
 26.2526
 27.0762
 24.9537
 24.9904
 24.9764
 24.9225
 26.7914
 27.3933
 27.3256
 27.3036
 27.3608
 25.7834
 25.7134
 25.2809
 25.3594
 25.2842
 25.3533
 25.0386
 25.0515
 25.0091
 25.0173
 24.4859
 24.5554
 24.4867
 25.2583
 25.1913
 25.1883
 25.1863
 26.2417
 24.7169
 25.5303
 25.5601
 25.5756
 24.8719
 24.8301
 24.814
 24.8519
 26.2763
 26.2741
 26.2821
 26.3187
 26.5866
 26.5798
 26.6024
 26.6518
 25.5342
 25.5775
 25.5646
 25.4766
 24.7512
 24.6924
 24.763
 24.7534
 25.0351
 25.0542
 25.0148
 25.0576
 25.6732
 25.5869
 25.5964
 27.4589
 27.4952
 27.3767
 27.4447
 28.399
 28.3258
 28.3703
 28.3092
 27.021
 27.1053
 27.1031
 27.0633
 25.8594
 25.8118
 25.8797
 27.247
 27.1847
 27.2113
 27.2686
 25.1387
 25.1552
 25.0857
 25.2532
 25.2263
 25.2735
 25.2498
 26.7397
 26.7684
 25.4783
 25.3909
 24.3373
 24.4017
 24.3305
 24.5599
 24.5454
 24.5507
 24.5188
 26.1573
 26.2108
 26.1255
 26.167
 26.4865
 26.4978
 26.5281
 26.4613
 26.1194
 26.1315
 26.0758
 26.0743
 24.7475
 24.7484
 24.7376
 24.7542
 25.4865
 25.4662
 25.4853
 25.5224
 27.0827
 27.0836
 27.0882
 27.0262
 25.4679
 25.4545
 25.4955
 25.4249
 25.8597
 25.8385
 25.8961
 25.8325
 25.5389
 25.4853
 25.4997
 28.6686
 28.6363
 28.625
 26.4642
 26.4964
 26.2668
 26.2683
 26.3164
 26.2409
 25.378
 25.3159
 25.3604
 25.3735
 25.4533
 25.4263
 25.3534
 25.4334
 25.4278
 25.4553
 25.3629
 27.8586
 27.867
 27.1613
 27.1648
 27.1209
 27.1563
 25.8177
 27.9251
 27.9874
 27.9558
 27.942
 26.607
 26.5349
 26.5943
 26.6046
 26.2215
 26.2386
 27.4423
 27.34
 27.3404
 27.3926
 24.4999
 24.4186
 24.4664
 24.4856
 24.7231
 24.7149
 24.7482
 24.6497
 26.8308
 26.7223
 26.8007
 26.7408
 26.5164
 26.5578
 26.4368
 26.4694
 26.4688
 26.5132
 26.471
 25.3764
 25.3546
 25.4242
 25.3722
 27.063
 27.0251
 26.9964
 26.9801
 26.0745
 26.0366
 26.0839
 25.7003
 25.6979
 25.6627
 25.6198
 26.5076
 26.497
 26.4492
 26.4812
 26.7173
 26.651
 26.6159
 26.6767
 26.7136
 26.7586
 26.7486
 26.6975
 26.3068
 26.2643
 26.2356
 26.2959
 25.5743
 25.6194
 26.5969
 26.5805
 26.5562
 26.6119
 24.5345
 24.6358
 24.6241
 24.6175
 26.7936
 26.7605
 26.7937
 26.7525
 27.3332
 27.3532
 27.2711
 27.3161
 25.8225
 25.7872
 27.6513
 27.6175
 27.7
 27.608
 26.39
 26.3738
 26.4158
 24.8732
 24.9057
 24.8521
 24.8471
 27.5576
 27.5706
 27.5556
 26.7269
 26.7283
 26.6711
 26.6909
 27.3964
 26.7762
 26.7987
 26.7967
 26.8621
 25.9835
 26.0196
 25.9773
 25.9957
 26.1782
 26.1642
 26.132
 26.1836
 24.7896
 24.7131
 25.9381
 25.9161
 25.9324
 25.945
 26.7895
 26.8631
 26.7768
 26.87
 26.4466
 26.3269
 26.3886
 26.4445
 24.9488
 24.9968
 24.9888
 24.9938
 26.2332
 26.2155
 26.155
 26.169
 25.8361
 25.102
 25.0577
 25.1135
 26.4244
 26.411
 26.4687
 26.3827
 25.4859
 25.5008
 25.4671
 25.5477
 26.3384
 26.3739
 26.3798
 26.306
 24.7759
 24.8452
 24.8509
 24.8203
 24.3516
 24.3142
 24.3837
 26.7287
 26.6827
 26.6243
 26.6652
 25.7193
 25.671
 25.7526
 25.7305
 25.4752
 25.4625
 25.4181
 25.3896
 26.4764
 26.4843
 26.7145
 26.7601
 26.7756
 26.7043
 26.3385
 26.2453
 25.6824
 25.6663
 25.695
 25.715
 25.573
 25.5482
 25.5061
 25.5815
 26.2393
 26.2288
 26.1697
 26.191
 25.7417
 25.7352
 25.7303
 24.985
 25.0668
 25.0804
 25.0502
 25.2689
 25.2867
 25.2487
 26.2656
 26.1645
 26.2505
 26.211
 26.64
 26.7158
 26.755
 26.6722
 25.4792
 25.5425
 25.5451
 25.4941
 26.1958
 26.2018
 26.263
 27.0901
 27.1026
 27.0877
 27.1023
 26.498
 26.5108
 26.4764
 26.4546
 25.2531
 25.2443
 25.3106
 24.5449
 24.6241
 24.6264
 25.5406
 25.5101
 25.5106
 26.5025
 26.5616
 26.4833
 26.5423
 24.6595
 24.6659
 24.6685
 24.6241
 25.6447
 25.6732
 25.6376
 25.5954
 25.1578
 25.1287
 25.0372
 25.0612
 25.2566
 25.2306
 25.264
 25.2576
 27.259
 27.2852
 27.3054
 26.2664
 26.2504
 26.2929
 26.2442
 25.2168
 25.1754
 25.2398
 25.2392
 26.1359
 26.1062
 26.099
 26.0359
 25.4309
 25.4288
 25.446
 25.5114
 24.8112
 24.7774
 27.0949
 27.0534
 27.0557
 27.0251
 25.3224
 25.3546
 25.2802
 25.3425
 26.3061
 26.3391
 26.3541
 26.2919
 25.5501
 25.6058
 24.6895
 24.6907
 24.7362
 24.6541
 25.1589
 25.0894
 25.1805
 25.0463
 24.5925
 24.5975
 24.5395
 24.4917
 25.3976
 25.4163
 25.3816
 25.5291
 25.4442
 25.4704
 25.4842
 25.4335
 25.4845
 25.4687
 25.5274
 26.6047
 26.588
 26.6468
 26.6654
 27.3841
 27.4281
 27.341
 26.02
 26.0065
 26.0107
 25.0133
 25.0669
 25.0283
 25.0869
 26.2153
 26.1748
 26.1245
 26.1696
 26.8156
 26.8811
 26.859
 26.8084
 26.0174
 26.0852
 26.101
 26.1138
 26.3424
 26.2583
 26.3323
 24.7088
 24.6797
 24.7558
 24.7511
 27.0434
 27.0199
 26.8784
 26.8409
 26.8349
 25.4622
 25.4445
 25.4982
 25.407
 26.094
 26.0415
 26.0176
 26.0719
 26.9225
 26.9148
 26.854
 26.9112
 25.8154
 25.9141
 25.9156
 25.841
 26.4184
 26.4573
 26.3906
 26.3891
 24.9663
 24.9558
 24.8726
 26.5008
 26.5195
 26.4574
 26.4637
 25.8153
 25.7771
 26.933
 26.8497
 26.8647
 26.9219
 26.8458
 26.8947
 26.87
 26.8963
 24.8592
 24.9063
 26.7162
 26.6693
 26.691
 26.7409
 25.984
 26.0455
 26.0097
 25.9883
 26.3604
 27.344
 27.3959
 27.3803
 25.8113
 25.811
 25.7891
 25.8509
 24.8817
 24.8758
 24.918
 24.8495
 27.1808
 27.1945
 27.1438
 27.1958
 26.8347
 26.7827
 26.8514
 26.8381
 25.4802
 25.443
 25.4392
 27.1174
 27.0968
 27.0716
 27.048
 24.5504
 24.6281
 24.5711
 24.5411
 27.0822
 27.0379
 27.0255
 27.1118
 25.6041
 25.6657
 25.6179
 25.5541
 26.3341
 26.2985
 26.3093
 26.3503
 26.8717
 26.85
 26.8657
 26.3795
 26.308
 26.3883
 26.3296
 26.9655
 27.0368
 26.9969
 26.9932
 26.7624
 26.8037
 26.7686
 25.3413
 25.3854
 25.3233
 25.3417
 25.4021
 26.0861
 25.9533
 26.0334
 26.0322
 24.8515
 24.8861
 24.9101
 24.8876
 25.8104
 25.7519
 25.845
 25.7751
 25.5512
 25.5067
 25.5501
 25.5741
 26.8645
 26.8925
 26.8193
 26.7348
 26.7507
 25.6949
 25.7597
 25.7137
 25.6854
 24.8964
 24.8153
 25.8637
 25.8464
 25.8972
 25.8309
 26.9436
 26.962
 26.9031
 24.9923
 24.9741
 25.0239
 24.9986
 25.9019
 25.9715
 25.9578
 25.9376
 26.8841
 26.9229
 26.8847
 26.8575
 26.0598
 26.0715
 25.9888
 26.043
 25.6448
 25.5473
 27.1962
 27.2288
 27.2061
 27.2542
 26.74
 26.6449
 26.5945
 26.636
 26.5841
 26.5944
 26.588
 26.6602
 26.6237
 26.5889
 25.9732
 25.9585
 25.9804
 25.6502
 25.6787
 25.6957
 25.7262
 26.6805
 26.6858
 26.67
 26.6869
 26.3257
 26.3298
 25.7895
 25.8411
 25.8371
 25.8819
 25.826
 25.816
 26.0821
 26.0115
 26.0052
 26.0617
 27.6087
 27.5386
 27.5507
 27.5117
 25.8188
 26.9755
 26.9071
 26.9558
 26.9661
 24.7119
 24.671
 24.7265
 25.3848
 25.419
 25.4428
 25.3781
 26.058
 26.0179
 26.0412
 26.1289
 25.9759
 25.9256
 25.9919
 26.7532
 26.7053
 26.732
 26.766
 24.8992
 24.854
 24.9709
 24.8848
 25.6536
 25.6719
 25.6165
 25.6298
 24.9252
 24.9122
 24.9949
 24.952
 26.9852
 26.9711
 27.0379
 27.0351
 26.6166
 26.5683
 25.3753
 25.4012
 25.4333
 25.4004
 24.8424
 24.8468
 24.8391
 24.8689
 24.3829
 24.3572
 24.4012
 24.322
 24.9207
 24.9613
 24.9063
 25.6492
 25.6179
 25.6723
 25.6395
 25.0531
 25.0285
 24.9906
 25.0212
 27.0736
 27.008
 26.9759
 27.0258
 25.1327
 25.1026
 25.0854
 25.659
 25.6756
 25.6881
 25.6838
 26.9721
 27.0112
 26.9765
 27.0243
 25.4795
 25.41
 25.4605
 25.4516
 25.7447
 25.7016
 25.6862
 25.732
 26.5208
 26.474
 26.4732
 26.4173
 27.0971
 27.0869
 27.1665
 27.1586
 26.1553
 26.1309
 26.0809
 26.1397
 27.7471
 27.7053
 27.6478
 27.6609
 26.8279
 26.792
 26.8384
 26.6935
 26.7601
 26.7534
 26.7643
 28.0114
 27.9524
 28.0535
 27.9836
 25.0357
 25.0845
 25.0819
 25.2035
 25.202
 25.1502
 25.1643
 26.6581
 26.5624
 26.592
 27.3635
 27.3604
 27.3856
 27.0617
 27.1357
 27.0606
 27.064
 26.5913
 26.6014
 26.5485
 26.6452
 25.6222
 25.5542
 25.5992
 25.6067
 27.5822
 27.56
 27.4938
 27.5701
 25.7402
 25.8283
 25.8409
 25.7702
 25.2089
 25.1576
 25.2499
 25.2057
 25.8637
 25.8578
 25.7771
 25.7934
 26.2085
 26.2438
 26.1586
 26.9375
 26.94
 26.9458
 26.8984
 24.9111
 24.8558
 24.846
 24.8534
 25.1548
 25.1144
 25.1559
 25.1841
 26.549
 26.4984
 26.527
 26.5808
 24.7414
 24.7105
 24.6862
 24.9011
 24.818
 24.8908
 24.871
 24.8433
 24.8178
 24.8814
 24.8547
 27.5434
 27.5586
 27.9806
 27.9745
 28.0217
 27.9203
 25.6185
 25.6439
 25.6802
 26.0335
 26.0791
 25.9849
 26.0597
 25.992
 25.9309
 25.9524
 25.9818
 28.5778
 26.2318
 25.7012
 25.6441
 25.2072
 25.1643
 25.1925
 25.1797
 27.3793
 26.3448
 26.2896
 26.3453
 24.3055
 24.3528
 24.3511
 24.3498
 25.9631
 26.009
 25.9683
 25.9211
 24.6535
 24.7039
 24.6696
 24.7141
 26.2126
 26.1445
 26.2469
 26.3763
 26.3164
 26.3529
 25.0775
 25.0453
 25.1219
 25.0715
 25.7593
 25.7805
 25.8199
 25.8624
 27.0599
 27.112
 27.0126
 27.0374
 25.1455
 25.042
 25.0805
 24.7385
 24.6539
 24.6521
 24.7377
 25.1806
 25.1896
 25.2454
 25.1786
 26.6722
 26.6847
 26.5856
 26.6894
 26.4972
 26.5429
 26.5334
 26.5426
 25.0021
 24.9535
 24.9581
 24.9509
 26.2364
 26.2653
 26.3061
 25.3198
 25.3065
 25.3392
 25.3667
 26.9256
 26.8686
 26.9577
 26.9549
 25.6884
 25.6709
 25.7372
 25.7096
 26.987
 26.9401
 26.9791
 26.9787
 25.8379
 25.7712
 25.8157
 25.8048
 25.2519
 25.2329
 25.1812
 25.305
 27.1319
 27.1515
 27.0953
 25.8784
 25.83
 25.1351
 25.1742
 25.1716
 25.2131
 26.2445
 26.2807
 26.2844
 27.0112
 27.0605
 27.0853
 27.0564
 25.5504
 25.5256
 25.5648
 25.5073
 25.6345
 25.6477
 25.5544
 25.623
 28.2921
 28.3084
 28.227
 28.2543
 26.0467
 26.1036
 26.0631
 27.8898
 27.8301
 27.8202
 25.9357
 25.9462
 25.9875
 25.9757
 26.0392
 26.9521
 26.96
 27.0488
 27.0333
 26.1702
 26.1251
 26.0974
 25.192
 25.1985
 25.2007
 25.2231
 26.0973
 26.0662
 26.0371
 26.0382
 26.0528
 26.0712
 26.0824
 24.3914
 24.4305
 24.4472
 24.4995
 26.6979
 26.5774
 26.6099
 26.6562
 27.1875
 27.1828
 27.1514
 27.1655
 26.3775
 26.3994
 26.3067
 26.3664
 25.0432
 25.0021
 25.0033
 25.0817
 28.3527
 28.2815
 28.3164
 28.2252
 25.3873
 25.4508
 25.4002
 25.3947
 27.1452
 27.1998
 27.1787
 27.1867
 25.1504
 25.271
 25.2492
 25.1972
 25.2237
 25.2676
 25.2953
 25.2481
 25.3697
 25.3342
 26.6697
 26.7057
 26.7106
 26.6755
 24.9073
 24.9162
 24.913
 25.3177
 25.4103
 25.3653
 25.303
 26.7349
 26.6674
 26.7092
 26.7729
 26.3601
 26.3882
 26.309
 28.6771
 28.6742
 28.7119
 28.6732
 26.0255
 26.1249
 26.0402
 24.9491
 24.9013
 24.9393
 24.96
 25.1951
 25.2336
 24.9542
 24.901
 24.8506
 24.9426
 25.3729
 25.3637
 27.1967
 27.1423
 27.2419
 27.1074
 25.2745
 25.2916
 25.2814
 25.3526
 25.926
 25.8839
 26.4305
 26.3832
 26.3954
 26.4223
 25.324
 25.2994
 25.2621
 25.2972
 26.6239
 26.7163
 26.7102
 26.6398
 24.9654
 24.9768
 24.9238
 24.8249
 25.7157
 25.6962
 25.7707
 27.3545
 27.3913
 27.398
 27.3489
 25.6306
 25.6497
 25.677
 25.7036
 26.6828
 26.7381
 26.769
 26.7918
 26.6532
 26.7211
 26.6714
 28.4084
 28.4063
 28.428
 28.3772
 27.101
 27.0018
 26.9808
 27.0759
 25.1543
 25.1946
 25.1355
 25.1946
 26.1073
 26.094
 26.1484
 26.3022
 26.897
 26.86
 26.8858
 26.8415
 26.2934
 26.3386
 26.3057
 26.2851
 25.4776
 25.398
 25.3859
 25.4551
 26.9209
 26.9186
 26.8128
 27.4006
 25.7358
 25.7067
 25.7766
 25.6829
 26.8808
 26.7878
 27.8924
 27.9545
 26.8808
 26.8336
 26.8826
 26.9622
 25.4245
 25.3764
 25.1316
 25.1335
 25.1033
 25.1439
 26.4891
 26.4397
 26.4182
 26.4451
 24.7795
 24.767
 24.7095
 24.7717
 26.4139
 26.4108
 26.5338
 26.519
 25.3347
 25.3267
 25.3504
 25.4326
 26.7226
 26.7184
 26.6894
 26.6861
 25.2468
 25.208
 25.2817
 25.2321
 26.2044
 26.1593
 24.8578
 24.8865
 25.5747
 25.5358
 25.5915
 25.5248
 25.5603
 25.5799
 25.577
 25.5162
 25.8586
 25.8948
 25.8422
 25.8379
 25.2504
 25.3318
 25.258
 25.1962
 26.7393
 26.8018
 26.765
 26.7676
 24.8881
 24.9031
 24.9212
 24.7829
 24.7746
 24.8372
 24.7934
 26.9641
 26.8876
 26.8859
 26.9157
 25.3893
 25.4694
 25.455
 25.4319
 26.9569
 26.9005
 26.8966
 26.8417
 25.9629
 26.0867
 26.0012
 26.0024
 26.0922
 25.1241
 25.115
 25.1108
 25.1804
 27.7369
 27.7863
 27.7367
 27.688
 25.4307
 25.3924
 25.3464
 25.4
 25.9785
 25.9123
 26.031
 25.9793
 25.4637
 25.5084
 25.5149
 25.5132
 25.5285
 24.4247
 24.4683
 24.551
 24.503
 25.2281
 25.2288
 25.3188
 25.2908
 27.848
 27.7929
 27.7425
 27.8537
 26.2294
 26.294
 26.3203
 26.2621
 26.5402
 25.893
 25.9154
 25.8921
 25.8419
 24.9626
 24.9644
 25.0176
 25.0525
 25.1278
 25.1211
 25.0709
 24.9649
 25.0962
 25.0298
 25.0608
 28.2814
 28.2345
 25.3202
 25.3154
 25.2965
 26.5356
 26.5428
 26.5537
 26.4843
 25.3839
 25.4124
 25.365
 25.4185
 25.8501
 25.5254
 25.5785
 25.5168
 25.5478
 24.7784
 24.8762
 24.8529
 24.7833
 25.5239
 25.4836
 25.4023
 25.5094
 26.2608
 26.2426
 26.3247
 26.1977
 26.9802
 26.9658
 27.0053
 26.9505
 24.5178
 24.6007
 24.4906
 24.525
 25.406
 25.4328
 25.3783
 25.4497
 24.6081
 24.6415
 24.6226
 24.5622
 26.5524
 26.6422
 26.5515
 26.5396
 25.8342
 25.8656
 24.8343
 24.7547
 24.8445
 24.7981
 25.852
 25.8299
 25.8281
 25.7739
 26.071
 26.0024
 25.9306
 25.8689
 25.8531
 25.9235
 25.092
 25.1127
 25.1293
 25.0695
 26.4033
 26.4783
 26.5145
 26.447
 27.1914
 27.1284
 27.1682
 27.1676
 27.0566
 27.0862
 27.0915
 27.083
 26.4951
 26.4693
 26.4665
 26.5316
 26.1696
 26.2573
 26.1917
 26.1591
 26.2487
 26.2078
 26.1802
 25.9721
 26.0172
 26.0316
 25.9927
 27.2436
 27.284
 27.2444
 26.3339
 26.3456
 26.2758
 26.2848
 25.8958
 25.8587
 25.8551
 25.9236
 26.6294
 26.6842
 26.5949
 26.6905
 26.4975
 26.4472
 26.46
 26.4656
 25.7792
 25.774
 25.729
 25.6893
 26.0799
 26.1296
 26.0897
 26.1111
 25.5043
 25.5281
 25.4899
 25.5076
 27.0704
 27.0548
 27.0302
 25.185
 25.2096
 25.1411
 25.208
 26.6185
 26.5558
 26.5884
 26.6375
 26.2328
 26.2773
 26.3004
 26.2156
 26.0989
 26.0513
 26.0288
 25.6421
 25.6531
 25.6282
 25.5805
 25.5593
 25.5475
 25.5127
 25.5789
 25.4609
 25.456
 25.3982
 25.0902
 25.0514
 25.0719
 25.6193
 25.6481
 25.6877
 25.6287
 24.985
 24.9495
 25.0265
 24.9101
 24.9075
 24.925
 24.9791
 26.0677
 26.1801
 26.1207
 26.143
 26.5113
 26.5595
 26.5074
 26.5539
 26.7992
 25.0599
 25.0934
 25.0015
 25.05
 25.0023
 25.1118
 28.4573
 28.5062
 28.4522
 28.4349
 25.3102
 25.3608
 26.1853
 26.264
 26.1893
 24.5961
 24.5224
 25.6491
 25.7387
 25.7156
 25.7041
 26.2066
 26.1768
 26.1732
 25.3171
 25.2089
 25.2828
 25.2364
 26.5392
 26.5217
 26.5661
 26.5027
 27.9604
 27.8894
 27.9104
 27.9736
 25.753
 25.7428
 25.7726
 25.6941
 25.1003
 25.0012
 25.1067
 25.2468
 25.2449
 25.233
 25.2866
 26.6715
 26.7629
 26.7374
 26.8007
 26.6889
 26.6252
 26.8872
 26.8359
 26.9074
 24.5521
 24.5963
 25.0907
 25.151
 25.0804
 25.1701
 25.9111
 25.8152
 25.8325
 25.3636
 25.4301
 25.3223
 25.314
 26.6409
 26.7292
 26.7115
 26.6676
 25.9815
 25.9844
 25.9322
 25.919
 26.032
 25.9883
 25.9849
 26.0339
 26.7462
 26.7095
 26.7183
 26.643
 26.6773
 26.6541
 26.661
 24.3385
 24.2647
 24.3203
 24.2338
 27.1442
 27.2277
 24.9247
 24.9177
 24.9203
 24.9667
 26.2142
 26.1573
 26.1816
 26.21
 25.8933
 25.8536
 25.8509
 25.8526
 27.0989
 27.0339
 25.9018
 25.9441
 25.948
 25.9799
 26.1953
 26.2156
 26.233
 26.1755
 25.174
 25.1928
 25.2139
 25.1812
 26.0724
 26.0364
 26.0205
 26.1096
 26.5704
 26.5714
 25.6935
 25.693
 25.7235
 25.6734
 25.421
 25.4499
 25.398
 25.8923
 25.8315
 25.8489
 25.8228
 26.8359
 26.808
 26.8496
 26.7664
 28.1227
 28.056
 28.0674
 28.1261
 26.0823
 26.1189
 26.0786
 26.0081
 25.8174
 25.7364
 25.795
 25.8161
 26.2325
 26.2005
 26.2706
 26.256
 26.4277
 26.469
 26.4266
 26.3924
 25.148
 25.0804
 25.6775
 25.7034
 25.7277
 27.5916
 27.6197
 27.6611
 27.5939
 26.7296
 26.7766
 26.6945
 26.7993
 25.9114
 25.8879
 25.9284
 25.948
 25.167
 25.1436
 25.1378
 26.1766
 26.1952
 26.2711
 26.2758
 26.5988
 26.5079
 26.5434
 26.6032
 25.3495
 25.4164
 25.4241
 25.3771
 25.6414
 25.6623
 25.6832
 25.6765
 25.1347
 25.1236
 25.124
 25.302
 25.2922
 25.2975
 25.2857
 26.3525
 26.3489
 26.3844
 26.4295
 26.1209
 26.1271
 26.0702
 28.0223
 28.0094
 28.0387
 28.0772
 26.617
 26.6199
 27.1951
 27.2384
 27.1681
 27.1432
 26.7835
 27.0405
 24.959
 26.5348
 26.5967
 26.5498
 26.6264
 24.5429
 25.6413
 25.6978
 25.6405
 25.7169
 26.5937
 26.5281
 26.5647
 26.3179
 26.2696
 26.2689
 25.1326
 25.1269
 25.2131
 25.1413
 25.2278
 25.2701
 25.2147
 25.2599
 26.8913
 26.9791
 26.9769
 26.9211
 24.7717
 24.7565
 24.7451
 24.8185
 26.0107
 26.0612
 26.1073
 25.2326
 25.1835
 25.2185
 25.7754
 25.8389
 25.8176
 25.768
 26.5314
 26.4962
 26.5734
 26.5471
 25.8451
 25.7557
 25.8335
 26.4703
 26.4529
 26.4474
 26.516
 26.1792
 26.0992
 25.1542
 25.1199
 25.1034
 25.0526
 24.9516
 24.873
 24.9124
 24.9398
 26.7162
 26.6496
 26.7508
 26.7017
 25.374
 25.4579
 25.4293
 25.3586
 25.7136
 25.806
 25.7254
 25.6908
 26.3116
 26.3539
 26.2742
 26.3122
 25.0132
 25.0361
 25.0583
 25.084
 26.1937
 26.2446
 26.1555
 26.1636
 25.9915
 26.0383
 26.0402
 25.947
 26.1147
 26.1541
 26.1041
 26.095
 26.6922
 26.6332
 26.7808
 26.741
 26.6949
 26.768
 27.3079
 27.41
 27.3486
 27.3218
 25.6912
 25.6928
 25.6815
 25.6251
 25.7106
 25.7819
 25.7668
 24.8313
 24.815
 24.7995
 24.8032
 24.5128
 24.485
 24.5371
 24.8626
 24.8374
 24.9248
 25.8009
 25.7338
 25.6845
 25.7724
 25.4691
 25.4261
 25.3897
 25.4968
 25.1943
 25.1369
 25.1889
 25.1292
 26.4645
 26.5334
 26.5155
 26.473
 27.1897
 27.1345
 27.1073
 27.1052
 24.5631
 24.5635
 24.6074
 24.4886
 26.6052
 26.6343
 26.6569
 26.5896
 25.834
 25.8328
 25.8007
 25.8476
 24.505
 24.5456
 24.6163
 24.4718
 25.5639
 25.6241
 25.5487
 25.5688
 26.2347
 26.2643
 26.2404
 26.2604
 26.5888
 26.6438
 26.635
 27.0033
 26.9342
 26.9788
 27.016
 26.8346
 26.8634
 26.8272
 26.8693
 26.7816
 26.854
 26.6622
 26.6303
 26.7361
 25.1623
 25.1964
 25.2085
 25.2203
 24.9216
 24.9726
 24.9502
 24.9656
 25.5723
 25.584
 25.5853
 25.656
 26.0869
 24.928
 24.9028
 24.9153
 24.948
 27.0651
 27.0639
 27.0757
 27.0854
 24.6653
 24.6127
 24.6831
 24.5865
 26.32
 26.3927
 26.2928
 25.4473
 26.9324
 26.9278
 26.9732
 26.7864
 26.8147
 26.8531
 26.7506
 25.9099
 25.9235
 26.0075
 25.9584
 25.3223
 25.3152
 25.3668
 25.281
 26.0779
 25.4825
 25.5083
 25.5286
 26.0703
 26.0908
 26.0728
 26.0111
 26.4871
 26.4699
 26.5178
 26.5174
 26.3071
 26.3805
 26.3267
 26.3179
 25.4468
 26.6901
 26.6866
 26.6449
 25.2182
 25.2568
 25.2078
 25.2407
 25.0845
 25.1019
 25.0327
 25.121
 24.8713
 24.8441
 24.8823
 26.4803
 26.4756
 26.5268
 26.4704
 27.1047
 27.1405
 27.104
 25.1011
 25.1214
 24.9955
 25.0202
 25.0551
 25.0529
 26.1129
 26.1132
 26.0711
 24.6521
 24.6776
 24.6278
 24.6926
 25.1438
 25.1734
 25.1497
 25.1162
 25.5965
 25.6198
 25.5715
 25.5635
 25.8972
 25.879
 25.9074
 25.9616
 26.6246
 26.6433
 26.6572
 26.5977
 25.0308
 25.023
 25.0538
 24.9711
 26.4608
 26.4448
 26.5173
 26.3251
 26.2731
 26.2675
 26.2503
 24.9202
 24.9228
 24.8438
 24.8937
 25.4803
 25.48
 25.5055
 25.5225
 24.653
 24.6969
 24.7483
 24.6866
 26.3129
 26.2643
 26.2418
 26.2506
 25.8794
 25.8544
 25.9261
 25.811
 25.0956
 25.1016
 25.0638
 25.0937
 25.8988
 25.8441
 25.9078
 25.8939
 24.6543
 24.5637
 24.6381
 26.4944
 26.5186
 26.5304
 26.5204
 25.7909
 25.7939
 25.8008
 25.853
 25.6268
 25.5588
 25.611
 25.6068
 25.9634
 26.0082
 25.9122
 25.9774
 25.0938
 25.098
 25.0224
 25.0644
 26.0999
 26.1592
 26.13
 26.1482
 25.6927
 25.7087
 25.6963
 25.7482
 27.1003
 27.0985
 27.1127
 27.0976
 25.2677
 25.2529
 25.3065
 25.3328
 27.1199
 27.1219
 27.119
 26.6747
 26.7051
 26.7019
 26.6645
 26.8759
 26.8533
 26.7374
 26.8242
 25.2853
 25.3202
 25.2761
 25.2352
 25.4919
 25.4063
 25.4706
 25.4663
 26.3055
 26.3636
 26.3666
 26.3984
 24.4652
 24.5068
 24.5625
 28.0033
 28.0246
 25.6886
 25.6333
 25.7173
 25.6972
 27.3971
 27.4505
 27.5118
 27.4436
 25.5034
 25.5018
 25.4286
 25.4511
 26.303
 26.4511
 26.4724
 26.4884
 26.5227
 25.3546
 25.33
 25.321
 25.2982
 25.0689
 25.0854
 25.0275
 25.0855
 27.1015
 27.1021
 25.4483
 25.4232
 25.3331
 25.428
 25.7551
 25.8638
 25.7508
 25.8062
 26.581
 26.5745
 26.6228
 26.488
 26.1211
 26.1686
 26.1778
 26.1131
 25.154
 25.2208
 25.0978
 24.8947
 24.9186
 24.9098
 24.9238
 24.5189
 24.5134
 24.4986
 26.4183
 26.4575
 26.4433
 26.4101
 24.8543
 24.9107
 24.9237
 24.9368
 26.8894
 26.9485
 26.925
 26.9107
 25.5586
 25.5407
 25.5382
 25.6039
 25.8524
 25.7808
 25.833
 25.828
 24.8654
 24.8744
 24.8819
 24.822
 25.4876
 25.4486
 25.511
 25.5433
 27.5035
 27.5366
 27.5632
 27.517
 26.083
 26.172
 26.0892
 26.1609
 26.4141
 26.3094
 26.328
 26.3984
 25.3486
 25.3121
 25.3706
 25.4267
 26.8152
 26.8641
 26.8948
 26.8786
 25.7083
 25.7551
 25.725
 25.6573
 26.4365
 26.4891
 26.4917
 27.0919
 27.1453
 27.1049
 27.1701
 25.6276
 25.5721
 25.6672
 25.5343
 25.5472
 25.5854
 26.6559
 26.7169
 26.7588
 26.8173
 26.8273
 26.7971
 26.7748
 24.8958
 28.5422
 28.4935
 28.4929
 28.5709
 25.1139
 25.1659
 25.0667
 25.1212
 26.9611
 26.2962
 26.3072
 26.3234
 26.2407
 26.4262
 26.4615
 26.345
 26.6236
 26.5448
 26.58
 26.6145
 27.5329
 27.5607
 27.5173
 27.6003
 26.8925
 26.8406
 26.8483
 25.9031
 25.9353
 25.9278
 26.4328
 26.4541
 24.3806
 24.4566
 24.4642
 26.852
 26.8004
 26.874
 26.2954
 26.2464
 26.2269
 24.8417
 24.781
 24.7943
 25.3118
 25.308
 25.248
 25.3117
 26.6151
 26.569
 26.5537
 27.0594
 27.1333
 24.7604
 24.8219
 24.7408
 24.764
 27.3463
 27.3123
 27.3858
 27.2704
 26.8438
 26.8661
 28.1148
 28.1837
 27.816
 27.8302
 27.782
 26.3168
 26.282
 26.3469
 24.7741
 24.85
 24.8671
 25.4584
 25.4452
 25.3911
 26.5696
 26.5138
 26.4468
 26.413
 26.4733
 25.0176
 27.1559
 27.1588
 27.1254
 27.1206
 26.4169
 26.305
 26.3747
 26.3857
 25.3817
 25.4082
 25.3659
 25.3823
 25.3786
 25.4138
 25.3938
 26.3403
 26.365
 26.3115
 26.2676
 25.4869
 25.4574
 25.4218
 25.4247
 25.2674
 25.3203
 25.2902
 25.2246
 26.0258
 25.4139
 25.4239
 25.3982
 25.3767
 24.6988
 24.6648
 24.6957
 24.7451
 26.7118
 26.8177
 26.8323
 26.7564
 24.8014
 24.7696
 24.8031
 24.8108
 28.1435
 28.1415
 28.1998
 24.7431
 24.7793
 24.6718
 24.7169
 26.6684
 26.685
 26.7432
 26.7337
 25.2641
 25.3193
 25.2805
 25.2397
 26.859
 26.8589
 26.9829
 26.9557
 24.5864
 25.1359
 25.2196
 25.1893
 25.2475
 25.0157
 24.9552
 24.9825
 27.0514
 27.011
 27.0663
 27.0934
 25.2945
 25.3458
 25.3353
 25.3699
 25.7425
 25.6966
 25.6883
 25.7055
 25.8154
 25.7821
 25.8654
 25.8682
 24.5159
 24.588
 26.1998
 26.1912
 26.1931
 26.3653
 26.3165
 26.2962
 26.2542
 25.4162
 25.4527
 25.3483
 25.3472
 25.3951
 25.3621
 25.3622
 25.3181
 25.6378
 25.6362
 25.581
 25.6485
 26.6993
 26.6844
 26.5273
 26.5672
 26.5711
 26.3018
 26.2613
 26.2544
 26.2445
 27.1309
 27.1849
 27.182
 27.1862
 26.4153
 26.4391
 26.4958
 27.5041
 27.5146
 27.4336
 26.3677
 26.3726
 26.4214
 26.3335
 26.6761
 26.5956
 26.6915
 26.093
 25.4099
 25.4196
 25.3516
 26.2683
 26.2956
 26.2569
 26.2136
 26.8745
 26.8674
 26.7286
 26.8034
 26.0438
 26.0062
 25.988
 25.9847
 25.1555
 25.1937
 24.4429
 24.4972
 24.5362
 24.437
 25.3572
 25.3945
 25.3365
 25.4331
 26.2078
 26.2206
 26.2253
 26.1941
 24.6363
 24.6305
 24.5234
 24.6736
 24.7819
 24.75
 24.7377
 25.9465
 26.0194
 26.0421
 25.9687
 27.0021
 27.028
 26.964
 26.1788
 26.186
 26.114
 26.1737
 26.9983
 27.0997
 27.0188
 27.0931
 25.5102
 25.5179
 25.5019
 25.6302
 27.0918
 27.0895
 27.0943
 27.072
 26.6722
 26.6237
 26.6079
 26.6472
 24.729
 24.7977
 24.7222
 24.7766
 25.8615
 25.8624
 25.9134
 25.8591
 26.364
 26.4065
 26.3454
 26.3965
 25.4465
 25.4287
 25.1969
 25.1015
 25.1244
 25.1331
 26.2828
 26.218
 26.2381
 26.1644
 26.1186
 26.0798
 26.1088
 26.1158
 26.9639
 26.9291
 26.981
 26.2608
 26.3039
 26.339
 28.3709
 28.4664
 28.4016
 28.4496
 26.6204
 26.5856
 27.0492
 27.0015
 27.0268
 27.0796
 25.7126
 25.7666
 25.7179
 25.7858
 27.5305
 27.4698
 27.4317
 27.4962
 26.78
 26.7958
 26.8637
 25.5558
 25.5335
 25.539
 25.5677
 26.7342
 26.6848
 26.7582
 26.8079
 26.8007
 26.8543
 26.8554
 26.3096
 26.3501
 26.3407
 26.2746
 25.2468
 25.1002
 27.8986
 27.8704
 26.6308
 26.6849
 26.178
 26.2266
 26.2067
 26.2146
 25.5752
 25.537
 25.5775
 25.4993
 25.9876
 25.9879
 25.9538
 25.9402
 26.9906
 27.0983
 27.0011
 27.0646
 25.7678
 25.8369
 25.7987
 26.9918
 27.0119
 26.9765
 26.9779
 24.9193
 24.905
 24.864
 24.9361
 25.599
 25.6019
 25.6099
 25.6625
 26.924
 26.8722
 26.9447
 26.1704
 26.2382
 26.1777
 26.1429
 27.0926
 27.0917
 27.0642
 26.7361
 26.683
 26.7001
 26.7391
 26.8785
 26.8908
 26.8266
 26.8667
 26.2756
 26.3235
 26.3466
 26.3591
 24.7419
 24.7804
 24.8384
 24.8093
 25.7056
 25.6229
 25.6459
 25.6597
 26.2193
 26.2914
 26.2346
 25.9069
 25.9356
 25.9294
 24.9858
 25.0517
 24.9901
 25.0295
 25.6447
 25.6241
 25.6929
 25.6039
 26.3147
 26.2678
 26.2319
 26.2561
 27.1644
 27.1347
 26.9411
 26.9825
 26.9124
 26.9115
 27.9883
 28.012
 28.0686
 27.9721
 25.386
 25.3706
 25.3732
 25.3962
 26.7365
 26.8123
 26.7819
 26.7896
 25.9962
 26.0604
 26.0177
 26.088
 27.2648
 27.2892
 27.2828
 27.3114
 25.856
 25.8888
 25.9211
 25.9146
 26.1268
 25.3641
 25.4283
 25.4354
 25.4207
 26.2761
 26.3464
 26.3631
 26.285
 26.2561
 26.2251
 26.1886
 26.2028
 26.406
 26.4611
 26.4384
 26.4862
 26.8823
 26.9557
 26.8516
 25.1168
 25.101
 25.078
 25.1895
 26.2653
 26.2832
 26.2852
 26.3074
 25.1832
 25.1513
 25.1147
 25.5671
 25.6056
 25.5646
 25.6035
 25.2756
 25.1947
 25.2398
 25.1877
 26.8558
 26.7989
 26.8621
 28.5898
 28.5542
 28.5389
 25.4326
 25.3611
 25.379
 25.8579
 25.7573
 25.8127
 25.7584
 26.3846
 26.3486
 26.3188
 26.3572
 26.2312
 26.1987
 26.2823
 26.2641
 27.6724
 27.6246
 27.7328
 27.6218
 25.9581
 25.9884
 25.9924
 26.0005
 25.771
 25.7763
 25.6993
 25.7636
 26.7155
 26.7172
 26.5774
 26.695
 26.6364
 26.6277
 25.5212
 25.5706
 25.5413
 25.5323
 26.7963
 26.7341
 25.7076
 25.7305
 26.9932
 28.4168
 28.4376
 28.4322
 28.378
 27.2214
 27.158
 24.5887
 24.5211
 24.5803
 27.1101
 27.0559
 27.0095
 27.064
 25.448
 25.432
 26.6971
 26.71
 26.6995
 26.6986
 26.4551
 26.352
 26.4032
 25.3647
 25.3556
 25.3638
 25.2944
 25.6414
 25.5881
 25.6438
 25.6219
 25.1145
 25.1111
 25.0539
 26.2322
 26.2846
 26.2302
 26.3131
 26.0703
 25.0574
 25.1601
 25.0835
 25.1085
 27.0964
 27.1218
 27.0701
 27.0433
 25.9572
 26.0001
 25.9136
 25.9721
 25.35
 25.4451
 25.3758
 25.4216
 28.0514
 28.0467
 28.0176
 28.0231
 26.8725
 24.6095
 26.3268
 26.2363
 26.294
 26.3521
 25.9234
 25.8641
 25.9358
 25.9589
 26.6847
 26.7772
 26.7213
 26.7103
 25.8944
 25.9257
 25.9038
 25.8913
 26.9488
 26.9388
 26.8691
 26.9774
 26.9213
 26.8767
 26.9264
 26.2136
 26.1464
 26.2366
 26.2063
 25.3325
 25.2692
 25.3919
 24.386
 24.3134
 24.3835
 24.4234
 27.6966
 27.784
 27.7869
 26.1221
 26.1274
 26.1713
 26.141
 26.2101
 26.1261
 24.9203
 24.9184
 24.9491
 24.8635
 25.4466
 25.4884
 25.4741
 25.5195
 26.8894
 26.7927
 26.8636
 27.386
 26.2695
 26.3402
 26.314
 26.2748
 26.1188
 26.0778
 26.0855
 25.5676
 25.6027
 25.5844
 25.549
 25.3918
 25.4562
 25.4103
 25.4406
 26.297
 26.3402
 25.4848
 25.4873
 25.4873
 25.4397
 25.8657
 25.8826
 25.865
 25.8151
 24.817
 24.7748
 25.6661
 25.7238
 25.6827
 25.7043
 25.4949
 25.4669
 25.4596
 25.4188
 25.5974
 25.5621
 25.5936
 25.6019
 26.0918
 26.0571
 26.2685
 26.2271
 26.2738
 26.3096
 26.4337
 26.4912
 26.4663
 26.4485
 25.8376
 25.7896
 25.7971
 25.8176
 26.9375
 26.8952
 26.8462
 26.8226
 26.6993
 26.7195
 26.7423
 26.7213
 27.8595
 27.7898
 27.7979
 27.8742
 26.4374
 26.5384
 25.8493
 25.9456
 25.8745
 25.9016
 26.3223
 26.3372
 26.3119
 26.2688
 25.9509
 25.909
 25.8786
 25.9331
 26.2205
 26.2112
 25.3581
 25.3777
 24.6536
 24.6409
 24.6288
 24.6236
 27.0701
 26.2585
 26.2654
 26.2464
 26.2057
 26.0846
 26.1384
 26.1129
 26.0941
 26.5545
 26.5985
 26.6067
 26.6698
 25.4809
 25.5552
 25.4955
 25.5614
 25.8893
 25.9282
 25.9451
 25.8902
 26.9579
 26.9817
 26.9247
 27.0016
 27.0303
 26.3611
 26.2991
 26.3775
 26.352
 26.4285
 26.3484
 26.3995
 26.433
 26.8744
 26.8687
 26.9316
 26.8716
 26.7186
 26.7038
 26.6243
 26.6611
 26.1448
 26.0864
 26.1647
 26.1674
 26.9528
 26.9886
 27.0199
 26.9981
 25.9078
 25.8926
 25.9689
 26.6409
 26.6418
 26.6584
 26.6637
 27.5636
 27.5211
 25.895
 25.8582
 25.8433
 26.0064
 25.939
 25.9646
 25.9336
 27.0317
 26.987
 26.9651
 27.2623
 27.2255
 27.2322
 27.2502
 25.6896
 25.7099
 25.6496
 25.691
 25.9291
 26.0079
 25.929
 25.2868
 25.3998
 25.3451
 26.0994
 26.1451
 26.1339
 25.1033
 25.121
 25.0873
 27.8797
 27.934
 27.9436
 27.8856
 24.8189
 24.7927
 24.8318
 24.7871
 26.5029
 26.5538
 25.8403
 25.8684
 26.8432
 26.8436
 26.8559
 26.8001
 25.7315
 25.7674
 25.6958
 25.3215
 25.2777
 25.29
 25.2802
 25.0574
 25.1421
 27.0954
 27.0888
 27.1227
 25.8818
 25.8827
 25.9362
 26.707
 26.7565
 26.6862
 27.0064
 27.008
 27.0286
 27.0428
 26.2664
 26.2421
 26.2987
 26.2189
 26.3375
 26.3977
 26.3865
 26.3434
 25.5128
 25.525
 25.5373
 25.4757
 25.391
 25.4437
 25.4146
 25.4844
 26.4114
 26.3895
 26.3583
 25.7194
 25.7438
 25.7743
 25.5682
 25.5076
 25.5339
 25.5023
 24.2366
 24.2825
 24.2216
 26.0853
 26.1161
 26.1154
 25.5034
 25.4684
 25.5386
 26.1438
 26.115
 26.1773
 26.5108
 26.5774
 26.5604
 27.0707
 27.0487
 27.0534
 27.0316
 26.0754
 26.2298
 26.1656
 26.2067
 26.6527
 26.6693
 26.7107
 26.9089
 26.8407
 25.6117
 25.6508
 25.5672
 25.6178
 25.5903
 25.539
 25.6209
 25.6519
 26.8555
 26.7848
 26.7519
 26.7422
 26.9222
 26.9969
 26.949
 27.0054
 27.381
 27.419
 27.3773
 27.448
 24.8182
 24.7921
 25.1604
 25.2408
 25.1938
 25.1501
 24.7364
 26.5475
 26.4731
 26.5377
 26.0377
 26.0227
 26.064
 26.0899
 26.9171
 26.9119
 26.1866
 26.2022
 26.1287
 27.132
 27.1089
 25.2297
 25.2286
 25.166
 25.2799
 25.0021
 25.0272
 24.9151
 24.9896
 25.3882
 25.3751
 25.4292
 26.4938
 26.4464
 26.4519
 25.0063
 25.0194
 24.9949
 24.9842
 26.6806
 26.7476
 26.6959
 26.665
 25.3401
 25.3766
 25.3981
 25.3451
 26.6329
 26.6939
 26.7044
 26.6038
 26.9439
 26.9188
 26.9655
 24.7468
 24.6481
 24.6953
 24.7273
 27.0707
 27.0325
 27.0493
 26.3084
 26.2935
 26.2022
 26.283
 24.7529
 24.6913
 24.7216
 26.6114
 26.6578
 26.5751
 26.6147
 25.6193
 24.8982
 24.8589
 24.9835
 24.9176
 27.1891
 27.1712
 27.1362
 27.1761
 25.6064
 25.6946
 25.6255
 25.606
 26.1224
 26.1074
 26.1721
 26.9174
 26.9479
 26.9033
 27.0238
 25.6567
 25.688
 25.6261
 26.6976
 26.7258
 27.8277
 27.9047
 27.8542
 27.8003
 27.2679
 27.392
 27.3992
 24.968
 24.9951
 24.9065
 24.9865
 25.0095
 24.9697
 27.2484
 27.2283
 27.293
 27.2089
 26.3623
 26.3369
 26.3447
 26.3088
 26.1908
 26.2691
 26.2663
 26.2475
 25.8626
 25.8887
 25.8179
 25.8726
 25.8762
 25.9682
 25.9104
 25.9614
 24.8313
 26.9773
 27.0095
 26.9716
 26.9978
 24.832
 24.8788
 24.8083
 25.8792
 25.9333
 25.9675
 25.9475
 27.0494
 26.9875
 26.9671
 25.9289
 25.9811
 25.9459
 25.9793
 26.1214
 25.5329
 25.518
 25.4471
 25.4744
 26.676
 26.6897
 26.6788
 26.1161
 26.0293
 26.0773
 24.7759
 24.8013
 24.8652
 24.8096
 26.1097
 26.1112
 26.1449
 28.1525
 28.1361
 28.1979
 26.1152
 26.1554
 26.1136
 26.2118
 25.5158
 25.4532
 25.4816
 26.0616
 26.0439
 25.15
 25.1083
 25.1823
 25.1636
 25.4058
 25.3485
 25.3747
 25.3908
 24.6967
 24.7202
 24.7621
 24.8097
 25.9451
 26.0512
 25.9759
 25.9552
 25.4288
 25.4527
 25.4671
 25.4826
 25.1563
 25.1092
 25.0626
 26.7655
 26.7319
 26.8275
 26.7854
 26.1656
 26.1086
 26.4652
 26.5088
 26.4602
 26.4808
 25.5975
 25.5984
 25.6099
 25.567
 26.1265
 26.0767
 26.0858
 26.1491
 25.674
 25.7084
 25.6412
 25.7082
 26.076
 26.0623
 26.0064
 26.0077
 26.162
 26.2066
 26.2084
 25.1649
 25.2067
 25.1828
 24.9499
 24.9482
 24.9643
 24.8782
 25.1994
 25.1979
 25.1539
 25.4784
 25.3863
 25.4584
 27.7324
 27.695
 27.7772
 26.1711
 26.0956
 26.1516
 25.2312
 25.2059
 25.2461
 25.2392
 26.1733
 26.146
 26.1809
 25.893
 25.8838
 25.8528
 25.9338
 25.625
 25.7454
 25.7086
 25.7067
 26.147
 26.0964
 26.116
 26.0743
 26.8169
 26.777
 26.8092
 26.8465
 26.152
 25.9105
 25.9236
 25.8877
 25.9982
 27.0684
 27.0419
 27.0289
 27.0354
 26.9877
 26.9312
 26.9661
 26.9349
 26.9044
 26.8541
 26.8869
 26.9105
 25.6367
 25.6598
 25.5751
 25.5422
 26.7341
 26.7675
 26.7468
 26.7386
 24.5324
 24.5991
 24.5573
 24.5999
 27.3456
 27.3059
 27.2632
 27.2633
 26.7349
 26.7288
 26.7484
 27.1502
 27.2053
 27.2336
 27.2257
 26.8979
 26.9488
 26.8619
 27.0281
 27.0112
 26.0494
 26.0567
 26.0139
 25.9372
 24.9925
 25.0394
 25.0541
 24.9334
 24.9475
 24.9064
 24.969
 26.8803
 26.9323
 24.6689
 24.6309
 24.6846
 25.154
 25.1641
 25.141
 25.1161
 26.9051
 26.9362
 26.8996
 24.7713
 24.74
 24.8051
 24.7216
 26.4193
 26.4044
 26.3625
 26.4578
 26.8948
 26.9712
 26.9258
 26.8754
 27.181
 27.0796
 27.1241
 27.1364
 27.589
 27.5524
 27.6161
 27.6223
 25.7486
 25.6519
 25.7105
 25.657
 26.3874
 26.3881
 26.4097
 26.4894
 24.7345
 24.8208
 24.7388
 28.1629
 28.0914
 28.1431
 28.0525
 27.3064
 27.2496
 27.2765
 27.2258
 24.8219
 24.7178
 24.7764
 24.778
 26.1383
 26.1331
 26.0834
 25.1137
 25.0414
 25.0248
 26.8023
 26.8082
 26.8866
 24.704
 24.7855
 24.7826
 24.7308
 25.0629
 25.0825
 25.0945
 25.1504
 26.6264
 26.5946
 26.5397
 26.591
 26.4296
 26.495
 26.4298
 26.5006
 25.345
 25.3409
 25.32
 25.2608
 25.9851
 26.0162
 26.0523
 26.0305
 27.395
 27.3293
 27.3406
 27.3159
 25.0665
 25.1882
 25.111
 25.1373
 24.6343
 25.9702
 25.9567
 25.9179
 25.9194
 24.9397
 24.9083
 24.9146
 24.8562
 27.0729
 27.0736
 27.0577
 27.0589
 24.7369
 24.6846
 24.7539
 24.7791
 26.1716
 26.1812
 26.3778
 26.409
 26.3698
 26.3463
 25.3565
 25.4159
 25.4235
 25.4245
 25.8686
 25.7994
 25.8049
 26.3926
 26.408
 26.3781
 25.3652
 25.3627
 25.4341
 25.4429
 25.3881
 25.4198
 25.359
 25.4033
 26.827
 26.8851
 26.8928
 26.1332
 26.0165
 26.0177
 26.0835
 27.4499
 27.382
 27.3233
 27.414
 27.4584
 24.6798
 24.7834
 24.6715
 24.7767
 26.0524
 26.0818
 26.112
 26.0558
 24.9469
 24.9077
 26.2553
 26.3505
 26.3504
 26.667
 26.7247
 26.629
 26.6465
 24.768
 24.7798
 24.7484
 24.7375
 26.9771
 26.9564
 26.9643
 26.6646
 26.6892
 26.6436
 26.6847
 26.4611
 26.3994
 26.4433
 26.5191
 25.5661
 25.4472
 25.505
 25.476
 26.7578
 26.672
 26.7248
 26.7279
 25.362
 25.8022
 25.7353
 25.7132
 25.8089
 24.9511
 24.9278
 24.9884
 24.7985
 24.8218
 24.8309
 24.8734
 25.7483
 25.7259
 25.7985
 25.7646
 24.5081
 24.5077
 24.502
 24.5759
 26.4608
 25.8001
 25.8815
 25.891
 25.8257
 26.0348
 26.1224
 26.0923
 26.0548
 27.5813
 27.5167
 27.4996
 27.562
 26.1234
 26.1064
 26.087
 26.1561
 26.309
 26.2937
 26.273
 26.252
 26.2816
 26.2677
 26.2285
 25.0534
 25.1187
 25.1457
 26.3208
 26.3819
 26.3696
 26.3298
 25.0186
 24.9267
 24.9756
 26.0636
 26.0938
 26.0043
 25.9694
 25.9873
 25.9265
 25.9387
 25.9201
 26.0872
 26.0713
 25.9919
 26.0197
 25.0289
 24.9904
 24.993
 26.4389
 24.906
 25.8585
 25.8115
 25.8545
 25.9249
 26.8395
 26.8151
 26.8931
 26.7462
 26.6829
 26.6635
 25.9904
 25.9763
 26.0287
 26.0875
 26.0932
 26.0554
 26.0276
 26.0607
 26.1066
 26.0263
 26.1029
 28.2473
 28.2349
 28.306
 25.3414
 25.4152
 25.3406
 26.1887
 26.1597
 25.1295
 25.2234
 25.2028
 25.2181
 25.7672
 25.7178
 25.7625
 27.5004
 27.5289
 27.5948
 27.5686
 26.2833
 26.372
 26.3231
 26.2967
 26.8047
 26.832
 26.871
 26.8876
 25.6037
 25.685
 25.6464
 25.6137
 26.5619
 26.598
 26.5719
 26.6401
 27.4063
 27.4238
 27.435
 26.4033
 26.4286
 26.4612
 26.448
 25.5579
 25.4924
 25.5118
 25.5151
 26.114
 26.055
 26.0423
 26.0794
 26.7242
 26.7564
 26.7228
 26.3665
 26.4114
 26.3891
 26.4015
 26.7712
 26.8378
 26.7582
 26.821
 27.0077
 26.9195
 26.9096
 27.0125
 24.8581
 24.8144
 24.8337
 24.8122
 26.9172
 26.8635
 26.8826
 26.8632
 26.7508
 26.7934
 26.7277
 26.7369
 25.7379
 25.6522
 25.6911
 25.6461
 26.4116
 26.4405
 26.3782
 26.3931
 24.3472
 24.3091
 24.3148
 24.3127
 26.312
 26.3441
 26.288
 27.0365
 27.0869
 27.0639
 27.013
 26.9469
 26.9809
 26.9574
 26.9832
 26.8643
 26.9511
 25.5669
 25.611
 25.5651
 25.6431
 24.5055
 24.564
 24.5344
 24.541
 26.3317
 26.3904
 26.3553
 26.3906
 26.8727
 26.9102
 26.9219
 25.6304
 25.6886
 25.7024
 25.641
 26.2106
 26.2398
 26.1751
 26.158
 26.6777
 26.6788
 26.6857
 26.6322
 27.0799
 26.9789
 27.0385
 25.2661
 25.2093
 25.1845
 25.247
 25.2379
 25.2235
 25.2888
 26.3243
 26.3069
 26.2663
 26.2597
 26.2991
 26.3445
 26.2636
 26.7072
 26.6555
 26.6347
 26.6258
 25.6393
 25.6446
 25.6986
 26.8771
 26.8698
 26.9432
 26.0186
 25.9459
 25.9804
 25.193
 25.2692
 25.2384
 25.5346
 25.5543
 26.4487
 26.4041
 26.4469
 26.3992
 26.3703
 26.4001
 26.2003
 26.2735
 26.6533
 27.1378
 27.1226
 27.1806
 25.003
 25.0119
 25.0994
 26.3029
 26.2607
 26.2779
 26.3225
 26.6826
 26.0702
 26.0245
 25.6381
 25.6343
 25.6494
 25.5982
 26.0934
 26.1614
 26.0938
 26.2905
 26.2601
 26.3561
 26.2714
 26.4183
 26.3076
 26.3047
 26.3484
 26.3669
 26.2635
 25.061
 25.1155
 25.1295
 25.0886
 25.0357
 24.9898
 24.905
 24.9357
 26.9116
 26.8547
 26.0499
 26.0861
 26.0973
 26.1417
 25.904
 25.887
 25.8703
 25.8443
 25.6443
 25.593
 25.6541
 25.6624
 26.1993
 26.2279
 26.2514
 26.1866
 26.2714
 26.2342
 26.2598
 26.2936
 25.1842
 25.2721
 25.2012
 25.2238
 26.7631
 26.6879
 26.6862
 26.6352
 26.7905
 26.7154
 26.7548
 25.3026
 25.2471
 25.1815
 25.1661
 26.7056
 26.6604
 26.6768
 26.6325
 24.9929
 25.0215
 24.9746
 25.0033
 25.2167
 25.2542
 25.238
 25.2607
 26.3635
 26.3336
 26.3907
 26.3572
 25.5169
 25.4986
 25.5392
 25.594
 26.6647
 26.6291
 26.5781
 26.5613
 25.4075
 25.4371
 25.4179
 26.9193
 26.8831
 26.9291
 26.8908
 25.8243
 25.8393
 25.8097
 25.7842
 26.4048
 26.3865
 25.4367
 25.3607
 25.3951
 25.4268
 25.3797
 25.3889
 25.4242
 26.2465
 26.1712
 26.241
 25.2982
 25.3086
 25.2848
 25.2268
 27.3886
 27.3475
 27.3033
 27.3342
 26.6574
 26.6362
 26.5807
 26.5745
 25.7511
 25.8286
 25.8192
 25.7433
 24.9745
 24.9712
 25.0108
 24.9759
 25.1562
 25.1023
 25.0888
 25.1509
 24.868
 24.859
 24.8522
 25.0272
 25.013
 26.4868
 26.4427
 26.4879
 26.4307
 26.8176
 26.7878
 26.8863
 26.8346
 26.5851
 26.5805
 26.4807
 26.4212
 26.4683
 26.465
 26.29
 26.2831
 26.2161
 26.2819
 26.8601
 26.8589
 26.9057
 25.9401
 25.9792
 25.9653
 25.9954
 24.3489
 24.371
 24.4317
 26.5065
 26.5158
 26.4935
 26.4424
 25.1331
 25.2068
 25.1585
 25.139
 25.5533
 25.4779
 25.4964
 26.0291
 26.0646
 25.9957
 25.5686
 25.5012
 25.5833
 25.1813
 25.2452
 25.6019
 25.591
 25.5907
 26.6364
 26.6174
 26.6006
 26.6702
 24.9444
 24.9027
 24.9486
 24.9691
 25.8127
 25.738
 25.7911
 27.6401
 27.7004
 27.7217
 27.6427
 26.9359
 26.9764
 25.8805
 26.4691
 26.3959
 26.4435
 26.4652
 26.0502
 25.9923
 25.9966
 25.4803
 25.456
 25.5057
 25.4795
 24.9764
 24.9371
 26.1226
 26.15
 26.1459
 26.1829
 26.9845
 27.0222
 27.0319
 26.943
 25.1591
 25.1166
 25.1329
 25.1578
 25.708
 25.6834
 25.7167
 28.0513
 28.0705
 28.1455
 28.1537
 26.8813
 26.897
 26.9542
 26.5537
 26.5154
 26.5907
 26.5443
 25.8103
 25.8057
 25.8445
 25.7673
 26.0736
 26.023
 27.1002
 27.0789
 27.0845
 27.0843
 25.675
 25.6089
 26.6128
 26.6797
 26.6207
 26.6085
 26.3089
 26.2839
 26.3581
 26.3059
 26.0966
 26.041
 26.0038
 26.0567
 26.5447
 26.5767
 26.6437
 25.5454
 25.635
 25.5499
 25.6094
 25.2599
 25.2112
 25.1601
 25.2585
 25.3112
 25.3191
 25.32
 25.2503
 26.9846
 27.0584
 26.994
 27.0431
 26.0911
 26.1298
 27.7701
 27.8667
 27.805
 27.8876
 26.3811
 26.4476
 26.4686
 24.6866
 28.3845
 28.3686
 28.3796
 28.4945
 26.097
 26.057
 26.0926
 26.0842
 26.4836
 26.4269
 26.4543
 25.268
 25.2238
 25.2045
 25.2792
 25.2774
 25.299
 25.2372
 25.2445
 25.2857
 25.2625
 25.3125
 25.335
 26.6233
 26.5703
 26.6542
 26.5723
 26.832
 26.8663
 26.8769
 26.8855
 25.6981
 25.7031
 25.6324
 25.7068
 26.3202
 26.4044
 26.3036
 26.3574
 24.4452
 24.9303
 24.8946
 25.8139
 25.8201
 26.2321
 26.2762
 26.2674
 24.9035
 24.812
 24.8719
 24.8852
 26.1316
 26.1597
 25.8855
 25.9327
 27.4903
 27.4349
 27.5097
 27.4524
 26.6241
 26.6461
 26.692
 26.661
 25.6915
 25.6203
 25.6851
 25.6311
 27.3302
 27.4073
 27.3533
 27.3238
 24.5221
 24.5606
 24.489
 24.5538
 24.9826
 25.0639
 24.8723
 24.9109
 24.9581
 24.87
 25.2786
 25.2314
 26.4013
 26.3617
 26.3986
 28.174
 28.1105
 28.1955
 28.2027
 27.2629
 27.2221
 27.2166
 27.2704
 24.959
 24.9058
 24.9583
 24.9927
 25.4692
 25.3771
 25.4204
 25.9804
 26.0341
 26.0777
 26.0024
 26.5643
 26.4926
 26.5396
 26.5648
 25.0598
 25.0072
 25.0576
 24.9353
 26.0194
 25.9479
 26.5676
 26.5424
 25.614
 25.5573
 25.6424
 25.6205
 26.8211
 26.8954
 26.7983
 26.9111
 26.9406
 27.0159
 26.9793
 28.1238
 27.9979
 28.0034
 28.0657
 26.5309
 26.497
 26.5064
 26.4517
 25.1498
 25.1351
 25.2481
 25.1881
 25.2301
 25.1884
 26.6582
 26.6617
 26.6056
 26.7019
 25.3975
 25.4331
 25.3773
 25.6069
 25.6166
 25.5851
 25.6367
 25.2073
 25.1406
 25.2069
 25.1394
 26.5761
 26.521
 26.5394
 26.5641
 24.8073
 24.9053
 26.27
 27.6621
 27.6471
 27.5926
 27.5772
 25.3826
 25.4031
 25.3528
 27.3462
 27.3836
 27.3285
 27.4142
 25.5361
 25.5413
 25.5332
 25.4792
 27.0183
 27.0215
 27.0938
 26.994
 26.7844
 26.7914
 26.7349
 26.7207
 25.6547
 25.6081
 25.5993
 26.4413
 26.4119
 26.4566
 26.4888
 25.8015
 25.8069
 25.7705
 25.8565
 25.8327
 25.9004
 25.1643
 25.1446
 25.1552
 25.5845
 25.572
 25.6041
 27.7823
 27.7801
 27.7199
 27.7682
 26.911
 26.8407
 26.9361
 26.8208
 25.0446
 25.1263
 25.1339
 25.1403
 25.3274
 25.3534
 26.7355
 26.6292
 26.7354
 25.5817
 25.6579
 25.6511
 25.6933
 25.6345
 25.656
 25.6782
 26.6227
 26.6534
 26.6168
 26.6024
 24.8266
 24.8339
 26.4302
 26.4522
 26.4281
 26.4015
 26.7143
 26.7097
 26.6898
 25.5737
 25.5561
 26.1016
 26.1187
 26.1321
 26.0584
 27.0146
 27.0415
 25.716
 25.752
 26.401
 26.473
 26.4556
 26.4219
 25.9416
 25.9372
 25.9882
 25.9043
 25.9467
 25.9855
 25.9553
 27.1382
 27.121
 27.156
 27.0459
 27.2967
 27.3012
 27.2523
 27.2856
 25.5257
 25.5587
 25.6072
 25.5725
 25.0089
 25.004
 25.0433
 25.0424
 25.8466
 25.816
 25.8725
 26.0642
 26.1031
 26.1271
 26.0882
 26.0431
 25.3263
 25.3105
 26.5203
 26.4618
 26.5174
 26.5331
 26.7639
 25.0114
 25.0276
 25.0719
 25.0449
 26.062
 26.1542
 26.1321
 26.0822
 27.9937
 27.9525
 26.2372
 26.3103
 26.2362
 27.7459
 27.7293
 27.7681
 27.7054
 25.7711
 25.8126
 25.778
 25.8037
 27.0298
 26.9552
 26.9451
 26.6294
 26.5716
 24.773
 24.7772
 24.78
 24.9024
 24.8968
 24.928
 26.8676
 26.7847
 26.6829
 26.6919
 27.8769
 27.915
 27.9285
 27.9611
 25.0032
 25.093
 24.9926
 26.8007
 26.7906
 26.7551
 26.8401
 26.7063
 26.7339
 26.6587
 26.7324
 25.5649
 25.536
 25.5174
 25.5496
 25.7937
 25.6643
 25.7314
 25.5662
 25.5615
 25.6225
 25.5622
 25.352
 25.4202
 25.2988
 25.445
 27.075
 27.0684
 26.891
 26.8892
 26.8484
 25.8317
 25.8621
 25.9142
 25.8928
 26.7409
 26.746
 26.6794
 26.7041
 25.4969
 25.5374
 25.526
 25.4953
 27.0379
 26.9494
 25.0701
 25.1086
 25.0818
 25.1367
 25.475
 25.5706
 25.5277
 25.4602
 26.5406
 26.5335
 26.5553
 26.4995
 25.1954
 25.1256
 26.2646
 26.2513
 26.2293
 26.2179
 27.4224
 27.4021
 27.4161
 27.4064
 27.0429
 27.0072
 27.0417
 26.9897
 24.7601
 24.7316
 24.6976
 24.7118
 24.9815
 25.0088
 25.0324
 26.575
 26.5851
 26.5936
 24.7882
 24.7447
 26.2448
 26.2077
 26.2449
 26.1574
 25.1374
 25.18
 25.1307
 25.1825
 26.7421
 26.7753
 26.7293
 26.7772
 27.1416
 27.0782
 27.1288
 25.2579
 25.1906
 25.1942
 25.2274
 26.3465
 26.2632
 26.2776
 26.3034
 26.8432
 26.8202
 26.7766
 26.8812
 27.0063
 27.1229
 26.9967
 25.8154
 25.8889
 25.7918
 26.0112
 25.9997
 26.0455
 25.9771
 25.8643
 25.8697
 25.807
 25.8801
 26.4245
 26.3589
 26.418
 26.3678
 26.6528
 26.6379
 26.6062
 26.6801
 26.897
 26.9614
 25.6343
 25.5534
 25.636
 25.6339
 25.9564
 26.0367
 25.9729
 26.01
 25.9337
 26.0162
 26.0296
 26.0821
 25.9792
 26.0033
 27.7121
 27.676
 27.6344
 27.6655
 24.9787
 24.902
 24.9606
 26.3631
 26.3696
 26.3715
 26.4272
 26.124
 26.1708
 26.1253
 26.9643
 26.9164
 26.9918
 26.97
 26.7856
 26.8453
 26.8049
 26.8212
 26.3589
 26.3427
 26.2987
 26.7155
 26.7477
 25.455
 25.489
 25.406
 24.6831
 24.6607
 24.7228
 24.6899
 26.8043
 26.8535
 26.861
 26.764
 26.1407
 26.0896
 26.0758
 26.1415
 25.3278
 25.3147
 25.3642
 25.3687
 26.7319
 26.7109
 26.7588
 26.6691
 26.5823
 26.5503
 26.5317
 26.4816
 25.238
 25.2905
 25.3553
 25.3446
 26.6026
 26.5321
 25.0654
 25.0868
 25.0335
 25.8888
 25.9362
 27.2061
 27.2491
 27.2443
 27.2751
 26.3441
 26.3183
 26.3012
 26.3144
 27.2748
 27.3143
 27.2791
 26.1775
 26.1884
 25.7552
 25.7203
 25.6529
 25.7505
 26.3279
 26.3223
 25.6237
 25.571
 26.3931
 26.429
 26.3987
 26.3789
 25.6407
 25.6928
 25.6267
 25.6056
 25.3917
 25.3273
 25.2732
 25.3157
 24.8073
 24.7956
 24.8283
 24.8237
 26.1197
 26.0877
 26.7795
 26.7771
 26.8769
 26.903
 25.3367
 25.3995
 26.9266
 26.8675
 26.9005
 27.5746
 27.5608
 27.4669
 27.5083
 27.6795
 27.6386
 27.6659
 26.0398
 25.9696
 25.9743
 25.9853
 26.3827
 26.3312
 26.3735
 26.8428
 26.5622
 26.5121
 26.5875
 26.5212
 26.8536
 26.8128
 26.8953
 26.8329
 26.4179
 26.4664
 26.4075
 26.4645
 25.5871
 25.6946
 25.6937
 25.6039
 24.8176
 24.8433
 24.8463
 24.7853
 26.2497
 26.268
 26.1857
 26.2079
 25.2374
 25.2675
 25.1678
 25.1876
 26.5639
 25.5451
 25.6265
 25.5894
 25.6048
 27.2095
 27.255
 27.2134
 27.2163
 25.5224
 25.4656
 25.4606
 26.4715
 25.0041
 24.9951
 25.0315
 24.9453
 24.88
 24.8704
 24.8671
 24.8918
 24.9691
 24.9126
 24.8915
 26.0512
 26.0614
 26.0485
 26.1191
 24.9461
 24.9349
 24.9091
 24.908
 26.8363
 26.8734
 26.8899
 26.8944
 25.6759
 25.7001
 25.6952
 25.7553
 26.2543
 26.1812
 26.1939
 26.247
 27.4298
 27.3753
 27.4328
 25.7563
 26.1602
 26.1754
 26.201
 26.1321
 24.915
 24.8667
 24.8659
 24.8502
 24.8969
 24.8511
 24.8015
 24.824
 25.6813
 25.7001
 25.6618
 25.7075
 26.5408
 26.5847
 26.6074
 26.5841
 26.3112
 26.2453
 26.2914
 24.9609
 24.9333
 24.9691
 25.0289
 24.868
 24.8321
 24.8479
 24.8837
 26.8642
 26.8972
 26.8942
 25.2963
 25.2425
 24.927
 24.9468
 24.9384
 26.8332
 26.8714
 26.8011
 26.7973
 25.461
 25.3803
 25.4852
 25.4941
 26.3446
 25.8732
 25.8579
 25.8249
 25.873
 25.7131
 25.7645
 25.7045
 25.7995
 24.8821
 24.851
 25.149
 25.0766
 25.1252
 25.0714
 25.1682
 25.0827
 25.1184
 25.0572
 25.2321
 25.294
 25.2116
 25.2865
 25.451
 25.4065
 25.4396
 25.4113
 27.3137
 27.231
 24.9531
 24.9284
 24.8891
 27.0822
 27.0992
 27.0815
 26.6609
 26.7475
 26.7631
 26.686
 25.4174
 25.4534
 25.4094
 25.3533
 26.226
 26.2843
 26.2588
 26.2518
 24.629
 24.6848
 24.6241
 24.5797
 25.8845
 25.8992
 25.8594
 25.8757
 25.2085
 25.1638
 25.2149
 25.5997
 25.6017
 25.9214
 26.0128
 25.9422
 25.9391
 25.9909
 26.0857
 25.9974
 26.0563
 26.9024
 26.8614
 26.855
 25.6828
 25.6276
 25.6564
 25.6046
 26.419
 26.3907
 26.345
 25.0574
 25.0709
 24.9957
 25.0861
 24.8732
 25.8138
 25.8942
 25.9029
 25.8466
 25.6173
 25.5756
 25.571
 25.5898
 25.7187
 25.7549
 25.776
 28.243
 28.3078
 28.2327
 28.2311
 26.6833
 26.636
 27.0064
 27.0644
 26.1758
 26.2709
 26.2528
 26.2063
 28.6025
 28.5739
 24.6731
 24.6519
 24.633
 24.5828
 25.4519
 25.3362
 26.9095
 26.9219
 26.8795
 26.8832
 26.1618
 26.1544
 26.1108
 26.1316
 25.1662
 25.1046
 25.1317
 25.198
 26.6038
 26.6256
 26.5762
 26.5979
 26.2239
 26.2614
 26.1948
 26.2269
 25.1082
 25.0715
 25.0716
 25.0147
 26.2449
 26.2236
 26.2139
 26.3055
 24.8421
 24.899
 24.8821
 24.9051
 25.6766
 25.6301
 25.6426
 26.6932
 26.69
 26.7738
 26.7012
 25.779
 25.8355
 25.8002
 25.8387
 25.9478
 25.9937
 26.453
 26.3611
 26.3499
 25.653
 25.6663
 25.5967
 25.5856
 24.7851
 24.7893
 24.7272
 24.7255
 25.0089
 24.9632
 24.9265
 25.0192
 26.7727
 26.7798
 26.8338
 26.8142
 27.0635
 27.0674
 27.087
 27.0782
 26.912
 26.992
 26.9246
 26.9653
 27.1213
 27.109
 27.1386
 26.0313
 26.0427
 26.0283
 26.114
 25.295
 25.2647
 25.4799
 25.4041
 25.4531
 25.4534
 25.3286
 25.2868
 25.3591
 26.722
 26.7749
 26.7543
 26.7951
 26.0517
 26.0415
 26.0024
 26.0135
 24.6341
 24.628
 24.6111
 24.5719
 25.8949
 25.9277
 25.9591
 25.8934
 25.8147
 25.885
 25.8067
 25.864
 24.9917
 24.9547
 25.008
 25.0097
 26.9507
 27.0366
 27.0122
 26.9779
 25.4702
 25.4882
 26.9786
 27.0277
 25.206
 25.2625
 25.2064
 25.1572
 25.9502
 25.9623
 25.9398
 26.0138
 27.2179
 27.148
 27.1891
 27.0289
 27.0574
 27.0766
 27.0846
 26.5399
 26.6155
 25.9431
 25.9695
 25.9266
 25.9641
 25.6179
 25.6265
 25.5819
 26.3563
 26.4073
 26.4155
 26.351
 26.3836
 26.2921
 26.3843
 26.3233
 25.3705
 25.4338
 25.4135
 25.4061
 27.123
 27.1242
 27.1029
 24.7248
 24.7088
 24.7878
 24.7753
 25.7423
 25.76
 25.7483
 26.7786
 26.7565
 26.7349
 24.8922
 24.8897
 24.9463
 24.8601
 25.238
 26.5349
 26.6023
 26.5892
 26.5662
 24.9298
 25.0306
 24.996
 24.9481
 25.7258
 25.6561
 25.6794
 24.7655
 24.757
 24.7559
 24.7584
 24.9523
 25.0003
 24.9937
 24.9293
 24.9133
 27.1892
 27.1487
 26.162
 26.1822
 26.1064
 26.1519
 27.3423
 27.3886
 27.3847
 27.3573
 26.4739
 25.7359
 25.7077
 25.8022
 25.4766
 25.4284
 25.3769
 25.4733
 26.4685
 26.4591
 26.5083
 26.5186
 26.6805
 26.6971
 25.7973
 25.7669
 25.7651
 26.5906
 26.6255
 26.5842
 26.5499
 26.6607
 26.6588
 26.6283
 26.6129
 24.9228
 24.8876
 26.4457
 26.3995
 26.4422
 26.4489
 27.1314
 27.0349
 27.1245
 27.0505
 26.7085
 26.6956
 26.5706
 26.6733
 27.1225
 27.1718
 27.128
 25.2787
 25.3354
 25.2526
 25.4978
 25.498
 24.9545
 24.9406
 24.9881
 26.9001
 26.9745
 26.9522
 26.9556
 26.8273
 26.7933
 26.7626
 28.3306
 28.2262
 28.3239
 28.3699
 25.3171
 25.4035
 25.3177
 25.2788
 26.6023
 26.5784
 26.6079
 26.5172
 25.751
 25.799
 25.7822
 25.7458
 25.3491
 25.3664
 25.4337
 25.3925
 26.8281
 26.8209
 26.7973
 26.7668
 26.1768
 26.1241
 26.1808
 25.5219
 25.5151
 25.4727
 25.7281
 25.7371
 25.7468
 25.6752
 26.2014
 26.271
 26.2719
 26.2635
 25.7227
 25.6927
 25.6697
 27.1463
 27.0321
 27.1305
 27.1176
 26.1027
 26.0974
 26.0864
 26.1463
 26.8534
 26.9112
 26.9068
 26.8928
 26.9595
 27.0468
 26.9492
 26.9683
 24.554
 24.4709
 24.5839
 26.8342
 26.8866
 26.8349
 24.5486
 25.257
 25.2458
 25.3275
 25.2997
 27.0068
 25.4859
 26.5523
 26.5588
 26.602
 26.5895
 27.1356
 27.1791
 27.2118
 27.1755
 25.6067
 26.2093
 24.7265
 24.7482
 24.739
 24.7491
 28.2289
 28.1858
 28.2112
 26.6029
 26.655
 26.6745
 27.0593
 27.1326
 24.4416
 24.4009
 24.4874
 24.4526
 26.3249
 26.4172
 26.357
 26.3429
 25.2086
 25.1452
 25.1397
 25.7015
 25.7523
 25.5919
 25.6183
 25.5231
 25.5859
 24.8878
 24.9334
 24.9451
 24.9013
 26.2014
 26.1992
 26.1115
 26.1438
 25.0186
 24.9804
 25.0406
 25.0053
 26.095
 26.0528
 25.9905
 26.0726
 25.3713
 25.3569
 25.3303
 25.4015
 25.2611
 25.3256
 25.2678
 25.1437
 26.7305
 26.8239
 26.7055
 26.6697
 26.0065
 24.8144
 24.7262
 24.7628
 24.7506
 25.8571
 25.8464
 25.9274
 25.8307
 25.766
 25.7539
 26.8694
 26.9219
 26.9279
 26.8543
 26.4751
 26.5379
 26.4771
 26.049
 26.0636
 26.0879
 26.1241
 24.5917
 24.6579
 24.6694
 24.6439
 26.6279
 26.6288
 26.6738
 26.6885
 25.5062
 25.5935
 25.5911
 25.5564
 26.0764
 26.0658
 26.1131
 26.9449
 26.8806
 26.9079
 26.899
 27.5202
 27.5011
 27.5759
 27.4746
 26.4946
 26.5399
 26.553
 25.1614
 25.1588
 25.1177
 25.8506
 25.3552
 25.4321
 25.4019
 25.4006
 26.6373
 26.6567
 26.6493
 26.6509
 25.072
 24.9684
 25.0225
 25.0392
 25.9472
 26.0344
 25.6223
 25.6627
 25.6428
 25.6105
 25.5859
 25.6077
 25.7051
 27.6342
 27.6023
 27.7002
 27.6348
 24.3895
 24.2788
 24.3168
 24.3792
 26.4454
 26.3877
 26.4161
 26.7695
 26.7228
 26.8144
 26.7051
 25.5441
 25.6287
 25.5957
 28.044
 28.11
 28.1559
 28.0797
 25.3717
 25.366
 25.2871
 25.2751
 25.3272
 25.315
 27.0416
 27.0915
 27.0637
 27.1033
 26.8743
 26.8735
 26.8505
 26.9018
 27.3856
 27.3334
 27.2934
 27.3747
 26.2133
 27.427
 27.3603
 27.3692
 27.357
 25.3627
 25.4241
 25.4385
 25.4621
 26.8586
 26.7862
 25.4599
 25.424
 25.4239
 25.4963
 25.1532
 25.1185
 25.1575
 25.1226
 24.6443
 24.6069
 24.6133
 24.5323
 28.2056
 28.2308
 28.1448
 25.7372
 25.6732
 25.6956
 25.7044
 25.2391
 25.2252
 25.2792
 25.2518
 27.6515
 27.6061
 27.5866
 27.6608
 25.7322
 25.3678
 25.3455
 25.3229
 25.3849
 24.9368
 24.9064
 24.9371
 26.2045
 26.1756
 26.1835
 26.1429
 24.7023
 24.6206
 24.5859
 24.6232
 25.8523
 25.8215
 25.8548
 25.863
 25.7793
 26.6653
 26.7468
 26.6483
 25.9073
 25.974
 25.9471
 25.8814
 25.9786
 25.9594
 25.9301
 26.0147
 26.4531
 26.5293
 26.5068
 27.0961
 27.5117
 27.4522
 27.5773
 25.6441
 25.6017
 25.6218
 25.3829
 25.3696
 25.4053
 26.742
 26.6772
 26.7086
 26.6228
 25.5043
 25.5445
 24.9862
 25.0194
 25.0388
 25.0146
 24.8378
 24.8521
 24.8557
 25.0783
 25.0341
 25.7017
 25.6519
 25.6932
 25.1581
 25.2419
 25.1902
 26.878
 28.1017
 28.1428
 28.0755
 28.0864
 25.7529
 25.7359
 25.789
 25.7718
 27.8933
 27.8699
 27.8052
 27.8996
 25.4474
 25.4393
 25.4079
 26.0591
 26.0818
 26.136
 26.1472
 26.6314
 26.5953
 26.693
 26.6555
 25.8333
 25.8184
 25.7631
 25.4405
 25.3949
 26.1679
 26.0971
 26.1431
 26.1431
 26.4378
 26.3962
 26.425
 26.8853
 26.8783
 26.8761
 25.7477
 25.7245
 25.6836
 25.7622
 25.3227
 25.2571
 25.3068
 25.2732
 24.3856
 24.4336
 24.3657
 24.4266
 25.9602
 25.971
 24.3512
 24.4071
 24.4296
 25.5995
 27.034
 26.9794
 26.9345
 26.9637
 26.6137
 26.5708
 26.6163
 26.584
 25.6059
 25.6475
 25.6205
 25.0263
 24.9788
 27.1066
 27.0828
 27.1489
 27.0641
 25.3932
 25.422
 27.0406
 27.0718
 25.8594
 25.8632
 25.8928
 27.1974
 27.2566
 27.1727
 26.6168
 26.6326
 26.6589
 26.6561
 25.0323
 25.0263
 24.9987
 25.0391
 26.3064
 26.296
 26.2939
 26.1853
 26.2703
 26.2258
 26.2102
 24.863
 24.941
 24.9378
 24.9453
 27.5235
 27.4875
 27.5486
 26.0414
 26.1051
 26.0755
 25.3078
 25.2718
 25.5309
 25.5442
 25.6085
 25.5967
 27.6371
 27.5831
 27.6106
 27.6319
 26.6738
 26.673
 26.6704
 26.6229
 25.2421
 25.2218
 25.197
 25.1904
 25.1788
 25.2078
 25.2012
 25.2386
 26.2511
 26.3173
 26.2574
 26.2724
 24.5529
 24.4589
 24.4782
 24.5543
 26.8689
 26.8158
 26.8932
 27.6939
 27.7709
 27.7588
 25.8417
 25.8057
 25.5103
 25.4934
 25.5392
 25.5155
 25.041
 25.0723
 24.9847
 24.9803
 26.387
 25.9844
 26.2794
 26.2295
 26.2001
 26.1661
 28.3249
 28.4167
 28.414
 28.3003
 25.3358
 25.3617
 26.6922
 26.6653
 26.6269
 26.4873
 26.5134
 26.4488
 26.4302
 27.0485
 27.1047
 26.427
 26.4346
 26.4735
 26.4025
 26.9208
