 -85.8936
 -85.8947
 -85.8944
 -85.895
 -85.912
 -85.9122
 -85.9126
 -85.9129
 -85.9078
 -85.9072
 -85.9079
 -85.9074
 -85.9086
 -85.9079
 -85.9078
 -85.9074
 -85.9188
 -85.9192
 -85.9185
 -85.9183
 -85.9178
 -85.9174
 -85.9182
 -85.9176
 -85.8896
 -85.889
 -85.8892
 -85.8896
 -85.8906
 -85.8908
 -85.8908
 -85.8904
 -85.9177
 -85.9175
 -85.9169
 -85.9174
 -85.9177
 -85.9177
 -85.9175
 -85.9183
 -85.8872
 -85.8867
 -85.8874
 -85.8875
 -85.9074
 -85.9075
 -85.9069
 -85.9073
 -85.8971
 -85.897
 -85.8965
 -85.8976
 -85.9132
 -85.9124
 -85.912
 -85.9126
 -85.9046
 -85.9043
 -85.9047
 -85.9053
 -85.8918
 -85.8913
 -85.8922
 -85.8913
 -85.9163
 -85.9166
 -85.9162
 -85.9167
 -85.9092
 -85.9088
 -85.9094
 -85.9089
 -85.905
 -85.9053
 -85.9054
 -85.9058
 -85.9151
 -85.9152
 -85.9155
 -85.9159
 -85.8903
 -85.8894
 -85.8903
 -85.8897
 -85.9198
 -85.9199
 -85.9204
 -85.9203
 -85.877
 -85.8765
 -85.8763
 -85.8771
 -85.9115
 -85.9118
 -85.9111
 -85.911
 -85.9037
 -85.9032
 -85.9037
 -85.9041
 -85.9063
 -85.9064
 -85.9061
 -85.9059
 -85.9007
 -85.9015
 -85.9019
 -85.9008
 -85.8914
 -85.8908
 -85.8915
 -85.8913
 -85.8968
 -85.8966
 -85.896
 -85.8965
 -85.9125
 -85.9125
 -85.9121
 -85.9117
 -85.9041
 -85.9051
 -85.9038
 -85.9043
 -85.8972
 -85.8978
 -85.8978
 -85.8972
 -85.9104
 -85.9097
 -85.9105
 -85.9099
 -85.912
 -85.9118
 -85.9117
 -85.9118
 -85.8974
 -85.8968
 -85.8976
 -85.8964
 -85.8927
 -85.8926
 -85.8925
 -85.8925
 -85.9097
 -85.9088
 -85.9096
 -85.9094
 -85.8867
 -85.8871
 -85.8872
 -85.8875
 -85.9107
 -85.9107
 -85.9118
 -85.9114
 -85.9208
 -85.9204
 -85.9207
 -85.9202
 -85.907
 -85.9069
 -85.9072
 -85.9062
 -85.912
 -85.9126
 -85.9123
 -85.9122
 -85.8884
 -85.8882
 -85.8888
 -85.8879
 -85.9094
 -85.9089
 -85.9091
 -85.9098
 -85.9176
 -85.9175
 -85.918
 -85.9178
 -85.8954
 -85.896
 -85.8957
 -85.8954
 -85.9098
 -85.9107
 -85.9105
 -85.9105
 -85.8921
 -85.8928
 -85.8921
 -85.8914
 -85.8981
 -85.8976
 -85.8974
 -85.8971
 -85.9052
 -85.9047
 -85.9045
 -85.9041
 -85.891
 -85.8907
 -85.8904
 -85.891
 -85.9057
 -85.9051
 -85.9051
 -85.9056
 -85.8989
 -85.898
 -85.8989
 -85.8977
 -85.9071
 -85.9075
 -85.9071
 -85.9075
 -85.8963
 -85.897
 -85.8966
 -85.8975
 -85.9072
 -85.907
 -85.9077
 -85.9066
 -85.9108
 -85.911
 -85.9113
 -85.9116
 -85.9118
 -85.9115
 -85.9118
 -85.9109
 -85.8954
 -85.8955
 -85.8944
 -85.8958
 -85.9003
 -85.8999
 -85.9
 -85.9009
 -85.8785
 -85.878
 -85.8775
 -85.8781
 -85.8968
 -85.8967
 -85.896
 -85.8966
 -85.9042
 -85.9051
 -85.9048
 -85.9049
 -85.8994
 -85.8992
 -85.9002
 -85.8987
 -85.8989
 -85.8998
 -85.8988
 -85.8997
 -85.8913
 -85.8908
 -85.8915
 -85.8915
 -85.9157
 -85.9163
 -85.9165
 -85.9156
 -85.9189
 -85.9191
 -85.9193
 -85.9194
 -85.9058
 -85.9066
 -85.9052
 -85.9056
 -85.8969
 -85.8968
 -85.8974
 -85.8966
 -85.9105
 -85.9108
 -85.9112
 -85.9105
 -85.8903
 -85.889
 -85.8894
 -85.8894
 -85.8901
 -85.8894
 -85.8893
 -85.8901
 -85.8774
 -85.8769
 -85.8777
 -85.8775
 -85.9075
 -85.9081
 -85.9078
 -85.9085
 -85.895
 -85.8958
 -85.896
 -85.895
 -85.8935
 -85.8929
 -85.8937
 -85.8941
 -85.9195
 -85.9199
 -85.9197
 -85.92
 -85.8926
 -85.8924
 -85.8918
 -85.8925
 -85.8938
 -85.8934
 -85.8929
 -85.8937
 -85.895
 -85.8955
 -85.895
 -85.8944
 -85.9017
 -85.9015
 -85.9022
 -85.902
 -85.8941
 -85.8949
 -85.8944
 -85.8946
 -85.8979
 -85.8984
 -85.8986
 -85.8982
 -85.9001
 -85.9
 -85.8997
 -85.8994
 -85.8923
 -85.8915
 -85.8926
 -85.8917
 -85.8753
 -85.8751
 -85.8762
 -85.8762
 -85.8908
 -85.8911
 -85.8915
 -85.8912
 -85.9078
 -85.9074
 -85.9081
 -85.9069
 -85.908
 -85.9077
 -85.9084
 -85.9078
 -85.9117
 -85.9114
 -85.9112
 -85.912
 -85.89
 -85.8899
 -85.89
 -85.8903
 -85.9201
 -85.9201
 -85.9197
 -85.9204
 -85.9113
 -85.9119
 -85.9113
 -85.9114
 -85.8873
 -85.8872
 -85.8865
 -85.8865
 -85.8983
 -85.8983
 -85.898
 -85.8993
 -85.8935
 -85.8939
 -85.8929
 -85.8933
 -85.8937
 -85.8933
 -85.8934
 -85.8904
 -85.8903
 -85.8902
 -85.89
 -85.9093
 -85.9089
 -85.9085
 -85.9096
 -85.9008
 -85.9018
 -85.9014
 -85.9008
 -85.9085
 -85.9092
 -85.9086
 -85.8968
 -85.8958
 -85.8964
 -85.896
 -85.903
 -85.9034
 -85.9032
 -85.9025
 -85.9147
 -85.9141
 -85.9141
 -85.9151
 -85.8903
 -85.8905
 -85.8915
 -85.891
 -85.8924
 -85.8919
 -85.8916
 -85.892
 -85.9077
 -85.907
 -85.9068
 -85.907
 -85.9107
 -85.9103
 -85.9114
 -85.9113
 -85.8883
 -85.8883
 -85.888
 -85.8874
 -85.8919
 -85.8921
 -85.8933
 -85.893
 -85.8997
 -85.9006
 -85.901
 -85.8998
 -85.9178
 -85.9182
 -85.9179
 -85.9181
 -85.9075
 -85.9082
 -85.9084
 -85.9081
 -85.9031
 -85.9019
 -85.903
 -85.903
 -85.8798
 -85.8788
 -85.8799
 -85.8798
 -85.9017
 -85.901
 -85.902
 -85.9024
 -85.9145
 -85.9139
 -85.9145
 -85.9135
 -85.8944
 -85.8933
 -85.895
 -85.8946
 -85.8928
 -85.8929
 -85.8922
 -85.8927
 -85.8926
 -85.8918
 -85.892
 -85.8922
 -85.8861
 -85.886
 -85.886
 -85.8863
 -85.8935
 -85.8925
 -85.8925
 -85.8925
 -85.908
 -85.9079
 -85.9081
 -85.9075
 -85.8893
 -85.8897
 -85.8899
 -85.8901
 -85.9174
 -85.9169
 -85.9172
 -85.9174
 -85.8898
 -85.8889
 -85.889
 -85.8897
 -85.9144
 -85.9135
 -85.9144
 -85.9139
 -85.9014
 -85.9007
 -85.9007
 -85.9012
 -85.8982
 -85.8989
 -85.8992
 -85.8984
 -85.8959
 -85.896
 -85.8968
 -85.8961
 -85.8945
 -85.8945
 -85.8939
 -85.8937
 -85.9197
 -85.9201
 -85.9202
 -85.9202
 -85.8952
 -85.8948
 -85.8951
 -85.8949
 -85.9208
 -85.9205
 -85.9207
 -85.9203
 -85.911
 -85.9108
 -85.9116
 -85.911
 -85.8826
 -85.8835
 -85.8833
 -85.8825
 -85.9182
 -85.9181
 -85.9185
 -85.9188
 -85.8918
 -85.8927
 -85.892
 -85.8913
 -85.8819
 -85.8814
 -85.8812
 -85.8817
 -85.9134
 -85.9133
 -85.9129
 -85.9133
 -85.919
 -85.9194
 -85.9192
 -85.9191
 -85.905
 -85.9052
 -85.9048
 -85.9047
 -85.9124
 -85.9117
 -85.9125
 -85.9118
 -85.8935
 -85.8927
 -85.8932
 -85.893
 -85.9067
 -85.9064
 -85.9067
 -85.9073
 -85.8979
 -85.8975
 -85.8982
 -85.8982
 -85.8908
 -85.8911
 -85.8907
 -85.8907
 -85.8876
 -85.8875
 -85.8874
 -85.8881
 -85.9009
 -85.9007
 -85.9014
 -85.9005
 -85.9031
 -85.9031
 -85.9029
 -85.9024
 -85.8931
 -85.8929
 -85.8935
 -85.8938
 -85.8931
 -85.8922
 -85.8931
 -85.8929
 -85.9088
 -85.909
 -85.9084
 -85.9084
 -85.918
 -85.9178
 -85.9184
 -85.9184
 -85.917
 -85.9166
 -85.9172
 -85.9173
 -85.9168
 -85.9161
 -85.9163
 -85.9165
 -85.9094
 -85.9091
 -85.9097
 -85.909
 -85.893
 -85.8921
 -85.8928
 -85.8925
 -85.8933
 -85.8938
 -85.894
 -85.8942
 -85.9029
 -85.9026
 -85.9015
 -85.9015
 -85.911
 -85.9106
 -85.9117
 -85.9113
 -85.9109
 -85.9105
 -85.9106
 -85.9112
 -85.9055
 -85.9048
 -85.9052
 -85.9053
 -85.9074
 -85.9079
 -85.9071
 -85.9073
 -85.888
 -85.8879
 -85.8882
 -85.8889
 -85.8716
 -85.871
 -85.8717
 -85.8706
 -85.8948
 -85.8947
 -85.8938
 -85.8943
 -85.8746
 -85.8757
 -85.8754
 -85.8948
 -85.8947
 -85.8951
 -85.8942
 -85.9151
 -85.9147
 -85.915
 -85.9146
 -85.9047
 -85.9051
 -85.9052
 -85.9058
 -85.9179
 -85.9176
 -85.9183
 -85.9176
 -85.8929
 -85.893
 -85.8922
 -85.8929
 -85.91
 -85.9098
 -85.9108
 -85.9106
 -85.9055
 -85.9056
 -85.9047
 -85.905
 -85.9192
 -85.9194
 -85.9196
 -85.919
 -85.9139
 -85.9137
 -85.914
 -85.9147
 -85.8948
 -85.8956
 -85.8951
 -85.8948
 -85.9098
 -85.9097
 -85.9091
 -85.9098
 -85.9148
 -85.9137
 -85.9144
 -85.9139
 -85.8817
 -85.8806
 -85.8812
 -85.8807
 -85.9043
 -85.9047
 -85.905
 -85.9051
 -85.9147
 -85.9148
 -85.9152
 -85.9147
 -85.9082
 -85.9089
 -85.9077
 -85.9092
 -85.9138
 -85.9131
 -85.9139
 -85.9138
 -85.8933
 -85.8941
 -85.8944
 -85.8944
 -85.9137
 -85.915
 -85.9137
 -85.9148
 -85.9002
 -85.9006
 -85.8993
 -85.9
 -85.902
 -85.9024
 -85.9029
 -85.9019
 -85.9136
 -85.9136
 -85.913
 -85.9139
 -85.9207
 -85.9204
 -85.9205
 -85.9207
 -85.8881
 -85.8885
 -85.8889
 -85.8891
 -85.8975
 -85.8981
 -85.8985
 -85.8977
 -85.9065
 -85.9061
 -85.9057
 -85.9059
 -85.9137
 -85.9142
 -85.9141
 -85.9142
 -85.8955
 -85.8949
 -85.8951
 -85.8951
 -85.8892
 -85.8901
 -85.8905
 -85.8894
 -85.9104
 -85.9104
 -85.9096
 -85.9096
 -85.9081
 -85.9088
 -85.9081
 -85.9084
 -85.9185
 -85.9188
 -85.9192
 -85.9185
 -85.8912
 -85.8921
 -85.891
 -85.8917
 -85.9189
 -85.9194
 -85.9193
 -85.919
 -85.8969
 -85.8979
 -85.8973
 -85.897
 -85.8723
 -85.8721
 -85.8724
 -85.8727
 -85.9164
 -85.9167
 -85.917
 -85.9168
 -85.9094
 -85.9098
 -85.909
 -85.9082
 -85.9169
 -85.9169
 -85.9166
 -85.9165
 -85.9028
 -85.9019
 -85.9025
 -85.9029
 -85.901
 -85.9015
 -85.9017
 -85.9012
 -85.9128
 -85.912
 -85.9122
 -85.9122
 -85.8929
 -85.8932
 -85.8926
 -85.8931
 -85.8917
 -85.8921
 -85.8922
 -85.8919
 -85.8781
 -85.8777
 -85.8777
 -85.8775
 -85.9055
 -85.906
 -85.9063
 -85.9067
 -85.9034
 -85.9029
 -85.9041
 -85.9033
 -85.9084
 -85.9073
 -85.908
 -85.9086
 -85.8976
 -85.8986
 -85.8987
 -85.8974
 -85.918
 -85.9179
 -85.9183
 -85.9174
 -85.919
 -85.9197
 -85.919
 -85.9189
 -85.9088
 -85.9092
 -85.9099
 -85.9099
 -85.8666
 -85.8666
 -85.8668
 -85.8672
 -85.9
 -85.8995
 -85.9002
 -85.8991
 -85.9006
 -85.9004
 -85.8995
 -85.9004
 -85.9001
 -85.9002
 -85.8993
 -85.8993
 -85.913
 -85.9127
 -85.9135
 -85.9126
 -85.8806
 -85.8815
 -85.8799
 -85.8805
 -85.8765
 -85.8766
 -85.8757
 -85.8755
 -85.9131
 -85.9126
 -85.9131
 -85.9124
 -85.8962
 -85.8971
 -85.8958
 -85.897
 -85.8992
 -85.8992
 -85.8995
 -85.8995
 -85.9089
 -85.9083
 -85.9083
 -85.9075
 -85.8923
 -85.8927
 -85.893
 -85.8926
 -85.9141
 -85.9134
 -85.9136
 -85.914
 -85.8978
 -85.8964
 -85.8972
 -85.8961
 -85.8965
 -85.8964
 -85.8957
 -85.8963
 -85.8893
 -85.8887
 -85.8896
 -85.8886
 -85.8999
 -85.9009
 -85.9002
 -85.901
 -85.9151
 -85.9155
 -85.9155
 -85.915
 -85.9097
 -85.9106
 -85.9108
 -85.9101
 -85.892
 -85.8919
 -85.8926
 -85.8925
 -85.8952
 -85.8961
 -85.8961
 -85.8951
 -85.9173
 -85.9175
 -85.9178
 -85.9177
 -85.9138
 -85.9133
 -85.9137
 -85.9134
 -85.9007
 -85.9004
 -85.8999
 -85.9004
 -85.8898
 -85.8899
 -85.8899
 -85.8901
 -85.884
 -85.8853
 -85.8851
 -85.8841
 -85.909
 -85.9082
 -85.9078
 -85.9086
 -85.8898
 -85.889
 -85.8897
 -85.888
 -85.9157
 -85.9151
 -85.915
 -85.9157
 -85.9068
 -85.9078
 -85.9072
 -85.9065
 -85.9152
 -85.915
 -85.9148
 -85.915
 -85.9106
 -85.9098
 -85.9098
 -85.9102
 -85.9005
 -85.9001
 -85.9005
 -85.901
 -85.8935
 -85.8923
 -85.8926
 -85.8931
 -85.8852
 -85.8865
 -85.8854
 -85.8855
 -85.8882
 -85.887
 -85.8883
 -85.888
 -85.893
 -85.892
 -85.8919
 -85.8922
 -85.9021
 -85.9023
 -85.9022
 -85.901
 -85.9023
 -85.9025
 -85.9027
 -85.9019
 -85.9032
 -85.9024
 -85.9038
 -85.903
 -85.9093
 -85.9088
 -85.9095
 -85.9094
 -85.8806
 -85.8797
 -85.8799
 -85.8798
 -85.9053
 -85.9055
 -85.9051
 -85.9058
 -85.8918
 -85.891
 -85.8913
 -85.8916
 -85.8991
 -85.9001
 -85.8994
 -85.9
 -85.9186
 -85.9178
 -85.9185
 -85.9183
 -85.9016
 -85.9012
 -85.9012
 -85.9008
 -85.8901
 -85.8898
 -85.89
 -85.8891
 -85.8987
 -85.8986
 -85.8992
 -85.8996
 -85.8937
 -85.8942
 -85.8941
 -85.8935
 -85.9007
 -85.8998
 -85.9009
 -85.9002
 -85.8812
 -85.8805
 -85.8808
 -85.8814
 -85.8995
 -85.8996
 -85.9003
 -85.9003
 -85.9096
 -85.9093
 -85.9098
 -85.9094
 -85.9073
 -85.9073
 -85.9077
 -85.9074
 -85.9171
 -85.9162
 -85.917
 -85.9165
 -85.8953
 -85.8952
 -85.8959
 -85.8954
 -85.8932
 -85.8938
 -85.8932
 -85.8946
 -85.9166
 -85.9158
 -85.9166
 -85.9165
 -85.8939
 -85.8938
 -85.8947
 -85.8939
 -85.9152
 -85.9149
 -85.9155
 -85.9149
 -85.9044
 -85.9055
 -85.9048
 -85.9052
 -85.9022
 -85.9011
 -85.9022
 -85.9024
 -85.8934
 -85.8941
 -85.8939
 -85.8933
 -85.9012
 -85.9011
 -85.9019
 -85.901
 -85.9154
 -85.9151
 -85.9155
 -85.9155
 -85.8719
 -85.872
 -85.8723
 -85.8713
 -85.8895
 -85.8894
 -85.8894
 -85.8896
 -85.8895
 -85.8896
 -85.8895
 -85.889
 -85.8963
 -85.8966
 -85.8959
 -85.897
 -85.8991
 -85.8985
 -85.899
 -85.8987
 -85.8955
 -85.8951
 -85.8948
 -85.8957
 -85.9187
 -85.9184
 -85.9192
 -85.9182
 -85.893
 -85.8925
 -85.8926
 -85.8935
 -85.9084
 -85.9085
 -85.9089
 -85.9081
 -85.9022
 -85.9135
 -85.9128
 -85.913
 -85.913
 -85.9071
 -85.9076
 -85.908
 -85.9077
 -85.8876
 -85.8881
 -85.8884
 -85.8879
 -85.8971
 -85.8967
 -85.8973
 -85.8978
 -85.8943
 -85.8934
 -85.894
 -85.8942
 -85.9147
 -85.9141
 -85.9141
 -85.9142
 -85.8999
 -85.8987
 -85.8996
 -85.8992
 -85.9155
 -85.9157
 -85.915
 -85.9149
 -85.9102
 -85.9107
 -85.91
 -85.9109
 -85.8881
 -85.8885
 -85.8882
 -85.889
 -85.8927
 -85.8918
 -85.8933
 -85.8927
 -85.9096
 -85.9101
 -85.9101
 -85.9097
 -85.9012
 -85.9002
 -85.9011
 -85.8898
 -85.8893
 -85.8895
 -85.8901
 -85.9087
 -85.9075
 -85.9083
 -85.9076
 -85.8944
 -85.8935
 -85.8935
 -85.8941
 -85.9015
 -85.9003
 -85.9009
 -85.9015
 -85.9167
 -85.9167
 -85.9159
 -85.9166
 -85.8961
 -85.8957
 -85.8954
 -85.896
 -85.9137
 -85.9129
 -85.9136
 -85.9138
 -85.903
 -85.9026
 -85.9031
 -85.9022
 -85.9118
 -85.9115
 -85.9109
 -85.9113
 -85.9162
 -85.9162
 -85.9168
 -85.9164
 -85.8965
 -85.8964
 -85.897
 -85.8969
 -85.8718
 -85.8731
 -85.8728
 -85.8735
 -85.919
 -85.9186
 -85.9186
 -85.9185
 -85.9081
 -85.9079
 -85.9074
 -85.9078
 -85.891
 -85.891
 -85.8923
 -85.8913
 -85.8987
 -85.8992
 -85.8994
 -85.8986
 -85.8824
 -85.8827
 -85.8827
 -85.8819
 -85.9157
 -85.916
 -85.9167
 -85.916
 -85.8903
 -85.89
 -85.8902
 -85.8903
 -85.9049
 -85.9056
 -85.9045
 -85.9051
 -85.8921
 -85.8906
 -85.8917
 -85.8918
 -85.9198
 -85.9197
 -85.9198
 -85.9191
 -85.9196
 -85.9195
 -85.9192
 -85.9189
 -85.9102
 -85.9095
 -85.9093
 -85.9103
 -85.9056
 -85.906
 -85.9056
 -85.9051
 -85.9059
 -85.8899
 -85.8901
 -85.8891
 -85.8898
 -85.8917
 -85.8914
 -85.8912
 -85.8921
 -85.9088
 -85.9095
 -85.9095
 -85.9095
 -85.8912
 -85.8917
 -85.8917
 -85.8911
 -85.8935
 -85.8933
 -85.8932
 -85.894
 -85.9099
 -85.9102
 -85.91
 -85.9093
 -85.8971
 -85.898
 -85.8971
 -85.898
 -85.9093
 -85.9094
 -85.9095
 -85.9101
 -85.8942
 -85.8941
 -85.8934
 -85.8942
 -85.8965
 -85.8971
 -85.8971
 -85.8972
 -85.9003
 -85.9009
 -85.9
 -85.9008
 -85.9054
 -85.9063
 -85.9057
 -85.9065
 -85.9126
 -85.9122
 -85.9132
 -85.9132
 -85.9043
 -85.904
 -85.9036
 -85.9037
 -85.9044
 -85.9046
 -85.905
 -85.9047
 -85.8879
 -85.8879
 -85.8883
 -85.8886
 -85.9083
 -85.9085
 -85.9087
 -85.9085
 -85.9024
 -85.9026
 -85.9029
 -85.9023
 -85.9038
 -85.9038
 -85.9033
 -85.9037
 -85.8977
 -85.8979
 -85.897
 -85.8975
 -85.8898
 -85.8897
 -85.8902
 -85.8892
 -85.9117
 -85.9116
 -85.9121
 -85.9121
 -85.8901
 -85.8895
 -85.8898
 -85.8906
 -85.919
 -85.919
 -85.9195
 -85.9192
 -85.914
 -85.9135
 -85.9144
 -85.9141
 -85.9144
 -85.9144
 -85.9144
 -85.9142
 -85.9139
 -85.9138
 -85.9137
 -85.9143
 -85.9102
 -85.9105
 -85.9098
 -85.9106
 -85.8838
 -85.8833
 -85.8823
 -85.9042
 -85.9032
 -85.9041
 -85.9038
 -85.9132
 -85.9129
 -85.9127
 -85.9132
 -85.8973
 -85.8965
 -85.897
 -85.8972
 -85.8943
 -85.8945
 -85.894
 -85.8946
 -85.9108
 -85.9109
 -85.9115
 -85.9102
 -85.9
 -85.8998
 -85.9002
 -85.9008
 -85.8951
 -85.8951
 -85.8949
 -85.8947
 -85.9183
 -85.9188
 -85.9074
 -85.9072
 -85.9066
 -85.9066
 -85.9006
 -85.9005
 -85.9
 -85.9054
 -85.9056
 -85.9053
 -85.9048
 -85.8852
 -85.885
 -85.8859
 -85.8858
 -85.9137
 -85.9143
 -85.9142
 -85.9136
 -85.9052
 -85.905
 -85.9046
 -85.9047
 -85.8972
 -85.8965
 -85.8969
 -85.8975
 -85.9035
 -85.9026
 -85.9029
 -85.9032
 -85.8908
 -85.8905
 -85.8909
 -85.8907
 -85.8885
 -85.8897
 -85.8888
 -85.8891
 -85.8997
 -85.9003
 -85.9005
 -85.9001
 -85.8904
 -85.8903
 -85.8903
 -85.891
 -85.9007
 -85.9002
 -85.9004
 -85.9001
 -85.9145
 -85.9144
 -85.9137
 -85.9136
 -85.8916
 -85.8919
 -85.8923
 -85.8919
 -85.8781
 -85.879
 -85.8782
 -85.8788
 -85.9064
 -85.9052
 -85.9061
 -85.9061
 -85.8988
 -85.8994
 -85.8987
 -85.8994
 -85.8908
 -85.8906
 -85.8913
 -85.8911
 -85.9009
 -85.9004
 -85.9012
 -85.9012
 -85.9172
 -85.917
 -85.9174
 -85.9172
 -85.8937
 -85.8936
 -85.8932
 -85.8936
 -85.907
 -85.9063
 -85.9063
 -85.9061
 -85.8985
 -85.8993
 -85.8987
 -85.8998
 -85.9101
 -85.9104
 -85.9103
 -85.9109
 -85.9146
 -85.9145
 -85.9148
 -85.9143
 -85.8912
 -85.8918
 -85.8914
 -85.8925
 -85.8959
 -85.8964
 -85.8963
 -85.8961
 -85.9053
 -85.9052
 -85.9043
 -85.9048
 -85.8905
 -85.8907
 -85.8906
 -85.8909
 -85.8725
 -85.8718
 -85.8719
 -85.8723
 -85.9033
 -85.9026
 -85.9026
 -85.9024
 -85.8707
 -85.8705
 -85.8708
 -85.8714
 -85.8721
 -85.8731
 -85.873
 -85.8725
 -85.8854
 -85.886
 -85.8858
 -85.8851
 -85.9082
 -85.9077
 -85.9072
 -85.9069
 -85.9079
 -85.9084
 -85.9085
 -85.9089
 -85.909
 -85.9085
 -85.9089
 -85.9081
 -85.9067
 -85.9059
 -85.9062
 -85.9069
 -85.8822
 -85.8816
 -85.8821
 -85.8819
 -85.8919
 -85.8916
 -85.8923
 -85.892
 -85.8909
 -85.89
 -85.8903
 -85.8902
 -85.8972
 -85.8981
 -85.8973
 -85.8982
 -85.9041
 -85.9037
 -85.9042
 -85.9038
 -85.9102
 -85.91
 -85.9097
 -85.9102
 -85.8926
 -85.8936
 -85.8939
 -85.893
 -85.9083
 -85.9014
 -85.902
 -85.9021
 -85.9017
 -85.9194
 -85.9195
 -85.9201
 -85.9197
 -85.8998
 -85.8999
 -85.9004
 -85.8998
 -85.9158
 -85.9165
 -85.916
 -85.8915
 -85.8918
 -85.8921
 -85.8913
 -85.8748
 -85.8756
 -85.8753
 -85.8757
 -85.9013
 -85.9013
 -85.9023
 -85.9009
 -85.8976
 -85.8965
 -85.8967
 -85.8966
 -85.8906
 -85.891
 -85.8915
 -85.8918
 -85.8916
 -85.8919
 -85.8912
 -85.892
 -85.8845
 -85.8836
 -85.8842
 -85.8842
 -85.9055
 -85.9053
 -85.9057
 -85.9067
 -85.9014
 -85.9023
 -85.9012
 -85.9019
 -85.8956
 -85.8949
 -85.8957
 -85.8953
 -85.8998
 -85.8994
 -85.9007
 -85.9108
 -85.9104
 -85.9103
 -85.893
 -85.893
 -85.892
 -85.8918
 -85.8861
 -85.8859
 -85.8859
 -85.886
 -85.8943
 -85.8949
 -85.8948
 -85.8942
 -85.886
 -85.8852
 -85.8862
 -85.885
 -85.9123
 -85.9131
 -85.9125
 -85.9128
 -85.9101
 -85.9104
 -85.9106
 -85.911
 -85.8906
 -85.8904
 -85.8905
 -85.8904
 -85.8831
 -85.882
 -85.8828
 -85.8831
 -85.9034
 -85.9024
 -85.9033
 -85.9029
 -85.9179
 -85.9173
 -85.918
 -85.9174
 -85.8856
 -85.8855
 -85.8851
 -85.8856
 -85.9078
 -85.9072
 -85.907
 -85.908
 -85.8777
 -85.8772
 -85.8778
 -85.8774
 -85.9101
 -85.9103
 -85.9099
 -85.9109
 -85.8978
 -85.8972
 -85.8982
 -85.8969
 -85.9124
 -85.9125
 -85.913
 -85.913
 -85.8913
 -85.8915
 -85.8916
 -85.8922
 -85.8964
 -85.8957
 -85.8958
 -85.8958
 -85.8928
 -85.8925
 -85.8934
 -85.8933
 -85.8944
 -85.894
 -85.895
 -85.8936
 -85.9033
 -85.9038
 -85.9037
 -85.903
 -85.8995
 -85.8989
 -85.8997
 -85.8997
 -85.913
 -85.9124
 -85.912
 -85.9121
 -85.9188
 -85.9192
 -85.9184
 -85.9184
 -85.8984
 -85.8983
 -85.8977
 -85.8982
 -85.9143
 -85.914
 -85.9139
 -85.9147
 -85.9093
 -85.9102
 -85.9106
 -85.91
 -85.8811
 -85.8807
 -85.8799
 -85.8811
 -85.8894
 -85.8907
 -85.8904
 -85.89
 -85.8976
 -85.8971
 -85.8969
 -85.8972
 -85.8846
 -85.8841
 -85.8839
 -85.8834
 -85.9039
 -85.9047
 -85.9046
 -85.9044
 -85.9118
 -85.9131
 -85.9124
 -85.9125
 -85.8852
 -85.8864
 -85.8852
 -85.8852
 -85.9001
 -85.9007
 -85.9003
 -85.9004
 -85.8947
 -85.8947
 -85.8947
 -85.8943
 -85.8726
 -85.8732
 -85.8733
 -85.8726
 -85.8969
 -85.8968
 -85.8967
 -85.8975
 -85.9018
 -85.9024
 -85.9023
 -85.9024
 -85.9098
 -85.9105
 -85.91
 -85.9107
 -85.8941
 -85.8943
 -85.8945
 -85.9018
 -85.9016
 -85.9013
 -85.9017
 -85.8959
 -85.8958
 -85.8968
 -85.8961
 -85.9081
 -85.9074
 -85.9079
 -85.9078
 -85.9078
 -85.9086
 -85.9085
 -85.9083
 -85.9151
 -85.9146
 -85.915
 -85.9143
 -85.8922
 -85.8922
 -85.8928
 -85.8921
 -85.9174
 -85.9176
 -85.9178
 -85.9175
 -85.8935
 -85.8941
 -85.8936
 -85.8933
 -85.9014
 -85.9022
 -85.9022
 -85.9026
 -85.9028
 -85.9021
 -85.9022
 -85.9018
 -85.8715
 -85.8708
 -85.8714
 -85.8713
 -85.8952
 -85.8947
 -85.8952
 -85.8953
 -85.9007
 -85.9007
 -85.9013
 -85.9022
 -85.9002
 -85.9005
 -85.9005
 -85.8997
 -85.9191
 -85.9191
 -85.9185
 -85.919
 -85.8934
 -85.8941
 -85.8945
 -85.8937
 -85.8946
 -85.8942
 -85.8949
 -85.894
 -85.9098
 -85.9104
 -85.9099
 -85.9103
 -85.8912
 -85.891
 -85.8906
 -85.8905
 -85.8908
 -85.8907
 -85.8911
 -85.8906
 -85.9073
 -85.9063
 -85.9072
 -85.9067
 -85.9082
 -85.9081
 -85.9075
 -85.9081
 -85.9033
 -85.9033
 -85.9043
 -85.904
 -85.8941
 -85.8937
 -85.9059
 -85.9053
 -85.9063
 -85.9055
 -85.8945
 -85.8949
 -85.8945
 -85.8947
 -85.8987
 -85.8995
 -85.8998
 -85.8994
 -85.916
 -85.9157
 -85.9154
 -85.9162
 -85.8988
 -85.8991
 -85.8995
 -85.8996
 -85.911
 -85.9115
 -85.9118
 -85.9107
 -85.8924
 -85.8938
 -85.8933
 -85.8937
 -85.8975
 -85.8969
 -85.8966
 -85.8971
 -85.9006
 -85.9019
 -85.9012
 -85.9015
 -85.8921
 -85.8916
 -85.8913
 -85.8918
 -85.8784
 -85.8786
 -85.8783
 -85.8778
 -85.9181
 -85.918
 -85.9179
 -85.9181
 -85.8857
 -85.8856
 -85.8859
 -85.8854
 -85.9044
 -85.9047
 -85.904
 -85.904
 -85.8783
 -85.8783
 -85.8789
 -85.878
 -85.9056
 -85.9062
 -85.9057
 -85.9056
 -85.8936
 -85.8935
 -85.8933
 -85.8933
 -85.8937
 -85.8938
 -85.8931
 -85.8935
 -85.9028
 -85.9031
 -85.9022
 -85.9028
 -85.9131
 -85.9123
 -85.913
 -85.9122
 -85.897
 -85.898
 -85.8978
 -85.8979
 -85.8905
 -85.8902
 -85.8905
 -85.8908
 -85.9128
 -85.9137
 -85.9132
 -85.9139
 -85.893
 -85.8922
 -85.8933
 -85.8934
 -85.897
 -85.8978
 -85.8976
 -85.898
 -85.9094
 -85.9106
 -85.9104
 -85.91
 -85.9023
 -85.9031
 -85.9032
 -85.9032
 -85.8997
 -85.8992
 -85.8997
 -85.9001
 -85.9159
 -85.9164
 -85.9166
 -85.9168
 -85.9138
 -85.9141
 -85.914
 -85.9137
 -85.9045
 -85.9045
 -85.9036
 -85.9041
 -85.8997
 -85.9001
 -85.8995
 -85.9009
 -85.8953
 -85.8956
 -85.8957
 -85.8968
 -85.8897
 -85.8896
 -85.8891
 -85.9108
 -85.9113
 -85.911
 -85.9117
 -85.8776
 -85.877
 -85.8764
 -85.8764
 -85.9079
 -85.907
 -85.9074
 -85.9073
 -85.8926
 -85.8917
 -85.8922
 -85.8923
 -85.8912
 -85.8906
 -85.8908
 -85.8907
 -85.914
 -85.9133
 -85.9137
 -85.9146
 -85.9029
 -85.9024
 -85.9032
 -85.9026
 -85.8998
 -85.8996
 -85.8944
 -85.8985
 -85.8993
 -85.8984
 -85.8989
 -85.8785
 -85.8791
 -85.907
 -85.9074
 -85.9077
 -85.8877
 -85.8882
 -85.8871
 -85.8877
 -85.9072
 -85.9064
 -85.9066
 -85.9066
 -85.8969
 -85.8977
 -85.8975
 -85.8975
 -85.8941
 -85.8952
 -85.8945
 -85.8946
 -85.9159
 -85.9159
 -85.9167
 -85.9162
 -85.888
 -85.8887
 -85.8879
 -85.8887
 -85.9066
 -85.9067
 -85.9067
 -85.9072
 -85.9169
 -85.9171
 -85.9164
 -85.9165
 -85.9022
 -85.9015
 -85.9023
 -85.9017
 -85.9065
 -85.9055
 -85.9059
 -85.9058
 -85.9008
 -85.9015
 -85.901
 -85.8998
 -85.9197
 -85.9189
 -85.9194
 -85.9187
 -85.9191
 -85.9191
 -85.9188
 -85.9185
 -85.9186
 -85.9183
 -85.9182
 -85.9186
 -85.8988
 -85.8981
 -85.8987
 -85.8987
 -85.9045
 -85.9037
 -85.904
 -85.9044
 -85.8993
 -85.8992
 -85.8986
 -85.899
 -85.898
 -85.8978
 -85.8988
 -85.8978
 -85.9082
 -85.9085
 -85.9086
 -85.9079
 -85.913
 -85.9139
 -85.9136
 -85.9139
 -85.9126
 -85.9129
 -85.9122
 -85.9131
 -85.9018
 -85.9023
 -85.9017
 -85.9022
 -85.9003
 -85.9002
 -85.9
 -85.8997
 -85.8934
 -85.893
 -85.8932
 -85.894
 -85.91
 -85.9106
 -85.9105
 -85.9098
 -85.8847
 -85.8847
 -85.884
 -85.8852
 -85.9116
 -85.9121
 -85.9115
 -85.9113
 -85.9037
 -85.9049
 -85.9036
 -85.9046
 -85.9031
 -85.9035
 -85.9032
 -85.9027
 -85.8883
 -85.8882
 -85.8877
 -85.8871
 -85.8692
 -85.8697
 -85.8689
 -85.8691
 -85.8959
 -85.8966
 -85.8959
 -85.8961
 -85.9116
 -85.9107
 -85.9111
 -85.9115
 -85.8913
 -85.8907
 -85.8911
 -85.8915
 -85.9043
 -85.9046
 -85.9038
 -85.9048
 -85.9054
 -85.9061
 -85.9067
 -85.9064
 -85.9097
 -85.9101
 -85.9091
 -85.9095
 -85.8832
 -85.8826
 -85.8827
 -85.8832
 -85.8839
 -85.884
 -85.8836
 -85.8836
 -85.9115
 -85.9125
 -85.9121
 -85.9121
 -85.9085
 -85.9074
 -85.9074
 -85.9081
 -85.8957
 -85.8957
 -85.8953
 -85.8954
 -85.901
 -85.9007
 -85.9014
 -85.9018
 -85.9036
 -85.9039
 -85.9037
 -85.9035
 -85.895
 -85.8947
 -85.8957
 -85.8948
 -85.9067
 -85.9062
 -85.9063
 -85.9057
 -85.9215
 -85.921
 -85.9213
 -85.9214
 -85.9049
 -85.9057
 -85.9057
 -85.9063
 -85.9012
 -85.9015
 -85.9009
 -85.902
 -85.9012
 -85.9011
 -85.9005
 -85.9012
 -85.9037
 -85.9041
 -85.9037
 -85.9031
 -85.9177
 -85.9179
 -85.9174
 -85.9177
 -85.9131
 -85.9126
 -85.913
 -85.9062
 -85.9062
 -85.9067
 -85.9061
 -85.8904
 -85.8903
 -85.891
 -85.8903
 -85.8978
 -85.8979
 -85.8973
 -85.8981
 -85.9128
 -85.9118
 -85.9118
 -85.9119
 -85.8935
 -85.8937
 -85.8939
 -85.8942
 -85.8967
 -85.8961
 -85.896
 -85.8969
 -85.8977
 -85.8974
 -85.8964
 -85.8972
 -85.9079
 -85.9074
 -85.9073
 -85.9072
 -85.9038
 -85.9031
 -85.9039
 -85.9025
 -85.9063
 -85.9049
 -85.9054
 -85.9056
 -85.8918
 -85.892
 -85.8922
 -85.8919
 -85.8977
 -85.8982
 -85.8984
 -85.8977
 -85.9073
 -85.9067
 -85.9074
 -85.9078
 -85.8962
 -85.8965
 -85.8969
 -85.8958
 -85.9049
 -85.9055
 -85.9055
 -85.9051
 -85.8914
 -85.8912
 -85.8916
 -85.8911
 -85.917
 -85.9171
 -85.9165
 -85.917
 -85.8931
 -85.8925
 -85.8932
 -85.8935
 -85.8919
 -85.8907
 -85.8914
 -85.8914
 -85.909
 -85.909
 -85.9095
 -85.9097
 -85.8931
 -85.8933
 -85.8935
 -85.8934
 -85.9058
 -85.9055
 -85.9058
 -85.9051
 -85.8876
 -85.8877
 -85.8867
 -85.887
 -85.9031
 -85.9028
 -85.903
 -85.9036
 -85.9152
 -85.9161
 -85.9153
 -85.9158
 -85.9034
 -85.9024
 -85.9024
 -85.903
 -85.9097
 -85.91
 -85.9097
 -85.9097
 -85.9054
 -85.905
 -85.9052
 -85.9058
 -85.9049
 -85.9052
 -85.9053
 -85.906
 -85.9177
 -85.9178
 -85.918
 -85.917
 -85.8917
 -85.8914
 -85.891
 -85.891
 -85.8923
 -85.892
 -85.8913
 -85.8919
 -85.9139
 -85.9138
 -85.9135
 -85.9143
 -85.9157
 -85.9161
 -85.9156
 -85.8949
 -85.8946
 -85.8946
 -85.8951
 -85.9066
 -85.9074
 -85.9065
 -85.9065
 -85.904
 -85.9043
 -85.9035
 -85.9044
 -85.8913
 -85.8919
 -85.8907
 -85.8913
 -85.9099
 -85.9104
 -85.9102
 -85.9102
 -85.9005
 -85.8996
 -85.8998
 -85.9005
 -85.903
 -85.9022
 -85.9023
 -85.9021
 -85.9106
 -85.9111
 -85.9111
 -85.911
 -85.8896
 -85.8894
 -85.8897
 -85.89
 -85.8948
 -85.8938
 -85.8941
 -85.894
 -85.9185
 -85.9179
 -85.9184
 -85.9182
 -85.892
 -85.8919
 -85.8921
 -85.893
 -85.89
 -85.8897
 -85.8899
 -85.8899
 -85.901
 -85.9012
 -85.9009
 -85.9019
 -85.879
 -85.8792
 -85.8787
 -85.8798
 -85.9024
 -85.9025
 -85.9021
 -85.9025
 -85.9113
 -85.911
 -85.9108
 -85.9106
 -85.9134
 -85.913
 -85.9132
 -85.8881
 -85.8881
 -85.8885
 -85.8882
 -85.8933
 -85.8941
 -85.8931
 -85.8938
 -85.8915
 -85.8913
 -85.8907
 -85.8907
 -85.8944
 -85.8938
 -85.8942
 -85.8941
 -85.9188
 -85.9191
 -85.9194
 -85.9192
 -85.8891
 -85.8891
 -85.8889
 -85.8884
 -85.8931
 -85.8925
 -85.893
 -85.8939
 -85.9131
 -85.9136
 -85.9131
 -85.9129
 -85.8969
 -85.8968
 -85.8973
 -85.8938
 -85.8931
 -85.8938
 -85.9035
 -85.9032
 -85.9025
 -85.8803
 -85.8813
 -85.8815
 -85.8806
 -85.9027
 -85.9033
 -85.903
 -85.9035
 -85.9022
 -85.9027
 -85.9016
 -85.9017
 -85.9139
 -85.9144
 -85.9137
 -85.9137
 -85.9159
 -85.9158
 -85.9167
 -85.9158
 -85.8908
 -85.89
 -85.8899
 -85.8913
 -85.9041
 -85.9049
 -85.9049
 -85.9045
 -85.9038
 -85.9044
 -85.9047
 -85.9045
 -85.8999
 -85.9009
 -85.9004
 -85.9011
 -85.896
 -85.8962
 -85.8964
 -85.8953
 -85.9042
 -85.9034
 -85.904
 -85.9042
 -85.8919
 -85.8921
 -85.8918
 -85.8923
 -85.9153
 -85.915
 -85.9153
 -85.9155
 -85.8946
 -85.8944
 -85.8948
 -85.8953
 -85.9133
 -85.9126
 -85.913
 -85.913
 -85.9167
 -85.9164
 -85.9159
 -85.9165
 -85.9168
 -85.9167
 -85.9165
 -85.9164
 -85.8932
 -85.8927
 -85.9091
 -85.909
 -85.9085
 -85.9089
 -85.8915
 -85.8925
 -85.8921
 -85.8917
 -85.9108
 -85.9119
 -85.9116
 -85.9118
 -85.913
 -85.9127
 -85.9134
 -85.9127
 -85.8949
 -85.8956
 -85.8956
 -85.8953
 -85.904
 -85.9041
 -85.9046
 -85.9045
 -85.8944
 -85.8944
 -85.895
 -85.8944
 -85.8983
 -85.8983
 -85.8985
 -85.8992
 -85.8736
 -85.8748
 -85.8733
 -85.8743
 -85.9148
 -85.9145
 -85.9154
 -85.9147
 -85.8948
 -85.8942
 -85.895
 -85.8955
 -85.8881
 -85.8876
 -85.8876
 -85.8883
 -85.8995
 -85.8991
 -85.8999
 -85.9
 -85.8879
 -85.8867
 -85.8864
 -85.8879
 -85.8991
 -85.8984
 -85.898
 -85.8989
 -85.9088
 -85.9086
 -85.9093
 -85.9082
 -85.9004
 -85.8999
 -85.8999
 -85.9002
 -85.9141
 -85.915
 -85.9142
 -85.8995
 -85.9003
 -85.8995
 -85.9002
 -85.8735
 -85.8731
 -85.8731
 -85.8729
 -85.9193
 -85.9194
 -85.9196
 -85.9193
 -85.9037
 -85.9035
 -85.904
 -85.9033
 -85.9111
 -85.9107
 -85.91
 -85.9108
 -85.8907
 -85.8913
 -85.8897
 -85.8904
 -85.8957
 -85.8964
 -85.8953
 -85.896
 -85.8959
 -85.897
 -85.8963
 -85.897
 -85.9163
 -85.9159
 -85.9165
 -85.9168
 -85.897
 -85.8964
 -85.896
 -85.8962
 -85.9186
 -85.9184
 -85.9187
 -85.9181
 -85.9081
 -85.9073
 -85.9074
 -85.9083
 -85.892
 -85.8921
 -85.8924
 -85.8919
 -85.8785
 -85.8788
 -85.8795
 -85.8783
 -85.8985
 -85.8974
 -85.8981
 -85.8971
 -85.9009
 -85.901
 -85.9016
 -85.9008
 -85.9092
 -85.9092
 -85.9088
 -85.9083
 -85.8746
 -85.8736
 -85.8748
 -85.8744
 -85.8987
 -85.8982
 -85.8992
 -85.8988
 -85.9179
 -85.9175
 -85.9173
 -85.9174
 -85.9124
 -85.913
 -85.9127
 -85.9125
 -85.9121
 -85.9122
 -85.9127
 -85.912
 -85.9113
 -85.9107
 -85.9105
 -85.9108
 -85.9123
 -85.9133
 -85.9128
 -85.9127
 -85.9058
 -85.906
 -85.9058
 -85.9059
 -85.8927
 -85.8941
 -85.8948
 -85.8949
 -85.8945
 -85.9078
 -85.907
 -85.9073
 -85.9072
 -85.9076
 -85.9078
 -85.9068
 -85.907
 -85.8861
 -85.8864
 -85.8864
 -85.8861
 -85.9146
 -85.9145
 -85.9142
 -85.9146
 -85.9109
 -85.9114
 -85.9122
 -85.9117
 -85.8919
 -85.8929
 -85.8927
 -85.8928
 -85.8929
 -85.8927
 -85.894
 -85.8945
 -85.8943
 -85.8949
 -85.8922
 -85.8914
 -85.8903
 -85.8909
 -85.9075
 -85.9082
 -85.908
 -85.9074
 -85.9185
 -85.9186
 -85.9184
 -85.9186
 -85.9014
 -85.901
 -85.9014
 -85.9006
 -85.9162
 -85.9152
 -85.9148
 -85.9148
 -85.899
 -85.8989
 -85.8986
 -85.8993
 -85.9072
 -85.9067
 -85.9062
 -85.9063
 -85.8911
 -85.8909
 -85.8908
 -85.89
 -85.9043
 -85.9051
 -85.904
 -85.9046
 -85.9055
 -85.9065
 -85.9069
 -85.9057
 -85.893
 -85.8927
 -85.8922
 -85.8924
 -85.8968
 -85.8963
 -85.8977
 -85.897
 -85.8993
 -85.8992
 -85.8985
 -85.8981
 -85.9043
 -85.9047
 -85.9044
 -85.9047
 -85.8855
 -85.8857
 -85.886
 -85.8868
 -85.9059
 -85.9051
 -85.9056
 -85.9061
 -85.8969
 -85.896
 -85.897
 -85.8975
 -85.9089
 -85.9087
 -85.9089
 -85.9083
 -85.9136
 -85.9131
 -85.9136
 -85.9132
 -85.9171
 -85.9168
 -85.9166
 -85.9169
 -85.9159
 -85.9162
 -85.9153
 -85.9192
 -85.9192
 -85.9195
 -85.9196
 -85.912
 -85.9114
 -85.9107
 -85.9115
 -85.9007
 -85.9005
 -85.901
 -85.9009
 -85.9162
 -85.9158
 -85.9155
 -85.9162
 -85.9027
 -85.9029
 -85.9024
 -85.9023
 -85.9045
 -85.9049
 -85.9046
 -85.9164
 -85.9168
 -85.9165
 -85.9164
 -85.915
 -85.9145
 -85.9147
 -85.9034
 -85.9031
 -85.9038
 -85.904
 -85.8965
 -85.897
 -85.8964
 -85.8975
 -85.9083
 -85.9077
 -85.9075
 -85.9074
 -85.9166
 -85.917
 -85.9168
 -85.9165
 -85.8934
 -85.8932
 -85.8937
 -85.8929
 -85.9005
 -85.9003
 -85.8997
 -85.8997
 -85.9015
 -85.9025
 -85.9013
 -85.9016
 -85.9089
 -85.9082
 -85.9087
 -85.9088
 -85.8937
 -85.8931
 -85.8942
 -85.8933
 -85.8908
 -85.8902
 -85.8909
 -85.8906
 -85.9015
 -85.9015
 -85.9014
 -85.9022
 -85.9182
 -85.9178
 -85.9177
 -85.9179
 -85.8951
 -85.8943
 -85.8952
 -85.8948
 -85.8915
 -85.892
 -85.8912
 -85.892
 -85.9059
 -85.9048
 -85.9059
 -85.9057
 -85.8943
 -85.8945
 -85.8941
 -85.8917
 -85.8922
 -85.892
 -85.9047
 -85.9043
 -85.9054
 -85.9046
 -85.8919
 -85.8916
 -85.8912
 -85.8919
 -85.8923
 -85.8914
 -85.892
 -85.8921
 -85.906
 -85.9063
 -85.9058
 -85.892
 -85.8918
 -85.9133
 -85.9134
 -85.9144
 -85.9145
 -85.9082
 -85.9092
 -85.9093
 -85.9088
 -85.8855
 -85.8863
 -85.8849
 -85.8864
 -85.8804
 -85.8805
 -85.8797
 -85.8805
 -85.8941
 -85.8928
 -85.8936
 -85.8936
 -85.9155
 -85.9155
 -85.9158
 -85.9155
 -85.9071
 -85.9066
 -85.9062
 -85.9066
 -85.8895
 -85.8895
 -85.8894
 -85.8893
 -85.8945
 -85.8946
 -85.895
 -85.8956
 -85.8949
 -85.895
 -85.8948
 -85.893
 -85.8936
 -85.8936
 -85.8936
 -85.8936
 -85.8931
 -85.8938
 -85.894
 -85.8913
 -85.8906
 -85.8912
 -85.8906
 -85.9178
 -85.9182
 -85.9179
 -85.9179
 -85.9161
 -85.9167
 -85.9159
 -85.9014
 -85.9009
 -85.9015
 -85.9006
 -85.8938
 -85.8928
 -85.8939
 -85.8936
 -85.9194
 -85.9197
 -85.8916
 -85.8912
 -85.8913
 -85.8909
 -85.9031
 -85.9045
 -85.9036
 -85.9041
 -85.9063
 -85.9061
 -85.8919
 -85.8918
 -85.8926
 -85.8919
 -85.9167
 -85.9171
 -85.9165
 -85.9174
 -85.9187
 -85.9183
 -85.9184
 -85.9191
 -85.8995
 -85.8998
 -85.8995
 -85.8853
 -85.8859
 -85.8856
 -85.8926
 -85.8936
 -85.8925
 -85.8928
 -85.9103
 -85.9097
 -85.9108
 -85.9097
 -85.8958
 -85.8951
 -85.8951
 -85.8945
 -85.8953
 -85.8948
 -85.8955
 -85.8946
 -85.9075
 -85.9074
 -85.9078
 -85.9086
 -85.8751
 -85.8755
 -85.8748
 -85.8742
 -85.9095
 -85.9097
 -85.9103
 -85.9101
 -85.9101
 -85.91
 -85.9106
 -85.9109
 -85.8907
 -85.8908
 -85.8898
 -85.8905
 -85.915
 -85.9153
 -85.9154
 -85.9148
 -85.8735
 -85.8725
 -85.8727
 -85.872
 -85.917
 -85.9159
 -85.9159
 -85.9158
 -85.9126
 -85.9122
 -85.8946
 -85.8951
 -85.8949
 -85.8955
 -85.89
 -85.8894
 -85.8897
 -85.8903
 -85.9146
 -85.9151
 -85.915
 -85.9149
 -85.8964
 -85.8967
 -85.8966
 -85.8961
 -85.918
 -85.9176
 -85.9179
 -85.894
 -85.8933
 -85.893
 -85.8891
 -85.8899
 -85.8901
 -85.9172
 -85.9174
 -85.9172
 -85.917
 -85.8943
 -85.8939
 -85.8939
 -85.8939
 -85.9149
 -85.915
 -85.8892
 -85.8896
 -85.8891
 -85.8893
 -85.9023
 -85.903
 -85.9031
 -85.9024
 -85.8953
 -85.8948
 -85.898
 -85.8995
 -85.8993
 -85.8984
 -85.8946
 -85.8945
 -85.8946
 -85.8938
 -85.9184
 -85.919
 -85.9182
 -85.9185
 -85.8904
 -85.8901
 -85.8902
 -85.9127
 -85.874
 -85.8739
 -85.874
 -85.8736
 -85.9144
 -85.9146
 -85.9149
 -85.9138
 -85.8953
 -85.8954
 -85.8965
 -85.8963
 -85.9091
 -85.9088
 -85.9089
 -85.909
 -85.8945
 -85.894
 -85.8937
 -85.8944
 -85.9073
 -85.8861
 -85.8859
 -85.8859
 -85.8862
 -85.9072
 -85.9072
 -85.907
 -85.9063
 -85.9121
 -85.9125
 -85.9127
 -85.9116
 -85.9121
 -85.9114
 -85.9123
 -85.9147
 -85.9153
 -85.915
 -85.915
 -85.8907
 -85.8909
 -85.8917
 -85.8913
 -85.9138
 -85.9138
 -85.9137
 -85.9144
 -85.8881
 -85.888
 -85.8881
 -85.8873
 -85.9131
 -85.9135
 -85.9137
 -85.9138
 -85.901
 -85.9006
 -85.9005
 -85.9002
 -85.9089
 -85.9094
 -85.9096
 -85.9098
 -85.9034
 -85.903
 -85.9027
 -85.9025
 -85.9169
 -85.9161
 -85.9033
 -85.9026
 -85.9026
 -85.9032
 -85.8859
 -85.8857
 -85.8866
 -85.8857
 -85.8877
 -85.8873
 -85.8886
 -85.8875
 -85.9034
 -85.904
 -85.9041
 -85.9042
 -85.9101
 -85.9101
 -85.9099
 -85.9108
 -85.911
 -85.9105
 -85.9108
 -85.9113
 -85.9163
 -85.9155
 -85.9158
 -85.9153
 -85.9113
 -85.9121
 -85.9117
 -85.9112
 -85.8877
 -85.8877
 -85.8882
 -85.8872
 -85.8915
 -85.8915
 -85.8913
 -85.8925
 -85.9196
 -85.9193
 -85.9191
 -85.9192
 -85.9047
 -85.905
 -85.9049
 -85.9059
 -85.8925
 -85.8935
 -85.8925
 -85.8933
 -85.877
 -85.8768
 -85.8779
 -85.8766
 -85.9145
 -85.9148
 -85.9142
 -85.9154
 -85.8934
 -85.8935
 -85.8937
 -85.8942
 -85.8983
 -85.899
 -85.8979
 -85.8985
 -85.8879
 -85.8876
 -85.8878
 -85.8882
 -85.9069
 -85.9065
 -85.9068
 -85.9069
 -85.9162
 -85.9163
 -85.9161
 -85.9162
 -85.9054
 -85.9044
 -85.9047
 -85.9045
 -85.8995
 -85.8995
 -85.9004
 -85.9
 -85.8864
 -85.8868
 -85.8872
 -85.886
 -85.916
 -85.9081
 -85.9086
 -85.9078
 -85.9085
 -85.8981
 -85.8978
 -85.8971
 -85.8973
 -85.9098
 -85.9102
 -85.9101
 -85.9107
 -85.8925
 -85.8921
 -85.8922
 -85.893
 -85.9068
 -85.9072
 -85.9063
 -85.8857
 -85.8867
 -85.8859
 -85.8857
 -85.9128
 -85.9116
 -85.9124
 -85.912
 -85.8906
 -85.8905
 -85.891
 -85.8907
 -85.9208
 -85.9206
 -85.9207
 -85.921
 -85.8935
 -85.8936
 -85.8938
 -85.8936
 -85.8796
 -85.8814
 -85.8813
 -85.8806
 -85.8849
 -85.8848
 -85.8856
 -85.8854
 -85.9196
 -85.9193
 -85.919
 -85.9189
 -85.9173
 -85.9172
 -85.9175
 -85.9176
 -85.9014
 -85.9021
 -85.9019
 -85.9021
 -85.8942
 -85.894
 -85.8946
 -85.9035
 -85.9035
 -85.9024
 -85.9029
 -85.908
 -85.9076
 -85.9085
 -85.9085
 -85.9032
 -85.9046
 -85.9042
 -85.904
 -85.9021
 -85.9024
 -85.9035
 -85.9029
 -85.919
 -85.9185
 -85.9186
 -85.9184
 -85.8919
 -85.8917
 -85.8926
 -85.8919
 -85.8851
 -85.8837
 -85.8838
 -85.9099
 -85.9093
 -85.9096
 -85.9093
 -85.9144
 -85.9149
 -85.9145
 -85.9143
 -85.8929
 -85.8928
 -85.8932
 -85.8921
 -85.8922
 -85.8926
 -85.8916
 -85.9153
 -85.9149
 -85.9155
 -85.9146
 -85.9004
 -85.9002
 -85.9009
 -85.9003
 -85.8923
 -85.8915
 -85.8921
 -85.8921
 -85.8982
 -85.8977
 -85.8978
 -85.8983
 -85.9129
 -85.9129
 -85.9123
 -85.9128
 -85.8926
 -85.8937
 -85.8921
 -85.8934
 -85.8989
 -85.8978
 -85.8981
 -85.8985
 -85.8954
 -85.896
 -85.8955
 -85.9174
 -85.9173
 -85.9169
 -85.917
 -85.9005
 -85.9007
 -85.9001
 -85.9009
 -85.9196
 -85.9194
 -85.9201
 -85.903
 -85.9033
 -85.9032
 -85.9029
 -85.8865
 -85.8871
 -85.8861
 -85.8864
 -85.9055
 -85.9057
 -85.9062
 -85.9068
 -85.9018
 -85.9028
 -85.9015
 -85.8933
 -85.8936
 -85.8942
 -85.8937
 -85.8903
 -85.8905
 -85.8901
 -85.8906
 -85.8932
 -85.8936
 -85.8941
 -85.8931
 -85.879
 -85.8791
 -85.8801
 -85.8801
 -85.8968
 -85.8966
 -85.8963
 -85.8962
 -85.8954
 -85.8951
 -85.8962
 -85.8949
 -85.9156
 -85.9148
 -85.9149
 -85.9159
 -85.8893
 -85.8903
 -85.89
 -85.8898
 -85.9075
 -85.9071
 -85.9077
 -85.9079
 -85.9177
 -85.9178
 -85.9175
 -85.9172
 -85.918
 -85.9173
 -85.9176
 -85.9179
 -85.9123
 -85.9128
 -85.9123
 -85.9126
 -85.9184
 -85.919
 -85.919
 -85.918
 -85.9159
 -85.9161
 -85.916
 -85.9197
 -85.9188
 -85.9191
 -85.919
 -85.8879
 -85.8875
 -85.8878
 -85.8872
 -85.898
 -85.8973
 -85.8969
 -85.8974
 -85.8955
 -85.8964
 -85.8958
 -85.8965
 -85.8968
 -85.8964
 -85.8963
 -85.8962
 -85.9168
 -85.9163
 -85.9166
 -85.9168
 -85.898
 -85.8981
 -85.8974
 -85.8971
 -85.8933
 -85.8925
 -85.8925
 -85.8931
 -85.9084
 -85.9082
 -85.909
 -85.908
 -85.894
 -85.8948
 -85.8939
 -85.8944
 -85.9102
 -85.9097
 -85.9096
 -85.9033
 -85.9041
 -85.9041
 -85.915
 -85.9143
 -85.9146
 -85.9146
 -85.8982
 -85.8985
 -85.8979
 -85.8979
 -85.9069
 -85.9063
 -85.9064
 -85.907
 -85.8965
 -85.8955
 -85.896
 -85.8966
 -85.9197
 -85.9195
 -85.9179
 -85.9177
 -85.9174
 -85.9181
 -85.8869
 -85.8866
 -85.8867
 -85.8863
 -85.9072
 -85.9078
 -85.908
 -85.9084
 -85.8932
 -85.8941
 -85.8934
 -85.8928
 -85.8707
 -85.8693
 -85.8706
 -85.8701
 -85.8939
 -85.8937
 -85.8932
 -85.8936
 -85.9098
 -85.9092
 -85.9097
 -85.8895
 -85.8894
 -85.8903
 -85.8903
 -85.9175
 -85.9169
 -85.9176
 -85.9171
 -85.8941
 -85.8944
 -85.8941
 -85.8945
 -85.9068
 -85.9075
 -85.9071
 -85.9069
 -85.8868
 -85.8872
 -85.8863
 -85.8869
 -85.8765
 -85.8764
 -85.8769
 -85.8772
 -85.8927
 -85.8932
 -85.8926
 -85.8925
 -85.8973
 -85.8969
 -85.8975
 -85.9041
 -85.903
 -85.9042
 -85.9038
 -85.8908
 -85.8908
 -85.89
 -85.9103
 -85.91
 -85.9104
 -85.9109
 -85.9124
 -85.9134
 -85.9124
 -85.9133
 -85.9092
 -85.9086
 -85.9091
 -85.9092
 -85.917
 -85.9158
 -85.9162
 -85.9164
 -85.9117
 -85.9112
 -85.9115
 -85.8951
 -85.8956
 -85.8955
 -85.8958
 -85.9109
 -85.9103
 -85.9081
 -85.9074
 -85.9071
 -85.9079
 -85.9097
 -85.9095
 -85.9095
 -85.91
 -85.8928
 -85.8932
 -85.893
 -85.8923
 -85.8934
 -85.894
 -85.8934
 -85.894
 -85.8711
 -85.8716
 -85.8718
 -85.8714
 -85.8934
 -85.8939
 -85.8934
 -85.8953
 -85.8949
 -85.8948
 -85.895
 -85.9015
 -85.9015
 -85.9011
 -85.9009
 -85.8953
 -85.8961
 -85.8962
 -85.8957
 -85.887
 -85.8875
 -85.8869
 -85.8868
 -85.9125
 -85.9117
 -85.9125
 -85.9118
 -85.9011
 -85.9017
 -85.901
 -85.9006
 -85.9168
 -85.9168
 -85.9166
 -85.917
 -85.9048
 -85.9042
 -85.9048
 -85.9044
 -85.9163
 -85.9165
 -85.9163
 -85.878
 -85.8788
 -85.8785
 -85.8786
 -85.9094
 -85.9103
 -85.9095
 -85.9096
 -85.8992
 -85.8985
 -85.8993
 -85.8989
 -85.8916
 -85.8912
 -85.8962
 -85.8963
 -85.8967
 -85.8965
 -85.8988
 -85.898
 -85.8982
 -85.9153
 -85.9155
 -85.915
 -85.9154
 -85.9155
 -85.9152
 -85.9147
 -85.915
 -85.8918
 -85.8915
 -85.8919
 -85.8916
 -85.9005
 -85.9002
 -85.8941
 -85.8949
 -85.8944
 -85.8937
 -85.911
 -85.9106
 -85.9116
 -85.9116
 -85.8862
 -85.8862
 -85.8861
 -85.8864
 -85.8926
 -85.8929
 -85.8923
 -85.8922
 -85.894
 -85.8947
 -85.8951
 -85.8947
 -85.9028
 -85.9027
 -85.9028
 -85.9038
 -85.9104
 -85.9103
 -85.9099
 -85.9099
 -85.9116
 -85.911
 -85.9105
 -85.9112
 -85.8743
 -85.8741
 -85.8739
 -85.8736
 -85.8897
 -85.8904
 -85.8906
 -85.9042
 -85.903
 -85.9037
 -85.9051
 -85.9058
 -85.9051
 -85.9059
 -85.9164
 -85.9168
 -85.9165
 -85.917
 -85.9004
 -85.8936
 -85.8936
 -85.8927
 -85.893
 -85.9074
 -85.9069
 -85.9063
 -85.9067
 -85.9122
 -85.9114
 -85.9116
 -85.9123
 -85.9145
 -85.9146
 -85.8918
 -85.8915
 -85.8912
 -85.8911
 -85.9019
 -85.9024
 -85.9022
 -85.9026
 -85.8899
 -85.8896
 -85.8898
 -85.8901
 -85.9053
 -85.8971
 -85.8966
 -85.8979
 -85.8982
 -85.8957
 -85.8962
 -85.8965
 -85.896
 -85.9166
 -85.9159
 -85.9177
 -85.918
 -85.9181
 -85.9178
 -85.8819
 -85.8814
 -85.8817
 -85.882
 -85.9114
 -85.9116
 -85.9107
 -85.9119
 -85.9054
 -85.9045
 -85.9048
 -85.9055
 -85.8758
 -85.8761
 -85.8761
 -85.8756
 -85.9015
 -85.9016
 -85.9019
 -85.9012
 -85.901
 -85.9002
 -85.8997
 -85.8999
 -85.8911
 -85.8903
 -85.8912
 -85.8909
 -85.9194
 -85.9197
 -85.9198
 -85.9198
 -85.9001
 -85.8993
 -85.8994
 -85.8947
 -85.8955
 -85.8954
 -85.8947
 -85.9181
 -85.9189
 -85.9184
 -85.9185
 -85.8947
 -85.8942
 -85.8936
 -85.895
 -85.899
 -85.8995
 -85.9131
 -85.9132
 -85.9137
 -85.9126
 -85.9041
 -85.9042
 -85.905
 -85.9049
 -85.9173
 -85.9169
 -85.9174
 -85.9172
 -85.8998
 -85.9009
 -85.8929
 -85.8932
 -85.8934
 -85.8933
 -85.8948
 -85.8948
 -85.8952
 -85.8955
 -85.914
 -85.914
 -85.9132
 -85.9135
 -85.9122
 -85.9119
 -85.9124
 -85.9124
 -85.9111
 -85.9101
 -85.911
 -85.9107
 -85.8954
 -85.8963
 -85.8959
 -85.8954
 -85.882
 -85.8815
 -85.8818
 -85.882
 -85.9182
 -85.9187
 -85.9182
 -85.9184
 -85.8908
 -85.8909
 -85.891
 -85.8915
 -85.9035
 -85.9039
 -85.9043
 -85.9035
 -85.8964
 -85.8977
 -85.8968
 -85.8972
 -85.9033
 -85.9025
 -85.9031
 -85.9068
 -85.9076
 -85.9067
 -85.9076
 -85.9015
 -85.9022
 -85.9017
 -85.9012
 -85.9095
 -85.9097
 -85.9102
 -85.9093
 -85.9093
 -85.9092
 -85.9095
 -85.9084
 -85.8756
 -85.8769
 -85.8757
 -85.8869
 -85.8878
 -85.8881
 -85.8878
 -85.9032
 -85.9026
 -85.9028
 -85.9028
 -85.9135
 -85.914
 -85.9136
 -85.9142
 -85.8932
 -85.8923
 -85.8932
 -85.8943
 -85.8947
 -85.8947
 -85.9058
 -85.9055
 -85.906
 -85.9061
 -85.903
 -85.9035
 -85.9039
 -85.9039
 -85.9212
 -85.9212
 -85.921
 -85.9213
 -85.8849
 -85.8852
 -85.8847
 -85.8836
 -85.9106
 -85.9109
 -85.8975
 -85.8984
 -85.8984
 -85.8977
 -85.9088
 -85.9093
 -85.9092
 -85.9094
 -85.9048
 -85.905
 -85.9055
 -85.905
 -85.8986
 -85.8985
 -85.8993
 -85.898
 -85.9081
 -85.9087
 -85.9084
 -85.9086
 -85.8919
 -85.8921
 -85.8921
 -85.8926
 -85.8892
 -85.8886
 -85.8893
 -85.889
 -85.9127
 -85.9129
 -85.9136
 -85.9143
 -85.903
 -85.9034
 -85.904
 -85.8802
 -85.8799
 -85.8805
 -85.9143
 -85.9147
 -85.9149
 -85.915
 -85.9154
 -85.9152
 -85.9149
 -85.9148
 -85.9016
 -85.9018
 -85.9021
 -85.9024
 -85.9165
 -85.9169
 -85.9168
 -85.9168
 -85.9171
 -85.9178
 -85.9172
 -85.9179
 -85.8986
 -85.899
 -85.8996
 -85.8988
 -85.9116
 -85.9119
 -85.9122
 -85.9122
 -85.9209
 -85.921
 -85.9207
 -85.9212
 -85.9115
 -85.9115
 -85.9111
 -85.912
 -85.9037
 -85.9028
 -85.9031
 -85.9024
 -85.9138
 -85.914
 -85.9135
 -85.9133
 -85.9093
 -85.9091
 -85.9097
 -85.906
 -85.9066
 -85.8827
 -85.883
 -85.8825
 -85.8822
 -85.9055
 -85.9063
 -85.906
 -85.906
 -85.8833
 -85.8835
 -85.8836
 -85.8837
 -85.8832
 -85.883
 -85.8841
 -85.8841
 -85.9042
 -85.9047
 -85.9047
 -85.9041
 -85.8974
 -85.8975
 -85.8968
 -85.8977
 -85.9069
 -85.9077
 -85.9074
 -85.9074
 -85.9024
 -85.9019
 -85.8882
 -85.8878
 -85.888
 -85.8885
 -85.9182
 -85.9185
 -85.9187
 -85.9184
 -85.8977
 -85.8973
 -85.8985
 -85.8979
 -85.9137
 -85.9134
 -85.9129
 -85.9134
 -85.8883
 -85.8876
 -85.8882
 -85.8879
 -85.9157
 -85.9164
 -85.9162
 -85.9163
 -85.9057
 -85.9049
 -85.9056
 -85.9056
 -85.8936
 -85.8927
 -85.8921
 -85.8926
 -85.9208
 -85.9207
 -85.9207
 -85.9204
 -85.8958
 -85.8965
 -85.8959
 -85.8958
 -85.8986
 -85.8975
 -85.8983
 -85.8977
 -85.9186
 -85.9187
 -85.9183
 -85.9189
 -85.9016
 -85.9004
 -85.9009
 -85.9009
 -85.9142
 -85.9146
 -85.9143
 -85.9141
 -85.9135
 -85.913
 -85.9132
 -85.8993
 -85.898
 -85.8984
 -85.8985
 -85.9135
 -85.9141
 -85.9137
 -85.9139
 -85.8913
 -85.892
 -85.8919
 -85.8913
 -85.9153
 -85.9157
 -85.9156
 -85.9154
 -85.9149
 -85.9147
 -85.9151
 -85.9148
 -85.8923
 -85.892
 -85.8933
 -85.8927
 -85.8931
 -85.8929
 -85.8936
 -85.8926
 -85.8675
 -85.8677
 -85.8671
 -85.8673
 -85.9109
 -85.9101
 -85.9102
 -85.8835
 -85.8845
 -85.8847
 -85.884
 -85.9175
 -85.917
 -85.9172
 -85.9173
 -85.8917
 -85.914
 -85.9133
 -85.9134
 -85.9139
 -85.9141
 -85.9134
 -85.9136
 -85.8739
 -85.8731
 -85.8734
 -85.8737
 -85.8723
 -85.8725
 -85.8722
 -85.872
 -85.917
 -85.9165
 -85.9169
 -85.9173
 -85.8931
 -85.8928
 -85.8934
 -85.8926
 -85.9091
 -85.9088
 -85.9095
 -85.8964
 -85.8957
 -85.8963
 -85.8954
 -85.8993
 -85.8993
 -85.8992
 -85.9137
 -85.9135
 -85.9144
 -85.9054
 -85.9061
 -85.9061
 -85.9056
 -85.8967
 -85.8958
 -85.8959
 -85.8965
 -85.8926
 -85.8929
 -85.8925
 -85.8928
 -85.9091
 -85.9096
 -85.9097
 -85.8873
 -85.8878
 -85.8866
 -85.8865
 -85.8926
 -85.8938
 -85.8928
 -85.8984
 -85.8997
 -85.8993
 -85.899
 -85.8907
 -85.8914
 -85.8915
 -85.8912
 -85.8927
 -85.8935
 -85.8937
 -85.8934
 -85.9141
 -85.9136
 -85.9137
 -85.9137
 -85.9002
 -85.8996
 -85.9
 -85.9004
 -85.8947
 -85.8948
 -85.9035
 -85.903
 -85.9033
 -85.9026
 -85.916
 -85.9177
 -85.918
 -85.9179
 -85.9178
 -85.8664
 -85.8663
 -85.8662
 -85.8665
 -85.9125
 -85.9133
 -85.9128
 -85.9196
 -85.9195
 -85.9193
 -85.9195
 -85.9112
 -85.9103
 -85.9107
 -85.9104
 -85.8922
 -85.8925
 -85.8929
 -85.8923
 -85.8996
 -85.899
 -85.8988
 -85.8987
 -85.92
 -85.9199
 -85.9198
 -85.9197
 -85.9109
 -85.9103
 -85.9099
 -85.9105
 -85.8868
 -85.8862
 -85.8861
 -85.8873
 -85.8985
 -85.8985
 -85.8987
 -85.8975
 -85.8977
 -85.8981
 -85.8984
 -85.8978
 -85.8664
 -85.8662
 -85.8662
 -85.8665
 -85.8912
 -85.8911
 -85.891
 -85.8915
 -85.9111
 -85.912
 -85.9113
 -85.9116
 -85.906
 -85.9059
 -85.9067
 -85.9057
 -85.9005
 -85.9009
 -85.9016
 -85.9009
 -85.9098
 -85.9106
 -85.9103
 -85.9104
 -85.9061
 -85.9062
 -85.9068
 -85.906
 -85.9101
 -85.91
 -85.9096
 -85.9108
 -85.9208
 -85.9203
 -85.9204
 -85.9209
 -85.9123
 -85.9119
 -85.9117
 -85.9108
 -85.9094
 -85.9088
 -85.9085
 -85.9093
 -85.9086
 -85.9035
 -85.9034
 -85.9029
 -85.9042
 -85.9179
 -85.9178
 -85.9177
 -85.9176
 -85.9003
 -85.8997
 -85.9004
 -85.9002
 -85.9055
 -85.9059
 -85.9062
 -85.9051
 -85.9023
 -85.9014
 -85.902
 -85.9027
 -85.8965
 -85.8954
 -85.8963
 -85.8956
 -85.8782
 -85.8786
 -85.8797
 -85.8783
 -85.9212
 -85.9207
 -85.908
 -85.9076
 -85.9075
 -85.8693
 -85.8693
 -85.8694
 -85.8939
 -85.8933
 -85.8936
 -85.893
 -85.8829
 -85.8832
 -85.8818
 -85.8817
 -85.8898
 -85.8894
 -85.89
 -85.8888
 -85.9178
 -85.917
 -85.9174
 -85.9174
 -85.9039
 -85.903
 -85.9033
 -85.9029
 -85.9088
 -85.9097
 -85.9096
 -85.9102
 -85.9061
 -85.9061
 -85.9054
 -85.9051
 -85.9104
 -85.9106
 -85.9101
 -85.9102
 -85.9011
 -85.901
 -85.9139
 -85.9124
 -85.9139
 -85.9127
 -85.9104
 -85.9099
 -85.9096
 -85.9108
 -85.8936
 -85.8928
 -85.8938
 -85.8929
 -85.8938
 -85.894
 -85.894
 -85.8941
 -85.9052
 -85.9052
 -85.905
 -85.9055
 -85.9039
 -85.9043
 -85.9048
 -85.9053
 -85.89
 -85.8889
 -85.8888
 -85.89
 -85.9096
 -85.9092
 -85.909
 -85.9088
 -85.9203
 -85.9201
 -85.9203
 -85.9201
 -85.9147
 -85.9144
 -85.9145
 -85.9142
 -85.9209
 -85.9211
 -85.9208
 -85.9212
 -85.9156
 -85.9162
 -85.916
 -85.9161
 -85.9032
 -85.9041
 -85.9032
 -85.9034
 -85.9094
 -85.9088
 -85.9016
 -85.9025
 -85.9013
 -85.9019
 -85.8937
 -85.8943
 -85.8943
 -85.8946
 -85.9121
 -85.9128
 -85.9128
 -85.9123
 -85.9012
 -85.9009
 -85.9013
 -85.9004
 -85.8987
 -85.8981
 -85.8979
 -85.8982
 -85.8923
 -85.8924
 -85.8928
 -85.8932
 -85.8948
 -85.8946
 -85.8943
 -85.8955
 -85.8922
 -85.8927
 -85.893
 -85.8925
 -85.8796
 -85.8798
 -85.8793
 -85.8794
 -85.9114
 -85.9116
 -85.9108
 -85.9114
 -85.9084
 -85.9086
 -85.8809
 -85.8814
 -85.8813
 -85.8803
 -85.8961
 -85.8963
 -85.9076
 -85.9071
 -85.9077
 -85.9148
 -85.9148
 -85.8912
 -85.8911
 -85.8908
 -85.8915
 -85.8807
 -85.8813
 -85.8813
 -85.8815
 -85.8894
 -85.8897
 -85.8902
 -85.8904
 -85.8959
 -85.8964
 -85.8966
 -85.8968
 -85.9063
 -85.9054
 -85.9054
 -85.9055
 -85.9084
 -85.9081
 -85.908
 -85.9079
 -85.8956
 -85.8965
 -85.8964
 -85.8963
 -85.9057
 -85.9056
 -85.9059
 -85.9048
 -85.9026
 -85.9021
 -85.9019
 -85.9023
 -85.9039
 -85.9045
 -85.9049
 -85.9045
 -85.9044
 -85.9035
 -85.9046
 -85.9014
 -85.9009
 -85.9021
 -85.9016
 -85.8972
 -85.8975
 -85.8966
 -85.8969
 -85.8931
 -85.8937
 -85.8927
 -85.8935
 -85.9177
 -85.9176
 -85.9179
 -85.9182
 -85.9
 -85.9
 -85.9007
 -85.9008
 -85.889
 -85.8889
 -85.888
 -85.8887
 -85.8869
 -85.8869
 -85.8867
 -85.8865
 -85.8902
 -85.8898
 -85.8898
 -85.8901
 -85.8921
 -85.8922
 -85.893
 -85.8931
 -85.8929
 -85.8924
 -85.8922
 -85.8926
 -85.917
 -85.9174
 -85.9173
 -85.9174
 -85.899
 -85.899
 -85.8988
 -85.8995
 -85.9109
 -85.9113
 -85.9108
 -85.9105
 -85.8929
 -85.8938
 -85.8926
 -85.8934
 -85.9183
 -85.9186
 -85.9185
 -85.9189
 -85.919
 -85.919
 -85.9193
 -85.9099
 -85.9085
 -85.909
 -85.9091
 -85.8946
 -85.8949
 -85.8941
 -85.8946
 -85.9202
 -85.9196
 -85.9197
 -85.8982
 -85.8975
 -85.898
 -85.8969
 -85.9156
 -85.9157
 -85.9146
 -85.9148
 -85.9154
 -85.9147
 -85.8969
 -85.8963
 -85.8966
 -85.8872
 -85.8875
 -85.8866
 -85.8869
 -85.8925
 -85.892
 -85.8928
 -85.8929
 -85.9027
 -85.9035
 -85.9025
 -85.9183
 -85.9174
 -85.9175
 -85.9102
 -85.9095
 -85.9092
 -85.9097
 -85.9185
 -85.9185
 -85.9178
 -85.9191
 -85.8992
 -85.9
 -85.9004
 -85.8998
 -85.9154
 -85.9155
 -85.9159
 -85.9149
 -85.903
 -85.9031
 -85.9026
 -85.9023
 -85.8951
 -85.8944
 -85.8948
 -85.9197
 -85.9192
 -85.9194
 -85.92
 -85.9086
 -85.9058
 -85.9067
 -85.9065
 -85.906
 -85.9066
 -85.9066
 -85.9061
 -85.8945
 -85.8941
 -85.8941
 -85.894
 -85.894
 -85.8949
 -85.8998
 -85.8989
 -85.8988
 -85.8986
 -85.8987
 -85.8996
 -85.8989
 -85.8994
 -85.9098
 -85.9203
 -85.9196
 -85.9195
 -85.92
 -85.8757
 -85.8747
 -85.8754
 -85.8754
 -85.8965
 -85.8959
 -85.8946
 -85.8943
 -85.8947
 -85.8948
 -85.894
 -85.894
 -85.8931
 -85.8935
 -85.9108
 -85.91
 -85.9102
 -85.9106
 -85.9115
 -85.9119
 -85.911
 -85.9116
 -85.895
 -85.8943
 -85.909
 -85.9089
 -85.9099
 -85.9093
 -85.9098
 -85.9104
 -85.9098
 -85.9048
 -85.9043
 -85.9039
 -85.9036
 -85.9002
 -85.8995
 -85.9001
 -85.8995
 -85.911
 -85.9119
 -85.9118
 -85.9112
 -85.9133
 -85.9135
 -85.9139
 -85.9134
 -85.9119
 -85.9126
 -85.912
 -85.9114
 -85.9117
 -85.9116
 -85.9109
 -85.8997
 -85.8999
 -85.8999
 -85.8994
 -85.8847
 -85.8846
 -85.8851
 -85.8852
 -85.8975
 -85.8973
 -85.897
 -85.8972
 -85.9131
 -85.9125
 -85.9122
 -85.9128
 -85.9087
 -85.9086
 -85.9085
 -85.9092
 -85.8973
 -85.8978
 -85.8981
 -85.8982
 -85.9088
 -85.908
 -85.9085
 -85.9087
 -85.9044
 -85.9047
 -85.9035
 -85.9046
 -85.9048
 -85.9056
 -85.9053
 -85.9054
 -85.9086
 -85.909
 -85.909
 -85.9177
 -85.9178
 -85.9175
 -85.9176
 -85.8972
 -85.8979
 -85.8976
 -85.8978
 -85.9019
 -85.9027
 -85.9026
 -85.9024
 -85.8847
 -85.8841
 -85.8842
 -85.8851
 -85.8921
 -85.8927
 -85.8927
 -85.8922
 -85.8932
 -85.892
 -85.8925
 -85.8919
 -85.8921
 -85.8924
 -85.8923
 -85.8927
 -85.9041
 -85.9036
 -85.9038
 -85.8895
 -85.8894
 -85.8897
 -85.8898
 -85.8906
 -85.8909
 -85.8916
 -85.8906
 -85.9196
 -85.9193
 -85.9192
 -85.9194
 -85.9047
 -85.9042
 -85.9041
 -85.9037
 -85.9138
 -85.9139
 -85.9136
 -85.9132
 -85.9061
 -85.9064
 -85.9059
 -85.9054
 -85.9084
 -85.909
 -85.9085
 -85.9086
 -85.8941
 -85.8934
 -85.8938
 -85.8929
 -85.9019
 -85.9034
 -85.9023
 -85.9024
 -85.9135
 -85.9139
 -85.9133
 -85.9135
 -85.9068
 -85.9065
 -85.9074
 -85.9071
 -85.891
 -85.8908
 -85.8917
 -85.8919
 -85.9176
 -85.9179
 -85.9177
 -85.9179
 -85.8976
 -85.897
 -85.8905
 -85.9021
 -85.9025
 -85.9029
 -85.9019
 -85.9
 -85.9006
 -85.8998
 -85.8998
 -85.882
 -85.8818
 -85.8828
 -85.8965
 -85.8958
 -85.8956
 -85.8952
 -85.9062
 -85.9074
 -85.9069
 -85.9075
 -85.9028
 -85.9035
 -85.903
 -85.9028
 -85.9164
 -85.9166
 -85.9167
 -85.9165
 -85.8927
 -85.8938
 -85.893
 -85.8937
 -85.8936
 -85.8935
 -85.8944
 -85.8827
 -85.8816
 -85.8821
 -85.8828
 -85.8923
 -85.8932
 -85.8926
 -85.9056
 -85.9071
 -85.9058
 -85.8921
 -85.8921
 -85.8915
 -85.8918
 -85.9
 -85.9008
 -85.901
 -85.9009
 -85.8665
 -85.8665
 -85.8665
 -85.8669
 -85.8994
 -85.8991
 -85.8992
 -85.8888
 -85.8887
 -85.8888
 -85.8889
 -85.8992
 -85.8989
 -85.8981
 -85.8988
 -85.8916
 -85.8922
 -85.8921
 -85.8925
 -85.9091
 -85.9094
 -85.9089
 -85.9096
 -85.9111
 -85.9106
 -85.9111
 -85.9113
 -85.919
 -85.919
 -85.9192
 -85.9188
 -85.9051
 -85.9041
 -85.9049
 -85.9052
 -85.8913
 -85.8906
 -85.8912
 -85.8908
 -85.8945
 -85.8941
 -85.8861
 -85.8861
 -85.8865
 -85.8864
 -85.901
 -85.9013
 -85.8965
 -85.8976
 -85.8974
 -85.8937
 -85.8941
 -85.8944
 -85.8939
 -85.9174
 -85.9175
 -85.9167
 -85.9169
 -85.9168
 -85.9166
 -85.9164
 -85.9167
 -85.8941
 -85.8945
 -85.894
 -85.8933
 -85.8894
 -85.8896
 -85.9063
 -85.9064
 -85.9062
 -85.9069
 -85.8933
 -85.893
 -85.8937
 -85.8936
 -85.8976
 -85.8966
 -85.8983
 -85.921
 -85.9211
 -85.9208
 -85.9028
 -85.9037
 -85.9033
 -85.9034
 -85.9151
 -85.9157
 -85.9149
 -85.9147
 -85.904
 -85.9046
 -85.9047
 -85.9039
 -85.9108
 -85.9114
 -85.9115
 -85.9105
 -85.8911
 -85.8916
 -85.8912
 -85.8909
 -85.8928
 -85.8938
 -85.8925
 -85.8935
 -85.9043
 -85.9035
 -85.9048
 -85.9039
 -85.8968
 -85.8978
 -85.898
 -85.8968
 -85.8906
 -85.8908
 -85.8912
 -85.8918
 -85.9002
 -85.9006
 -85.901
 -85.9014
 -85.9079
 -85.908
 -85.9075
 -85.9038
 -85.9045
 -85.9041
 -85.9045
 -85.8706
 -85.8715
 -85.8718
 -85.8713
 -85.8896
 -85.8896
 -85.8898
 -85.8897
 -85.8964
 -85.8963
 -85.8964
 -85.8971
 -85.8802
 -85.8809
 -85.8797
 -85.8805
 -85.9149
 -85.9147
 -85.9143
 -85.9194
 -85.9191
 -85.9188
 -85.9191
 -85.9119
 -85.9131
 -85.9125
 -85.9125
 -85.9036
 -85.9079
 -85.9087
 -85.909
 -85.9084
 -85.902
 -85.9026
 -85.9016
 -85.9016
 -85.8889
 -85.8881
 -85.8886
 -85.8934
 -85.8937
 -85.894
 -85.8928
 -85.8711
 -85.8702
 -85.871
 -85.8698
 -85.8821
 -85.8821
 -85.8825
 -85.882
 -85.8959
 -85.8958
 -85.8963
 -85.8969
 -85.92
 -85.9194
 -85.9196
 -85.9194
 -85.8733
 -85.8732
 -85.8741
 -85.8737
 -85.91
 -85.9105
 -85.9095
 -85.9101
 -85.9038
 -85.9039
 -85.9046
 -85.9039
 -85.8942
 -85.8928
 -85.8928
 -85.9009
 -85.9
 -85.8998
 -85.8998
 -85.9194
 -85.9196
 -85.9197
 -85.8896
 -85.8909
 -85.8911
 -85.8997
 -85.9002
 -85.901
 -85.9009
 -85.8961
 -85.8959
 -85.8958
 -85.8955
 -85.897
 -85.8969
 -85.8977
 -85.8979
 -85.8887
 -85.8882
 -85.8882
 -85.8891
 -85.9009
 -85.9015
 -85.9006
 -85.9016
 -85.9176
 -85.9167
 -85.9167
 -85.9163
 -85.9162
 -85.916
 -85.9158
 -85.9164
 -85.8874
 -85.8875
 -85.8876
 -85.8873
 -85.9144
 -85.9145
 -85.9145
 -85.9138
 -85.917
 -85.9176
 -85.9174
 -85.9167
 -85.914
 -85.914
 -85.9133
 -85.9134
 -85.908
 -85.9078
 -85.9084
 -85.9081
 -85.9025
 -85.902
 -85.9029
 -85.896
 -85.8948
 -85.8952
 -85.8954
 -85.9115
 -85.911
 -85.9104
 -85.9112
 -85.9123
 -85.9124
 -85.9128
 -85.9127
 -85.9213
 -85.9212
 -85.9208
 -85.921
 -85.8822
 -85.8828
 -85.8826
 -85.8827
 -85.8864
 -85.8861
 -85.8862
 -85.8866
 -85.8888
 -85.8887
 -85.8897
 -85.8887
 -85.8964
 -85.8954
 -85.8961
 -85.8961
 -85.8978
 -85.8979
 -85.8979
 -85.9173
 -85.9178
 -85.9183
 -85.918
 -85.913
 -85.9128
 -85.9125
 -85.9123
 -85.9016
 -85.901
 -85.9008
 -85.9013
 -85.9165
 -85.917
 -85.9061
 -85.9062
 -85.9061
 -85.9054
 -85.9163
 -85.9166
 -85.9172
 -85.9166
 -85.9047
 -85.9056
 -85.9045
 -85.9058
 -85.8956
 -85.8963
 -85.895
 -85.8956
 -85.8857
 -85.8851
 -85.8857
 -85.8863
 -85.8701
 -85.871
 -85.8697
 -85.8705
 -85.9153
 -85.9149
 -85.9149
 -85.9154
 -85.9164
 -85.9164
 -85.9165
 -85.9169
 -85.8992
 -85.8981
 -85.8989
 -85.8984
 -85.9034
 -85.903
 -85.9029
 -85.9035
 -85.8929
 -85.8922
 -85.8934
 -85.9066
 -85.9061
 -85.9061
 -85.9057
 -85.8931
 -85.8929
 -85.8934
 -85.8934
 -85.9022
 -85.9014
 -85.9009
 -85.9013
 -85.9084
 -85.908
 -85.9083
 -85.9085
 -85.904
 -85.9037
 -85.9034
 -85.9143
 -85.9136
 -85.9139
 -85.9139
 -85.9072
 -85.9081
 -85.8792
 -85.8803
 -85.8789
 -85.8795
 -85.9115
 -85.9111
 -85.9114
 -85.8941
 -85.8943
 -85.8944
 -85.894
 -85.9072
 -85.9072
 -85.9069
 -85.902
 -85.9012
 -85.9021
 -85.9016
 -85.9068
 -85.9058
 -85.9072
 -85.9065
 -85.9071
 -85.908
 -85.8748
 -85.8748
 -85.8743
 -85.8747
 -85.8713
 -85.8704
 -85.87
 -85.8708
 -85.9028
 -85.9019
 -85.9022
 -85.9018
 -85.9065
 -85.906
 -85.9064
 -85.9058
 -85.8751
 -85.8751
 -85.8752
 -85.8758
 -85.894
 -85.8931
 -85.888
 -85.8882
 -85.8884
 -85.889
 -85.9075
 -85.9074
 -85.9083
 -85.9078
 -85.906
 -85.9061
 -85.9068
 -85.9056
 -85.9068
 -85.906
 -85.9059
 -85.9059
 -85.8962
 -85.8964
 -85.8969
 -85.8962
 -85.891
 -85.8907
 -85.89
 -85.8911
 -85.8832
 -85.8841
 -85.8839
 -85.8831
 -85.8917
 -85.8916
 -85.8917
 -85.8928
 -85.9115
 -85.911
 -85.9117
 -85.9114
 -85.9028
 -85.9011
 -85.902
 -85.8812
 -85.8818
 -85.8824
 -85.909
 -85.9101
 -85.9095
 -85.9095
 -85.9096
 -85.9085
 -85.909
 -85.9094
 -85.8993
 -85.8987
 -85.8984
 -85.9006
 -85.9009
 -85.9016
 -85.9009
 -85.8914
 -85.8911
 -85.8909
 -85.8909
 -85.914
 -85.9138
 -85.9143
 -85.9141
 -85.8901
 -85.8899
 -85.89
 -85.8903
 -85.889
 -85.8886
 -85.889
 -85.919
 -85.9197
 -85.92
 -85.9195
 -85.9136
 -85.914
 -85.8951
 -85.8947
 -85.8954
 -85.8953
 -85.9022
 -85.9031
 -85.9023
 -85.9006
 -85.9003
 -85.9004
 -85.8996
 -85.8904
 -85.8912
 -85.8908
 -85.9135
 -85.9139
 -85.9131
 -85.9132
 -85.8902
 -85.8914
 -85.8906
 -85.8904
 -85.9103
 -85.9097
 -85.9093
 -85.9096
 -85.8904
 -85.8907
 -85.8913
 -85.8905
 -85.8911
 -85.8908
 -85.8942
 -85.8938
 -85.894
 -85.8943
 -85.8825
 -85.8821
 -85.8813
 -85.882
 -85.9116
 -85.9123
 -85.897
 -85.8975
 -85.8977
 -85.8976
 -85.9191
 -85.9189
 -85.919
 -85.9192
 -85.896
 -85.8954
 -85.8963
 -85.897
 -85.9128
 -85.9134
 -85.9136
 -85.9135
 -85.9165
 -85.9172
 -85.9161
 -85.9169
 -85.9101
 -85.9093
 -85.9177
 -85.9181
 -85.918
 -85.9178
 -85.8907
 -85.8907
 -85.8904
 -85.8913
 -85.9177
 -85.9179
 -85.918
 -85.9177
 -85.9196
 -85.9202
 -85.92
 -85.9196
 -85.9055
 -85.9055
 -85.9063
 -85.906
 -85.9008
 -85.9003
 -85.9013
 -85.9017
 -85.9156
 -85.9148
 -85.9154
 -85.9156
 -85.8802
 -85.8812
 -85.8805
 -85.8801
 -85.9152
 -85.916
 -85.8968
 -85.8975
 -85.8974
 -85.8983
 -85.9153
 -85.9149
 -85.9144
 -85.9144
 -85.8916
 -85.8923
 -85.8922
 -85.8921
 -85.8979
 -85.8967
 -85.8972
 -85.8978
 -85.892
 -85.8917
 -85.8928
 -85.8914
 -85.891
 -85.8913
 -85.8907
 -85.8898
 -85.8903
 -85.8901
 -85.8904
 -85.9062
 -85.9056
 -85.9054
 -85.9146
 -85.9146
 -85.9151
 -85.9151
 -85.9044
 -85.904
 -85.9036
 -85.8915
 -85.891
 -85.8913
 -85.9021
 -85.9032
 -85.9023
 -85.903
 -85.9073
 -85.9072
 -85.9073
 -85.9082
 -85.8998
 -85.9006
 -85.9008
 -85.9005
 -85.8994
 -85.899
 -85.8988
 -85.8977
 -85.8972
 -85.897
 -85.8981
 -85.8987
 -85.8991
 -85.8978
 -85.9149
 -85.9146
 -85.9149
 -85.9143
 -85.909
 -85.9085
 -85.9089
 -85.9092
 -85.9009
 -85.9011
 -85.9007
 -85.9019
 -85.8898
 -85.8892
 -85.8897
 -85.9046
 -85.9041
 -85.9045
 -85.9047
 -85.8946
 -85.8936
 -85.8941
 -85.8936
 -85.8769
 -85.8773
 -85.8768
 -85.8765
 -85.8982
 -85.8977
 -85.898
 -85.898
 -85.9155
 -85.9154
 -85.916
 -85.9158
 -85.8974
 -85.8982
 -85.8977
 -85.8973
 -85.8904
 -85.8904
 -85.8906
 -85.8909
 -85.891
 -85.8906
 -85.8908
 -85.9004
 -85.9005
 -85.9002
 -85.9078
 -85.8971
 -85.8958
 -85.8967
 -85.8966
 -85.9166
 -85.9166
 -85.9169
 -85.9157
 -85.9158
 -85.9161
 -85.8969
 -85.8977
 -85.8971
 -85.8976
 -85.9194
 -85.9196
 -85.9198
 -85.9198
 -85.8918
 -85.9058
 -85.905
 -85.9055
 -85.9053
 -85.8915
 -85.8918
 -85.8917
 -85.8919
 -85.9163
 -85.9167
 -85.9159
 -85.9164
 -85.9083
 -85.9093
 -85.9089
 -85.9084
 -85.9122
 -85.9127
 -85.9117
 -85.912
 -85.8897
 -85.89
 -85.8903
 -85.8898
 -85.8954
 -85.896
 -85.8953
 -85.8954
 -85.9046
 -85.9041
 -85.9047
 -85.9039
 -85.8958
 -85.8949
 -85.8961
 -85.8952
 -85.9078
 -85.9081
 -85.9088
 -85.9086
 -85.8921
 -85.8918
 -85.8925
 -85.8925
 -85.8947
 -85.8949
 -85.8956
 -85.8953
 -85.9058
 -85.9059
 -85.9059
 -85.9067
 -85.9163
 -85.917
 -85.9166
 -85.917
 -85.8882
 -85.8885
 -85.889
 -85.8889
 -85.8827
 -85.8815
 -85.8827
 -85.8825
 -85.917
 -85.9175
 -85.9172
 -85.9173
 -85.8839
 -85.8832
 -85.8838
 -85.8833
 -85.8831
 -85.8839
 -85.9024
 -85.9027
 -85.9021
 -85.9017
 -85.8951
 -85.8956
 -85.8956
 -85.8949
 -85.9212
 -85.9212
 -85.9213
 -85.9211
 -85.9163
 -85.9162
 -85.9169
 -85.908
 -85.9079
 -85.9086
 -85.9078
 -85.8911
 -85.8913
 -85.8906
 -85.8915
 -85.8946
 -85.8945
 -85.8943
 -85.8941
 -85.8946
 -85.895
 -85.9083
 -85.9095
 -85.9091
 -85.9086
 -85.907
 -85.9069
 -85.9062
 -85.9071
 -85.9092
 -85.909
 -85.9084
 -85.9091
 -85.9194
 -85.9194
 -85.9186
 -85.9196
 -85.9108
 -85.9107
 -85.9101
 -85.8982
 -85.9036
 -85.9034
 -85.9036
 -85.903
 -85.9042
 -85.9032
 -85.9035
 -85.904
 -85.9142
 -85.914
 -85.9139
 -85.9135
 -85.9108
 -85.9104
 -85.9105
 -85.911
 -85.9065
 -85.9059
 -85.9058
 -85.8964
 -85.8957
 -85.8965
 -85.8953
 -85.9034
 -85.9046
 -85.9039
 -85.9039
 -85.8979
 -85.8984
 -85.8975
 -85.8733
 -85.8732
 -85.8727
 -85.8736
 -85.9144
 -85.9154
 -85.915
 -85.9143
 -85.9133
 -85.9145
 -85.9138
 -85.8743
 -85.9045
 -85.9046
 -85.9044
 -85.9053
 -85.9063
 -85.9065
 -85.8859
 -85.8859
 -85.8858
 -85.8862
 -85.889
 -85.8892
 -85.8902
 -85.889
 -85.8932
 -85.8936
 -85.8934
 -85.8935
 -85.8928
 -85.8932
 -85.8935
 -85.8927
 -85.8927
 -85.8932
 -85.898
 -85.8973
 -85.897
 -85.8971
 -85.8989
 -85.8997
 -85.9213
 -85.9212
 -85.8906
 -85.8918
 -85.8906
 -85.8913
 -85.9007
 -85.9004
 -85.901
 -85.9
 -85.8876
 -85.8879
 -85.8866
 -85.8869
 -85.9152
 -85.9155
 -85.9146
 -85.915
 -85.913
 -85.9124
 -85.9129
 -85.9124
 -85.9078
 -85.9084
 -85.9085
 -85.9081
 -85.9047
 -85.9049
 -85.906
 -85.9056
 -85.9026
 -85.9023
 -85.8907
 -85.9101
 -85.9108
 -85.9108
 -85.9108
 -85.9186
 -85.9184
 -85.9191
 -85.9183
 -85.9137
 -85.9144
 -85.9135
 -85.9138
 -85.8666
 -85.8666
 -85.8667
 -85.8669
 -85.9188
 -85.9189
 -85.9187
 -85.9188
 -85.8935
 -85.8935
 -85.8928
 -85.8938
 -85.8967
 -85.8957
 -85.8961
 -85.8954
 -85.9094
 -85.9095
 -85.9099
 -85.91
 -85.9098
 -85.9095
 -85.9092
 -85.9094
 -85.8913
 -85.8922
 -85.8917
 -85.892
 -85.9185
 -85.9187
 -85.9184
 -85.9185
 -85.9154
 -85.9157
 -85.9156
 -85.9159
 -85.9101
 -85.9102
 -85.9107
 -85.9107
 -85.9157
 -85.9152
 -85.9155
 -85.9156
 -85.8947
 -85.8955
 -85.8955
 -85.8957
 -85.8912
 -85.8914
 -85.8916
 -85.8918
 -85.9146
 -85.9142
 -85.914
 -85.9141
 -85.8998
 -85.8996
 -85.8994
 -85.8987
 -85.9007
 -85.9003
 -85.9001
 -85.9006
 -85.8715
 -85.872
 -85.8723
 -85.8721
 -85.9185
 -85.9186
 -85.9162
 -85.9163
 -85.9159
 -85.9166
 -85.8876
 -85.8869
 -85.8867
 -85.8876
 -85.8955
 -85.8945
 -85.8944
 -85.8941
 -85.9156
 -85.9152
 -85.9159
 -85.916
 -85.899
 -85.8992
 -85.8988
 -85.8997
 -85.8973
 -85.8976
 -85.8967
 -85.8968
 -85.9191
 -85.9193
 -85.919
 -85.9189
 -85.9042
 -85.904
 -85.9042
 -85.9045
 -85.9024
 -85.9026
 -85.9024
 -85.9019
 -85.9124
 -85.9126
 -85.9129
 -85.9124
 -85.9082
 -85.908
 -85.9077
 -85.9073
 -85.8991
 -85.8991
 -85.8982
 -85.8957
 -85.8963
 -85.8959
 -85.8971
 -85.8846
 -85.8841
 -85.8841
 -85.8853
 -85.8966
 -85.8971
 -85.8972
 -85.8974
 -85.9035
 -85.9031
 -85.9034
 -85.9028
 -85.9187
 -85.9189
 -85.9189
 -85.9182
 -85.8971
 -85.8984
 -85.8977
 -85.8975
 -85.8876
 -85.8876
 -85.8869
 -85.8864
 -85.9096
 -85.9103
 -85.91
 -85.9095
 -85.9068
 -85.9066
 -85.9062
 -85.9034
 -85.9044
 -85.9046
 -85.9049
 -85.8835
 -85.8833
 -85.8834
 -85.8841
 -85.9047
 -85.9041
 -85.9043
 -85.9039
 -85.9181
 -85.9181
 -85.9182
 -85.9182
 -85.9039
 -85.9039
 -85.9041
 -85.9043
 -85.8894
 -85.8889
 -85.8893
 -85.8895
 -85.8923
 -85.8927
 -85.8922
 -85.8916
 -85.9214
 -85.9212
 -85.9214
 -85.9213
 -85.8946
 -85.8948
 -85.8946
 -85.8935
 -85.9066
 -85.9056
 -85.9058
 -85.9062
 -85.9212
 -85.9213
 -85.9211
 -85.921
 -85.9166
 -85.9173
 -85.9169
 -85.9098
 -85.9097
 -85.9106
 -85.9108
 -85.9148
 -85.9149
 -85.9156
 -85.9146
 -85.877
 -85.8776
 -85.8781
 -85.8779
 -85.8921
 -85.893
 -85.8916
 -85.9177
 -85.9182
 -85.9181
 -85.9182
 -85.9062
 -85.9059
 -85.9067
 -85.9057
 -85.912
 -85.9118
 -85.9127
 -85.9113
 -85.8886
 -85.8885
 -85.8878
 -85.8876
 -85.8987
 -85.8997
 -85.8986
 -85.8993
 -85.9078
 -85.9067
 -85.9071
 -85.8867
 -85.8869
 -85.8873
 -85.8873
 -85.8919
 -85.8903
 -85.8906
 -85.8904
 -85.8977
 -85.9179
 -85.9183
 -85.918
 -85.9184
 -85.8782
 -85.8782
 -85.8774
 -85.8775
 -85.9121
 -85.9133
 -85.9128
 -85.9134
 -85.9071
 -85.9066
 -85.9067
 -85.9059
 -85.8734
 -85.9138
 -85.9133
 -85.9141
 -85.9177
 -85.9184
 -85.9179
 -85.918
 -85.9011
 -85.901
 -85.9023
 -85.9015
 -85.9089
 -85.9088
 -85.9093
 -85.9085
 -85.8933
 -85.8927
 -85.9025
 -85.9022
 -85.9021
 -85.9029
 -85.8932
 -85.8927
 -85.8923
 -85.8929
 -85.8958
 -85.8955
 -85.8966
 -85.8967
 -85.9102
 -85.9097
 -85.9102
 -85.9103
 -85.8809
 -85.8807
 -85.8807
 -85.8817
 -85.8913
 -85.891
 -85.8913
 -85.8908
 -85.8826
 -85.8832
 -85.8889
 -85.889
 -85.8891
 -85.8889
 -85.8877
 -85.8872
 -85.888
 -85.8873
 -85.919
 -85.9186
 -85.9183
 -85.9182
 -85.9057
 -85.9056
 -85.9053
 -85.9064
 -85.8984
 -85.8995
 -85.8989
 -85.8989
 -85.9034
 -85.9031
 -85.9029
 -85.9036
 -85.9184
 -85.9183
 -85.8864
 -85.8861
 -85.8862
 -85.8865
 -85.9183
 -85.9185
 -85.918
 -85.8794
 -85.8792
 -85.8793
 -85.8789
 -85.9171
 -85.9163
 -85.9168
 -85.9165
 -85.8963
 -85.8958
 -85.8965
 -85.8956
 -85.9006
 -85.9006
 -85.9003
 -85.9178
 -85.9175
 -85.9177
 -85.9179
 -85.9055
 -85.9047
 -85.9055
 -85.905
 -85.9007
 -85.9012
 -85.9017
 -85.9011
 -85.8965
 -85.8961
 -85.8987
 -85.8972
 -85.8982
 -85.8978
 -85.9069
 -85.9061
 -85.9066
 -85.919
 -85.9184
 -85.9182
 -85.9189
 -85.9003
 -85.9008
 -85.9002
 -85.9005
 -85.8988
 -85.8983
 -85.8953
 -85.8945
 -85.8942
 -85.895
 -85.8812
 -85.8813
 -85.8822
 -85.9055
 -85.9058
 -85.9048
 -85.9047
 -85.9186
 -85.9187
 -85.9187
 -85.8825
 -85.8822
 -85.8826
 -85.8999
 -85.8993
 -85.8997
 -85.899
 -85.9087
 -85.9087
 -85.9079
 -85.9082
 -85.8773
 -85.8769
 -85.8771
 -85.8773
 -85.9151
 -85.9153
 -85.915
 -85.9149
 -85.9093
 -85.9088
 -85.9089
 -85.9085
 -85.9135
 -85.9137
 -85.9133
 -85.9175
 -85.9177
 -85.9184
 -85.9179
 -85.9031
 -85.9022
 -85.9031
 -85.9032
 -85.9176
 -85.9174
 -85.9172
 -85.9171
 -85.8966
 -85.8964
 -85.8969
 -85.896
 -85.9188
 -85.9078
 -85.9022
 -85.9019
 -85.9026
 -85.9017
 -85.9069
 -85.9066
 -85.9061
 -85.9059
 -85.9111
 -85.9112
 -85.9107
 -85.9103
 -85.9073
 -85.9071
 -85.9078
 -85.9075
 -85.9118
 -85.9113
 -85.9119
 -85.9118
 -85.9022
 -85.9017
 -85.9019
 -85.9026
 -85.9009
 -85.901
 -85.9012
 -85.9015
 -85.8986
 -85.8984
 -85.8982
 -85.899
 -85.9012
 -85.9012
 -85.9005
 -85.8904
 -85.8906
 -85.8904
 -85.8909
 -85.9031
 -85.9084
 -85.9093
 -85.9094
 -85.9091
 -85.9181
 -85.9181
 -85.9175
 -85.8953
 -85.8941
 -85.8945
 -85.8942
 -85.9039
 -85.9048
 -85.9045
 -85.9071
 -85.9069
 -85.9065
 -85.9063
 -85.9088
 -85.9092
 -85.9098
 -85.91
 -85.916
 -85.9163
 -85.9168
 -85.9163
 -85.8929
 -85.8928
 -85.8932
 -85.8922
 -85.904
 -85.9035
 -85.9035
 -85.903
 -85.9015
 -85.9011
 -85.9006
 -85.9014
 -85.9008
 -85.9004
 -85.9002
 -85.8997
 -85.9025
 -85.9023
 -85.9027
 -85.9019
 -85.9108
 -85.9098
 -85.9111
 -85.9102
 -85.9007
 -85.8996
 -85.9
 -85.9002
 -85.8863
 -85.8863
 -85.8863
 -85.8865
 -85.884
 -85.8844
 -85.8842
 -85.9024
 -85.9026
 -85.9031
 -85.9033
 -85.9027
 -85.9029
 -85.9033
 -85.9036
 -85.9011
 -85.9004
 -85.9016
 -85.9015
 -85.9173
 -85.9174
 -85.9166
 -85.9167
 -85.9113
 -85.9107
 -85.9105
 -85.9111
 -85.8947
 -85.8952
 -85.8951
 -85.8953
 -85.8894
 -85.8904
 -85.8902
 -85.8889
 -85.9157
 -85.9154
 -85.9151
 -85.9157
 -85.8788
 -85.8781
 -85.8783
 -85.8793
 -85.8972
 -85.8979
 -85.8975
 -85.8974
 -85.8883
 -85.8887
 -85.8886
 -85.8922
 -85.8927
 -85.8928
 -85.8934
 -85.91
 -85.9099
 -85.9104
 -85.9093
 -85.8921
 -85.8913
 -85.8914
 -85.8919
 -85.8842
 -85.8859
 -85.8848
 -85.8772
 -85.878
 -85.8784
 -85.878
 -85.9198
 -85.9199
 -85.9201
 -85.9204
 -85.8939
 -85.8934
 -85.8938
 -85.8941
 -85.9058
 -85.9048
 -85.9051
 -85.9056
 -85.9167
 -85.9165
 -85.916
 -85.9164
 -85.9134
 -85.914
 -85.9132
 -85.9134
 -85.8946
 -85.8947
 -85.8942
 -85.8945
 -85.8868
 -85.8859
 -85.8851
 -85.8861
 -85.9049
 -85.9053
 -85.9045
 -85.9049
 -85.8876
 -85.8884
 -85.899
 -85.8977
 -85.8979
 -85.8987
 -85.8997
 -85.8997
 -85.8992
 -85.9
 -85.8987
 -85.8987
 -85.8983
 -85.8899
 -85.8902
 -85.8899
 -85.9062
 -85.9062
 -85.9065
 -85.9067
 -85.9053
 -85.9052
 -85.9047
 -85.9059
 -85.8945
 -85.8953
 -85.8949
 -85.8945
 -85.9115
 -85.9121
 -85.9113
 -85.9115
 -85.9021
 -85.9011
 -85.9016
 -85.9022
 -85.8899
 -85.8898
 -85.8897
 -85.8898
 -85.8977
 -85.8984
 -85.8978
 -85.906
 -85.9059
 -85.9053
 -85.9058
 -85.9031
 -85.9037
 -85.904
 -85.9195
 -85.9194
 -85.9193
 -85.9191
 -85.8829
 -85.8824
 -85.883
 -85.8817
 -85.8968
 -85.8974
 -85.8974
 -85.8969
 -85.8958
 -85.8956
 -85.895
 -85.8958
 -85.9198
 -85.9197
 -85.9203
 -85.9207
 -85.9127
 -85.9131
 -85.9129
 -85.8925
 -85.8925
 -85.8921
 -85.8926
 -85.9125
 -85.9117
 -85.912
 -85.8939
 -85.894
 -85.8935
 -85.8936
 -85.87
 -85.8705
 -85.8701
 -85.8706
 -85.9171
 -85.9173
 -85.9176
 -85.9169
 -85.89
 -85.8898
 -85.8895
 -85.889
 -85.9191
 -85.9189
 -85.9188
 -85.9189
 -85.8919
 -85.8927
 -85.892
 -85.8924
 -85.8706
 -85.8696
 -85.8704
 -85.8704
 -85.8854
 -85.8847
 -85.8853
 -85.8856
 -85.8904
 -85.8909
 -85.8913
 -85.8903
 -85.9017
 -85.9007
 -85.8893
 -85.8895
 -85.8881
 -85.8882
 -85.9067
 -85.9062
 -85.906
 -85.9056
 -85.901
 -85.9009
 -85.9006
 -85.9017
 -85.9165
 -85.9159
 -85.9169
 -85.917
 -85.9152
 -85.9149
 -85.9154
 -85.9155
 -85.9137
 -85.9131
 -85.9135
 -85.9131
 -85.9161
 -85.9162
 -85.9164
 -85.9159
 -85.9087
 -85.9086
 -85.9092
 -85.9087
 -85.9141
 -85.9146
 -85.9145
 -85.9143
 -85.8837
 -85.8826
 -85.8824
 -85.8838
 -85.9156
 -85.9159
 -85.9159
 -85.9158
 -85.8986
 -85.8979
 -85.8976
 -85.8979
 -85.9122
 -85.9112
 -85.9114
 -85.9153
 -85.9158
 -85.9159
 -85.9156
 -85.8902
 -85.8894
 -85.8893
 -85.8897
 -85.8857
 -85.8855
 -85.8851
 -85.8852
 -85.91
 -85.91
 -85.9096
 -85.9107
 -85.8992
 -85.8992
 -85.899
 -85.8985
 -85.909
 -85.9087
 -85.909
 -85.9088
 -85.9088
 -85.9088
 -85.91
 -85.8976
 -85.8974
 -85.8967
 -85.9083
 -85.9087
 -85.9043
 -85.9033
 -85.9189
 -85.9192
 -85.9192
 -85.9188
 -85.9032
 -85.9034
 -85.903
 -85.9039
 -85.9082
 -85.908
 -85.9089
 -85.9079
 -85.9059
 -85.9063
 -85.9059
 -85.9065
 -85.9141
 -85.9127
 -85.9129
 -85.9124
 -85.9123
 -85.8999
 -85.9001
 -85.8993
 -85.8994
 -85.8886
 -85.8886
 -85.8886
 -85.8886
 -85.9083
 -85.9077
 -85.9084
 -85.908
 -85.9092
 -85.9088
 -85.9085
 -85.9094
 -85.8727
 -85.8733
 -85.8736
 -85.874
 -85.9023
 -85.903
 -85.9026
 -85.9022
 -85.9015
 -85.9008
 -85.9005
 -85.9011
 -85.908
 -85.9075
 -85.8909
 -85.891
 -85.8913
 -85.8909
 -85.8963
 -85.8967
 -85.8965
 -85.8961
 -85.8919
 -85.8916
 -85.8914
 -85.8915
 -85.8951
 -85.8956
 -85.8955
 -85.8949
 -85.8915
 -85.8914
 -85.8911
 -85.8916
 -85.913
 -85.9126
 -85.9128
 -85.9133
 -85.9154
 -85.9153
 -85.9147
 -85.9151
 -85.8941
 -85.8938
 -85.8934
 -85.8941
 -85.9023
 -85.9017
 -85.9023
 -85.9019
 -85.9137
 -85.9131
 -85.9137
 -85.9133
 -85.8996
 -85.8991
 -85.8992
 -85.9001
 -85.894
 -85.8946
 -85.887
 -85.8874
 -85.8875
 -85.8869
 -85.9011
 -85.9008
 -85.9003
 -85.8999
 -85.9139
 -85.9136
 -85.9137
 -85.9145
 -85.9183
 -85.9179
 -85.918
 -85.9184
 -85.8747
 -85.8746
 -85.8984
 -85.8992
 -85.8993
 -85.8997
 -85.8974
 -85.8962
 -85.897
 -85.897
 -85.8967
 -85.8965
 -85.8923
 -85.8926
 -85.8926
 -85.8928
 -85.901
 -85.9018
 -85.9021
 -85.8837
 -85.8842
 -85.8843
 -85.8847
 -85.9156
 -85.9161
 -85.9152
 -85.9157
 -85.9182
 -85.9182
 -85.9181
 -85.9198
 -85.9196
 -85.9191
 -85.9194
 -85.9053
 -85.9064
 -85.9061
 -85.9062
 -85.9022
 -85.9032
 -85.902
 -85.9028
 -85.9118
 -85.9127
 -85.913
 -85.9125
 -85.9076
 -85.9075
 -85.9082
 -85.9075
 -85.9066
 -85.9073
 -85.9069
 -85.9037
 -85.9038
 -85.9034
 -85.9044
 -85.9103
 -85.9117
 -85.9112
 -85.9104
 -85.8997
 -85.8992
 -85.8996
 -85.8997
 -85.9028
 -85.9026
 -85.9035
 -85.9024
 -85.9087
 -85.9085
 -85.9082
 -85.9088
 -85.9024
 -85.902
 -85.9017
 -85.9025
 -85.8709
 -85.8706
 -85.8716
 -85.8715
 -85.8931
 -85.8927
 -85.8927
 -85.8923
 -85.9103
 -85.9102
 -85.9111
 -85.9112
 -85.8919
 -85.892
 -85.8909
 -85.8907
 -85.8899
 -85.8889
 -85.8899
 -85.8905
 -85.9143
 -85.9141
 -85.9145
 -85.9137
 -85.9133
 -85.9126
 -85.9133
 -85.9131
 -85.916
 -85.9154
 -85.9158
 -85.9161
 -85.9111
 -85.9111
 -85.9118
 -85.9115
 -85.8984
 -85.8982
 -85.8977
 -85.8982
 -85.8931
 -85.8928
 -85.8935
 -85.8928
 -85.9091
 -85.908
 -85.9091
 -85.9083
 -85.8934
 -85.8936
 -85.8938
 -85.8937
 -85.8875
 -85.8877
 -85.8879
 -85.8882
 -85.9017
 -85.9024
 -85.9018
 -85.9024
 -85.8969
 -85.8964
 -85.8959
 -85.8975
 -85.8978
 -85.8988
 -85.8981
 -85.8876
 -85.8872
 -85.8865
 -85.8872
 -85.894
 -85.8939
 -85.8936
 -85.8937
 -85.9099
 -85.9103
 -85.9099
 -85.9102
 -85.9032
 -85.9039
 -85.904
 -85.9201
 -85.9197
 -85.9197
 -85.92
 -85.917
 -85.9175
 -85.9179
 -85.9173
 -85.8965
 -85.8971
 -85.8961
 -85.8971
 -85.9045
 -85.905
 -85.8885
 -85.8885
 -85.8876
 -85.8888
 -85.9032
 -85.9025
 -85.9022
 -85.9028
 -85.9157
 -85.9158
 -85.9153
 -85.9158
 -85.8932
 -85.8934
 -85.8936
 -85.899
 -85.8991
 -85.8994
 -85.8983
 -85.8968
 -85.8978
 -85.8978
 -85.8976
 -85.9018
 -85.9025
 -85.9027
 -85.9018
 -85.9004
 -85.9009
 -85.9014
 -85.9008
 -85.9029
 -85.9033
 -85.9028
 -85.9036
 -85.8997
 -85.9003
 -85.9125
 -85.9121
 -85.913
 -85.9124
 -85.9002
 -85.8996
 -85.8998
 -85.9003
 -85.9065
 -85.9056
 -85.906
 -85.9
 -85.9007
 -85.9002
 -85.9007
 -85.9069
 -85.9065
 -85.906
 -85.9066
 -85.8921
 -85.8914
 -85.8919
 -85.891
 -85.9
 -85.8999
 -85.9008
 -85.9049
 -85.9051
 -85.9059
 -85.9045
 -85.9014
 -85.9012
 -85.9017
 -85.8918
 -85.892
 -85.8914
 -85.9073
 -85.9072
 -85.9071
 -85.9064
 -85.9018
 -85.9023
 -85.9025
 -85.8755
 -85.8757
 -85.876
 -85.8747
 -85.9076
 -85.9071
 -85.9067
 -85.9077
 -85.8975
 -85.8967
 -85.8968
 -85.8965
 -85.9137
 -85.9136
 -85.9138
 -85.9141
 -85.915
 -85.9145
 -85.9153
 -85.9152
 -85.8896
 -85.8907
 -85.8894
 -85.8896
 -85.9046
 -85.904
 -85.9035
 -85.895
 -85.8942
 -85.8948
 -85.8947
 -85.9147
 -85.9139
 -85.9144
 -85.9029
 -85.9036
 -85.9031
 -85.9038
 -85.9096
 -85.9098
 -85.9098
 -85.9096
 -85.9167
 -85.9168
 -85.9171
 -85.9166
 -85.8677
 -85.8672
 -85.8673
 -85.8677
 -85.8949
 -85.8951
 -85.8955
 -85.8948
 -85.904
 -85.9053
 -85.9048
 -85.9052
 -85.8864
 -85.8857
 -85.8854
 -85.9018
 -85.9024
 -85.9023
 -85.9016
 -85.9174
 -85.9083
 -85.9077
 -85.9069
 -85.9077
 -85.9144
 -85.9143
 -85.9144
 -85.9147
 -85.9118
 -85.9116
 -85.9114
 -85.912
 -85.9045
 -85.9043
 -85.903
 -85.9022
 -85.9023
 -85.9022
 -85.8766
 -85.8774
 -85.8766
 -85.8771
 -85.8962
 -85.8959
 -85.8956
 -85.8951
 -85.8951
 -85.8956
 -85.8952
 -85.9178
 -85.9186
 -85.9179
 -85.9178
 -85.9019
 -85.9018
 -85.9026
 -85.9026
 -85.9043
 -85.9039
 -85.9033
 -85.9039
 -85.9151
 -85.9146
 -85.9154
 -85.9146
 -85.9025
 -85.9023
 -85.9032
 -85.9026
 -85.8829
 -85.8831
 -85.8823
 -85.8826
 -85.9011
 -85.9009
 -85.9014
 -85.901
 -85.8946
 -85.8947
 -85.8948
 -85.8952
 -85.893
 -85.8924
 -85.8925
 -85.8928
 -85.8886
 -85.8888
 -85.8885
 -85.8885
 -85.8813
 -85.881
 -85.8808
 -85.8819
 -85.9195
 -85.9191
 -85.9192
 -85.9192
 -85.8785
 -85.8788
 -85.878
 -85.8792
 -85.902
 -85.9015
 -85.902
 -85.9013
 -85.919
 -85.9191
 -85.9187
 -85.9188
 -85.8984
 -85.8982
 -85.8987
 -85.8988
 -85.8885
 -85.9163
 -85.916
 -85.9161
 -85.9168
 -85.8916
 -85.8825
 -85.8835
 -85.8836
 -85.8826
 -85.9055
 -85.9065
 -85.9121
 -85.9112
 -85.9123
 -85.9115
 -85.9141
 -85.914
 -85.9145
 -85.9144
 -85.92
 -85.9196
 -85.9202
 -85.9124
 -85.9132
 -85.913
 -85.913
 -85.8985
 -85.9183
 -85.9091
 -85.9089
 -85.9087
 -85.9182
 -85.9185
 -85.9186
 -85.9183
 -85.8989
 -85.8988
 -85.8988
 -85.8983
 -85.8944
 -85.8946
 -85.894
 -85.8937
 -85.9084
 -85.9079
 -85.9081
 -85.9092
 -85.9176
 -85.918
 -85.9174
 -85.9173
 -85.9158
 -85.9156
 -85.9158
 -85.9155
 -85.9064
 -85.9075
 -85.9074
 -85.8806
 -85.88
 -85.8818
 -85.8805
 -85.8686
 -85.8695
 -85.8689
 -85.8694
 -85.8865
 -85.8855
 -85.8852
 -85.8859
 -85.9035
 -85.9042
 -85.9035
 -85.8835
 -85.8842
 -85.884
 -85.8834
 -85.9128
 -85.9126
 -85.9133
 -85.9133
 -85.9135
 -85.9131
 -85.9134
 -85.8917
 -85.8914
 -85.9097
 -85.91
 -85.9214
 -85.921
 -85.9213
 -85.9195
 -85.9197
 -85.9196
 -85.9198
 -85.8998
 -85.8993
 -85.9003
 -85.8998
 -85.8959
 -85.8958
 -85.8954
 -85.8963
 -85.9013
 -85.9012
 -85.902
 -85.9017
 -85.9187
 -85.9187
 -85.9188
 -85.9187
 -85.9098
 -85.9101
 -85.9099
 -85.9095
 -85.8884
 -85.8883
 -85.8883
 -85.8888
 -85.9098
 -85.9101
 -85.9096
 -85.9103
 -85.9049
 -85.9051
 -85.9043
 -85.9052
 -85.9086
 -85.9091
 -85.909
 -85.8662
 -85.8664
 -85.8665
 -85.8956
 -85.895
 -85.899
 -85.8989
 -85.8984
 -85.8994
 -85.9118
 -85.9126
 -85.912
 -85.9118
 -85.9099
 -85.9101
 -85.9109
 -85.9105
 -85.9105
 -85.9101
 -85.9112
 -85.8766
 -85.8766
 -85.888
 -85.8879
 -85.8884
 -85.8881
 -85.9049
 -85.8762
 -85.8753
 -85.8756
 -85.8757
 -85.8943
 -85.8952
 -85.8946
 -85.8945
 -85.9001
 -85.8997
 -85.8817
 -85.8832
 -85.8831
 -85.8823
 -85.9195
 -85.92
 -85.9198
 -85.9195
 -85.9174
 -85.9176
 -85.9173
 -85.918
 -85.8908
 -85.8922
 -85.8912
 -85.8918
 -85.8954
 -85.8949
 -85.8964
 -85.8961
 -85.8958
 -85.8954
 -85.8958
 -85.911
 -85.9115
 -85.9105
 -85.911
 -85.8883
 -85.8889
 -85.8893
 -85.8893
 -85.9015
 -85.9017
 -85.9014
 -85.9075
 -85.9078
 -85.908
 -85.9087
 -85.8953
 -85.8955
 -85.896
 -85.8957
 -85.8925
 -85.8932
 -85.8937
 -85.893
 -85.8931
 -85.8927
 -85.8928
 -85.8934
 -85.8981
 -85.8984
 -85.8991
 -85.8984
 -85.9074
 -85.907
 -85.8945
 -85.8946
 -85.8948
 -85.8942
 -85.9198
 -85.919
 -85.9192
 -85.9192
 -85.8921
 -85.8925
 -85.8921
 -85.8926
 -85.8851
 -85.8848
 -85.8857
 -85.8854
 -85.9051
 -85.9051
 -85.8797
 -85.8797
 -85.8791
 -85.8799
 -85.8968
 -85.8973
 -85.8964
 -85.9178
 -85.9177
 -85.9181
 -85.918
 -85.8807
 -85.8803
 -85.8805
 -85.8927
 -85.8926
 -85.8932
 -85.893
 -85.8818
 -85.892
 -85.8917
 -85.8918
 -85.8911
 -85.9025
 -85.902
 -85.9027
 -85.9025
 -85.899
 -85.8992
 -85.8996
 -85.899
 -85.9183
 -85.9188
 -85.9038
 -85.9042
 -85.9039
 -85.9037
 -85.8912
 -85.8902
 -85.8914
 -85.8901
 -85.8961
 -85.8975
 -85.8967
 -85.8962
 -85.9161
 -85.9158
 -85.9158
 -85.9158
 -85.8994
 -85.8997
 -85.9005
 -85.9002
 -85.9052
 -85.9139
 -85.9142
 -85.9136
 -85.8961
 -85.8964
 -85.8956
 -85.8966
 -85.9096
 -85.9094
 -85.9097
 -85.909
 -85.8972
 -85.8965
 -85.8968
 -85.8975
 -85.9181
 -85.9177
 -85.9175
 -85.9179
 -85.921
 -85.9212
 -85.9208
 -85.8929
 -85.8933
 -85.8939
 -85.8935
 -85.9068
 -85.9071
 -85.9062
 -85.9066
 -85.9089
 -85.9092
 -85.9096
 -85.9099
 -85.8949
 -85.8951
 -85.8922
 -85.8918
 -85.8916
 -85.8924
 -85.8979
 -85.8992
 -85.9055
 -85.9058
 -85.9054
 -85.9052
 -85.9071
 -85.9074
 -85.9079
 -85.9071
 -85.8983
 -85.8988
 -85.8994
 -85.8989
 -85.9048
 -85.9048
 -85.9049
 -85.915
 -85.9144
 -85.9141
 -85.9145
 -85.9119
 -85.9117
 -85.912
 -85.8985
 -85.8994
 -85.8982
 -85.899
 -85.8931
 -85.8921
 -85.8916
 -85.8928
 -85.9093
 -85.9084
 -85.9085
 -85.909
 -85.8994
 -85.8993
 -85.8984
 -85.8894
 -85.8893
 -85.8894
 -85.8893
 -85.8953
 -85.8953
 -85.8956
 -85.8958
 -85.9129
 -85.9126
 -85.9122
 -85.9199
 -85.9194
 -85.9195
 -85.9085
 -85.909
 -85.909
 -85.8953
 -85.8946
 -85.8955
 -85.895
 -85.9197
 -85.9197
 -85.9197
 -85.9199
 -85.9077
 -85.9073
 -85.9076
 -85.9082
 -85.9137
 -85.914
 -85.9147
 -85.9147
 -85.913
 -85.9134
 -85.913
 -85.9131
 -85.8845
 -85.8837
 -85.8839
 -85.898
 -85.8982
 -85.8977
 -85.8982
 -85.9138
 -85.9141
 -85.9135
 -85.9136
 -85.9005
 -85.9009
 -85.9008
 -85.9016
 -85.9099
 -85.91
 -85.9098
 -85.9092
 -85.9164
 -85.9168
 -85.8882
 -85.8887
 -85.8886
 -85.889
 -85.9114
 -85.9109
 -85.9119
 -85.9112
 -85.8984
 -85.8981
 -85.8978
 -85.8986
 -85.9089
 -85.908
 -85.919
 -85.9189
 -85.9185
 -85.9191
 -85.9136
 -85.9144
 -85.9133
 -85.9147
 -85.92
 -85.92
 -85.9205
 -85.9206
 -85.9111
 -85.9111
 -85.9114
 -85.9088
 -85.9098
 -85.9096
 -85.9093
 -85.9094
 -85.909
 -85.9092
 -85.9085
 -85.8941
 -85.8943
 -85.8937
 -85.8935
 -85.883
 -85.8826
 -85.8836
 -85.902
 -85.9021
 -85.9021
 -85.9149
 -85.9143
 -85.9147
 -85.9141
 -85.8986
 -85.8991
 -85.8997
 -85.8992
 -85.8915
 -85.8905
 -85.8908
 -85.8916
 -85.9026
 -85.9019
 -85.9015
 -85.9015
 -85.8969
 -85.898
 -85.8969
 -85.9191
 -85.9193
 -85.9187
 -85.9186
 -85.8889
 -85.8891
 -85.8913
 -85.8917
 -85.8917
 -85.9103
 -85.9105
 -85.9098
 -85.911
 -85.9016
 -85.9025
 -85.9024
 -85.9022
 -85.8904
 -85.8905
 -85.8911
 -85.8905
 -85.9043
 -85.903
 -85.9032
 -85.9039
 -85.8965
 -85.896
 -85.8969
 -85.897
 -85.9159
 -85.9161
 -85.9169
 -85.8954
 -85.8954
 -85.8959
 -85.8959
 -85.9042
 -85.9047
 -85.8899
 -85.8907
 -85.8905
 -85.89
 -85.891
 -85.8904
 -85.8907
 -85.8904
 -85.9164
 -85.9161
 -85.8924
 -85.893
 -85.8926
 -85.892
 -85.9029
 -85.9022
 -85.9025
 -85.9029
 -85.8976
 -85.8848
 -85.884
 -85.8843
 -85.9052
 -85.905
 -85.9052
 -85.9045
 -85.917
 -85.917
 -85.9167
 -85.9173
 -85.8846
 -85.885
 -85.8851
 -85.8843
 -85.8916
 -85.8921
 -85.8915
 -85.8916
 -85.9084
 -85.9087
 -85.9087
 -85.8857
 -85.8856
 -85.8862
 -85.8863
 -85.9199
 -85.9194
 -85.9196
 -85.9199
 -85.8882
 -85.8886
 -85.8888
 -85.8879
 -85.9078
 -85.9071
 -85.9076
 -85.9082
 -85.898
 -85.8985
 -85.8983
 -85.8978
 -85.8905
 -85.8907
 -85.8905
 -85.8967
 -85.8975
 -85.8966
 -85.8973
 -85.8906
 -85.8899
 -85.8903
 -85.8903
 -85.8918
 -85.8913
 -85.8916
 -85.9118
 -85.9112
 -85.912
 -85.9109
 -85.9103
 -85.9011
 -85.9026
 -85.9016
 -85.9017
 -85.9178
 -85.9175
 -85.9173
 -85.9175
 -85.9054
 -85.9062
 -85.905
 -85.906
 -85.9074
 -85.908
 -85.9074
 -85.9072
 -85.8915
 -85.8912
 -85.8919
 -85.8923
 -85.892
 -85.9074
 -85.9066
 -85.9071
 -85.9076
 -85.9174
 -85.9181
 -85.9034
 -85.9037
 -85.9029
 -85.9038
 -85.8904
 -85.8902
 -85.8907
 -85.9157
 -85.916
 -85.9155
 -85.9157
 -85.9037
 -85.9027
 -85.9031
 -85.9032
 -85.8912
 -85.8909
 -85.8913
 -85.8915
 -85.9015
 -85.9014
 -85.9024
 -85.9017
 -85.9071
 -85.9083
 -85.8872
 -85.8868
 -85.887
 -85.8867
 -85.8917
 -85.8931
 -85.8935
 -85.8932
 -85.8938
 -85.8935
 -85.8932
 -85.8923
 -85.8925
 -85.893
 -85.9032
 -85.903
 -85.9029
 -85.9061
 -85.9058
 -85.9055
 -85.9052
 -85.8939
 -85.8938
 -85.894
 -85.8938
 -85.8985
 -85.8982
 -85.9045
 -85.904
 -85.9043
 -85.9038
 -85.9046
 -85.9046
 -85.9015
 -85.9022
 -85.9024
 -85.9016
 -85.8792
 -85.8803
 -85.8801
 -85.8805
 -85.9042
 -85.8906
 -85.8912
 -85.8907
 -85.8906
 -85.9191
 -85.9194
 -85.919
 -85.9105
 -85.9103
 -85.9099
 -85.9106
 -85.9011
 -85.9014
 -85.9011
 -85.9001
 -85.9036
 -85.9042
 -85.9032
 -85.8927
 -85.8932
 -85.8929
 -85.8926
 -85.916
 -85.9165
 -85.9156
 -85.9162
 -85.908
 -85.9077
 -85.9083
 -85.908
 -85.9161
 -85.9163
 -85.9154
 -85.9159
 -85.8882
 -85.8881
 -85.8876
 -85.8877
 -85.8938
 -85.8944
 -85.9117
 -85.9114
 -85.9111
 -85.9115
 -85.9173
 -85.9172
 -85.9174
 -85.9171
 -85.9209
 -85.9211
 -85.9208
 -85.9212
 -85.9167
 -85.9162
 -85.9166
 -85.9074
 -85.908
 -85.9072
 -85.9077
 -85.917
 -85.9172
 -85.9173
 -85.9173
 -85.8885
 -85.8892
 -85.8896
 -85.889
 -85.914
 -85.9145
 -85.9146
 -85.9077
 -85.9074
 -85.9072
 -85.9073
 -85.8904
 -85.8901
 -85.8905
 -85.89
 -85.9085
 -85.9092
 -85.9088
 -85.9088
 -85.9055
 -85.9061
 -85.9064
 -85.9056
 -85.8943
 -85.8946
 -85.8951
 -85.8956
 -85.8878
 -85.8879
 -85.8871
 -85.8872
 -85.8993
 -85.8995
 -85.9001
 -85.8994
 -85.8774
 -85.8774
 -85.8787
 -85.878
 -85.8913
 -85.8917
 -85.8912
 -85.8929
 -85.8921
 -85.8921
 -85.8919
 -85.8738
 -85.8741
 -85.8732
 -85.8743
 -85.9157
 -85.9153
 -85.9153
 -85.913
 -85.9131
 -85.9137
 -85.9136
 -85.8933
 -85.8945
 -85.8942
 -85.8833
 -85.8836
 -85.8832
 -85.8874
 -85.8869
 -85.8876
 -85.8876
 -85.8942
 -85.8941
 -85.8946
 -85.8936
 -85.9078
 -85.9089
 -85.9084
 -85.9082
 -85.8795
 -85.8794
 -85.8799
 -85.879
 -85.9063
 -85.9051
 -85.9051
 -85.9061
 -85.9129
 -85.9132
 -85.9124
 -85.9129
 -85.9047
 -85.9047
 -85.9058
 -85.9053
 -85.8999
 -85.8994
 -85.9005
 -85.891
 -85.8909
 -85.8909
 -85.8913
 -85.9164
 -85.9168
 -85.917
 -85.9167
 -85.914
 -85.9145
 -85.914
 -85.9136
 -85.8941
 -85.8947
 -85.8943
 -85.8937
 -85.9175
 -85.9178
 -85.9181
 -85.9174
 -85.9181
 -85.9176
 -85.9176
 -85.9179
 -85.918
 -85.9175
 -85.9177
 -85.8816
 -85.8814
 -85.8741
 -85.8743
 -85.8738
 -85.8748
 -85.9066
 -85.9063
 -85.9058
 -85.9012
 -85.9007
 -85.9018
 -85.9008
 -85.9028
 -85.9037
 -85.9034
 -85.9029
 -85.8668
 -85.8989
 -85.9059
 -85.9067
 -85.9139
 -85.9143
 -85.9141
 -85.9141
 -85.8833
 -85.8969
 -85.8975
 -85.8969
 -85.9214
 -85.9212
 -85.9212
 -85.9212
 -85.9031
 -85.9025
 -85.9031
 -85.9037
 -85.918
 -85.9177
 -85.9181
 -85.9175
 -85.8998
 -85.9007
 -85.8991
 -85.8977
 -85.8986
 -85.898
 -85.916
 -85.9161
 -85.9155
 -85.9161
 -85.9063
 -85.9059
 -85.9054
 -85.9051
 -85.8888
 -85.8883
 -85.8892
 -85.8891
 -85.9133
 -85.9144
 -85.914
 -85.9182
 -85.9188
 -85.9189
 -85.9182
 -85.9136
 -85.9134
 -85.913
 -85.9134
 -85.8935
 -85.8934
 -85.8948
 -85.8934
 -85.8953
 -85.8948
 -85.8949
 -85.8949
 -85.916
 -85.9164
 -85.9164
 -85.9164
 -85.8987
 -85.8988
 -85.898
 -85.9121
 -85.9122
 -85.912
 -85.9116
 -85.8901
 -85.8907
 -85.8897
 -85.8898
 -85.9071
 -85.9074
 -85.9064
 -85.9068
 -85.8896
 -85.8902
 -85.8897
 -85.8896
 -85.9042
 -85.9047
 -85.904
 -85.9045
 -85.9128
 -85.9128
 -85.9134
 -85.9123
 -85.8882
 -85.8879
 -85.8885
 -85.9032
 -85.9039
 -85.9149
 -85.9147
 -85.9145
 -85.9142
 -85.8986
 -85.8981
 -85.898
 -85.8889
 -85.8884
 -85.8881
 -85.8884
 -85.9091
 -85.9094
 -85.909
 -85.9096
 -85.9071
 -85.907
 -85.9081
 -85.9073
 -85.8698
 -85.8698
 -85.8707
 -85.8701
 -85.9025
 -85.9017
 -85.9022
 -85.8768
 -85.8775
 -85.8778
 -85.9029
 -85.9027
 -85.9021
 -85.9027
 -85.9019
 -85.8879
 -85.8882
 -85.8869
 -85.8874
 -85.9
 -85.9008
 -85.901
 -85.9141
 -85.914
 -85.9141
 -85.9137
 -85.9007
 -85.9011
 -85.9015
 -85.9015
 -85.9019
 -85.9017
 -85.9016
 -85.9208
 -85.9207
 -85.9205
 -85.9202
 -85.8921
 -85.8935
 -85.8932
 -85.8928
 -85.8868
 -85.8868
 -85.8872
 -85.8871
 -85.8973
 -85.8971
 -85.8982
 -85.8974
 -85.9154
 -85.9154
 -85.9156
 -85.9149
 -85.8693
 -85.87
 -85.8693
 -85.8705
 -85.9121
 -85.9114
 -85.9118
 -85.9118
 -85.8866
 -85.8861
 -85.8866
 -85.8864
 -85.914
 -85.9127
 -85.9131
 -85.9137
 -85.9115
 -85.9111
 -85.9108
 -85.9112
 -85.9123
 -85.9126
 -85.8937
 -85.8932
 -85.8931
 -85.8936
 -85.9166
 -85.9166
 -85.9166
 -85.911
 -85.9101
 -85.9104
 -85.9111
 -85.8928
 -85.8934
 -85.893
 -85.8924
 -85.8966
 -85.8964
 -85.8972
 -85.8662
 -85.8662
 -85.8659
 -85.8662
 -85.9015
 -85.9007
 -85.9018
 -85.9166
 -85.9171
 -85.9166
 -85.9164
 -85.9126
 -85.9121
 -85.9156
 -85.9163
 -85.9166
 -85.916
 -85.9098
 -85.9098
 -85.8853
 -85.8855
 -85.8846
 -85.886
 -85.912
 -85.912
 -85.912
 -85.9114
 -85.9028
 -85.9031
 -85.8965
 -85.897
 -85.8968
 -85.8965
 -85.9136
 -85.9139
 -85.9141
 -85.9139
 -85.8942
 -85.893
 -85.8931
 -85.894
 -85.9162
 -85.9162
 -85.9167
 -85.9174
 -85.9053
 -85.9054
 -85.9047
 -85.8852
 -85.8849
 -85.8847
 -85.8852
 -85.9077
 -85.9076
 -85.9074
 -85.9069
 -85.8922
 -85.8914
 -85.8913
 -85.8908
 -85.893
 -85.892
 -85.8927
 -85.8686
 -85.8685
 -85.8686
 -85.869
 -85.8878
 -85.8887
 -85.889
 -85.888
 -85.9125
 -85.9122
 -85.9128
 -85.9121
 -85.9019
 -85.9022
 -85.9013
 -85.8975
 -85.8908
 -85.8912
 -85.891
 -85.8913
 -85.8987
 -85.8981
 -85.8986
 -85.8989
 -85.9102
 -85.9112
 -85.9113
 -85.9104
 -85.8898
 -85.8898
 -85.8911
 -85.8836
 -85.9051
 -85.9053
 -85.9046
 -85.9057
 -85.8911
 -85.892
 -85.8755
 -85.8747
 -85.8906
 -85.8912
 -85.8907
 -85.8899
 -85.9101
 -85.9106
 -85.9149
 -85.9148
 -85.915
 -85.9147
 -85.8965
 -85.8972
 -85.8972
 -85.8972
 -85.9185
 -85.9187
 -85.9191
 -85.9187
 -85.8959
 -85.896
 -85.8946
 -85.8946
 -85.9119
 -85.912
 -85.9115
 -85.9109
 -85.893
 -85.893
 -85.8934
 -85.8934
 -85.9117
 -85.912
 -85.9112
 -85.9117
 -85.8989
 -85.8997
 -85.9171
 -85.917
 -85.9094
 -85.91
 -85.9092
 -85.91
 -85.9089
 -85.9087
 -85.9088
 -85.9095
 -85.9041
 -85.9037
 -85.9044
 -85.9043
 -85.9117
 -85.911
 -85.912
 -85.9123
 -85.8927
 -85.892
 -85.8923
 -85.8923
 -85.9168
 -85.9167
 -85.9166
 -85.9174
 -85.9177
 -85.9173
 -85.9176
 -85.8897
 -85.8905
 -85.8905
 -85.8902
 -85.9095
 -85.9087
 -85.9088
 -85.9092
 -85.8887
 -85.8895
 -85.8896
 -85.8903
 -85.9035
 -85.9008
 -85.9018
 -85.9018
 -85.9009
 -85.9138
 -85.9137
 -85.9137
 -85.9131
 -85.878
 -85.8773
 -85.8777
 -85.8786
 -85.9091
 -85.9095
 -85.91
 -85.9094
 -85.9024
 -85.9031
 -85.9016
 -85.9023
 -85.9109
 -85.9104
 -85.9104
 -85.9102
 -85.9079
 -85.9207
 -85.9206
 -85.9201
 -85.9203
 -85.9124
 -85.9126
 -85.9117
 -85.9118
 -85.875
 -85.8754
 -85.876
 -85.8749
 -85.8989
 -85.8982
 -85.8978
 -85.8985
 -85.8949
 -85.903
 -85.9031
 -85.9033
 -85.9039
 -85.9161
 -85.9162
 -85.9156
 -85.9153
 -85.9141
 -85.914
 -85.9147
 -85.9159
 -85.9149
 -85.9154
 -85.9152
 -85.8696
 -85.8699
 -85.9117
 -85.9114
 -85.9114
 -85.8942
 -85.8942
 -85.894
 -85.8948
 -85.9103
 -85.91
 -85.9103
 -85.9097
 -85.9041
 -85.9091
 -85.9084
 -85.9092
 -85.909
 -85.9171
 -85.9161
 -85.9164
 -85.917
 -85.9089
 -85.9094
 -85.9101
 -85.909
 -85.8985
 -85.8988
 -85.8976
 -85.8994
 -85.8903
 -85.8904
 -85.8901
 -85.8906
 -85.9202
 -85.9196
 -85.9202
 -85.92
 -85.9104
 -85.9102
 -85.9107
 -85.9099
 -85.9197
 -85.9195
 -85.9196
 -85.9199
 -85.8944
 -85.8933
 -85.8945
 -85.8946
 -85.9035
 -85.9032
 -85.9171
 -85.9178
 -85.9171
 -85.9174
 -85.9038
 -85.904
 -85.9039
 -85.9047
 -85.9013
 -85.902
 -85.9037
 -85.9039
 -85.9045
 -85.9037
 -85.9145
 -85.9145
 -85.9142
 -85.9149
 -85.8964
 -85.8955
 -85.8951
 -85.8959
 -85.8842
 -85.8848
 -85.8842
 -85.8842
 -85.8887
 -85.8884
 -85.8884
 -85.8883
 -85.8954
 -85.8959
 -85.896
 -85.8953
 -85.8992
 -85.8982
 -85.8988
 -85.9006
 -85.8994
 -85.9
 -85.9002
 -85.9032
 -85.9027
 -85.9024
 -85.9031
 -85.884
 -85.8839
 -85.8842
 -85.898
 -85.8973
 -85.8983
 -85.8981
 -85.9044
 -85.905
 -85.905
 -85.904
 -85.8934
 -85.8925
 -85.8937
 -85.8926
 -85.8959
 -85.8965
 -85.8964
 -85.8963
 -85.9051
 -85.905
 -85.9055
 -85.906
 -85.9027
 -85.902
 -85.9026
 -85.9024
 -85.9096
 -85.9093
 -85.9095
 -85.9092
 -85.8881
 -85.8883
 -85.8885
 -85.9134
 -85.913
 -85.9138
 -85.9132
 -85.8935
 -85.8942
 -85.8936
 -85.8931
 -85.8994
 -85.899
 -85.8986
 -85.8997
 -85.9007
 -85.9014
 -85.9015
 -85.9062
 -85.9062
 -85.9065
 -85.907
 -85.9087
 -85.9087
 -85.9092
 -85.9083
 -85.9094
 -85.9097
 -85.9101
 -85.9148
 -85.915
 -85.9151
 -85.9086
 -85.9082
 -85.9078
 -85.9082
 -85.9148
 -85.915
 -85.9143
 -85.9166
 -85.9166
 -85.9166
 -85.9161
 -85.9011
 -85.8996
 -85.9005
 -85.9001
 -85.8946
 -85.8941
 -85.8949
 -85.8943
 -85.892
 -85.9148
 -85.9145
 -85.9155
 -85.9145
 -85.915
 -85.9138
 -85.868
 -85.8677
 -85.868
 -85.8684
 -85.9119
 -85.9113
 -85.8993
 -85.8989
 -85.8998
 -85.9196
 -85.92
 -85.9066
 -85.9056
 -85.9059
 -85.9062
 -85.8987
 -85.8991
 -85.8991
 -85.9121
 -85.9133
 -85.9127
 -85.913
 -85.895
 -85.8952
 -85.8947
 -85.8956
 -85.8731
 -85.8738
 -85.8736
 -85.8728
 -85.9058
 -85.9059
 -85.9057
 -85.9065
 -85.9141
 -85.9152
 -85.9142
 -85.9129
 -85.9127
 -85.913
 -85.9125
 -85.8929
 -85.8919
 -85.892
 -85.8915
 -85.8938
 -85.8944
 -85.8899
 -85.8905
 -85.8896
 -85.9193
 -85.9189
 -85.9136
 -85.9129
 -85.9136
 -85.9129
 -85.9035
 -85.9044
 -85.9042
 -85.9117
 -85.9109
 -85.9122
 -85.9121
 -85.8934
 -85.8922
 -85.8924
 -85.893
 -85.902
 -85.9019
 -85.9026
 -85.9028
 -85.9018
 -85.9023
 -85.9025
 -85.9019
 -85.8918
 -85.8922
 -85.8917
 -85.8941
 -85.8936
 -85.894
 -85.8939
 -85.921
 -85.9213
 -85.9211
 -85.9215
 -85.8864
 -85.8853
 -85.9163
 -85.9166
 -85.9166
 -85.9162
 -85.8999
 -85.9007
 -85.9003
 -85.8999
 -85.9045
 -85.905
 -85.905
 -85.9051
 -85.8886
 -85.8891
 -85.9026
 -85.9021
 -85.9021
 -85.9016
 -85.8993
 -85.899
 -85.8988
 -85.8996
 -85.9141
 -85.914
 -85.9138
 -85.9142
 -85.9008
 -85.9014
 -85.9015
 -85.9006
 -85.8947
 -85.8947
 -85.9072
 -85.9073
 -85.9068
 -85.9074
 -85.9103
 -85.9102
 -85.9107
 -85.9035
 -85.9042
 -85.904
 -85.9044
 -85.8912
 -85.8916
 -85.891
 -85.8921
 -85.8725
 -85.8734
 -85.8732
 -85.8723
 -85.9014
 -85.901
 -85.9017
 -85.9025
 -85.9051
 -85.9059
 -85.9052
 -85.9052
 -85.8984
 -85.8988
 -85.898
 -85.8982
 -85.8951
 -85.8947
 -85.8952
 -85.8956
 -85.9144
 -85.9149
 -85.9072
 -85.9068
 -85.9065
 -85.8797
 -85.8794
 -85.8788
 -85.8799
 -85.8924
 -85.8918
 -85.8927
 -85.8914
 -85.9038
 -85.9039
 -85.9036
 -85.9032
 -85.9144
 -85.9146
 -85.9146
 -85.9
 -85.8996
 -85.8987
 -85.8987
 -85.8941
 -85.8951
 -85.8947
 -85.894
 -85.911
 -85.9101
 -85.9102
 -85.9106
 -85.9061
 -85.9059
 -85.9056
 -85.9057
 -85.9126
 -85.9127
 -85.9126
 -85.9123
 -85.9123
 -85.9124
 -85.9123
 -85.8976
 -85.8978
 -85.8971
 -85.8968
 -85.9008
 -85.9004
 -85.9012
 -85.8742
 -85.8744
 -85.8743
 -85.8738
 -85.8946
 -85.8947
 -85.8858
 -85.8853
 -85.8861
 -85.8866
 -85.8917
 -85.8892
 -85.9154
 -85.895
 -85.8943
 -85.8948
 -85.8939
 -85.9201
 -85.9071
 -85.9067
 -85.9071
 -85.9062
 -85.8947
 -85.8952
 -85.8949
 -85.8979
 -85.8986
 -85.8986
 -85.9132
 -85.9134
 -85.9126
 -85.9133
 -85.9135
 -85.9131
 -85.9136
 -85.9131
 -85.8903
 -85.8893
 -85.8893
 -85.8899
 -85.9178
 -85.9178
 -85.9182
 -85.9175
 -85.9021
 -85.9015
 -85.9007
 -85.9133
 -85.9137
 -85.9136
 -85.9047
 -85.904
 -85.9043
 -85.9048
 -85.895
 -85.8955
 -85.8946
 -85.8948
 -85.9052
 -85.9063
 -85.9052
 -85.896
 -85.8964
 -85.8964
 -85.8956
 -85.8999
 -85.9009
 -85.9137
 -85.9142
 -85.9144
 -85.9149
 -85.9154
 -85.9161
 -85.9157
 -85.9156
 -85.8913
 -85.8921
 -85.8912
 -85.892
 -85.9103
 -85.9095
 -85.91
 -85.9106
 -85.9066
 -85.9055
 -85.9064
 -85.907
 -85.8986
 -85.8979
 -85.899
 -85.8985
 -85.9146
 -85.9143
 -85.9141
 -85.9137
 -85.9001
 -85.8993
 -85.9006
 -85.9002
 -85.9022
 -85.9018
 -85.9018
 -85.9029
 -85.8998
 -85.8994
 -85.9
 -85.9001
 -85.8925
 -85.8934
 -85.8905
 -85.891
 -85.8916
 -85.8906
 -85.8843
 -85.8831
 -85.8841
 -85.8843
 -85.9069
 -85.9068
 -85.9066
 -85.9075
 -85.9054
 -85.9049
 -85.9047
 -85.9184
 -85.9185
 -85.9185
 -85.9185
 -85.9193
 -85.9196
 -85.9191
 -85.9162
 -85.9165
 -85.9158
 -85.9049
 -85.9057
 -85.9061
 -85.9051
 -85.9092
 -85.9095
 -85.9098
 -85.9087
 -85.9138
 -85.9143
 -85.914
 -85.9144
 -85.8955
 -85.8947
 -85.8949
 -85.8953
 -85.8866
 -85.8872
 -85.8876
 -85.8876
 -85.9198
 -85.9198
 -85.9194
 -85.9203
 -85.8937
 -85.8934
 -85.893
 -85.8938
 -85.9036
 -85.9035
 -85.9039
 -85.9034
 -85.92
 -85.92
 -85.9194
 -85.9204
 -85.9071
 -85.9063
 -85.9073
 -85.907
 -85.8994
 -85.8991
 -85.8995
 -85.8991
 -85.8941
 -85.8936
 -85.8937
 -85.8891
 -85.89
 -85.8895
 -85.889
 -85.8918
 -85.8916
 -85.892
 -85.8915
 -85.8909
 -85.8907
 -85.893
 -85.8935
 -85.8921
 -85.9122
 -85.9118
 -85.9117
 -85.9116
 -85.918
 -85.9177
 -85.9178
 -85.9177
 -85.9085
 -85.9082
 -85.9086
 -85.9076
 -85.9005
 -85.9149
 -85.9152
 -85.9151
 -85.9146
 -85.8897
 -85.8897
 -85.8896
 -85.8895
 -85.9184
 -85.9187
 -85.9183
 -85.919
 -85.897
 -85.8965
 -85.8976
 -85.9102
 -85.8892
 -85.8892
 -85.8885
 -85.8925
 -85.892
 -85.8915
 -85.8928
 -85.9032
 -85.9032
 -85.9021
 -85.9029
 -85.9114
 -85.9114
 -85.9109
 -85.9119
 -85.9003
 -85.9101
 -85.9097
 -85.9097
 -85.9008
 -85.9007
 -85.9009
 -85.9016
 -85.8961
 -85.8963
 -85.8957
 -85.8957
 -85.898
 -85.8971
 -85.8977
 -85.8979
 -85.9104
 -85.8935
 -85.8936
 -85.894
 -85.912
 -85.9115
 -85.9122
 -85.9118
 -85.9146
 -85.9145
 -85.9152
 -85.9142
 -85.9174
 -85.9177
 -85.9174
 -85.8958
 -85.8958
 -85.8953
 -85.8958
 -85.8875
 -85.8871
 -85.8876
 -85.913
 -85.913
 -85.9143
 -85.914
 -85.9137
 -85.9137
 -85.9007
 -85.901
 -85.9014
 -85.9188
 -85.9188
 -85.9192
 -85.9187
 -85.9145
 -85.9143
 -85.9146
 -85.9147
 -85.9078
 -85.9078
 -85.9082
 -85.9085
 -85.9041
 -85.9044
 -85.9038
 -85.9032
 -85.8941
 -85.894
 -85.8938
 -85.8943
 -85.9142
 -85.9142
 -85.9138
 -85.9146
 -85.8963
 -85.8965
 -85.8955
 -85.8983
 -85.8989
 -85.8991
 -85.8992
 -85.9176
 -85.9175
 -85.9182
 -85.9179
 -85.9098
 -85.9098
 -85.9097
 -85.9094
 -85.9192
 -85.9189
 -85.9184
 -85.919
 -85.8975
 -85.898
 -85.8983
 -85.8982
 -85.9038
 -85.9039
 -85.9032
 -85.9045
 -85.9158
 -85.9157
 -85.9161
 -85.9159
 -85.903
 -85.9036
 -85.9027
 -85.9029
 -85.9193
 -85.9197
 -85.9193
 -85.8952
 -85.8949
 -85.8948
 -85.895
 -85.9054
 -85.9054
 -85.905
 -85.9046
 -85.907
 -85.9075
 -85.907
 -85.9072
 -85.9019
 -85.9015
 -85.9027
 -85.9018
 -85.9147
 -85.9147
 -85.9154
 -85.9149
 -85.9015
 -85.9006
 -85.9011
 -85.9009
 -85.9069
 -85.9067
 -85.9067
 -85.9064
 -85.8893
 -85.8893
 -85.8892
 -85.8893
 -85.9129
 -85.913
 -85.9125
 -85.9122
 -85.8885
 -85.8884
 -85.8884
 -85.894
 -85.8936
 -85.8937
 -85.8941
 -85.8907
 -85.8911
 -85.8925
 -85.8913
 -85.9109
 -85.9108
 -85.9112
 -85.9116
 -85.9085
 -85.9094
 -85.9086
 -85.9089
 -85.8968
 -85.896
 -85.8961
 -85.8956
 -85.9206
 -85.9204
 -85.9201
 -85.8746
 -85.8744
 -85.9067
 -85.9071
 -85.9063
 -85.9067
 -85.8817
 -85.8808
 -85.8799
 -85.8807
 -85.9085
 -85.9087
 -85.9094
 -85.909
 -85.8986
 -85.8965
 -85.8962
 -85.896
 -85.8956
 -85.9118
 -85.9119
 -85.9121
 -85.9123
 -85.9162
 -85.9158
 -85.9165
 -85.916
 -85.8893
 -85.8892
 -85.91
 -85.9104
 -85.9114
 -85.9103
 -85.9051
 -85.9037
 -85.9053
 -85.9045
 -85.8937
 -85.8937
 -85.8933
 -85.8947
 -85.9015
 -85.9007
 -85.9006
 -85.9015
 -85.9137
 -85.913
 -85.9145
 -85.9183
 -85.9181
 -85.9181
 -85.918
 -85.9198
 -85.9199
 -85.9201
 -85.8969
 -85.8965
 -85.8966
 -85.8971
 -85.9163
 -85.916
 -85.9157
 -85.9157
 -85.8911
 -85.8906
 -85.8908
 -85.8909
 -85.9084
 -85.908
 -85.9085
 -85.9075
 -85.905
 -85.9059
 -85.9052
 -85.9052
 -85.9182
 -85.9182
 -85.9181
 -85.9185
 -85.9094
 -85.9097
 -85.9093
 -85.9088
 -85.8792
 -85.8787
 -85.8786
 -85.8792
 -85.9003
 -85.899
 -85.9001
 -85.8994
 -85.8968
 -85.8976
 -85.8977
 -85.8966
 -85.9113
 -85.9115
 -85.9109
 -85.9106
 -85.8919
 -85.8914
 -85.8912
 -85.8913
 -85.9063
 -85.9058
 -85.9057
 -85.9066
 -85.8956
 -85.8952
 -85.8949
 -85.8861
 -85.8857
 -85.8856
 -85.8855
 -85.9063
 -85.907
 -85.906
 -85.9078
 -85.9077
 -85.9074
 -85.8935
 -85.8929
 -85.8924
 -85.8912
 -85.8911
 -85.8915
 -85.8917
 -85.9159
 -85.8672
 -85.8675
 -85.8674
 -85.8668
 -85.9146
 -85.9142
 -85.915
 -85.9145
 -85.8893
 -85.898
 -85.8979
 -85.8978
 -85.8986
 -85.8967
 -85.8962
 -85.8978
 -85.8924
 -85.8936
 -85.893
 -85.8927
 -85.8804
 -85.8802
 -85.8808
 -85.8796
 -85.891
 -85.8915
 -85.8914
 -85.9043
 -85.9039
 -85.9039
 -85.8969
 -85.8966
 -85.9211
 -85.9207
 -85.9206
 -85.8908
 -85.8915
 -85.8905
 -85.8973
 -85.8979
 -85.8982
 -85.9162
 -85.9168
 -85.9168
 -85.9119
 -85.9119
 -85.9124
 -85.912
 -85.8937
 -85.8939
 -85.8943
 -85.8883
 -85.8876
 -85.9179
 -85.9176
 -85.9183
 -85.9181
 -85.8828
 -85.8832
 -85.8821
 -85.8837
 -85.8906
 -85.8904
 -85.8725
 -85.8718
 -85.8768
 -85.8766
 -85.8769
 -85.8978
 -85.8984
 -85.8976
 -85.9174
 -85.9169
 -85.9165
 -85.9097
 -85.9097
 -85.9102
 -85.8945
 -85.8944
 -85.8952
 -85.8956
 -85.8949
 -85.9156
 -85.8882
 -85.8881
 -85.8885
 -85.8885
 -85.897
 -85.8984
 -85.8974
 -85.8976
 -85.9113
 -85.9113
 -85.9117
 -85.9094
 -85.9095
 -85.9091
 -85.9093
 -85.8979
 -85.8976
 -85.8983
 -85.8989
 -85.9104
 -85.9106
 -85.9113
 -85.9112
 -85.9121
 -85.9117
 -85.9121
 -85.9126
 -85.9021
 -85.9101
 -85.9105
 -85.9105
 -85.9108
 -85.9191
 -85.9193
 -85.919
 -85.9188
 -85.8923
 -85.891
 -85.8907
 -85.8916
 -85.9181
 -85.9186
 -85.9184
 -85.9183
 -85.8716
 -85.8721
 -85.8713
 -85.9173
 -85.917
 -85.9178
 -85.9176
 -85.8926
 -85.8925
 -85.8918
 -85.8918
 -85.9134
 -85.9128
 -85.9132
 -85.9137
 -85.8907
 -85.8908
 -85.8892
 -85.8896
 -85.919
 -85.9133
 -85.9125
 -85.9129
 -85.9123
 -85.916
 -85.9164
 -85.9164
 -85.8883
 -85.8887
 -85.8882
 -85.8879
 -85.9108
 -85.9103
 -85.9103
 -85.9099
 -85.9061
 -85.9069
 -85.9069
 -85.9065
 -85.9049
 -85.9053
 -85.9045
 -85.9043
 -85.9206
 -85.9201
 -85.8991
 -85.8991
 -85.899
 -85.8979
 -85.8986
 -85.8989
 -85.8992
 -85.9104
 -85.9099
 -85.911
 -85.9111
 -85.9098
 -85.9101
 -85.91
 -85.9106
 -85.9066
 -85.9069
 -85.9072
 -85.9064
 -85.8931
 -85.8931
 -85.8955
 -85.895
 -85.895
 -85.8975
 -85.898
 -85.898
 -85.8981
 -85.8865
 -85.8859
 -85.8861
 -85.8861
 -85.8972
 -85.8965
 -85.8958
 -85.8801
 -85.8801
 -85.881
 -85.8971
 -85.8971
 -85.8965
 -85.8977
 -85.8928
 -85.8937
 -85.8924
 -85.9016
 -85.9109
 -85.9105
 -85.9114
 -85.8991
 -85.8989
 -85.8995
 -85.8999
 -85.8903
 -85.8903
 -85.8921
 -85.8912
 -85.9027
 -85.9033
 -85.9034
 -85.9035
 -85.9128
 -85.9124
 -85.9206
 -85.9203
 -85.9201
 -85.9206
 -85.9107
 -85.9108
 -85.9111
 -85.9102
 -85.9
 -85.8998
 -85.8998
 -85.9003
 -85.9189
 -85.919
 -85.9197
 -85.9186
 -85.9188
 -85.9189
 -85.9191
 -85.9034
 -85.9026
 -85.9022
 -85.903
 -85.8902
 -85.8899
 -85.8904
 -85.8991
 -85.8991
 -85.9
 -85.8991
 -85.8874
 -85.8865
 -85.8876
 -85.8864
 -85.9085
 -85.9085
 -85.9087
 -85.9071
 -85.8894
 -85.8895
 -85.8894
 -85.8896
 -85.8938
 -85.8942
 -85.8944
 -85.8941
 -85.9176
 -85.917
 -85.9178
 -85.9171
 -85.9031
 -85.9031
 -85.9025
 -85.9032
 -85.8969
 -85.8965
 -85.8972
 -85.8966
 -85.9117
 -85.9117
 -85.9122
 -85.9132
 -85.9129
 -85.9127
 -85.8983
 -85.8992
 -85.8989
 -85.8999
 -85.9002
 -85.9007
 -85.9004
 -85.9004
 -85.8903
 -85.8907
 -85.8902
 -85.8977
 -85.8972
 -85.8968
 -85.8691
 -85.8684
 -85.8691
 -85.8687
 -85.8943
 -85.8946
 -85.8881
 -85.8885
 -85.8882
 -85.8874
 -85.9052
 -85.9044
 -85.9051
 -85.9043
 -85.8805
 -85.8816
 -85.882
 -85.8812
 -85.8922
 -85.8921
 -85.8914
 -85.9092
 -85.9094
 -85.9093
 -85.9089
 -85.8917
 -85.8924
 -85.8915
 -85.8898
 -85.8899
 -85.889
 -85.8893
 -85.8971
 -85.8967
 -85.8968
 -85.8976
 -85.912
 -85.9134
 -85.8766
 -85.877
 -85.8937
 -85.8932
 -85.9004
 -85.8997
 -85.9
 -85.8998
 -85.9083
 -85.9089
 -85.9084
 -85.9091
 -85.9016
 -85.9017
 -85.9021
 -85.9022
 -85.8877
 -85.8865
 -85.8873
 -85.8871
 -85.9057
 -85.9049
 -85.9052
 -85.8903
 -85.8899
 -85.8902
 -85.8902
 -85.9163
 -85.9162
 -85.9167
 -85.9159
 -85.9088
 -85.9088
 -85.9089
 -85.9081
 -85.891
 -85.8915
 -85.8908
 -85.9
 -85.8991
 -85.8999
 -85.9003
 -85.8879
 -85.8877
 -85.8881
 -85.8918
 -85.8926
 -85.8923
 -85.8919
 -85.8916
 -85.8915
 -85.8922
 -85.8917
 -85.8997
 -85.899
 -85.8989
 -85.8986
 -85.9191
 -85.9188
 -85.9185
 -85.9187
 -85.9067
 -85.9076
 -85.9072
 -85.9074
 -85.8992
 -85.8982
 -85.8989
 -85.9037
 -85.9034
 -85.9033
 -85.9157
 -85.915
 -85.9157
 -85.9152
 -85.9068
 -85.9068
 -85.9063
 -85.9072
 -85.8985
 -85.8992
 -85.8993
 -85.8994
 -85.8865
 -85.8867
 -85.8909
 -85.8906
 -85.8913
 -85.8912
 -85.8743
 -85.874
 -85.8731
 -85.8741
 -85.9113
 -85.9114
 -85.9114
 -85.911
 -85.8924
 -85.8916
 -85.8919
 -85.8918
 -85.9018
 -85.9012
 -85.9015
 -85.9006
 -85.8849
 -85.8846
 -85.8847
 -85.8845
 -85.9041
 -85.9039
 -85.9036
 -85.9035
 -85.8998
 -85.9103
 -85.9101
 -85.9094
 -85.9096
 -85.8987
 -85.8978
 -85.8975
 -85.8984
 -85.8979
 -85.8984
 -85.899
 -85.8987
 -85.8961
 -85.8953
 -85.8955
 -85.8952
 -85.8906
 -85.8899
 -85.8911
 -85.9137
 -85.9138
 -85.914
 -85.9128
 -85.8981
 -85.8979
 -85.8979
 -85.8976
 -85.913
 -85.9132
 -85.9137
 -85.909
 -85.9085
 -85.9089
 -85.9087
 -85.912
 -85.913
 -85.9125
 -85.9131
 -85.8888
 -85.8896
 -85.8887
 -85.8668
 -85.8671
 -85.8672
 -85.9094
 -85.9103
 -85.9102
 -85.9043
 -85.9055
 -85.905
 -85.9057
 -85.8969
 -85.8972
 -85.8976
 -85.8969
 -85.8992
 -85.8994
 -85.8984
 -85.8987
 -85.8784
 -85.8789
 -85.8776
 -85.8791
 -85.9019
 -85.9015
 -85.9014
 -85.9013
 -85.9062
 -85.9063
 -85.9069
 -85.9059
 -85.8923
 -85.8924
 -85.8942
 -85.8929
 -85.8935
 -85.8936
 -85.9095
 -85.909
 -85.9094
 -85.9093
 -85.892
 -85.8926
 -85.907
 -85.9067
 -85.8881
 -85.8682
 -85.8681
 -85.8682
 -85.8688
 -85.8847
 -85.8856
 -85.9198
 -85.9202
 -85.9198
 -85.8866
 -85.8874
 -85.888
 -85.8873
 -85.9104
 -85.9103
 -85.8937
 -85.8935
 -85.8936
 -85.8937
 -85.896
 -85.8973
 -85.8968
 -85.9103
 -85.9108
 -85.9105
 -85.9112
 -85.9074
 -85.9081
 -85.9074
 -85.9077
 -85.9144
 -85.9145
 -85.9151
 -85.8993
 -85.8986
 -85.8994
 -85.8984
 -85.9017
 -85.9145
 -85.9137
 -85.9144
 -85.9142
 -85.8884
 -85.8883
 -85.8886
 -85.8889
 -85.9034
 -85.9027
 -85.9033
 -85.9026
 -85.9114
 -85.9105
 -85.9112
 -85.9106
 -85.872
 -85.8723
 -85.8726
 -85.8727
 -85.8911
 -85.9189
 -85.8976
 -85.8985
 -85.8978
 -85.8971
 -85.903
 -85.9035
 -85.9027
 -85.9025
 -85.8926
 -85.8916
 -85.8922
 -85.8923
 -85.9043
 -85.904
 -85.9043
 -85.9045
 -85.8906
 -85.8907
 -85.8913
 -85.8897
 -85.8902
 -85.8907
 -85.8902
 -85.8989
 -85.8996
 -85.8984
 -85.899
 -85.9114
 -85.9119
 -85.9107
 -85.9206
 -85.921
 -85.9207
 -85.9205
 -85.878
 -85.8773
 -85.8771
 -85.901
 -85.9011
 -85.8995
 -85.8998
 -85.899
 -85.9002
 -85.9171
 -85.9169
 -85.917
 -85.9173
 -85.9095
 -85.909
 -85.9093
 -85.9088
 -85.8905
 -85.8916
 -85.8909
 -85.883
 -85.8986
 -85.8979
 -85.8981
 -85.8987
 -85.9003
 -85.9006
 -85.9005
 -85.9089
 -85.9085
 -85.9086
 -85.9091
 -85.9118
 -85.9109
 -85.9115
 -85.9112
 -85.8978
 -85.8974
 -85.9099
 -85.9098
 -85.9102
 -85.9107
 -85.9048
 -85.9046
 -85.9047
 -85.9054
 -85.9185
 -85.9187
 -85.9063
 -85.9056
 -85.9064
 -85.906
 -85.9099
 -85.9102
 -85.9104
 -85.9107
 -85.9089
 -85.9093
 -85.9088
 -85.9089
 -85.9012
 -85.9016
 -85.8991
 -85.8995
 -85.8988
 -85.8984
 -85.8956
 -85.895
 -85.8953
 -85.8954
 -85.9047
 -85.9052
 -85.9052
 -85.9047
 -85.89
 -85.8905
 -85.8909
 -85.8913
 -85.8925
 -85.8922
 -85.892
 -85.8922
 -85.876
 -85.8764
 -85.8763
 -85.8754
 -85.8956
 -85.8945
 -85.9037
 -85.9027
 -85.9036
 -85.9031
 -85.8977
 -85.8974
 -85.8979
 -85.8984
 -85.9025
 -85.9029
 -85.9032
 -85.9027
 -85.8995
 -85.8995
 -85.9101
 -85.9098
 -85.9197
 -85.9198
 -85.9198
 -85.9199
 -85.8873
 -85.8991
 -85.8991
 -85.8993
 -85.8998
 -85.9024
 -85.9016
 -85.9018
 -85.9019
 -85.8943
 -85.8938
 -85.8936
 -85.893
 -85.9086
 -85.9077
 -85.9085
 -85.9078
 -85.9029
 -85.9024
 -85.9021
 -85.9028
 -85.8905
 -85.8904
 -85.8908
 -85.8899
 -85.8897
 -85.8969
 -85.8978
 -85.8969
 -85.8975
 -85.8966
 -85.8978
 -85.8969
 -85.8965
 -85.8908
 -85.8908
 -85.8902
 -85.8907
 -85.8926
 -85.8929
 -85.8939
 -85.8935
 -85.8996
 -85.9003
 -85.8992
 -85.8991
 -85.8908
 -85.8905
 -85.8902
 -85.8904
 -85.904
 -85.9043
 -85.9033
 -85.8944
 -85.8944
 -85.8942
 -85.8941
 -85.8816
 -85.8822
 -85.9037
 -85.9041
 -85.9043
 -85.9031
 -85.904
 -85.9036
 -85.904
 -85.8885
 -85.889
 -85.8893
 -85.8865
 -85.8868
 -85.8868
 -85.8865
 -85.9069
 -85.9067
 -85.9072
 -85.9064
 -85.9031
 -85.9021
 -85.9031
 -85.9127
 -85.9118
 -85.9122
 -85.9006
 -85.9
 -85.9001
 -85.9144
 -85.9144
 -85.9144
 -85.874
 -85.8734
 -85.8736
 -85.874
 -85.9186
 -85.9187
 -85.9185
 -85.9187
 -85.8955
 -85.8949
 -85.9048
 -85.904
 -85.8904
 -85.8905
 -85.8904
 -85.8911
 -85.9059
 -85.9057
 -85.9065
 -85.9106
 -85.9111
 -85.911
 -85.9112
 -85.9142
 -85.9133
 -85.8885
 -85.8886
 -85.8884
 -85.904
 -85.9038
 -85.9032
 -85.8934
 -85.8927
 -85.8935
 -85.8886
 -85.8886
 -85.8882
 -85.888
 -85.8986
 -85.8988
 -85.8981
 -85.8991
 -85.8977
 -85.8969
 -85.8971
 -85.8975
 -85.9079
 -85.9077
 -85.9076
 -85.9084
 -85.9104
 -85.91
 -85.9103
 -85.9096
 -85.8967
 -85.8965
 -85.8973
 -85.9068
 -85.9066
 -85.9062
 -85.9092
 -85.9098
 -85.9094
 -85.9095
 -85.9212
 -85.9211
 -85.9213
 -85.9015
 -85.9014
 -85.9013
 -85.9087
 -85.909
 -85.9081
 -85.9005
 -85.901
 -85.9002
 -85.895
 -85.8942
 -85.8943
 -85.8887
 -85.8891
 -85.8889
 -85.8891
 -85.9007
 -85.9005
 -85.9012
 -85.9006
 -85.8934
 -85.8931
 -85.8925
 -85.8903
 -85.891
 -85.9085
 -85.908
 -85.909
 -85.9084
 -85.9085
 -85.9089
 -85.9083
 -85.9078
 -85.8909
 -85.8917
 -85.892
 -85.8922
 -85.8905
 -85.8898
 -85.8902
 -85.8897
 -85.8842
 -85.8838
 -85.8842
 -85.8835
 -85.9166
 -85.9169
 -85.9135
 -85.9128
 -85.9131
 -85.9135
 -85.9184
 -85.8946
 -85.8954
 -85.8944
 -85.9021
 -85.9024
 -85.9017
 -85.9016
 -85.8909
 -85.8909
 -85.8999
 -85.8999
 -85.9004
 -85.8878
 -85.888
 -85.9125
 -85.9126
 -85.9132
 -85.9121
 -85.9147
 -85.9146
 -85.9155
 -85.9151
 -85.9111
 -85.9113
 -85.9107
 -85.8954
 -85.8959
 -85.8959
 -85.9142
 -85.9141
 -85.9144
 -85.9145
 -85.8933
 -85.8923
 -85.893
 -85.8934
 -85.9118
 -85.9113
 -85.9113
 -85.9117
 -85.8935
 -85.8926
 -85.8924
 -85.8939
 -85.8891
 -85.8895
 -85.8888
 -85.9185
 -85.9193
 -85.9188
 -85.9187
 -85.8897
 -85.89
 -85.8899
 -85.8985
 -85.8989
 -85.8995
 -85.8989
 -85.9173
 -85.9179
 -85.9176
 -85.8932
 -85.8926
 -85.8933
 -85.8928
 -85.9067
 -85.9162
 -85.9165
 -85.9154
 -85.9161
 -85.8877
 -85.8879
 -85.8882
 -85.8879
 -85.9089
 -85.9078
 -85.9086
 -85.9089
 -85.9017
 -85.902
 -85.9008
 -85.8892
 -85.8887
 -85.8894
 -85.8876
 -85.9075
 -85.9073
 -85.9078
 -85.8925
 -85.8923
 -85.8749
 -85.8741
 -85.875
 -85.8754
 -85.8845
 -85.8829
 -85.8828
 -85.9145
 -85.9142
 -85.9157
 -85.9149
 -85.9148
 -85.9151
 -85.8858
 -85.8862
 -85.8852
 -85.8863
 -85.8976
 -85.898
 -85.898
 -85.8981
 -85.8999
 -85.8989
 -85.899
 -85.8993
 -85.9033
 -85.9031
 -85.9039
 -85.9031
 -85.9039
 -85.9027
 -85.9035
 -85.9029
 -85.9173
 -85.8904
 -85.8901
 -85.8905
 -85.8902
 -85.9176
 -85.9174
 -85.9179
 -85.9046
 -85.9038
 -85.9035
 -85.9037
 -85.8887
 -85.8894
 -85.8896
 -85.9026
 -85.902
 -85.9025
 -85.9019
 -85.9008
 -85.9078
 -85.908
 -85.9087
 -85.9084
 -85.8937
 -85.8937
 -85.8937
 -85.901
 -85.9023
 -85.9018
 -85.9178
 -85.9175
 -85.917
 -85.9174
 -85.9002
 -85.8999
 -85.8997
 -85.872
 -85.8724
 -85.8715
 -85.9002
 -85.8997
 -85.9001
 -85.899
 -85.9082
 -85.9088
 -85.9087
 -85.9015
 -85.9016
 -85.9144
 -85.9146
 -85.9141
 -85.9141
 -85.9112
 -85.9118
 -85.9114
 -85.9114
 -85.9192
 -85.9191
 -85.9188
 -85.9186
 -85.9036
 -85.9022
 -85.9032
 -85.9036
 -85.9098
 -85.9096
 -85.9093
 -85.909
 -85.9144
 -85.9148
 -85.9151
 -85.8928
 -85.8932
 -85.8921
 -85.8926
 -85.8993
 -85.9
 -85.8962
 -85.8957
 -85.8964
 -85.896
 -85.9083
 -85.9081
 -85.9082
 -85.9086
 -85.9002
 -85.9009
 -85.9006
 -85.9
 -85.9079
 -85.9076
 -85.9086
 -85.9077
 -85.9013
 -85.9016
 -85.902
 -85.9021
 -85.9006
 -85.8999
 -85.9001
 -85.9137
 -85.9133
 -85.9136
 -85.9166
 -85.9164
 -85.9163
 -85.9172
 -85.9154
 -85.9153
 -85.9157
 -85.91
 -85.9108
 -85.9101
 -85.8774
 -85.8772
 -85.8766
 -85.8992
 -85.9001
 -85.8994
 -85.9132
 -85.9136
 -85.9133
 -85.9132
 -85.8991
 -85.8995
 -85.8991
 -85.9038
 -85.9043
 -85.9041
 -85.9035
 -85.9066
 -85.9051
 -85.9057
 -85.9055
 -85.9007
 -85.9013
 -85.9012
 -85.9018
 -85.8916
 -85.8921
 -85.8917
 -85.8914
 -85.8995
 -85.9038
 -85.9038
 -85.9042
 -85.9029
 -85.8897
 -85.8899
 -85.89
 -85.8899
 -85.8888
 -85.8894
 -85.889
 -85.8893
 -85.8906
 -85.8908
 -85.8907
 -85.8903
 -85.907
 -85.907
 -85.9077
 -85.9081
 -85.8928
 -85.8924
 -85.8926
 -85.8928
 -85.919
 -85.9184
 -85.9189
 -85.9185
 -85.8828
 -85.8833
 -85.8839
 -85.8837
 -85.8921
 -85.8922
 -85.892
 -85.8875
 -85.887
 -85.8868
 -85.8868
 -85.8898
 -85.8894
 -85.8903
 -85.8902
 -85.8903
 -85.902
 -85.9019
 -85.9023
 -85.9035
 -85.9168
 -85.9162
 -85.916
 -85.9166
 -85.9165
 -85.9168
 -85.9163
 -85.8912
 -85.8908
 -85.9182
 -85.9186
 -85.9181
 -85.9138
 -85.9137
 -85.9138
 -85.9143
 -85.8898
 -85.8895
 -85.8898
 -85.9188
 -85.919
 -85.9185
 -85.9192
 -85.8958
 -85.896
 -85.8965
 -85.8954
 -85.8908
 -85.8899
 -85.8903
 -85.8909
 -85.8872
 -85.8882
 -85.8878
 -85.8876
 -85.88
 -85.8802
 -85.8796
 -85.8796
 -85.9055
 -85.9067
 -85.9062
 -85.9065
 -85.8966
 -85.8966
 -85.8963
 -85.8954
 -85.9185
 -85.9181
 -85.9185
 -85.871
 -85.8719
 -85.8714
 -85.8723
 -85.8843
 -85.8852
 -85.8847
 -85.8855
 -85.9185
 -85.9191
 -85.9188
 -85.9187
 -85.9011
 -85.9012
 -85.9019
 -85.9152
 -85.9159
 -85.9161
 -85.891
 -85.8909
 -85.8899
 -85.9186
 -85.9184
 -85.9182
 -85.9184
 -85.9137
 -85.9133
 -85.9132
 -85.9127
 -85.8938
 -85.8943
 -85.8948
 -85.8942
 -85.8966
 -85.8958
 -85.8965
 -85.8955
 -85.9116
 -85.9116
 -85.9116
 -85.9123
 -85.903
 -85.9026
 -85.9021
 -85.9024
 -85.8817
 -85.8825
 -85.8826
 -85.8824
 -85.9144
 -85.9133
 -85.914
 -85.9137
 -85.9193
 -85.9017
 -85.902
 -85.9025
 -85.9024
 -85.9163
 -85.9166
 -85.9164
 -85.917
 -85.8897
 -85.8897
 -85.8899
 -85.8899
 -85.9181
 -85.9184
 -85.9178
 -85.9177
 -85.9003
 -85.9001
 -85.8969
 -85.8965
 -85.8971
 -85.8973
 -85.911
 -85.9102
 -85.9102
 -85.9102
 -85.9038
 -85.9046
 -85.9044
 -85.8964
 -85.8963
 -85.8966
 -85.9113
 -85.9112
 -85.9105
 -85.9106
 -85.9094
 -85.9091
 -85.9097
 -85.9092
 -85.8913
 -85.8909
 -85.8907
 -85.9008
 -85.9023
 -85.9024
 -85.9014
 -85.883
 -85.8827
 -85.8835
 -85.8824
 -85.8817
 -85.9187
 -85.9176
 -85.9187
 -85.9179
 -85.902
 -85.9016
 -85.9012
 -85.902
 -85.915
 -85.9154
 -85.8989
 -85.8977
 -85.8978
 -85.8933
 -85.8927
 -85.8937
 -85.8935
 -85.9183
 -85.9181
 -85.9185
 -85.9185
 -85.8906
 -85.8908
 -85.8907
 -85.8938
 -85.8936
 -85.8941
 -85.8936
 -85.8962
 -85.8971
 -85.8964
 -85.8954
 -85.9081
 -85.9093
 -85.9084
 -85.9089
 -85.8925
 -85.8934
 -85.8929
 -85.8928
 -85.9104
 -85.9057
 -85.9066
 -85.9068
 -85.9055
 -85.9165
 -85.9166
 -85.916
 -85.9177
 -85.9175
 -85.9174
 -85.9171
 -85.9063
 -85.9067
 -85.9059
 -85.9063
 -85.9199
 -85.9198
 -85.9198
 -85.9192
 -85.8963
 -85.9044
 -85.9033
 -85.9034
 -85.9041
 -85.9021
 -85.9009
 -85.9015
 -85.9017
 -85.8802
 -85.8811
 -85.8814
 -85.8805
 -85.8997
 -85.9
 -85.9002
 -85.8993
 -85.8985
 -85.8986
 -85.8989
 -85.8993
 -85.8991
 -85.8992
 -85.8998
 -85.9152
 -85.9147
 -85.9144
 -85.8985
 -85.8976
 -85.8978
 -85.8982
 -85.9143
 -85.9152
 -85.9148
 -85.901
 -85.9004
 -85.9028
 -85.9033
 -85.9031
 -85.9026
 -85.9023
 -85.9026
 -85.9017
 -85.9019
 -85.9028
 -85.9025
 -85.9158
 -85.9161
 -85.9161
 -85.8964
 -85.9173
 -85.9038
 -85.9043
 -85.9037
 -85.903
 -85.8897
 -85.8897
 -85.8889
 -85.8915
 -85.8923
 -85.8927
 -85.9026
 -85.9029
 -85.9021
 -85.9004
 -85.9004
 -85.9007
 -85.9011
 -85.9021
 -85.9014
 -85.9025
 -85.9015
 -85.8714
 -85.8716
 -85.8708
 -85.9113
 -85.9106
 -85.9112
 -85.9003
 -85.9006
 -85.9128
 -85.9121
 -85.9123
 -85.912
 -85.9048
 -85.9054
 -85.9047
 -85.8805
 -85.8808
 -85.8797
 -85.8801
 -85.8984
 -85.8975
 -85.8983
 -85.8976
 -85.8919
 -85.8916
 -85.8913
 -85.8911
 -85.9078
 -85.9068
 -85.9074
 -85.9078
 -85.8952
 -85.8945
 -85.8951
 -85.8941
 -85.8829
 -85.8827
 -85.8827
 -85.8962
 -85.896
 -85.8956
 -85.8958
 -85.9079
 -85.9087
 -85.9083
 -85.9084
 -85.9012
 -85.902
 -85.9022
 -85.9017
 -85.893
 -85.8927
 -85.8931
 -85.8977
 -85.8971
 -85.8974
 -85.8973
 -85.8917
 -85.8909
 -85.8917
 -85.8911
 -85.8878
 -85.8888
 -85.8885
 -85.8875
 -85.9181
 -85.9184
 -85.9181
 -85.9184
 -85.8909
 -85.8914
 -85.8913
 -85.8914
 -85.8926
 -85.8921
 -85.8928
 -85.8928
 -85.9067
 -85.9075
 -85.9073
 -85.9078
 -85.8957
 -85.8955
 -85.8963
 -85.8959
 -85.9209
 -85.921
 -85.921
 -85.9211
 -85.8992
 -85.8988
 -85.8995
 -85.8892
 -85.8888
 -85.8889
 -85.8895
 -85.8906
 -85.8904
 -85.8905
 -85.8903
 -85.8907
 -85.8895
 -85.9092
 -85.9085
 -85.9092
 -85.9083
 -85.9207
 -85.9204
 -85.9206
 -85.9205
 -85.8974
 -85.8967
 -85.8971
 -85.8967
 -85.8915
 -85.8912
 -85.8911
 -85.9076
 -85.9068
 -85.9068
 -85.9074
 -85.8992
 -85.8991
 -85.8993
 -85.9
 -85.8933
 -85.8934
 -85.8932
 -85.8939
 -85.8887
 -85.8896
 -85.8891
 -85.9117
 -85.9124
 -85.9127
 -85.9118
 -85.914
 -85.9138
 -85.9134
 -85.8975
 -85.8974
 -85.8979
 -85.8984
 -85.8981
 -85.8978
 -85.8987
 -85.8929
 -85.8938
 -85.8942
 -85.8939
 -85.9073
 -85.9069
 -85.9065
 -85.8906
 -85.8906
 -85.8899
 -85.9017
 -85.9025
 -85.9023
 -85.9139
 -85.9132
 -85.9137
 -85.9086
 -85.9084
 -85.896
 -85.8964
 -85.8958
 -85.8964
 -85.8967
 -85.8963
 -85.9001
 -85.8992
 -85.8933
 -85.888
 -85.8881
 -85.8875
 -85.9146
 -85.9146
 -85.9136
 -85.8976
 -85.8982
 -85.898
 -85.8975
 -85.8938
 -85.9013
 -85.9017
 -85.9076
 -85.9078
 -85.9073
 -85.9081
 -85.9012
 -85.9005
 -85.9013
 -85.8978
 -85.8981
 -85.897
 -85.8978
 -85.8961
 -85.8974
 -85.8986
 -85.8979
 -85.8975
 -85.8989
 -85.9154
 -85.9148
 -85.9147
 -85.9152
 -85.916
 -85.9163
 -85.9169
 -85.9168
 -85.8905
 -85.891
 -85.9008
 -85.9009
 -85.9005
 -85.8999
 -85.9043
 -85.9045
 -85.9048
 -85.9051
 -85.9063
 -85.907
 -85.9063
 -85.9062
 -85.9002
 -85.8997
 -85.8995
 -85.9003
 -85.8988
 -85.8994
 -85.899
 -85.8987
 -85.9138
 -85.9129
 -85.9138
 -85.9137
 -85.8912
 -85.892
 -85.8923
 -85.8928
 -85.8915
 -85.8923
 -85.8919
 -85.9115
 -85.912
 -85.9128
 -85.9131
 -85.893
 -85.8936
 -85.8933
 -85.8938
 -85.9173
 -85.9169
 -85.9173
 -85.9172
 -85.9143
 -85.914
 -85.9142
 -85.9138
 -85.8969
 -85.8972
 -85.8966
 -85.8969
 -85.9088
 -85.909
 -85.9087
 -85.908
 -85.8936
 -85.8939
 -85.8945
 -85.8947
 -85.9112
 -85.9108
 -85.911
 -85.891
 -85.8914
 -85.8909
 -85.8912
 -85.9054
 -85.9051
 -85.9056
 -85.9059
 -85.8962
 -85.8964
 -85.9103
 -85.9115
 -85.9109
 -85.9108
 -85.9118
 -85.9116
 -85.9111
 -85.8994
 -85.9003
 -85.8995
 -85.9124
 -85.9125
 -85.9128
 -85.9132
 -85.8835
 -85.8838
 -85.8844
 -85.8842
 -85.8933
 -85.8936
 -85.8941
 -85.8944
 -85.9055
 -85.9045
 -85.9046
 -85.9055
 -85.9158
 -85.916
 -85.9155
 -85.9161
 -85.9143
 -85.9148
 -85.9149
 -85.9144
 -85.9158
 -85.9157
 -85.9159
 -85.9156
 -85.9158
 -85.8947
 -85.8952
 -85.8947
 -85.8954
 -85.8914
 -85.8916
 -85.8906
 -85.8913
 -85.8945
 -85.8945
 -85.8961
 -85.8968
 -85.8963
 -85.8961
 -85.8982
 -85.8982
 -85.899
 -85.8982
 -85.8919
 -85.8919
 -85.8913
 -85.9022
 -85.9017
 -85.9018
 -85.9016
 -85.9211
 -85.921
 -85.9207
 -85.8949
 -85.8948
 -85.8951
 -85.8959
 -85.9126
 -85.9117
 -85.9122
 -85.9125
 -85.908
 -85.9087
 -85.9084
 -85.9011
 -85.9007
 -85.9015
 -85.9087
 -85.9095
 -85.9087
 -85.9137
 -85.9133
 -85.9081
 -85.9081
 -85.908
 -85.8937
 -85.894
 -85.8941
 -85.8934
 -85.9166
 -85.917
 -85.9167
 -85.9165
 -85.9056
 -85.9064
 -85.906
 -85.8784
 -85.8775
 -85.8771
 -85.8782
 -85.8889
 -85.8886
 -85.9037
 -85.8962
 -85.8972
 -85.8966
 -85.8962
 -85.9021
 -85.903
 -85.9029
 -85.9108
 -85.9109
 -85.9103
 -85.9109
 -85.9177
 -85.9179
 -85.901
 -85.9007
 -85.9007
 -85.9002
 -85.8879
 -85.8872
 -85.8872
 -85.888
 -85.9146
 -85.915
 -85.9149
 -85.9146
 -85.9053
 -85.9056
 -85.9051
 -85.8726
 -85.8721
 -85.8715
 -85.8716
 -85.8911
 -85.8909
 -85.8905
 -85.8947
 -85.8953
 -85.8942
 -85.8949
 -85.9053
 -85.9054
 -85.905
 -85.9059
 -85.901
 -85.9016
 -85.8894
 -85.8895
 -85.8895
 -85.8895
 -85.9058
 -85.9066
 -85.8948
 -85.8938
 -85.8942
 -85.8945
 -85.8975
 -85.8978
 -85.8969
 -85.8976
 -85.9013
 -85.9021
 -85.9024
 -85.9017
 -85.8941
 -85.8937
 -85.8928
 -85.9078
 -85.9069
 -85.9078
 -85.907
 -85.9118
 -85.9124
 -85.9129
 -85.9119
 -85.9109
 -85.9109
 -85.911
 -85.9115
 -85.8873
 -85.8865
 -85.887
 -85.8863
 -85.9018
 -85.9012
 -85.8762
 -85.8754
 -85.8756
 -85.8749
 -85.8974
 -85.8966
 -85.8962
 -85.918
 -85.869
 -85.8693
 -85.8693
 -85.8681
 -85.9
 -85.9004
 -85.8999
 -85.9
 -85.8958
 -85.8966
 -85.8961
 -85.9112
 -85.9118
 -85.9118
 -85.9111
 -85.9115
 -85.9112
 -85.912
 -85.9119
 -85.9107
 -85.911
 -85.9105
 -85.9102
 -85.894
 -85.8945
 -85.8936
 -85.8945
 -85.8907
 -85.8904
 -85.89
 -85.89
 -85.9062
 -85.9063
 -85.907
 -85.9062
 -85.8978
 -85.8968
 -85.8983
 -85.8976
 -85.9206
 -85.916
 -85.9161
 -85.9047
 -85.9047
 -85.8982
 -85.8976
 -85.8978
 -85.9165
 -85.9173
 -85.9168
 -85.9166
 -85.8995
 -85.8992
 -85.9047
 -85.9041
 -85.8804
 -85.8813
 -85.8803
 -85.8812
 -85.8939
 -85.8936
 -85.8931
 -85.8934
 -85.9056
 -85.9065
 -85.9058
 -85.9062
 -85.882
 -85.8813
 -85.8819
 -85.8822
 -85.9193
 -85.9191
 -85.9197
 -85.9192
 -85.916
 -85.9154
 -85.9175
 -85.9172
 -85.9167
 -85.9176
 -85.9121
 -85.9126
 -85.8964
 -85.8968
 -85.8961
 -85.8702
 -85.871
 -85.87
 -85.8701
 -85.8831
 -85.8837
 -85.8839
 -85.8832
 -85.9164
 -85.9168
 -85.9164
 -85.9162
 -85.9089
 -85.9099
 -85.9093
 -85.9028
 -85.902
 -85.9015
 -85.9023
 -85.8948
 -85.8959
 -85.895
 -85.8948
 -85.9139
 -85.9144
 -85.9142
 -85.9166
 -85.9018
 -85.9028
 -85.8937
 -85.894
 -85.9079
 -85.9087
 -85.9077
 -85.908
 -85.8907
 -85.8899
 -85.891
 -85.8898
 -85.8902
 -85.8895
 -85.8898
 -85.8715
 -85.8727
 -85.8725
 -85.8722
 -85.8947
 -85.8951
 -85.8951
 -85.8957
 -85.9142
 -85.9143
 -85.913
 -85.9135
 -85.9133
 -85.9135
 -85.8934
 -85.8933
 -85.894
 -85.893
 -85.9108
 -85.9105
 -85.9111
 -85.9081
 -85.9081
 -85.9083
 -85.9077
 -85.9132
 -85.9136
 -85.9129
 -85.9138
 -85.8948
 -85.8956
 -85.8953
 -85.8949
 -85.9177
 -85.917
 -85.8988
 -85.8786
 -85.879
 -85.8795
 -85.8798
 -85.9106
 -85.9105
 -85.911
 -85.8832
 -85.8826
 -85.8829
 -85.8823
 -85.9077
 -85.9076
 -85.9076
 -85.9082
 -85.8895
 -85.8894
 -85.8887
 -85.8896
 -85.8922
 -85.8921
 -85.8927
 -85.8928
 -85.9068
 -85.9073
 -85.9073
 -85.8964
 -85.8966
 -85.8962
 -85.8958
 -85.9061
 -85.9059
 -85.9064
 -85.9053
 -85.904
 -85.9035
 -85.9122
 -85.9124
 -85.9123
 -85.9082
 -85.9084
 -85.9077
 -85.8782
 -85.8784
 -85.8791
 -85.8784
 -85.8905
 -85.8912
 -85.8903
 -85.8914
 -85.9139
 -85.9131
 -85.9132
 -85.9131
 -85.9126
 -85.9124
 -85.8926
 -85.894
 -85.8927
 -85.9084
 -85.9076
 -85.9078
 -85.9074
 -85.908
 -85.9079
 -85.9076
 -85.8943
 -85.8939
 -85.8944
 -85.8945
 -85.9166
 -85.9168
 -85.8966
 -85.8963
 -85.8967
 -85.8971
 -85.8934
 -85.8934
 -85.8937
 -85.909
 -85.9092
 -85.9008
 -85.9003
 -85.9008
 -85.9014
 -85.8901
 -85.8899
 -85.9066
 -85.9064
 -85.897
 -85.8959
 -85.896
 -85.8966
 -85.9023
 -85.9023
 -85.9018
 -85.9029
 -85.9023
 -85.9018
 -85.9023
 -85.8856
 -85.8857
 -85.8853
 -85.8868
 -85.8829
 -85.8829
 -85.8835
 -85.8834
 -85.9081
 -85.9075
 -85.9069
 -85.9074
 -85.9145
 -85.9146
 -85.9141
 -85.9141
 -85.9038
