 -85.9137
 -85.9146
 -85.9144
 -85.9149
 -85.9297
 -85.9299
 -85.9303
 -85.9305
 -85.9261
 -85.9255
 -85.9262
 -85.9257
 -85.9267
 -85.9262
 -85.926
 -85.9258
 -85.9357
 -85.9361
 -85.9355
 -85.9353
 -85.9349
 -85.9345
 -85.9352
 -85.9347
 -85.9102
 -85.9097
 -85.9099
 -85.9102
 -85.9111
 -85.9113
 -85.9113
 -85.9109
 -85.9348
 -85.9346
 -85.9341
 -85.9345
 -85.9347
 -85.9348
 -85.9346
 -85.9353
 -85.9081
 -85.9077
 -85.9083
 -85.9084
 -85.9257
 -85.9258
 -85.9252
 -85.9256
 -85.9167
 -85.9167
 -85.9162
 -85.9172
 -85.9308
 -85.9301
 -85.9297
 -85.9303
 -85.9233
 -85.923
 -85.9234
 -85.9239
 -85.9121
 -85.9116
 -85.9125
 -85.9117
 -85.9335
 -85.9338
 -85.9334
 -85.9339
 -85.9273
 -85.9269
 -85.9274
 -85.9271
 -85.9237
 -85.9239
 -85.924
 -85.9243
 -85.9325
 -85.9325
 -85.9328
 -85.9331
 -85.9108
 -85.9101
 -85.9109
 -85.9103
 -85.9366
 -85.9367
 -85.9371
 -85.937
 -85.8992
 -85.8988
 -85.8987
 -85.8993
 -85.9294
 -85.9296
 -85.929
 -85.9289
 -85.9225
 -85.9221
 -85.9225
 -85.9228
 -85.9248
 -85.9249
 -85.9246
 -85.9244
 -85.9199
 -85.9206
 -85.921
 -85.9199
 -85.9117
 -85.9113
 -85.9119
 -85.9117
 -85.9165
 -85.9163
 -85.9158
 -85.9162
 -85.9302
 -85.9302
 -85.9298
 -85.9295
 -85.9228
 -85.9237
 -85.9226
 -85.923
 -85.9168
 -85.9173
 -85.9173
 -85.9168
 -85.9283
 -85.9278
 -85.9285
 -85.9279
 -85.9298
 -85.9295
 -85.9295
 -85.9296
 -85.917
 -85.9165
 -85.9172
 -85.9161
 -85.9129
 -85.9128
 -85.9127
 -85.9128
 -85.9278
 -85.9269
 -85.9277
 -85.9275
 -85.9076
 -85.908
 -85.9081
 -85.9083
 -85.9286
 -85.9286
 -85.9295
 -85.9292
 -85.9374
 -85.9371
 -85.9373
 -85.937
 -85.9254
 -85.9253
 -85.9256
 -85.9247
 -85.9298
 -85.9303
 -85.93
 -85.9299
 -85.9091
 -85.909
 -85.9095
 -85.9087
 -85.9274
 -85.9271
 -85.9272
 -85.9278
 -85.9347
 -85.9345
 -85.935
 -85.9348
 -85.9152
 -85.9158
 -85.9155
 -85.9153
 -85.9278
 -85.9287
 -85.9284
 -85.9284
 -85.9124
 -85.913
 -85.9124
 -85.9118
 -85.9176
 -85.9172
 -85.917
 -85.9167
 -85.9239
 -85.9233
 -85.9232
 -85.9229
 -85.9114
 -85.9112
 -85.9109
 -85.9114
 -85.9242
 -85.9237
 -85.9237
 -85.9241
 -85.9183
 -85.9175
 -85.9183
 -85.9173
 -85.9254
 -85.9258
 -85.9254
 -85.9258
 -85.9161
 -85.9166
 -85.9163
 -85.9171
 -85.9255
 -85.9254
 -85.926
 -85.9251
 -85.9287
 -85.9288
 -85.9291
 -85.9294
 -85.9296
 -85.9293
 -85.9296
 -85.9288
 -85.9152
 -85.9153
 -85.9144
 -85.9156
 -85.9195
 -85.9192
 -85.9193
 -85.9201
 -85.9006
 -85.9001
 -85.8997
 -85.9002
 -85.9165
 -85.9164
 -85.9158
 -85.9163
 -85.9229
 -85.9238
 -85.9235
 -85.9236
 -85.9187
 -85.9186
 -85.9194
 -85.9181
 -85.9183
 -85.9191
 -85.9183
 -85.919
 -85.9117
 -85.9113
 -85.9119
 -85.9118
 -85.933
 -85.9336
 -85.9337
 -85.9329
 -85.9359
 -85.936
 -85.9361
 -85.9363
 -85.9243
 -85.9251
 -85.9238
 -85.9242
 -85.9166
 -85.9165
 -85.917
 -85.9163
 -85.9285
 -85.9287
 -85.9291
 -85.9284
 -85.9108
 -85.9097
 -85.91
 -85.91
 -85.9106
 -85.91
 -85.91
 -85.9107
 -85.8996
 -85.8992
 -85.8998
 -85.8997
 -85.9258
 -85.9264
 -85.9261
 -85.9267
 -85.9149
 -85.9156
 -85.9158
 -85.9149
 -85.9136
 -85.9131
 -85.9137
 -85.9142
 -85.9363
 -85.9367
 -85.9365
 -85.9367
 -85.9129
 -85.9126
 -85.9122
 -85.9128
 -85.9139
 -85.9135
 -85.9131
 -85.9138
 -85.9149
 -85.9154
 -85.9149
 -85.9144
 -85.9207
 -85.9206
 -85.9212
 -85.921
 -85.9142
 -85.9148
 -85.9144
 -85.9146
 -85.9175
 -85.9179
 -85.9181
 -85.9177
 -85.9194
 -85.9192
 -85.919
 -85.9187
 -85.9126
 -85.9119
 -85.9128
 -85.912
 -85.8977
 -85.8976
 -85.8986
 -85.8986
 -85.9113
 -85.9115
 -85.9119
 -85.9116
 -85.926
 -85.9257
 -85.9263
 -85.9253
 -85.9262
 -85.926
 -85.9266
 -85.9261
 -85.9295
 -85.9292
 -85.9291
 -85.9298
 -85.9106
 -85.9105
 -85.9106
 -85.9108
 -85.9368
 -85.9368
 -85.9365
 -85.9371
 -85.9292
 -85.9297
 -85.9291
 -85.9293
 -85.9082
 -85.9081
 -85.9075
 -85.9075
 -85.9178
 -85.9178
 -85.9175
 -85.9187
 -85.9136
 -85.914
 -85.9131
 -85.9135
 -85.9138
 -85.9135
 -85.9135
 -85.9109
 -85.9108
 -85.9108
 -85.9106
 -85.9274
 -85.927
 -85.9267
 -85.9276
 -85.92
 -85.9208
 -85.9205
 -85.92
 -85.9267
 -85.9273
 -85.9268
 -85.9165
 -85.9156
 -85.9161
 -85.9158
 -85.9219
 -85.9222
 -85.9221
 -85.9214
 -85.9321
 -85.9316
 -85.9316
 -85.9325
 -85.9108
 -85.9109
 -85.9118
 -85.9115
 -85.9127
 -85.9122
 -85.9119
 -85.9123
 -85.926
 -85.9254
 -85.9252
 -85.9254
 -85.9286
 -85.9283
 -85.9292
 -85.9291
 -85.9091
 -85.9091
 -85.9088
 -85.9083
 -85.9122
 -85.9124
 -85.9134
 -85.9131
 -85.919
 -85.9198
 -85.9202
 -85.9191
 -85.9348
 -85.9352
 -85.9349
 -85.9351
 -85.9258
 -85.9265
 -85.9266
 -85.9264
 -85.922
 -85.9209
 -85.9219
 -85.9219
 -85.9017
 -85.9008
 -85.9018
 -85.9017
 -85.9208
 -85.9201
 -85.921
 -85.9214
 -85.9319
 -85.9314
 -85.9319
 -85.9311
 -85.9144
 -85.9134
 -85.9149
 -85.9145
 -85.913
 -85.9131
 -85.9125
 -85.9129
 -85.9128
 -85.9122
 -85.9123
 -85.9125
 -85.9072
 -85.9071
 -85.9071
 -85.9073
 -85.9136
 -85.9127
 -85.9127
 -85.9128
 -85.9263
 -85.9262
 -85.9263
 -85.9258
 -85.91
 -85.9103
 -85.9105
 -85.9107
 -85.9345
 -85.9341
 -85.9343
 -85.9345
 -85.9104
 -85.9096
 -85.9097
 -85.9103
 -85.9319
 -85.9311
 -85.9319
 -85.9314
 -85.9205
 -85.9199
 -85.9199
 -85.9203
 -85.9177
 -85.9183
 -85.9186
 -85.9179
 -85.9157
 -85.9157
 -85.9165
 -85.9159
 -85.9145
 -85.9145
 -85.914
 -85.9138
 -85.9365
 -85.9369
 -85.937
 -85.937
 -85.9151
 -85.9147
 -85.915
 -85.9148
 -85.9375
 -85.9372
 -85.9374
 -85.937
 -85.9288
 -85.9287
 -85.9294
 -85.9289
 -85.9041
 -85.9049
 -85.9048
 -85.904
 -85.9352
 -85.9351
 -85.9355
 -85.9357
 -85.9122
 -85.9129
 -85.9123
 -85.9117
 -85.9035
 -85.9031
 -85.9029
 -85.9034
 -85.931
 -85.9309
 -85.9306
 -85.9309
 -85.9359
 -85.9362
 -85.936
 -85.936
 -85.9236
 -85.9238
 -85.9235
 -85.9233
 -85.9301
 -85.9295
 -85.9302
 -85.9296
 -85.9136
 -85.9129
 -85.9133
 -85.9132
 -85.9251
 -85.9248
 -85.9251
 -85.9257
 -85.9174
 -85.9171
 -85.9177
 -85.9177
 -85.9113
 -85.9116
 -85.9112
 -85.9111
 -85.9085
 -85.9084
 -85.9083
 -85.9089
 -85.9201
 -85.9199
 -85.9205
 -85.9197
 -85.922
 -85.922
 -85.9218
 -85.9213
 -85.9132
 -85.9131
 -85.9136
 -85.9138
 -85.9133
 -85.9125
 -85.9132
 -85.9131
 -85.927
 -85.9271
 -85.9266
 -85.9266
 -85.935
 -85.9349
 -85.9354
 -85.9354
 -85.9342
 -85.9338
 -85.9343
 -85.9344
 -85.934
 -85.9333
 -85.9335
 -85.9337
 -85.9275
 -85.9272
 -85.9277
 -85.9271
 -85.9132
 -85.9124
 -85.913
 -85.9128
 -85.9135
 -85.9139
 -85.914
 -85.9142
 -85.9218
 -85.9216
 -85.9206
 -85.9206
 -85.9289
 -85.9285
 -85.9295
 -85.9292
 -85.9288
 -85.9284
 -85.9286
 -85.929
 -85.9241
 -85.9235
 -85.9238
 -85.9239
 -85.9257
 -85.9262
 -85.9254
 -85.9256
 -85.9088
 -85.9087
 -85.909
 -85.9096
 -85.8945
 -85.894
 -85.8946
 -85.8937
 -85.9147
 -85.9146
 -85.9139
 -85.9143
 -85.8972
 -85.8981
 -85.8978
 -85.9147
 -85.9146
 -85.915
 -85.9142
 -85.9325
 -85.9321
 -85.9324
 -85.932
 -85.9234
 -85.9237
 -85.9238
 -85.9243
 -85.935
 -85.9347
 -85.9352
 -85.9347
 -85.9131
 -85.9132
 -85.9125
 -85.9131
 -85.928
 -85.9278
 -85.9287
 -85.9285
 -85.9241
 -85.9241
 -85.9234
 -85.9237
 -85.9361
 -85.9363
 -85.9364
 -85.9359
 -85.9314
 -85.9313
 -85.9315
 -85.9321
 -85.9148
 -85.9154
 -85.915
 -85.9147
 -85.9278
 -85.9277
 -85.9272
 -85.9278
 -85.9322
 -85.9313
 -85.9319
 -85.9314
 -85.9034
 -85.9024
 -85.9029
 -85.9025
 -85.923
 -85.9234
 -85.9237
 -85.9237
 -85.9321
 -85.9322
 -85.9326
 -85.9322
 -85.9264
 -85.927
 -85.926
 -85.9273
 -85.9313
 -85.9307
 -85.9314
 -85.9313
 -85.9135
 -85.9141
 -85.9144
 -85.9144
 -85.9313
 -85.9324
 -85.9312
 -85.9322
 -85.9194
 -85.9198
 -85.9186
 -85.9193
 -85.921
 -85.9214
 -85.9218
 -85.9209
 -85.9312
 -85.9312
 -85.9307
 -85.9314
 -85.9374
 -85.9371
 -85.9372
 -85.9374
 -85.9089
 -85.9093
 -85.9096
 -85.9098
 -85.9171
 -85.9176
 -85.918
 -85.9173
 -85.925
 -85.9246
 -85.9242
 -85.9244
 -85.9313
 -85.9317
 -85.9316
 -85.9317
 -85.9153
 -85.9148
 -85.915
 -85.915
 -85.9099
 -85.9106
 -85.911
 -85.91
 -85.9283
 -85.9283
 -85.9277
 -85.9276
 -85.9264
 -85.9269
 -85.9263
 -85.9266
 -85.9354
 -85.9357
 -85.9361
 -85.9354
 -85.9116
 -85.9124
 -85.9114
 -85.9121
 -85.9359
 -85.9362
 -85.9362
 -85.9359
 -85.9166
 -85.9174
 -85.9169
 -85.9167
 -85.8951
 -85.895
 -85.8952
 -85.8955
 -85.9336
 -85.9339
 -85.9342
 -85.934
 -85.9274
 -85.9278
 -85.9272
 -85.9264
 -85.9341
 -85.9341
 -85.9338
 -85.9337
 -85.9217
 -85.9209
 -85.9214
 -85.9218
 -85.9202
 -85.9206
 -85.9207
 -85.9203
 -85.9305
 -85.9297
 -85.93
 -85.93
 -85.9131
 -85.9134
 -85.9128
 -85.9132
 -85.9121
 -85.9124
 -85.9125
 -85.9122
 -85.9002
 -85.8999
 -85.8999
 -85.8997
 -85.924
 -85.9245
 -85.9248
 -85.9251
 -85.9222
 -85.9218
 -85.9228
 -85.9222
 -85.9266
 -85.9256
 -85.9262
 -85.9268
 -85.9172
 -85.918
 -85.9181
 -85.917
 -85.935
 -85.9349
 -85.9353
 -85.9345
 -85.9359
 -85.9365
 -85.9359
 -85.9358
 -85.927
 -85.9273
 -85.9279
 -85.9279
 -85.8902
 -85.8902
 -85.8904
 -85.8908
 -85.9193
 -85.9189
 -85.9194
 -85.9185
 -85.9198
 -85.9196
 -85.9188
 -85.9196
 -85.9193
 -85.9194
 -85.9186
 -85.9187
 -85.9307
 -85.9304
 -85.9311
 -85.9303
 -85.9024
 -85.9031
 -85.9018
 -85.9023
 -85.8988
 -85.8988
 -85.8981
 -85.8979
 -85.9307
 -85.9302
 -85.9307
 -85.9301
 -85.916
 -85.9168
 -85.9156
 -85.9167
 -85.9186
 -85.9186
 -85.9188
 -85.9189
 -85.927
 -85.9265
 -85.9265
 -85.9258
 -85.9126
 -85.9129
 -85.9132
 -85.9128
 -85.9316
 -85.9309
 -85.9311
 -85.9315
 -85.9174
 -85.9161
 -85.9168
 -85.9159
 -85.9162
 -85.9161
 -85.9155
 -85.916
 -85.9099
 -85.9095
 -85.9102
 -85.9093
 -85.9192
 -85.9201
 -85.9195
 -85.9202
 -85.9325
 -85.9328
 -85.9328
 -85.9324
 -85.9278
 -85.9285
 -85.9287
 -85.9281
 -85.9123
 -85.9122
 -85.9129
 -85.9128
 -85.915
 -85.9159
 -85.9159
 -85.915
 -85.9344
 -85.9345
 -85.9348
 -85.9348
 -85.9314
 -85.9309
 -85.9312
 -85.931
 -85.9198
 -85.9196
 -85.9191
 -85.9196
 -85.9104
 -85.9105
 -85.9105
 -85.9107
 -85.9053
 -85.9065
 -85.9063
 -85.9054
 -85.9271
 -85.9264
 -85.9261
 -85.9268
 -85.9104
 -85.9097
 -85.9103
 -85.9089
 -85.933
 -85.9325
 -85.9324
 -85.933
 -85.9252
 -85.926
 -85.9255
 -85.925
 -85.9326
 -85.9324
 -85.9322
 -85.9324
 -85.9285
 -85.9279
 -85.9278
 -85.9282
 -85.9197
 -85.9194
 -85.9197
 -85.9201
 -85.9136
 -85.9126
 -85.9128
 -85.9132
 -85.9064
 -85.9075
 -85.9065
 -85.9066
 -85.909
 -85.908
 -85.909
 -85.9088
 -85.9132
 -85.9123
 -85.9122
 -85.9125
 -85.9211
 -85.9213
 -85.9212
 -85.9201
 -85.9213
 -85.9215
 -85.9217
 -85.9209
 -85.922
 -85.9214
 -85.9226
 -85.9219
 -85.9274
 -85.927
 -85.9276
 -85.9275
 -85.9023
 -85.9015
 -85.9018
 -85.9017
 -85.9239
 -85.9241
 -85.9237
 -85.9244
 -85.9122
 -85.9114
 -85.9117
 -85.9119
 -85.9185
 -85.9193
 -85.9188
 -85.9193
 -85.9355
 -85.9348
 -85.9355
 -85.9353
 -85.9206
 -85.9203
 -85.9203
 -85.92
 -85.9107
 -85.9104
 -85.9105
 -85.9098
 -85.9181
 -85.9181
 -85.9186
 -85.9189
 -85.9138
 -85.9142
 -85.9141
 -85.9136
 -85.9199
 -85.9191
 -85.92
 -85.9195
 -85.9029
 -85.9023
 -85.9026
 -85.903
 -85.9189
 -85.9189
 -85.9195
 -85.9196
 -85.9277
 -85.9274
 -85.9279
 -85.9275
 -85.9256
 -85.9257
 -85.926
 -85.9257
 -85.9342
 -85.9334
 -85.9341
 -85.9337
 -85.9152
 -85.9151
 -85.9157
 -85.9153
 -85.9133
 -85.9138
 -85.9133
 -85.9145
 -85.9338
 -85.9331
 -85.9338
 -85.9337
 -85.9139
 -85.9139
 -85.9147
 -85.914
 -85.9325
 -85.9323
 -85.9328
 -85.9323
 -85.9231
 -85.924
 -85.9234
 -85.9238
 -85.9212
 -85.9202
 -85.9212
 -85.9214
 -85.9135
 -85.9141
 -85.914
 -85.9135
 -85.9203
 -85.9202
 -85.9209
 -85.9201
 -85.9327
 -85.9325
 -85.9329
 -85.9328
 -85.8948
 -85.8949
 -85.8951
 -85.8943
 -85.9101
 -85.91
 -85.91
 -85.9102
 -85.9101
 -85.9102
 -85.9101
 -85.9097
 -85.916
 -85.9163
 -85.9157
 -85.9166
 -85.9185
 -85.918
 -85.9184
 -85.9181
 -85.9154
 -85.915
 -85.9147
 -85.9155
 -85.9356
 -85.9353
 -85.936
 -85.9352
 -85.9131
 -85.9127
 -85.9128
 -85.9136
 -85.9266
 -85.9267
 -85.927
 -85.9264
 -85.9212
 -85.9311
 -85.9305
 -85.9307
 -85.9306
 -85.9254
 -85.9259
 -85.9263
 -85.926
 -85.9085
 -85.9089
 -85.9091
 -85.9088
 -85.9167
 -85.9164
 -85.9169
 -85.9174
 -85.9143
 -85.9135
 -85.914
 -85.9142
 -85.9321
 -85.9316
 -85.9316
 -85.9317
 -85.9192
 -85.9181
 -85.9189
 -85.9186
 -85.9328
 -85.933
 -85.9324
 -85.9323
 -85.9282
 -85.9286
 -85.928
 -85.9288
 -85.9089
 -85.9093
 -85.909
 -85.9097
 -85.9129
 -85.9121
 -85.9134
 -85.9129
 -85.9277
 -85.9281
 -85.9281
 -85.9277
 -85.9203
 -85.9195
 -85.9202
 -85.9104
 -85.9099
 -85.9101
 -85.9107
 -85.9269
 -85.9259
 -85.9265
 -85.9259
 -85.9144
 -85.9136
 -85.9136
 -85.9142
 -85.9206
 -85.9195
 -85.92
 -85.9206
 -85.9339
 -85.9339
 -85.9332
 -85.9338
 -85.9159
 -85.9156
 -85.9153
 -85.9158
 -85.9312
 -85.9306
 -85.9312
 -85.9314
 -85.9219
 -85.9215
 -85.922
 -85.9212
 -85.9296
 -85.9293
 -85.9288
 -85.9292
 -85.9334
 -85.9334
 -85.9339
 -85.9336
 -85.9162
 -85.9162
 -85.9166
 -85.9166
 -85.8947
 -85.8959
 -85.8956
 -85.8962
 -85.9359
 -85.9355
 -85.9356
 -85.9354
 -85.9264
 -85.9261
 -85.9257
 -85.9261
 -85.9114
 -85.9114
 -85.9126
 -85.9117
 -85.9181
 -85.9186
 -85.9188
 -85.9181
 -85.9039
 -85.9042
 -85.9042
 -85.9035
 -85.933
 -85.9332
 -85.9339
 -85.9333
 -85.9109
 -85.9105
 -85.9107
 -85.9108
 -85.9235
 -85.9241
 -85.9232
 -85.9237
 -85.9124
 -85.9111
 -85.9121
 -85.9121
 -85.9366
 -85.9365
 -85.9366
 -85.936
 -85.9364
 -85.9363
 -85.936
 -85.9358
 -85.9282
 -85.9276
 -85.9274
 -85.9283
 -85.9242
 -85.9245
 -85.9242
 -85.9237
 -85.9244
 -85.9105
 -85.9106
 -85.9097
 -85.9103
 -85.9121
 -85.9118
 -85.9116
 -85.9123
 -85.927
 -85.9275
 -85.9276
 -85.9276
 -85.9116
 -85.912
 -85.912
 -85.9116
 -85.9136
 -85.9135
 -85.9134
 -85.9141
 -85.9279
 -85.9282
 -85.928
 -85.9274
 -85.9167
 -85.9175
 -85.9167
 -85.9175
 -85.9274
 -85.9275
 -85.9276
 -85.9281
 -85.9143
 -85.9141
 -85.9135
 -85.9142
 -85.9162
 -85.9167
 -85.9168
 -85.9169
 -85.9195
 -85.9201
 -85.9192
 -85.92
 -85.924
 -85.9248
 -85.9242
 -85.9249
 -85.9303
 -85.93
 -85.9308
 -85.9308
 -85.923
 -85.9228
 -85.9224
 -85.9225
 -85.9231
 -85.9233
 -85.9236
 -85.9233
 -85.9088
 -85.9088
 -85.9091
 -85.9094
 -85.9265
 -85.9267
 -85.9269
 -85.9267
 -85.9213
 -85.9215
 -85.9218
 -85.9213
 -85.9226
 -85.9226
 -85.9221
 -85.9225
 -85.9173
 -85.9174
 -85.9166
 -85.9171
 -85.9104
 -85.9103
 -85.9107
 -85.9099
 -85.9295
 -85.9295
 -85.9298
 -85.9299
 -85.9107
 -85.9101
 -85.9104
 -85.9111
 -85.9359
 -85.9359
 -85.9363
 -85.9361
 -85.9315
 -85.9311
 -85.9318
 -85.9316
 -85.9319
 -85.9319
 -85.9319
 -85.9317
 -85.9314
 -85.9314
 -85.9312
 -85.9318
 -85.9282
 -85.9285
 -85.9279
 -85.9285
 -85.9052
 -85.9047
 -85.9038
 -85.9229
 -85.922
 -85.9228
 -85.9225
 -85.9308
 -85.9305
 -85.9304
 -85.9308
 -85.917
 -85.9162
 -85.9166
 -85.9169
 -85.9143
 -85.9145
 -85.9141
 -85.9146
 -85.9287
 -85.9288
 -85.9293
 -85.9282
 -85.9193
 -85.9191
 -85.9194
 -85.9199
 -85.915
 -85.915
 -85.9148
 -85.9147
 -85.9352
 -85.9357
 -85.9258
 -85.9256
 -85.925
 -85.925
 -85.9198
 -85.9197
 -85.9192
 -85.924
 -85.9241
 -85.9239
 -85.9234
 -85.9064
 -85.9062
 -85.907
 -85.9069
 -85.9313
 -85.9317
 -85.9317
 -85.9312
 -85.9238
 -85.9236
 -85.9233
 -85.9233
 -85.9169
 -85.9162
 -85.9166
 -85.9171
 -85.9223
 -85.9215
 -85.9218
 -85.9221
 -85.9112
 -85.911
 -85.9113
 -85.9112
 -85.9093
 -85.9103
 -85.9095
 -85.9098
 -85.919
 -85.9195
 -85.9197
 -85.9193
 -85.9109
 -85.9108
 -85.9108
 -85.9115
 -85.9198
 -85.9195
 -85.9196
 -85.9193
 -85.932
 -85.9319
 -85.9313
 -85.9312
 -85.912
 -85.9123
 -85.9125
 -85.9122
 -85.9002
 -85.901
 -85.9003
 -85.9008
 -85.9249
 -85.9238
 -85.9246
 -85.9246
 -85.9182
 -85.9187
 -85.9181
 -85.9187
 -85.9112
 -85.9111
 -85.9117
 -85.9115
 -85.9201
 -85.9196
 -85.9203
 -85.9203
 -85.9344
 -85.9341
 -85.9345
 -85.9343
 -85.9137
 -85.9137
 -85.9134
 -85.9137
 -85.9254
 -85.9248
 -85.9247
 -85.9246
 -85.918
 -85.9187
 -85.9182
 -85.9191
 -85.9281
 -85.9284
 -85.9283
 -85.9288
 -85.932
 -85.9319
 -85.9323
 -85.9318
 -85.9116
 -85.9121
 -85.9117
 -85.9128
 -85.9157
 -85.9161
 -85.916
 -85.9159
 -85.9239
 -85.9238
 -85.923
 -85.9235
 -85.911
 -85.9111
 -85.9111
 -85.9113
 -85.8953
 -85.8947
 -85.8948
 -85.8952
 -85.9221
 -85.9215
 -85.9215
 -85.9214
 -85.8937
 -85.8936
 -85.8938
 -85.8944
 -85.895
 -85.8959
 -85.8958
 -85.8953
 -85.9065
 -85.907
 -85.9069
 -85.9063
 -85.9264
 -85.926
 -85.9256
 -85.9253
 -85.9262
 -85.9266
 -85.9267
 -85.9271
 -85.9271
 -85.9267
 -85.9271
 -85.9264
 -85.9251
 -85.9244
 -85.9246
 -85.9252
 -85.9038
 -85.9032
 -85.9037
 -85.9035
 -85.9122
 -85.9119
 -85.9126
 -85.9123
 -85.9113
 -85.9106
 -85.9108
 -85.9107
 -85.9169
 -85.9176
 -85.9169
 -85.9177
 -85.9228
 -85.9224
 -85.9229
 -85.9225
 -85.9282
 -85.928
 -85.9277
 -85.9282
 -85.9128
 -85.9137
 -85.9139
 -85.9132
 -85.9265
 -85.9205
 -85.921
 -85.9211
 -85.9207
 -85.9362
 -85.9364
 -85.9368
 -85.9365
 -85.9191
 -85.9192
 -85.9196
 -85.9191
 -85.9331
 -85.9337
 -85.9332
 -85.9118
 -85.9122
 -85.9124
 -85.9117
 -85.8974
 -85.898
 -85.8977
 -85.8981
 -85.9204
 -85.9204
 -85.9213
 -85.92
 -85.9172
 -85.9162
 -85.9164
 -85.9163
 -85.9111
 -85.9115
 -85.9119
 -85.9121
 -85.9119
 -85.9122
 -85.9116
 -85.9123
 -85.9058
 -85.905
 -85.9055
 -85.9055
 -85.924
 -85.9239
 -85.9242
 -85.9251
 -85.9205
 -85.9213
 -85.9203
 -85.9209
 -85.9154
 -85.9149
 -85.9155
 -85.9152
 -85.9191
 -85.9187
 -85.9199
 -85.9287
 -85.9284
 -85.9283
 -85.9131
 -85.9132
 -85.9123
 -85.9122
 -85.9072
 -85.907
 -85.907
 -85.9071
 -85.9143
 -85.9148
 -85.9147
 -85.9142
 -85.9071
 -85.9064
 -85.9073
 -85.9062
 -85.93
 -85.9307
 -85.9302
 -85.9304
 -85.9281
 -85.9284
 -85.9285
 -85.9289
 -85.9111
 -85.9109
 -85.911
 -85.9109
 -85.9046
 -85.9036
 -85.9043
 -85.9045
 -85.9222
 -85.9213
 -85.9221
 -85.9218
 -85.935
 -85.9344
 -85.935
 -85.9345
 -85.9067
 -85.9067
 -85.9063
 -85.9067
 -85.9261
 -85.9255
 -85.9254
 -85.9262
 -85.8999
 -85.8994
 -85.8999
 -85.8996
 -85.9281
 -85.9283
 -85.9279
 -85.9288
 -85.9174
 -85.9168
 -85.9177
 -85.9165
 -85.9301
 -85.9302
 -85.9306
 -85.9307
 -85.9117
 -85.9119
 -85.912
 -85.9125
 -85.9161
 -85.9156
 -85.9156
 -85.9156
 -85.913
 -85.9127
 -85.9135
 -85.9134
 -85.9144
 -85.914
 -85.9149
 -85.9137
 -85.9222
 -85.9226
 -85.9225
 -85.9219
 -85.9188
 -85.9183
 -85.919
 -85.919
 -85.9306
 -85.9301
 -85.9297
 -85.9299
 -85.9358
 -85.9361
 -85.9354
 -85.9354
 -85.9178
 -85.9178
 -85.9173
 -85.9177
 -85.9318
 -85.9315
 -85.9314
 -85.9321
 -85.9274
 -85.9282
 -85.9286
 -85.928
 -85.9028
 -85.9025
 -85.9018
 -85.9028
 -85.91
 -85.9112
 -85.9109
 -85.9105
 -85.9172
 -85.9167
 -85.9166
 -85.9168
 -85.9059
 -85.9054
 -85.9053
 -85.9048
 -85.9227
 -85.9234
 -85.9233
 -85.9231
 -85.9296
 -85.9307
 -85.9301
 -85.9302
 -85.9063
 -85.9074
 -85.9064
 -85.9063
 -85.9193
 -85.9199
 -85.9195
 -85.9196
 -85.9147
 -85.9146
 -85.9147
 -85.9143
 -85.8954
 -85.8959
 -85.896
 -85.8954
 -85.9166
 -85.9165
 -85.9164
 -85.9171
 -85.9209
 -85.9213
 -85.9213
 -85.9214
 -85.9278
 -85.9285
 -85.9281
 -85.9286
 -85.9142
 -85.9143
 -85.9145
 -85.9208
 -85.9207
 -85.9204
 -85.9207
 -85.9157
 -85.9156
 -85.9165
 -85.9159
 -85.9263
 -85.9257
 -85.9262
 -85.9261
 -85.9261
 -85.9268
 -85.9267
 -85.9265
 -85.9325
 -85.932
 -85.9323
 -85.9318
 -85.9124
 -85.9125
 -85.913
 -85.9124
 -85.9345
 -85.9346
 -85.9348
 -85.9346
 -85.9136
 -85.9142
 -85.9137
 -85.9134
 -85.9205
 -85.9212
 -85.9212
 -85.9216
 -85.9217
 -85.9211
 -85.9212
 -85.9209
 -85.8945
 -85.8938
 -85.8944
 -85.8943
 -85.9151
 -85.9146
 -85.9151
 -85.9152
 -85.9199
 -85.9199
 -85.9204
 -85.9212
 -85.9194
 -85.9197
 -85.9197
 -85.919
 -85.9359
 -85.936
 -85.9355
 -85.9359
 -85.9135
 -85.9142
 -85.9145
 -85.9137
 -85.9146
 -85.9142
 -85.9148
 -85.914
 -85.9278
 -85.9284
 -85.9279
 -85.9283
 -85.9116
 -85.9115
 -85.9111
 -85.911
 -85.9113
 -85.9111
 -85.9115
 -85.9111
 -85.9256
 -85.9248
 -85.9255
 -85.9251
 -85.9264
 -85.9263
 -85.9258
 -85.9264
 -85.9221
 -85.9221
 -85.923
 -85.9228
 -85.9141
 -85.9138
 -85.9244
 -85.9239
 -85.9248
 -85.9241
 -85.9145
 -85.9148
 -85.9145
 -85.9146
 -85.9182
 -85.9189
 -85.9191
 -85.9188
 -85.9333
 -85.933
 -85.9327
 -85.9334
 -85.9183
 -85.9185
 -85.9188
 -85.9189
 -85.9289
 -85.9293
 -85.9296
 -85.9287
 -85.9126
 -85.9138
 -85.9134
 -85.9137
 -85.9171
 -85.9165
 -85.9163
 -85.9167
 -85.9198
 -85.921
 -85.9204
 -85.9206
 -85.9124
 -85.9119
 -85.9117
 -85.9121
 -85.9005
 -85.9007
 -85.9003
 -85.8999
 -85.9351
 -85.9351
 -85.935
 -85.9352
 -85.9068
 -85.9067
 -85.907
 -85.9066
 -85.9231
 -85.9234
 -85.9227
 -85.9228
 -85.9004
 -85.9004
 -85.9009
 -85.9001
 -85.9241
 -85.9247
 -85.9242
 -85.9242
 -85.9137
 -85.9136
 -85.9134
 -85.9135
 -85.9137
 -85.9139
 -85.9133
 -85.9136
 -85.9217
 -85.922
 -85.9211
 -85.9217
 -85.9308
 -85.9301
 -85.9306
 -85.93
 -85.9166
 -85.9175
 -85.9173
 -85.9175
 -85.911
 -85.9108
 -85.911
 -85.9112
 -85.9304
 -85.9312
 -85.9308
 -85.9314
 -85.9131
 -85.9125
 -85.9134
 -85.9135
 -85.9166
 -85.9173
 -85.9171
 -85.9175
 -85.9275
 -85.9286
 -85.9284
 -85.928
 -85.9213
 -85.922
 -85.9221
 -85.9221
 -85.919
 -85.9186
 -85.919
 -85.9193
 -85.9332
 -85.9336
 -85.9338
 -85.934
 -85.9313
 -85.9316
 -85.9316
 -85.9313
 -85.9232
 -85.9232
 -85.9224
 -85.9228
 -85.919
 -85.9194
 -85.9188
 -85.9201
 -85.9152
 -85.9154
 -85.9155
 -85.9165
 -85.9103
 -85.9103
 -85.9098
 -85.9287
 -85.9292
 -85.9289
 -85.9295
 -85.8997
 -85.8993
 -85.8987
 -85.8988
 -85.9261
 -85.9253
 -85.9258
 -85.9257
 -85.9128
 -85.9121
 -85.9125
 -85.9125
 -85.9116
 -85.9111
 -85.9113
 -85.9112
 -85.9315
 -85.9309
 -85.9312
 -85.932
 -85.9218
 -85.9214
 -85.922
 -85.9215
 -85.9191
 -85.9189
 -85.9144
 -85.918
 -85.9187
 -85.9178
 -85.9183
 -85.9005
 -85.9011
 -85.9254
 -85.9257
 -85.926
 -85.9086
 -85.909
 -85.908
 -85.9086
 -85.9255
 -85.9248
 -85.925
 -85.9251
 -85.9166
 -85.9173
 -85.9171
 -85.9171
 -85.9141
 -85.9151
 -85.9145
 -85.9145
 -85.9332
 -85.9332
 -85.9339
 -85.9335
 -85.9088
 -85.9095
 -85.9088
 -85.9095
 -85.925
 -85.9251
 -85.9251
 -85.9256
 -85.9341
 -85.9342
 -85.9336
 -85.9337
 -85.9212
 -85.9206
 -85.9212
 -85.9207
 -85.9249
 -85.924
 -85.9244
 -85.9243
 -85.92
 -85.9206
 -85.9201
 -85.9191
 -85.9365
 -85.9358
 -85.9363
 -85.9357
 -85.936
 -85.936
 -85.9358
 -85.9355
 -85.9355
 -85.9353
 -85.9352
 -85.9355
 -85.9182
 -85.9176
 -85.9182
 -85.9181
 -85.9232
 -85.9225
 -85.9227
 -85.9232
 -85.9186
 -85.9185
 -85.9181
 -85.9184
 -85.9176
 -85.9173
 -85.9183
 -85.9173
 -85.9264
 -85.9267
 -85.9268
 -85.9262
 -85.9306
 -85.9314
 -85.9312
 -85.9315
 -85.9303
 -85.9305
 -85.9299
 -85.9307
 -85.9208
 -85.9212
 -85.9208
 -85.9211
 -85.9195
 -85.9194
 -85.9193
 -85.919
 -85.9136
 -85.9132
 -85.9134
 -85.9141
 -85.928
 -85.9285
 -85.9285
 -85.9278
 -85.9059
 -85.906
 -85.9053
 -85.9064
 -85.9294
 -85.9298
 -85.9293
 -85.9292
 -85.9225
 -85.9235
 -85.9224
 -85.9233
 -85.9219
 -85.9223
 -85.9221
 -85.9217
 -85.9091
 -85.909
 -85.9086
 -85.908
 -85.8924
 -85.8929
 -85.8922
 -85.8924
 -85.9157
 -85.9163
 -85.9157
 -85.9158
 -85.9294
 -85.9286
 -85.929
 -85.9293
 -85.9117
 -85.9112
 -85.9116
 -85.9119
 -85.923
 -85.9233
 -85.9226
 -85.9234
 -85.924
 -85.9246
 -85.9252
 -85.9249
 -85.9278
 -85.9281
 -85.9272
 -85.9275
 -85.9047
 -85.9042
 -85.9042
 -85.9047
 -85.9053
 -85.9053
 -85.905
 -85.905
 -85.9293
 -85.9302
 -85.9298
 -85.9298
 -85.9267
 -85.9258
 -85.9258
 -85.9264
 -85.9155
 -85.9156
 -85.9152
 -85.9153
 -85.9202
 -85.9199
 -85.9205
 -85.9208
 -85.9224
 -85.9227
 -85.9225
 -85.9223
 -85.9149
 -85.9146
 -85.9155
 -85.9147
 -85.9251
 -85.9247
 -85.9248
 -85.9243
 -85.9381
 -85.9377
 -85.9379
 -85.938
 -85.9236
 -85.9243
 -85.9243
 -85.9247
 -85.9203
 -85.9206
 -85.9201
 -85.921
 -85.9203
 -85.9202
 -85.9197
 -85.9203
 -85.9225
 -85.9228
 -85.9225
 -85.9219
 -85.9348
 -85.935
 -85.9345
 -85.9348
 -85.9308
 -85.9303
 -85.9306
 -85.9247
 -85.9247
 -85.9251
 -85.9246
 -85.9109
 -85.9109
 -85.9114
 -85.9109
 -85.9174
 -85.9174
 -85.9169
 -85.9176
 -85.9305
 -85.9296
 -85.9296
 -85.9297
 -85.9136
 -85.9138
 -85.914
 -85.9142
 -85.9164
 -85.9158
 -85.9158
 -85.9165
 -85.9173
 -85.917
 -85.9161
 -85.9168
 -85.9262
 -85.9258
 -85.9256
 -85.9256
 -85.9225
 -85.922
 -85.9226
 -85.9214
 -85.9248
 -85.9236
 -85.924
 -85.9242
 -85.9121
 -85.9123
 -85.9125
 -85.9122
 -85.9172
 -85.9177
 -85.9179
 -85.9172
 -85.9256
 -85.9252
 -85.9257
 -85.9261
 -85.9159
 -85.9162
 -85.9166
 -85.9156
 -85.9235
 -85.9241
 -85.9241
 -85.9237
 -85.9118
 -85.9117
 -85.912
 -85.9115
 -85.9341
 -85.9342
 -85.9337
 -85.9341
 -85.9132
 -85.9127
 -85.9134
 -85.9137
 -85.9122
 -85.9112
 -85.9118
 -85.9118
 -85.9272
 -85.9272
 -85.9276
 -85.9278
 -85.9133
 -85.9134
 -85.9136
 -85.9135
 -85.9243
 -85.9241
 -85.9244
 -85.9237
 -85.9084
 -85.9086
 -85.9077
 -85.9079
 -85.9219
 -85.9217
 -85.9219
 -85.9224
 -85.9326
 -85.9334
 -85.9326
 -85.9331
 -85.9223
 -85.9214
 -85.9213
 -85.9219
 -85.9277
 -85.928
 -85.9277
 -85.9277
 -85.924
 -85.9237
 -85.9238
 -85.9243
 -85.9235
 -85.9238
 -85.9239
 -85.9245
 -85.9347
 -85.9348
 -85.9351
 -85.9342
 -85.9121
 -85.9118
 -85.9114
 -85.9114
 -85.9125
 -85.9123
 -85.9117
 -85.9122
 -85.9314
 -85.9313
 -85.931
 -85.9318
 -85.933
 -85.9334
 -85.9329
 -85.9148
 -85.9146
 -85.9146
 -85.915
 -85.925
 -85.9257
 -85.925
 -85.9249
 -85.9228
 -85.923
 -85.9223
 -85.9231
 -85.9117
 -85.9122
 -85.9112
 -85.9117
 -85.9279
 -85.9284
 -85.9282
 -85.9282
 -85.9197
 -85.919
 -85.9191
 -85.9197
 -85.9219
 -85.9212
 -85.9213
 -85.9212
 -85.9285
 -85.929
 -85.929
 -85.9289
 -85.9102
 -85.91
 -85.9103
 -85.9106
 -85.9147
 -85.9139
 -85.9142
 -85.9141
 -85.9355
 -85.935
 -85.9354
 -85.9352
 -85.9123
 -85.9122
 -85.9124
 -85.9131
 -85.9105
 -85.9103
 -85.9104
 -85.9104
 -85.9201
 -85.9203
 -85.92
 -85.9209
 -85.901
 -85.9012
 -85.9007
 -85.9017
 -85.9213
 -85.9215
 -85.9211
 -85.9214
 -85.9291
 -85.9289
 -85.9287
 -85.9285
 -85.931
 -85.9306
 -85.9308
 -85.9089
 -85.9089
 -85.9093
 -85.909
 -85.9135
 -85.9141
 -85.9132
 -85.9139
 -85.9119
 -85.9117
 -85.9112
 -85.9112
 -85.9144
 -85.9139
 -85.9143
 -85.9141
 -85.9357
 -85.936
 -85.9362
 -85.936
 -85.9097
 -85.9098
 -85.9096
 -85.9091
 -85.9132
 -85.9127
 -85.9132
 -85.9139
 -85.9307
 -85.9312
 -85.9308
 -85.9306
 -85.9166
 -85.9165
 -85.9169
 -85.9138
 -85.9132
 -85.9139
 -85.9223
 -85.9221
 -85.9214
 -85.9021
 -85.903
 -85.9031
 -85.9024
 -85.9217
 -85.9222
 -85.9219
 -85.9224
 -85.9212
 -85.9216
 -85.9207
 -85.9208
 -85.9314
 -85.9318
 -85.9313
 -85.9312
 -85.9332
 -85.9331
 -85.9339
 -85.9331
 -85.9112
 -85.9105
 -85.9105
 -85.9117
 -85.9228
 -85.9235
 -85.9236
 -85.9232
 -85.9225
 -85.9231
 -85.9233
 -85.9232
 -85.9192
 -85.9201
 -85.9196
 -85.9202
 -85.9158
 -85.916
 -85.9161
 -85.9152
 -85.923
 -85.9222
 -85.9228
 -85.923
 -85.9122
 -85.9124
 -85.9121
 -85.9125
 -85.9326
 -85.9324
 -85.9327
 -85.9328
 -85.9146
 -85.9144
 -85.9147
 -85.9152
 -85.9309
 -85.9303
 -85.9307
 -85.9306
 -85.9339
 -85.9336
 -85.9332
 -85.9337
 -85.934
 -85.9339
 -85.9338
 -85.9336
 -85.9133
 -85.913
 -85.9273
 -85.9271
 -85.9267
 -85.927
 -85.9119
 -85.9128
 -85.9123
 -85.912
 -85.9287
 -85.9296
 -85.9294
 -85.9296
 -85.9306
 -85.9304
 -85.931
 -85.9304
 -85.9148
 -85.9154
 -85.9154
 -85.9151
 -85.9228
 -85.9228
 -85.9233
 -85.9232
 -85.9144
 -85.9144
 -85.9149
 -85.9144
 -85.9178
 -85.9178
 -85.9179
 -85.9185
 -85.8963
 -85.8973
 -85.896
 -85.8969
 -85.9322
 -85.9319
 -85.9327
 -85.9322
 -85.9147
 -85.9142
 -85.9149
 -85.9154
 -85.9089
 -85.9084
 -85.9084
 -85.9091
 -85.9188
 -85.9185
 -85.9192
 -85.9192
 -85.9087
 -85.9077
 -85.9074
 -85.9087
 -85.9185
 -85.9179
 -85.9175
 -85.9183
 -85.9269
 -85.9268
 -85.9274
 -85.9265
 -85.9196
 -85.9192
 -85.9192
 -85.9194
 -85.9316
 -85.9324
 -85.9317
 -85.9188
 -85.9195
 -85.9188
 -85.9194
 -85.8962
 -85.8958
 -85.8958
 -85.8956
 -85.9361
 -85.9362
 -85.9364
 -85.9361
 -85.9225
 -85.9223
 -85.9227
 -85.9222
 -85.929
 -85.9286
 -85.928
 -85.9287
 -85.9111
 -85.9117
 -85.9103
 -85.9109
 -85.9156
 -85.9161
 -85.9151
 -85.9158
 -85.9157
 -85.9167
 -85.9161
 -85.9167
 -85.9335
 -85.9332
 -85.9337
 -85.934
 -85.9166
 -85.9162
 -85.9158
 -85.916
 -85.9355
 -85.9354
 -85.9357
 -85.9351
 -85.9264
 -85.9256
 -85.9257
 -85.9265
 -85.9123
 -85.9124
 -85.9126
 -85.9123
 -85.9005
 -85.9008
 -85.9014
 -85.9004
 -85.918
 -85.917
 -85.9176
 -85.9168
 -85.92
 -85.9201
 -85.9206
 -85.92
 -85.9273
 -85.9273
 -85.9269
 -85.9265
 -85.8971
 -85.8963
 -85.8974
 -85.897
 -85.9182
 -85.9177
 -85.9185
 -85.9183
 -85.935
 -85.9346
 -85.9344
 -85.9345
 -85.9301
 -85.9306
 -85.9304
 -85.9302
 -85.9299
 -85.9299
 -85.9304
 -85.9297
 -85.9291
 -85.9286
 -85.9284
 -85.9287
 -85.93
 -85.9309
 -85.9304
 -85.9303
 -85.9243
 -85.9245
 -85.9243
 -85.9244
 -85.9129
 -85.9141
 -85.9148
 -85.9148
 -85.9145
 -85.9261
 -85.9254
 -85.9257
 -85.9255
 -85.9259
 -85.9261
 -85.9252
 -85.9253
 -85.9071
 -85.9074
 -85.9074
 -85.9072
 -85.932
 -85.932
 -85.9317
 -85.932
 -85.9288
 -85.9292
 -85.9299
 -85.9295
 -85.9123
 -85.9131
 -85.9129
 -85.913
 -85.9131
 -85.9129
 -85.9141
 -85.9145
 -85.9143
 -85.9148
 -85.9125
 -85.9118
 -85.9108
 -85.9113
 -85.9258
 -85.9264
 -85.9262
 -85.9258
 -85.9355
 -85.9355
 -85.9354
 -85.9356
 -85.9205
 -85.9201
 -85.9205
 -85.9198
 -85.9334
 -85.9326
 -85.9322
 -85.9322
 -85.9184
 -85.9183
 -85.918
 -85.9186
 -85.9256
 -85.9251
 -85.9247
 -85.9247
 -85.9115
 -85.9114
 -85.9113
 -85.9106
 -85.923
 -85.9237
 -85.9227
 -85.9233
 -85.9241
 -85.9249
 -85.9253
 -85.9243
 -85.9132
 -85.9129
 -85.9124
 -85.9127
 -85.9165
 -85.9161
 -85.9172
 -85.9167
 -85.9186
 -85.9186
 -85.918
 -85.9176
 -85.923
 -85.9234
 -85.9231
 -85.9233
 -85.9067
 -85.9068
 -85.9071
 -85.9077
 -85.9244
 -85.9237
 -85.9242
 -85.9246
 -85.9165
 -85.9158
 -85.9167
 -85.9171
 -85.927
 -85.9269
 -85.927
 -85.9265
 -85.9312
 -85.9307
 -85.9311
 -85.9308
 -85.9342
 -85.934
 -85.9338
 -85.934
 -85.9331
 -85.9334
 -85.9327
 -85.936
 -85.936
 -85.9364
 -85.9364
 -85.9298
 -85.9292
 -85.9286
 -85.9293
 -85.9198
 -85.9197
 -85.9202
 -85.9201
 -85.9335
 -85.9331
 -85.9328
 -85.9334
 -85.9217
 -85.9218
 -85.9214
 -85.9213
 -85.9232
 -85.9235
 -85.9233
 -85.9336
 -85.934
 -85.9338
 -85.9337
 -85.9324
 -85.932
 -85.9321
 -85.9222
 -85.922
 -85.9226
 -85.9227
 -85.9162
 -85.9167
 -85.9161
 -85.9171
 -85.9265
 -85.926
 -85.9258
 -85.9257
 -85.9338
 -85.9341
 -85.9339
 -85.9337
 -85.9135
 -85.9134
 -85.9137
 -85.9131
 -85.9197
 -85.9195
 -85.919
 -85.919
 -85.9206
 -85.9214
 -85.9204
 -85.9206
 -85.927
 -85.9264
 -85.9269
 -85.927
 -85.9138
 -85.9133
 -85.9142
 -85.9134
 -85.9113
 -85.9107
 -85.9113
 -85.9111
 -85.9206
 -85.9206
 -85.9205
 -85.9212
 -85.9351
 -85.9348
 -85.9348
 -85.9349
 -85.915
 -85.9143
 -85.9151
 -85.9147
 -85.9118
 -85.9123
 -85.9116
 -85.9123
 -85.9244
 -85.9235
 -85.9244
 -85.9243
 -85.9143
 -85.9145
 -85.9141
 -85.912
 -85.9125
 -85.9123
 -85.9234
 -85.9231
 -85.924
 -85.9233
 -85.9122
 -85.9119
 -85.9116
 -85.9122
 -85.9125
 -85.9118
 -85.9123
 -85.9123
 -85.9245
 -85.9247
 -85.9243
 -85.9123
 -85.9121
 -85.9309
 -85.931
 -85.9319
 -85.9319
 -85.9264
 -85.9273
 -85.9274
 -85.927
 -85.9067
 -85.9073
 -85.9061
 -85.9074
 -85.9022
 -85.9023
 -85.9016
 -85.9023
 -85.9141
 -85.913
 -85.9137
 -85.9137
 -85.9329
 -85.9328
 -85.9331
 -85.9329
 -85.9255
 -85.925
 -85.9247
 -85.925
 -85.9102
 -85.9101
 -85.91
 -85.91
 -85.9145
 -85.9146
 -85.9149
 -85.9155
 -85.9149
 -85.9149
 -85.9148
 -85.9132
 -85.9137
 -85.9137
 -85.9137
 -85.9137
 -85.9133
 -85.9138
 -85.914
 -85.9117
 -85.9111
 -85.9116
 -85.9111
 -85.9349
 -85.9352
 -85.935
 -85.935
 -85.9333
 -85.9338
 -85.9332
 -85.9205
 -85.92
 -85.9205
 -85.9198
 -85.9138
 -85.913
 -85.914
 -85.9137
 -85.9363
 -85.9365
 -85.912
 -85.9116
 -85.9117
 -85.9114
 -85.922
 -85.9232
 -85.9224
 -85.9228
 -85.9248
 -85.9246
 -85.9122
 -85.9121
 -85.9128
 -85.9122
 -85.9339
 -85.9342
 -85.9337
 -85.9345
 -85.9356
 -85.9353
 -85.9354
 -85.9359
 -85.9188
 -85.9191
 -85.9188
 -85.9065
 -85.907
 -85.9067
 -85.9128
 -85.9137
 -85.9128
 -85.913
 -85.9283
 -85.9277
 -85.9287
 -85.9277
 -85.9156
 -85.915
 -85.915
 -85.9145
 -85.9152
 -85.9147
 -85.9154
 -85.9146
 -85.9258
 -85.9257
 -85.9261
 -85.9268
 -85.8976
 -85.8979
 -85.8974
 -85.8968
 -85.9275
 -85.9277
 -85.9282
 -85.9281
 -85.9281
 -85.928
 -85.9285
 -85.9288
 -85.9112
 -85.9112
 -85.9104
 -85.911
 -85.9324
 -85.9326
 -85.9327
 -85.9322
 -85.8962
 -85.8953
 -85.8955
 -85.8949
 -85.9341
 -85.9332
 -85.9332
 -85.9331
 -85.9303
 -85.9299
 -85.9145
 -85.915
 -85.9148
 -85.9154
 -85.9106
 -85.91
 -85.9103
 -85.9108
 -85.9321
 -85.9325
 -85.9324
 -85.9323
 -85.9161
 -85.9164
 -85.9163
 -85.9159
 -85.935
 -85.9346
 -85.9349
 -85.914
 -85.9134
 -85.9132
 -85.9098
 -85.9104
 -85.9106
 -85.9343
 -85.9346
 -85.9343
 -85.9342
 -85.9143
 -85.914
 -85.914
 -85.914
 -85.9323
 -85.9324
 -85.9098
 -85.9103
 -85.9098
 -85.91
 -85.9213
 -85.9219
 -85.922
 -85.9213
 -85.9152
 -85.9148
 -85.9175
 -85.9188
 -85.9187
 -85.9179
 -85.9146
 -85.9145
 -85.9146
 -85.9139
 -85.9354
 -85.9359
 -85.9352
 -85.9354
 -85.9109
 -85.9106
 -85.9107
 -85.9304
 -85.8967
 -85.8965
 -85.8966
 -85.8963
 -85.9318
 -85.932
 -85.9323
 -85.9313
 -85.9152
 -85.9152
 -85.9162
 -85.916
 -85.9272
 -85.927
 -85.927
 -85.9271
 -85.9145
 -85.914
 -85.9138
 -85.9144
 -85.9257
 -85.9072
 -85.907
 -85.907
 -85.9072
 -85.9255
 -85.9256
 -85.9253
 -85.9248
 -85.9298
 -85.9302
 -85.9304
 -85.9294
 -85.9299
 -85.9292
 -85.93
 -85.9321
 -85.9327
 -85.9324
 -85.9324
 -85.9112
 -85.9114
 -85.912
 -85.9117
 -85.9313
 -85.9313
 -85.9313
 -85.9318
 -85.9089
 -85.9088
 -85.9089
 -85.9082
 -85.9307
 -85.931
 -85.9313
 -85.9313
 -85.9202
 -85.9198
 -85.9197
 -85.9195
 -85.927
 -85.9275
 -85.9277
 -85.9278
 -85.9222
 -85.9219
 -85.9216
 -85.9215
 -85.9341
 -85.9333
 -85.9222
 -85.9215
 -85.9216
 -85.922
 -85.907
 -85.9068
 -85.9076
 -85.9068
 -85.9085
 -85.9082
 -85.9093
 -85.9084
 -85.9222
 -85.9227
 -85.9228
 -85.9229
 -85.9281
 -85.9281
 -85.9279
 -85.9287
 -85.9289
 -85.9285
 -85.9287
 -85.9291
 -85.9335
 -85.9329
 -85.9331
 -85.9327
 -85.9291
 -85.9299
 -85.9295
 -85.9291
 -85.9085
 -85.9086
 -85.909
 -85.9081
 -85.9119
 -85.9119
 -85.9117
 -85.9127
 -85.9364
 -85.9361
 -85.936
 -85.936
 -85.9234
 -85.9237
 -85.9235
 -85.9244
 -85.9127
 -85.9136
 -85.9128
 -85.9134
 -85.8992
 -85.8991
 -85.9
 -85.8989
 -85.9319
 -85.9322
 -85.9316
 -85.9327
 -85.9136
 -85.9136
 -85.9138
 -85.9142
 -85.9178
 -85.9184
 -85.9174
 -85.9179
 -85.9087
 -85.9085
 -85.9086
 -85.909
 -85.9253
 -85.9249
 -85.9252
 -85.9253
 -85.9334
 -85.9335
 -85.9333
 -85.9335
 -85.924
 -85.9231
 -85.9234
 -85.9232
 -85.9188
 -85.9189
 -85.9196
 -85.9193
 -85.9074
 -85.9078
 -85.9081
 -85.9071
 -85.9333
 -85.9263
 -85.9268
 -85.9261
 -85.9267
 -85.9176
 -85.9174
 -85.9167
 -85.9169
 -85.9278
 -85.9282
 -85.9281
 -85.9286
 -85.9128
 -85.9124
 -85.9125
 -85.9131
 -85.9252
 -85.9255
 -85.9248
 -85.9068
 -85.9077
 -85.907
 -85.9068
 -85.9305
 -85.9294
 -85.9301
 -85.9298
 -85.9111
 -85.911
 -85.9114
 -85.9112
 -85.9375
 -85.9373
 -85.9374
 -85.9376
 -85.9136
 -85.9137
 -85.9139
 -85.9137
 -85.9015
 -85.9031
 -85.9029
 -85.9024
 -85.9061
 -85.9061
 -85.9067
 -85.9066
 -85.9364
 -85.9362
 -85.9359
 -85.9358
 -85.9344
 -85.9343
 -85.9346
 -85.9347
 -85.9205
 -85.9211
 -85.9209
 -85.9211
 -85.9142
 -85.9141
 -85.9146
 -85.9223
 -85.9224
 -85.9214
 -85.9218
 -85.9262
 -85.9259
 -85.9267
 -85.9267
 -85.9221
 -85.9233
 -85.9229
 -85.9228
 -85.9211
 -85.9214
 -85.9223
 -85.9218
 -85.9358
 -85.9354
 -85.9355
 -85.9353
 -85.9122
 -85.912
 -85.9128
 -85.9122
 -85.9062
 -85.905
 -85.9052
 -85.9279
 -85.9274
 -85.9277
 -85.9274
 -85.9318
 -85.9323
 -85.9319
 -85.9318
 -85.9131
 -85.913
 -85.9133
 -85.9124
 -85.9125
 -85.9128
 -85.912
 -85.9326
 -85.9323
 -85.9329
 -85.932
 -85.9196
 -85.9195
 -85.92
 -85.9195
 -85.9126
 -85.9118
 -85.9124
 -85.9124
 -85.9177
 -85.9173
 -85.9173
 -85.9178
 -85.9305
 -85.9305
 -85.93
 -85.9305
 -85.9129
 -85.9138
 -85.9124
 -85.9135
 -85.9183
 -85.9173
 -85.9176
 -85.918
 -85.9152
 -85.9158
 -85.9153
 -85.9345
 -85.9344
 -85.9341
 -85.9342
 -85.9197
 -85.9199
 -85.9193
 -85.9201
 -85.9364
 -85.9363
 -85.9369
 -85.9219
 -85.9222
 -85.9221
 -85.9218
 -85.9075
 -85.9081
 -85.9071
 -85.9075
 -85.9241
 -85.9242
 -85.9247
 -85.9252
 -85.9209
 -85.9217
 -85.9206
 -85.9135
 -85.9137
 -85.9142
 -85.9138
 -85.9108
 -85.911
 -85.9106
 -85.9111
 -85.9134
 -85.9137
 -85.9141
 -85.9133
 -85.9009
 -85.901
 -85.9019
 -85.902
 -85.9165
 -85.9163
 -85.916
 -85.916
 -85.9152
 -85.915
 -85.9159
 -85.9149
 -85.9329
 -85.9322
 -85.9323
 -85.9332
 -85.91
 -85.9108
 -85.9106
 -85.9104
 -85.9258
 -85.9255
 -85.926
 -85.9262
 -85.9348
 -85.9349
 -85.9345
 -85.9343
 -85.935
 -85.9344
 -85.9347
 -85.9349
 -85.93
 -85.9304
 -85.93
 -85.9303
 -85.9354
 -85.9359
 -85.9359
 -85.935
 -85.9332
 -85.9333
 -85.9333
 -85.9365
 -85.9357
 -85.9359
 -85.9359
 -85.9087
 -85.9084
 -85.9087
 -85.9081
 -85.9175
 -85.9169
 -85.9166
 -85.917
 -85.9154
 -85.9161
 -85.9156
 -85.9162
 -85.9165
 -85.9162
 -85.9161
 -85.9159
 -85.9339
 -85.9335
 -85.9338
 -85.934
 -85.9176
 -85.9176
 -85.917
 -85.9167
 -85.9135
 -85.9127
 -85.9127
 -85.9133
 -85.9266
 -85.9264
 -85.9271
 -85.9263
 -85.914
 -85.9147
 -85.914
 -85.9144
 -85.9282
 -85.9277
 -85.9276
 -85.9221
 -85.9228
 -85.9228
 -85.9324
 -85.9318
 -85.932
 -85.9321
 -85.9177
 -85.918
 -85.9175
 -85.9175
 -85.9253
 -85.9248
 -85.9249
 -85.9254
 -85.9162
 -85.9154
 -85.9158
 -85.9163
 -85.9365
 -85.9363
 -85.935
 -85.9348
 -85.9345
 -85.9351
 -85.9078
 -85.9076
 -85.9077
 -85.9073
 -85.9256
 -85.9261
 -85.9262
 -85.9266
 -85.9133
 -85.9141
 -85.9135
 -85.913
 -85.8938
 -85.8926
 -85.8937
 -85.8933
 -85.914
 -85.9138
 -85.9134
 -85.9137
 -85.9279
 -85.9273
 -85.9278
 -85.9101
 -85.91
 -85.9108
 -85.9108
 -85.9345
 -85.934
 -85.9347
 -85.9342
 -85.9141
 -85.9144
 -85.9142
 -85.9145
 -85.9252
 -85.9258
 -85.9255
 -85.9253
 -85.9078
 -85.9081
 -85.9073
 -85.9078
 -85.8988
 -85.8987
 -85.8992
 -85.8994
 -85.9129
 -85.9134
 -85.9128
 -85.9127
 -85.9169
 -85.9166
 -85.9171
 -85.9229
 -85.9219
 -85.923
 -85.9226
 -85.9113
 -85.9113
 -85.9106
 -85.9282
 -85.928
 -85.9284
 -85.9287
 -85.9301
 -85.9309
 -85.9301
 -85.9309
 -85.9273
 -85.9268
 -85.9272
 -85.9273
 -85.9342
 -85.9331
 -85.9335
 -85.9336
 -85.9295
 -85.929
 -85.9294
 -85.915
 -85.9154
 -85.9154
 -85.9156
 -85.9288
 -85.9282
 -85.9264
 -85.9257
 -85.9255
 -85.9261
 -85.9278
 -85.9275
 -85.9276
 -85.928
 -85.913
 -85.9133
 -85.9131
 -85.9125
 -85.9135
 -85.914
 -85.9136
 -85.914
 -85.8941
 -85.8946
 -85.8947
 -85.8944
 -85.9135
 -85.914
 -85.9135
 -85.9151
 -85.9149
 -85.9147
 -85.9149
 -85.9206
 -85.9206
 -85.9202
 -85.9201
 -85.9152
 -85.9159
 -85.9159
 -85.9155
 -85.9079
 -85.9083
 -85.9078
 -85.9077
 -85.9302
 -85.9295
 -85.9302
 -85.9296
 -85.9202
 -85.9208
 -85.9202
 -85.9198
 -85.934
 -85.934
 -85.9338
 -85.9341
 -85.9235
 -85.9229
 -85.9235
 -85.9231
 -85.9335
 -85.9337
 -85.9335
 -85.9001
 -85.9008
 -85.9006
 -85.9007
 -85.9275
 -85.9283
 -85.9276
 -85.9277
 -85.9185
 -85.918
 -85.9186
 -85.9183
 -85.912
 -85.9116
 -85.916
 -85.9161
 -85.9164
 -85.9162
 -85.9182
 -85.9175
 -85.9177
 -85.9326
 -85.9328
 -85.9324
 -85.9327
 -85.9328
 -85.9325
 -85.9321
 -85.9324
 -85.9121
 -85.9119
 -85.9122
 -85.912
 -85.9197
 -85.9194
 -85.9141
 -85.9148
 -85.9144
 -85.9138
 -85.9289
 -85.9286
 -85.9294
 -85.9294
 -85.9073
 -85.9072
 -85.9072
 -85.9075
 -85.9128
 -85.9131
 -85.9126
 -85.9125
 -85.914
 -85.9147
 -85.915
 -85.9147
 -85.9218
 -85.9216
 -85.9217
 -85.9226
 -85.9284
 -85.9283
 -85.9279
 -85.9279
 -85.9294
 -85.9289
 -85.9285
 -85.9291
 -85.8969
 -85.8967
 -85.8965
 -85.8963
 -85.9103
 -85.9109
 -85.9111
 -85.923
 -85.9219
 -85.9225
 -85.9237
 -85.9244
 -85.9237
 -85.9244
 -85.9336
 -85.9339
 -85.9337
 -85.9341
 -85.9196
 -85.9137
 -85.9137
 -85.9129
 -85.9132
 -85.9257
 -85.9253
 -85.9248
 -85.9251
 -85.9299
 -85.9293
 -85.9294
 -85.93
 -85.932
 -85.9321
 -85.9121
 -85.9119
 -85.9116
 -85.9115
 -85.9209
 -85.9214
 -85.9212
 -85.9215
 -85.9105
 -85.9102
 -85.9104
 -85.9107
 -85.9239
 -85.9167
 -85.9163
 -85.9174
 -85.9177
 -85.9155
 -85.916
 -85.9162
 -85.9158
 -85.9338
 -85.9332
 -85.9347
 -85.935
 -85.9351
 -85.9349
 -85.9035
 -85.9031
 -85.9033
 -85.9036
 -85.9292
 -85.9294
 -85.9286
 -85.9297
 -85.924
 -85.9232
 -85.9234
 -85.9241
 -85.8982
 -85.8985
 -85.8985
 -85.898
 -85.9206
 -85.9206
 -85.9209
 -85.9203
 -85.9202
 -85.9194
 -85.919
 -85.9192
 -85.9115
 -85.9108
 -85.9116
 -85.9113
 -85.9362
 -85.9365
 -85.9366
 -85.9366
 -85.9193
 -85.9186
 -85.9188
 -85.9146
 -85.9153
 -85.9153
 -85.9147
 -85.9351
 -85.9358
 -85.9354
 -85.9355
 -85.9146
 -85.9142
 -85.9137
 -85.9149
 -85.9184
 -85.9188
 -85.9307
 -85.9308
 -85.9313
 -85.9303
 -85.9229
 -85.9229
 -85.9237
 -85.9235
 -85.9344
 -85.9341
 -85.9345
 -85.9343
 -85.9191
 -85.9201
 -85.9131
 -85.9133
 -85.9135
 -85.9135
 -85.9147
 -85.9147
 -85.9151
 -85.9153
 -85.9315
 -85.9315
 -85.9309
 -85.9311
 -85.9299
 -85.9297
 -85.9301
 -85.9301
 -85.9289
 -85.9281
 -85.9289
 -85.9286
 -85.9153
 -85.9161
 -85.9157
 -85.9153
 -85.9036
 -85.9031
 -85.9034
 -85.9035
 -85.9352
 -85.9356
 -85.9352
 -85.9353
 -85.9112
 -85.9114
 -85.9114
 -85.9118
 -85.9223
 -85.9227
 -85.923
 -85.9223
 -85.9161
 -85.9173
 -85.9165
 -85.9169
 -85.9222
 -85.9214
 -85.922
 -85.9252
 -85.9259
 -85.9251
 -85.9259
 -85.9206
 -85.9212
 -85.9208
 -85.9203
 -85.9276
 -85.9277
 -85.9282
 -85.9274
 -85.9274
 -85.9273
 -85.9275
 -85.9266
 -85.898
 -85.8992
 -85.8981
 -85.9079
 -85.9087
 -85.9089
 -85.9086
 -85.922
 -85.9215
 -85.9217
 -85.9217
 -85.9311
 -85.9315
 -85.9312
 -85.9317
 -85.9133
 -85.9125
 -85.9133
 -85.9143
 -85.9146
 -85.9147
 -85.9244
 -85.9241
 -85.9245
 -85.9246
 -85.9219
 -85.9223
 -85.9226
 -85.9227
 -85.9378
 -85.9378
 -85.9376
 -85.9379
 -85.9061
 -85.9064
 -85.9059
 -85.905
 -85.9285
 -85.9288
 -85.9171
 -85.9179
 -85.9179
 -85.9173
 -85.927
 -85.9274
 -85.9273
 -85.9275
 -85.9234
 -85.9236
 -85.9241
 -85.9237
 -85.9181
 -85.918
 -85.9186
 -85.9176
 -85.9263
 -85.9269
 -85.9266
 -85.9268
 -85.9122
 -85.9124
 -85.9124
 -85.9128
 -85.9099
 -85.9094
 -85.91
 -85.9097
 -85.9303
 -85.9306
 -85.9312
 -85.9318
 -85.9219
 -85.9222
 -85.9227
 -85.902
 -85.9018
 -85.9023
 -85.9318
 -85.9321
 -85.9323
 -85.9324
 -85.9328
 -85.9325
 -85.9323
 -85.9322
 -85.9206
 -85.9208
 -85.9211
 -85.9213
 -85.9337
 -85.9341
 -85.934
 -85.934
 -85.9342
 -85.9348
 -85.9343
 -85.9349
 -85.9181
 -85.9184
 -85.9189
 -85.9182
 -85.9294
 -85.9297
 -85.9299
 -85.9299
 -85.9376
 -85.9377
 -85.9374
 -85.9378
 -85.9293
 -85.9293
 -85.929
 -85.9297
 -85.9225
 -85.9217
 -85.922
 -85.9213
 -85.9313
 -85.9315
 -85.9311
 -85.9309
 -85.9274
 -85.9272
 -85.9277
 -85.9245
 -85.925
 -85.9042
 -85.9044
 -85.904
 -85.9038
 -85.9241
 -85.9248
 -85.9245
 -85.9245
 -85.9047
 -85.9049
 -85.905
 -85.9051
 -85.9047
 -85.9044
 -85.9054
 -85.9054
 -85.9229
 -85.9233
 -85.9233
 -85.9228
 -85.917
 -85.9171
 -85.9165
 -85.9173
 -85.9252
 -85.926
 -85.9257
 -85.9257
 -85.9214
 -85.9209
 -85.909
 -85.9087
 -85.9089
 -85.9093
 -85.9352
 -85.9354
 -85.9356
 -85.9354
 -85.9173
 -85.9169
 -85.918
 -85.9175
 -85.9312
 -85.9309
 -85.9306
 -85.931
 -85.9091
 -85.9084
 -85.909
 -85.9087
 -85.933
 -85.9336
 -85.9334
 -85.9335
 -85.9243
 -85.9236
 -85.9241
 -85.9242
 -85.9137
 -85.9129
 -85.9124
 -85.9128
 -85.9375
 -85.9374
 -85.9374
 -85.9372
 -85.9156
 -85.9162
 -85.9157
 -85.9156
 -85.918
 -85.9171
 -85.9177
 -85.9172
 -85.9356
 -85.9357
 -85.9353
 -85.9358
 -85.9206
 -85.9197
 -85.92
 -85.92
 -85.9316
 -85.9321
 -85.9318
 -85.9316
 -85.9311
 -85.9306
 -85.9308
 -85.9186
 -85.9175
 -85.9179
 -85.9179
 -85.9311
 -85.9316
 -85.9312
 -85.9314
 -85.9117
 -85.9123
 -85.9122
 -85.9117
 -85.9326
 -85.933
 -85.9329
 -85.9327
 -85.9323
 -85.9321
 -85.9324
 -85.9322
 -85.9125
 -85.9123
 -85.9134
 -85.9129
 -85.9133
 -85.9131
 -85.9137
 -85.9128
 -85.891
 -85.8912
 -85.8907
 -85.8908
 -85.9288
 -85.9281
 -85.9282
 -85.9049
 -85.9057
 -85.9059
 -85.9053
 -85.9346
 -85.9341
 -85.9343
 -85.9344
 -85.9121
 -85.9315
 -85.9309
 -85.931
 -85.9314
 -85.9316
 -85.931
 -85.9311
 -85.8965
 -85.8958
 -85.8961
 -85.8964
 -85.8951
 -85.8953
 -85.8951
 -85.8949
 -85.9342
 -85.9337
 -85.9341
 -85.9344
 -85.9133
 -85.913
 -85.9135
 -85.9129
 -85.9272
 -85.927
 -85.9276
 -85.9161
 -85.9155
 -85.9161
 -85.9153
 -85.9187
 -85.9187
 -85.9186
 -85.9313
 -85.9311
 -85.9318
 -85.924
 -85.9246
 -85.9246
 -85.9241
 -85.9164
 -85.9156
 -85.9157
 -85.9162
 -85.9128
 -85.9131
 -85.9127
 -85.913
 -85.9272
 -85.9277
 -85.9277
 -85.9082
 -85.9087
 -85.9076
 -85.9075
 -85.9128
 -85.9139
 -85.913
 -85.9179
 -85.919
 -85.9187
 -85.9184
 -85.9112
 -85.9118
 -85.9119
 -85.9116
 -85.9129
 -85.9136
 -85.9138
 -85.9136
 -85.9316
 -85.9312
 -85.9312
 -85.9312
 -85.9195
 -85.9189
 -85.9193
 -85.9197
 -85.9147
 -85.9147
 -85.9223
 -85.9219
 -85.9221
 -85.9215
 -85.9333
 -85.9348
 -85.935
 -85.9349
 -85.9348
 -85.89
 -85.8899
 -85.8898
 -85.8901
 -85.9302
 -85.9309
 -85.9304
 -85.9364
 -85.9363
 -85.9362
 -85.9364
 -85.929
 -85.9283
 -85.9286
 -85.9284
 -85.9125
 -85.9127
 -85.9131
 -85.9125
 -85.9189
 -85.9184
 -85.9182
 -85.9181
 -85.9368
 -85.9367
 -85.9366
 -85.9365
 -85.9288
 -85.9283
 -85.9279
 -85.9284
 -85.9078
 -85.9073
 -85.9072
 -85.9082
 -85.918
 -85.918
 -85.9182
 -85.9171
 -85.9173
 -85.9176
 -85.9179
 -85.9173
 -85.89
 -85.8899
 -85.8899
 -85.8901
 -85.9116
 -85.9115
 -85.9114
 -85.9119
 -85.929
 -85.9298
 -85.9291
 -85.9294
 -85.9245
 -85.9244
 -85.9251
 -85.9243
 -85.9197
 -85.92
 -85.9207
 -85.92
 -85.9279
 -85.9285
 -85.9282
 -85.9283
 -85.9246
 -85.9247
 -85.9252
 -85.9245
 -85.9281
 -85.928
 -85.9277
 -85.9287
 -85.9375
 -85.937
 -85.9371
 -85.9376
 -85.93
 -85.9296
 -85.9295
 -85.9287
 -85.9275
 -85.927
 -85.9267
 -85.9274
 -85.9268
 -85.9223
 -85.9223
 -85.9218
 -85.9229
 -85.935
 -85.9348
 -85.9347
 -85.9347
 -85.9195
 -85.9191
 -85.9197
 -85.9194
 -85.9241
 -85.9244
 -85.9247
 -85.9237
 -85.9212
 -85.9205
 -85.921
 -85.9216
 -85.9162
 -85.9152
 -85.916
 -85.9154
 -85.9003
 -85.9007
 -85.9016
 -85.9004
 -85.9378
 -85.9374
 -85.9263
 -85.9259
 -85.9259
 -85.8926
 -85.8926
 -85.8926
 -85.914
 -85.9134
 -85.9137
 -85.9131
 -85.9044
 -85.9046
 -85.9034
 -85.9033
 -85.9104
 -85.91
 -85.9105
 -85.9095
 -85.9349
 -85.9341
 -85.9345
 -85.9345
 -85.9226
 -85.9219
 -85.9221
 -85.9218
 -85.927
 -85.9277
 -85.9276
 -85.9282
 -85.9246
 -85.9246
 -85.924
 -85.9237
 -85.9283
 -85.9286
 -85.9281
 -85.9282
 -85.9202
 -85.9202
 -85.9314
 -85.9301
 -85.9314
 -85.9304
 -85.9284
 -85.9279
 -85.9276
 -85.9287
 -85.9137
 -85.913
 -85.9138
 -85.9131
 -85.9139
 -85.9141
 -85.914
 -85.9142
 -85.9238
 -85.9238
 -85.9236
 -85.9241
 -85.9227
 -85.923
 -85.9234
 -85.9238
 -85.9106
 -85.9096
 -85.9095
 -85.9106
 -85.9276
 -85.9273
 -85.9271
 -85.9269
 -85.937
 -85.9368
 -85.937
 -85.9369
 -85.9322
 -85.9319
 -85.9319
 -85.9317
 -85.9376
 -85.9377
 -85.9375
 -85.9378
 -85.9329
 -85.9334
 -85.9333
 -85.9333
 -85.922
 -85.9229
 -85.9221
 -85.9222
 -85.9275
 -85.927
 -85.9206
 -85.9214
 -85.9204
 -85.9209
 -85.9138
 -85.9143
 -85.9143
 -85.9145
 -85.9299
 -85.9305
 -85.9305
 -85.93
 -85.9203
 -85.9201
 -85.9204
 -85.9196
 -85.9181
 -85.9176
 -85.9174
 -85.9177
 -85.9126
 -85.9127
 -85.913
 -85.9134
 -85.9148
 -85.9146
 -85.9143
 -85.9153
 -85.9125
 -85.9129
 -85.9131
 -85.9127
 -85.9015
 -85.9017
 -85.9012
 -85.9013
 -85.9292
 -85.9294
 -85.9287
 -85.9292
 -85.9266
 -85.9268
 -85.9026
 -85.9031
 -85.903
 -85.9022
 -85.9159
 -85.9161
 -85.9259
 -85.9255
 -85.926
 -85.9322
 -85.9322
 -85.9116
 -85.9115
 -85.9113
 -85.9119
 -85.9025
 -85.903
 -85.903
 -85.9031
 -85.91
 -85.9103
 -85.9107
 -85.9109
 -85.9157
 -85.9161
 -85.9163
 -85.9165
 -85.9248
 -85.924
 -85.924
 -85.9241
 -85.9266
 -85.9263
 -85.9263
 -85.9261
 -85.9155
 -85.9162
 -85.9162
 -85.916
 -85.9242
 -85.9242
 -85.9244
 -85.9235
 -85.9215
 -85.9211
 -85.9209
 -85.9213
 -85.9227
 -85.9232
 -85.9235
 -85.9232
 -85.9231
 -85.9224
 -85.9233
 -85.9205
 -85.9201
 -85.9211
 -85.9207
 -85.9168
 -85.9171
 -85.9163
 -85.9166
 -85.9132
 -85.9138
 -85.9129
 -85.9136
 -85.9347
 -85.9347
 -85.9349
 -85.9352
 -85.9193
 -85.9193
 -85.9199
 -85.92
 -85.9097
 -85.9096
 -85.9089
 -85.9095
 -85.9078
 -85.9079
 -85.9076
 -85.9075
 -85.9108
 -85.9104
 -85.9104
 -85.9106
 -85.9124
 -85.9124
 -85.9131
 -85.9132
 -85.913
 -85.9127
 -85.9125
 -85.9128
 -85.9342
 -85.9345
 -85.9344
 -85.9345
 -85.9184
 -85.9184
 -85.9182
 -85.9188
 -85.9288
 -85.9291
 -85.9288
 -85.9285
 -85.9131
 -85.9138
 -85.9128
 -85.9135
 -85.9353
 -85.9355
 -85.9354
 -85.9358
 -85.9359
 -85.9359
 -85.9362
 -85.9279
 -85.9267
 -85.9271
 -85.9272
 -85.9145
 -85.9148
 -85.9141
 -85.9146
 -85.9369
 -85.9365
 -85.9366
 -85.9177
 -85.9171
 -85.9175
 -85.9166
 -85.9329
 -85.933
 -85.9321
 -85.9323
 -85.9328
 -85.9321
 -85.9166
 -85.916
 -85.9163
 -85.9081
 -85.9083
 -85.9076
 -85.9079
 -85.9128
 -85.9123
 -85.913
 -85.913
 -85.9216
 -85.9223
 -85.9215
 -85.9352
 -85.9345
 -85.9346
 -85.9282
 -85.9276
 -85.9273
 -85.9277
 -85.9355
 -85.9355
 -85.9349
 -85.936
 -85.9186
 -85.9193
 -85.9196
 -85.9191
 -85.9327
 -85.9328
 -85.9331
 -85.9323
 -85.9219
 -85.922
 -85.9215
 -85.9213
 -85.915
 -85.9144
 -85.9147
 -85.9365
 -85.9361
 -85.9363
 -85.9368
 -85.9268
 -85.9244
 -85.9251
 -85.9249
 -85.9245
 -85.925
 -85.9251
 -85.9246
 -85.9145
 -85.9141
 -85.9141
 -85.9141
 -85.914
 -85.9148
 -85.9191
 -85.9183
 -85.9182
 -85.9181
 -85.9182
 -85.9189
 -85.9183
 -85.9187
 -85.9278
 -85.937
 -85.9365
 -85.9363
 -85.9368
 -85.8981
 -85.8973
 -85.8979
 -85.8979
 -85.9162
 -85.9157
 -85.9146
 -85.9143
 -85.9146
 -85.9148
 -85.914
 -85.9141
 -85.9133
 -85.9136
 -85.9287
 -85.928
 -85.9282
 -85.9285
 -85.9293
 -85.9297
 -85.9289
 -85.9294
 -85.9149
 -85.9143
 -85.9271
 -85.927
 -85.9279
 -85.9274
 -85.9278
 -85.9284
 -85.9278
 -85.9234
 -85.9231
 -85.9227
 -85.9224
 -85.9194
 -85.9188
 -85.9193
 -85.9188
 -85.9289
 -85.9297
 -85.9295
 -85.9291
 -85.9309
 -85.9311
 -85.9315
 -85.931
 -85.9297
 -85.9303
 -85.9298
 -85.9293
 -85.9295
 -85.9294
 -85.9288
 -85.919
 -85.9192
 -85.9192
 -85.9187
 -85.906
 -85.9059
 -85.9063
 -85.9064
 -85.9171
 -85.9169
 -85.9167
 -85.9168
 -85.9307
 -85.9302
 -85.9299
 -85.9305
 -85.9269
 -85.9268
 -85.9267
 -85.9273
 -85.917
 -85.9174
 -85.9176
 -85.9177
 -85.927
 -85.9263
 -85.9267
 -85.9269
 -85.9231
 -85.9233
 -85.9223
 -85.9233
 -85.9234
 -85.9241
 -85.9239
 -85.924
 -85.9268
 -85.9271
 -85.9272
 -85.9347
 -85.9348
 -85.9346
 -85.9347
 -85.9168
 -85.9175
 -85.9172
 -85.9173
 -85.9209
 -85.9217
 -85.9215
 -85.9213
 -85.906
 -85.9054
 -85.9055
 -85.9062
 -85.9124
 -85.9129
 -85.9129
 -85.9124
 -85.9134
 -85.9123
 -85.9128
 -85.9122
 -85.9124
 -85.9127
 -85.9126
 -85.9129
 -85.9229
 -85.9224
 -85.9226
 -85.9102
 -85.91
 -85.9104
 -85.9104
 -85.9111
 -85.9114
 -85.9119
 -85.911
 -85.9364
 -85.9361
 -85.9361
 -85.9362
 -85.9233
 -85.9229
 -85.9228
 -85.9225
 -85.9314
 -85.9314
 -85.9312
 -85.9308
 -85.9246
 -85.9249
 -85.9244
 -85.924
 -85.9266
 -85.9271
 -85.9267
 -85.9268
 -85.9141
 -85.9136
 -85.9139
 -85.9131
 -85.9209
 -85.9222
 -85.9213
 -85.9214
 -85.9311
 -85.9314
 -85.9309
 -85.931
 -85.9252
 -85.925
 -85.9257
 -85.9255
 -85.9115
 -85.9112
 -85.9121
 -85.9122
 -85.9347
 -85.9349
 -85.9348
 -85.9349
 -85.9172
 -85.9166
 -85.911
 -85.9211
 -85.9214
 -85.9218
 -85.9209
 -85.9193
 -85.9198
 -85.9191
 -85.9191
 -85.9036
 -85.9035
 -85.9043
 -85.9162
 -85.9156
 -85.9155
 -85.9151
 -85.9247
 -85.9257
 -85.9253
 -85.9258
 -85.9217
 -85.9223
 -85.9219
 -85.9217
 -85.9336
 -85.9338
 -85.9339
 -85.9337
 -85.913
 -85.9139
 -85.9132
 -85.9138
 -85.9137
 -85.9136
 -85.9144
 -85.9042
 -85.9033
 -85.9037
 -85.9043
 -85.9126
 -85.9133
 -85.9129
 -85.9241
 -85.9255
 -85.9243
 -85.9124
 -85.9124
 -85.9119
 -85.9121
 -85.9193
 -85.92
 -85.9202
 -85.92
 -85.8901
 -85.8901
 -85.8901
 -85.8905
 -85.9187
 -85.9185
 -85.9186
 -85.9095
 -85.9094
 -85.9095
 -85.9096
 -85.9186
 -85.9183
 -85.9176
 -85.9182
 -85.9119
 -85.9124
 -85.9124
 -85.9127
 -85.9272
 -85.9274
 -85.927
 -85.9276
 -85.9289
 -85.9285
 -85.929
 -85.9292
 -85.9359
 -85.9359
 -85.9361
 -85.9357
 -85.9237
 -85.9228
 -85.9236
 -85.9238
 -85.9117
 -85.9111
 -85.9116
 -85.9113
 -85.9145
 -85.9141
 -85.9072
 -85.9072
 -85.9075
 -85.9075
 -85.9201
 -85.9204
 -85.9162
 -85.9172
 -85.917
 -85.9138
 -85.9141
 -85.9144
 -85.914
 -85.9345
 -85.9346
 -85.9339
 -85.934
 -85.934
 -85.9338
 -85.9336
 -85.9339
 -85.9142
 -85.9144
 -85.914
 -85.9134
 -85.9101
 -85.9102
 -85.9248
 -85.9249
 -85.9247
 -85.9253
 -85.9134
 -85.9132
 -85.9138
 -85.9137
 -85.9172
 -85.9163
 -85.9178
 -85.9376
 -85.9378
 -85.9375
 -85.9217
 -85.9225
 -85.9221
 -85.9222
 -85.9325
 -85.933
 -85.9323
 -85.9321
 -85.9227
 -85.9233
 -85.9234
 -85.9227
 -85.9287
 -85.9292
 -85.9293
 -85.9284
 -85.9115
 -85.912
 -85.9116
 -85.9114
 -85.913
 -85.9138
 -85.9127
 -85.9136
 -85.923
 -85.9224
 -85.9235
 -85.9227
 -85.9165
 -85.9173
 -85.9175
 -85.9164
 -85.9111
 -85.9113
 -85.9116
 -85.9121
 -85.9194
 -85.9198
 -85.9202
 -85.9205
 -85.9261
 -85.9262
 -85.9258
 -85.9226
 -85.9232
 -85.9228
 -85.9232
 -85.8937
 -85.8945
 -85.8947
 -85.8942
 -85.9103
 -85.9102
 -85.9104
 -85.9103
 -85.9162
 -85.916
 -85.9161
 -85.9168
 -85.902
 -85.9026
 -85.9016
 -85.9023
 -85.9323
 -85.9322
 -85.9318
 -85.9362
 -85.936
 -85.9358
 -85.9359
 -85.9297
 -85.9307
 -85.9302
 -85.9302
 -85.9224
 -85.9261
 -85.9268
 -85.9271
 -85.9266
 -85.921
 -85.9215
 -85.9206
 -85.9207
 -85.9096
 -85.9089
 -85.9093
 -85.9135
 -85.9138
 -85.914
 -85.913
 -85.8941
 -85.8933
 -85.894
 -85.893
 -85.9037
 -85.9037
 -85.904
 -85.9036
 -85.9156
 -85.9156
 -85.9161
 -85.9165
 -85.9367
 -85.9362
 -85.9364
 -85.9362
 -85.896
 -85.8959
 -85.8967
 -85.8964
 -85.928
 -85.9285
 -85.9276
 -85.9281
 -85.9226
 -85.9227
 -85.9233
 -85.9227
 -85.9142
 -85.913
 -85.913
 -85.92
 -85.9193
 -85.9191
 -85.9191
 -85.9363
 -85.9364
 -85.9365
 -85.9102
 -85.9113
 -85.9115
 -85.919
 -85.9194
 -85.9201
 -85.92
 -85.9159
 -85.9157
 -85.9156
 -85.9154
 -85.9167
 -85.9165
 -85.9173
 -85.9174
 -85.9094
 -85.909
 -85.909
 -85.9098
 -85.9201
 -85.9206
 -85.9198
 -85.9207
 -85.9346
 -85.9338
 -85.9339
 -85.9335
 -85.9334
 -85.9333
 -85.9331
 -85.9336
 -85.9083
 -85.9084
 -85.9085
 -85.9082
 -85.9318
 -85.932
 -85.9319
 -85.9313
 -85.9341
 -85.9347
 -85.9345
 -85.9339
 -85.9315
 -85.9315
 -85.9308
 -85.931
 -85.9262
 -85.9261
 -85.9266
 -85.9263
 -85.9215
 -85.921
 -85.9218
 -85.9157
 -85.9147
 -85.9151
 -85.9152
 -85.9293
 -85.9289
 -85.9284
 -85.9291
 -85.93
 -85.9301
 -85.9305
 -85.9304
 -85.9379
 -85.9378
 -85.9375
 -85.9376
 -85.9038
 -85.9043
 -85.9041
 -85.9042
 -85.9074
 -85.9072
 -85.9072
 -85.9076
 -85.9096
 -85.9094
 -85.9103
 -85.9094
 -85.9161
 -85.9152
 -85.9159
 -85.9158
 -85.9174
 -85.9175
 -85.9174
 -85.9344
 -85.9348
 -85.9353
 -85.935
 -85.9307
 -85.9305
 -85.9302
 -85.9301
 -85.9207
 -85.9202
 -85.92
 -85.9204
 -85.9337
 -85.9341
 -85.9246
 -85.9247
 -85.9246
 -85.924
 -85.9336
 -85.9338
 -85.9343
 -85.9338
 -85.9234
 -85.9242
 -85.9232
 -85.9243
 -85.9155
 -85.916
 -85.9149
 -85.9154
 -85.9068
 -85.9063
 -85.9068
 -85.9074
 -85.8933
 -85.894
 -85.8929
 -85.8936
 -85.9327
 -85.9323
 -85.9323
 -85.9328
 -85.9336
 -85.9336
 -85.9337
 -85.934
 -85.9185
 -85.9176
 -85.9183
 -85.9178
 -85.9223
 -85.9219
 -85.9218
 -85.9223
 -85.9131
 -85.9125
 -85.9135
 -85.925
 -85.9246
 -85.9246
 -85.9242
 -85.9132
 -85.9131
 -85.9135
 -85.9136
 -85.9212
 -85.9205
 -85.92
 -85.9204
 -85.9266
 -85.9263
 -85.9265
 -85.9267
 -85.9227
 -85.9225
 -85.9222
 -85.9318
 -85.9312
 -85.9314
 -85.9314
 -85.9255
 -85.9264
 -85.9012
 -85.9021
 -85.9009
 -85.9015
 -85.9293
 -85.929
 -85.9292
 -85.9141
 -85.9143
 -85.9144
 -85.914
 -85.9255
 -85.9256
 -85.9253
 -85.921
 -85.9203
 -85.9211
 -85.9206
 -85.9252
 -85.9244
 -85.9255
 -85.9249
 -85.9255
 -85.9262
 -85.8974
 -85.8973
 -85.8969
 -85.8973
 -85.8943
 -85.8935
 -85.8931
 -85.8938
 -85.9217
 -85.9209
 -85.9212
 -85.9209
 -85.9249
 -85.9245
 -85.9249
 -85.9244
 -85.8976
 -85.8976
 -85.8977
 -85.8982
 -85.914
 -85.9133
 -85.9088
 -85.909
 -85.9092
 -85.9097
 -85.9258
 -85.9257
 -85.9265
 -85.9261
 -85.9245
 -85.9246
 -85.9252
 -85.9242
 -85.9252
 -85.9245
 -85.9244
 -85.9245
 -85.916
 -85.9161
 -85.9166
 -85.916
 -85.9115
 -85.9112
 -85.9105
 -85.9115
 -85.9046
 -85.9054
 -85.9053
 -85.9046
 -85.912
 -85.912
 -85.912
 -85.913
 -85.9294
 -85.9289
 -85.9295
 -85.9293
 -85.9218
 -85.9202
 -85.921
 -85.9029
 -85.9034
 -85.9039
 -85.9271
 -85.9281
 -85.9276
 -85.9276
 -85.9277
 -85.9267
 -85.9271
 -85.9274
 -85.9186
 -85.9182
 -85.9179
 -85.9198
 -85.92
 -85.9207
 -85.92
 -85.9118
 -85.9115
 -85.9114
 -85.9114
 -85.9315
 -85.9313
 -85.9318
 -85.9316
 -85.9107
 -85.9105
 -85.9106
 -85.9108
 -85.9097
 -85.9093
 -85.9097
 -85.9359
 -85.9365
 -85.9368
 -85.9363
 -85.9311
 -85.9315
 -85.915
 -85.9146
 -85.9153
 -85.9151
 -85.9212
 -85.922
 -85.9213
 -85.9198
 -85.9195
 -85.9196
 -85.919
 -85.9109
 -85.9116
 -85.9112
 -85.931
 -85.9314
 -85.9307
 -85.9309
 -85.9107
 -85.9117
 -85.9111
 -85.9109
 -85.9283
 -85.9277
 -85.9274
 -85.9276
 -85.9109
 -85.9112
 -85.9117
 -85.911
 -85.9115
 -85.9112
 -85.9142
 -85.9138
 -85.914
 -85.9143
 -85.904
 -85.9037
 -85.903
 -85.9036
 -85.9294
 -85.93
 -85.9167
 -85.9171
 -85.9172
 -85.9172
 -85.936
 -85.9358
 -85.9359
 -85.9361
 -85.9158
 -85.9152
 -85.916
 -85.9166
 -85.9304
 -85.931
 -85.9311
 -85.9311
 -85.9337
 -85.9343
 -85.9334
 -85.9341
 -85.9281
 -85.9274
 -85.9348
 -85.9351
 -85.935
 -85.9349
 -85.9112
 -85.9111
 -85.9109
 -85.9117
 -85.9348
 -85.935
 -85.935
 -85.9348
 -85.9364
 -85.937
 -85.9367
 -85.9364
 -85.9241
 -85.9241
 -85.9247
 -85.9245
 -85.9199
 -85.9196
 -85.9204
 -85.9208
 -85.9329
 -85.9322
 -85.9327
 -85.9329
 -85.902
 -85.9029
 -85.9022
 -85.9019
 -85.9325
 -85.9333
 -85.9165
 -85.9171
 -85.917
 -85.9178
 -85.9326
 -85.9323
 -85.9318
 -85.9319
 -85.9119
 -85.9125
 -85.9124
 -85.9124
 -85.9175
 -85.9164
 -85.9168
 -85.9173
 -85.9123
 -85.9121
 -85.913
 -85.9118
 -85.9114
 -85.9117
 -85.9112
 -85.9104
 -85.9109
 -85.9107
 -85.9109
 -85.9247
 -85.9242
 -85.924
 -85.932
 -85.932
 -85.9325
 -85.9325
 -85.9231
 -85.9228
 -85.9224
 -85.9118
 -85.9114
 -85.9117
 -85.9211
 -85.9221
 -85.9212
 -85.9219
 -85.9257
 -85.9256
 -85.9256
 -85.9264
 -85.9191
 -85.9198
 -85.9199
 -85.9197
 -85.9187
 -85.9184
 -85.9182
 -85.9173
 -85.9168
 -85.9167
 -85.9176
 -85.9181
 -85.9185
 -85.9174
 -85.9323
 -85.932
 -85.9323
 -85.9318
 -85.9271
 -85.9267
 -85.9271
 -85.9273
 -85.9201
 -85.9202
 -85.9199
 -85.9209
 -85.9104
 -85.9098
 -85.9103
 -85.9233
 -85.9229
 -85.9232
 -85.9234
 -85.9146
 -85.9137
 -85.9141
 -85.9137
 -85.8991
 -85.8995
 -85.899
 -85.8988
 -85.9177
 -85.9173
 -85.9176
 -85.9175
 -85.9328
 -85.9327
 -85.9333
 -85.9331
 -85.917
 -85.9177
 -85.9173
 -85.9169
 -85.9109
 -85.9109
 -85.9111
 -85.9114
 -85.9114
 -85.9111
 -85.9112
 -85.9196
 -85.9197
 -85.9194
 -85.926
 -85.9168
 -85.9156
 -85.9164
 -85.9163
 -85.9338
 -85.9338
 -85.934
 -85.933
 -85.9331
 -85.9333
 -85.9166
 -85.9173
 -85.9168
 -85.9172
 -85.9362
 -85.9364
 -85.9366
 -85.9366
 -85.9121
 -85.9243
 -85.9236
 -85.9241
 -85.9239
 -85.9119
 -85.9121
 -85.912
 -85.9122
 -85.9335
 -85.9339
 -85.9332
 -85.9336
 -85.9265
 -85.9274
 -85.9271
 -85.9266
 -85.9299
 -85.9303
 -85.9295
 -85.9297
 -85.9103
 -85.9106
 -85.9108
 -85.9104
 -85.9152
 -85.9158
 -85.9151
 -85.9152
 -85.9233
 -85.9228
 -85.9234
 -85.9227
 -85.9156
 -85.9148
 -85.9159
 -85.9151
 -85.9261
 -85.9263
 -85.9269
 -85.9268
 -85.9124
 -85.9121
 -85.9128
 -85.9128
 -85.9146
 -85.9148
 -85.9155
 -85.9152
 -85.9243
 -85.9244
 -85.9245
 -85.9251
 -85.9335
 -85.9341
 -85.9338
 -85.9341
 -85.9089
 -85.9092
 -85.9097
 -85.9096
 -85.9042
 -85.9032
 -85.9042
 -85.9041
 -85.9341
 -85.9346
 -85.9344
 -85.9344
 -85.9053
 -85.9046
 -85.9052
 -85.9047
 -85.9045
 -85.9053
 -85.9214
 -85.9216
 -85.9211
 -85.9208
 -85.915
 -85.9155
 -85.9154
 -85.9148
 -85.9379
 -85.9379
 -85.9379
 -85.9377
 -85.9335
 -85.9334
 -85.934
 -85.9263
 -85.9262
 -85.9268
 -85.9261
 -85.9115
 -85.9117
 -85.9111
 -85.9119
 -85.9146
 -85.9145
 -85.9143
 -85.9141
 -85.9146
 -85.9149
 -85.9265
 -85.9276
 -85.9272
 -85.9268
 -85.9253
 -85.9253
 -85.9247
 -85.9255
 -85.9273
 -85.9271
 -85.9266
 -85.9272
 -85.9362
 -85.9362
 -85.9356
 -85.9364
 -85.9287
 -85.9286
 -85.9281
 -85.9177
 -85.9224
 -85.9222
 -85.9224
 -85.9219
 -85.9229
 -85.9221
 -85.9223
 -85.9227
 -85.9317
 -85.9315
 -85.9314
 -85.9311
 -85.9287
 -85.9283
 -85.9284
 -85.9289
 -85.925
 -85.9244
 -85.9244
 -85.9161
 -85.9155
 -85.9162
 -85.9152
 -85.9222
 -85.9232
 -85.9227
 -85.9227
 -85.9174
 -85.9179
 -85.9171
 -85.896
 -85.8959
 -85.8955
 -85.8963
 -85.9319
 -85.9328
 -85.9324
 -85.9317
 -85.9309
 -85.9319
 -85.9314
 -85.8969
 -85.9232
 -85.9233
 -85.9231
 -85.9239
 -85.9248
 -85.9249
 -85.907
 -85.907
 -85.9069
 -85.9072
 -85.9096
 -85.9099
 -85.9107
 -85.9097
 -85.9133
 -85.9137
 -85.9135
 -85.9137
 -85.913
 -85.9134
 -85.9136
 -85.9129
 -85.9129
 -85.9134
 -85.9175
 -85.9169
 -85.9167
 -85.9168
 -85.9183
 -85.919
 -85.9379
 -85.9378
 -85.9111
 -85.9122
 -85.9111
 -85.9117
 -85.9199
 -85.9196
 -85.9202
 -85.9193
 -85.9084
 -85.9087
 -85.9076
 -85.9078
 -85.9325
 -85.9328
 -85.9321
 -85.9324
 -85.9306
 -85.9301
 -85.9306
 -85.9301
 -85.9261
 -85.9266
 -85.9267
 -85.9263
 -85.9234
 -85.9236
 -85.9245
 -85.9242
 -85.9216
 -85.9213
 -85.9111
 -85.9281
 -85.9287
 -85.9287
 -85.9287
 -85.9355
 -85.9354
 -85.936
 -85.9353
 -85.9312
 -85.9319
 -85.9311
 -85.9314
 -85.8902
 -85.8902
 -85.8903
 -85.8905
 -85.9357
 -85.9359
 -85.9356
 -85.9357
 -85.9136
 -85.9136
 -85.913
 -85.9139
 -85.9164
 -85.9156
 -85.9159
 -85.9153
 -85.9275
 -85.9276
 -85.9279
 -85.928
 -85.9278
 -85.9276
 -85.9273
 -85.9275
 -85.9117
 -85.9125
 -85.912
 -85.9123
 -85.9355
 -85.9356
 -85.9354
 -85.9355
 -85.9328
 -85.933
 -85.9329
 -85.9332
 -85.9281
 -85.9281
 -85.9286
 -85.9286
 -85.933
 -85.9325
 -85.9328
 -85.9329
 -85.9146
 -85.9153
 -85.9154
 -85.9156
 -85.9116
 -85.9118
 -85.9119
 -85.9121
 -85.9321
 -85.9317
 -85.9315
 -85.9316
 -85.9191
 -85.9189
 -85.9188
 -85.9182
 -85.9199
 -85.9195
 -85.9194
 -85.9198
 -85.8945
 -85.8949
 -85.8951
 -85.895
 -85.9354
 -85.9356
 -85.9335
 -85.9335
 -85.9332
 -85.9338
 -85.9085
 -85.9079
 -85.9077
 -85.9085
 -85.9154
 -85.9145
 -85.9144
 -85.9142
 -85.9329
 -85.9325
 -85.9332
 -85.9333
 -85.9184
 -85.9186
 -85.9183
 -85.919
 -85.9169
 -85.9171
 -85.9164
 -85.9165
 -85.936
 -85.9361
 -85.9359
 -85.9358
 -85.9229
 -85.9227
 -85.9229
 -85.9232
 -85.9213
 -85.9215
 -85.9214
 -85.9209
 -85.9301
 -85.9303
 -85.9305
 -85.9301
 -85.9265
 -85.9262
 -85.926
 -85.9256
 -85.9185
 -85.9185
 -85.9177
 -85.9155
 -85.916
 -85.9157
 -85.9167
 -85.9058
 -85.9054
 -85.9054
 -85.9065
 -85.9163
 -85.9167
 -85.9168
 -85.917
 -85.9223
 -85.9219
 -85.9222
 -85.9217
 -85.9356
 -85.9358
 -85.9358
 -85.9352
 -85.9167
 -85.9178
 -85.9173
 -85.9171
 -85.9085
 -85.9084
 -85.9079
 -85.9075
 -85.9276
 -85.9283
 -85.928
 -85.9275
 -85.9252
 -85.925
 -85.9247
 -85.9222
 -85.9231
 -85.9233
 -85.9235
 -85.9049
 -85.9048
 -85.9048
 -85.9054
 -85.9234
 -85.9229
 -85.923
 -85.9227
 -85.9351
 -85.9351
 -85.9352
 -85.9352
 -85.9227
 -85.9226
 -85.9229
 -85.923
 -85.91
 -85.9096
 -85.9099
 -85.9101
 -85.9125
 -85.9129
 -85.9124
 -85.912
 -85.9379
 -85.9378
 -85.938
 -85.9379
 -85.9145
 -85.9147
 -85.9146
 -85.9136
 -85.925
 -85.9242
 -85.9244
 -85.9247
 -85.9378
 -85.9379
 -85.9377
 -85.9376
 -85.9338
 -85.9344
 -85.934
 -85.9278
 -85.9278
 -85.9285
 -85.9287
 -85.9322
 -85.9323
 -85.9329
 -85.932
 -85.8993
 -85.8998
 -85.9002
 -85.9001
 -85.9123
 -85.9131
 -85.912
 -85.9347
 -85.9352
 -85.9351
 -85.9352
 -85.9247
 -85.9244
 -85.9251
 -85.9242
 -85.9297
 -85.9296
 -85.9303
 -85.9292
 -85.9093
 -85.9092
 -85.9087
 -85.9085
 -85.9181
 -85.9191
 -85.9181
 -85.9186
 -85.9261
 -85.9251
 -85.9255
 -85.9077
 -85.9079
 -85.9082
 -85.9082
 -85.9122
 -85.9108
 -85.9111
 -85.9109
 -85.9172
 -85.9349
 -85.9352
 -85.935
 -85.9354
 -85.9003
 -85.9003
 -85.8996
 -85.8997
 -85.9299
 -85.9309
 -85.9304
 -85.931
 -85.9255
 -85.925
 -85.9251
 -85.9245
 -85.8961
 -85.9313
 -85.9309
 -85.9316
 -85.9348
 -85.9354
 -85.9349
 -85.935
 -85.9203
 -85.9202
 -85.9213
 -85.9206
 -85.927
 -85.927
 -85.9274
 -85.9267
 -85.9135
 -85.9129
 -85.9215
 -85.9212
 -85.9211
 -85.9218
 -85.9133
 -85.9129
 -85.9125
 -85.913
 -85.9156
 -85.9154
 -85.9163
 -85.9164
 -85.9281
 -85.9277
 -85.9282
 -85.9283
 -85.9026
 -85.9025
 -85.9025
 -85.9033
 -85.9117
 -85.9114
 -85.9117
 -85.9113
 -85.9041
 -85.9047
 -85.9096
 -85.9097
 -85.9098
 -85.9096
 -85.9086
 -85.9081
 -85.9088
 -85.9082
 -85.9359
 -85.9356
 -85.9353
 -85.9352
 -85.9242
 -85.9242
 -85.9239
 -85.9248
 -85.9178
 -85.9188
 -85.9184
 -85.9183
 -85.9222
 -85.922
 -85.9218
 -85.9224
 -85.9354
 -85.9353
 -85.9075
 -85.9072
 -85.9072
 -85.9075
 -85.9352
 -85.9354
 -85.935
 -85.9013
 -85.9011
 -85.9013
 -85.9009
 -85.9342
 -85.9335
 -85.934
 -85.9337
 -85.9161
 -85.9156
 -85.9162
 -85.9155
 -85.9198
 -85.9198
 -85.9195
 -85.9349
 -85.9346
 -85.9347
 -85.9349
 -85.924
 -85.9234
 -85.924
 -85.9236
 -85.9199
 -85.9203
 -85.9208
 -85.9202
 -85.9162
 -85.9159
 -85.9181
 -85.9168
 -85.9177
 -85.9173
 -85.9253
 -85.9246
 -85.925
 -85.9359
 -85.9353
 -85.9352
 -85.9358
 -85.9195
 -85.92
 -85.9195
 -85.9197
 -85.9182
 -85.9178
 -85.9152
 -85.9144
 -85.9142
 -85.9149
 -85.9029
 -85.903
 -85.9038
 -85.9241
 -85.9243
 -85.9234
 -85.9234
 -85.9356
 -85.9356
 -85.9356
 -85.904
 -85.9037
 -85.9041
 -85.9192
 -85.9187
 -85.919
 -85.9184
 -85.9268
 -85.9269
 -85.9262
 -85.9264
 -85.8995
 -85.8991
 -85.8993
 -85.8995
 -85.9325
 -85.9327
 -85.9324
 -85.9323
 -85.9274
 -85.927
 -85.927
 -85.9267
 -85.9311
 -85.9312
 -85.9309
 -85.9346
 -85.9347
 -85.9353
 -85.9349
 -85.922
 -85.9212
 -85.9219
 -85.9221
 -85.9347
 -85.9345
 -85.9344
 -85.9342
 -85.9163
 -85.9161
 -85.9166
 -85.9158
 -85.9357
 -85.9261
 -85.9212
 -85.921
 -85.9216
 -85.9207
 -85.9252
 -85.925
 -85.9246
 -85.9245
 -85.929
 -85.929
 -85.9286
 -85.9283
 -85.9257
 -85.9255
 -85.9261
 -85.9258
 -85.9296
 -85.9292
 -85.9296
 -85.9296
 -85.9212
 -85.9208
 -85.9209
 -85.9215
 -85.92
 -85.9201
 -85.9203
 -85.9206
 -85.9181
 -85.9179
 -85.9177
 -85.9184
 -85.9204
 -85.9203
 -85.9197
 -85.9109
 -85.9111
 -85.9109
 -85.9113
 -85.9219
 -85.9266
 -85.9274
 -85.9275
 -85.9272
 -85.9352
 -85.9351
 -85.9345
 -85.9152
 -85.9141
 -85.9145
 -85.9142
 -85.9227
 -85.9235
 -85.9232
 -85.9255
 -85.9253
 -85.925
 -85.9248
 -85.927
 -85.9273
 -85.9278
 -85.928
 -85.9333
 -85.9335
 -85.934
 -85.9335
 -85.9131
 -85.913
 -85.9134
 -85.9125
 -85.9227
 -85.9223
 -85.9223
 -85.9219
 -85.9205
 -85.9202
 -85.9198
 -85.9205
 -85.9199
 -85.9196
 -85.9194
 -85.919
 -85.9215
 -85.9213
 -85.9217
 -85.9209
 -85.9287
 -85.9278
 -85.9289
 -85.9282
 -85.9199
 -85.9189
 -85.9193
 -85.9195
 -85.9073
 -85.9073
 -85.9073
 -85.9076
 -85.9053
 -85.9057
 -85.9055
 -85.9214
 -85.9215
 -85.922
 -85.9222
 -85.9216
 -85.9218
 -85.9221
 -85.9224
 -85.9202
 -85.9196
 -85.9206
 -85.9206
 -85.9344
 -85.9345
 -85.9338
 -85.9338
 -85.9291
 -85.9286
 -85.9284
 -85.929
 -85.9147
 -85.9151
 -85.915
 -85.9151
 -85.91
 -85.9109
 -85.9107
 -85.9096
 -85.933
 -85.9327
 -85.9324
 -85.933
 -85.9008
 -85.9002
 -85.9004
 -85.9012
 -85.9168
 -85.9174
 -85.9171
 -85.917
 -85.9091
 -85.9094
 -85.9094
 -85.9125
 -85.9129
 -85.913
 -85.9135
 -85.928
 -85.9279
 -85.9284
 -85.9274
 -85.9124
 -85.9117
 -85.9118
 -85.9122
 -85.9055
 -85.907
 -85.906
 -85.8994
 -85.9001
 -85.9005
 -85.9001
 -85.9366
 -85.9367
 -85.9368
 -85.9371
 -85.914
 -85.9135
 -85.9138
 -85.9142
 -85.9243
 -85.9235
 -85.9237
 -85.9241
 -85.9339
 -85.9337
 -85.9333
 -85.9336
 -85.931
 -85.9315
 -85.9308
 -85.931
 -85.9145
 -85.9147
 -85.9142
 -85.9145
 -85.9077
 -85.907
 -85.9063
 -85.9071
 -85.9235
 -85.9239
 -85.9232
 -85.9236
 -85.9085
 -85.9092
 -85.9184
 -85.9173
 -85.9175
 -85.9181
 -85.919
 -85.919
 -85.9186
 -85.9193
 -85.9181
 -85.9181
 -85.9178
 -85.9105
 -85.9107
 -85.9105
 -85.9246
 -85.9247
 -85.9249
 -85.9251
 -85.9239
 -85.9238
 -85.9234
 -85.9244
 -85.9145
 -85.9152
 -85.9148
 -85.9145
 -85.9293
 -85.9299
 -85.9291
 -85.9293
 -85.9211
 -85.9202
 -85.9206
 -85.9212
 -85.9104
 -85.9104
 -85.9103
 -85.9104
 -85.9173
 -85.9179
 -85.9173
 -85.9245
 -85.9244
 -85.9239
 -85.9243
 -85.922
 -85.9225
 -85.9228
 -85.9364
 -85.9363
 -85.9361
 -85.936
 -85.9044
 -85.904
 -85.9045
 -85.9033
 -85.9164
 -85.917
 -85.917
 -85.9166
 -85.9156
 -85.9154
 -85.9149
 -85.9156
 -85.9366
 -85.9365
 -85.9371
 -85.9373
 -85.9304
 -85.9307
 -85.9306
 -85.9128
 -85.9127
 -85.9124
 -85.9128
 -85.9301
 -85.9295
 -85.9298
 -85.914
 -85.9141
 -85.9136
 -85.9137
 -85.8931
 -85.8936
 -85.8933
 -85.8936
 -85.9343
 -85.9344
 -85.9347
 -85.934
 -85.9106
 -85.9104
 -85.9102
 -85.9097
 -85.936
 -85.9359
 -85.9357
 -85.9358
 -85.9122
 -85.9129
 -85.9123
 -85.9127
 -85.8937
 -85.8928
 -85.8935
 -85.8935
 -85.9065
 -85.9059
 -85.9065
 -85.9067
 -85.9109
 -85.9113
 -85.9117
 -85.9108
 -85.9207
 -85.9199
 -85.9099
 -85.9101
 -85.9089
 -85.909
 -85.9251
 -85.9246
 -85.9245
 -85.9241
 -85.9201
 -85.9201
 -85.9198
 -85.9207
 -85.9337
 -85.9332
 -85.9341
 -85.9342
 -85.9325
 -85.9323
 -85.9328
 -85.9328
 -85.9312
 -85.9307
 -85.9311
 -85.9307
 -85.9333
 -85.9334
 -85.9336
 -85.9332
 -85.9269
 -85.9268
 -85.9273
 -85.9268
 -85.9316
 -85.9321
 -85.9319
 -85.9318
 -85.9051
 -85.9041
 -85.904
 -85.9051
 -85.9329
 -85.9332
 -85.9332
 -85.933
 -85.9181
 -85.9175
 -85.9172
 -85.9174
 -85.9299
 -85.9291
 -85.9292
 -85.9327
 -85.9331
 -85.9332
 -85.9329
 -85.9107
 -85.91
 -85.91
 -85.9103
 -85.9068
 -85.9066
 -85.9063
 -85.9064
 -85.928
 -85.928
 -85.9276
 -85.9286
 -85.9186
 -85.9185
 -85.9184
 -85.9179
 -85.9272
 -85.9269
 -85.9271
 -85.927
 -85.9269
 -85.9269
 -85.928
 -85.9172
 -85.917
 -85.9164
 -85.9265
 -85.9268
 -85.923
 -85.9221
 -85.9358
 -85.936
 -85.936
 -85.9357
 -85.922
 -85.9223
 -85.9219
 -85.9226
 -85.9264
 -85.9262
 -85.927
 -85.9262
 -85.9245
 -85.9248
 -85.9245
 -85.925
 -85.9316
 -85.9303
 -85.9305
 -85.9301
 -85.93
 -85.9192
 -85.9194
 -85.9187
 -85.9187
 -85.9093
 -85.9093
 -85.9093
 -85.9094
 -85.9265
 -85.926
 -85.9266
 -85.9262
 -85.9273
 -85.9269
 -85.9267
 -85.9275
 -85.8955
 -85.896
 -85.8963
 -85.8966
 -85.9213
 -85.9219
 -85.9215
 -85.9212
 -85.9205
 -85.92
 -85.9197
 -85.9202
 -85.9262
 -85.9258
 -85.9113
 -85.9115
 -85.9117
 -85.9114
 -85.916
 -85.9164
 -85.9163
 -85.9159
 -85.9122
 -85.912
 -85.9118
 -85.9119
 -85.915
 -85.9154
 -85.9154
 -85.9149
 -85.9118
 -85.9118
 -85.9116
 -85.912
 -85.9306
 -85.9303
 -85.9305
 -85.9309
 -85.9328
 -85.9327
 -85.9321
 -85.9325
 -85.9142
 -85.9139
 -85.9135
 -85.9142
 -85.9213
 -85.9207
 -85.9212
 -85.9209
 -85.9313
 -85.9307
 -85.9312
 -85.9309
 -85.9189
 -85.9185
 -85.9186
 -85.9194
 -85.914
 -85.9146
 -85.9079
 -85.9083
 -85.9084
 -85.9079
 -85.9202
 -85.92
 -85.9195
 -85.9192
 -85.9315
 -85.9312
 -85.9312
 -85.9319
 -85.9353
 -85.935
 -85.935
 -85.9354
 -85.8973
 -85.8972
 -85.9179
 -85.9186
 -85.9187
 -85.919
 -85.917
 -85.916
 -85.9166
 -85.9166
 -85.9164
 -85.9162
 -85.9126
 -85.9128
 -85.9128
 -85.913
 -85.9202
 -85.9208
 -85.9211
 -85.9051
 -85.9055
 -85.9056
 -85.906
 -85.9329
 -85.9333
 -85.9325
 -85.933
 -85.9352
 -85.9352
 -85.9352
 -85.9366
 -85.9364
 -85.9359
 -85.9362
 -85.9239
 -85.9249
 -85.9246
 -85.9247
 -85.9212
 -85.9221
 -85.921
 -85.9217
 -85.9296
 -85.9304
 -85.9306
 -85.9302
 -85.9259
 -85.9258
 -85.9264
 -85.9258
 -85.925
 -85.9256
 -85.9253
 -85.9225
 -85.9226
 -85.9222
 -85.9231
 -85.9283
 -85.9295
 -85.929
 -85.9284
 -85.919
 -85.9186
 -85.919
 -85.919
 -85.9217
 -85.9216
 -85.9223
 -85.9214
 -85.9269
 -85.9267
 -85.9264
 -85.9269
 -85.9214
 -85.921
 -85.9208
 -85.9215
 -85.8939
 -85.8937
 -85.8945
 -85.8945
 -85.9132
 -85.913
 -85.9129
 -85.9125
 -85.9283
 -85.9282
 -85.929
 -85.929
 -85.9122
 -85.9123
 -85.9114
 -85.9111
 -85.9105
 -85.9096
 -85.9105
 -85.911
 -85.9317
 -85.9316
 -85.9319
 -85.9312
 -85.9309
 -85.9303
 -85.9309
 -85.9307
 -85.9332
 -85.9327
 -85.9331
 -85.9333
 -85.929
 -85.929
 -85.9295
 -85.9293
 -85.9178
 -85.9177
 -85.9173
 -85.9177
 -85.9133
 -85.913
 -85.9136
 -85.913
 -85.9272
 -85.9263
 -85.9273
 -85.9265
 -85.9135
 -85.9137
 -85.9138
 -85.9137
 -85.9084
 -85.9086
 -85.9088
 -85.909
 -85.9208
 -85.9213
 -85.9209
 -85.9213
 -85.9166
 -85.9161
 -85.9157
 -85.917
 -85.9173
 -85.9182
 -85.9176
 -85.9085
 -85.9081
 -85.9075
 -85.9081
 -85.914
 -85.9139
 -85.9137
 -85.9138
 -85.9279
 -85.9283
 -85.928
 -85.9281
 -85.922
 -85.9227
 -85.9228
 -85.9369
 -85.9365
 -85.9365
 -85.9368
 -85.9342
 -85.9346
 -85.9349
 -85.9344
 -85.9162
 -85.9167
 -85.9159
 -85.9167
 -85.9232
 -85.9237
 -85.9093
 -85.9092
 -85.9084
 -85.9095
 -85.9221
 -85.9215
 -85.9212
 -85.9217
 -85.933
 -85.9331
 -85.9326
 -85.9331
 -85.9134
 -85.9135
 -85.9137
 -85.9184
 -85.9185
 -85.9187
 -85.9178
 -85.9165
 -85.9174
 -85.9173
 -85.9172
 -85.9209
 -85.9215
 -85.9216
 -85.9208
 -85.9196
 -85.92
 -85.9205
 -85.92
 -85.9218
 -85.9222
 -85.9217
 -85.9224
 -85.919
 -85.9195
 -85.9302
 -85.9298
 -85.9307
 -85.9301
 -85.9195
 -85.9189
 -85.9191
 -85.9195
 -85.925
 -85.9241
 -85.9245
 -85.9193
 -85.9199
 -85.9195
 -85.9198
 -85.9253
 -85.9249
 -85.9245
 -85.925
 -85.9124
 -85.9118
 -85.9122
 -85.9114
 -85.9193
 -85.9191
 -85.92
 -85.9235
 -85.9237
 -85.9244
 -85.9232
 -85.9205
 -85.9203
 -85.9208
 -85.9122
 -85.9123
 -85.9118
 -85.9257
 -85.9256
 -85.9254
 -85.9248
 -85.9208
 -85.9213
 -85.9214
 -85.8979
 -85.8981
 -85.8984
 -85.8973
 -85.9259
 -85.9254
 -85.9251
 -85.926
 -85.9171
 -85.9164
 -85.9165
 -85.9162
 -85.9312
 -85.9311
 -85.9314
 -85.9316
 -85.9324
 -85.932
 -85.9327
 -85.9325
 -85.9102
 -85.9112
 -85.91
 -85.9102
 -85.9233
 -85.9228
 -85.9224
 -85.9149
 -85.9142
 -85.9147
 -85.9147
 -85.9322
 -85.9314
 -85.9319
 -85.9218
 -85.9224
 -85.922
 -85.9225
 -85.9276
 -85.9279
 -85.9278
 -85.9277
 -85.9339
 -85.934
 -85.9342
 -85.9338
 -85.8912
 -85.8907
 -85.8908
 -85.8912
 -85.9148
 -85.915
 -85.9153
 -85.9147
 -85.9228
 -85.9239
 -85.9235
 -85.9238
 -85.9074
 -85.9068
 -85.9065
 -85.9208
 -85.9214
 -85.9213
 -85.9207
 -85.9345
 -85.9265
 -85.926
 -85.9253
 -85.926
 -85.9318
 -85.9318
 -85.9319
 -85.9321
 -85.9296
 -85.9294
 -85.9292
 -85.9297
 -85.9232
 -85.923
 -85.9219
 -85.9212
 -85.9212
 -85.9212
 -85.8989
 -85.8996
 -85.8989
 -85.8993
 -85.916
 -85.9157
 -85.9155
 -85.915
 -85.915
 -85.9155
 -85.9151
 -85.9349
 -85.9355
 -85.935
 -85.9348
 -85.9209
 -85.9209
 -85.9215
 -85.9216
 -85.923
 -85.9227
 -85.9222
 -85.9226
 -85.9324
 -85.932
 -85.9327
 -85.9321
 -85.9215
 -85.9213
 -85.9221
 -85.9215
 -85.9043
 -85.9046
 -85.9038
 -85.9041
 -85.9202
 -85.92
 -85.9205
 -85.9202
 -85.9146
 -85.9146
 -85.9147
 -85.9151
 -85.9131
 -85.9126
 -85.9127
 -85.913
 -85.9093
 -85.9096
 -85.9092
 -85.9093
 -85.903
 -85.9027
 -85.9026
 -85.9035
 -85.9363
 -85.936
 -85.9361
 -85.936
 -85.9005
 -85.9008
 -85.9001
 -85.9011
 -85.921
 -85.9206
 -85.921
 -85.9204
 -85.9359
 -85.936
 -85.9356
 -85.9357
 -85.9179
 -85.9177
 -85.9181
 -85.9182
 -85.9092
 -85.9335
 -85.9333
 -85.9334
 -85.9339
 -85.9119
 -85.904
 -85.9049
 -85.905
 -85.9041
 -85.9241
 -85.9249
 -85.9298
 -85.9291
 -85.93
 -85.9293
 -85.9316
 -85.9315
 -85.9319
 -85.9318
 -85.9368
 -85.9364
 -85.9369
 -85.9301
 -85.9308
 -85.9307
 -85.9306
 -85.918
 -85.9353
 -85.9272
 -85.9271
 -85.9268
 -85.9352
 -85.9354
 -85.9356
 -85.9353
 -85.9183
 -85.9182
 -85.9183
 -85.9178
 -85.9144
 -85.9146
 -85.914
 -85.9137
 -85.9266
 -85.9262
 -85.9263
 -85.9273
 -85.9347
 -85.935
 -85.9345
 -85.9344
 -85.9331
 -85.9329
 -85.9331
 -85.9329
 -85.9248
 -85.9258
 -85.9257
 -85.9023
 -85.9018
 -85.9034
 -85.9023
 -85.8919
 -85.8927
 -85.8922
 -85.8927
 -85.9075
 -85.9066
 -85.9064
 -85.9069
 -85.9224
 -85.9229
 -85.9223
 -85.9049
 -85.9055
 -85.9053
 -85.9048
 -85.9304
 -85.9303
 -85.9309
 -85.9309
 -85.9311
 -85.9307
 -85.931
 -85.912
 -85.9118
 -85.9277
 -85.928
 -85.938
 -85.9377
 -85.9379
 -85.9363
 -85.9365
 -85.9364
 -85.9366
 -85.9191
 -85.9186
 -85.9195
 -85.9191
 -85.9157
 -85.9156
 -85.9153
 -85.9161
 -85.9204
 -85.9203
 -85.921
 -85.9208
 -85.9356
 -85.9357
 -85.9357
 -85.9356
 -85.9278
 -85.9281
 -85.928
 -85.9276
 -85.9091
 -85.9091
 -85.9091
 -85.9095
 -85.9278
 -85.9281
 -85.9276
 -85.9282
 -85.9235
 -85.9237
 -85.923
 -85.9238
 -85.9268
 -85.9272
 -85.9272
 -85.8898
 -85.89
 -85.8901
 -85.9154
 -85.9149
 -85.9184
 -85.9183
 -85.9179
 -85.9188
 -85.9296
 -85.9303
 -85.9297
 -85.9296
 -85.9279
 -85.9281
 -85.9288
 -85.9284
 -85.9284
 -85.9281
 -85.9291
 -85.8989
 -85.8989
 -85.9089
 -85.9087
 -85.9092
 -85.9089
 -85.9235
 -85.8985
 -85.8978
 -85.898
 -85.8981
 -85.9143
 -85.9151
 -85.9146
 -85.9145
 -85.9193
 -85.919
 -85.9034
 -85.9046
 -85.9046
 -85.9039
 -85.9363
 -85.9368
 -85.9366
 -85.9363
 -85.9344
 -85.9346
 -85.9344
 -85.935
 -85.9113
 -85.9125
 -85.9116
 -85.9122
 -85.9153
 -85.9149
 -85.9162
 -85.9159
 -85.9156
 -85.9153
 -85.9156
 -85.9289
 -85.9293
 -85.9284
 -85.9289
 -85.909
 -85.9096
 -85.9099
 -85.91
 -85.9205
 -85.9207
 -85.9205
 -85.9259
 -85.926
 -85.9263
 -85.9268
 -85.9152
 -85.9154
 -85.9158
 -85.9155
 -85.9128
 -85.9134
 -85.9138
 -85.9131
 -85.9133
 -85.9129
 -85.913
 -85.9135
 -85.9176
 -85.9178
 -85.9185
 -85.9179
 -85.9257
 -85.9253
 -85.9145
 -85.9146
 -85.9147
 -85.9142
 -85.9365
 -85.9359
 -85.936
 -85.9361
 -85.9124
 -85.9127
 -85.9124
 -85.9128
 -85.9063
 -85.9061
 -85.9068
 -85.9065
 -85.9237
 -85.9237
 -85.9016
 -85.9016
 -85.9011
 -85.9018
 -85.9164
 -85.9169
 -85.9161
 -85.9348
 -85.9348
 -85.9351
 -85.9351
 -85.9025
 -85.9022
 -85.9023
 -85.9129
 -85.9128
 -85.9134
 -85.9132
 -85.9034
 -85.9123
 -85.912
 -85.9121
 -85.9115
 -85.9215
 -85.921
 -85.9216
 -85.9214
 -85.9184
 -85.9186
 -85.9189
 -85.9184
 -85.9353
 -85.9358
 -85.9226
 -85.9229
 -85.9227
 -85.9225
 -85.9116
 -85.9107
 -85.9118
 -85.9107
 -85.9158
 -85.9171
 -85.9164
 -85.916
 -85.9334
 -85.9331
 -85.9331
 -85.9331
 -85.9187
 -85.919
 -85.9197
 -85.9194
 -85.9238
 -85.9314
 -85.9316
 -85.9312
 -85.9159
 -85.9161
 -85.9154
 -85.9163
 -85.9277
 -85.9275
 -85.9277
 -85.9271
 -85.9169
 -85.9162
 -85.9165
 -85.9171
 -85.9351
 -85.9348
 -85.9346
 -85.935
 -85.9376
 -85.9378
 -85.9375
 -85.9131
 -85.9134
 -85.914
 -85.9137
 -85.9252
 -85.9254
 -85.9247
 -85.925
 -85.9271
 -85.9273
 -85.9277
 -85.9279
 -85.9148
 -85.9149
 -85.9125
 -85.9121
 -85.9119
 -85.9126
 -85.9175
 -85.9186
 -85.9241
 -85.9243
 -85.924
 -85.9238
 -85.9254
 -85.9257
 -85.9262
 -85.9254
 -85.9178
 -85.9182
 -85.9187
 -85.9183
 -85.9234
 -85.9234
 -85.9235
 -85.9324
 -85.9318
 -85.9316
 -85.9319
 -85.9297
 -85.9295
 -85.9298
 -85.9179
 -85.9188
 -85.9177
 -85.9184
 -85.9132
 -85.9124
 -85.912
 -85.9129
 -85.9274
 -85.9266
 -85.9267
 -85.9271
 -85.9188
 -85.9186
 -85.9179
 -85.91
 -85.9099
 -85.9101
 -85.9099
 -85.9152
 -85.9151
 -85.9154
 -85.9156
 -85.9305
 -85.9303
 -85.9299
 -85.9367
 -85.9362
 -85.9363
 -85.9267
 -85.9271
 -85.9271
 -85.9152
 -85.9145
 -85.9154
 -85.9149
 -85.9365
 -85.9365
 -85.9365
 -85.9367
 -85.926
 -85.9256
 -85.9259
 -85.9264
 -85.9313
 -85.9315
 -85.9321
 -85.9321
 -85.9306
 -85.931
 -85.9307
 -85.9307
 -85.9058
 -85.9051
 -85.9052
 -85.9175
 -85.9177
 -85.9172
 -85.9177
 -85.9313
 -85.9316
 -85.9311
 -85.9311
 -85.9197
 -85.92
 -85.92
 -85.9207
 -85.9279
 -85.928
 -85.9278
 -85.9273
 -85.9336
 -85.9339
 -85.909
 -85.9094
 -85.9094
 -85.9097
 -85.9292
 -85.9288
 -85.9297
 -85.929
 -85.9179
 -85.9176
 -85.9174
 -85.9181
 -85.927
 -85.9262
 -85.9359
 -85.9358
 -85.9354
 -85.936
 -85.9311
 -85.9318
 -85.9309
 -85.9321
 -85.9367
 -85.9368
 -85.9372
 -85.9373
 -85.9289
 -85.9289
 -85.9292
 -85.927
 -85.9278
 -85.9277
 -85.9274
 -85.9275
 -85.9271
 -85.9273
 -85.9267
 -85.9142
 -85.9143
 -85.9138
 -85.9136
 -85.9044
 -85.9041
 -85.905
 -85.921
 -85.9211
 -85.9211
 -85.9323
 -85.9317
 -85.9321
 -85.9316
 -85.9181
 -85.9185
 -85.919
 -85.9185
 -85.9118
 -85.911
 -85.9113
 -85.9119
 -85.9215
 -85.9209
 -85.9205
 -85.9206
 -85.9165
 -85.9175
 -85.9166
 -85.936
 -85.9362
 -85.9356
 -85.9356
 -85.9096
 -85.9098
 -85.9117
 -85.912
 -85.9121
 -85.9283
 -85.9284
 -85.9278
 -85.9289
 -85.9207
 -85.9215
 -85.9214
 -85.9212
 -85.9109
 -85.911
 -85.9115
 -85.911
 -85.923
 -85.9219
 -85.922
 -85.9227
 -85.9162
 -85.9158
 -85.9166
 -85.9166
 -85.9331
 -85.9334
 -85.9341
 -85.9153
 -85.9152
 -85.9157
 -85.9157
 -85.9229
 -85.9234
 -85.9105
 -85.9112
 -85.911
 -85.9106
 -85.9114
 -85.9109
 -85.9112
 -85.9109
 -85.9336
 -85.9334
 -85.9126
 -85.9131
 -85.9129
 -85.9123
 -85.9218
 -85.9212
 -85.9214
 -85.9218
 -85.9171
 -85.906
 -85.9054
 -85.9056
 -85.9238
 -85.9236
 -85.9238
 -85.9232
 -85.9341
 -85.9342
 -85.9339
 -85.9344
 -85.9059
 -85.9062
 -85.9063
 -85.9056
 -85.912
 -85.9124
 -85.9118
 -85.912
 -85.9266
 -85.9269
 -85.9269
 -85.9068
 -85.9067
 -85.9073
 -85.9074
 -85.9366
 -85.9362
 -85.9364
 -85.9367
 -85.909
 -85.9093
 -85.9095
 -85.9087
 -85.9261
 -85.9255
 -85.9259
 -85.9264
 -85.9175
 -85.918
 -85.9177
 -85.9173
 -85.911
 -85.9112
 -85.911
 -85.9164
 -85.9171
 -85.9163
 -85.9169
 -85.9111
 -85.9105
 -85.9108
 -85.9109
 -85.9121
 -85.9117
 -85.9119
 -85.9296
 -85.9291
 -85.9298
 -85.9288
 -85.9283
 -85.9202
 -85.9216
 -85.9207
 -85.9207
 -85.9349
 -85.9346
 -85.9344
 -85.9346
 -85.924
 -85.9247
 -85.9236
 -85.9245
 -85.9257
 -85.9262
 -85.9257
 -85.9256
 -85.9119
 -85.9116
 -85.9122
 -85.9126
 -85.9123
 -85.9257
 -85.9251
 -85.9254
 -85.9259
 -85.9345
 -85.9351
 -85.9223
 -85.9225
 -85.9218
 -85.9226
 -85.9109
 -85.9108
 -85.9112
 -85.933
 -85.9333
 -85.9328
 -85.933
 -85.9225
 -85.9216
 -85.9219
 -85.9221
 -85.9117
 -85.9114
 -85.9117
 -85.9119
 -85.9205
 -85.9205
 -85.9214
 -85.9208
 -85.9254
 -85.9265
 -85.9081
 -85.9078
 -85.908
 -85.9077
 -85.912
 -85.9132
 -85.9136
 -85.9133
 -85.9138
 -85.9136
 -85.9134
 -85.9125
 -85.9127
 -85.9131
 -85.9221
 -85.9219
 -85.9218
 -85.9246
 -85.9243
 -85.9241
 -85.9238
 -85.914
 -85.9139
 -85.9141
 -85.9139
 -85.9179
 -85.9177
 -85.9232
 -85.9228
 -85.923
 -85.9226
 -85.9233
 -85.9232
 -85.9206
 -85.9212
 -85.9214
 -85.9207
 -85.9011
 -85.9021
 -85.9019
 -85.9023
 -85.923
 -85.9111
 -85.9116
 -85.9112
 -85.9111
 -85.936
 -85.9363
 -85.9359
 -85.9285
 -85.9283
 -85.9279
 -85.9285
 -85.9202
 -85.9205
 -85.9202
 -85.9193
 -85.9224
 -85.9229
 -85.9221
 -85.9129
 -85.9134
 -85.9131
 -85.9128
 -85.9333
 -85.9337
 -85.9329
 -85.9334
 -85.9262
 -85.926
 -85.9265
 -85.9263
 -85.9333
 -85.9335
 -85.9327
 -85.9332
 -85.909
 -85.9089
 -85.9085
 -85.9085
 -85.9138
 -85.9144
 -85.9296
 -85.9293
 -85.929
 -85.9294
 -85.9344
 -85.9343
 -85.9344
 -85.9342
 -85.9376
 -85.9377
 -85.9374
 -85.9378
 -85.9338
 -85.9334
 -85.9338
 -85.9257
 -85.9263
 -85.9256
 -85.926
 -85.9341
 -85.9344
 -85.9344
 -85.9344
 -85.9093
 -85.9098
 -85.9103
 -85.9097
 -85.9315
 -85.932
 -85.932
 -85.926
 -85.9258
 -85.9256
 -85.9256
 -85.9109
 -85.9107
 -85.911
 -85.9106
 -85.9267
 -85.9273
 -85.927
 -85.927
 -85.9241
 -85.9246
 -85.9248
 -85.9241
 -85.9143
 -85.9145
 -85.915
 -85.9154
 -85.9086
 -85.9087
 -85.9081
 -85.9081
 -85.9186
 -85.9188
 -85.9194
 -85.9187
 -85.8996
 -85.8996
 -85.9007
 -85.9001
 -85.9117
 -85.9121
 -85.9116
 -85.9131
 -85.9124
 -85.9124
 -85.9122
 -85.8965
 -85.8967
 -85.8959
 -85.8969
 -85.933
 -85.9326
 -85.9327
 -85.9306
 -85.9308
 -85.9313
 -85.9312
 -85.9134
 -85.9145
 -85.9142
 -85.9048
 -85.9049
 -85.9046
 -85.9083
 -85.9078
 -85.9084
 -85.9085
 -85.9142
 -85.9141
 -85.9146
 -85.9137
 -85.9261
 -85.927
 -85.9266
 -85.9265
 -85.9014
 -85.9013
 -85.9017
 -85.901
 -85.9247
 -85.9238
 -85.9237
 -85.9246
 -85.9305
 -85.9308
 -85.9301
 -85.9305
 -85.9233
 -85.9233
 -85.9243
 -85.9239
 -85.9192
 -85.9187
 -85.9197
 -85.9114
 -85.9114
 -85.9114
 -85.9117
 -85.9336
 -85.934
 -85.9341
 -85.9339
 -85.9315
 -85.9319
 -85.9315
 -85.9312
 -85.9141
 -85.9146
 -85.9143
 -85.9138
 -85.9346
 -85.9348
 -85.9351
 -85.9345
 -85.9352
 -85.9347
 -85.9347
 -85.9349
 -85.935
 -85.9345
 -85.9348
 -85.9032
 -85.9031
 -85.8967
 -85.8969
 -85.8965
 -85.8974
 -85.9251
 -85.9248
 -85.9243
 -85.9203
 -85.9199
 -85.9209
 -85.92
 -85.9218
 -85.9225
 -85.9222
 -85.9218
 -85.8904
 -85.9183
 -85.9244
 -85.9251
 -85.9315
 -85.9318
 -85.9316
 -85.9316
 -85.9047
 -85.9165
 -85.9171
 -85.9165
 -85.938
 -85.9378
 -85.9378
 -85.9378
 -85.922
 -85.9215
 -85.922
 -85.9225
 -85.935
 -85.9347
 -85.9351
 -85.9346
 -85.9191
 -85.9198
 -85.9185
 -85.9172
 -85.918
 -85.9175
 -85.9333
 -85.9333
 -85.9328
 -85.9334
 -85.9248
 -85.9244
 -85.924
 -85.9237
 -85.9095
 -85.9091
 -85.9099
 -85.9098
 -85.9309
 -85.9319
 -85.9315
 -85.9352
 -85.9357
 -85.9358
 -85.9352
 -85.9312
 -85.931
 -85.9307
 -85.931
 -85.9136
 -85.9135
 -85.9147
 -85.9135
 -85.9152
 -85.9148
 -85.9148
 -85.9148
 -85.9333
 -85.9336
 -85.9336
 -85.9336
 -85.9181
 -85.9182
 -85.9176
 -85.9299
 -85.9299
 -85.9297
 -85.9294
 -85.9106
 -85.9112
 -85.9103
 -85.9104
 -85.9254
 -85.9257
 -85.9249
 -85.9252
 -85.9102
 -85.9107
 -85.9103
 -85.9102
 -85.923
 -85.9233
 -85.9227
 -85.9232
 -85.9304
 -85.9305
 -85.931
 -85.9301
 -85.909
 -85.9088
 -85.9093
 -85.9221
 -85.9226
 -85.9323
 -85.9321
 -85.932
 -85.9317
 -85.918
 -85.9176
 -85.9175
 -85.9096
 -85.9091
 -85.9089
 -85.9092
 -85.9272
 -85.9274
 -85.9272
 -85.9277
 -85.9255
 -85.9254
 -85.9264
 -85.9257
 -85.893
 -85.893
 -85.8937
 -85.8933
 -85.9215
 -85.9207
 -85.9212
 -85.8991
 -85.8997
 -85.8999
 -85.9218
 -85.9216
 -85.9211
 -85.9216
 -85.9209
 -85.9087
 -85.909
 -85.9079
 -85.9083
 -85.9193
 -85.92
 -85.9201
 -85.9316
 -85.9315
 -85.9316
 -85.9313
 -85.9199
 -85.9202
 -85.9206
 -85.9206
 -85.9209
 -85.9207
 -85.9207
 -85.9375
 -85.9374
 -85.9372
 -85.9369
 -85.9124
 -85.9136
 -85.9133
 -85.913
 -85.9078
 -85.9078
 -85.9081
 -85.9081
 -85.9169
 -85.9168
 -85.9177
 -85.917
 -85.9327
 -85.9328
 -85.9329
 -85.9323
 -85.8926
 -85.8932
 -85.8926
 -85.8936
 -85.9299
 -85.9292
 -85.9296
 -85.9296
 -85.9076
 -85.9072
 -85.9076
 -85.9074
 -85.9315
 -85.9304
 -85.9307
 -85.9312
 -85.9293
 -85.929
 -85.9287
 -85.929
 -85.93
 -85.9303
 -85.9138
 -85.9134
 -85.9133
 -85.9137
 -85.9338
 -85.9338
 -85.9338
 -85.9289
 -85.9281
 -85.9284
 -85.929
 -85.913
 -85.9136
 -85.9132
 -85.9126
 -85.9163
 -85.9161
 -85.9168
 -85.8899
 -85.8898
 -85.8896
 -85.8898
 -85.9206
 -85.9198
 -85.9208
 -85.9338
 -85.9342
 -85.9338
 -85.9336
 -85.9303
 -85.9299
 -85.9329
 -85.9335
 -85.9338
 -85.9332
 -85.9278
 -85.9278
 -85.9065
 -85.9066
 -85.9059
 -85.9071
 -85.9298
 -85.9297
 -85.9298
 -85.9292
 -85.9217
 -85.922
 -85.9162
 -85.9166
 -85.9164
 -85.9162
 -85.9311
 -85.9315
 -85.9316
 -85.9314
 -85.9142
 -85.9131
 -85.9133
 -85.914
 -85.9334
 -85.9334
 -85.9339
 -85.9345
 -85.9239
 -85.924
 -85.9233
 -85.9064
 -85.9061
 -85.906
 -85.9064
 -85.926
 -85.926
 -85.9257
 -85.9253
 -85.9124
 -85.9118
 -85.9117
 -85.9113
 -85.9132
 -85.9123
 -85.9129
 -85.8919
 -85.8919
 -85.892
 -85.8923
 -85.9086
 -85.9094
 -85.9097
 -85.9089
 -85.9302
 -85.9299
 -85.9305
 -85.9299
 -85.9209
 -85.9212
 -85.9204
 -85.9171
 -85.9113
 -85.9116
 -85.9114
 -85.9117
 -85.9182
 -85.9176
 -85.9181
 -85.9183
 -85.9282
 -85.9291
 -85.9291
 -85.9283
 -85.9104
 -85.9104
 -85.9115
 -85.905
 -85.9237
 -85.9239
 -85.9233
 -85.9242
 -85.9115
 -85.9123
 -85.8979
 -85.8972
 -85.9111
 -85.9116
 -85.9112
 -85.9105
 -85.9281
 -85.9285
 -85.9323
 -85.9322
 -85.9324
 -85.9321
 -85.9163
 -85.9168
 -85.9169
 -85.9169
 -85.9355
 -85.9356
 -85.936
 -85.9356
 -85.9156
 -85.9158
 -85.9146
 -85.9146
 -85.9297
 -85.9298
 -85.9293
 -85.9288
 -85.9132
 -85.9132
 -85.9135
 -85.9135
 -85.9295
 -85.9298
 -85.9291
 -85.9295
 -85.9183
 -85.919
 -85.9343
 -85.9341
 -85.9275
 -85.928
 -85.9273
 -85.928
 -85.9271
 -85.9268
 -85.9269
 -85.9276
 -85.9228
 -85.9225
 -85.9231
 -85.923
 -85.9295
 -85.9289
 -85.9297
 -85.93
 -85.9129
 -85.9123
 -85.9126
 -85.9126
 -85.934
 -85.9339
 -85.9338
 -85.9345
 -85.9348
 -85.9344
 -85.9346
 -85.9103
 -85.911
 -85.911
 -85.9107
 -85.9275
 -85.9269
 -85.9269
 -85.9273
 -85.9094
 -85.9101
 -85.9102
 -85.9108
 -85.9223
 -85.9199
 -85.9208
 -85.9209
 -85.92
 -85.9313
 -85.9313
 -85.9312
 -85.9307
 -85.9001
 -85.8995
 -85.8999
 -85.9006
 -85.9272
 -85.9276
 -85.928
 -85.9274
 -85.9214
 -85.922
 -85.9207
 -85.9212
 -85.9288
 -85.9284
 -85.9283
 -85.9282
 -85.9261
 -85.9374
 -85.9373
 -85.9369
 -85.9371
 -85.9301
 -85.9302
 -85.9295
 -85.9296
 -85.8975
 -85.8978
 -85.8984
 -85.8975
 -85.9184
 -85.9177
 -85.9174
 -85.9179
 -85.9149
 -85.9219
 -85.922
 -85.9221
 -85.9227
 -85.9334
 -85.9334
 -85.9329
 -85.9326
 -85.9316
 -85.9315
 -85.9321
 -85.9332
 -85.9323
 -85.9328
 -85.9325
 -85.8929
 -85.8931
 -85.9295
 -85.9293
 -85.9292
 -85.9142
 -85.9142
 -85.914
 -85.9147
 -85.9283
 -85.928
 -85.9283
 -85.9278
 -85.9228
 -85.9273
 -85.9266
 -85.9273
 -85.9271
 -85.9342
 -85.9333
 -85.9336
 -85.9341
 -85.927
 -85.9275
 -85.9281
 -85.9271
 -85.9179
 -85.9182
 -85.9172
 -85.9187
 -85.9109
 -85.911
 -85.9107
 -85.9111
 -85.9369
 -85.9364
 -85.937
 -85.9368
 -85.9284
 -85.9282
 -85.9286
 -85.9279
 -85.9365
 -85.9363
 -85.9364
 -85.9367
 -85.9144
 -85.9134
 -85.9145
 -85.9146
 -85.9223
 -85.922
 -85.9342
 -85.9348
 -85.9342
 -85.9345
 -85.9226
 -85.9227
 -85.9227
 -85.9233
 -85.9204
 -85.921
 -85.9225
 -85.9227
 -85.9232
 -85.9225
 -85.9319
 -85.9319
 -85.9317
 -85.9323
 -85.9161
 -85.9154
 -85.915
 -85.9157
 -85.9055
 -85.906
 -85.9055
 -85.9055
 -85.9094
 -85.9091
 -85.9092
 -85.9091
 -85.9153
 -85.9157
 -85.9158
 -85.9152
 -85.9185
 -85.9176
 -85.9183
 -85.9198
 -85.9188
 -85.9193
 -85.9195
 -85.922
 -85.9217
 -85.9214
 -85.922
 -85.9053
 -85.9053
 -85.9055
 -85.9175
 -85.917
 -85.9178
 -85.9176
 -85.9231
 -85.9237
 -85.9236
 -85.9228
 -85.9135
 -85.9127
 -85.9137
 -85.9128
 -85.9157
 -85.9162
 -85.9161
 -85.916
 -85.9237
 -85.9236
 -85.9241
 -85.9245
 -85.9217
 -85.921
 -85.9215
 -85.9214
 -85.9276
 -85.9274
 -85.9276
 -85.9273
 -85.9089
 -85.9091
 -85.9093
 -85.931
 -85.9307
 -85.9313
 -85.9309
 -85.9136
 -85.9142
 -85.9137
 -85.9133
 -85.9187
 -85.9184
 -85.9181
 -85.919
 -85.9199
 -85.9205
 -85.9206
 -85.9247
 -85.9247
 -85.9249
 -85.9254
 -85.9268
 -85.9269
 -85.9273
 -85.9266
 -85.9275
 -85.9277
 -85.9281
 -85.9322
 -85.9324
 -85.9325
 -85.9268
 -85.9265
 -85.9261
 -85.9264
 -85.9322
 -85.9324
 -85.9318
 -85.9338
 -85.9338
 -85.9338
 -85.9334
 -85.9202
 -85.919
 -85.9197
 -85.9193
 -85.9146
 -85.9141
 -85.9149
 -85.9143
 -85.9123
 -85.9322
 -85.932
 -85.9328
 -85.9319
 -85.9323
 -85.9314
 -85.8914
 -85.8911
 -85.8914
 -85.8918
 -85.9296
 -85.9292
 -85.9186
 -85.9184
 -85.9191
 -85.9364
 -85.9368
 -85.925
 -85.9242
 -85.9244
 -85.9247
 -85.9181
 -85.9184
 -85.9185
 -85.9299
 -85.9309
 -85.9304
 -85.9307
 -85.9149
 -85.9151
 -85.9146
 -85.9154
 -85.8958
 -85.8964
 -85.8963
 -85.8956
 -85.9243
 -85.9244
 -85.9242
 -85.9249
 -85.9316
 -85.9326
 -85.9317
 -85.9306
 -85.9304
 -85.9307
 -85.9302
 -85.9131
 -85.9122
 -85.9123
 -85.9118
 -85.9139
 -85.9144
 -85.9105
 -85.911
 -85.9102
 -85.9362
 -85.9358
 -85.9312
 -85.9306
 -85.9312
 -85.9306
 -85.9223
 -85.9232
 -85.9229
 -85.9295
 -85.9288
 -85.93
 -85.9298
 -85.9135
 -85.9124
 -85.9126
 -85.9132
 -85.921
 -85.9209
 -85.9216
 -85.9217
 -85.9208
 -85.9213
 -85.9215
 -85.9209
 -85.9121
 -85.9124
 -85.912
 -85.9142
 -85.9137
 -85.914
 -85.9139
 -85.9376
 -85.9379
 -85.9377
 -85.938
 -85.9074
 -85.9065
 -85.9335
 -85.9338
 -85.9338
 -85.9334
 -85.9192
 -85.9199
 -85.9195
 -85.9192
 -85.9232
 -85.9236
 -85.9237
 -85.9238
 -85.9094
 -85.9098
 -85.9216
 -85.9211
 -85.9211
 -85.9207
 -85.9187
 -85.9184
 -85.9182
 -85.9189
 -85.9316
 -85.9316
 -85.9314
 -85.9317
 -85.9199
 -85.9205
 -85.9206
 -85.9198
 -85.9146
 -85.9147
 -85.9256
 -85.9256
 -85.9252
 -85.9257
 -85.9283
 -85.9282
 -85.9286
 -85.9223
 -85.923
 -85.9227
 -85.9231
 -85.9116
 -85.912
 -85.9114
 -85.9124
 -85.8953
 -85.8961
 -85.8959
 -85.8952
 -85.9205
 -85.9202
 -85.9208
 -85.9214
 -85.9237
 -85.9244
 -85.9238
 -85.9238
 -85.9179
 -85.9182
 -85.9175
 -85.9177
 -85.9149
 -85.9146
 -85.9151
 -85.9154
 -85.9319
 -85.9323
 -85.9255
 -85.9252
 -85.9249
 -85.9016
 -85.9013
 -85.9008
 -85.9017
 -85.9127
 -85.9121
 -85.9129
 -85.9118
 -85.9226
 -85.9227
 -85.9224
 -85.922
 -85.9319
 -85.932
 -85.932
 -85.9192
 -85.9189
 -85.9182
 -85.9182
 -85.9141
 -85.915
 -85.9146
 -85.9141
 -85.9289
 -85.9281
 -85.9281
 -85.9285
 -85.9246
 -85.9244
 -85.9242
 -85.9242
 -85.9303
 -85.9303
 -85.9303
 -85.93
 -85.93
 -85.9301
 -85.93
 -85.9172
 -85.9174
 -85.9168
 -85.9165
 -85.9199
 -85.9196
 -85.9203
 -85.8968
 -85.897
 -85.8969
 -85.8965
 -85.9146
 -85.9146
 -85.9069
 -85.9065
 -85.9072
 -85.9076
 -85.912
 -85.9098
 -85.9327
 -85.9149
 -85.9143
 -85.9147
 -85.914
 -85.9369
 -85.9255
 -85.9251
 -85.9254
 -85.9247
 -85.9146
 -85.9151
 -85.9148
 -85.9174
 -85.9181
 -85.918
 -85.9308
 -85.931
 -85.9303
 -85.9309
 -85.9311
 -85.9308
 -85.9312
 -85.9307
 -85.9108
 -85.9099
 -85.9099
 -85.9105
 -85.9349
 -85.9349
 -85.9352
 -85.9346
 -85.9211
 -85.9205
 -85.9199
 -85.931
 -85.9312
 -85.9311
 -85.9234
 -85.9228
 -85.923
 -85.9235
 -85.9149
 -85.9153
 -85.9146
 -85.9147
 -85.9238
 -85.9248
 -85.9238
 -85.9158
 -85.9161
 -85.9161
 -85.9154
 -85.9192
 -85.92
 -85.9313
 -85.9317
 -85.9318
 -85.9323
 -85.9328
 -85.9334
 -85.933
 -85.9329
 -85.9117
 -85.9124
 -85.9116
 -85.9123
 -85.9283
 -85.9276
 -85.928
 -85.9285
 -85.925
 -85.924
 -85.9248
 -85.9253
 -85.918
 -85.9175
 -85.9184
 -85.9179
 -85.932
 -85.9317
 -85.9316
 -85.9313
 -85.9194
 -85.9187
 -85.9198
 -85.9194
 -85.9212
 -85.9209
 -85.9208
 -85.9218
 -85.9191
 -85.9187
 -85.9193
 -85.9194
 -85.9128
 -85.9135
 -85.911
 -85.9115
 -85.9119
 -85.9111
 -85.9056
 -85.9045
 -85.9054
 -85.9056
 -85.9253
 -85.9252
 -85.925
 -85.9258
 -85.924
 -85.9235
 -85.9234
 -85.9354
 -85.9355
 -85.9355
 -85.9355
 -85.9361
 -85.9364
 -85.9359
 -85.9334
 -85.9337
 -85.9331
 -85.9235
 -85.9243
 -85.9246
 -85.9237
 -85.9273
 -85.9275
 -85.9279
 -85.9269
 -85.9313
 -85.9318
 -85.9315
 -85.9319
 -85.9153
 -85.9146
 -85.9148
 -85.9152
 -85.9076
 -85.9081
 -85.9085
 -85.9085
 -85.9365
 -85.9366
 -85.9362
 -85.937
 -85.9137
 -85.9135
 -85.9132
 -85.9138
 -85.9224
 -85.9223
 -85.9227
 -85.9222
 -85.9368
 -85.9368
 -85.9363
 -85.9371
 -85.9254
 -85.9248
 -85.9256
 -85.9254
 -85.9188
 -85.9184
 -85.9188
 -85.9185
 -85.9142
 -85.9137
 -85.9138
 -85.9098
 -85.9105
 -85.9101
 -85.9097
 -85.9122
 -85.912
 -85.9123
 -85.9119
 -85.9113
 -85.9112
 -85.9132
 -85.9136
 -85.9124
 -85.9299
 -85.9296
 -85.9295
 -85.9294
 -85.935
 -85.9348
 -85.9349
 -85.9348
 -85.9267
 -85.9265
 -85.9268
 -85.9259
 -85.9197
 -85.9323
 -85.9325
 -85.9324
 -85.9321
 -85.9103
 -85.9103
 -85.9102
 -85.9101
 -85.9354
 -85.9356
 -85.9353
 -85.9359
 -85.9166
 -85.9162
 -85.9171
 -85.9282
 -85.9098
 -85.9098
 -85.9093
 -85.9128
 -85.9123
 -85.9119
 -85.913
 -85.9221
 -85.922
 -85.9211
 -85.9218
 -85.9292
 -85.9292
 -85.9288
 -85.9297
 -85.9196
 -85.9281
 -85.9278
 -85.9277
 -85.92
 -85.9199
 -85.92
 -85.9207
 -85.9159
 -85.916
 -85.9156
 -85.9155
 -85.9175
 -85.9167
 -85.9173
 -85.9175
 -85.9284
 -85.9136
 -85.9137
 -85.914
 -85.9297
 -85.9293
 -85.9299
 -85.9295
 -85.9321
 -85.9319
 -85.9325
 -85.9317
 -85.9345
 -85.9348
 -85.9345
 -85.9156
 -85.9156
 -85.9152
 -85.9156
 -85.9084
 -85.908
 -85.9084
 -85.9306
 -85.9306
 -85.9317
 -85.9315
 -85.9313
 -85.9312
 -85.9199
 -85.9201
 -85.9205
 -85.9358
 -85.9357
 -85.936
 -85.9357
 -85.9319
 -85.9318
 -85.932
 -85.9321
 -85.926
 -85.9261
 -85.9265
 -85.9267
 -85.9228
 -85.9231
 -85.9226
 -85.9221
 -85.9141
 -85.914
 -85.9138
 -85.9143
 -85.9316
 -85.9316
 -85.9313
 -85.932
 -85.916
 -85.9162
 -85.9153
 -85.9178
 -85.9183
 -85.9185
 -85.9186
 -85.9347
 -85.9346
 -85.9352
 -85.9349
 -85.9279
 -85.9279
 -85.9278
 -85.9275
 -85.9361
 -85.9358
 -85.9354
 -85.9359
 -85.9171
 -85.9175
 -85.9178
 -85.9177
 -85.9225
 -85.9227
 -85.9221
 -85.9232
 -85.9331
 -85.933
 -85.9334
 -85.9332
 -85.9219
 -85.9224
 -85.9216
 -85.9218
 -85.9362
 -85.9365
 -85.9362
 -85.9151
 -85.9148
 -85.9148
 -85.9149
 -85.924
 -85.924
 -85.9236
 -85.9233
 -85.9254
 -85.9258
 -85.9254
 -85.9255
 -85.9209
 -85.9206
 -85.9216
 -85.9208
 -85.9321
 -85.9322
 -85.9327
 -85.9323
 -85.9205
 -85.9198
 -85.9202
 -85.92
 -85.9253
 -85.9251
 -85.9251
 -85.9249
 -85.91
 -85.91
 -85.9098
 -85.91
 -85.9306
 -85.9306
 -85.9302
 -85.9299
 -85.9092
 -85.9092
 -85.9092
 -85.914
 -85.9137
 -85.9137
 -85.9141
 -85.9112
 -85.9115
 -85.9128
 -85.9117
 -85.9288
 -85.9287
 -85.9291
 -85.9294
 -85.9267
 -85.9275
 -85.9268
 -85.927
 -85.9164
 -85.9158
 -85.9159
 -85.9155
 -85.9373
 -85.9371
 -85.9369
 -85.8971
 -85.897
 -85.9251
 -85.9255
 -85.9247
 -85.9251
 -85.9034
 -85.9025
 -85.9017
 -85.9025
 -85.9267
 -85.9268
 -85.9275
 -85.9271
 -85.9181
 -85.9163
 -85.9159
 -85.9158
 -85.9154
 -85.9296
 -85.9296
 -85.9298
 -85.93
 -85.9335
 -85.9331
 -85.9338
 -85.9333
 -85.9099
 -85.9099
 -85.928
 -85.9283
 -85.9292
 -85.9282
 -85.9237
 -85.9225
 -85.9239
 -85.9232
 -85.9138
 -85.9137
 -85.9134
 -85.9146
 -85.9206
 -85.9199
 -85.9198
 -85.9206
 -85.9313
 -85.9307
 -85.932
 -85.9353
 -85.9351
 -85.9351
 -85.935
 -85.9366
 -85.9366
 -85.9368
 -85.9166
 -85.9162
 -85.9163
 -85.9167
 -85.9335
 -85.9333
 -85.933
 -85.933
 -85.9116
 -85.9111
 -85.9113
 -85.9114
 -85.9266
 -85.9263
 -85.9267
 -85.9258
 -85.9237
 -85.9244
 -85.9238
 -85.9238
 -85.9352
 -85.9352
 -85.9351
 -85.9354
 -85.9275
 -85.9277
 -85.9274
 -85.927
 -85.9011
 -85.9007
 -85.9006
 -85.9011
 -85.9195
 -85.9184
 -85.9194
 -85.9188
 -85.9164
 -85.9172
 -85.9173
 -85.9163
 -85.9292
 -85.9293
 -85.9288
 -85.9286
 -85.9122
 -85.9118
 -85.9116
 -85.9117
 -85.9248
 -85.9243
 -85.9243
 -85.925
 -85.9154
 -85.9151
 -85.9148
 -85.9072
 -85.9068
 -85.9067
 -85.9066
 -85.9247
 -85.9254
 -85.9245
 -85.9261
 -85.926
 -85.9257
 -85.9136
 -85.9131
 -85.9127
 -85.9116
 -85.9115
 -85.9118
 -85.912
 -85.9332
 -85.8907
 -85.891
 -85.8909
 -85.8904
 -85.932
 -85.9317
 -85.9324
 -85.9319
 -85.9099
 -85.9176
 -85.9174
 -85.9174
 -85.9181
 -85.9164
 -85.9159
 -85.9173
 -85.9127
 -85.9136
 -85.9132
 -85.9129
 -85.9022
 -85.902
 -85.9025
 -85.9015
 -85.9114
 -85.9119
 -85.9118
 -85.923
 -85.9227
 -85.9227
 -85.9166
 -85.9163
 -85.9377
 -85.9374
 -85.9373
 -85.9112
 -85.9118
 -85.911
 -85.9169
 -85.9174
 -85.9177
 -85.9334
 -85.9339
 -85.9339
 -85.9296
 -85.9297
 -85.9301
 -85.9297
 -85.9137
 -85.914
 -85.9143
 -85.9091
 -85.9085
 -85.935
 -85.9347
 -85.9353
 -85.9351
 -85.9043
 -85.9046
 -85.9036
 -85.9051
 -85.9111
 -85.9109
 -85.8953
 -85.8947
 -85.899
 -85.8989
 -85.8992
 -85.9174
 -85.9179
 -85.9171
 -85.9345
 -85.9341
 -85.9337
 -85.9278
 -85.9277
 -85.9282
 -85.9145
 -85.9144
 -85.9151
 -85.9154
 -85.9148
 -85.9329
 -85.909
 -85.9089
 -85.9092
 -85.9092
 -85.9167
 -85.9178
 -85.917
 -85.9171
 -85.9292
 -85.9291
 -85.9295
 -85.9275
 -85.9276
 -85.9272
 -85.9274
 -85.9174
 -85.9171
 -85.9178
 -85.9183
 -85.9284
 -85.9285
 -85.9291
 -85.929
 -85.9298
 -85.9295
 -85.9298
 -85.9303
 -85.9211
 -85.9281
 -85.9284
 -85.9284
 -85.9287
 -85.936
 -85.9362
 -85.9359
 -85.9357
 -85.9125
 -85.9114
 -85.9111
 -85.9119
 -85.9351
 -85.9356
 -85.9354
 -85.9353
 -85.8945
 -85.8949
 -85.8943
 -85.9344
 -85.9341
 -85.9348
 -85.9347
 -85.9128
 -85.9127
 -85.9121
 -85.9122
 -85.931
 -85.9304
 -85.9309
 -85.9312
 -85.9112
 -85.9112
 -85.9099
 -85.9102
 -85.9359
 -85.9309
 -85.9302
 -85.9306
 -85.93
 -85.9333
 -85.9336
 -85.9336
 -85.9091
 -85.9095
 -85.909
 -85.9088
 -85.9286
 -85.9283
 -85.9282
 -85.9279
 -85.9246
 -85.9253
 -85.9253
 -85.925
 -85.9236
 -85.9239
 -85.9232
 -85.923
 -85.9373
 -85.9369
 -85.9185
 -85.9185
 -85.9184
 -85.9175
 -85.918
 -85.9183
 -85.9186
 -85.9284
 -85.9279
 -85.9288
 -85.929
 -85.9278
 -85.9281
 -85.928
 -85.9285
 -85.9251
 -85.9253
 -85.9256
 -85.9248
 -85.9133
 -85.9133
 -85.9153
 -85.9149
 -85.9149
 -85.9171
 -85.9175
 -85.9175
 -85.9176
 -85.9075
 -85.907
 -85.9072
 -85.9071
 -85.9168
 -85.9162
 -85.9156
 -85.9019
 -85.902
 -85.9027
 -85.9168
 -85.9168
 -85.9162
 -85.9172
 -85.913
 -85.9138
 -85.9127
 -85.9207
 -85.9288
 -85.9285
 -85.9292
 -85.9185
 -85.9184
 -85.9188
 -85.9192
 -85.9108
 -85.9109
 -85.9124
 -85.9116
 -85.9216
 -85.9222
 -85.9223
 -85.9223
 -85.9305
 -85.9301
 -85.9373
 -85.9371
 -85.9369
 -85.9373
 -85.9286
 -85.9287
 -85.929
 -85.9282
 -85.9193
 -85.9191
 -85.9191
 -85.9195
 -85.9358
 -85.9359
 -85.9365
 -85.9356
 -85.9357
 -85.9358
 -85.936
 -85.9222
 -85.9216
 -85.9212
 -85.9219
 -85.9107
 -85.9105
 -85.911
 -85.9185
 -85.9185
 -85.9193
 -85.9185
 -85.9083
 -85.9075
 -85.9085
 -85.9075
 -85.9267
 -85.9267
 -85.9268
 -85.9254
 -85.9101
 -85.9101
 -85.9101
 -85.9102
 -85.9138
 -85.9142
 -85.9144
 -85.9141
 -85.9346
 -85.9341
 -85.9348
 -85.9342
 -85.922
 -85.922
 -85.9214
 -85.922
 -85.9166
 -85.9162
 -85.9168
 -85.9163
 -85.9295
 -85.9295
 -85.9299
 -85.9308
 -85.9305
 -85.9304
 -85.9178
 -85.9186
 -85.9183
 -85.9192
 -85.9195
 -85.9199
 -85.9196
 -85.9196
 -85.9108
 -85.9112
 -85.9107
 -85.9173
 -85.9168
 -85.9165
 -85.8924
 -85.8918
 -85.8924
 -85.892
 -85.9143
 -85.9145
 -85.9089
 -85.9093
 -85.909
 -85.9083
 -85.9238
 -85.9231
 -85.9237
 -85.923
 -85.9023
 -85.9033
 -85.9036
 -85.9029
 -85.9125
 -85.9124
 -85.9118
 -85.9273
 -85.9275
 -85.9274
 -85.9271
 -85.9121
 -85.9127
 -85.9118
 -85.9104
 -85.9105
 -85.9097
 -85.91
 -85.9167
 -85.9164
 -85.9164
 -85.9171
 -85.9297
 -85.931
 -85.8989
 -85.8992
 -85.9138
 -85.9134
 -85.9196
 -85.919
 -85.9193
 -85.9191
 -85.9265
 -85.9271
 -85.9266
 -85.9273
 -85.9207
 -85.9207
 -85.9211
 -85.9212
 -85.9086
 -85.9075
 -85.9082
 -85.9081
 -85.9242
 -85.9236
 -85.9238
 -85.9108
 -85.9105
 -85.9108
 -85.9107
 -85.9335
 -85.9334
 -85.9339
 -85.9332
 -85.9269
 -85.927
 -85.927
 -85.9264
 -85.9115
 -85.9119
 -85.9113
 -85.9193
 -85.9185
 -85.9192
 -85.9195
 -85.9088
 -85.9086
 -85.9089
 -85.9121
 -85.9128
 -85.9126
 -85.9122
 -85.912
 -85.9119
 -85.9125
 -85.9121
 -85.919
 -85.9184
 -85.9183
 -85.918
 -85.936
 -85.9358
 -85.9355
 -85.9356
 -85.9251
 -85.9259
 -85.9256
 -85.9257
 -85.9185
 -85.9177
 -85.9183
 -85.9225
 -85.9223
 -85.9222
 -85.933
 -85.9323
 -85.933
 -85.9326
 -85.9252
 -85.9252
 -85.9247
 -85.9256
 -85.9179
 -85.9185
 -85.9186
 -85.9187
 -85.9075
 -85.9076
 -85.9114
 -85.9111
 -85.9117
 -85.9116
 -85.8969
 -85.8966
 -85.8958
 -85.8967
 -85.9291
 -85.9292
 -85.9292
 -85.9289
 -85.9126
 -85.912
 -85.9122
 -85.9121
 -85.9208
 -85.9203
 -85.9206
 -85.9198
 -85.9061
 -85.9058
 -85.9059
 -85.9058
 -85.9229
 -85.9227
 -85.9224
 -85.9223
 -85.9191
 -85.9282
 -85.9281
 -85.9275
 -85.9277
 -85.9181
 -85.9173
 -85.9171
 -85.9179
 -85.9175
 -85.9179
 -85.9184
 -85.9181
 -85.9159
 -85.9152
 -85.9153
 -85.9151
 -85.9111
 -85.9105
 -85.9115
 -85.9312
 -85.9313
 -85.9315
 -85.9304
 -85.9176
 -85.9174
 -85.9174
 -85.9171
 -85.9306
 -85.9308
 -85.9313
 -85.9272
 -85.9267
 -85.927
 -85.9269
 -85.9298
 -85.9306
 -85.9302
 -85.9307
 -85.9095
 -85.9102
 -85.9094
 -85.8903
 -85.8906
 -85.8907
 -85.9275
 -85.9282
 -85.9281
 -85.923
 -85.9241
 -85.9236
 -85.9243
 -85.9166
 -85.9169
 -85.9172
 -85.9165
 -85.9186
 -85.9188
 -85.9179
 -85.9181
 -85.9005
 -85.9009
 -85.8997
 -85.9011
 -85.9209
 -85.9206
 -85.9205
 -85.9204
 -85.9247
 -85.9248
 -85.9253
 -85.9244
 -85.9126
 -85.9127
 -85.9142
 -85.9131
 -85.9137
 -85.9137
 -85.9276
 -85.9271
 -85.9275
 -85.9274
 -85.9123
 -85.9129
 -85.9254
 -85.9251
 -85.9089
 -85.8916
 -85.8915
 -85.8916
 -85.8921
 -85.906
 -85.9067
 -85.9366
 -85.937
 -85.9366
 -85.9076
 -85.9082
 -85.9088
 -85.9082
 -85.9284
 -85.9283
 -85.9138
 -85.9136
 -85.9137
 -85.9137
 -85.9158
 -85.9169
 -85.9165
 -85.9283
 -85.9287
 -85.9284
 -85.9291
 -85.9257
 -85.9264
 -85.9258
 -85.926
 -85.9318
 -85.9319
 -85.9325
 -85.9187
 -85.918
 -85.9187
 -85.9178
 -85.9207
 -85.9319
 -85.9312
 -85.9318
 -85.9317
 -85.9092
 -85.909
 -85.9094
 -85.9096
 -85.9222
 -85.9216
 -85.9221
 -85.9215
 -85.9292
 -85.9285
 -85.9291
 -85.9286
 -85.8949
 -85.8951
 -85.8954
 -85.8955
 -85.9116
 -85.9358
 -85.9171
 -85.918
 -85.9174
 -85.9168
 -85.9219
 -85.9224
 -85.9216
 -85.9214
 -85.9128
 -85.9119
 -85.9124
 -85.9126
 -85.923
 -85.9227
 -85.923
 -85.9232
 -85.9111
 -85.9112
 -85.9117
 -85.9103
 -85.9108
 -85.9111
 -85.9107
 -85.9183
 -85.9189
 -85.9179
 -85.9184
 -85.9292
 -85.9296
 -85.9286
 -85.9373
 -85.9377
 -85.9373
 -85.9372
 -85.9001
 -85.8995
 -85.8994
 -85.9202
 -85.9202
 -85.9188
 -85.9191
 -85.9184
 -85.9194
 -85.9342
 -85.9341
 -85.9341
 -85.9344
 -85.9275
 -85.9271
 -85.9274
 -85.9269
 -85.911
 -85.9119
 -85.9113
 -85.9045
 -85.918
 -85.9174
 -85.9176
 -85.9181
 -85.9195
 -85.9198
 -85.9197
 -85.927
 -85.9267
 -85.9268
 -85.9272
 -85.9296
 -85.9288
 -85.9294
 -85.9291
 -85.9173
 -85.917
 -85.9279
 -85.9278
 -85.9282
 -85.9286
 -85.9235
 -85.9233
 -85.9234
 -85.924
 -85.9355
 -85.9357
 -85.9248
 -85.9242
 -85.9248
 -85.9245
 -85.9279
 -85.9282
 -85.9284
 -85.9286
 -85.927
 -85.9274
 -85.927
 -85.927
 -85.9203
 -85.9206
 -85.9184
 -85.9188
 -85.9183
 -85.9179
 -85.9154
 -85.9149
 -85.9152
 -85.9153
 -85.9233
 -85.9238
 -85.9238
 -85.9234
 -85.9106
 -85.911
 -85.9114
 -85.9117
 -85.9127
 -85.9125
 -85.9123
 -85.9125
 -85.8984
 -85.8987
 -85.8986
 -85.8979
 -85.9154
 -85.9145
 -85.9225
 -85.9216
 -85.9224
 -85.922
 -85.9172
 -85.917
 -85.9175
 -85.9179
 -85.9214
 -85.9218
 -85.9221
 -85.9217
 -85.9189
 -85.9188
 -85.9281
 -85.9278
 -85.9365
 -85.9366
 -85.9366
 -85.9367
 -85.9082
 -85.9185
 -85.9185
 -85.9187
 -85.9191
 -85.9214
 -85.9207
 -85.9209
 -85.9209
 -85.9143
 -85.9139
 -85.9137
 -85.9131
 -85.9267
 -85.926
 -85.9267
 -85.9261
 -85.9218
 -85.9213
 -85.9211
 -85.9217
 -85.911
 -85.9109
 -85.9113
 -85.9105
 -85.9103
 -85.9165
 -85.9174
 -85.9166
 -85.9171
 -85.9163
 -85.9174
 -85.9166
 -85.9162
 -85.9112
 -85.9112
 -85.9107
 -85.9112
 -85.9128
 -85.9131
 -85.9139
 -85.9136
 -85.9189
 -85.9195
 -85.9185
 -85.9185
 -85.9113
 -85.911
 -85.9108
 -85.9109
 -85.9228
 -85.923
 -85.9222
 -85.9144
 -85.9144
 -85.9142
 -85.9141
 -85.9033
 -85.9038
 -85.9225
 -85.9228
 -85.9231
 -85.9219
 -85.9227
 -85.9224
 -85.9228
 -85.9092
 -85.9097
 -85.9099
 -85.9075
 -85.9078
 -85.9078
 -85.9075
 -85.9253
 -85.9251
 -85.9255
 -85.9249
 -85.922
 -85.9211
 -85.922
 -85.9304
 -85.9296
 -85.9299
 -85.9198
 -85.9193
 -85.9194
 -85.9318
 -85.9319
 -85.9319
 -85.8966
 -85.8961
 -85.8962
 -85.8966
 -85.9355
 -85.9356
 -85.9355
 -85.9357
 -85.9154
 -85.9148
 -85.9235
 -85.9228
 -85.9109
 -85.911
 -85.9109
 -85.9115
 -85.9244
 -85.9242
 -85.925
 -85.9285
 -85.929
 -85.9289
 -85.929
 -85.9316
 -85.9309
 -85.9093
 -85.9093
 -85.9092
 -85.9227
 -85.9226
 -85.9221
 -85.9136
 -85.9129
 -85.9136
 -85.9093
 -85.9093
 -85.909
 -85.9088
 -85.9181
 -85.9182
 -85.9176
 -85.9185
 -85.9172
 -85.9165
 -85.9168
 -85.9171
 -85.9262
 -85.9259
 -85.9259
 -85.9266
 -85.9283
 -85.928
 -85.9283
 -85.9276
 -85.9164
 -85.9162
 -85.9169
 -85.9252
 -85.9251
 -85.9247
 -85.9273
 -85.9278
 -85.9275
 -85.9276
 -85.9378
 -85.9377
 -85.9379
 -85.9206
 -85.9205
 -85.9204
 -85.9268
 -85.9271
 -85.9264
 -85.9197
 -85.9202
 -85.9194
 -85.9149
 -85.9142
 -85.9143
 -85.9094
 -85.9098
 -85.9096
 -85.9097
 -85.9198
 -85.9197
 -85.9204
 -85.9198
 -85.9135
 -85.9132
 -85.9127
 -85.9108
 -85.9114
 -85.9267
 -85.9262
 -85.9272
 -85.9266
 -85.9267
 -85.9271
 -85.9265
 -85.926
 -85.9114
 -85.912
 -85.9123
 -85.9125
 -85.911
 -85.9104
 -85.9107
 -85.9103
 -85.9055
 -85.9052
 -85.9055
 -85.905
 -85.9338
 -85.934
 -85.931
 -85.9304
 -85.9307
 -85.9311
 -85.9353
 -85.9146
 -85.9152
 -85.9144
 -85.9211
 -85.9213
 -85.9208
 -85.9207
 -85.9114
 -85.9113
 -85.9192
 -85.9192
 -85.9196
 -85.9086
 -85.9088
 -85.9302
 -85.9303
 -85.9308
 -85.9299
 -85.9322
 -85.932
 -85.9328
 -85.9325
 -85.929
 -85.9292
 -85.9286
 -85.9152
 -85.9157
 -85.9157
 -85.9316
 -85.9316
 -85.9318
 -85.932
 -85.9134
 -85.9126
 -85.9132
 -85.9135
 -85.9295
 -85.9292
 -85.9291
 -85.9295
 -85.9136
 -85.9128
 -85.9127
 -85.914
 -85.9098
 -85.9101
 -85.9095
 -85.9355
 -85.9362
 -85.9358
 -85.9357
 -85.9103
 -85.9106
 -85.9105
 -85.918
 -85.9183
 -85.9188
 -85.9183
 -85.9344
 -85.9349
 -85.9346
 -85.9134
 -85.9128
 -85.9134
 -85.9129
 -85.9251
 -85.9334
 -85.9337
 -85.9328
 -85.9333
 -85.9086
 -85.9088
 -85.909
 -85.9087
 -85.927
 -85.9261
 -85.9267
 -85.9271
 -85.9208
 -85.921
 -85.92
 -85.9098
 -85.9094
 -85.91
 -85.9085
 -85.9258
 -85.9257
 -85.9261
 -85.9128
 -85.9125
 -85.8974
 -85.8967
 -85.8975
 -85.8978
 -85.9058
 -85.9044
 -85.9043
 -85.9319
 -85.9317
 -85.933
 -85.9323
 -85.9322
 -85.9325
 -85.9069
 -85.9072
 -85.9064
 -85.9073
 -85.9172
 -85.9175
 -85.9175
 -85.9177
 -85.9192
 -85.9183
 -85.9184
 -85.9187
 -85.9222
 -85.922
 -85.9227
 -85.922
 -85.9227
 -85.9216
 -85.9223
 -85.9218
 -85.9344
 -85.9109
 -85.9107
 -85.911
 -85.9108
 -85.9347
 -85.9345
 -85.935
 -85.9233
 -85.9226
 -85.9223
 -85.9225
 -85.9094
 -85.9101
 -85.9102
 -85.9216
 -85.921
 -85.9214
 -85.9209
 -85.9199
 -85.926
 -85.9263
 -85.9268
 -85.9266
 -85.9138
 -85.9137
 -85.9138
 -85.9201
 -85.9213
 -85.9209
 -85.9348
 -85.9345
 -85.9341
 -85.9345
 -85.9195
 -85.9192
 -85.919
 -85.8949
 -85.8952
 -85.8944
 -85.9194
 -85.919
 -85.9193
 -85.9184
 -85.9264
 -85.927
 -85.9269
 -85.9206
 -85.9206
 -85.9319
 -85.9321
 -85.9316
 -85.9316
 -85.9291
 -85.9296
 -85.9292
 -85.9292
 -85.9361
 -85.936
 -85.9357
 -85.9355
 -85.9224
 -85.9212
 -85.9221
 -85.9224
 -85.9278
 -85.9276
 -85.9274
 -85.9271
 -85.9318
 -85.9322
 -85.9325
 -85.913
 -85.9134
 -85.9124
 -85.9128
 -85.9187
 -85.9193
 -85.916
 -85.9155
 -85.9161
 -85.9158
 -85.9265
 -85.9264
 -85.9265
 -85.9268
 -85.9194
 -85.9201
 -85.9198
 -85.9193
 -85.9262
 -85.9259
 -85.9268
 -85.926
 -85.9204
 -85.9206
 -85.921
 -85.9211
 -85.9198
 -85.9192
 -85.9193
 -85.9312
 -85.9309
 -85.9312
 -85.9338
 -85.9336
 -85.9335
 -85.9343
 -85.9327
 -85.9327
 -85.9331
 -85.928
 -85.9287
 -85.9281
 -85.8996
 -85.8994
 -85.8989
 -85.9186
 -85.9194
 -85.9187
 -85.9308
 -85.9311
 -85.9309
 -85.9308
 -85.9185
 -85.9188
 -85.9185
 -85.9226
 -85.923
 -85.9229
 -85.9224
 -85.925
 -85.9237
 -85.9242
 -85.9241
 -85.9199
 -85.9204
 -85.9203
 -85.9208
 -85.912
 -85.9124
 -85.912
 -85.9118
 -85.9188
 -85.9226
 -85.9226
 -85.923
 -85.9218
 -85.9103
 -85.9105
 -85.9105
 -85.9105
 -85.9095
 -85.91
 -85.9097
 -85.91
 -85.9111
 -85.9113
 -85.9112
 -85.9108
 -85.9254
 -85.9253
 -85.926
 -85.9264
 -85.913
 -85.9126
 -85.9128
 -85.913
 -85.9359
 -85.9354
 -85.9358
 -85.9354
 -85.9043
 -85.9047
 -85.9052
 -85.9051
 -85.9124
 -85.9125
 -85.9123
 -85.9084
 -85.908
 -85.9078
 -85.9078
 -85.9104
 -85.91
 -85.9108
 -85.9107
 -85.9109
 -85.921
 -85.9209
 -85.9213
 -85.9223
 -85.9339
 -85.9335
 -85.9333
 -85.9338
 -85.9337
 -85.934
 -85.9336
 -85.9116
 -85.9112
 -85.9352
 -85.9355
 -85.9351
 -85.9313
 -85.9312
 -85.9313
 -85.9318
 -85.9104
 -85.9101
 -85.9104
 -85.9357
 -85.9359
 -85.9355
 -85.9361
 -85.9156
 -85.9158
 -85.9162
 -85.9153
 -85.9112
 -85.9104
 -85.9108
 -85.9113
 -85.9082
 -85.909
 -85.9087
 -85.9085
 -85.9019
 -85.902
 -85.9015
 -85.9015
 -85.9241
 -85.9251
 -85.9247
 -85.9249
 -85.9163
 -85.9163
 -85.916
 -85.9153
 -85.9355
 -85.9351
 -85.9355
 -85.894
 -85.8948
 -85.8944
 -85.8952
 -85.9056
 -85.9064
 -85.9059
 -85.9066
 -85.9354
 -85.936
 -85.9357
 -85.9357
 -85.9203
 -85.9203
 -85.9209
 -85.9326
 -85.9331
 -85.9333
 -85.9115
 -85.9113
 -85.9105
 -85.9356
 -85.9353
 -85.9352
 -85.9354
 -85.9312
 -85.9309
 -85.9308
 -85.9303
 -85.9139
 -85.9143
 -85.9147
 -85.9142
 -85.9163
 -85.9156
 -85.9162
 -85.9154
 -85.9294
 -85.9294
 -85.9294
 -85.93
 -85.9219
 -85.9216
 -85.9211
 -85.9214
 -85.9033
 -85.904
 -85.9041
 -85.9039
 -85.9319
 -85.9309
 -85.9315
 -85.9312
 -85.9361
 -85.9208
 -85.921
 -85.9214
 -85.9214
 -85.9335
 -85.9338
 -85.9336
 -85.9342
 -85.9103
 -85.9103
 -85.9105
 -85.9105
 -85.9351
 -85.9354
 -85.9349
 -85.9347
 -85.9195
 -85.9193
 -85.9165
 -85.9162
 -85.9167
 -85.9169
 -85.9289
 -85.9282
 -85.9282
 -85.9282
 -85.9226
 -85.9233
 -85.9231
 -85.9161
 -85.916
 -85.9163
 -85.9292
 -85.929
 -85.9285
 -85.9285
 -85.9275
 -85.9272
 -85.9278
 -85.9273
 -85.9117
 -85.9113
 -85.9112
 -85.9199
 -85.9213
 -85.9213
 -85.9205
 -85.9044
 -85.9042
 -85.9049
 -85.904
 -85.9033
 -85.9356
 -85.9347
 -85.9356
 -85.9349
 -85.921
 -85.9207
 -85.9204
 -85.921
 -85.9324
 -85.9327
 -85.9183
 -85.9173
 -85.9174
 -85.9134
 -85.9129
 -85.9138
 -85.9136
 -85.9352
 -85.9351
 -85.9355
 -85.9355
 -85.9111
 -85.9113
 -85.9112
 -85.9138
 -85.9137
 -85.9142
 -85.9137
 -85.9159
 -85.9167
 -85.9161
 -85.9153
 -85.9264
 -85.9274
 -85.9266
 -85.927
 -85.9127
 -85.9136
 -85.9131
 -85.913
 -85.9283
 -85.9243
 -85.925
 -85.9252
 -85.9241
 -85.9337
 -85.9338
 -85.9333
 -85.9348
 -85.9346
 -85.9345
 -85.9342
 -85.9248
 -85.9252
 -85.9244
 -85.9248
 -85.9366
 -85.9366
 -85.9366
 -85.9361
 -85.916
 -85.9231
 -85.9222
 -85.9222
 -85.9228
 -85.9211
 -85.92
 -85.9206
 -85.9208
 -85.902
 -85.9028
 -85.9031
 -85.9023
 -85.919
 -85.9192
 -85.9195
 -85.9187
 -85.918
 -85.9181
 -85.9183
 -85.9186
 -85.9185
 -85.9186
 -85.9191
 -85.9326
 -85.9321
 -85.9319
 -85.918
 -85.9172
 -85.9174
 -85.9177
 -85.9318
 -85.9325
 -85.9322
 -85.9202
 -85.9196
 -85.9217
 -85.9221
 -85.9219
 -85.9215
 -85.9213
 -85.9215
 -85.9208
 -85.9209
 -85.9218
 -85.9215
 -85.9331
 -85.9334
 -85.9333
 -85.9161
 -85.9344
 -85.9226
 -85.923
 -85.9225
 -85.9219
 -85.9103
 -85.9103
 -85.9096
 -85.9118
 -85.9125
 -85.9129
 -85.9215
 -85.9218
 -85.9211
 -85.9196
 -85.9196
 -85.9199
 -85.9202
 -85.9211
 -85.9205
 -85.9215
 -85.9206
 -85.8944
 -85.8945
 -85.8939
 -85.9292
 -85.9286
 -85.929
 -85.9195
 -85.9198
 -85.9305
 -85.9298
 -85.93
 -85.9297
 -85.9234
 -85.924
 -85.9234
 -85.9023
 -85.9025
 -85.9016
 -85.9019
 -85.9179
 -85.9171
 -85.9178
 -85.9171
 -85.9122
 -85.912
 -85.9117
 -85.9115
 -85.926
 -85.9252
 -85.9258
 -85.926
 -85.9151
 -85.9145
 -85.915
 -85.9141
 -85.9044
 -85.9042
 -85.9042
 -85.916
 -85.9158
 -85.9154
 -85.9156
 -85.9261
 -85.9268
 -85.9265
 -85.9266
 -85.9203
 -85.9211
 -85.9212
 -85.9208
 -85.9132
 -85.9129
 -85.9132
 -85.9173
 -85.9168
 -85.917
 -85.9169
 -85.912
 -85.9113
 -85.912
 -85.9115
 -85.9086
 -85.9095
 -85.9092
 -85.9084
 -85.9351
 -85.9353
 -85.9351
 -85.9354
 -85.9114
 -85.9118
 -85.9117
 -85.9118
 -85.9128
 -85.9124
 -85.913
 -85.913
 -85.9251
 -85.9258
 -85.9257
 -85.9261
 -85.9155
 -85.9154
 -85.916
 -85.9157
 -85.9375
 -85.9376
 -85.9376
 -85.9377
 -85.9186
 -85.9183
 -85.9188
 -85.9099
 -85.9095
 -85.9096
 -85.9101
 -85.9111
 -85.9109
 -85.911
 -85.9109
 -85.9111
 -85.9101
 -85.9273
 -85.9267
 -85.9273
 -85.9265
 -85.9374
 -85.9371
 -85.9373
 -85.9372
 -85.917
 -85.9164
 -85.9167
 -85.9164
 -85.9119
 -85.9116
 -85.9115
 -85.9259
 -85.9252
 -85.9252
 -85.9257
 -85.9185
 -85.9185
 -85.9187
 -85.9193
 -85.9135
 -85.9135
 -85.9134
 -85.9139
 -85.9094
 -85.9102
 -85.9097
 -85.9295
 -85.9301
 -85.9304
 -85.9296
 -85.9315
 -85.9314
 -85.931
 -85.9171
 -85.917
 -85.9174
 -85.9179
 -85.9176
 -85.9173
 -85.9181
 -85.9131
 -85.9138
 -85.9142
 -85.9139
 -85.9256
 -85.9253
 -85.925
 -85.9111
 -85.9111
 -85.9104
 -85.9208
 -85.9214
 -85.9212
 -85.9314
 -85.9308
 -85.9313
 -85.9267
 -85.9266
 -85.9157
 -85.9161
 -85.9156
 -85.9161
 -85.9164
 -85.9161
 -85.9194
 -85.9185
 -85.9135
 -85.9088
 -85.9089
 -85.9084
 -85.932
 -85.932
 -85.9312
 -85.9172
 -85.9177
 -85.9175
 -85.9171
 -85.9138
 -85.9204
 -85.9207
 -85.9259
 -85.9261
 -85.9257
 -85.9263
 -85.9203
 -85.9197
 -85.9204
 -85.9173
 -85.9176
 -85.9166
 -85.9173
 -85.9159
 -85.917
 -85.918
 -85.9174
 -85.9171
 -85.9183
 -85.9328
 -85.9323
 -85.9322
 -85.9326
 -85.9332
 -85.9336
 -85.934
 -85.9339
 -85.911
 -85.9115
 -85.92
 -85.92
 -85.9197
 -85.9192
 -85.923
 -85.9232
 -85.9235
 -85.9237
 -85.9248
 -85.9254
 -85.9248
 -85.9246
 -85.9195
 -85.919
 -85.9188
 -85.9195
 -85.9182
 -85.9187
 -85.9184
 -85.9181
 -85.9314
 -85.9306
 -85.9314
 -85.9312
 -85.9116
 -85.9123
 -85.9126
 -85.913
 -85.9118
 -85.9125
 -85.9122
 -85.9293
 -85.9298
 -85.9305
 -85.9307
 -85.9132
 -85.9137
 -85.9134
 -85.9138
 -85.9344
 -85.9341
 -85.9344
 -85.9343
 -85.9318
 -85.9315
 -85.9317
 -85.9314
 -85.9165
 -85.9168
 -85.9163
 -85.9166
 -85.9269
 -85.9271
 -85.9269
 -85.9263
 -85.9137
 -85.914
 -85.9145
 -85.9146
 -85.9291
 -85.9287
 -85.9289
 -85.9114
 -85.9118
 -85.9113
 -85.9116
 -85.924
 -85.9237
 -85.9241
 -85.9244
 -85.9159
 -85.9161
 -85.9283
 -85.9293
 -85.9288
 -85.9287
 -85.9296
 -85.9294
 -85.929
 -85.9187
 -85.9196
 -85.9188
 -85.9301
 -85.9302
 -85.9304
 -85.9308
 -85.9049
 -85.9052
 -85.9057
 -85.9055
 -85.9134
 -85.9137
 -85.9142
 -85.9144
 -85.924
 -85.9232
 -85.9233
 -85.924
 -85.9331
 -85.9332
 -85.9329
 -85.9334
 -85.9318
 -85.9323
 -85.9323
 -85.9319
 -85.9331
 -85.933
 -85.9332
 -85.9329
 -85.9331
 -85.9147
 -85.9151
 -85.9147
 -85.9153
 -85.9118
 -85.912
 -85.9111
 -85.9117
 -85.9145
 -85.9145
 -85.9158
 -85.9165
 -85.916
 -85.9159
 -85.9177
 -85.9177
 -85.9184
 -85.9177
 -85.9122
 -85.9122
 -85.9117
 -85.9212
 -85.9208
 -85.9208
 -85.9206
 -85.9378
 -85.9377
 -85.9374
 -85.9148
 -85.9147
 -85.915
 -85.9157
 -85.9303
 -85.9295
 -85.9299
 -85.9301
 -85.9262
 -85.9269
 -85.9266
 -85.9202
 -85.9199
 -85.9205
 -85.9269
 -85.9276
 -85.9269
 -85.9313
 -85.9309
 -85.9263
 -85.9264
 -85.9263
 -85.9138
 -85.914
 -85.9141
 -85.9135
 -85.9338
 -85.9342
 -85.9339
 -85.9337
 -85.9242
 -85.9248
 -85.9245
 -85.9005
 -85.8997
 -85.8993
 -85.9003
 -85.9096
 -85.9093
 -85.9225
 -85.9159
 -85.9169
 -85.9163
 -85.9159
 -85.9211
 -85.9219
 -85.9218
 -85.9287
 -85.9288
 -85.9283
 -85.9288
 -85.9348
 -85.9349
 -85.9201
 -85.9199
 -85.9199
 -85.9195
 -85.9087
 -85.9081
 -85.9081
 -85.9088
 -85.932
 -85.9324
 -85.9323
 -85.9321
 -85.9239
 -85.9241
 -85.9237
 -85.8954
 -85.895
 -85.8945
 -85.8945
 -85.9116
 -85.9114
 -85.911
 -85.9147
 -85.9152
 -85.9142
 -85.9148
 -85.9239
 -85.924
 -85.9237
 -85.9245
 -85.9202
 -85.9207
 -85.91
 -85.9101
 -85.9101
 -85.9101
 -85.9244
 -85.925
 -85.9147
 -85.9138
 -85.9142
 -85.9145
 -85.9171
 -85.9174
 -85.9166
 -85.9171
 -85.9204
 -85.9211
 -85.9213
 -85.9208
 -85.9141
 -85.9137
 -85.913
 -85.926
 -85.9253
 -85.9261
 -85.9254
 -85.9295
 -85.9301
 -85.9305
 -85.9296
 -85.9288
 -85.9288
 -85.9289
 -85.9293
 -85.9082
 -85.9075
 -85.9079
 -85.9073
 -85.9209
 -85.9204
 -85.8986
 -85.8978
 -85.898
 -85.8974
 -85.917
 -85.9163
 -85.916
 -85.935
 -85.8923
 -85.8925
 -85.8925
 -85.8915
 -85.9192
 -85.9196
 -85.9192
 -85.9192
 -85.9156
 -85.9163
 -85.9158
 -85.929
 -85.9295
 -85.9296
 -85.929
 -85.9293
 -85.929
 -85.9297
 -85.9297
 -85.9286
 -85.9289
 -85.9284
 -85.9281
 -85.914
 -85.9145
 -85.9137
 -85.9145
 -85.9112
 -85.9109
 -85.9106
 -85.9106
 -85.9247
 -85.9248
 -85.9254
 -85.9247
 -85.9174
 -85.9165
 -85.9178
 -85.9172
 -85.9373
 -85.9332
 -85.9334
 -85.9233
 -85.9234
 -85.9177
 -85.9172
 -85.9173
 -85.9337
 -85.9344
 -85.934
 -85.9338
 -85.9188
 -85.9185
 -85.9234
 -85.9229
 -85.9022
 -85.903
 -85.9021
 -85.9029
 -85.914
 -85.9137
 -85.9133
 -85.9135
 -85.9242
 -85.925
 -85.9243
 -85.9247
 -85.9036
 -85.9029
 -85.9035
 -85.9038
 -85.9362
 -85.9359
 -85.9365
 -85.9361
 -85.9333
 -85.9327
 -85.9346
 -85.9343
 -85.9339
 -85.9347
 -85.9298
 -85.9303
 -85.9161
 -85.9164
 -85.9159
 -85.8934
 -85.894
 -85.8932
 -85.8933
 -85.9046
 -85.9051
 -85.9052
 -85.9047
 -85.9336
 -85.934
 -85.9336
 -85.9334
 -85.9271
 -85.9279
 -85.9274
 -85.9217
 -85.921
 -85.9206
 -85.9213
 -85.9147
 -85.9157
 -85.915
 -85.9147
 -85.9314
 -85.9319
 -85.9317
 -85.9338
 -85.9208
 -85.9217
 -85.9138
 -85.914
 -85.9261
 -85.9269
 -85.926
 -85.9262
 -85.9112
 -85.9105
 -85.9114
 -85.9104
 -85.9108
 -85.9102
 -85.9104
 -85.8945
 -85.8955
 -85.8953
 -85.8951
 -85.9146
 -85.915
 -85.915
 -85.9156
 -85.9317
 -85.9318
 -85.9306
 -85.9311
 -85.9309
 -85.9311
 -85.9135
 -85.9135
 -85.9141
 -85.9132
 -85.9287
 -85.9284
 -85.929
 -85.9264
 -85.9264
 -85.9266
 -85.926
 -85.9308
 -85.9311
 -85.9306
 -85.9313
 -85.9148
 -85.9154
 -85.9152
 -85.9148
 -85.9348
 -85.9342
 -85.9182
 -85.9006
 -85.9009
 -85.9014
 -85.9017
 -85.9285
 -85.9284
 -85.9288
 -85.9046
 -85.9041
 -85.9043
 -85.9038
 -85.926
 -85.9259
 -85.9259
 -85.9264
 -85.9101
 -85.9101
 -85.9095
 -85.9102
 -85.9125
 -85.9124
 -85.9129
 -85.913
 -85.9252
 -85.9256
 -85.9257
 -85.9161
 -85.9163
 -85.916
 -85.9156
 -85.9246
 -85.9244
 -85.9248
 -85.9239
 -85.9228
 -85.9224
 -85.9299
 -85.9301
 -85.93
 -85.9264
 -85.9266
 -85.926
 -85.9003
 -85.9004
 -85.9011
 -85.9005
 -85.911
 -85.9116
 -85.9108
 -85.9118
 -85.9314
 -85.9307
 -85.9308
 -85.9307
 -85.9303
 -85.9301
 -85.9128
 -85.914
 -85.9129
 -85.9266
 -85.9259
 -85.9261
 -85.9257
 -85.9263
 -85.9262
 -85.9259
 -85.9143
 -85.914
 -85.9144
 -85.9145
 -85.9338
 -85.9339
 -85.9163
 -85.9161
 -85.9164
 -85.9168
 -85.9135
 -85.9135
 -85.9138
 -85.9271
 -85.9273
 -85.9199
 -85.9196
 -85.92
 -85.9205
 -85.9106
 -85.9105
 -85.925
 -85.9249
 -85.9166
 -85.9157
 -85.9158
 -85.9163
 -85.9213
 -85.9213
 -85.9208
 -85.9218
 -85.9212
 -85.9209
 -85.9213
 -85.9067
 -85.9068
 -85.9065
 -85.9078
 -85.9044
 -85.9044
 -85.9049
 -85.9048
 -85.9263
 -85.9258
 -85.9253
 -85.9258
 -85.932
