 -8.62375
 -9.13928
 -9.04152
 -9.35072
 -20.6699
 -20.8556
 -21.2166
 -21.4377
 -17.103
 -16.6277
 -17.2001
 -16.7089
 -17.6943
 -17.1768
 -17.1023
 -16.83
 -27.4584
 -27.9011
 -27.101
 -26.8809
 -26.4681
 -25.9617
 -26.8587
 -26.1466
 -6.80813
 -6.50368
 -6.60054
 -6.79089
 -7.04791
 -7.15851
 -7.16201
 -6.96974
 -26.4343
 -26.2016
 -25.5875
 -26.1396
 -26.1822
 -26.2736
 -26.0773
 -26.955
 -5.69604
 -5.51813
 -5.79421
 -5.84751
 -16.894
 -16.9776
 -16.4914
 -16.797
 -10.4082
 -10.3734
 -10.0625
 -10.703
 -21.7174
 -20.8581
 -20.5389
 -21.1334
 -14.814
 -14.6466
 -14.9512
 -15.3079
 -7.85023
 -7.59378
 -8.0391
 -7.61714
 -24.6854
 -25.0508
 -24.6048
 -25.2182
 -18.3136
 -17.9667
 -18.4563
 -18.0919
 -15.1168
 -15.2925
 -15.3657
 -15.6848
 -23.6887
 -23.7176
 -24.0132
 -24.3866
 -7.05333
 -6.65868
 -7.07446
 -6.79596
 -28.7487
 -28.9169
 -29.3932
 -29.3221
 -2.55128
 -2.38537
 -2.34703
 -2.59897
 -20.1381
 -20.2993
 -19.673
 -19.6308
 -14.2693
 -13.9345
 -14.2746
 -14.4918
 -15.8531
 -16.0006
 -15.7329
 -15.585
 -12.305
 -12.7989
 -13.0285
 -12.3417
 -7.69246
 -7.42457
 -7.73069
 -7.68454
 -10.2071
 -10.1022
 -9.76368
 -9.98642
 -21.0512
 -21.0087
 -20.649
 -20.2899
 -14.4894
 -15.1936
 -14.3215
 -14.598
 -10.4536
 -10.7725
 -10.7655
 -10.4593
 -19.0229
 -18.4415
 -19.1667
 -18.5724
 -20.7221
 -20.4557
 -20.4129
 -20.5296
 -10.5145
 -10.1571
 -10.5831
 -9.94463
 -8.30621
 -8.25661
 -8.22887
 -8.25583
 -18.6233
 -17.8252
 -18.5493
 -18.3049
 -5.91637
 -6.07724
 -6.11604
 -6.20688
 -19.4317
 -19.4524
 -20.4083
 -20.1328
 -29.8715
 -29.4155
 -29.6747
 -29.2813
 -16.4804
 -16.378
 -16.6191
 -15.9013
 -20.5232
 -21.0214
 -20.7793
 -20.6423
 -6.42212
 -6.39858
 -6.64247
 -6.20319
 -18.3966
 -18.0182
 -18.1805
 -18.7386
 -26.1903
 -26.0395
 -26.6171
 -26.3459
 -9.44118
 -9.74317
 -9.6107
 -9.47725
 -18.615
 -19.3818
 -19.1847
 -19.2092
 -8.14877
 -8.44429
 -8.15812
 -7.82562
 -10.7928
 -10.527
 -10.3987
 -10.2572
 -15.1681
 -14.7755
 -14.6842
 -14.356
 -7.62759
 -7.52065
 -7.41472
 -7.61469
 -15.623
 -15.1953
 -15.2158
 -15.5444
 -11.37
 -10.8875
 -11.3641
 -10.7048
 -16.6237
 -16.9102
 -16.5228
 -16.9092
 -10.0253
 -10.3513
 -10.1484
 -10.6225
 -16.6967
 -16.6036
 -17.0691
 -16.3173
 -19.6522
 -19.7531
 -20.0646
 -20.3607
 -20.4605
 -20.1853
 -20.4989
 -19.653
 -9.62882
 -9.61403
 -9.13608
 -9.82092
 -12.1335
 -11.9061
 -11.985
 -12.4984
 -3.08392
 -2.9022
 -2.76213
 -2.95663
 -10.1358
 -10.065
 -9.70858
 -10.0623
 -14.5048
 -15.1219
 -14.8481
 -14.9931
 -11.5211
 -11.4711
 -12.0819
 -11.1726
 -11.2858
 -11.7549
 -11.2137
 -11.6652
 -7.45198
 -7.25603
 -7.51136
 -7.52964
 -24.2575
 -24.9443
 -25.1144
 -24.1796
 -27.4709
 -27.7313
 -27.9055
 -28.0303
 -15.6267
 -16.2152
 -15.1798
 -15.5049
 -10.2853
 -10.1795
 -10.4847
 -10.0176
 -19.3837
 -19.6914
 -19.977
 -19.3504
 -7.15456
 -6.53023
 -6.76084
 -6.76067
 -6.997
 -6.74112
 -6.63727
 -7.06821
 -2.64373
 -2.47016
 -2.72309
 -2.66675
 -16.7859
 -17.3219
 -17.0318
 -17.5463
 -9.4244
 -9.84596
 -9.94063
 -9.46459
 -8.59285
 -8.31547
 -8.67776
 -8.8548
 -28.308
 -28.7977
 -28.5742
 -28.8713
 -8.04112
 -7.93019
 -7.66524
 -8.00951
 -8.6585
 -8.47796
 -8.24632
 -8.62596
 -9.26255
 -9.55343
 -9.2429
 -8.9445
 -12.9755
 -12.853
 -13.2645
 -13.1754
 -8.83018
 -9.23184
 -8.95359
 -9.07079
 -10.7107
 -10.9644
 -11.0799
 -10.8298
 -12.1144
 -12.0004
 -11.841
 -11.6684
 -8.03998
 -7.65318
 -8.16172
 -7.75235
 -1.95522
 -1.88665
 -2.22994
 -2.2416
 -7.34344
 -7.47591
 -7.6751
 -7.49569
 -17.0455
 -16.7704
 -17.3006
 -16.4333
 -17.1935
 -17.0427
 -17.5081
 -17.0886
 -20.123
 -19.9688
 -19.7154
 -20.5096
 -6.8278
 -6.79692
 -6.87952
 -7.00645
 -29.019
 -29.0317
 -28.699
 -29.4293
 -19.9481
 -20.4615
 -19.9349
 -20.023
 -6.07912
 -6.07378
 -5.78346
 -5.781
 -10.9386
 -10.9394
 -10.7505
 -11.4937
 -8.47957
 -8.72295
 -8.19217
 -8.39057
 -8.6004
 -8.41275
 -8.40902
 -6.91923
 -6.88333
 -6.8548
 -6.74656
 -18.276
 -17.9324
 -17.608
 -18.4974
 -12.372
 -12.9918
 -12.7365
 -12.408
 -17.5728
 -18.1169
 -17.7563
 -10.247
 -9.73782
 -10.0499
 -9.88208
 -13.6427
 -13.9382
 -13.8166
 -13.3344
 -23.1173
 -22.4701
 -22.4849
 -23.527
 -7.27364
 -7.34438
 -7.79838
 -7.62463
 -8.22647
 -7.98058
 -7.83101
 -8.01883
 -16.9376
 -16.3665
 -16.2137
 -16.4128
 -19.4931
 -19.1459
 -20.124
 -20.0134
 -6.51017
 -6.5215
 -6.38545
 -6.15952
 -8.01317
 -8.09716
 -8.62679
 -8.47261
 -11.823
 -12.3265
 -12.6148
 -11.9065
 -26.6957
 -27.1392
 -26.8485
 -26.9452
 -16.8636
 -17.455
 -17.6168
 -17.3657
 -13.8871
 -13.1588
 -13.8307
 -13.8608
 -3.23568
 -2.92442
 -3.2592
 -3.23487
 -12.874
 -12.4614
 -13.0074
 -13.3201
 -23.0028
 -22.4313
 -23.0291
 -22.1412
 -9.11964
 -8.58124
 -9.37889
 -9.17989
 -8.26222
 -8.33698
 -7.97383
 -8.17669
 -7.99021
 -7.65474
 -7.7606
 -7.85225
 -5.31121
 -5.28536
 -5.28882
 -5.40934
 -8.76683
 -8.24943
 -8.28444
 -8.27679
 -17.2177
 -17.112
 -17.1909
 -16.809
 -6.63022
 -6.72325
 -6.82528
 -6.94673
 -25.8748
 -25.3748
 -25.6434
 -25.863
 -7.01347
 -6.60626
 -6.66381
 -6.96932
 -22.9017
 -21.9939
 -22.9071
 -22.348
 -12.5581
 -12.1606
 -12.1778
 -12.4771
 -11.0543
 -11.4147
 -11.5805
 -11.1594
 -9.69517
 -9.71756
 -10.2091
 -9.82046
 -8.98966
 -8.98198
 -8.71195
 -8.59176
 -28.6553
 -29.0109
 -29.1527
 -29.1068
 -9.30641
 -9.11502
 -9.29669
 -9.15314
 -29.7391
 -29.3755
 -29.6338
 -29.1161
 -19.5924
 -19.4886
 -20.1918
 -19.6741
 -4.14639
 -4.48343
 -4.41078
 -4.12663
 -27.0056
 -26.8402
 -27.361
 -27.5836
 -7.89059
 -8.2907
 -7.96333
 -7.66788
 -4.02972
 -3.86405
 -3.78282
 -3.99846
 -21.8058
 -21.6532
 -21.367
 -21.6909
 -27.6921
 -28.26
 -27.8703
 -27.6942
 -15.0692
 -15.2376
 -14.9428
 -14.8558
 -20.8821
 -20.2176
 -21.0803
 -20.4225
 -8.50962
 -8.09287
 -8.30681
 -8.2555
 -16.1957
 -16.0019
 -16.2158
 -16.7275
 -10.8562
 -10.6363
 -10.9739
 -11.0088
 -7.13684
 -7.2847
 -7.07646
 -7.07006
 -5.89956
 -5.8359
 -5.8301
 -6.08874
 -12.498
 -12.3122
 -12.7656
 -12.1655
 -13.9272
 -13.974
 -13.7792
 -13.4785
 -8.41626
 -8.34844
 -8.59559
 -8.73046
 -8.28957
 -7.84604
 -8.28737
 -8.20199
 -17.8094
 -17.8588
 -17.3929
 -17.4788
 -26.5757
 -26.4334
 -27.0454
 -27.1411
 -25.6666
 -25.1941
 -25.7424
 -25.8259
 -25.366
 -24.6068
 -24.7537
 -25.1267
 -18.5272
 -18.2048
 -18.6719
 -18.1114
 -8.25402
 -7.79984
 -8.14941
 -8.01344
 -8.42214
 -8.66619
 -8.76386
 -8.8373
 -13.6197
 -13.4735
 -12.8142
 -12.8045
 -19.7731
 -19.4241
 -20.4093
 -20.0412
 -19.519
 -19.1558
 -19.3276
 -19.7589
 -15.2974
 -14.8411
 -15.1538
 -15.241
 -16.7803
 -17.2332
 -16.5977
 -16.7395
 -6.17526
 -6.13102
 -6.29249
 -6.58258
 -0.89963
 -0.746468
 -0.922177
 -0.615172
 -9.26105
 -9.21625
 -8.79163
 -9.03437
 -1.75819
 -2.07129
 -1.9883
 -9.15628
 -9.07702
 -9.28992
 -8.83886
 -23.675
 -23.2782
 -23.5219
 -23.1169
 -14.7674
 -15.0578
 -15.154
 -15.5391
 -26.4084
 -26.1633
 -26.8949
 -26.1294
 -8.20297
 -8.26472
 -7.893
 -8.22858
 -18.8518
 -18.6483
 -19.47
 -19.2747
 -15.4237
 -15.4484
 -14.8415
 -15.0635
 -28.0329
 -28.3126
 -28.5389
 -27.7628
 -22.2842
 -22.1865
 -22.4377
 -23.0541
 -9.27835
 -9.67704
 -9.40684
 -9.26151
 -18.7711
 -18.6904
 -18.1706
 -18.7487
 -23.2099
 -22.2099
 -22.8212
 -22.3257
 -4.04777
 -3.68145
 -3.83166
 -3.7037
 -14.5438
 -14.7745
 -15.03
 -15.0961
 -22.9143
 -23.1003
 -23.4405
 -22.9854
 -17.4578
 -17.9556
 -17.0626
 -18.2186
 -22.3207
 -21.6827
 -22.4307
 -22.3339
 -8.51458
 -8.84208
 -9.03825
 -9.05269
 -22.2116
 -23.4633
 -22.2047
 -23.2335
 -12.1875
 -12.4467
 -11.6758
 -12.1241
 -13.1866
 -13.4268
 -13.7411
 -13.0938
 -22.072
 -22.0018
 -21.4747
 -22.372
 -29.8641
 -29.4994
 -29.5011
 -29.7753
 -6.17856
 -6.36668
 -6.52618
 -6.62488
 -10.4892
 -10.8343
 -11.0618
 -10.5875
 -16.2498
 -15.9454
 -15.6664
 -15.8207
 -22.2586
 -22.6474
 -22.5847
 -22.6381
 -9.48672
 -9.2153
 -9.32568
 -9.34396
 -6.74526
 -7.14327
 -7.32155
 -6.83058
 -19.3023
 -19.3325
 -18.6314
 -18.6525
 -17.4476
 -17.9457
 -17.4479
 -17.6489
 -27.2874
 -27.6727
 -28.076
 -27.2781
 -7.58868
 -8.02067
 -7.4943
 -7.82109
 -27.7982
 -28.2038
 -28.1025
 -27.8553
 -10.3388
 -10.8335
 -10.5663
 -10.4113
 -1.09799
 -1.05586
 -1.16195
 -1.23352
 -24.8816
 -25.3822
 -25.5246
 -25.3381
 -18.3782
 -18.7244
 -18.1012
 -17.489
 -25.4352
 -25.4517
 -25.0755
 -24.9515
 -13.5957
 -13.0744
 -13.4947
 -13.6922
 -12.6144
 -12.9107
 -13.0135
 -12.6966
 -21.155
 -20.4277
 -20.5837
 -20.7082
 -8.20722
 -8.37709
 -8.04144
 -8.28339
 -7.63754
 -7.85252
 -7.86734
 -7.73723
 -2.81967
 -2.66628
 -2.67277
 -2.60864
 -15.4725
 -15.87
 -16.0659
 -16.3421
 -14.0206
 -13.7533
 -14.5429
 -14.0236
 -17.483
 -16.6458
 -17.1263
 -17.6335
 -10.632
 -11.2151
 -11.2649
 -10.5259
 -26.6532
 -26.5471
 -26.9831
 -26.1181
 -27.6104
 -28.5099
 -27.664
 -27.4659
 -17.8809
 -18.1613
 -18.6864
 -18.7011
 0.551321
 0.584187
 0.509745
 0.390518
 -12.0406
 -11.7724
 -12.1388
 -11.5577
 -12.3453
 -12.2096
 -11.7382
 -12.2125
 -12.0535
 -12.132
 -11.6154
 -11.6266
 -21.6039
 -21.3343
 -22.1026
 -21.2103
 -3.57584
 -3.88623
 -3.38369
 -3.563
 -2.4375
 -2.43999
 -2.19493
 -2.12599
 -21.6417
 -21.1664
 -21.6881
 -21.0189
 -9.92356
 -10.4258
 -9.73813
 -10.3779
 -11.4493
 -11.3931
 -11.564
 -11.5831
 -17.9104
 -17.5811
 -17.4536
 -16.8638
 -7.84101
 -8.03408
 -8.17825
 -7.98318
 -22.4628
 -21.7736
 -21.9178
 -22.3727
 -10.735
 -10.0103
 -10.3758
 -9.83901
 -10.0819
 -9.98896
 -9.65961
 -9.99178
 -6.7717
 -6.5699
 -6.93942
 -6.50952
 -11.8049
 -12.4144
 -12.0015
 -12.4502
 -23.714
 -24.0807
 -24.0575
 -23.5636
 -18.7396
 -19.4361
 -19.6475
 -19.0018
 -7.84622
 -7.78453
 -8.12185
 -8.12323
 -9.43128
 -9.92251
 -9.92916
 -9.44374
 -25.7586
 -25.9689
 -26.3395
 -26.2069
 -22.1822
 -21.7422
 -22.0324
 -21.7793
 -12.4278
 -12.25
 -11.9563
 -12.2506
 -6.72102
 -6.7918
 -6.76587
 -6.89909
 -4.7423
 -5.25335
 -5.15927
 -4.83032
 -17.9723
 -17.4543
 -17.1752
 -17.7561
 -7.0679
 -6.73725
 -7.04193
 -6.3586
 -24.2853
 -23.5664
 -23.5384
 -24.2128
 -16.3804
 -17.134
 -16.6845
 -16.2034
 -23.5441
 -23.3965
 -23.1672
 -23.2853
 -19.2902
 -18.6316
 -18.6355
 -19.0268
 -12.303
 -12.0584
 -12.3004
 -12.6221
 -8.512
 -7.91116
 -8.05701
 -8.30014
 -5.28296
 -5.78444
 -5.33661
 -5.3883
 -6.45805
 -6.01194
 -6.49564
 -6.35039
 -8.34163
 -7.91633
 -7.83515
 -8.01064
 -13.2138
 -13.3775
 -13.2959
 -12.5744
 -13.2591
 -13.3463
 -13.4721
 -12.9328
 -13.8445
 -13.3912
 -14.2484
 -13.7589
 -18.1097
 -17.7426
 -18.2832
 -18.1855
 -3.74549
 -3.4425
 -3.52563
 -3.49903
 -15.2197
 -15.3292
 -15.0961
 -15.6079
 -7.76757
 -7.37719
 -7.53558
 -7.64107
 -11.3237
 -11.9119
 -11.4978
 -11.8272
 -27.3271
 -26.4187
 -27.2457
 -27.0696
 -12.958
 -12.7086
 -12.6991
 -12.4988
 -7.07886
 -6.90186
 -7.00595
 -6.62279
 -11.2679
 -11.2065
 -11.5335
 -11.7816
 -8.63375
 -8.85733
 -8.82417
 -8.52361
 -12.482
 -11.9322
 -12.5566
 -12.1393
 -3.84432
 -3.60477
 -3.71992
 -3.93359
 -11.4757
 -11.5049
 -11.9174
 -11.9493
 -18.3574
 -18.1912
 -18.5977
 -18.2525
 -16.7851
 -16.8415
 -17.0907
 -16.8638
 -25.7858
 -24.6641
 -25.6077
 -25.1075
 -9.41711
 -9.34263
 -9.70289
 -9.44592
 -8.50334
 -8.76196
 -8.48899
 -9.14817
 -25.1219
 -24.3958
 -25.2153
 -25.094
 -8.75405
 -8.75328
 -9.1743
 -8.76267
 -23.6518
 -23.3655
 -23.9836
 -23.3595
 -14.7191
 -15.4711
 -14.9922
 -15.298
 -13.249
 -12.5564
 -13.2096
 -13.3723
 -8.38662
 -8.76255
 -8.69428
 -8.36462
 -12.6416
 -12.6031
 -13.1167
 -12.5917
 -24.0551
 -23.7502
 -24.0963
 -24.1504
 -0.965788
 -1.03193
 -1.08746
 -0.794501
 -6.60559
 -6.54504
 -6.54522
 -6.6351
 -6.7305
 -6.76873
 -6.72058
 -6.49019
 -9.94565
 -10.1119
 -9.7433
 -10.3153
 -11.3547
 -11.0095
 -11.2895
 -11.0744
 -9.61101
 -9.41501
 -9.30232
 -9.6837
 -27.3118
 -27.001
 -27.9709
 -26.8607
 -8.19841
 -7.96947
 -8.01398
 -8.46798
 -17.4077
 -17.5296
 -17.7582
 -17.1842
 -13.2914
 -21.9864
 -21.2745
 -21.5041
 -21.456
 -16.467
 -16.8821
 -17.2655
 -17.0001
 -5.97049
 -6.20441
 -6.29081
 -6.11868
 -10.3396
 -10.1528
 -10.46
 -10.7516
 -9.08155
 -8.70815
 -8.98666
 -9.08342
 -23.2194
 -22.623
 -22.6563
 -22.7159
 -11.8891
 -11.1799
 -11.6758
 -11.4618
 -23.8277
 -23.9942
 -23.2141
 -23.2447
 -19.0672
 -19.4508
 -18.8393
 -19.6388
 -6.11142
 -6.32001
 -6.18729
 -6.565
 -8.2557
 -7.85706
 -8.52401
 -8.26361
 -18.4619
 -18.8524
 -18.8817
 -18.4241
 -12.75
 -12.1359
 -12.6782
 -6.97803
 -6.79415
 -6.89693
 -7.12199
 -17.8028
 -16.9061
 -17.4507
 -16.946
 -9.07268
 -8.66648
 -8.68158
 -8.9726
 -12.7927
 -12.0789
 -12.4234
 -12.8311
 -25.2488
 -25.2466
 -24.446
 -25.1483
 -9.83412
 -9.66649
 -9.44145
 -9.78286
 -22.0948
 -21.4648
 -22.0469
 -22.2459
 -13.6708
 -13.3711
 -13.6931
 -13.1464
 -20.4634
 -20.096
 -19.5844
 -19.9433
 -24.694
 -24.7134
 -25.354
 -25.0518
 -10.0778
 -10.0243
 -10.3293
 -10.3069
 -1.00896
 -1.39277
 -1.32273
 -1.53247
 -27.6784
 -27.2505
 -27.3683
 -27.1577
 -17.2526
 -17.0353
 -16.6763
 -16.9699
 -7.56135
 -7.53079
 -8.17261
 -7.66541
 -11.2608
 -11.5612
 -11.6829
 -11.2155
 -4.35707
 -4.44166
 -4.44525
 -4.17592
 -24.1552
 -24.4137
 -25.1969
 -24.5075
 -6.9659
 -6.7817
 -6.87573
 -6.90548
 -15.0683
 -15.5494
 -14.8259
 -15.1954
 -7.99902
 -7.32222
 -7.83795
 -7.85505
 -28.6865
 -28.57
 -28.6514
 -27.9464
 -28.4454
 -28.3465
 -27.9644
 -27.5998
 -19.1493
 -18.5448
 -18.4137
 -19.23
 -15.5142
 -15.7353
 -15.5557
 -15.1588
 -15.7173
 -7.18541
 -7.26363
 -6.82886
 -7.11717
 -7.8179
 -7.67709
 -7.56826
 -7.95022
 -17.9063
 -18.4838
 -18.5142
 -18.5023
 -7.31757
 -7.58368
 -7.59319
 -7.30533
 -8.64661
 -8.56042
 -8.48566
 -8.85743
 -18.8348
 -19.0449
 -18.9075
 -18.3837
 -10.3726
 -10.8712
 -10.3697
 -10.8647
 -18.2517
 -18.3119
 -18.4419
 -18.8433
 -8.86072
 -8.76763
 -8.46171
 -8.85433
 -9.94239
 -10.2659
 -10.2989
 -10.3494
 -12.0999
 -12.529
 -11.8992
 -12.41
 -15.4339
 -16.0324
 -15.6479
 -16.2238
 -21.1635
 -20.8569
 -21.7265
 -21.703
 -14.663
 -14.511
 -14.2218
 -14.2784
 -14.6644
 -14.8819
 -15.0714
 -14.9205
 -6.05749
 -6.04916
 -6.20934
 -6.31613
 -17.4034
 -17.5572
 -17.7343
 -17.6271
 -13.4796
 -13.6064
 -13.7848
 -13.418
 -14.1518
 -14.1577
 -13.7882
 -14.103
 -10.6578
 -10.7993
 -10.3189
 -10.5999
 -6.90173
 -6.87074
 -7.03914
 -6.61404
 -20.1498
 -20.1485
 -20.5612
 -20.5142
 -7.02972
 -6.76149
 -6.86118
 -7.27599
 -27.7688
 -27.7167
 -28.3504
 -28.0379
 -22.2827
 -21.8371
 -22.6824
 -22.4224
 -22.7925
 -22.8279
 -22.7938
 -22.609
 -22.4217
 -22.2907
 -22.1782
 -22.798
 -19.0198
 -19.2976
 -18.7112
 -19.3351
 -4.55773
 -4.37128
 -4.04774
 -14.5236
 -13.8404
 -14.4394
 -14.2766
 -21.6102
 -21.4217
 -21.1932
 -21.669
 -10.404
 -9.93984
 -10.1985
 -10.315
 -8.91723
 -8.9879
 -8.78024
 -9.05798
 -19.4972
 -19.5811
 -20.1352
 -18.9637
 -11.9477
 -11.8207
 -12.0542
 -12.3793
 -9.2631
 -9.28688
 -9.18121
 -9.08817
 -27.0206
 -27.667
 -16.8276
 -16.7066
 -16.188
 -16.2028
 -12.2757
 -12.1935
 -11.8878
 -15.2566
 -15.3926
 -15.2506
 -14.8274
 -5.20563
 -5.12465
 -5.47006
 -5.43435
 -22.136
 -22.6496
 -22.5936
 -21.9928
 -15.1238
 -14.9854
 -14.6975
 -14.7437
 -10.3505
 -9.97555
 -10.1532
 -10.5155
 -14.1073
 -13.5689
 -13.7498
 -13.9588
 -7.23765
 -7.08889
 -7.31958
 -7.1951
 -6.33275
 -6.88176
 -6.48436
 -6.58026
 -11.8253
 -12.207
 -12.3194
 -12.0591
 -7.19269
 -7.10508
 -7.18196
 -7.45845
 -12.4161
 -12.1733
 -12.2675
 -12.0822
 -22.9404
 -22.8384
 -22.1494
 -22.049
 -7.51407
 -7.71128
 -7.83943
 -7.65037
 -2.87775
 -3.14997
 -2.91519
 -3.08407
 -16.1708
 -15.2176
 -15.84
 -15.933
 -11.3055
 -11.6211
 -11.2374
 -11.6295
 -7.15394
 -7.09667
 -7.40559
 -7.33408
 -12.4176
 -12.1265
 -12.6067
 -12.5914
 -25.8856
 -25.6669
 -26.087
 -25.9313
 -8.56357
 -8.55033
 -8.37763
 -8.57633
 -16.4658
 -16.0076
 -16.0019
 -15.9171
 -11.1716
 -11.6138
 -11.2731
 -11.9179
 -18.841
 -19.1871
 -19.0941
 -19.5992
 -23.1036
 -22.9402
 -23.3161
 -22.7884
 -7.54407
 -7.83519
 -7.64354
 -8.1635
 -9.6832
 -9.97353
 -9.89811
 -9.82125
 -15.3528
 -15.2943
 -14.6643
 -15.0351
 -6.98828
 -7.10226
 -7.06391
 -7.16416
 -1.12566
 -0.926062
 -0.943686
 -1.07333
 -13.9848
 -13.5351
 -13.5716
 -13.4509
 -0.592567
 -0.536166
 -0.608886
 -0.790159
 -1.06565
 -1.35053
 -1.31177
 -1.16498
 -5.40547
 -5.62489
 -5.56104
 -5.30965
 -17.3873
 -16.9818
 -16.6452
 -16.4015
 -17.1416
 -17.5113
 -17.5871
 -17.9347
 -17.947
 -17.5833
 -17.8858
 -17.2854
 -16.2606
 -15.679
 -15.8105
 -16.4132
 -4.04441
 -3.82357
 -3.99166
 -3.96119
 -7.72117
 -7.56679
 -7.93053
 -7.77819
 -7.46746
 -7.12579
 -7.2257
 -7.17607
 -10.4805
 -10.9471
 -10.5085
 -10.9876
 -14.5763
 -14.2755
 -14.6107
 -14.3505
 -18.9752
 -18.7831
 -18.543
 -18.9719
 -8.22775
 -8.64794
 -8.78359
 -8.36017
 -17.4425
 -12.6202
 -13.004
 -13.0019
 -12.751
 -28.3317
 -28.5438
 -29.1314
 -28.7511
 -11.696
 -11.7913
 -12.0632
 -11.7604
 -24.363
 -25.1633
 -24.5663
 -7.53241
 -7.69419
 -7.83981
 -7.47749
 -1.80512
 -2.05903
 -1.93797
 -2.09081
 -12.8478
 -12.8281
 -13.4452
 -12.5599
 -10.6218
 -10.0376
 -10.1507
 -10.105
 -7.24213
 -7.44199
 -7.66455
 -7.78679
 -7.79365
 -7.90855
 -7.6318
 -7.95583
 -4.96752
 -4.59393
 -4.82436
 -4.84149
 -15.4031
 -15.2701
 -15.6041
 -16.3826
 -12.8572
 -13.3915
 -12.7229
 -13.1396
 -9.54931
 -9.16635
 -9.53477
 -9.36352
 -11.941
 -11.6352
 -12.4652
 -19.5865
 -19.3075
 -19.2082
 -8.42124
 -8.47905
 -7.99394
 -7.90732
 -5.2813
 -5.17987
 -5.18613
 -5.27593
 -9.00632
 -9.27563
 -9.22212
 -8.92487
 -5.43513
 -5.12829
 -5.50863
 -5.01832
 -20.7617
 -21.5627
 -20.9643
 -21.1842
 -19.0176
 -19.2906
 -19.4531
 -19.8328
 -7.01859
 -6.90464
 -6.96048
 -6.91608
 -4.55749
 -4.16177
 -4.44325
 -4.54999
 -14.1535
 -13.494
 -14.0615
 -13.8117
 -26.5823
 -25.9051
 -26.6959
 -26.0211
 -5.25446
 -5.23846
 -5.08868
 -5.25622
 -17.1739
 -16.6502
 -16.559
 -17.2955
 -2.715
 -2.53482
 -2.70745
 -2.58184
 -18.8391
 -19.115
 -18.7441
 -19.5861
 -10.8322
 -10.4719
 -11.0278
 -10.3839
 -20.7607
 -20.8136
 -21.317
 -21.3449
 -7.39831
 -7.51152
 -7.55575
 -7.85886
 -10.0257
 -9.691
 -9.72959
 -9.71465
 -8.44342
 -8.3116
 -8.71378
 -8.69182
 -9.01465
 -8.89546
 -9.33787
 -8.65486
 -14.0296
 -14.3682
 -14.2892
 -13.8294
 -11.6583
 -11.3027
 -11.745
 -11.7171
 -21.54
 -21.0491
 -20.5762
 -20.6355
 -27.5701
 -27.9913
 -27.0556
 -27.1306
 -11.1032
 -11.0529
 -10.738
 -11.0091
 -22.7874
 -22.5201
 -22.333
 -23.1736
 -18.2581
 -18.9794
 -19.3637
 -18.8444
 -3.91541
 -3.78137
 -3.49775
 -3.88967
 -6.79659
 -7.40096
 -7.26207
 -7.08688
 -10.6872
 -10.409
 -10.2963
 -10.4297
 -5.10412
 -4.904
 -4.84413
 -4.67351
 -14.4544
 -14.9896
 -14.9275
 -14.7329
 -20.5128
 -21.6242
 -21.0234
 -21.0678
 -5.28428
 -5.74119
 -5.30763
 -5.27834
 -12.0505
 -12.4367
 -12.1663
 -12.2392
 -9.13189
 -9.10575
 -9.1172
 -8.92887
 -1.21986
 -1.4255
 -1.42916
 -1.2267
 -10.1663
 -10.1082
 -10.0514
 -10.4518
 -12.9292
 -13.2565
 -13.1985
 -13.2986
 -18.4607
 -19.0925
 -18.6816
 -19.2559
 -8.80585
 -8.90535
 -9.01585
 -12.9042
 -12.8076
 -12.6637
 -12.8398
 -9.71253
 -9.67287
 -10.1929
 -9.84798
 -17.1565
 -16.6385
 -17.0396
 -16.926
 -17.0727
 -17.663
 -17.6382
 -17.421
 -23.6832
 -23.1321
 -23.49
 -22.8579
 -7.90958
 -7.991
 -8.20727
 -7.89465
 -26.0163
 -26.2719
 -26.5409
 -26.1519
 -8.48111
 -8.80824
 -8.53408
 -8.35281
 -12.7881
 -13.3301
 -13.2696
 -13.5941
 -13.5786
 -13.0577
 -13.2116
 -12.9567
 -0.830249
 -0.617635
 -0.812619
 -0.779262
 -9.44055
 -9.19003
 -9.46738
 -9.52342
 -12.4261
 -12.368
 -12.7737
 -13.3028
 -12.0866
 -12.2371
 -12.2716
 -11.7347
 -27.8381
 -27.8327
 -27.2883
 -27.864
 -8.46834
 -8.83774
 -9.05192
 -8.57429
 -9.03219
 -8.80661
 -9.19759
 -8.71043
 -18.6112
 -19.1498
 -18.6596
 -19.0362
 -7.49062
 -7.42457
 -7.22529
 -7.18969
 -7.43968
 -7.36293
 -7.5843
 -7.34863
 -16.6781
 -15.9792
 -16.6192
 -16.2675
 -17.3288
 -17.2711
 -16.816
 -17.2876
 -13.8483
 -13.874
 -14.5684
 -14.3376
 -8.79627
 -8.61238
 -15.6598
 -15.2388
 -15.9559
 -15.362
 -8.97397
 -9.17325
 -8.99147
 -9.0619
 -11.1485
 -11.607
 -11.7504
 -11.5626
 -24.5698
 -24.2292
 -23.9184
 -24.7489
 -11.3449
 -11.4784
 -11.7052
 -11.7867
 -19.7244
 -20.1916
 -20.4957
 -19.5498
 -8.19263
 -8.8287
 -8.6049
 -8.79944
 -10.4759
 -10.117
 -10.0362
 -10.2433
 -12.3716
 -13.1118
 -12.689
 -12.8754
 -7.87301
 -7.56865
 -7.44541
 -7.64676
 -3.03184
 -3.08587
 -2.96907
 -2.80856
 -26.614
 -26.4968
 -26.345
 -26.5622
 -5.37701
 -5.32764
 -5.48403
 -5.26541
 -14.761
 -14.9803
 -14.4556
 -14.4967
 -2.99791
 -3.00894
 -3.20367
 -2.92549
 -15.3673
 -15.864
 -15.4755
 -15.419
 -8.62068
 -8.57605
 -8.46219
 -8.47347
 -8.50232
 -8.59214
 -8.24904
 -8.45111
 -13.6961
 -13.8999
 -13.3026
 -13.7048
 -21.7411
 -21.022
 -21.5403
 -20.9126
 -10.2498
 -10.8425
 -10.727
 -10.7708
 -6.95579
 -6.85703
 -6.96859
 -7.10773
 -21.3312
 -22.2062
 -21.7292
 -22.3682
 -8.50414
 -8.16472
 -8.66349
 -8.68473
 -10.3967
 -10.8081
 -10.7068
 -10.9499
 -18.389
 -19.4532
 -19.2446
 -18.8303
 -13.3752
 -13.8522
 -13.9473
 -13.9534
 -11.7509
 -11.502
 -11.7937
 -11.9969
 -24.3289
 -24.8401
 -25.0804
 -25.273
 -22.3305
 -22.5277
 -22.5441
 -22.2093
 -14.64
 -14.6937
 -14.0566
 -14.3564
 -11.777
 -12.0312
 -11.6187
 -12.5331
 -9.55375
 -9.68746
 -9.7248
 -10.2508
 -6.81738
 -6.78022
 -6.55823
 -19.3873
 -19.809
 -19.5645
 -20.1482
 -2.75891
 -2.58013
 -2.36461
 -2.39163
 -17.2558
 -16.5478
 -16.9259
 -16.8326
 -8.03705
 -7.60679
 -7.83032
 -7.85888
 -7.34912
 -7.05657
 -7.13767
 -7.10661
 -22.5031
 -21.8455
 -22.1829
 -23.0925
 -13.5465
 -13.2311
 -13.7252
 -13.3752
 -11.9511
 -11.802
 -8.93647
 -11.1366
 -11.5862
 -11.0787
 -11.3595
 -3.062
 -3.26618
 -16.5096
 -16.7616
 -17.0179
 -6.06572
 -6.27057
 -5.83145
 -6.08509
 -16.7593
 -16.157
 -16.3314
 -16.3441
 -10.3347
 -10.7513
 -10.639
 -10.6152
 -8.76925
 -9.31804
 -8.98397
 -9.02202
 -24.4047
 -24.4363
 -25.3104
 -24.6847
 -6.19834
 -6.49799
 -6.16769
 -6.52787
 -16.0829
 -16.1392
 -16.2242
 -16.5771
 -25.5126
 -25.698
 -24.9371
 -24.9775
 -13.2438
 -12.7514
 -13.2265
 -12.8739
 -16.1472
 -15.405
 -15.6977
 -15.6454
 -12.3314
 -12.752
 -12.4276
 -11.761
 -28.6842
 -27.6474
 -28.428
 -27.5141
 -27.8996
 -27.8476
 -27.5504
 -27.1982
 -27.2457
 -27.0261
 -27.0198
 -27.2966
 -11.1787
 -10.7919
 -11.1921
 -11.1547
 -14.7079
 -14.1207
 -14.3293
 -14.6374
 -11.5737
 -11.5101
 -11.1964
 -11.4427
 -10.9073
 -10.745
 -11.3135
 -10.7582
 -17.3902
 -17.6042
 -17.7046
 -17.1273
 -21.4749
 -22.2872
 -22.035
 -22.3284
 -21.252
 -21.5043
 -20.8226
 -21.6996
 -13.1288
 -13.4004
 -13.0436
 -13.3336
 -12.0289
 -11.9985
 -11.8864
 -11.6786
 -8.46675
 -8.25069
 -8.38477
 -8.76289
 -18.8893
 -19.4285
 -19.4014
 -18.7321
 -5.16875
 -5.18204
 -4.91796
 -5.34645
 -20.1847
 -20.6091
 -20.0889
 -19.916
 -14.1765
 -14.9676
 -14.1564
 -14.7696
 -13.8079
 -14.091
 -13.8869
 -13.6356
 -6.44026
 -6.39445
 -6.21039
 -5.96606
 -0.163659
 -0.320988
 -0.12199
 -0.142943
 -9.71362
 -10.0965
 -9.71786
 -9.80871
 -20.1811
 -19.3387
 -19.5789
 -20.1094
 -7.40144
 -7.11264
 -7.31401
 -7.55152
 -14.6196
 -14.8701
 -14.3166
 -14.9518
 -15.411
 -15.8389
 -16.3559
 -16.1307
 -18.5758
 -18.8807
 -18.0428
 -18.3361
 -4.63116
 -4.42482
 -4.44597
 -4.64104
 -4.76878
 -4.78624
 -4.65901
 -4.61205
 -20.0102
 -20.9366
 -20.5137
 -20.5374
 -17.536
 -16.7078
 -16.7831
 -17.2863
 -9.55466
 -9.60418
 -9.39507
 -9.42875
 -12.4791
 -12.3047
 -12.7193
 -12.9834
 -14.074
 -14.2121
 -14.1051
 -13.9408
 -9.35756
 -9.11316
 -9.69579
 -9.19818
 -16.2326
 -15.9413
 -15.9411
 -15.5793
 -30.5451
 -30.0441
 -30.4387
 -30.516
 -15.0688
 -15.6479
 -15.6122
 -15.983
 -12.602
 -12.837
 -12.4787
 -13.0953
 -12.6602
 -12.6105
 -12.2141
 -12.6835
 -14.1062
 -14.4069
 -14.1284
 -13.7011
 -26.3197
 -26.4055
 -25.8564
 -26.3245
 -21.5682
 -21.0443
 -21.4354
 -16.0336
 -15.9818
 -16.3779
 -15.9575
 -7.03678
 -7.0043
 -7.25121
 -6.96252
 -10.8084
 -10.8479
 -10.5092
 -10.9492
 -21.1979
 -20.3927
 -20.3553
 -20.3993
 -8.47713
 -8.59211
 -8.67949
 -8.83111
 -10.2266
 -9.91227
 -9.8843
 -10.2962
 -10.7021
 -10.5324
 -10.0405
 -10.4416
 -17.2286
 -16.8688
 -16.7448
 -16.706
 -14.2893
 -13.8423
 -14.3675
 -13.4737
 -16.0667
 -15.0949
 -15.4513
 -15.58
 -7.59225
 -7.72862
 -7.78903
 -7.64016
 -10.5443
 -10.8393
 -10.9345
 -10.5489
 -16.7045
 -16.2795
 -16.7886
 -17.1858
 -9.93611
 -10.118
 -10.3376
 -9.76703
 -15.0368
 -15.4879
 -15.5228
 -15.2
 -7.40371
 -7.29726
 -7.4854
 -7.2487
 -25.4323
 -25.6588
 -24.9483
 -25.4286
 -8.32555
 -8.05701
 -8.41226
 -8.56327
 -7.85409
 -7.24091
 -7.62147
 -7.62284
 -18.1951
 -18.1634
 -18.5744
 -18.7465
 -8.4285
 -8.51652
 -8.58695
 -8.53052
 -15.489
 -15.3198
 -15.5218
 -15
 -6.20523
 -6.27287
 -5.86614
 -5.94329
 -13.7762
 -13.5578
 -13.6771
 -14.1242
 -23.6892
 -24.6455
 -23.7859
 -24.3538
 -14.05
 -13.4009
 -13.3784
 -13.7869
 -18.561
 -18.8597
 -18.5402
 -18.5546
 -15.3371
 -15.1007
 -15.2319
 -15.5818
 -15.0253
 -15.2417
 -15.3381
 -15.7765
 -26.3076
 -26.2551
 -26.5242
 -25.5345
 -7.69179
 -7.49793
 -7.35051
 -7.29713
 -8.01824
 -7.87639
 -7.59549
 -7.86767
 -22.3435
 -22.2943
 -21.9545
 -22.8268
 -24.1539
 -24.5103
 -24.0689
 -9.19277
 -9.06441
 -9.04024
 -9.2813
 -15.9962
 -16.5925
 -15.9574
 -15.8964
 -14.5239
 -14.7176
 -14.1673
 -14.778
 -7.76473
 -8.04804
 -7.53229
 -7.77827
 -18.7243
 -19.1582
 -18.991
 -19.0145
 -12.1837
 -11.6699
 -11.7468
 -12.2029
 -13.8221
 -13.3122
 -13.3578
 -13.2453
 -19.2623
 -19.7596
 -19.7598
 -19.6107
 -6.70916
 -6.59039
 -6.73801
 -6.88484
 -9.29778
 -8.86862
 -9.00291
 -8.95458
 -27.0395
 -26.2994
 -26.9613
 -26.6839
 -7.72736
 -7.68276
 -7.78158
 -8.23915
 -6.81139
 -6.68611
 -6.73725
 -6.77245
 -12.3976
 -12.5518
 -12.3365
 -12.9572
 -3.08137
 -3.18494
 -2.97846
 -3.36155
 -13.406
 -13.4995
 -13.2387
 -13.4698
 -19.9113
 -19.7031
 -19.517
 -19.3842
 -21.8477
 -21.4008
 -21.6356
 -6.2098
 -6.2399
 -6.39401
 -6.26448
 -8.42891
 -8.81561
 -8.33766
 -8.70804
 -7.73735
 -7.62387
 -7.40962
 -7.37757
 -9.04867
 -8.77638
 -8.94669
 -8.89097
 -27.6016
 -27.9378
 -28.1915
 -28.0285
 -6.68404
 -6.69668
 -6.5836
 -6.37009
 -8.55567
 -8.29479
 -8.51885
 -8.93794
 -21.5851
 -22.0842
 -21.6146
 -21.3977
 -10.2231
 -10.1166
 -10.4011
 -8.87827
 -8.55916
 -8.88299
 -14.0614
 -13.7924
 -13.3564
 -3.61253
 -3.96153
 -4.01288
 -3.73127
 -13.5927
 -13.9217
 -13.7525
 -14.0872
 -13.2618
 -13.5558
 -12.8751
 -12.9499
 -22.4041
 -22.832
 -22.2144
 -22.1338
 -24.4624
 -24.3128
 -25.3745
 -24.3397
 -7.49114
 -7.1701
 -7.1392
 -7.73787
 -14.5532
 -15.0613
 -15.1454
 -14.858
 -14.3391
 -14.7485
 -14.9517
 -14.8162
 -12.0186
 -12.6163
 -12.3486
 -12.7266
 -9.8648
 -10.0272
 -10.1055
 -9.56718
 -14.4809
 -13.9266
 -14.3554
 -14.4812
 -7.63656
 -7.72754
 -7.58744
 -7.82654
 -23.8446
 -23.5691
 -23.8687
 -23.9934
 -9.14145
 -9.04094
 -9.20001
 -9.45659
 -21.6723
 -21.1183
 -21.5316
 -21.3156
 -25.2905
 -24.9694
 -24.409
 -25.0729
 -25.2786
 -25.1256
 -24.9943
 -24.8294
 -8.31573
 -8.07811
 -18.0609
 -17.8869
 -17.5608
 -17.8713
 -7.77115
 -8.23916
 -8.01965
 -7.86403
 -19.4532
 -20.45
 -20.1586
 -20.3451
 -21.4892
 -21.1335
 -21.8206
 -21.1504
 -9.41411
 -9.7171
 -9.74535
 -9.559
 -14.3633
 -14.3329
 -14.7642
 -14.6196
 -8.93365
 -8.94825
 -9.24398
 -8.96584
 -11.1237
 -11.0862
 -11.1831
 -11.5484
 -1.51583
 -1.89464
 -1.42719
 -1.75679
 -23.2304
 -22.8701
 -23.7972
 -23.1721
 -9.17303
 -8.91587
 -9.29438
 -9.55869
 -6.18607
 -5.95649
 -5.96585
 -6.28044
 -11.6835
 -11.4609
 -11.9121
 -11.9865
 -6.33126
 -5.91055
 -5.7822
 -6.35437
 -11.5009
 -11.0651
 -10.8679
 -11.3199
 -17.935
 -17.7591
 -18.3671
 -17.5022
 -12.2797
 -11.9709
 -11.9765
 -12.1533
 -22.5826
 -23.4843
 -22.6549
 -11.7683
 -12.1849
 -11.7348
 -12.1584
 -1.47118
 -1.33083
 -1.35528
 -1.25648
 -28.0498
 -28.1671
 -28.4098
 -28.0834
 -14.0286
 -13.9047
 -14.1991
 -13.8022
 -19.8467
 -19.4559
 -18.9174
 -19.6144
 -7.34417
 -7.64374
 -6.9013
 -7.22107
 -9.74441
 -10.0763
 -9.48245
 -9.87861
 -9.8521
 -10.435
 -10.08
 -10.3992
 -24.7583
 -24.2941
 -24.9119
 -25.3282
 -10.3023
 -9.99808
 -9.75315
 -9.88765
 -27.395
 -27.1554
 -27.568
 -26.8387
 -17.2962
 -16.6522
 -16.6722
 -17.3525
 -7.71442
 -7.7916
 -7.91843
 -7.72414
 -2.90926
 -3.00817
 -3.23964
 -2.84054
 -11.2327
 -10.634
 -10.9945
 -10.5078
 -12.5402
 -12.5678
 -12.951
 -12.4862
 -18.221
 -18.3054
 -17.9458
 -17.4977
 -1.74041
 -1.47259
 -1.83329
 -1.68907
 -11.2957
 -10.9895
 -11.5303
 -11.3557
 -26.5935
 -26.0796
 -26.0088
 -26.1145
 -20.9392
 -21.4053
 -21.1893
 -20.9608
 -20.6245
 -20.7265
 -21.2037
 -20.496
 -20.0055
 -19.5619
 -19.3646
 -19.6382
 -20.9327
 -21.8014
 -21.3628
 -21.2625
 -15.509
 -15.6868
 -15.5329
 -15.5464
 -8.19339
 -8.73547
 -9.11806
 -9.1689
 -8.95094
 -17.0223
 -16.4616
 -16.663
 -16.5191
 -16.9345
 -17.0741
 -16.3109
 -16.4641
 -5.25911
 -5.38854
 -5.35386
 -5.25676
 -22.9567
 -22.9693
 -22.7062
 -23.0377
 -19.5128
 -20.0181
 -20.6749
 -20.2481
 -7.70901
 -8.16114
 -8.10221
 -8.40696
 -8.41558
 -8.32962
 -8.74616
 -8.98396
 -8.87607
 -9.15871
 -8.10914
 -7.69872
 -7.20083
 -7.49684
 -16.7818
 -17.3663
 -17.1857
 -16.7542
 -27.3418
 -27.4132
 -27.2585
 -27.494
 -12.7269
 -12.4761
 -12.7801
 -12.2581
 -24.716
 -23.7044
 -23.2887
 -23.2926
 -11.4357
 -11.3694
 -11.153
 -11.5836
 -16.6695
 -16.2302
 -15.898
 -15.9586
 -7.65333
 -7.58208
 -7.53269
 -7.21365
 -14.5207
 -15.0261
 -14.286
 -14.6736
 -15.4057
 -16.0544
 -16.3353
 -15.524
 -8.23658
 -8.09081
 -7.802
 -7.95987
 -10.2041
 -9.95943
 -10.6972
 -10.3917
 -11.6086
 -11.5544
 -11.2019
 -10.9746
 -14.6043
 -14.8885
 -14.6813
 -14.8797
 -5.46612
 -5.54234
 -5.65209
 -5.90787
 -15.7761
 -15.2464
 -15.5945
 -15.9073
 -10.3104
 -9.85094
 -10.3791
 -10.637
 -17.9061
 -17.7223
 -17.8837
 -17.4313
 -22.1757
 -21.6382
 -22.101
 -21.7795
 -25.5333
 -25.2236
 -25.0567
 -25.3073
 -24.4164
 -24.8111
 -23.7798
 -27.912
 -28.0803
 -28.4074
 -28.5169
 -20.6413
 -20.0667
 -19.4162
 -20.1396
 -12.3948
 -12.292
 -12.6305
 -12.5619
 -24.8297
 -24.3654
 -23.9527
 -24.716
 -13.4663
 -13.5414
 -13.2493
 -13.1709
 -14.7808
 -15.0564
 -14.8906
 -24.8084
 -25.2715
 -24.9689
 -24.8663
 -23.4526
 -22.9431
 -23.146
 -14.1566
 -13.9099
 -14.3741
 -14.5421
 -10.0861
 -10.3118
 -10.0439
 -10.5966
 -17.3678
 -16.9696
 -16.8202
 -16.7226
 -24.9609
 -25.3875
 -25.1254
 -24.8504
 -8.65406
 -8.582
 -8.79731
 -8.43205
 -12.2706
 -12.1446
 -11.8032
 -11.7212
 -12.9084
 -13.535
 -12.8301
 -12.9482
 -17.9206
 -17.3676
 -17.7943
 -17.8866
 -8.68065
 -8.44161
 -8.96779
 -8.50435
 -7.39311
 -7.14537
 -7.41801
 -7.31225
 -12.9192
 -12.9399
 -12.8575
 -13.3258
 -26.7607
 -26.3553
 -26.3011
 -26.4826
 -9.24763
 -8.82677
 -9.29857
 -9.06751
 -7.62646
 -7.94133
 -7.55882
 -7.90158
 -15.771
 -15.0531
 -15.7628
 -15.704
 -8.98672
 -9.10322
 -8.88715
 -7.52727
 -7.79501
 -7.68966
 -14.8518
 -14.562
 -15.2999
 -14.7078
 -7.89678
 -7.77379
 -7.51972
 -7.87067
 -7.88894
 -7.5097
 -7.79263
 -7.81368
 -15.8562
 -16.0342
 -15.7098
 -8.02347
 -7.95917
 -21.8846
 -21.9624
 -22.9913
 -23.0597
 -17.285
 -18.1378
 -18.1443
 -17.7985
 -5.45747
 -5.7269
 -5.23516
 -5.80413
 -3.58137
 -3.63448
 -3.35689
 -3.65371
 -9.03511
 -8.39551
 -8.78769
 -8.81733
 -23.9969
 -23.9685
 -24.2773
 -24.0056
 -16.6837
 -16.3129
 -16.0491
 -16.3009
 -6.64427
 -6.58009
 -6.56731
 -6.53111
 -9.02618
 -9.07785
 -9.24935
 -9.59379
 -9.24485
 -9.28552
 -9.19298
 -8.341
 -8.60182
 -8.6485
 -8.65279
 -8.57211
 -8.32232
 -8.69719
 -8.76565
 -7.51629
 -7.18914
 -7.46953
 -7.21173
 -26.3478
 -26.7411
 -26.4819
 -26.3703
 -24.7002
 -25.2916
 -24.4465
 -12.668
 -12.3628
 -12.715
 -12.1754
 -8.79211
 -8.33172
 -8.85527
 -8.70573
 -28.2264
 -28.598
 -7.53463
 -7.33214
 -7.37928
 -7.19255
 -13.9502
 -14.8287
 -14.249
 -14.6026
 -15.9133
 -15.743
 -7.92281
 -7.8408
 -8.20259
 -7.92772
 -25.4042
 -25.7537
 -25.1525
 -26.1663
 -27.3977
 -26.979
 -27.1699
 -28.007
 -11.6263
 -11.8283
 -11.6379
 -5.16085
 -5.40021
 -5.26985
 -8.34435
 -8.79364
 -8.31115
 -8.41933
 -19.0893
 -18.5306
 -19.5134
 -18.5756
 -9.75255
 -9.42137
 -9.39642
 -9.11476
 -9.34145
 -9.12397
 -9.49516
 -9.03443
 -16.8592
 -16.7439
 -17.0632
 -17.6853
 -1.97706
 -2.11234
 -1.9182
 -1.70358
 -18.4034
 -18.5744
 -19.0543
 -18.9132
 -18.9782
 -18.8901
 -19.3657
 -19.6582
 -7.32421
 -7.33152
 -6.89697
 -7.22354
 -23.4515
 -23.7209
 -23.8205
 -23.2651
 -1.49463
 -1.18938
 -1.24601
 -1.02833
 -25.587
 -24.3361
 -24.4138
 -24.1985
 -21.1179
 -20.6815
 -9.19009
 -9.43689
 -9.34029
 -9.63301
 -6.98351
 -6.68118
 -6.85246
 -7.09987
 -23.0535
 -23.561
 -23.4028
 -23.2293
 -9.89911
 -10.034
 -10.0077
 -9.74816
 -26.6424
 -26.2156
 -26.5404
 -8.79794
 -8.49106
 -8.3336
 -6.58975
 -6.9394
 -7.02346
 -25.5118
 -25.751
 -25.5709
 -25.3517
 -8.90216
 -8.70858
 -8.70769
 -8.69921
 -23.3504
 -23.4319
 -6.5546
 -6.76538
 -6.52095
 -6.60255
 -13.2006
 -13.6638
 -13.694
 -13.2209
 -9.43834
 -9.22083
 -10.8385
 -11.6494
 -11.5344
 -11.0602
 -9.27436
 -9.21167
 -9.25023
 -8.88144
 -27.1507
 -27.8862
 -26.9639
 -27.2989
 -6.9964
 -6.86714
 -6.93437
 -21.1774
 -1.61198
 -1.5715
 -1.58447
 -1.47516
 -22.9199
 -22.9847
 -23.3916
 -22.2848
 -9.37409
 -9.41234
 -10.0311
 -9.88246
 -18.2361
 -17.988
 -18.0468
 -18.1412
 -9.19068
 -8.94159
 -8.78306
 -9.11613
 -16.6805
 -5.27986
 -5.21315
 -5.21063
 -5.31305
 -16.607
 -16.6437
 -16.4542
 -16.0221
 -20.7125
 -21.0565
 -21.3004
 -20.2643
 -20.7738
 -20.1484
 -20.9514
 -23.1586
 -23.7171
 -23.4706
 -23.4094
 -7.4541
 -7.58329
 -7.95944
 -7.77256
 -22.3483
 -22.3377
 -22.276
 -22.8523
 -6.23338
 -6.18156
 -6.25666
 -5.91632
 -21.6909
 -22.0529
 -22.3084
 -22.3224
 -12.4339
 -12.1739
 -12.1099
 -11.9709
 -18.0512
 -18.4331
 -18.6141
 -18.7613
 -14.0778
 -13.8414
 -13.6768
 -13.5287
 -25.5774
 -24.6558
 -13.8086
 -13.3683
 -13.412
 -13.7738
 -5.37599
 -5.25201
 -5.62236
 -5.24828
 -6.25576
 -6.12592
 -6.61139
 -6.19618
 -14.0625
 -14.4969
 -14.5411
 -14.5971
 -18.8507
 -18.8522
 -18.6904
 -19.4472
 -19.8371
 -19.3221
 -19.6285
 -20.0321
 -24.644
 -23.8805
 -24.1476
 -23.6961
 -19.9536
 -20.7422
 -20.3189
 -19.9471
 -6.25724
 -6.28137
 -6.48021
 -6.07682
 -7.7527
 -7.73404
 -7.65537
 -8.18733
 -28.479
 -28.1111
 -27.9858
 -28.0043
 -14.9419
 -15.1554
 -15.0612
 -15.8109
 -8.15464
 -8.58549
 -8.16254
 -8.48754
 -2.59941
 -2.54516
 -2.88634
 -2.46109
 -23.0495
 -23.3689
 -22.7228
 -24.0445
 -8.49826
 -8.53742
 -8.64033
 -8.88447
 -11.1118
 -11.5134
 -10.8602
 -11.2056
 -6.03829
 -5.92778
 -6.00374
 -6.21767
 -16.3275
 -16.0574
 -16.3101
 -16.3667
 -24.7229
 -24.7608
 -24.5475
 -24.7275
 -15.2729
 -14.5921
 -14.8057
 -14.6663
 -11.7211
 -11.7786
 -12.2518
 -12.0219
 -5.65971
 -5.80903
 -5.94838
 -5.48571
 -24.5382
 -17.3546
 -17.784
 -17.1351
 -17.731
 -11.0467
 -10.8471
 -10.493
 -10.6241
 -18.7587
 -19.1319
 -19.0469
 -19.5009
 -8.22035
 -7.99426
 -8.08539
 -8.38591
 -16.2758
 -16.6052
 -15.9687
 -5.35734
 -5.75099
 -5.44392
 -5.3936
 -21.3182
 -20.1672
 -20.9035
 -20.5414
 -7.04172
 -6.98869
 -7.20873
 -7.04538
 -29.8921
 -29.7091
 -29.8276
 -30.1794
 -8.59111
 -8.65582
 -8.69656
 -8.6522
 -3.36258
 -3.99338
 -3.93908
 -3.71582
 -5.22046
 -5.18576
 -5.46003
 -5.40795
 -28.3711
 -28.1259
 -27.8862
 -27.7901
 -25.9521
 -25.9049
 -26.3276
 -26.3927
 -12.6788
 -13.1147
 -12.9454
 -13.1341
 -8.95712
 -8.87988
 -9.11991
 -14.0466
 -14.0142
 -13.3402
 -13.5978
 -17.2576
 -16.9826
 -17.621
 -17.6742
 -13.9559
 -14.8978
 -14.5832
 -14.4877
 -13.2263
 -13.3709
 -14.1245
 -13.7389
 -27.6788
 -27.178
 -27.2554
 -27.0282
 -7.68626
 -7.55746
 -8.024
 -7.69296
 -5.25428
 -4.73067
 -4.79352
 -18.678
 -18.2561
 -18.4962
 -18.2644
 -22.7995
 -23.4058
 -22.9317
 -22.7876
 -8.44232
 -8.33146
 -8.51655
 -7.79683
 -7.85901
 -8.04064
 -7.56368
 -23.8289
 -23.4491
 -24.0215
 -23.0608
 -12.1739
 -12.0864
 -12.4975
 -12.1551
 -8.05889
 -7.67326
 -7.98953
 -8.0131
 -10.9526
 -10.7169
 -10.7617
 -11.048
 -21.4564
 -21.3761
 -20.8575
 -21.4064
 -8.34007
 -8.82914
 -8.10338
 -8.70965
 -11.4029
 -10.7701
 -10.9583
 -11.1627
 -9.45711
 -9.84758
 -9.54299
 -25.942
 -25.8161
 -25.332
 -25.525
 -12.3904
 -12.4675
 -12.1374
 -12.6325
 -28.5241
 -28.3255
 -29.2477
 -13.6023
 -13.8516
 -13.7687
 -13.5991
 -5.73004
 -5.98497
 -5.56807
 -5.69129
 -15.334
 -15.4655
 -15.7916
 -16.2581
 -13.0614
 -13.6653
 -12.8924
 -8.58958
 -8.70673
 -9.01556
 -8.77592
 -6.89673
 -6.99837
 -6.81637
 -7.05987
 -8.38636
 -8.59531
 -8.82821
 -8.34199
 -3.19326
 -3.24565
 -3.55152
 -3.58856
 -10.3055
 -10.1921
 -10.0099
 -9.99011
 -9.46062
 -9.29782
 -9.84487
 -9.21296
 -24.0978
 -23.324
 -23.4661
 -24.4504
 -6.76597
 -7.20334
 -7.04647
 -6.95623
 -16.7655
 -16.4945
 -16.904
 -17.0738
 -26.3956
 -26.4825
 -26.0862
 -25.8156
 -26.5954
 -25.834
 -26.201
 -26.494
 -20.7524
 -21.2064
 -20.7151
 -21.0419
 -27.0391
 -27.7981
 -27.7356
 -26.5943
 -24.5467
 -24.6853
 -24.5929
 -28.5624
 -27.5841
 -27.9141
 -27.9019
 -5.98535
 -5.83017
 -5.96014
 -5.74081
 -10.9827
 -10.5713
 -10.4205
 -10.6388
 -9.65182
 -10.1193
 -9.76828
 -10.1584
 -10.137
 -9.90255
 -9.89382
 -9.77833
 -25.2024
 -24.6402
 -25.0402
 -25.2238
 -10.7974
 -10.8201
 -10.4657
 -10.3011
 -8.50662
 -8.09002
 -8.05908
 -8.383
 -17.661
 -17.4942
 -18.1089
 -17.3403
 -8.90922
 -9.28281
 -8.90848
 -9.15149
 -18.9964
 -18.5387
 -18.4373
 -13.9093
 -14.4371
 -14.4812
 -23.4037
 -22.7432
 -22.9567
 -23.0572
 -10.9793
 -11.1404
 -10.8339
 -10.8287
 -16.4256
 -15.9484
 -16.0904
 -16.4977
 -9.97568
 -9.48712
 -9.7168
 -10.0877
 -28.6403
 -28.3865
 -26.7094
 -26.4201
 -26.1366
 -26.8336
 -5.69685
 -5.59697
 -5.59694
 -5.42914
 -16.568
 -17.0335
 -17.1019
 -17.5016
 -8.59182
 -9.041
 -8.70292
 -8.43172
 -0.6541
 -0.250293
 -0.622902
 -0.501546
 -8.64086
 -8.49053
 -8.26793
 -8.49174
 -18.6759
 -18.1387
 -18.6037
 -6.72788
 -6.68647
 -7.0994
 -7.04684
 -26.047
 -25.4968
 -26.2605
 -25.7484
 -8.82211
 -8.96026
 -8.83362
 -8.97677
 -16.1959
 -16.6988
 -16.4338
 -16.2511
 -5.93599
 -6.07638
 -5.73616
 -5.97163
 -2.35115
 -2.32575
 -2.46434
 -2.56363
 -8.08195
 -8.35218
 -8.06396
 -7.98405
 -10.4724
 -10.3124
 -10.6176
 -14.45
 -13.7306
 -14.5399
 -14.2263
 -7.4361
 -7.46589
 -7.10699
 -19.1616
 -18.9573
 -19.2992
 -19.6901
 -20.9043
 -21.8525
 -20.9148
 -21.7402
 -18.183
 -17.6
 -18.0821
 -18.1529
 -25.617
 -24.2882
 -24.8321
 -24.9448
 -20.239
 -19.7266
 -19.9764
 -9.38496
 -9.64545
 -9.60142
 -9.78716
 -19.4867
 -18.9569
 -17.3047
 -16.7328
 -16.5444
 -17.0719
 -18.5987
 -18.3484
 -18.4084
 -18.7882
 -8.37349
 -8.56504
 -8.48112
 -8.13866
 -8.49056
 -8.74756
 -8.4726
 -8.73089
 -0.677034
 -0.849423
 -0.901379
 -0.78494
 -8.39213
 -8.66863
 -8.39206
 -9.5664
 -9.40455
 -9.32718
 -9.44808
 -12.9414
 -12.9311
 -12.6745
 -12.5767
 -9.58449
 -9.98113
 -10.0005
 -9.73063
 -5.77245
 -5.96216
 -5.73867
 -5.7281
 -21.0209
 -20.3
 -20.9299
 -20.4014
 -12.5685
 -12.9022
 -12.5283
 -12.2331
 -25.3582
 -25.4118
 -25.1434
 -25.4481
 -14.8188
 -14.33
 -14.7597
 -14.4689
 -24.8255
 -25.0414
 -24.9093
 -2.67169
 -2.94116
 -2.82509
 -2.86935
 -18.2213
 -19.0998
 -18.3803
 -18.4537
 -11.5668
 -11.1925
 -11.6437
 -11.4364
 -7.71469
 -7.45546
 -9.86758
 -9.93891
 -10.1459
 -10.0514
 -11.3138
 -10.8222
 -10.9484
 -23.7799
 -23.98
 -23.4902
 -23.9018
 -24.0031
 -23.6518
 -23.1444
 -23.4666
 -7.61322
 -7.51835
 -7.72017
 -7.55536
 -12.1404
 -11.9726
 -8.878
 -9.25996
 -9.01385
 -8.70579
 -19.7314
 -19.3484
 -20.2481
 -20.2456
 -5.6847
 -5.68218
 -5.63631
 -5.77716
 -8.10092
 -8.2427
 -7.95392
 -7.93609
 -8.77122
 -9.15541
 -9.33171
 -9.14346
 -13.7206
 -13.628
 -13.7209
 -14.33
 -19.163
 -19.0354
 -18.6912
 -18.7269
 -20.2909
 -19.6921
 -19.2809
 -19.9038
 -1.60547
 -1.55656
 -1.46861
 -1.37572
 -6.84724
 -7.16235
 -7.26454
 -14.5576
 -13.7292
 -14.2105
 -15.1521
 -15.6383
 -15.1315
 -15.6803
 -24.8646
 -25.2562
 -24.9581
 -25.4735
 -12.2309
 -8.66875
 -8.65315
 -8.27084
 -8.36093
 -16.8065
 -16.4641
 -15.993
 -16.257
 -20.729
 -20.1023
 -20.2129
 -20.8723
 -22.8455
 -23.0118
 -7.66916
 -7.55933
 -7.38998
 -7.33585
 -13.1424
 -13.5121
 -13.3493
 -13.5991
 -6.7207
 -6.64657
 -6.73175
 -6.82984
 -15.3695
 -10.4806
 -10.2017
 -10.8351
 -10.9957
 -9.60629
 -9.87339
 -10.0248
 -9.79254
 -25.1283
 -24.366
 -26.1935
 -26.6667
 -26.7551
 -26.4005
 -4.08541
 -3.8778
 -3.9871
 -4.10084
 -20.0499
 -20.1905
 -19.484
 -20.4757
 -15.3733
 -14.6803
 -14.8792
 -15.4287
 -2.05507
 -2.13529
 -2.14054
 -1.9577
 -12.8891
 -12.92
 -13.1383
 -12.6594
 -12.5667
 -12.0567
 -11.7956
 -11.8608
 -7.59571
 -7.24442
 -7.66282
 -7.52589
 -28.1394
 -28.5346
 -28.5866
 -28.5501
 -12.0446
 -11.5962
 -11.6654
 -9.2375
 -9.63005
 -9.6156
 -9.28019
 -26.8828
 -27.7677
 -27.1583
 -27.2928
 -9.21752
 -9.01353
 -8.69194
 -9.37424
 -11.4354
 -11.742
 -21.6854
 -21.8121
 -22.2856
 -21.2398
 -14.4751
 -14.5047
 -15.1141
 -15.0353
 -25.9377
 -25.5129
 -25.9736
 -25.839
 -11.8597
 -12.5462
 -8.29896
 -8.44839
 -8.53048
 -8.48991
 -9.14719
 -9.19385
 -9.44117
 -9.58015
 -22.4774
 -22.4535
 -21.7135
 -21.9478
 -20.6278
 -20.4244
 -20.7938
 -20.8776
 -19.7219
 -18.9655
 -19.6773
 -19.3869
 -9.36615
 -9.84712
 -9.6424
 -9.37766
 -4.06423
 -3.88854
 -3.99655
 -4.08084
 -26.9132
 -27.4337
 -26.8844
 -27.1207
 -7.28558
 -7.33059
 -7.37937
 -7.58653
 -14.0888
 -14.3947
 -14.5943
 -14.113
 -10.1303
 -10.7834
 -10.332
 -10.5625
 -14.0131
 -13.4462
 -13.8949
 -16.3002
 -16.9498
 -16.2966
 -16.9834
 -12.8097
 -13.1786
 -12.8969
 -12.5683
 -18.4418
 -18.6612
 -19.1765
 -18.3146
 -18.3835
 -18.2187
 -18.4688
 -17.5585
 -2.04434
 -2.45349
 -2.07395
 -5.99729
 -6.34255
 -6.47171
 -6.33971
 -13.966
 -13.6159
 -13.762
 -13.7323
 -21.8657
 -22.4172
 -22.0613
 -22.5465
 -8.56184
 -8.13526
 -8.5548
 -8.93154
 -9.12735
 -9.14685
 -15.5672
 -15.3423
 -15.7258
 -15.719
 -13.7859
 -14.1827
 -14.3964
 -14.4478
 -30.3614
 -30.3192
 -30.1038
 -30.4611
 -5.21637
 -5.31102
 -5.11491
 -4.72811
 -19.283
 -19.6191
 -10.5962
 -11.0609
 -11.0789
 -10.6744
 -17.9255
 -18.2985
 -18.2433
 -18.39
 -14.9048
 -15.0519
 -15.4087
 -15.1335
 -11.1456
 -11.1322
 -11.5319
 -10.8373
 -17.251
 -17.7615
 -17.5403
 -17.6889
 -7.63627
 -7.76694
 -7.74943
 -7.99564
 -6.61317
 -6.39119
 -6.65401
 -6.52291
 -21.1315
 -21.3668
 -21.9718
 -22.7388
 -13.8274
 -14.1205
 -14.4899
 -3.50744
 -3.3983
 -3.61006
 -22.6171
 -23.1002
 -23.1655
 -23.3137
 -23.867
 -23.6841
 -23.3229
 -23.1843
 -12.9904
 -13.1234
 -13.2975
 -13.449
 -24.9454
 -25.3244
 -25.2807
 -25.2418
 -25.7852
 -26.3717
 -25.9202
 -26.5554
 -11.1919
 -11.4009
 -11.7294
 -11.3095
 -20.3053
 -20.5887
 -20.8637
 -20.8005
 -29.9924
 -30.0257
 -29.7818
 -30.1974
 -20.0801
 -20.0165
 -19.7131
 -20.5131
 -14.2538
 -13.6495
 -13.8975
 -13.4173
 -22.2858
 -22.4507
 -22.025
 -21.8495
 -18.2217
 -18.0513
 -18.5273
 -15.8497
 -16.3166
 -4.4936
 -4.57636
 -4.42476
 -4.33406
 -15.5495
 -16.0965
 -15.9034
 -15.8865
 -4.3622
 -4.44274
 -4.49082
 -4.51762
 -4.5653
 -4.4778
 -4.83839
 -4.86837
 -14.6455
 -14.9298
 -14.9411
 -14.5172
 -10.5306
 -10.5396
 -10.1864
 -10.6699
 -16.4903
 -17.0938
 -16.916
 -16.8695
 -13.4173
 -13.0544
 -6.13248
 -5.97217
 -6.05042
 -6.30256
 -26.8207
 -27.0903
 -27.3327
 -27.0779
 -10.7724
 -10.5258
 -11.1744
 -10.8701
 -22.2248
 -21.9607
 -21.5326
 -21.9795
 -6.20297
 -5.96194
 -6.19661
 -6.05011
 -24.0783
 -24.9033
 -24.7005
 -24.7725
 -15.676
 -15.0251
 -15.5675
 -15.5301
 -8.76573
 -8.3701
 -8.09207
 -8.30848
 -29.8027
 -29.6746
 -29.6763
 -29.4569
 -9.60835
 -10.0268
 -9.68516
 -9.61566
 -11.246
 -10.6995
 -11.1117
 -10.7734
 -27.4106
 -27.5205
 -27.0318
 -27.6798
 -12.96
 -12.3134
 -12.5543
 -12.5499
 -22.6415
 -23.0483
 -22.7072
 -22.5851
 -21.9222
 -21.4487
 -21.6242
 -11.5674
 -10.8996
 -11.1363
 -11.1227
 -22.0086
 -22.4757
 -22.1056
 -22.3351
 -7.3904
 -7.7434
 -7.68762
 -7.39723
 -23.7828
 -24.1537
 -24.1199
 -23.91
 -23.4382
 -23.206
 -23.5066
 -23.3167
 -7.94435
 -7.85651
 -8.45971
 -8.13707
 -8.25691
 -8.15417
 -8.48493
 -8.00467
 0.298605
 0.238556
 0.420315
 0.365327
 -19.6983
 -19.0533
 -19.1078
 -4.69956
 -5.08774
 -5.1389
 -4.91712
 -26.3434
 -25.7551
 -25.9133
 -25.9249
 -7.79806
 -22.54
 -21.8419
 -21.9094
 -22.3764
 -22.6274
 -21.9264
 -22.1264
 -1.55495
 -1.30478
 -1.39619
 -1.51371
 -1.1147
 -1.17522
 -1.09631
 -1.02247
 -25.6661
 -25.0509
 -25.5067
 -25.9511
 -8.27733
 -8.12829
 -8.44199
 -8.05897
 -17.9785
 -17.7612
 -18.3392
 -9.96258
 -9.62799
 -9.93773
 -9.44008
 -11.5663
 -11.5848
 -11.474
 -22.2823
 -22.1251
 -22.9183
 -15.4045
 -15.824
 -15.8304
 -15.4307
 -10.1447
 -9.72166
 -9.73512
 -10.0389
 -7.95781
 -8.09216
 -7.90579
 -8.05328
 -18.0781
 -18.4851
 -18.5347
 -6.0039
 -6.18281
 -5.69757
 -5.68105
 -8.16662
 -8.76639
 -8.29588
 -11.1771
 -11.8832
 -11.6896
 -11.4838
 -7.55644
 -7.89055
 -7.89816
 -7.7721
 -8.06235
 -8.48181
 -8.57026
 -8.45209
 -22.7363
 -22.2431
 -22.3547
 -22.2324
 -12.1441
 -11.7623
 -11.981
 -12.2731
 -9.29556
 -9.29628
 -14.1716
 -13.8627
 -14.0496
 -13.5793
 -24.4999
 -26.5441
 -26.7092
 -26.6227
 -26.5401
 0.592066
 0.64789
 0.664801
 0.590906
 -21.0507
 -21.7091
 -21.25
 -28.5034
 -28.4782
 -28.1018
 -28.429
 -19.7362
 -18.9483
 -19.2285
 -19.0052
 -7.82741
 -7.9509
 -8.13856
 -7.82321
 -11.7287
 -11.3995
 -11.3459
 -11.2114
 -28.9216
 -28.9856
 -28.8836
 -28.7347
 -19.697
 -19.2304
 -18.8986
 -19.3414
 -5.79719
 -5.52084
 -5.49827
 -5.95244
 -11.1031
 -11.1331
 -11.2444
 -10.5678
 -10.5825
 -10.7858
 -10.9828
 -10.6228
 0.607221
 0.638522
 0.640016
 0.59206
 -7.36567
 -7.291
 -7.20406
 -7.4809
 -19.8203
 -20.5958
 -19.8829
 -20.2072
 -15.757
 -15.7094
 -16.2522
 -15.5574
 -12.2565
 -12.5004
 -12.9123
 -12.4885
 -18.6813
 -19.3227
 -19.0975
 -19.1134
 -15.8273
 -15.9123
 -16.3448
 -15.8268
 -18.8989
 -18.8152
 -18.4566
 -19.4978
 -29.8688
 -29.1397
 -29.3071
 -30.0081
 -20.8914
 -20.5081
 -20.3856
 -19.5904
 -18.4072
 -17.9641
 -17.7053
 -18.3437
 -17.6872
 -14.1262
 -14.0868
 -13.7705
 -14.6049
 -26.5271
 -26.3556
 -26.1938
 -26.1713
 -12.047
 -11.7467
 -12.1702
 -12.0084
 -15.4011
 -15.6432
 -15.9159
 -15.0679
 -13.3579
 -12.8419
 -13.2156
 -13.6304
 -10.18
 -9.60629
 -10.0556
 -9.69378
 -2.88408
 -3.01731
 -3.38114
 -2.90435
 -30.3632
 -29.6742
 -17.2347
 -16.8809
 -16.8626
 -0.241969
 -0.256415
 -0.250969
 -8.74682
 -8.46889
 -8.64324
 -8.33948
 -4.52704
 -4.60552
 -4.16788
 -4.12835
 -7.06407
 -6.89021
 -7.13943
 -6.66421
 -26.4653
 -25.5484
 -26.0331
 -26.0051
 -14.2332
 -13.6752
 -13.8484
 -13.6088
 -17.8959
 -18.584
 -18.4754
 -19.0222
 -15.691
 -15.7075
 -15.2028
 -15.0191
 -19.1783
 -19.3238
 -18.8983
 -18.9878
 -12.5655
 -12.5408
 -22.4033
 -20.9977
 -22.3867
 -21.198
 -19.2266
 -18.8338
 -18.5543
 -19.55
 -8.61894
 -8.21216
 -8.67784
 -8.28245
 -8.72869
 -8.85035
 -8.83834
 -8.87225
 -15.1214
 -15.143
 -14.9645
 -15.3543
 -14.418
 -14.6506
 -15.001
 -15.346
 -7.00895
 -6.57349
 -6.47172
 -7.07728
 -18.5909
 -18.2526
 -18.0676
 -17.9503
 -29.1444
 -28.8369
 -29.0095
 -28.9429
 -23.1549
 -22.8026
 -22.9162
 -22.6624
 -29.8741
 -30.1047
 -29.7486
 -30.1747
 -24.1389
 -24.6992
 -24.5191
 -24.5791
 -13.897
 -14.5111
 -13.9322
 -14.0714
 -18.2321
 -17.7741
 -12.8201
 -13.401
 -12.685
 -13.0368
 -8.5521
 -8.86475
 -8.85069
 -8.9754
 -20.6492
 -21.2985
 -21.3476
 -20.7306
 -12.6265
 -12.4722
 -12.6456
 -12.1381
 -11.2419
 -10.9067
 -10.7959
 -10.9844
 -7.91755
 -7.94259
 -8.11897
 -8.37871
 -9.27577
 -9.1557
 -9.02012
 -9.58642
 -8.20767
 -8.40091
 -8.51594
 -8.32049
 -3.23325
 -3.30032
 -3.11764
 -3.15737
 -20.0419
 -20.2533
 -19.5591
 -20.0864
 -17.5355
 -17.7176
 -3.76787
 -3.93364
 -3.89077
 -3.56762
 -9.8542
 -9.96817
 -16.9014
 -16.5049
 -16.971
 -23.1089
 -23.1388
 -7.32005
 -7.27199
 -7.12684
 -7.48878
 -3.55589
 -3.74916
 -3.72592
 -3.80322
 -6.68255
 -6.85297
 -7.06206
 -7.14707
 -9.78617
 -9.98754
 -10.1103
 -10.2139
 -16.0143
 -15.3499
 -15.3378
 -15.4037
 -17.6724
 -17.4305
 -17.3678
 -17.2443
 -9.58966
 -10.0056
 -10.0105
 -9.89798
 -15.4336
 -15.3474
 -15.5884
 -14.8244
 -13.6
 -13.2523
 -13.1559
 -13.4039
 -14.4
 -14.7758
 -15.0406
 -14.7624
 -14.6953
 -14.0536
 -14.7848
 -12.7827
 -12.4528
 -13.1821
 -12.8707
 -10.5255
 -10.698
 -10.3001
 -10.409
 -8.24165
 -8.53437
 -8.07024
 -8.50221
 -26.1721
 -26.0177
 -26.3743
 -26.7101
 -12.1101
 -12.0884
 -12.515
 -12.5265
 -6.54443
 -6.51593
 -6.11757
 -6.44095
 -5.83396
 -5.81252
 -5.76508
 -5.64128
 -6.88633
 -6.69995
 -6.71123
 -6.83495
 -8.06032
 -8.02764
 -8.443
 -8.51339
 -8.24142
 -8.01569
 -7.92105
 -8.0669
 -25.6056
 -25.9723
 -25.8881
 -25.9604
 -11.4226
 -11.4117
 -11.3175
 -11.7517
 -19.5263
 -19.7915
 -19.3767
 -19.202
 -8.31349
 -8.74734
 -8.19587
 -8.55775
 -26.7585
 -27.04
 -26.9813
 -27.6625
 -27.7991
 -27.7532
 -28.1458
 -18.887
 -17.7387
 -18.1417
 -18.1775
 -8.94483
 -9.10077
 -8.71005
 -9.00461
 -29.022
 -28.4181
 -28.5787
 -10.969
 -10.6225
 -10.828
 -10.288
 -24.074
 -24.1788
 -22.9359
 -23.1491
 -23.7417
 -23.0228
 -10.2516
 -9.97571
 -10.1294
 -6.09801
 -6.22227
 -5.84287
 -5.98324
 -8.31913
 -8.06363
 -8.40946
 -8.46005
 -13.5668
 -14.1136
 -13.4663
 -27.0683
 -26.0286
 -26.1347
 -19.0414
 -18.4702
 -18.1951
 -18.5434
 -27.2338
 -27.2301
 -26.3912
 -27.8408
 -11.4132
 -11.8821
 -12.1078
 -11.7746
 -23.8911
 -24.0771
 -24.415
 -23.4239
 -13.8092
 -13.9241
 -13.5643
 -13.3787
 -9.26239
 -8.92334
 -9.1159
 -28.641
 -28.1233
 -28.3834
 -29.1562
 -17.5723
 -15.5751
 -16.2029
 -16.0696
 -15.7346
 -16.248
 -16.2661
 -15.8681
 -8.99715
 -8.80564
 -8.78763
 -8.77011
 -8.75858
 -9.20867
 -11.7783
 -11.3117
 -11.2505
 -11.1261
 -11.3296
 -11.8509
 -11.4313
 -11.7305
 -18.6119
 -29.2056
 -28.4748
 -28.2673
 -28.7595
 -2.13548
 -1.84995
 -2.05369
 -2.03262
 -9.98501
 -9.69662
 -9.03086
 -8.90196
 -9.05807
 -9.14719
 -8.73786
 -8.78623
 -8.31634
 -8.49435
 -19.4925
 -18.8138
 -18.9528
 -19.2818
 -20.0748
 -20.4646
 -19.7249
 -20.1387
 -9.44763
 -9.13468
 -17.9979
 -17.9554
 -18.7158
 -18.2225
 -18.5091
 -19.1093
 -18.5254
 -14.9884
 -14.6564
 -14.3834
 -14.1965
 -12.0925
 -11.6653
 -12.0202
 -11.6636
 -19.6944
 -20.4451
 -20.3644
 -19.8335
 -21.7581
 -22.0712
 -22.3845
 -21.9003
 -20.5477
 -21.2199
 -20.6704
 -20.1093
 -20.367
 -20.1543
 -19.6147
 -11.6516
 -11.7898
 -11.8094
 -11.4757
 -4.88405
 -4.86102
 -5.03153
 -5.05581
 -10.4774
 -10.4032
 -10.204
 -10.3075
 -21.6365
 -21.0525
 -20.6597
 -21.2503
 -17.8934
 -17.7691
 -17.6771
 -18.2822
 -10.5667
 -10.8199
 -10.9353
 -11.0177
 -17.9223
 -17.3151
 -17.6608
 -17.8775
 -14.7077
 -14.8945
 -14.0783
 -14.8439
 -14.8338
 -15.3526
 -15.1681
 -15.2858
 -17.6474
 -17.931
 -17.9591
 -26.3799
 -26.5005
 -26.2351
 -26.3602
 -10.3222
 -10.7262
 -10.5238
 -10.6107
 -12.9979
 -13.5092
 -13.4152
 -13.2703
 -5.15176
 -4.94302
 -4.9667
 -5.2594
 -7.95886
 -8.24218
 -8.18944
 -8.01245
 -8.48472
 -7.89038
 -8.1433
 -7.81555
 -7.77428
 -7.96322
 -7.91857
 -8.04745
 -14.5275
 -14.2107
 -14.3535
 -6.57058
 -6.51355
 -6.65139
 -6.70189
 -7.31878
 -7.45555
 -7.73264
 -7.36018
 -28.4904
 -28.0664
 -27.9808
 -28.2434
 -14.8154
 -14.4925
 -14.3443
 -14.1385
 -22.0548
 -22.1524
 -21.9061
 -21.4498
 -15.8494
 -16.0967
 -15.7232
 -15.3916
 -17.4775
 -17.9504
 -17.5355
 -17.6908
 -8.91815
 -8.59182
 -8.77328
 -8.31894
 -13.1929
 -14.1099
 -13.4254
 -13.4837
 -21.8919
 -22.2477
 -21.6949
 -21.8782
 -16.2466
 -16.0512
 -16.7346
 -16.5513
 -7.55626
 -7.41759
 -7.825
 -7.91703
 -26.1658
 -26.3819
 -26.2988
 -26.4464
 -10.7172
 -10.3378
 -7.29446
 -13.243
 -13.4755
 -13.7636
 -13.1129
 -11.9983
 -12.3709
 -11.8803
 -11.8195
 -3.92143
 -3.86811
 -4.18954
 -10.0635
 -9.70601
 -9.60904
 -9.39283
 -15.9459
 -16.8543
 -16.498
 -16.9416
 -13.6913
 -14.1194
 -13.8585
 -13.7119
 -24.8503
 -25.1091
 -25.1585
 -24.9983
 -8.11033
 -8.6661
 -8.27956
 -8.72328
 -8.70543
 -8.59558
 -9.09199
 -4.44549
 -4.02939
 -4.2268
 -4.44755
 -7.95615
 -8.35942
 -8.09561
 -15.5414
 -16.6437
 -15.7086
 -7.76042
 -7.73166
 -7.45094
 -7.58559
 -12.0545
 -12.4873
 -12.6106
 -12.5336
 0.576648
 0.580891
 0.578302
 0.450516
 -11.5453
 -11.366
 -11.4309
 -6.52115
 -6.47336
 -6.52237
 -6.5324
 -11.5699
 -11.353
 -10.9611
 -11.3339
 -7.57492
 -7.88651
 -7.86989
 -7.99731
 -18.1928
 -18.4218
 -18.0573
 -18.5805
 -19.83
 -19.3947
 -19.8446
 -20.0511
 -27.8475
 -27.8234
 -28.0561
 -27.534
 -15.1419
 -14.496
 -15.0509
 -15.2346
 -7.36571
 -7.04971
 -7.33371
 -7.15479
 -9.20836
 -9.0405
 -5.35009
 -5.34255
 -5.45953
 -5.44587
 -12.5624
 -12.7448
 -10.0848
 -10.7
 -10.581
 -8.53245
 -8.7406
 -8.92236
 -8.69255
 -26.0127
 -26.1462
 -25.3642
 -25.4882
 -25.3958
 -25.1905
 -24.9251
 -25.27
 -8.91054
 -9.08348
 -8.87225
 -8.51543
 -6.59538
 -6.67434
 -15.8935
 -16.018
 -15.8617
 -16.4039
 -8.61474
 -8.44053
 -8.76449
 -8.7033
 -10.7226
 -10.2178
 -11.1154
 -29.9958
 -30.1658
 -29.7848
 -13.6199
 -14.2446
 -13.9598
 -14.0198
 -23.4909
 -24.2532
 -23.3723
 -23.0824
 -14.4068
 -14.8961
 -14.9937
 -14.3831
 -19.5918
 -20.1034
 -20.2113
 -19.2802
 -7.26347
 -7.54917
 -7.30718
 -7.18248
 -8.40549
 -8.86423
 -8.2672
 -8.73375
 -14.6191
 -14.109
 -15.0194
 -14.3963
 -10.2979
 -10.7639
 -10.8963
 -10.2477
 -7.19475
 -7.32769
 -7.45392
 -7.78942
 -12.1256
 -12.3546
 -12.6367
 -12.8672
 -17.2393
 -17.3629
 -16.9918
 -14.2498
 -14.7437
 -14.4065
 -14.7149
 -0.62345
 -0.88629
 -0.996137
 -0.830781
 -6.61067
 -6.61012
 -6.65926
 -6.63163
 -10.0519
 -9.98954
 -10.0357
 -10.4227
 -3.56597
 -3.80722
 -3.40612
 -3.67245
 -23.4026
 -23.2803
 -22.8477
 -28.3151
 -27.9999
 -27.5888
 -27.958
 -20.5257
 -21.5943
 -21.1406
 -21.1441
 -14.0872
 -17.207
 -17.8386
 -18.104
 -17.6184
 -13.2156
 -13.5717
 -12.9806
 -13.0215
 -6.78622
 -6.42052
 -6.63202
 -8.6796
 -8.79814
 -8.89717
 -8.38131
 -0.754885
 -0.49527
 -0.722095
 -0.383851
 -4.16494
 -4.13665
 -4.2844
 -4.14171
 -9.80155
 -9.79173
 -10.0549
 -10.309
 -28.8561
 -28.1429
 -28.3562
 -28.26
 -1.39495
 -1.38148
 -1.64224
 -1.54272
 -18.8251
 -19.2955
 -18.4173
 -18.9672
 -14.3231
 -14.3494
 -14.8521
 -14.4025
 -8.97908
 -8.35879
 -8.34387
 -12.5411
 -12.0465
 -11.9359
 -11.9487
 -28.2798
 -28.3092
 -28.5002
 -7.04577
 -7.59888
 -7.68772
 -11.7591
 -12.0055
 -12.4909
 -12.3948
 -9.80678
 -9.70549
 -9.61426
 -9.49848
 -10.259
 -10.1821
 -10.6442
 -10.7472
 -6.45327
 -6.25413
 -6.2446
 -6.60689
 -12.5239
 -12.8393
 -12.3617
 -12.9157
 -26.239
 -25.214
 -25.2829
 -24.7914
 -24.7928
 -24.5217
 -24.3521
 -25.0722
 -5.93385
 -5.94232
 -6.03197
 -5.90474
 -22.8618
 -23.0219
 -22.9294
 -22.3121
 -25.6138
 -26.3356
 -26.0729
 -25.3563
 -22.5416
 -22.5666
 -21.8292
 -21.9335
 -17.1481
 -16.9546
 -17.4229
 -17.1691
 -13.4765
 -13.1182
 -13.6745
 -9.81361
 -9.21502
 -9.4214
 -9.50957
 -19.8991
 -19.4957
 -19.0373
 -19.767
 -20.7952
 -20.931
 -21.3082
 -21.1045
 -30.4305
 -30.424
 -29.8295
 -30.1745
 -4.05703
 -4.25918
 -4.19394
 -4.23712
 -5.43919
 -5.31483
 -5.37528
 -5.56387
 -6.57771
 -6.5525
 -6.99273
 -6.53385
 -10.0786
 -9.55597
 -9.92285
 -9.91046
 -10.8229
 -10.8707
 -10.8439
 -26.0055
 -26.4831
 -27.0793
 -26.7274
 -21.4854
 -21.2685
 -20.9435
 -20.8226
 -12.7583
 -12.4273
 -12.299
 -12.5831
 -25.119
 -25.5659
 -15.7273
 -15.7839
 -15.7763
 -15.2599
 -24.7634
 -25.0708
 -25.6667
 -25.0492
 -14.8319
 -15.5038
 -14.6838
 -15.6039
 -9.69952
 -9.9939
 -9.41159
 -9.6755
 -5.41098
 -5.16377
 -5.37317
 -5.61916
 -0.497721
 -0.724682
 -0.379959
 -0.612999
 -23.7052
 -23.3772
 -23.2922
 -23.8146
 -24.8623
 -24.8921
 -24.9936
 -25.3867
 -11.5342
 -10.9911
 -11.3626
 -11.1101
 -13.9237
 -13.6573
 -13.586
 -13.9726
 -8.25729
 -7.92509
 -8.49489
 -16.2324
 -15.8434
 -15.8816
 -15.6164
 -8.23743
 -8.15596
 -8.38974
 -8.4213
 -13.1655
 -12.6766
 -12.3173
 -12.6019
 -17.4978
 -17.1823
 -17.3944
 -17.5441
 -14.362
 -14.1933
 -14.0489
 -22.8213
 -22.1849
 -22.4474
 -22.4372
 -16.6266
 -17.3271
 -3.26786
 -3.66651
 -3.18326
 -3.39034
 -20.0828
 -19.7473
 -20.0295
 -9.04131
 -9.14745
 -9.17733
 -9.01303
 -16.6162
 -16.6038
 -16.3859
 -13.1823
 -12.7263
 -13.2656
 -12.9119
 -16.3002
 -15.6414
 -16.5832
 -16.0896
 -16.7409
 -17.3905
 -1.79607
 -1.80507
 -1.62575
 -1.78196
 -0.857801
 -0.598298
 -0.459021
 -0.720584
 -13.7013
 -13.1045
 -13.328
 -13.0825
 -16.105
 -15.7693
 -16.0577
 -15.6119
 -1.95076
 -1.90931
 -1.95003
 -2.17369
 -8.77277
 -8.36715
 -6.32732
 -6.40998
 -6.48786
 -6.76842
 -16.8593
 -16.7105
 -17.4545
 -17.0248
 -15.662
 -15.7587
 -16.2667
 -15.4219
 -16.4004
 -15.8256
 -15.7153
 -15.8012
 -9.83711
 -9.89098
 -10.2152
 -9.83103
 -7.50365
 -7.3523
 -7.07782
 -7.53036
 -4.61766
 -4.96043
 -4.91716
 -4.61748
 -7.63949
 -7.65058
 -7.66181
 -8.19883
 -19.976
 -19.6112
 -20.2363
 -19.9539
 -13.6906
 -12.5846
 -13.1508
 -3.74541
 -3.90828
 -4.14651
 -17.9967
 -18.8789
 -18.4283
 -18.4347
 -18.5553
 -17.611
 -18.0462
 -18.3178
 -11.5536
 -11.2616
 -11.1026
 -12.3035
 -12.4829
 -12.9068
 -12.4756
 -7.41569
 -7.22272
 -7.15395
 -7.16132
 -22.4919
 -22.2631
 -22.7415
 -22.5603
 -6.81976
 -6.75807
 -6.77274
 -6.88143
 -6.50276
 -6.32735
 -6.50333
 -27.8178
 -28.6231
 -28.9229
 -28.3913
 -22.1597
 -22.5945
 -9.2396
 -9.05872
 -9.43752
 -9.35074
 -13.289
 -13.8328
 -13.3376
 -12.2898
 -12.0874
 -12.1778
 -11.7423
 -7.19609
 -7.50119
 -7.31741
 -21.8785
 -22.3093
 -21.3986
 -21.6425
 -7.20278
 -7.68516
 -7.33835
 -7.25222
 -18.9758
 -18.4784
 -18.151
 -18.3126
 -6.93232
 -7.07403
 -7.60747
 -7.23299
 -7.50591
 -7.3665
 -8.97612
 -8.77454
 -8.87963
 -8.97937
 -4.25354
 -4.11807
 -3.83792
 -4.0945
 -20.316
 -20.9092
 -10.2155
 -10.466
 -10.534
 -10.4884
 -27.773
 -27.5595
 -27.6773
 -27.9769
 -9.88611
 -9.60743
 -10.0756
 -10.4217
 -21.3025
 -21.9486
 -22.1101
 -22.0674
 -25.0262
 -25.7297
 -24.6603
 -25.4731
 -18.8766
 -18.2194
 -26.4025
 -26.9478
 -26.7686
 -26.5147
 -7.23167
 -7.20016
 -7.13253
 -7.49323
 -26.5184
 -26.652
 -26.6877
 -26.4827
 -28.5809
 -29.1799
 -28.9416
 -28.5894
 -15.5531
 -15.5684
 -16.0919
 -15.9166
 -12.529
 -12.3195
 -12.8461
 -13.1035
 -24.1574
 -23.4086
 -23.923
 -24.1627
 -3.60906
 -3.91879
 -3.69724
 -3.54656
 -23.7608
 -24.5472
 -10.2005
 -10.495
 -10.5434
 -10.9546
 -23.7725
 -23.3694
 -22.8841
 -22.944
 -7.49872
 -7.82991
 -7.77217
 -7.74453
 -10.929
 -10.3047
 -10.5343
 -10.8454
 -8.02174
 -7.91511
 -8.38748
 -7.42778
 -7.25565
 -7.45364
 -7.15407
 -6.7234
 -6.97926
 -6.8935
 -7.02482
 -15.9786
 -15.5816
 -15.4187
 -23.0839
 -23.1279
 -23.6727
 -23.6851
 -14.5855
 -14.299
 -14.0473
 -7.49849
 -7.2555
 -7.45108
 -13.3093
 -13.9928
 -13.3872
 -13.8269
 -16.6177
 -16.5452
 -16.6194
 -17.2903
 -11.8919
 -12.3936
 -12.4688
 -12.2901
 -11.5005
 -11.3077
 -11.1521
 -10.7554
 -10.4921
 -10.4064
 -11.0559
 -11.3278
 -11.5788
 -10.8606
 -23.2061
 -23.088
 -23.2671
 -22.685
 -18.109
 -17.7258
 -18.0944
 -18.3082
 -12.4758
 -12.5432
 -12.2921
 -13.0035
 -7.12976
 -6.87479
 -7.09701
 -14.7242
 -14.3906
 -14.6778
 -14.8117
 -9.27668
 -8.78119
 -9.00554
 -8.76065
 -2.54674
 -2.6645
 -2.50527
 -2.42128
 -10.8429
 -10.6084
 -10.7644
 -10.7249
 -24.0415
 -23.8376
 -24.5242
 -24.2715
 -10.5263
 -10.9983
 -10.7185
 -10.4716
 -6.96952
 -6.95704
 -7.07179
 -7.18705
 -7.36353
 -7.15303
 -7.1627
 -12.244
 -12.3297
 -12.1672
 -17.0455
 -10.4264
 -9.75918
 -10.1497
 -10.1342
 -25.1763
 -25.0367
 -25.413
 -24.1639
 -24.2982
 -24.5504
 -10.2971
 -10.7078
 -10.3911
 -10.6396
 -28.2357
 -28.5252
 -28.708
 -28.7122
 -7.67126
 -15.6192
 -15.0901
 -15.4649
 -15.3111
 -7.76693
 -7.9108
 -7.85981
 -7.92185
 -24.7811
 -25.2366
 -24.4071
 -24.8243
 -17.5323
 -18.3531
 -18.0639
 -17.696
 -20.7151
 -21.116
 -20.3031
 -20.5023
 -6.74781
 -6.842
 -6.96035
 -6.74201
 -9.44242
 -9.78076
 -9.41533
 -9.45513
 -14.7893
 -14.4449
 -14.8361
 -14.297
 -9.82688
 -9.39339
 -9.97365
 -9.55998
 -17.1653
 -17.4271
 -17.9789
 -17.8415
 -7.86423
 -7.74748
 -8.1017
 -8.06287
 -9.18426
 -9.32425
 -9.67643
 -9.49054
 -15.6416
 -15.7038
 -15.6636
 -16.2583
 -24.869
 -25.494
 -25.1427
 -25.6215
 -6.46572
 -6.59568
 -6.82415
 -6.76401
 -4.38672
 -4.00227
 -4.40037
 -4.34978
 -25.389
 -26.0467
 -25.7167
 -25.7218
 -4.62563
 -4.34763
 -4.8377
 -4.68127
 -4.59566
 -4.90277
 -13.4025
 -13.6044
 -13.182
 -12.9314
 -9.35425
 -9.59935
 -9.58784
 -9.22812
 -30.2296
 -30.3097
 -30.3144
 -30.0549
 -24.7589
 -24.6812
 -25.4152
 -17.3736
 -17.3118
 -17.8337
 -17.1691
 -7.36648
 -7.45046
 -7.11932
 -7.56018
 -9.08808
 -9.01464
 -8.89764
 -8.77634
 -9.02833
 -9.26812
 -17.5621
 -18.5369
 -18.2143
 -17.7916
 -16.4709
 -16.4419
 -15.9619
 -16.5949
 -18.2523
 -18.1476
 -17.6308
 -18.2198
 -28.1614
 -28.1982
 -27.2802
 -28.4949
 -19.5486
 -19.5205
 -18.9417
 -10.9011
 -14.233
 -14.0661
 -14.1954
 -13.8266
 -14.5071
 -13.9193
 -14.1101
 -14.3694
 -22.4967
 -22.291
 -22.2058
 -21.8552
 -19.6381
 -19.2285
 -19.3086
 -19.8126
 -16.0895
 -15.6248
 -15.5543
 -10.1253
 -9.79056
 -10.18
 -9.61582
 -14.058
 -14.8603
 -14.406
 -14.4481
 -10.6541
 -10.9445
 -10.4439
 -1.45248
 -1.43802
 -1.27114
 -1.5592
 -22.9016
 -24.0043
 -23.5098
 -22.7511
 -21.8392
 -22.9353
 -22.3455
 -1.73388
 -14.7316
 -14.8198
 -14.6534
 -15.2823
 -15.9688
 -16.0469
 -5.25311
 -5.30412
 -5.26333
 -5.37562
 -6.68952
 -6.80881
 -7.17475
 -6.69033
 -8.62231
 -8.82799
 -8.6888
 -8.48743
 -8.11265
 -8.29925
 -8.47955
 -8.08886
 -8.05344
 -8.33764
 -10.9647
 -10.6003
 -10.4664
 -10.4862
 -11.4276
 -11.892
 -30.4231
 -30.4057
 -7.4058
 -7.93406
 -7.34212
 -7.68851
 -12.2977
 -12.1458
 -12.5042
 -11.9555
 -6.26006
 -6.37817
 -5.85845
 -5.98306
 -23.5899
 -23.9829
 -23.0634
 -23.4525
 -21.5325
 -21.0166
 -21.4848
 -20.9714
 -17.082
 -17.5263
 -17.5963
 -17.2783
 -14.7266
 -14.9139
 -15.6531
 -15.3742
 -13.6679
 -13.4457
 -7.31358
 -19.0162
 -19.603
 -19.5537
 -19.6322
 -27.4582
 -27.2293
 -28.0603
 -27.1163
 -22.2016
 -22.9204
 -22.0369
 -22.3431
 0.561081
 0.568222
 0.532077
 0.464762
 -27.6304
 -27.7832
 -27.6143
 -27.629
 -8.51104
 -8.51466
 -8.16825
 -8.70175
 -10.1841
 -9.72808
 -9.90566
 -9.57798
 -18.412
 -18.485
 -18.7896
 -18.9394
 -18.5968
 -18.3841
 -18.1182
 -18.277
 -7.36605
 -7.87669
 -7.60752
 -7.74622
 -27.0749
 -27.242
 -26.9904
 -27.0967
 -23.8976
 -24.181
 -24.0486
 -24.4024
 -18.9527
 -19.0392
 -19.4723
 -19.5068
 -24.0888
 -23.5851
 -23.9231
 -24.0437
 -9.26454
 -9.67078
 -9.67773
 -9.80511
 -7.44055
 -7.49672
 -7.6185
 -7.68712
 -23.0158
 -22.6408
 -22.3644
 -22.5168
 -11.9185
 -11.783
 -11.6815
 -11.2886
 -12.4347
 -12.2124
 -12.1094
 -12.3912
 -0.885976
 -1.0494
 -1.12379
 -1.06615
 -27.0637
 -27.2094
 -24.76
 -24.8161
 -24.3666
 -25.1974
 -5.95292
 -5.67594
 -5.57975
 -6.01556
 -9.54574
 -9.02987
 -9.00133
 -8.83651
 -24.0559
 -23.6536
 -24.4693
 -24.4855
 -11.284
 -11.4183
 -11.1734
 -11.6502
 -10.5002
 -10.6331
 -10.1587
 -10.1937
 -27.8451
 -28.0264
 -27.72
 -27.7285
 -14.4688
 -14.2969
 -14.4632
 -14.6784
 -13.2571
 -13.4091
 -13.3042
 -12.9489
 -20.9839
 -21.1948
 -21.3969
 -20.9037
 -17.3913
 -17.1692
 -17.0167
 -16.6735
 -11.3867
 -11.4249
 -10.8895
 -9.56568
 -9.9006
 -9.68755
 -10.298
 -5.08446
 -4.92
 -4.9062
 -5.35826
 -10.1035
 -10.3463
 -10.428
 -10.5038
 -13.9481
 -13.6546
 -13.8594
 -13.5282
 -27.5344
 -27.7621
 -27.7198
 -27.0173
 -10.2551
 -10.9842
 -10.5971
 -10.5542
 -6.13972
 -6.12521
 -5.88099
 -5.67538
 -18.5936
 -19.2074
 -18.9146
 -18.502
 -16.2992
 -16.163
 -15.8981
 -14.0698
 -14.7053
 -14.8666
 -15.0236
 -4.72193
 -4.69719
 -4.71769
 -4.9547
 -14.8627
 -14.4112
 -14.5663
 -14.262
 -26.8302
 -26.8728
 -26.8434
 -26.9329
 -14.3357
 -14.2581
 -14.4751
 -14.5591
 -6.5925
 -6.40599
 -6.52956
 -6.62948
 -7.93331
 -8.19709
 -7.92152
 -7.62126
 -30.5677
 -30.3824
 -30.5648
 -30.5534
 -9.2411
 -9.33783
 -9.2726
 -8.74603
 -16.1683
 -15.3972
 -15.582
 -15.8481
 -30.3167
 -30.3958
 -30.096
 -30.0048
 -25.1622
 -26.0311
 -25.4954
 -18.7369
 -18.6828
 -19.3894
 -19.591
 -23.2888
 -23.4773
 -24.1725
 -23.0778
 -2.39676
 -2.59188
 -2.7638
 -2.69735
 -8.06414
 -8.46364
 -7.88637
 -26.4083
 -26.9549
 -26.8293
 -27.0069
 -15.9383
 -15.7481
 -16.2873
 -15.5403
 -20.6471
 -20.4544
 -21.2409
 -20.0559
 -6.60905
 -6.57382
 -6.28636
 -6.15766
 -11.166
 -11.7107
 -11.1164
 -11.4926
 -17.2278
 -16.3396
 -16.6644
 -5.52608
 -5.6346
 -5.78072
 -5.75826
 -7.71223
 -7.06511
 -7.26846
 -7.1447
 -10.5801
 -26.4665
 -26.8575
 -26.5084
 -26.9376
 -2.88471
 -2.87625
 -2.63929
 -2.64122
 -20.6721
 -21.74
 -21.2299
 -21.8792
 -16.4739
 -16.0916
 -16.1915
 -15.6523
 -1.41815
 -22.1551
 -21.7293
 -22.4655
 -26.3106
 -27.091
 -26.6072
 -26.6597
 -12.5455
 -12.5439
 -13.2794
 -12.7881
 -17.7756
 -17.7721
 -18.2066
 -17.4597
 -8.4212
 -8.06851
 -13.4056
 -13.1751
 -13.1457
 -13.6514
 -8.43699
 -8.20399
 -7.98238
 -8.27218
 -9.74075
 -9.5783
 -10.1512
 -10.159
 -18.8847
 -18.4506
 -18.8703
 -18.9986
 -3.80321
 -3.76275
 -3.75501
 -4.11102
 -7.35353
 -7.17594
 -7.30901
 -7.0885
 -4.40386
 -4.61793
 -6.39247
 -6.3966
 -6.42401
 -6.39906
 -5.97677
 -5.75039
 -6.09575
 -5.81451
 -27.7163
 -27.4831
 -26.9415
 -26.9629
 -15.6092
 -15.5686
 -15.3487
 -16.1377
 -11.0168
 -11.6446
 -11.2514
 -11.2841
 -14.1219
 -13.9228
 -13.7973
 -14.2687
 -27.1972
 -27.0568
 -5.41309
 -5.27286
 -5.30486
 -5.41388
 -27.0304
 -27.2022
 -26.6977
 -3.20488
 -3.13251
 -3.18878
 -3.05499
 -25.4781
 -24.7008
 -25.282
 -24.9064
 -9.99042
 -9.71185
 -10.1059
 -9.67281
 -12.2174
 -12.2234
 -12.0455
 -26.4761
 -26.1129
 -26.2833
 -26.585
 -15.3374
 -14.8266
 -15.3659
 -14.9922
 -12.3852
 -12.6405
 -12.9981
 -12.591
 -10.1481
 -9.94387
 -11.2296
 -10.4832
 -11.0006
 -10.7418
 -16.4159
 -15.8224
 -16.1228
 -27.7414
 -26.9979
 -26.8927
 -27.6271
 -12.0217
 -12.3114
 -11.968
 -12.1227
 -11.1842
 -10.9125
 -9.45776
 -9.09838
 -8.98758
 -9.36977
 -3.666
 -3.70993
 -3.99912
 -15.3306
 -15.4607
 -14.7669
 -14.7618
 -27.3797
 -27.4436
 -27.4454
 -4.39149
 -4.25469
 -4.39495
 -11.9424
 -11.6332
 -11.8459
 -11.4354
 -17.7776
 -17.8351
 -17.1931
 -17.4136
 -2.53359
 -2.41844
 -2.49827
 -2.56266
 -23.5348
 -23.7486
 -23.4314
 -23.3162
 -18.2182
 -17.8694
 -17.9244
 -17.6415
 -22.0829
 -22.2573
 -21.859
 -26.1658
 -26.344
 -27.0419
 -26.5266
 -13.8362
 -13.2383
 -13.758
 -13.867
 -26.1368
 -25.8976
 -25.8164
 -25.612
 -10.0873
 -9.97524
 -10.2466
 -9.76946
 -27.5467
 -17.0647
 -13.1579
 -12.9816
 -13.4163
 -12.85
 -16.4231
 -16.2562
 -15.865
 -15.7532
 -19.737
 -19.8598
 -19.4832
 -19.0626
 -16.5999
 -16.4162
 -16.9922
 -16.716
 -20.4542
 -20.0567
 -20.5537
 -20.4814
 -13.1703
 -12.8733
 -13.0142
 -13.4333
 -12.4494
 -12.5662
 -12.6645
 -12.8835
 -11.0827
 -10.9519
 -10.8128
 -11.3138
 -12.7129
 -12.6925
 -12.2808
 -7.00238
 -7.05959
 -7.009
 -7.2547
 -13.6897
 -17.6668
 -18.2916
 -18.3661
 -18.139
 -26.7692
 -26.8262
 -26.0592
 -9.60066
 -9.03321
 -9.24295
 -9.08281
 -14.3121
 -14.933
 -14.722
 -16.5589
 -16.3765
 -16.1137
 -15.965
 -17.9005
 -18.1607
 -18.6922
 -18.8941
 -24.4954
 -24.8179
 -25.237
 -24.6635
 -8.18953
 -8.11934
 -8.35061
 -7.81347
 -14.4303
 -14.1237
 -14.0752
 -13.8215
 -12.7667
 -12.5557
 -12.2196
 -12.7997
 -12.3194
 -12.0792
 -11.9771
 -11.6874
 -13.3567
 -13.2086
 -13.4961
 -12.9517
 -19.6293
 -18.6136
 -19.7999
 -19.0813
 -12.3347
 -11.6388
 -11.899
 -12.0184
 -5.32869
 -5.34024
 -5.32329
 -5.42473
 -4.74677
 -4.93596
 -4.87332
 -13.326
 -13.4174
 -13.8125
 -13.9217
 -13.5968
 -13.683
 -13.9436
 -14.1469
 -12.6194
 -12.2225
 -12.9028
 -12.8744
 -25.8951
 -26.035
 -25.2164
 -25.3331
 -19.8395
 -19.3045
 -19.1947
 -19.8069
 -9.10379
 -9.35462
 -9.28277
 -9.38745
 -6.94716
 -7.3576
 -7.27961
 -6.77139
 -24.167
 -23.9204
 -23.5597
 -24.1656
 -3.04403
 -2.81716
 -2.87581
 -3.17549
 -10.4278
 -10.8392
 -10.6045
 -10.5562
 -6.26056
 -6.45699
 -6.41998
 -8.02292
 -8.20887
 -8.26989
 -8.57738
 -18.8276
 -18.738
 -19.1896
 -18.2306
 -8.03592
 -7.57994
 -7.72131
 -7.9011
 -4.94979
 -5.60036
 -5.16494
 -2.5822
 -2.82563
 -2.97243
 -2.83946
 -28.5708
 -28.7665
 -28.8832
 -29.3651
 -8.63956
 -8.3862
 -8.58321
 -8.74167
 -15.7021
 -14.9921
 -15.1426
 -15.5316
 -25.2774
 -24.9781
 -24.4424
 -24.9085
 -21.8385
 -22.5008
 -21.5861
 -21.9053
 -8.93303
 -9.03003
 -8.75408
 -8.91986
 -5.89156
 -5.54808
 -5.25781
 -5.63266
 -14.9318
 -15.2359
 -14.6786
 -14.9544
 -6.07049
 -6.47014
 -11.4279
 -10.7604
 -10.9164
 -11.2455
 -11.8437
 -11.8048
 -11.542
 -11.9864
 -11.2532
 -11.2886
 -11.0672
 -6.92683
 -7.04219
 -6.92839
 -15.9379
 -15.9534
 -16.163
 -16.3015
 -15.231
 -15.152
 -14.8234
 -15.6518
 -8.94115
 -9.36679
 -9.15956
 -8.99292
 -20.1719
 -20.7199
 -19.9171
 -20.1323
 -13.131
 -12.5342
 -12.8521
 -13.2979
 -6.75074
 -6.74844
 -6.69099
 -6.738
 -10.6597
 -11.0251
 -10.7018
 -15.6869
 -15.6378
 -15.2065
 -15.5329
 -13.7731
 -14.1072
 -14.364
 -28.2861
 -28.2173
 -28.0007
 -27.8926
 -4.37924
 -4.21513
 -4.4168
 -3.99037
 -10.0785
 -10.4718
 -10.4477
 -10.16
 -9.67704
 -9.59089
 -9.26262
 -9.70202
 -28.6441
 -28.5197
 -29.1867
 -29.5682
 -21.1471
 -21.4491
 -21.3793
 -8.2788
 -8.25119
 -8.05278
 -8.28884
 -21.0649
 -20.3992
 -20.6701
 -8.63277
 -8.68076
 -8.40535
 -8.48211
 -0.459581
 -0.608242
 -0.504557
 -0.634418
 -25.5693
 -25.7602
 -26.2559
 -25.4245
 -6.98954
 -6.88466
 -6.73622
 -6.48292
 -27.9356
 -27.8601
 -27.763
 -27.8675
 -7.82681
 -8.22317
 -7.9016
 -8.10459
 -0.6364
 -0.338345
 -0.565998
 -0.586797
 -5.31422
 -5.03251
 -5.30487
 -5.41661
 -7.16402
 -7.39561
 -7.63282
 -7.10434
 -13.0243
 -12.3983
 -6.8427
 -6.92725
 -6.37143
 -6.44577
 -16.215
 -15.88
 -15.735
 -15.4317
 -12.5409
 -12.5441
 -12.3662
 -12.9877
 -25.0557
 -24.3318
 -25.4895
 -25.6138
 -23.5731
 -23.3537
 -23.9278
 -23.8699
 -22.1413
 -21.5149
 -22.0098
 -21.6012
 -24.4784
 -24.6061
 -24.765
 -24.3338
 -17.8627
 -17.7603
 -18.2517
 -17.8609
 -22.443
 -23.0617
 -22.9081
 -22.6931
 -4.67337
 -4.26769
 -4.22672
 -4.70364
 -23.9505
 -24.3478
 -24.2309
 -24.1392
 -11.2379
 -10.8904
 -10.6437
 -10.8122
 -20.7852
 -19.8507
 -20.0271
 -23.7097
 -24.2445
 -24.2875
 -24.1154
 -7.12737
 -6.74915
 -6.72069
 -6.86953
 -5.3039
 -5.21742
 -5.07424
 -5.14282
 -18.885
 -18.81
 -18.5062
 -19.3917
 -11.6079
 -11.5687
 -11.4932
 -11.1982
 -18.0344
 -17.7189
 -17.9856
 -17.8318
 -17.8335
 -17.7999
 -18.8629
 -10.6196
 -10.5057
 -10.1694
 -17.51
 -17.8005
 -14.545
 -13.9178
 -27.6024
 -27.987
 -27.9496
 -27.6278
 -13.9411
 -14.1249
 -13.8317
 -14.3953
 -17.4348
 -17.2271
 -17.9381
 -17.2163
 -15.6429
 -15.9134
 -15.6211
 -16.0825
 -22.475
 -21.2648
 -21.5147
 -21.1342
 -21.032
 -11.8134
 -11.9422
 -11.4919
 -11.4906
 -6.44602
 -6.44697
 -6.44803
 -6.46334
 -17.5239
 -17.0125
 -17.5924
 -17.2607
 -18.1684
 -17.9496
 -17.7044
 -18.4036
 -1.16047
 -1.34264
 -1.42612
 -1.59541
 -13.3332
 -13.7668
 -13.5041
 -13.2226
 -12.865
 -12.4696
 -12.2915
 -12.6717
 -17.1938
 -16.7893
 -7.16192
 -7.23967
 -7.37085
 -7.19443
 -9.85713
 -10.0751
 -9.97987
 -9.75573
 -7.66797
 -7.51665
 -7.40925
 -7.44
 -9.30179
 -9.56911
 -9.52053
 -9.23499
 -7.73623
 -7.7026
 -7.55191
 -7.7648
 -21.4691
 -21.1152
 -21.2871
 -21.7101
 -23.9392
 -23.7996
 -23.2205
 -23.6014
 -8.81844
 -8.63846
 -8.42497
 -8.80585
 -13.3341
 -12.9697
 -13.3266
 -13.081
 -22.1445
 -21.5253
 -22.0604
 -21.7563
 -11.6176
 -11.3295
 -11.3055
 -11.8639
 -8.74439
 -9.03405
 -5.74269
 -5.87874
 -5.95168
 -5.70151
 -12.5483
 -12.3959
 -12.0567
 -11.8946
 -22.3059
 -22.05
 -22.1333
 -22.8285
 -27.1409
 -26.7198
 -26.8727
 -27.1748
 -1.87916
 -1.86632
 -11.1849
 -11.5917
 -11.6791
 -11.8615
 -10.5469
 -9.96213
 -10.3316
 -10.3548
 -10.1171
 -10.0183
 -7.9281
 -8.0996
 -8.06949
 -8.20657
 -12.5495
 -12.9602
 -13.1794
 -4.71683
 -4.92391
 -4.93948
 -5.09715
 -23.9928
 -24.4397
 -23.5267
 -24.0938
 -26.8778
 -26.8145
 -26.7592
 -28.6727
 -28.3144
 -27.7757
 -28.235
 -15.2861
 -16.0518
 -15.8154
 -15.873
 -13.2103
 -13.8213
 -13.0118
 -13.5309
 -20.4118
 -21.2918
 -21.5832
 -21.0929
 -17.071
 -16.9491
 -17.49
 -17.0095
 -16.2006
 -16.6775
 -16.3937
 -14.1301
 -14.2046
 -13.9655
 -14.6026
 -19.0984
 -20.2805
 -19.8392
 -19.2066
 -11.6747
 -11.3916
 -11.6407
 -11.7222
 -13.6288
 -13.5053
 -14.0683
 -13.3878
 -17.7381
 -17.5995
 -17.3045
 -17.7805
 -13.2945
 -13.0101
 -12.8782
 -13.3751
 -0.722434
 -0.646611
 -0.919451
 -0.904804
 -8.21615
 -8.07047
 -8.05201
 -7.82755
 -19.0187
 -18.9767
 -19.6714
 -19.754
 -7.95178
 -8.00473
 -7.55302
 -7.42516
 -6.9861
 -6.53859
 -6.99646
 -7.29289
 -22.7627
 -22.6075
 -22.983
 -22.2173
 -21.8772
 -21.2305
 -21.8375
 -21.6511
 -24.3118
 -23.7479
 -24.2398
 -24.4848
 -19.8876
 -19.8763
 -20.4271
 -20.1758
 -11.0844
 -10.9592
 -10.7104
 -10.9577
 -8.37796
 -8.24443
 -8.5367
 -8.16727
 -18.0905
 -17.2381
 -18.1634
 -17.4411
 -8.53949
 -8.66195
 -8.69781
 -8.68517
 -5.88256
 -5.95935
 -6.05841
 -6.19042
 -12.8715
 -13.2518
 -12.9269
 -13.2736
 -10.2225
 -9.95815
 -9.67202
 -10.5674
 -10.7275
 -11.2642
 -10.8483
 -6.06909
 -5.86804
 -5.60015
 -5.86241
 -8.69986
 -8.64009
 -8.49854
 -8.56789
 -18.7035
 -19.056
 -18.7457
 -18.9249
 -13.9458
 -14.3602
 -14.4723
 -29.0589
 -28.5434
 -28.6795
 -28.9168
 -25.5931
 -26.1293
 -26.57
 -25.9394
 -10.1216
 -10.4419
 -9.95296
 -10.4178
 -14.8045
 -15.2033
 -6.59975
 -6.56663
 -6.211
 -6.72334
 -13.9886
 -13.4949
 -13.3253
 -13.7399
 -24.1988
 -24.3945
 -23.8204
 -24.3353
 -8.38424
 -8.46898
 -8.5785
 -11.3923
 -11.5184
 -11.5732
 -11.0234
 -10.2959
 -10.8196
 -10.7774
 -10.6747
 -12.9763
 -13.4415
 -13.5232
 -12.9188
 -12.2837
 -12.5522
 -12.8788
 -12.4998
 -13.8218
 -14.0869
 -13.7209
 -14.2325
 -11.8522
 -12.179
 -20.8339
 -20.4207
 -21.3554
 -20.6859
 -12.1692
 -11.7581
 -11.9045
 -12.1785
 -16.1867
 -15.4477
 -15.789
 -12.0385
 -12.4661
 -12.1716
 -12.4238
 -16.2995
 -16.0166
 -15.7327
 -16.1089
 -7.94221
 -7.59203
 -7.85825
 -7.40911
 -11.8615
 -11.7783
 -12.2981
 -15.022
 -15.1235
 -15.6926
 -14.7268
 -12.6359
 -12.5368
 -12.8584
 -7.64161
 -7.75457
 -7.45233
 -16.7964
 -16.702
 -16.6572
 -16.0946
 -13.034
 -13.3763
 -13.4492
 -1.95925
 -2.04757
 -2.15166
 -1.73043
 -17.0234
 -16.6351
 -16.3591
 -17.105
 -10.525
 -10.073
 -10.1389
 -10.0007
 -22.0116
 -22.0224
 -22.2647
 -22.5323
 -23.3889
 -22.9262
 -23.7112
 -23.5716
 -7.05843
 -7.51761
 -6.94112
 -7.03405
 -14.7222
 -14.3898
 -14.0827
 -9.37814
 -8.98238
 -9.26738
 -9.24697
 -23.3203
 -22.459
 -22.9553
 -13.5873
 -14.0289
 -13.7256
 -14.1442
 -18.3795
 -18.626
 -18.6054
 -18.4276
 -25.2262
 -25.3467
 -25.7009
 -25.1794
 0.246046
 0.407478
 0.372426
 0.246978
 -9.1188
 -9.20848
 -9.42988
 -9.08002
 -14.4831
 -15.3749
 -15.0348
 -15.2454
 -5.62392
 -5.39037
 -5.28472
 -13.0118
 -13.4116
 -13.3068
 -12.9069
 -26.0938
 -17.4366
 -17.0102
 -16.4136
 -17.0021
 -22.8728
 -22.8547
 -22.9282
 -23.186
 -20.3365
 -20.2085
 -20.0733
 -20.5719
 -14.7314
 -14.5606
 -13.8088
 -13.2538
 -13.282
 -13.2738
 -2.44857
 -2.72035
 -2.46593
 -2.62057
 -9.80287
 -9.65223
 -9.48743
 -9.21516
 -9.21492
 -9.50812
 -9.27192
 -26.4556
 -27.2929
 -26.5667
 -26.415
 -12.9783
 -12.955
 -13.4663
 -13.4701
 -14.6711
 -14.4577
 -14.0571
 -14.3932
 -23.5537
 -23.0595
 -23.8923
 -23.1199
 -13.5144
 -13.3907
 -13.9522
 -13.5508
 -4.51086
 -4.5908
 -4.30254
 -4.40269
 -12.4924
 -12.3464
 -12.64
 -12.4471
 -8.98283
 -9.0056
 -9.06602
 -9.31265
 -8.28075
 -7.99592
 -8.02488
 -8.17965
 -6.2909
 -6.39953
 -6.27865
 -6.26243
 -3.89685
 -3.76576
 -3.68797
 -4.08274
 -28.2954
 -27.9698
 -28.1332
 -27.9562
 -3.05778
 -3.15972
 -2.881
 -3.28199
 -13.0155
 -12.7057
 -13.021
 -12.6159
 -27.6637
 -27.7202
 -27.239
 -27.3937
 -10.9774
 -10.8619
 -11.1377
 -11.2535
 -6.39276
 -24.8694
 -24.5385
 -24.6522
 -25.3755
 -7.84394
 -4.35925
 -4.72993
 -4.76246
 -4.41054
 -15.4593
 -16.125
 -20.7285
 -20.0311
 -20.9629
 -20.2022
 -22.4754
 -22.4605
 -22.8582
 -22.7677
 -28.95
 -28.4344
 -29.0662
 -20.9131
 -21.6716
 -21.5604
 -21.44
 -11.1684
 -26.9421
 -18.0434
 -17.9129
 -17.6962
 -26.9121
 -27.3016
 -27.3808
 -27.2135
 -11.23
 -11.1741
 -11.1922
 -10.8897
 -9.07771
 -9.21484
 -8.86643
 -8.7627
 -17.5801
 -17.2048
 -17.3961
 -18.1957
 -26.0746
 -26.4587
 -25.8473
 -25.7126
 -24.2676
 -24.1054
 -24.4066
 -24.0508
 -16.1665
 -17.0357
 -16.9327
 -3.76117
 -3.56327
 -4.14826
 -3.75149
 -0.00286253
 -0.271842
 -0.126262
 -0.241098
 -5.85197
 -5.46161
 -5.38993
 -5.61125
 -14.1689
 -14.6132
 -14.1119
 -4.6689
 -4.94989
 -4.83897
 -4.62258
 -21.3785
 -21.1961
 -21.8834
 -21.9142
 -21.9634
 -21.6187
 -21.8983
 -7.89264
 -7.75099
 -18.5925
 -18.8792
 -30.375
 -30.0967
 -30.4588
 -28.3242
 -28.6034
 -28.4874
 -28.7427
 -11.9015
 -11.5382
 -12.1695
 -11.8695
 -9.66294
 -9.58198
 -9.39208
 -9.84893
 -12.6801
 -12.6642
 -13.1408
 -12.9757
 -27.7149
 -27.6418
 -27.828
 -27.6817
 -18.5718
 -18.9137
 -18.7241
 -18.3617
 -6.21187
 -6.18085
 -6.20982
 -6.43469
 -18.7842
 -19.0226
 -18.5838
 -19.1714
 -14.9911
 -15.0881
 -14.6164
 -15.2153
 -17.6902
 -18.0554
 -18.0233
 0.661869
 0.613796
 0.585082
 -9.58305
 -9.35736
 -11.2608
 -11.2672
 -10.9029
 -11.5079
 -20.3454
 -20.995
 -20.5183
 -20.3326
 -18.789
 -18.9976
 -19.6875
 -19.2549
 -19.2646
 -18.9522
 -19.9413
 -2.32043
 -2.30776
 -6.08803
 -6.03551
 -6.21235
 -6.11615
 -14.9263
 -2.12633
 -1.86137
 -1.96506
 -1.98154
 -8.86062
 -9.29887
 -8.98093
 -8.91778
 -11.8308
 -11.5953
 -3.99554
 -4.53244
 -4.48543
 -4.20147
 -28.279
 -28.8492
 -28.7017
 -28.3958
 -25.9467
 -26.2143
 -25.9849
 -26.6327
 -7.40877
 -8.05935
 -7.56256
 -7.89277
 -9.54398
 -9.33699
 -10.0664
 -9.92444
 -9.62798
 -9.42762
 -9.63261
 -19.6641
 -20.0779
 -19.1931
 -19.6735
 -6.35108
 -6.59174
 -6.74024
 -6.7734
 -12.845
 -12.9797
 -12.7778
 -16.8929
 -17.0729
 -17.274
 -17.7421
 -9.40677
 -9.49286
 -9.72972
 -9.56863
 -8.21219
 -8.55179
 -8.78768
 -8.38975
 -8.24362
 -8.00051
 -8.07254
 -8.35814
 -10.9237
 -11.0495
 -11.4519
 -11.1123
 -16.8963
 -16.5169
 -8.95523
 -9.0184
 -9.10959
 -8.79103
 -28.8206
 -27.9016
 -28.0767
 -28.1165
 -7.74108
 -7.93562
 -7.76031
 -7.97974
 -5.03054
 -4.93602
 -5.26854
 -5.11892
 -15.1133
 -15.1228
 -3.24992
 -3.29693
 -3.05561
 -3.37321
 -10.2459
 -10.5665
 -10.068
 -26.3655
 -26.2748
 -26.6321
 -26.6722
 -3.61978
 -3.47105
 -3.57281
 -8.09132
 -8.05932
 -8.38093
 -8.25696
 -4.14595
 -7.97788
 -7.81635
 -7.8955
 -7.54437
 -13.4364
 -13.1109
 -13.5055
 -13.4538
 -11.4453
 -11.5433
 -11.7796
 -11.419
 -27.0063
 -27.6599
 -14.2584
 -14.5683
 -14.459
 -14.2801
 -7.6789
 -7.26071
 -7.74427
 -7.22834
 -9.79804
 -10.5994
 -10.1658
 -9.84212
 -24.5812
 -24.1858
 -24.1981
 -24.303
 -11.625
 -11.8414
 -12.2575
 -12.0715
 -15.1962
 -22.3728
 -22.6448
 -22.1226
 -9.91264
 -10.0193
 -9.61833
 -10.1471
 -18.4902
 -18.2932
 -18.5487
 -17.9485
 -10.5464
 -10.2126
 -10.2758
 -10.685
 -26.79
 -26.2638
 -26.0466
 -26.5325
 -30.0072
 -30.2172
 -29.9173
 -8.14392
 -8.36883
 -8.7092
 -8.48076
 -16.336
 -16.5187
 -15.9118
 -16.1565
 -18.0197
 -18.2255
 -18.5588
 -18.7927
 -9.32819
 -9.38748
 -8.14612
 -8.01221
 -7.88909
 -8.27749
 -10.8534
 -11.5138
 -15.5291
 -15.7375
 -15.4673
 -15.2881
 -16.6748
 -16.8702
 -17.3101
 -16.679
 -11.12
 -11.3684
 -11.6874
 -11.4456
 -15.0108
 -15.0501
 -15.0672
 -23.5597
 -22.9123
 -22.6772
 -23.0555
 -20.477
 -20.2642
 -20.6009
 -11.0763
 -11.6482
 -10.9916
 -11.3843
 -8.46976
 -8.01237
 -7.80809
 -8.31894
 -18.2247
 -17.5486
 -17.617
 -18.0016
 -11.5843
 -11.5295
 -11.0538
 -6.55612
 -6.51885
 -6.56813
 -6.52649
 -9.41662
 -9.38412
 -9.54473
 -9.67212
 -21.3231
 -21.0026
 -20.7481
 -28.7135
 -28.1165
 -28.2848
 -17.6912
 -17.9625
 -18.0255
 -9.39282
 -9.04578
 -9.53389
 -9.19563
 -28.6636
 -28.8307
 -28.6596
 -28.9507
 -16.9556
 -16.625
 -16.8923
 -17.2971
 -22.2245
 -22.4931
 -23.2597
 -23.1858
 -21.4698
 -21.8259
 -21.5233
 -21.5847
 -5.10442
 -4.80546
 -4.84768
 -10.846
 -10.9508
 -10.667
 -10.9889
 -22.3396
 -22.5536
 -22.0505
 -22.0698
 -12.2103
 -12.4064
 -12.4482
 -12.9275
 -18.7645
 -18.777
 -18.6813
 -18.0786
 -24.8627
 -25.3048
 -6.13422
 -6.3728
 -6.32833
 -6.4761
 -19.9917
 -19.6112
 -20.4973
 -19.8284
 -10.9563
 -10.8068
 -10.6563
 -11.084
 -17.8254
 -17.0645
 -27.8205
 -27.7955
 -27.2478
 -27.9387
 -22.0865
 -22.8757
 -21.8225
 -23.1063
 -28.9474
 -29.0948
 -29.5033
 -29.6321
 -19.7005
 -19.6792
 -19.9861
 -17.8559
 -18.5921
 -18.513
 -18.2538
 -18.4562
 -18.0893
 -18.2985
 -17.6807
 -8.8176
 -8.92007
 -8.59432
 -8.49117
 -4.46134
 -4.33768
 -4.66794
 -13.2398
 -13.2565
 -13.324
 -23.4508
 -22.8188
 -23.1705
 -22.6856
 -11.2221
 -11.5015
 -11.8734
 -11.5254
 -7.70422
 -7.2748
 -7.3656
 -7.73356
 -13.507
 -13.0597
 -12.7998
 -12.8372
 -10.4032
 -10.9555
 -10.4278
 -28.0183
 -28.1944
 -27.4804
 -27.4331
 -6.48366
 -6.58718
 -7.35609
 -7.54444
 -7.56704
 -18.9502
 -19.1726
 -18.5795
 -19.5435
 -12.8641
 -13.428
 -13.3439
 -13.2379
 -7.19168
 -7.25828
 -7.51567
 -7.24659
 -14.7662
 -13.8943
 -13.9731
 -14.4514
 -10.0273
 -9.73322
 -10.2434
 -10.2376
 -24.3935
 -24.6505
 -25.5365
 -9.45627
 -9.41562
 -9.70945
 -9.68077
 -14.5877
 -14.9642
 -6.97018
 -7.35853
 -7.21659
 -7.03579
 -7.50482
 -7.18867
 -7.34262
 -7.21413
 -24.9652
 -24.6865
 -8.00802
 -8.33461
 -8.14821
 -7.86314
 -13.5644
 -13.1276
 -13.348
 -13.6051
 -10.6555
 -4.92423
 -4.64026
 -4.73193
 -15.2294
 -15.0908
 -15.208
 -14.8245
 -25.5256
 -25.5897
 -25.1933
 -25.848
 -5.10822
 -5.19777
 -5.27865
 -4.98873
 -7.53125
 -7.77437
 -7.45463
 -7.51978
 -17.6811
 -17.9139
 -17.9296
 -5.48089
 -5.47752
 -5.69048
 -5.75199
 -28.8289
 -28.3561
 -28.5386
 -28.9568
 -6.19964
 -6.39684
 -6.47351
 -6.06614
 -17.0617
 -16.5073
 -16.8988
 -17.4258
 -10.8076
 -11.1055
 -10.9832
 -10.7131
 -7.21964
 -7.34207
 -7.25853
 -10.1643
 -10.6125
 -10.1466
 -10.5089
 -7.03895
 -6.762
 -6.95176
 -6.94853
 -7.7336
 -7.50218
 -7.64281
 -20.3955
 -19.8091
 -20.5299
 -19.62
 -19.0723
 -12.6353
 -13.562
 -12.9454
 -12.9733
 -26.4462
 -26.268
 -25.8404
 -26.2628
 -15.312
 -15.9109
 -15.0061
 -15.7192
 -16.9175
 -17.3221
 -16.8927
 -16.7692
 -7.45952
 -7.32478
 -7.66281
 -8.13139
 -8.0082
 -16.7735
 -16.1363
 -16.5687
 -16.9228
 -25.9412
 -26.7691
 -14.0829
 -14.2284
 -13.7355
 -14.318
 -6.9793
 -6.90936
 -7.16473
 -24.1652
 -24.651
 -24.039
 -24.2618
 -14.1252
 -13.4595
 -13.7031
 -13.8143
 -7.32235
 -7.1591
 -7.33374
 -7.45445
 -12.8709
 -12.812
 -13.4843
 -12.9979
 -16.5837
 -17.5195
 -5.67686
 -5.53004
 -5.60249
 -5.45379
 -7.90825
 -8.50029
 -8.71599
 -8.54728
 -8.8274
 -8.72692
 -8.6089
 -8.17604
 -8.28448
 -8.52327
 -13.8789
 -13.7795
 -13.7212
 -15.9284
 -15.7198
 -15.5105
 -15.2886
 -8.78834
 -8.73499
 -8.80555
 -8.75513
 -10.9588
 -10.859
 -14.7302
 -14.3992
 -14.6439
 -14.3044
 -14.8036
 -14.8335
 -12.7372
 -13.2105
 -13.3102
 -12.8259
 -3.25111
 -3.60687
 -3.54304
 -3.68725
 -14.5624
 -7.04578
 -7.32036
 -7.12383
 -7.05255
 -27.79
 -28.2922
 -27.7385
 -19.3472
 -19.2389
 -18.8184
 -19.4245
 -12.5824
 -12.798
 -12.6196
 -11.9837
 -13.9841
 -14.3558
 -13.7583
 -8.01674
 -8.27872
 -8.15323
 -7.96364
 -24.5542
 -25.0428
 -24.0436
 -24.7287
 -17.12
 -16.9155
 -17.359
 -17.1621
 -24.6481
 -24.9106
 -23.9389
 -24.4686
 -6.33477
 -6.35724
 -6.10085
 -6.11854
 -8.67749
 -8.94978
 -20.1968
 -19.965
 -19.6905
 -20.0792
 -25.9195
 -25.9393
 -26.0918
 -25.7356
 -30.1519
 -30.3921
 -29.9139
 -30.4628
 -25.335
 -24.8316
 -25.2858
 -16.7546
 -17.2831
 -16.6822
 -17.0501
 -25.6072
 -25.8925
 -25.9965
 -25.9005
 -6.28402
 -6.54255
 -6.81892
 -6.49578
 -22.3721
 -22.883
 -22.9703
 -16.9134
 -16.7418
 -16.5819
 -16.5502
 -6.97782
 -6.85854
 -6.98199
 -6.77593
 -17.7171
 -18.2858
 -17.9735
 -18.0015
 -15.4071
 -15.8056
 -15.9922
 -15.4551
 -9.12345
 -9.26482
 -9.51123
 -9.73156
 -6.01325
 -6.06826
 -5.72081
 -5.73953
 -11.6287
 -11.7563
 -12.1203
 -11.7065
 -2.66204
 -2.70391
 -3.11278
 -2.89096
 -7.61156
 -7.83535
 -7.58082
 -8.33631
 -7.9791
 -7.95961
 -7.86185
 -1.56954
 -1.64309
 -1.37963
 -1.7005
 -24.1569
 -23.7562
 -23.8389
 -21.4766
 -21.5765
 -22.1084
 -22.0081
 -8.63488
 -9.19924
 -9.01606
 -4.55792
 -4.66728
 -4.50241
 -6.05321
 -5.79623
 -6.07009
 -6.10748
 -8.84164
 -8.79539
 -9.08891
 -8.55505
 -17.0841
 -17.907
 -17.5178
 -17.4054
 -3.36048
 -3.32598
 -3.50519
 -3.2124
 -15.9768
 -15.1442
 -15.073
 -15.7853
 -21.3903
 -21.7275
 -20.9151
 -21.3855
 -14.8797
 -14.8255
 -15.6249
 -15.2227
 -11.8145
 -11.4914
 -12.1211
 -7.23082
 -7.19855
 -7.23992
 -7.4146
 -24.9116
 -25.3577
 -25.5921
 -25.3113
 -22.4976
 -22.8475
 -22.4067
 -22.0127
 -8.93347
 -9.21975
 -9.03453
 -8.77738
 -26.0999
 -26.4229
 -26.7343
 -25.7877
 -26.6964
 -26.0574
 -26.1119
 -26.6936
 -26.6784
 -26.2364
 -26.3937
 -3.87689
 -3.80236
 -1.53587
 -1.59479
 -1.44502
 -1.7588
 -16.3031
 -16.0692
 -15.7068
 -12.7155
 -12.4165
 -13.0941
 -12.5071
 -13.6615
 -14.1927
 -14.0332
 -13.7209
 0.504464
 -11.3469
 -15.7869
 -16.2902
 -22.4634
 -22.7756
 -22.6687
 -22.5849
 -4.57316
 -10.2658
 -10.6135
 -10.2567
 -30.6571
 -30.4231
 -30.4428
 -30.4366
 -13.7739
 -13.4279
 -13.7943
 -14.2104
 -26.5117
 -26.2281
 -26.6328
 -26.0012
 -11.7589
 -12.2338
 -11.3773
 -10.6015
 -11.1002
 -10.7808
 -24.4264
 -24.5108
 -23.8574
 -24.5181
 -15.9824
 -15.6551
 -15.2934
 -15.0981
 -6.41348
 -6.19852
 -6.61546
 -6.53752
 -21.8634
 -22.87
 -22.495
 -26.8816
 -27.7137
 -27.7197
 -26.9069
 -22.0117
 -21.8292
 -21.4319
 -21.8667
 -8.66078
 -8.62629
 -9.27152
 -8.59157
 -9.4254
 -9.16825
 -9.21791
 -9.20918
 -24.5341
 -24.9297
 -24.9051
 -24.9644
 -11.2125
 -11.3107
 -10.8792
 -20.6009
 -20.63
 -20.4521
 -20.0962
 -7.02157
 -7.32759
 -6.85655
 -6.90554
 -16.4964
 -16.7914
 -16.0414
 -16.3484
 -6.78733
 -7.0099
 -6.79177
 -6.80642
 -14.5534
 -14.8388
 -14.4021
 -14.6976
 -21.2254
 -21.225
 -21.7704
 -20.8481
 -6.15018
 -6.05234
 -6.27703
 -13.9638
 -14.3998
 -23.3116
 -23.0802
 -22.9684
 -22.6047
 -11.2051
 -10.9458
 -10.9016
 -6.47437
 -6.19532
 -6.11815
 -6.25469
 -18.0411
 -18.2496
 -18.0171
 -18.4643
 -16.6521
 -16.5957
 -17.4535
 -16.8168
 -0.408944
 -0.411554
 -0.654579
 -0.478006
 -13.4976
 -12.9503
 -13.2634
 -2.33023
 -2.55096
 -2.63347
 -13.6697
 -13.5327
 -13.267
 -13.5767
 -13.0601
 -6.36785
 -6.47189
 -5.98129
 -6.16562
 -11.9076
 -12.3546
 -12.4781
 -22.477
 -22.504
 -22.5055
 -22.2096
 -12.4489
 -12.6647
 -12.9261
 -12.9183
 -13.0273
 -12.8632
 -12.7855
 -29.8107
 -29.6237
 -29.5484
 -29.2235
 -8.11516
 -8.79819
 -8.64394
 -8.44529
 -5.67401
 -5.68391
 -5.80574
 -5.80113
 -10.3945
 -10.2715
 -10.8755
 -10.4404
 -23.7053
 -23.8611
 -24.0713
 -23.2191
 -0.262554
 -0.469527
 -0.280724
 -0.580619
 -20.6663
 -20.0053
 -20.3669
 -20.3954
 -5.57653
 -5.37815
 -5.54063
 -5.49208
 -22.5162
 -21.1449
 -21.5717
 -22.2006
 -20.2088
 -19.9114
 -19.5932
 -19.9438
 -20.6389
 -20.8968
 -8.81017
 -8.56602
 -8.53921
 -8.74402
 -25.0185
 -25.1489
 -25.0834
 -19.7434
 -18.951
 -19.2518
 -19.8888
 -8.11724
 -8.47229
 -8.23466
 -7.91468
 -10.1808
 -10.0292
 -10.5132
 0.676678
 0.6689
 0.749316
 0.673406
 -12.9304
 -12.3897
 -13.0399
 -25.2417
 -25.6406
 -25.0155
 -24.8734
 -21.189
 -20.7492
 -24.0001
 -24.6871
 -25.02
 -24.32
 -18.7359
 -18.7828
 -5.32332
 -5.36755
 -5.03979
 -5.57651
 -20.6077
 -20.5414
 -20.5787
 -19.964
 -13.6703
 -13.9154
 -10.0057
 -10.2712
 -10.1568
 -10.0189
 -21.9876
 -22.348
 -22.4213
 -22.2946
 -8.97374
 -8.3341
 -8.3805
 -8.84567
 -24.6316
 -24.6346
 -25.251
 -25.8696
 -15.3623
 -15.4742
 -14.9423
 -5.04005
 -4.90963
 -4.86132
 -5.03824
 -16.9425
 -16.8834
 -16.6593
 -16.3198
 -8.11485
 -7.77477
 -7.72307
 -7.56055
 -8.52862
 -8.0929
 -8.38557
 -0.031605
 -0.00681485
 -0.0355429
 -0.164902
 -6.06243
 -6.50619
 -6.61966
 -6.2193
 -21.0669
 -20.815
 -21.3992
 -20.7649
 -13.0471
 -13.2188
 -12.7192
 -10.6217
 -7.19993
 -7.3759
 -7.26134
 -7.47073
 -11.0688
 -10.7112
 -11.0329
 -11.2027
 -18.9742
 -19.861
 -19.9397
 -19.1278
 -6.93282
 -6.94684
 -7.549
 -4.52929
 -15.2166
 -15.4176
 -14.8633
 -15.6832
 -7.34189
 -7.77957
 -1.9759
 -1.77129
 -7.18051
 -7.44688
 -7.18851
 -6.83019
 -18.9065
 -19.3678
 -23.3809
 -23.328
 -23.5203
 -23.2379
 -10.0638
 -10.4242
 -10.4293
 -10.4183
 -27.3187
 -27.4709
 -27.8225
 -27.5318
 -9.88556
 -9.96618
 -9.2157
 -9.22677
 -20.3496
 -20.4434
 -20.0343
 -19.4422
 -8.17812
 -8.19823
 -8.37646
 -8.37553
 -20.3925
 -20.6938
 -19.977
 -20.4172
 -11.3478
 -11.7712
 -25.8267
 -25.5377
 -18.1936
 -18.6617
 -18.0237
 -18.7809
 -17.9605
 -17.7026
 -17.7552
 -18.3862
 -14.4591
 -14.1796
 -14.6343
 -14.6131
 -20.2994
 -19.6727
 -20.5019
 -20.8494
 -8.02597
 -7.69289
 -7.88531
 -7.86244
 -25.3757
 -25.1169
 -25.1044
 -25.9423
 -26.3046
 -25.7686
 -26.1213
 -6.86811
 -7.2214
 -7.20905
 -7.03928
 -18.5143
 -17.9025
 -17.9792
 -18.2922
 -6.68549
 -7.00372
 -7.02223
 -7.32325
 -13.9598
 -12.4305
 -13.0451
 -13.0561
 -12.4987
 -22.2076
 -22.2678
 -22.2188
 -21.5892
 -2.77549
 -2.55828
 -2.69182
 -2.95933
 -18.2188
 -18.5336
 -18.9155
 -18.4221
 -13.4489
 -13.8624
 -12.9574
 -13.3052
 -19.4953
 -19.0471
 -18.9649
 -18.897
 -17.1321
 -29.8303
 -29.6513
 -29.0029
 -29.2682
 -20.9261
 -21.036
 -20.228
 -20.3626
 -1.94647
 -2.05767
 -2.25232
 -1.90922
 -11.353
 -10.9035
 -10.7123
 -11.0817
 -9.35121
 -13.7349
 -13.7665
 -13.8879
 -14.2773
 -24.5156
 -24.5496
 -23.9303
 -23.6672
 -22.5215
 -22.3543
 -23.108
 -24.3615
 -23.1836
 -23.7191
 -23.4965
 -0.320962
 -0.424971
 -20.2475
 -20.0374
 -19.969
 -8.95698
 -8.94609
 -8.83099
 -9.25561
 -19.2301
 -18.9531
 -19.2393
 -18.7458
 -14.4432
 -18.1186
 -17.5322
 -18.1157
 -18.0021
 -25.6491
 -24.5832
 -24.9506
 -25.5737
 -17.8931
 -18.3093
 -18.9557
 -18.0147
 -11.1605
 -11.3319
 -10.7282
 -11.647
 -6.90258
 -6.96031
 -6.81119
 -7.01993
 -29.1012
 -28.5584
 -29.1411
 -28.9979
 -19.142
 -18.9277
 -19.3264
 -18.6784
 -28.5305
 -28.3346
 -28.3963
 -28.6924
 -9.07815
 -8.55245
 -9.0785
 -9.15024
 -14.1854
 -13.9445
 -25.6964
 -26.5274
 -25.6884
 -26.0651
 -14.3229
 -14.4217
 -14.4039
 -14.9059
 -12.6974
 -13.1749
 -14.255
 -14.3367
 -14.7636
 -14.222
 -22.9027
 -22.9262
 -22.6894
 -23.4015
 -9.98462
 -9.51182
 -9.30754
 -9.72178
 -5.01117
 -5.24406
 -5.03609
 -5.02969
 -6.37523
 -6.26489
 -6.26915
 -6.23715
 -9.62409
 -9.87662
 -9.91502
 -9.56963
 -11.5482
 -10.9914
 -11.3575
 -12.165
 -11.5242
 -11.861
 -12.0004
 -13.7242
 -13.4596
 -13.2467
 -13.685
 -4.91666
 -4.88967
 -4.99834
 -10.8913
 -10.5537
 -11.0737
 -10.9631
 -14.5774
 -15.084
 -15.0109
 -14.3905
 -8.61281
 -8.21593
 -8.74933
 -8.21157
 -9.61364
 -9.9385
 -9.878
 -9.8312
 -15.1222
 -15.1061
 -15.4798
 -15.8471
 -13.3826
 -12.9564
 -13.3364
 -13.2466
 -18.4978
 -18.222
 -18.3724
 -18.1245
 -6.15643
 -6.25048
 -6.35662
 -21.8325
 -21.455
 -22.2102
 -21.6187
 -8.64837
 -8.99578
 -8.70038
 -8.46278
 -11.6772
 -11.4983
 -11.2663
 -11.8316
 -12.4252
 -12.8432
 -12.937
 -16.0201
 -16.0273
 -16.2055
 -16.5788
 -17.6712
 -17.6916
 -18.091
 -17.3931
 -18.4089
 -18.6436
 -19.02
 -23.2717
 -23.3381
 -23.51
 -17.6738
 -17.4213
 -17.049
 -17.315
 -23.2751
 -23.5031
 -22.8261
 -25.1391
 -25.1743
 -25.0537
 -24.5699
 -12.683
 -11.8681
 -12.3687
 -12.1097
 -9.19748
 -8.94114
 -9.32833
 -9.00127
 -7.81902
 -23.1683
 -22.9486
 -23.9169
 -22.9164
 -23.3727
 -22.3036
 0.13171
 0.237536
 0.116537
 0.0120865
 -20.4206
 -19.9403
 -11.567
 -11.2963
 -11.8028
 -28.4221
 -28.8261
 -16.2308
 -15.4959
 -15.7233
 -15.891
 -11.242
 -11.4641
 -11.4745
 -20.6664
 -21.7368
 -21.2263
 -21.4683
 -9.30714
 -9.41278
 -9.14702
 -9.59307
 -1.39797
 -1.61777
 -1.55993
 -1.32001
 -15.5659
 -15.662
 -15.4849
 -16.0939
 -22.5744
 -23.7156
 -22.7247
 -21.3174
 -21.1928
 -21.4057
 -20.9261
 -8.41569
 -7.91802
 -7.97622
 -7.71147
 -8.70147
 -8.95201
 -7.08046
 -7.36812
 -6.98055
 -28.1519
 -27.7296
 -22.1727
 -21.5222
 -22.184
 -21.5164
 -14.1205
 -14.72
 -14.5933
 -20.1537
 -19.4934
 -20.7175
 -20.6019
 -8.6581
 -8.08152
 -8.18706
 -8.46166
 -13.1668
 -13.1047
 -13.5664
 -13.665
 -13.0123
 -13.3503
 -13.4222
 -13.0171
 -7.97087
 -8.13021
 -7.9185
 -8.96128
 -8.73694
 -8.92718
 -8.87077
 -30.0337
 -30.3513
 -30.1828
 -30.5937
 -5.71123
 -5.30559
 -24.6518
 -25.1433
 -25.0021
 -24.6766
 -11.8581
 -12.3006
 -12.1
 -11.8649
 -14.6048
 -14.9607
 -14.9358
 -15.0283
 -6.33813
 -6.55583
 -13.6273
 -13.2973
 -13.2838
 -12.9765
 -11.6169
 -11.4374
 -11.3142
 -11.7633
 -22.5742
 -22.5385
 -22.3261
 -22.7154
 -12.451
 -12.8354
 -12.8813
 -12.2952
 -9.07632
 -9.11946
 -16.59
 -16.6076
 -16.2919
 -16.701
 -19.0827
 -18.9253
 -19.3798
 -14.1526
 -14.6641
 -14.4721
 -14.776
 -7.47428
 -7.68303
 -7.37699
 -7.85805
 -1.14594
 -1.39771
 -1.35754
 -1.11034
 -12.757
 -12.5138
 -12.9386
 -13.4274
 -15.0636
 -15.6932
 -15.1577
 -15.1259
 -11.0787
 -11.324
 -10.8553
 -10.9496
 -9.53483
 -9.31781
 -9.60872
 -9.78729
 -22.8087
 -23.2954
 -16.6429
 -16.3667
 -16.124
 -3.303
 -3.18617
 -3.03
 -3.36812
 -8.12339
 -7.83202
 -8.28884
 -7.68053
 -14.1871
 -14.2965
 -14.0598
 -13.8344
 -22.8404
 -23.0792
 -23.0076
 -11.9691
 -11.7562
 -11.2642
 -11.2632
 -8.80226
 -9.2933
 -9.11411
 -8.78095
 -19.7548
 -19.0177
 -19.0078
 -19.3871
 -15.9423
 -15.7951
 -15.5839
 -15.6164
 -21.1856
 -21.2838
 -21.1978
 -20.7709
 -20.8464
 -20.9113
 -20.8156
 -10.651
 -10.787
 -10.4109
 -10.2902
 -12.4031
 -12.2023
 -12.603
 -1.56052
 -1.60883
 -1.57949
 -1.41739
 -9.04382
 -9.08227
 -5.36707
 -5.14896
 -5.46954
 -5.68869
 -7.81098
 -6.57262
 -23.9404
 -9.22323
 -8.82397
 -9.11645
 -8.65822
 -29.1266
 -16.5759
 -16.1718
 -16.5469
 -15.8994
 -9.15113
 -9.47012
 -9.28696
 -10.7354
 -11.1134
 -11.1211
 -21.7247
 -21.8379
 -21.1095
 -21.7808
 -21.9135
 -21.6053
 -21.993
 -21.5486
 -7.07104
 -6.63199
 -6.62235
 -6.93377
 -26.2849
 -26.3326
 -26.7461
 -26.0018
 -13.2682
 -12.8604
 -12.4478
 -21.7269
 -22.1004
 -21.936
 -14.9015
 -14.4585
 -14.6279
 -14.9998
 -9.24296
 -9.45062
 -8.99781
 -9.12438
 -15.1992
 -15.9352
 -15.1924
 -9.72672
 -9.89124
 -9.8869
 -9.47198
 -11.8436
 -12.4616
 -22.2538
 -22.7097
 -22.8423
 -23.3701
 -24.018
 -24.7351
 -24.2921
 -24.1682
 -7.79022
 -8.13575
 -7.68994
 -8.03001
 -19.0997
 -18.3338
 -18.7822
 -19.3
 -16.2475
 -15.4734
 -16.0637
 -16.5165
 -11.1753
 -10.774
 -11.369
 -11.074
 -23.1843
 -22.8471
 -22.6775
 -22.309
 -12.1129
 -11.6635
 -12.3841
 -12.1229
 -13.2892
 -12.9887
 -12.9695
 -13.7013
 -11.9233
 -11.6361
 -12.0187
 -12.0736
 -8.21629
 -8.61311
 -7.39467
 -7.64732
 -7.89296
 -7.46099
 -4.86709
 -4.46135
 -4.78732
 -4.88708
 -16.523
 -16.4692
 -16.2692
 -16.9235
 -15.4704
 -15.0525
 -14.9747
 -27.227
 -27.3047
 -27.3408
 -27.2668
 -27.903
 -28.2918
 -27.6758
 -24.7999
 -25.123
 -24.3037
 -14.9857
 -15.5836
 -15.9091
 -15.1728
 -18.1461
 -18.4442
 -18.7687
 -17.8387
 -22.1767
 -22.674
 -22.3629
 -22.7788
 -9.51442
 -9.13063
 -9.2205
 -9.45305
 -5.60661
 -5.84691
 -6.0273
 -6.01233
 -28.6235
 -28.8088
 -28.1272
 -29.1151
 -8.6633
 -8.54848
 -8.34846
 -8.71849
 -14.2335
 -14.1982
 -14.459
 -14.0867
 -29.0049
 -29.0362
 -28.3098
 -29.5227
 -16.6353
 -16.0956
 -16.8262
 -16.6356
 -11.4873
 -11.3
 -11.5127
 -11.3223
 -8.8413
 -8.5383
 -8.59493
 -6.56426
 -6.94061
 -6.71364
 -6.51068
 -7.60336
 -7.479
 -7.65009
 -7.44155
 -7.45665
 -7.37473
 -8.45446
 -8.6911
 -8.04265
 -20.8702
 -20.48
 -20.4196
 -20.3459
 -26.6355
 -26.376
 -26.4274
 -26.4201
 -17.632
 -17.3891
 -17.6221
 -16.8542
 -12.2368
 -23.345
 -23.6091
 -23.5648
 -23.1121
 -6.67
 -6.6536
 -6.63661
 -6.58233
 -27.0913
 -27.2996
 -27.0021
 -27.6559
 -10.4364
 -10.1896
 -10.7362
 -18.9578
 -6.64739
 -6.59582
 -6.3508
 -8.14094
 -7.91878
 -7.69582
 -8.26392
 -13.9261
 -13.8733
 -13.2029
 -13.7128
 -20.001
 -19.9778
 -19.5673
 -20.4526
 -12.2154
 -18.8632
 -18.5551
 -18.5171
 -12.4734
 -12.4205
 -12.5061
 -12.977
 -9.74001
 -9.85224
 -9.54927
 -9.52944
 -10.7974
 -10.308
 -10.6625
 -10.7607
 -19.096
 -8.47162
 -8.55292
 -8.69501
 -20.6981
 -20.3029
 -20.9048
 -20.4892
 -23.1953
 -22.9701
 -23.7181
 -22.7654
 -25.9384
 -26.2994
 -25.8743
 -9.61548
 -9.64383
 -9.38424
 -9.63945
 -6.02384
 -5.81792
 -6.00418
 -21.6048
 -21.6014
 -22.7962
 -22.5625
 -22.3035
 -22.2485
 -12.3935
 -12.541
 -12.8126
 -27.5223
 -27.4289
 -27.8836
 -27.4357
 -22.9203
 -22.7801
 -23.0516
 -23.1939
 -16.9305
 -17.1269
 -17.3425
 -17.5112
 -14.525
 -14.677
 -14.3506
 -13.9557
 -8.7969
 -8.76708
 -8.64963
 -8.9182
 -22.6586
 -22.6477
 -22.3213
 -23.0607
 -9.91537
 -10.0364
 -9.52471
 -10.9067
 -11.2616
 -11.3574
 -11.426
 -26.3006
 -26.0804
 -26.8757
 -26.5683
 -18.5997
 -18.677
 -18.5439
 -18.2745
 -28.0869
 -27.7029
 -27.2103
 -27.8862
 -10.6153
 -10.8745
 -11.0556
 -10.9965
 -14.2679
 -14.3926
 -13.8863
 -14.779
 -24.2442
 -24.1242
 -24.5618
 -24.3516
 -13.8061
 -14.1558
 -13.587
 -13.6945
 -28.0764
 -28.5116
 -28.1112
 -9.37844
 -9.23277
 -9.19408
 -9.2523
 -15.4563
 -15.4531
 -15.2115
 -14.9487
 -16.4883
 -16.9807
 -16.5486
 -16.6785
 -13.1647
 -12.9324
 -13.6385
 -13.0995
 -23.1038
 -23.121
 -23.7968
 -23.2831
 -12.7996
 -12.282
 -12.6187
 -12.4743
 -16.345
 -16.2065
 -16.2146
 -15.9492
 -6.49763
 -6.51339
 -6.46178
 -6.49771
 -21.4023
 -21.4956
 -21.0182
 -20.7186
 -6.29409
 -6.28437
 -6.27776
 -8.81742
 -8.63003
 -8.62696
 -8.84788
 -7.35613
 -7.55744
 -8.19378
 -7.66249
 -19.7424
 -19.6088
 -19.9646
 -20.3074
 -17.7543
 -18.4393
 -17.8436
 -18.023
 -10.3333
 -9.95714
 -10.018
 -9.77193
 -29.6832
 -29.3599
 -29.0213
 -1.71315
 -1.65901
 -16.2334
 -16.6283
 -15.9346
 -16.2369
 -4.09632
 -3.79522
 -3.47207
 -3.73747
 -17.6804
 -17.8448
 -18.422
 -18.0865
 -11.1426
 -9.95165
 -9.77043
 -9.6813
 -9.45002
 -20.3825
 -20.445
 -20.5865
 -20.8355
 -24.6658
 -24.2383
 -24.9767
 -24.4932
 -6.51053
 -6.50894
 -18.9037
 -19.2146
 -20.066
 -19.1356
 -15.2649
 -14.367
 -15.4056
 -14.8986
 -8.84852
 -8.83748
 -8.62379
 -9.32609
 -12.8292
 -12.3544
 -12.2853
 -12.8276
 -22.21
 -21.5426
 -22.9892
 -26.8195
 -26.6635
 -26.7071
 -26.693
 -28.7616
 -28.7394
 -28.9718
 -10.1855
 -9.96685
 -10.0277
 -10.2933
 -24.8419
 -24.5488
 -24.2663
 -24.2484
 -7.27684
 -7.03206
 -7.13082
 -7.19369
 -17.4799
 -17.2009
 -17.5356
 -16.824
 -15.1191
 -15.7349
 -15.231
 -15.2398
 -26.6961
 -26.7616
 -26.7003
 -27.0064
 -18.2853
 -18.5376
 -18.1932
 -17.8325
 -3.28938
 -3.13549
 -3.07761
 -3.29362
 -12.2105
 -11.5384
 -12.1372
 -11.7327
 -10.251
 -10.712
 -10.7518
 -10.1968
 -19.88
 -20.0732
 -19.5372
 -19.2103
 -7.68595
 -7.46089
 -7.37825
 -7.38596
 -16.0639
 -15.6943
 -15.6387
 -16.2422
 -9.67911
 -9.43722
 -9.31847
 -5.67783
 -5.51866
 -5.49154
 -5.42753
 -16.0511
 -16.5557
 -15.7785
 -17.1738
 -17.1488
 -16.8852
 -8.46274
 -8.15761
 -7.91003
 -7.70151
 -7.68253
 -7.82668
 -7.96048
 -24.5104
 0.381998
 0.27166
 0.315881
 0.486004
 -22.9422
 -22.6268
 -23.3862
 -22.8879
 -6.80612
 -10.8734
 -10.7828
 -10.724
 -11.2216
 -10.2468
 -9.963
 -10.7716
 -8.31693
 -8.82069
 -8.58391
 -8.44123
 -3.50024
 -3.46015
 -3.65537
 -3.23602
 -7.24068
 -7.48505
 -7.45298
 -14.4912
 -14.2432
 -14.2273
 -10.1523
 -9.9988
 -30.286
 -29.7564
 -29.7472
 -7.34965
 -7.67839
 -7.22805
 -10.5683
 -10.882
 -11.0575
 -24.763
 -25.3008
 -25.3113
 -20.3799
 -20.4038
 -20.9018
 -20.4918
 -8.69079
 -8.85094
 -9.00255
 -6.21408
 -5.90137
 -26.6367
 -26.3512
 -26.9821
 -26.7564
 -4.44064
 -4.53965
 -4.17514
 -4.75402
 -7.38434
 -7.26611
 -1.13677
 -0.946879
 -2.36785
 -2.3295
 -2.43822
 -10.7531
 -11.0449
 -10.582
 -26.0402
 -25.5329
 -25.0362
 -18.6149
 -18.5925
 -19.0971
 -8.97636
 -9.09432
 -9.44507
 -9.66568
 -9.32577
 -23.9565
 -6.14176
 -6.13765
 -6.26221
 -6.26932
 -10.4045
 -11.12
 -10.5752
 -10.6763
 -19.8327
 -19.8605
 -20.2456
 -18.4469
 -18.5561
 -18.2115
 -18.3554
 -10.7551
 -10.5975
 -11.0023
 -11.3415
 -19.2411
 -19.3394
 -19.9314
 -19.8788
 -20.7292
 -20.3271
 -20.6258
 -21.2148
 -13.2629
 -18.8763
 -19.2349
 -19.2151
 -19.4325
 -27.8128
 -28.0812
 -27.7454
 -27.5159
 -8.10756
 -7.50003
 -7.39134
 -7.8171
 -26.6348
 -27.2022
 -26.9496
 -26.8638
 -0.88938
 -1.03891
 -0.844468
 -25.972
 -25.6051
 -26.4506
 -26.3394
 -8.22764
 -8.15961
 -7.81952
 -7.84824
 -21.6916
 -21.1065
 -21.5543
 -21.9772
 -7.47169
 -7.50176
 -6.76396
 -6.92808
 -27.8228
 -21.7763
 -21.0372
 -21.3955
 -20.8355
 -24.4202
 -24.8826
 -24.7654
 -6.31884
 -6.46574
 -6.22294
 -6.11185
 -19.5982
 -19.2276
 -19.1739
 -18.8718
 -15.7753
 -16.3533
 -16.3659
 -16.1184
 -14.9738
 -15.2567
 -14.6514
 -14.5694
 -29.5581
 -29.0469
 -11.4604
 -11.4908
 -11.4245
 -10.8594
 -11.2206
 -11.3912
 -11.5598
 -19.2963
 -18.8651
 -19.7342
 -19.9194
 -18.8181
 -19.0488
 -19.0096
 -19.5278
 -16.2852
 -16.4448
 -16.7277
 -16.1166
 -8.46354
 -8.41492
 -9.40765
 -9.17357
 -9.14541
 -10.6045
 -10.898
 -10.893
 -10.9359
 -5.57628
 -5.31856
 -5.39989
 -5.38593
 -10.4636
 -10.0967
 -9.7856
 -3.56243
 -3.57022
 -3.83248
 -10.3902
 -10.3605
 -10.0156
 -10.6569
 -8.35237
 -8.77745
 -8.19037
 -12.7959
 -19.5679
 -19.2158
 -19.967
 -11.4487
 -11.3711
 -11.6754
 -11.8811
 -7.1885
 -7.19534
 -8.0158
 -7.60981
 -13.5481
 -13.9193
 -14.056
 -14.0568
 -21.4169
 -21.0347
 -29.6216
 -29.265
 -29.0213
 -29.6484
 -19.3908
 -19.43
 -19.7729
 -19.0159
 -11.7918
 -11.7323
 -11.6767
 -11.953
 -27.7904
 -27.8672
 -28.7512
 -27.4508
 -27.3798
 -27.5538
 -27.7483
 -13.9901
 -13.4531
 -13.2032
 -13.7307
 -6.81934
 -6.74331
 -6.96809
 -11.6447
 -11.6103
 -12.1127
 -11.6227
 -6.16783
 -5.82457
 -6.24383
 -5.7814
 -17.6823
 -17.7101
 -17.8678
 -16.6215
 -6.56434
 -6.56803
 -6.54227
 -6.6264
 -8.65886
 -8.85152
 -8.9494
 -8.80707
 -26.1579
 -25.5398
 -26.4015
 -25.711
 -13.9227
 -13.9562
 -13.5309
 -13.9826
 -10.2684
 -10.0472
 -10.3994
 -10.084
 -20.2413
 -20.2511
 -20.9044
 -21.8066
 -21.4642
 -21.3682
 -11.1041
 -11.5722
 -11.4242
 -12.0096
 -12.1381
 -12.4347
 -12.2627
 -12.239
 -6.99095
 -7.21913
 -6.93234
 -10.7963
 -10.5112
 -10.2844
 -0.173453
 0.03274
 -0.154251
 -0.0354406
 -8.88794
 -9.01463
 -6.29775
 -6.44939
 -6.29918
 -5.99128
 -15.3287
 -14.8107
 -15.267
 -14.6887
 -3.6408
 -3.99292
 -4.122
 -3.83384
 -7.84078
 -7.75745
 -7.43674
 -18.1776
 -18.2801
 -18.1623
 -17.9082
 -7.81839
 -8.13039
 -7.70752
 -7.14046
 -7.18297
 -6.82376
 -6.93504
 -10.4423
 -10.2463
 -10.2917
 -10.7072
 -20.5084
 -21.9122
 -2.25342
 -2.37933
 -8.61028
 -8.34041
 -12.0814
 -11.6817
 -11.8524
 -11.754
 -17.4289
 -17.9058
 -17.4869
 -18.1387
 -12.9431
 -13.0065
 -13.2492
 -13.3221
 -6.23037
 -5.7202
 -6.09325
 -5.97431
 -15.4971
 -14.9366
 -15.1846
 -6.92972
 -6.81801
 -6.93836
 -6.91943
 -24.7401
 -24.5788
 -25.1194
 -24.3193
 -17.671
 -17.6824
 -17.7722
 -17.1867
 -7.32952
 -7.52584
 -7.22589
 -11.9989
 -11.4908
 -11.9481
 -12.1467
 -6.16856
 -6.09547
 -6.21581
 -7.7135
 -8.10426
 -7.97692
 -7.77407
 -7.64881
 -7.58158
 -7.9093
 -7.68451
 -11.7476
 -11.3568
 -11.2972
 -11.1163
 -27.5984
 -27.3725
 -27.1427
 -27.1932
 -16.3107
 -16.8959
 -16.5964
 -16.8592
 -11.5006
 -10.9622
 -11.3319
 -14.1755
 -13.9543
 -13.9261
 -24.2655
 -23.4079
 -24.2037
 -23.6598
 -16.4432
 -16.4797
 -16.0158
 -16.7423
 -11.1783
 -11.5355
 -11.5714
 -11.6465
 -5.69684
 -5.73555
 -7.25648
 -7.07692
 -7.42575
 -7.43373
 -1.69239
 -1.60367
 -1.35405
 -1.65952
 -19.918
 -19.9729
 -20.0049
 -19.6723
 -8.13768
 -7.79149
 -7.87541
 -7.85045
 -13.0673
 -12.6639
 -12.9086
 -12.3955
 -5.14346
 -4.98847
 -5.05458
 -4.95255
 -14.5256
 -14.3154
 -14.0779
 -14.0786
 -11.8907
 -18.8927
 -18.7983
 -18.2279
 -18.4005
 -11.26
 -10.7632
 -10.6874
 -11.0881
 -10.9155
 -11.1632
 -11.4604
 -11.2976
 -9.84444
 -9.46599
 -9.57922
 -9.39986
 -7.29592
 -6.96241
 -7.49831
 -22.1354
 -22.2414
 -22.3766
 -21.3027
 -10.8815
 -10.7552
 -10.7553
 -10.6063
 -21.5781
 -21.7659
 -22.2621
 -18.0087
 -17.5514
 -17.8904
 -17.7259
 -20.5699
 -21.4718
 -21.0261
 -21.5712
 -6.77813
 -7.07715
 -6.71688
 0.503258
 0.407378
 0.381231
 -18.4355
 -19.1536
 -18.9723
 -14.6433
 -15.4827
 -15.0934
 -15.6568
 -10.3204
 -10.4648
 -10.6378
 -10.2646
 -11.5786
 -11.6998
 -11.1392
 -11.2689
 -2.99783
 -3.19014
 -2.7283
 -3.22178
 -13.1215
 -12.9012
 -12.839
 -12.7938
 -15.8829
 -15.9985
 -16.2759
 -15.5832
 -7.98574
 -8.03733
 -8.87963
 -8.22224
 -8.54681
 -8.59169
 -18.4219
 -17.9973
 -18.3331
 -18.2131
 -7.7202
 -8.06888
 -16.4207
 -16.15
 -6.40627
 0.0664909
 0.108618
 0.0664384
 -0.107746
 -5.04432
 -5.36328
 -28.6101
 -29.2535
 -28.7421
 -5.85051
 -6.13066
 -6.40463
 -6.13657
 -19.0915
 -18.985
 -8.67974
 -8.59109
 -8.63888
 -8.6742
 -9.74401
 -10.4262
 -10.193
 -19.0792
 -19.4789
 -19.2156
 -19.8174
 -16.8142
 -17.3698
 -16.8506
 -17.0859
 -22.8917
 -22.9888
 -23.657
 -11.4771
 -11.0729
 -11.5271
 -10.9391
 -12.8092
 -22.9876
 -22.1035
 -22.8023
 -22.6269
 -6.28107
 -6.21828
 -6.36349
 -6.49533
 -13.9188
 -13.4521
 -13.8904
 -13.4326
 -19.9997
 -19.2231
 -19.7803
 -19.3043
 -1.03775
 -1.11307
 -1.19254
 -1.23676
 -7.31545
 -27.6956
 -10.6118
 -11.1786
 -10.7987
 -10.4063
 -13.8174
 -14.1915
 -13.6338
 -13.5091
 -8.33799
 -7.90453
 -8.12878
 -8.25352
 -14.5233
 -14.3
 -14.5282
 -14.6281
 -7.02063
 -7.08719
 -7.35966
 -6.82969
 -7.08319
 -7.29405
 -7.06331
 -11.469
 -11.8283
 -11.2014
 -11.4866
 -20.1525
 -20.5419
 -19.4906
 -29.4988
 -30.0271
 -29.578
 -29.4144
 -2.76038
 -2.52476
 -2.46706
 -12.4487
 -12.4739
 -11.7364
 -11.9036
 -11.4688
 -12.0837
 -25.5945
 -25.3699
 -25.5116
 -25.8244
 -18.4345
 -18.0119
 -18.2681
 -17.8381
 -7.25451
 -7.75853
 -7.41349
 -4.45757
 -11.1135
 -10.675
 -10.8124
 -11.1252
 -12.1323
 -12.3834
 -12.2965
 -17.8808
 -17.6228
 -17.6104
 -18.0583
 -20.2572
 -19.5488
 -20.0498
 -19.7167
 -10.7619
 -10.5077
 -18.7969
 -18.7166
 -19.0737
 -19.4751
 -14.8787
 -14.7236
 -14.7942
 -15.2571
 -27.2359
 -27.4719
 -15.9742
 -15.4902
 -16.0095
 -15.755
 -18.7017
 -18.9738
 -19.1465
 -19.2992
 -17.7907
 -18.1497
 -17.7525
 -17.8406
 -12.5852
 -12.8087
 -11.3889
 -11.6331
 -11.2877
 -11.054
 -9.66027
 -9.32438
 -9.49859
 -9.55574
 -14.7881
 -15.1127
 -15.1429
 -14.779
 -6.9832
 -7.23986
 -7.38398
 -7.53856
 -8.28721
 -8.22845
 -8.09328
 -8.22631
 -2.1632
 -2.28444
 -2.25251
 -2.00211
 -9.63401
 -9.06433
 -14.3001
 -13.6109
 -14.1498
 -13.8885
 -10.6921
 -10.5814
 -10.8529
 -11.0861
 -13.4782
 -13.7753
 -13.9512
 -13.6557
 -11.6076
 -11.6329
 -19.0185
 -18.7496
 -28.6648
 -28.7957
 -28.7637
 -28.9819
 -6.10191
 -11.3321
 -11.304
 -11.4485
 -11.7396
 -13.3577
 -12.8788
 -12.993
 -13.0061
 -8.9723
 -8.74987
 -8.64414
 -8.36383
 -17.7799
 -17.1166
 -17.7615
 -17.1731
 -13.7634
 -13.4465
 -13.2873
 -13.7288
 -6.99454
 -6.895
 -7.12691
 -6.84849
 -6.70366
 -10.2845
 -10.7663
 -10.2544
 -10.5932
 -10.1676
 -10.7636
 -10.2416
 -10.1317
 -7.32142
 -7.326
 -7.04953
 -7.30226
 -8.21723
 -8.33846
 -8.79712
 -8.5973
 -11.8147
 -12.1839
 -11.5696
 -11.5341
 -7.1851
 -7.00515
 -6.91012
 -7.01897
 -14.4308
 -14.6318
 -13.9639
 -8.98337
 -8.97257
 -8.93182
 -8.84664
 -3.79668
 -3.99819
 -14.2226
 -14.5458
 -14.6826
 -13.8208
 -14.405
 -14.1489
 -14.4228
 -6.32224
 -6.55216
 -6.68908
 -5.45188
 -5.59244
 -5.60707
 -5.47107
 -16.2495
 -16.2069
 -16.4901
 -15.926
 -13.8578
 -13.2407
 -13.9198
 -21.206
 -20.2537
 -20.6454
 -12.3869
 -12.0388
 -12.1298
 -22.7905
 -22.8445
 -22.8394
 -1.67019
 -1.49352
 -1.51856
 -1.65899
 -27.4396
 -27.5923
 -27.3418
 -27.628
 -9.57245
 -9.26362
 -14.901
 -14.359
 -7.2698
 -7.32261
 -7.25665
 -7.55787
 -15.6826
 -15.541
 -16.1324
 -19.3383
 -19.7949
 -19.73
 -19.8249
 -22.6533
 -21.8082
 -6.37361
 -6.40922
 -6.2924
 -14.3224
 -14.2249
 -13.7999
 -8.46505
 -8.08985
 -8.47184
 -6.46768
 -6.46674
 -6.35901
 -6.22572
 -11.1391
 -11.2913
 -10.8906
 -11.4274
 -10.6074
 -10.1579
 -10.2981
 -10.5394
 -17.2821
 -17.0932
 -17.0658
 -17.6496
 -19.1687
 -18.8333
 -19.0571
 -18.4539
 -10.2166
 -10.1688
 -10.5406
 -16.2947
 -16.1834
 -15.8677
 -18.2275
 -18.6451
 -18.2627
 -18.3289
 -30.3806
 -30.1134
 -30.5469
 -12.7708
 -12.6998
 -12.6725
 -17.7965
 -18.1089
 -17.4085
 -12.2357
 -12.5137
 -11.9613
 -9.34191
 -8.90823
 -8.9978
 -6.40033
 -6.54852
 -6.45844
 -6.50861
 -12.385
 -12.0114
 -12.469
 -12.1154
 -8.72463
 -8.57707
 -8.3133
 -7.13721
 -7.48037
 -17.4887
 -17.1353
 -17.98
 -17.446
 -17.4961
 -17.9197
 -17.3276
 -16.9223
 -7.40759
 -7.7369
 -7.90867
 -8.03828
 -7.08639
 -6.78206
 -6.9448
 -6.76564
 -4.74948
 -4.60114
 -4.76533
 -4.5025
 -25.1739
 -25.4632
 -21.9274
 -21.2212
 -21.564
 -21.9738
 -27.074
 -9.15056
 -9.54324
 -9.09348
 -13.1257
 -13.2883
 -12.9027
 -12.8122
 -7.34087
 -7.27962
 -11.9431
 -11.8811
 -12.19
 -6.07884
 -6.20195
 -21.0364
 -21.1258
 -21.6939
 -20.6931
 -23.1494
 -23.0408
 -23.9449
 -23.5454
 -19.849
 -19.9896
 -19.3451
 -9.4773
 -9.75608
 -9.73368
 -22.651
 -22.616
 -22.8349
 -23.0099
 -8.55433
 -8.09088
 -8.44495
 -8.60726
 -20.3245
 -19.9461
 -19.9109
 -20.3209
 -8.70057
 -8.28613
 -8.1958
 -8.86479
 -6.82729
 -6.96104
 -6.68654
 -27.2434
 -28.1533
 -27.6677
 -27.5442
 -6.66755
 -6.76997
 -6.72034
 -11.0747
 -11.2636
 -11.5929
 -11.3829
 -25.9913
 -26.5951
 -26.2612
 -8.61092
 -8.31951
 -8.63863
 -8.41433
 -16.2779
 -24.7789
 -25.0827
 -23.9138
 -24.6385
 -5.95338
 -6.03249
 -6.17988
 -6.02336
 -17.8934
 -17.0335
 -17.644
 -17.9229
 -12.7559
 -12.9201
 -12.2595
 -6.83018
 -6.61669
 -6.89045
 -6.22428
 -16.6959
 -16.6329
 -16.9649
 -8.138
 -8.01482
 -1.9263
 -1.69731
 -1.96419
 -2.09125
 -4.92257
 -4.26734
 -4.2247
 -23.0222
 -22.7421
 -24.2115
 -23.3613
 -23.3088
 -23.6248
 -5.32864
 -5.4465
 -5.1048
 -5.51293
 -10.5309
 -10.7383
 -10.7216
 -10.8548
 -11.8178
 -11.2493
 -11.303
 -11.4901
 -14.0701
 -13.904
 -14.4412
 -13.9297
 -14.326
 -13.576
 -14.0712
 -13.6916
 -25.7268
 -6.94213
 -6.82303
 -6.96132
 -6.86628
 -26.3363
 -26.0137
 -26.6278
 -14.7832
 -14.2543
 -14.0582
 -14.2415
 -6.42111
 -6.73761
 -6.82801
 -13.545
 -13.1504
 -13.4642
 -13.1159
 -12.3843
 -17.1412
 -17.3277
 -17.8716
 -17.6816
 -8.6433
 -8.65784
 -8.63662
 -12.3979
 -13.1884
 -12.931
 -26.5419
 -26.2611
 -25.7325
 -26.2183
 -12.1249
 -11.9567
 -11.8532
 -1.01905
 -1.12353
 -0.86516
 -12.1084
 -11.8096
 -12.0494
 -11.4286
 -17.4945
 -17.9754
 -17.8886
 -12.8113
 -12.8514
 -22.8121
 -23.0007
 -22.4763
 -22.5061
 -19.8408
 -20.3029
 -19.9914
 -19.9695
 -27.7721
 -27.6356
 -27.2933
 -27.0359
 -14.1162
 -13.237
 -13.8672
 -14.0638
 -18.5903
 -18.4893
 -18.2444
 -17.9775
 -22.8445
 -23.2488
 -23.6144
 -8.18566
 -8.40246
 -7.86096
 -8.04265
 -11.6289
 -12.0575
 -9.81774
 -9.54942
 -9.88384
 -9.72065
 -17.3479
 -17.2162
 -17.2815
 -17.592
 -12.0753
 -12.5039
 -12.3379
 -11.9679
 -17.0314
 -16.7645
 -17.4907
 -16.8823
 -12.6729
 -12.8082
 -13.1551
 -13.2246
 -12.2122
 -11.8302
 -11.8941
 -22.1301
 -21.7074
 -22.0895
 -25.1494
 -25.0263
 -24.8679
 -25.878
 -23.8064
 -23.7105
 -24.1562
 -18.7874
 -19.4597
 -18.866
 -2.70836
 -2.63694
 -2.45546
 -11.5384
 -12.0651
 -11.6466
 -21.6845
 -21.9893
 -21.743
 -21.6089
 -11.518
 -11.7163
 -11.4821
 -14.2834
 -14.5341
 -14.368
 -14.0453
 -16.3503
 -15.2747
 -15.6637
 -15.5812
 -12.4365
 -12.767
 -12.7165
 -13.0389
 -7.62928
 -7.8537
 -7.66446
 -7.52434
 -11.6883
 -14.3172
 -14.3147
 -14.5806
 -13.7021
 -6.61783
 -6.70464
 -6.74149
 -6.72651
 -6.43258
 -6.68158
 -6.50875
 -6.66707
 -7.12142
 -7.26864
 -7.20424
 -7.01552
 -16.4912
 -16.4725
 -17.0472
 -17.3401
 -8.33059
 -8.09785
 -8.25197
 -8.31637
 -27.6508
 -27.0981
 -27.6074
 -27.1536
 -4.39241
 -4.5346
 -4.74749
 -4.71407
 -8.12343
 -8.15627
 -8.08876
 -5.88338
 -5.68909
 -5.55901
 -5.60082
 -7.00776
 -6.8121
 -7.2207
 -6.87458
 -6.91319
 -13.1284
 -13.0433
 -13.3255
 -14.0457
 -25.3145
 -24.7157
 -24.4814
 -25.0731
 -24.9669
 -25.3273
 -24.7992
 -7.33234
 -7.12493
 -26.8746
 -27.3256
 -26.7107
 -22.329
 -22.1907
 -22.2713
 -22.8263
 -6.97616
 -6.82507
 -7.00131
 -27.5939
 -27.7565
 -27.4237
 -27.9262
 -9.74189
 -9.83947
 -10.116
 -9.516
 -7.33552
 -6.90219
 -7.05798
 -7.37731
 -5.69948
 -6.14302
 -5.96123
 -5.86774
 -3.43741
 -3.5128
 -3.27647
 -3.28721
 -15.3909
 -16.2913
 -15.8758
 -16.1492
 -10.1054
 -10.145
 -9.97063
 -9.49021
 -27.3005
 -26.8021
 -27.2767
 -0.742401
 -1.0163
 -0.837547
 -1.13872
 -4.89242
 -5.21621
 -5.00548
 -5.2847
 -27.3067
 -27.9482
 -27.6429
 -27.5669
 -12.6234
 -12.6828
 -13.0868
 -23.539
 -24.3743
 -24.5106
 -7.56103
 -7.52236
 -7.10051
 -27.399
 -27.0764
 -26.9141
 -27.1786
 -22.1697
 -21.8679
 -21.7145
 -21.2763
 -8.64611
 -8.85935
 -9.15404
 -8.83515
 -10.1221
 -9.73682
 -10.0736
 -9.60205
 -20.1279
 -20.1333
 -20.2075
 -20.8349
 -13.644
 -13.3849
 -13.0511
 -13.283
 -4.11975
 -4.40757
 -4.42998
 -4.37496
 -22.8856
 -21.7425
 -22.4809
 -22.1435
 -28.0536
 -13.0729
 -13.1972
 -13.5125
 -13.4927
 -24.7735
 -25.1781
 -24.9772
 -25.6555
 -6.70017
 -6.70546
 -6.73855
 -6.75014
 -26.8311
 -27.2307
 -26.5797
 -26.361
 -12.1547
 -12.0196
 -10.2625
 -10.0521
 -10.3629
 -10.4712
 -19.6663
 -19.0575
 -19.0432
 -19.0624
 -14.3323
 -14.8624
 -14.7207
 -10.0046
 -9.94395
 -10.0896
 -19.8944
 -19.7571
 -19.1736
 -19.2483
 -18.4724
 -18.1775
 -18.7415
 -18.2906
 -7.49698
 -7.24143
 -7.19308
 -12.4082
 -13.3746
 -13.4103
 -12.8048
 -4.2825
 -4.36555
 -4.67093
 -4.25174
 -3.99747
 -27.3737
 -26.2077
 -27.3833
 -26.639
 -13.1854
 -12.9323
 -12.723
 -13.1793
 -23.489
 -23.9075
 -11.357
 -10.7508
 -10.8121
 -8.39379
 -8.06634
 -8.59569
 -8.50115
 -26.8171
 -26.5173
 -27.1152
 -27.0194
 -7.02605
 -7.11765
 -7.08077
 -8.56818
 -8.44118
 -8.72915
 -8.47346
 -9.93701
 -10.3855
 -10.0389
 -9.5695
 -17.3211
 -18.2646
 -17.6011
 -17.8674
 -7.9972
 -8.45457
 -8.20919
 -8.14974
 -19.2584
 -15.5152
 -16.1271
 -16.2936
 -15.3668
 -24.8735
 -25.0661
 -24.3841
 -26.2409
 -26.0089
 -25.9736
 -25.5446
 -15.8284
 -16.1578
 -15.5106
 -15.8259
 -28.759
 -28.6775
 -28.6043
 -28.0559
 -9.8406
 -14.6938
 -14.0151
 -14.0335
 -14.5185
 -13.2674
 -12.5603
 -12.9188
 -13.01
 -3.49033
 -3.79305
 -3.87356
 -3.57045
 -11.8682
 -11.9863
 -12.142
 -11.6218
 -11.0406
 -11.083
 -11.218
 -11.4501
 -11.4857
 -11.5331
 -11.907
 -23.5761
 -23.0741
 -22.8532
 -11.136
 -10.6555
 -10.7581
 -10.9717
 -22.7788
 -23.5878
 -23.1708
 -12.5322
 -12.1888
 -13.5136
 -13.8357
 -13.69
 -13.5928
 -13.435
 -13.5728
 -12.9927
 -13.0959
 -13.6794
 -13.4785
 -24.3444
 -24.6005
 -24.5955
 -9.94199
 -25.929
 -14.2881
 -14.618
 -14.2054
 -13.7931
 -7.10106
 -7.11305
 -6.7717
 -7.85697
 -8.206
 -8.37039
 -13.4231
 -13.6259
 -13.1047
 -12.2402
 -12.222
 -12.4186
 -12.6674
 -13.0654
 -12.6824
 -13.3719
 -12.7727
 -0.775237
 -0.832844
 -0.59304
 -19.9267
 -19.3294
 -19.8227
 -12.1647
 -12.2717
 -21.4684
 -20.7036
 -20.9598
 -20.6448
 -14.9675
 -15.3983
 -14.9569
 -3.64944
 -3.73802
 -3.40653
 -3.52519
 -11.1166
 -10.6639
 -11.0737
 -10.6604
 -7.67709
 -7.52193
 -7.36818
 -7.27455
 -17.1732
 -16.4379
 -16.8767
 -17.1537
 -9.35275
 -9.02427
 -9.3025
 -8.84561
 -4.35775
 -4.31573
 -4.32036
 -9.91547
 -9.77619
 -9.5732
 -9.67578
 -17.1817
 -17.8067
 -17.5587
 -17.6346
 -12.6983
 -13.2043
 -13.2504
 -12.9704
 -8.15553
 -7.99735
 -8.19796
 -10.5879
 -10.2656
 -10.4048
 -10.3531
 -7.83253
 -7.4674
 -7.88084
 -7.5718
 -6.29333
 -6.67712
 -6.58096
 -6.18278
 -26.9674
 -27.214
 -26.9685
 -27.1485
 -7.15979
 -7.40752
 -7.32366
 -7.41588
 -7.9874
 -7.75033
 -8.08347
 -8.07032
 -16.1656
 -16.7967
 -16.634
 -17.0196
 -9.79045
 -9.7041
 -10.0804
 -9.89706
 -30.0667
 -30.1424
 -30.1083
 -30.287
 -11.3982
 -11.2129
 -11.5997
 -6.56821
 -6.35448
 -6.43254
 -6.72785
 -7.03254
 -6.89878
 -6.98788
 -6.8912
 -7.34329
 -6.82455
 -18.2184
 -17.5975
 -18.1227
 -17.3911
 -29.692
 -29.4769
 -29.6609
 -29.5647
 -10.5594
 -10.1728
 -10.3741
 -10.1489
 -7.49225
 -7.30146
 -7.27565
 -16.8874
 -16.3097
 -16.3198
 -16.7525
 -11.5267
 -11.5092
 -11.638
 -12.0356
 -8.39
 -8.4274
 -8.37314
 -8.67591
 -6.39568
 -6.85119
 -6.57803
 -20.4576
 -21.0888
 -21.3667
 -20.5726
 -22.4076
 -22.2688
 -21.7569
 -10.6604
 -10.5909
 -10.8756
 -11.1375
 -11.0091
 -10.85
 -11.3042
 -8.32642
 -8.7033
 -8.8834
 -8.73085
 -16.6615
 -16.4316
 -16.0981
 -7.29657
 -7.28412
 -6.94985
 -13.0483
 -13.5242
 -13.3455
 -22.3596
 -21.6349
 -22.1556
 -17.6372
 -17.5354
 -9.77374
 -10.0316
 -9.69422
 -10.015
 -10.1581
 -9.98761
 -12.069
 -11.5484
 -8.61314
 -6.05302
 -6.09655
 -5.85116
 -23.1423
 -23.0594
 -22.1348
 -10.5853
 -10.9236
 -10.8002
 -10.5362
 -8.69119
 -12.707
 -12.9965
 -16.9647
 -17.2085
 -16.8249
 -17.3642
 -12.6193
 -12.2897
 -12.7485
 -10.8101
 -11.0315
 -10.4385
 -10.8472
 -9.89416
 -10.5722
 -11.129
 -10.8
 -10.5954
 -11.291
 -23.8808
 -23.2688
 -23.1386
 -23.6257
 -24.3369
 -24.7373
 -25.3676
 -25.2388
 -7.24022
 -7.50588
 -12.5199
 -12.5183
 -12.3288
 -11.96
 -14.4811
 -14.609
 -14.8355
 -15.0303
 -16.089
 -16.5622
 -16.0871
 -15.9777
 -11.9872
 -11.6829
 -11.5455
 -12.017
 -11.1962
 -11.5014
 -11.2783
 -11.1085
 -22.2194
 -21.3908
 -22.2193
 -22.093
 -7.6259
 -8.02285
 -8.12618
 -8.38662
 -7.66124
 -8.04738
 -7.84658
 -20.1439
 -20.6728
 -21.3475
 -21.6289
 -8.21822
 -8.48657
 -8.37929
 -8.62663
 -25.8499
 -25.4826
 -25.8885
 -25.7048
 -22.7614
 -22.427
 -22.6813
 -22.2398
 -10.2359
 -10.4448
 -10.0915
 -10.2692
 -17.8614
 -18.07
 -17.7862
 -17.2296
 -8.5125
 -8.70391
 -8.98874
 -9.07621
 -19.9009
 -19.5324
 -19.6241
 -7.23788
 -7.44507
 -7.18937
 -7.32425
 -15.2897
 -15.0629
 -15.4035
 -15.595
 -9.89771
 -10.0089
 -19.0607
 -20.0235
 -19.566
 -19.4118
 -20.1784
 -20.0357
 -19.6121
 -11.4733
 -12.0598
 -11.5503
 -20.9546
 -20.9896
 -21.2426
 -21.6439
 -4.47099
 -4.55453
 -4.76331
 -4.68914
 -8.44678
 -8.59152
 -8.86603
 -8.9846
 -15.4234
 -14.7665
 -14.8502
 -15.4477
 -24.2237
 -24.4285
 -23.9813
 -24.5259
 -22.6858
 -23.2481
 -23.3054
 -22.8619
 -24.2935
 -24.1638
 -24.3708
 -24.0718
 -24.3514
 -9.23076
 -9.45556
 -9.18897
 -9.54597
 -7.62126
 -7.71781
 -7.23145
 -7.55579
 -8.99447
 -9.0032
 -9.88325
 -10.2903
 -9.98618
 -9.92978
 -10.9428
 -10.9588
 -11.4201
 -10.955
 -7.74395
 -7.75039
 -7.48797
 -13.339
 -13.0388
 -13.1149
 -12.9377
 -30.3672
 -30.2186
 -29.8454
 -9.42059
 -9.34525
 -9.48134
 -9.85336
 -21.2066
 -20.4148
 -20.8949
 -21.0923
 -17.2918
 -17.912
 -17.6723
 -12.6824
 -12.422
 -12.8911
 -17.7467
 -18.3648
 -17.8164
 -22.1474
 -21.7689
 -17.2013
 -17.2524
 -17.2311
 -8.59382
 -8.73615
 -8.82383
 -8.42414
 -25.1021
 -25.4812
 -25.1386
 -24.9416
 -15.4158
 -15.9725
 -15.683
 -3.00813
 -2.69142
 -2.59016
 -2.96359
 -6.74492
 -6.58047
 -14.1977
 -9.96504
 -10.5147
 -10.1381
 -9.96864
 -13.2764
 -13.8104
 -13.7906
 -19.4561
 -19.4931
 -19.0588
 -19.5238
 -26.4437
 -26.6519
 -12.4096
 -12.2523
 -12.2698
 -11.9618
 -6.34227
 -6.06116
 -6.04732
 -6.36965
 -23.069
 -23.3932
 -23.3698
 -23.0921
 -15.3548
 -15.5801
 -15.2541
 -1.23058
 -1.09994
 -0.920719
 -0.92787
 -7.29883
 -7.23901
 -6.9877
 -9.21151
 -9.51791
 -8.98955
 -9.31051
 -15.1779
 -15.26
 -14.9958
 -15.6332
 -12.5736
 -12.9223
 -6.52792
 -6.61416
 -6.58479
 -6.59885
 -15.7611
 -16.3095
 -9.19735
 -8.71365
 -8.89523
 -9.04504
 -10.5695
 -10.7416
 -10.2695
 -10.5959
 -12.733
 -13.2262
 -13.3739
 -13.0034
 -8.91675
 -8.73045
 -8.33271
 -17.1483
 -16.4769
 -17.2011
 -16.5937
 -20.429
 -20.9781
 -21.4688
 -20.5645
 -19.5976
 -19.6178
 -19.7178
 -20.1728
 -6.11156
 -5.81446
 -5.99735
 -5.74303
 -12.8412
 -12.5267
 -2.33724
 -2.09035
 -2.16376
 -1.9144
 -10.5508
 -10.1936
 -9.99797
 -26.7046
 -0.13312
 -0.207563
 -0.216874
 0.116182
 -12.046
 -12.264
 -12.0205
 -12.0506
 -9.61874
 -9.99872
 -9.74892
 -19.9562
 -20.4843
 -20.4961
 -19.92
 -20.2063
 -19.9834
 -20.6671
 -20.6717
 -19.5129
 -19.8097
 -19.3053
 -19.0885
 -8.72096
 -9.0251
 -8.53302
 -9.00642
 -7.32572
 -7.21343
 -7.00121
 -7.04485
 -15.968
 -16.0025
 -16.5863
 -15.95
 -10.8072
 -10.262
 -11.0214
 -10.6512
 -29.4951
 -24.5262
 -24.6212
 -14.889
 -14.8749
 -11.0148
 -10.6768
 -10.7714
 -25.0871
 -25.9863
 -25.4572
 -25.2276
 -11.7588
 -11.5753
 -14.7174
 -14.3028
 -3.6282
 -3.91973
 -3.59654
 -3.90804
 -8.67344
 -8.52888
 -8.2774
 -8.44635
 -15.5929
 -16.248
 -15.7214
 -16.0529
 -4.19942
 -3.90853
 -4.13948
 -4.26976
 -27.9865
 -27.8081
 -28.3499
 -27.9463
 -24.5222
 -23.8947
 -26.1848
 -25.7368
 -25.1899
 -26.2628
 -20.6234
 -21.1195
 -10.0791
 -10.2443
 -9.95592
 -0.543613
 -0.772045
 -0.470917
 -0.505345
 -4.55179
 -4.75653
 -4.82538
 -4.56846
 -24.8883
 -25.3239
 -24.8824
 -24.6036
 -18.0556
 -18.8297
 -18.363
 -13.6417
 -13.1696
 -12.8679
 -13.3516
 -9.15534
 -9.64999
 -9.23076
 -9.10408
 -22.2133
 -22.7853
 -22.5424
 -25.0404
 -13.0605
 -13.6564
 -8.81573
 -8.94556
 -17.0882
 -17.7808
 -16.9695
 -17.1951
 -7.42677
 -7.03176
 -7.55769
 -7.00609
 -7.00977
 -6.70328
 -6.79992
 -0.922653
 -1.30061
 -1.22579
 -1.12792
 -9.20663
 -9.42984
 -9.40277
 -9.73504
 -22.6162
 -22.7058
 -21.3991
 -21.8703
 -21.7058
 -21.8659
 -8.4673
 -8.4369
 -8.78603
 -8.24323
 -19.4888
 -19.158
 -19.6976
 -17.3925
 -17.4563
 -17.5537
 -17.0749
 -21.6734
 -21.9925
 -21.3641
 -22.1484
 -9.093
 -9.46402
 -9.33353
 -9.14882
 -26.3872
 -25.4984
 -11.1879
 -2.93179
 -3.07091
 -3.22156
 -3.34681
 -19.3345
 -19.2448
 -19.695
 -4.58448
 -4.37633
 -4.4753
 -4.2805
 -17.1396
 -17.0712
 -17.0341
 -17.548
 -6.70983
 -6.69666
 -6.37365
 -6.78732
 -7.82326
 -7.75515
 -8.04947
 -8.11003
 -16.3715
 -16.7489
 -16.7565
 -9.90648
 -10.0669
 -9.82193
 -9.58343
 -15.661
 -15.5093
 -15.867
 -15.0767
 -14.3467
 -14.0512
 -20.7829
 -20.9845
 -20.9443
 -17.4613
 -17.5301
 -17.0295
 -2.76249
 -2.80795
 -3.0656
 -2.84518
 -7.27505
 -7.56904
 -7.11924
 -7.67744
 -22.4832
 -21.6541
 -21.7227
 -21.6765
 -20.983
 -20.8494
 -8.20464
 -8.89646
 -8.26701
 -17.4195
 -16.8234
 -17.0026
 -16.7177
 -17.2299
 -17.1191
 -16.8726
 -8.80297
 -8.62217
 -8.85279
 -8.91646
 -25.2632
 -25.3625
 -10.2023
 -10.0611
 -10.2031
 -10.4559
 -8.55377
 -8.58586
 -8.7184
 -17.9841
 -18.1622
 -12.3463
 -12.1093
 -12.3414
 -12.695
 -6.81573
 -6.70641
 -16.1027
 -15.987
 -10.231
 -9.66394
 -9.74588
 -10.058
 -13.4052
 -13.3891
 -13.0765
 -13.7288
 -13.352
 -13.0734
 -13.3609
 -5.50169
 -5.52425
 -5.38839
 -5.95257
 -4.45596
