 30.2857
 30.1524
 30.2124
 30.1361
 28.3059
 28.3117
 28.238
 28.207
 28.8163
 28.8776
 28.799
 28.8878
 28.7315
 28.7727
 28.8493
 28.8498
 27.833
 27.7443
 27.8633
 27.8773
 27.8644
 27.9165
 27.8173
 27.8973
 30.8068
 30.9227
 30.8903
 30.7957
 30.6994
 30.6661
 30.6699
 30.7381
 27.8221
 27.8559
 27.9232
 27.8446
 27.8837
 27.8767
 27.8997
 27.8005
 31.0977
 31.1897
 31.0533
 31.0352
 28.7091
 28.708
 28.7712
 28.7232
 29.7918
 29.8182
 29.878
 29.7373
 28.3869
 28.467
 28.5043
 28.4466
 29.0948
 29.1041
 29.0619
 29.0101
 30.466
 30.5487
 30.4182
 30.548
 28.103
 28.0524
 28.101
 28.0242
 28.5473
 28.5897
 28.5307
 28.5812
 29.15
 29.1383
 29.1302
 29.0886
 28.0316
 28.0508
 28.0112
 27.9452
 30.594
 30.7087
 30.6028
 30.6661
 27.653
 27.66
 27.5782
 27.5613
 31.7387
 31.8076
 31.7726
 31.6768
 28.5306
 28.4775
 28.5412
 28.5612
 29.262
 29.3
 29.192
 29.1921
 29.0057
 29.0029
 29.0394
 29.064
 29.5468
 29.4722
 29.4301
 29.5248
 30.4627
 30.5336
 30.4366
 30.4422
 29.8139
 29.8424
 29.9303
 29.8706
 28.4484
 28.4628
 28.4809
 28.5379
 29.1699
 29.0317
 29.1932
 29.152
 29.7547
 29.6713
 29.6911
 29.7482
 28.6796
 28.7521
 28.6819
 28.7435
 28.2746
 28.3081
 28.3079
 28.3033
 29.7975
 29.8898
 29.7933
 29.9201
 30.3946
 30.4049
 30.4382
 30.4331
 28.777
 28.8611
 28.8065
 28.7942
 30.7703
 30.749
 30.7006
 30.7156
 28.5335
 28.519
 28.4012
 28.4275
 27.451
 27.5274
 27.4611
 27.5442
 28.954
 28.9796
 28.9446
 29.0333
 28.4746
 28.417
 28.4403
 28.4857
 30.7615
 30.7687
 30.66
 30.8281
 28.6924
 28.7496
 28.7269
 28.6544
 27.7845
 27.8103
 27.7511
 27.7885
 30.0125
 29.934
 29.973
 30.0105
 28.6604
 28.5579
 28.5855
 28.5628
 30.3612
 30.2509
 30.3006
 30.3992
 29.8104
 29.8565
 29.887
 29.9117
 29.1333
 29.1847
 29.1985
 29.2564
 30.5283
 30.5873
 30.6174
 30.495
 28.9054
 28.9809
 28.9591
 28.9202
 29.728
 29.8059
 29.6873
 29.8313
 28.9801
 28.9272
 28.9453
 28.9342
 29.9461
 29.8627
 29.9279
 29.8163
 28.773
 28.7836
 28.7238
 28.8456
 28.4439
 28.4579
 28.4053
 28.3525
 28.4613
 28.5181
 28.4858
 28.5801
 30.032
 30.0687
 30.1653
 30.0075
 29.4614
 29.499
 29.5139
 29.4066
 31.6872
 31.6981
 31.7923
 31.7161
 29.9002
 29.9181
 29.9944
 29.9122
 29.2495
 29.1273
 29.1931
 29.1816
 29.6493
 29.6496
 29.5588
 29.7091
 29.8034
 29.719
 29.795
 29.7142
 30.5443
 30.6036
 30.4958
 30.5218
 28.0264
 27.9492
 27.9003
 28.0269
 27.8457
 27.826
 27.7864
 27.7628
 29.1128
 29.0137
 29.1648
 29.1149
 29.8667
 29.8846
 29.8345
 29.9247
 28.495
 28.4706
 28.4271
 28.5013
 30.6306
 30.7991
 30.7465
 30.7571
 30.6132
 30.7234
 30.7363
 30.6524
 31.9567
 32.0454
 31.9644
 31.9546
 28.8762
 28.7684
 28.8414
 28.7682
 30.069
 29.9928
 29.9736
 30.0676
 30.2102
 30.2802
 30.1431
 30.1837
 27.7316
 27.6489
 27.6749
 27.6382
 30.4548
 30.5232
 30.6044
 30.4919
 30.2422
 30.2831
 30.3409
 30.24
 30.0724
 30.0102
 30.0861
 30.1513
 29.3299
 29.3268
 29.2659
 29.2653
 30.1522
 30.0481
 30.1255
 30.0887
 29.809
 29.764
 29.7405
 29.78
 29.4164
 29.4368
 29.4782
 29.4929
 30.3644
 30.4862
 30.3513
 30.4956
 32.143
 32.1067
 32.0328
 32.0611
 30.595
 30.5824
 30.5036
 30.5479
 28.7729
 28.8553
 28.7701
 28.8815
 28.7842
 28.8385
 28.7733
 28.8706
 28.4279
 28.5092
 28.4982
 28.4571
 30.8759
 30.9008
 30.8768
 30.827
 27.5575
 27.5772
 27.64
 27.5284
 28.5786
 28.511
 28.5983
 28.5629
 30.7627
 30.7405
 30.8343
 30.8923
 29.8018
 29.8167
 29.8254
 29.7208
 30.2459
 30.1865
 30.3264
 30.2697
 30.2288
 30.272
 30.2683
 30.7586
 30.7825
 30.7866
 30.8479
 28.642
 28.6955
 28.7442
 28.628
 29.5673
 29.4626
 29.4888
 29.541
 28.7824
 28.6962
 28.7905
 29.9692
 30.0866
 30.0004
 30.035
 29.3179
 29.2521
 29.2744
 29.3588
 28.1137
 28.2355
 28.223
 28.0832
 30.6891
 30.6882
 30.5535
 30.6148
 30.3611
 30.4396
 30.509
 30.4189
 28.8671
 28.9502
 28.9573
 28.9281
 28.609
 28.6516
 28.5448
 28.553
 30.7549
 30.6927
 30.7405
 30.8076
 30.4138
 30.3888
 30.2182
 30.2592
 29.5746
 29.4826
 29.4291
 29.5739
 27.9399
 27.8947
 27.9173
 27.8966
 28.8278
 28.7537
 28.7164
 28.7587
 29.2822
 29.3965
 29.3133
 29.2839
 31.7961
 31.9674
 31.8234
 31.8283
 29.4246
 29.4621
 29.3607
 29.3294
 28.1005
 28.1956
 28.1015
 28.2046
 30.1569
 30.2948
 30.1112
 30.1297
 30.4693
 30.4438
 30.5479
 30.4796
 30.3483
 30.4448
 30.4439
 30.4133
 31.3341
 31.3522
 31.3455
 31.2771
 30.1957
 30.3467
 30.3308
 30.327
 28.8669
 28.8634
 28.8508
 28.9129
 30.8259
 30.7547
 30.7177
 30.6967
 28.0564
 28.125
 28.0571
 28.0428
 30.6683
 30.7863
 30.7959
 30.6727
 28.1527
 28.2616
 28.138
 28.2061
 29.4826
 29.5433
 29.5386
 29.5055
 29.624
 29.53
 29.5181
 29.5859
 29.9673
 29.9689
 29.8553
 29.9374
 30.1641
 30.1635
 30.2647
 30.2652
 27.6594
 27.5747
 27.5553
 27.5635
 30.0791
 30.1618
 30.0742
 30.1433
 27.4374
 27.5069
 27.4653
 27.5687
 28.5006
 28.5488
 28.4448
 28.5208
 31.585
 31.4941
 31.4967
 31.5849
 27.7217
 27.7306
 27.6852
 27.6609
 30.4861
 30.3984
 30.4928
 30.5836
 31.346
 31.462
 31.5084
 31.3473
 28.3171
 28.3447
 28.3819
 28.3522
 27.7725
 27.6906
 27.7487
 27.7852
 28.996
 28.9938
 29.0104
 29.0498
 28.3963
 28.4797
 28.3826
 28.4778
 30.3239
 30.4392
 30.364
 30.4209
 28.8588
 28.9026
 28.8728
 28.8107
 29.7339
 29.7201
 29.6556
 29.6516
 30.6928
 30.6318
 30.713
 30.7238
 31.1238
 31.1195
 31.1697
 31.0386
 29.4436
 29.4651
 29.3941
 29.4938
 29.2915
 29.3274
 29.3315
 29.3978
 30.4482
 30.4551
 30.3533
 30.3785
 30.3421
 30.5017
 30.3719
 30.3702
 28.7558
 28.7145
 28.7656
 28.8026
 27.8366
 27.909
 27.7879
 27.7666
 27.9607
 27.9955
 27.9484
 27.9193
 28.0039
 28.0794
 28.056
 28.022
 28.5778
 28.6138
 28.5297
 28.6031
 30.3164
 30.4574
 30.3614
 30.3923
 30.2546
 30.1906
 30.1653
 30.1497
 29.1959
 29.268
 29.3276
 29.3618
 28.6346
 28.6772
 28.5792
 28.6382
 28.626
 28.6636
 28.6236
 28.5678
 29.0657
 29.1363
 29.0774
 29.0614
 28.7835
 28.711
 28.7889
 28.7852
 30.9024
 30.9333
 30.8818
 30.7746
 32.357
 32.4494
 32.323
 32.395
 30.1482
 30.1706
 30.2553
 30.2092
 32.2187
 32.1313
 32.1276
 30.1776
 30.1903
 30.119
 30.1957
 27.9766
 28.0262
 27.9878
 28.0351
 29.1173
 29.0859
 29.059
 29.0008
 27.91
 27.9499
 27.8845
 27.9713
 30.3899
 30.3801
 30.5027
 30.4286
 28.637
 28.6259
 28.4919
 28.5272
 29.0595
 29.1074
 29.1867
 29.0982
 27.6759
 27.6242
 27.6158
 27.7565
 28.3001
 28.3216
 28.2921
 28.2243
 30.0719
 29.9943
 30.0483
 30.07
 28.5511
 28.5549
 28.6315
 28.5239
 28.2084
 28.3083
 28.2712
 28.2929
 31.3236
 31.4268
 31.4434
 31.4155
 29.1464
 29.1226
 29.0709
 29.0611
 28.1335
 28.1115
 28.1157
 28.194
 28.8253
 28.7615
 28.8797
 28.7204
 28.1208
 28.2054
 28.1199
 28.115
 30.2836
 30.1908
 30.1397
 30.193
 28.2983
 28.1824
 28.3148
 28.2042
 29.5677
 29.5219
 29.6479
 29.5671
 29.3923
 29.3515
 29.3104
 29.3973
 28.3106
 28.3528
 28.397
 28.274
 27.485
 27.5404
 27.5408
 27.4998
 31.0415
 30.9981
 30.9293
 30.8939
 29.8349
 29.7598
 29.7177
 29.8167
 28.802
 28.8653
 28.8827
 28.8606
 28.3874
 28.3282
 28.3577
 28.3177
 30.0643
 30.1822
 30.1274
 30.1074
 30.745
 30.6719
 30.6198
 30.7372
 28.5297
 28.5232
 28.6297
 28.6122
 28.6428
 28.5835
 28.6529
 28.6171
 27.7498
 27.6789
 27.6195
 27.7417
 30.5079
 30.3898
 30.5264
 30.447
 27.8424
 27.7591
 27.7686
 27.83
 29.9125
 29.8453
 29.9395
 29.9637
 32.2942
 32.3057
 32.2206
 32.2099
 28.024
 28.0039
 27.9433
 27.9912
 28.7199
 28.6784
 28.7622
 28.8282
 28.108
 28.0941
 28.1476
 28.1464
 29.293
 29.4076
 29.3698
 29.2994
 29.5291
 29.5075
 29.4892
 29.533
 28.3912
 28.4788
 28.4789
 28.4418
 30.3383
 30.3031
 30.3971
 30.3206
 30.6145
 30.57
 30.5432
 30.6218
 31.9074
 31.9398
 32.0206
 32.0434
 28.9884
 28.938
 28.9023
 28.8747
 29.2587
 29.2877
 29.1397
 29.249
 28.8627
 28.9974
 28.8732
 28.8353
 29.7942
 29.6797
 29.6664
 29.8115
 27.7796
 27.7652
 27.7307
 27.8667
 27.7574
 27.6525
 27.7563
 27.7721
 28.7556
 28.7371
 28.6657
 28.6542
 32.9245
 32.9702
 32.9049
 32.7872
 29.4446
 29.4849
 29.435
 29.5539
 29.4094
 29.4193
 29.5325
 29.4228
 29.4553
 29.4226
 29.5528
 29.5343
 28.3405
 28.3641
 28.271
 28.3753
 31.7336
 31.5952
 31.777
 31.7417
 31.7381
 31.8131
 31.7981
 31.9386
 28.1855
 28.2384
 28.1972
 28.2796
 29.9872
 29.8741
 30.0313
 29.914
 29.6721
 29.6901
 29.6573
 29.6511
 28.6247
 28.6541
 28.6965
 28.7447
 30.4405
 30.3829
 30.3472
 30.3974
 28.2829
 28.3414
 28.3203
 28.265
 29.8218
 29.9806
 29.9058
 30.0254
 29.8999
 29.8668
 29.9615
 29.9366
 30.7354
 30.8034
 30.7244
 30.8427
 29.5704
 29.4815
 29.5075
 29.4442
 28.1851
 28.1533
 28.1602
 28.2047
 28.6249
 28.5475
 28.512
 28.5851
 30.4292
 30.4336
 30.3556
 30.392
 30.1887
 30.0822
 30.0826
 30.1871
 27.9818
 27.9527
 27.9017
 27.9374
 28.3583
 28.4288
 28.3909
 28.4017
 29.3652
 29.3938
 29.445
 29.3927
 30.9303
 30.9019
 30.9008
 30.8705
 31.232
 31.1319
 31.185
 31.2728
 28.741
 28.838
 28.8714
 28.8013
 30.6803
 30.7767
 30.675
 30.8576
 28.0507
 28.1403
 28.1308
 28.0601
 28.9129
 28.797
 28.8548
 28.9118
 28.3533
 28.3825
 28.4153
 28.3563
 28.5605
 28.6523
 28.6424
 28.5852
 29.4737
 29.5221
 29.4658
 29.4105
 30.2528
 30.4179
 30.3887
 30.3017
 31.0926
 30.9406
 31.04
 31.0876
 30.7728
 30.9023
 30.7676
 30.7692
 30.2696
 30.3595
 30.3724
 30.282
 29.4408
 29.4064
 29.3936
 29.5637
 29.4396
 29.3346
 29.4026
 29.4381
 29.3544
 29.4307
 29.3145
 29.3954
 28.8288
 28.8695
 28.7885
 28.8025
 31.5668
 31.6958
 31.5469
 31.5471
 29.1131
 29.0871
 29.1241
 29.0398
 30.4588
 30.5529
 30.5037
 30.4797
 29.6904
 29.601
 29.6554
 29.6103
 27.8594
 27.985
 27.8837
 27.9263
 29.3123
 29.3499
 29.3432
 29.3992
 30.6315
 30.6771
 30.6432
 30.7635
 29.6427
 29.6745
 29.6025
 29.5532
 30.2149
 30.1502
 30.1591
 30.2488
 29.4488
 29.5604
 29.4639
 29.5556
 31.3471
 31.4366
 31.4122
 31.301
 29.7036
 29.6834
 29.6352
 29.6274
 28.7187
 28.7449
 28.6826
 28.7497
 28.7408
 28.7299
 28.7045
 28.7231
 27.923
 28.0561
 27.9537
 28.002
 30.0053
 30.0147
 29.9191
 29.9889
 30.3137
 30.2485
 30.3384
 30.1576
 27.8289
 27.948
 27.85
 27.8724
 30.2894
 30.3106
 30.2172
 30.2863
 28.2173
 28.2393
 28.1601
 28.2551
 29.0881
 28.9766
 29.0368
 28.9757
 29.4595
 29.5862
 29.4548
 29.4622
 30.2943
 30.1938
 30.2069
 30.2946
 29.4624
 29.446
 29.3338
 29.4422
 28.2035
 28.2188
 28.1863
 28.1831
 32.5159
 32.4364
 32.3597
 32.5689
 30.9839
 31.0103
 31.011
 30.9813
 30.8551
 30.8083
 30.8571
 30.9398
 29.9215
 29.876
 29.9709
 29.8485
 29.7012
 29.7686
 29.7181
 29.757
 30.1065
 30.1898
 30.2123
 30.1191
 27.7151
 27.7457
 27.6359
 27.7589
 30.3342
 30.3958
 30.3878
 30.2662
 28.8716
 28.8879
 28.8541
 28.9506
 29.3471
 28.265
 28.3464
 28.343
 28.3689
 28.9362
 28.8643
 28.8069
 28.8671
 31.0147
 30.9797
 30.9689
 31.0124
 29.8313
 29.869
 29.7986
 29.7462
 30.115
 30.234
 30.1704
 30.1958
 28.1225
 28.2075
 28.1867
 28.1755
 29.6765
 29.7992
 29.7172
 29.7289
 27.9989
 27.9893
 28.061
 28.0577
 28.6107
 28.5672
 28.635
 28.5416
 31.0444
 30.9908
 31.018
 30.9015
 30.3562
 30.4509
 30.2825
 30.3626
 28.8826
 28.8238
 28.8111
 28.8634
 29.457
 29.5539
 29.4196
 30.8261
 30.8789
 30.8015
 30.7843
 28.7549
 28.8954
 28.7911
 28.8599
 30.1969
 30.3564
 30.3002
 30.2907
 29.4848
 29.6111
 29.5406
 29.4818
 27.9987
 28.0003
 28.1143
 28.0198
 29.9291
 29.9684
 30.0206
 29.9502
 28.3117
 28.4237
 28.344
 28.3059
 29.279
 29.3417
 29.2853
 29.3821
 28.412
 28.4585
 28.5214
 28.48
 28.0932
 28.092
 28.0051
 28.0503
 29.8255
 29.8407
 29.7644
 29.769
 32.2592
 32.1595
 32.1038
 32.0939
 27.5741
 27.6159
 27.632
 27.6279
 28.7553
 28.8166
 28.8207
 28.761
 30.5421
 30.5433
 30.3645
 30.5023
 29.6733
 29.6
 29.5926
 29.6775
 31.4191
 31.3848
 31.449
 31.5164
 28.0528
 27.9846
 27.8972
 27.9604
 30.8576
 30.9356
 30.887
 30.8683
 28.9779
 28.8986
 29.0089
 28.9506
 30.3992
 30.5636
 30.435
 30.4301
 27.5313
 27.5499
 27.543
 27.6232
 27.65
 27.6565
 27.7165
 27.7461
 28.4915
 28.5594
 28.5973
 28.4549
 28.9387
 28.9361
 28.9576
 29.035
 28.9548
 30.5796
 30.5781
 30.6714
 30.6161
 30.4567
 30.4991
 30.5419
 30.4447
 28.7011
 28.6303
 28.6257
 28.6131
 30.6315
 30.5307
 30.5502
 30.6341
 30.2732
 30.3318
 30.3274
 30.2313
 28.5543
 28.52
 28.5251
 28.6172
 29.8044
 29.6843
 29.796
 29.6973
 28.6993
 28.6926
 28.7011
 28.6269
 30.1418
 30.1436
 30.2244
 30.1995
 29.9359
 29.8848
 29.8613
 29.8508
 29.5243
 29.4396
 29.5513
 29.4716
 28.9952
 28.9029
 28.9461
 28.8589
 28.3727
 28.4131
 28.2919
 28.3182
 29.0206
 29.0397
 29.0876
 29.0732
 29.0832
 29.017
 29.0205
 29.0218
 31.1496
 31.1497
 31.0679
 31.0283
 28.834
 28.8391
 28.7865
 28.8281
 29.409
 29.3962
 29.3332
 29.3927
 29.2262
 29.2451
 29.2938
 29.2513
 29.9047
 29.9007
 29.9792
 29.9191
 30.7546
 30.7793
 30.7022
 30.8778
 28.5033
 28.5375
 28.4986
 28.4623
 30.7048
 30.7776
 30.7356
 30.6535
 27.7517
 27.755
 27.6491
 27.7153
 28.3862
 28.4505
 28.3534
 28.3897
 28.3838
 28.3679
 28.3516
 28.3898
 28.1596
 28.2078
 28.2112
 28.1152
 28.5912
 28.563
 28.636
 28.5667
 31.4743
 31.5305
 31.6337
 29.1203
 29.2331
 29.1377
 29.1414
 28.4208
 28.4639
 28.4838
 28.4426
 29.8691
 29.9641
 29.9163
 29.8865
 30.2313
 30.1708
 30.2757
 30.1643
 28.6208
 28.6035
 28.5558
 28.6825
 29.542
 29.5751
 29.5439
 29.4529
 30.1357
 30.1179
 30.1906
 30.1876
 27.7587
 27.6517
 28.834
 28.8432
 28.928
 28.9161
 29.4901
 29.5209
 29.5636
 29.0927
 29.0659
 29.0728
 29.1587
 31.0719
 31.1573
 31.0296
 31.0441
 28.3143
 28.2638
 28.2615
 28.3549
 29.1093
 29.1305
 29.1796
 29.1667
 29.884
 29.9545
 29.8987
 29.8286
 29.1263
 29.2063
 29.1812
 29.1359
 30.77
 30.8152
 30.7222
 30.7454
 30.9551
 30.7858
 30.9071
 30.8668
 29.4946
 29.4328
 29.3813
 29.442
 30.5402
 30.5403
 30.59
 30.4888
 29.3609
 29.4077
 29.3846
 29.4197
 28.2106
 28.2336
 28.3133
 28.3233
 30.531
 30.4805
 30.4232
 30.4897
 31.8989
 31.7871
 31.7379
 31.6974
 28.8817
 29.0376
 28.9553
 28.8876
 29.5947
 29.5341
 29.6262
 29.5391
 30.6547
 30.6913
 30.5679
 30.6084
 29.4849
 29.5308
 29.4425
 29.4519
 28.1116
 28.1428
 28.1022
 28.1145
 30.3166
 30.3347
 30.3924
 30.3544
 29.0412
 29.0631
 29.0647
 29.1126
 29.7658
 29.6418
 29.7138
 29.5925
 28.6337
 28.576
 28.576
 28.5272
 28.2867
 28.2808
 28.245
 28.318
 30.495
 30.4212
 30.4744
 30.3246
 29.9253
 29.8515
 29.8734
 29.8983
 28.9472
 28.9564
 29.0764
 28.9881
 30.6948
 30.6595
 30.6668
 30.6304
 32.4321
 32.5848
 32.5627
 32.5093
 29.1707
 29.2376
 29.2621
 29.2474
 32.6546
 32.6832
 32.5535
 32.4998
 32.4934
 32.3836
 32.3292
 32.3497
 31.1553
 31.0869
 31.0749
 31.1848
 28.8477
 28.8937
 28.9491
 28.9678
 28.8794
 28.8004
 28.804
 28.7445
 28.7365
 28.8135
 28.7548
 28.8406
 28.9013
 28.9812
 28.9637
 28.8684
 31.4537
 31.5594
 31.4752
 31.5726
 30.5392
 30.6073
 30.4809
 30.5164
 30.4908
 30.6903
 30.6779
 30.5781
 29.7502
 29.652
 29.749
 29.6295
 29.0235
 29.0772
 29.0252
 29.0534
 28.6667
 28.6624
 28.7027
 28.6292
 30.4184
 30.3238
 30.3076
 30.402
 28.8049
 29.561
 29.5223
 29.4981
 29.5505
 27.6549
 27.6472
 27.5582
 27.6108
 29.6046
 29.6088
 29.5416
 29.6031
 28.096
 28.0197
 28.0794
 30.6702
 30.5794
 30.5579
 30.6987
 32.3156
 32.2351
 32.1947
 32.1642
 29.4541
 29.4621
 29.3715
 29.5086
 29.9113
 30.0067
 30.0208
 30.0077
 30.6512
 30.5463
 30.5052
 30.5011
 30.5045
 30.4575
 30.5626
 30.4528
 31.1523
 31.3676
 31.2403
 31.2714
 29.0349
 29.0403
 28.9791
 28.8748
 29.5044
 29.4198
 29.5055
 29.4639
 30.1343
 30.1742
 30.1138
 30.1299
 29.5595
 29.6424
 29.4529
 28.4326
 28.4886
 28.5058
 30.3245
 30.312
 30.4176
 30.4257
 31.3488
 31.423
 31.4209
 31.3663
 30.0499
 30.004
 29.9872
 30.0759
 31.1711
 31.2671
 31.1256
 31.309
 28.5143
 28.3936
 28.4789
 28.4628
 28.4635
 28.4423
 28.4135
 28.372
 30.723
 30.7752
 30.7513
 30.7772
 31.2294
 31.3868
 31.311
 31.2754
 29.205
 29.3069
 29.2241
 29.2773
 27.8384
 27.8982
 27.785
 27.8802
 31.3263
 31.322
 31.4084
 31.3132
 28.7602
 28.8399
 28.8381
 28.7454
 31.9182
 31.961
 31.8565
 31.9063
 28.6341
 28.565
 28.6612
 28.5043
 29.7549
 29.8271
 29.7143
 29.8662
 28.509
 28.5088
 28.4209
 28.4384
 30.6317
 30.5998
 30.5605
 30.4653
 29.8638
 29.9387
 29.9205
 29.9437
 30.2083
 30.2469
 30.1631
 30.151
 30.228
 30.2927
 30.1829
 30.2801
 29.1922
 29.143
 29.1756
 29.2443
 29.5839
 29.661
 29.58
 29.5818
 28.4126
 28.498
 28.5141
 28.4578
 27.7156
 27.6497
 27.7997
 27.8185
 29.6015
 29.6115
 29.6781
 29.6174
 28.2224
 28.2476
 28.2792
 28.176
 28.6906
 28.5708
 28.5428
 28.5907
 31.5063
 31.5988
 31.6985
 31.563
 30.7174
 30.5405
 30.5688
 30.6299
 29.7457
 29.8183
 29.842
 29.7902
 31.2091
 31.3121
 31.3295
 31.3718
 29.0741
 28.9764
 28.9927
 29.047
 28.5076
 28.3738
 28.4466
 28.4225
 31.1172
 30.9929
 31.114
 31.1176
 29.4487
 29.3817
 29.4435
 29.4159
 30.0959
 30.1197
 30.1199
 30.1723
 32.3448
 32.2955
 32.1811
 32.2751
 29.9064
 29.9236
 29.9279
 29.8503
 29.4335
 29.3856
 29.4019
 29.3679
 28.7674
 28.7101
 28.7535
 28.6803
 30.2802
 30.2496
 30.2399
 29.411
 29.4233
 29.4453
 29.431
 29.9968
 30.0735
 29.8759
 29.9794
 28.8507
 28.9259
 28.8534
 28.9
 28.8034
 28.6896
 28.76
 28.7325
 28.0677
 28.1126
 28.0802
 28.1779
 30.4352
 30.4795
 30.3825
 30.4779
 27.8125
 27.7969
 27.7654
 27.8013
 30.2427
 30.1652
 30.2328
 30.2783
 29.5142
 29.4244
 29.4339
 29.3833
 29.408
 29.4874
 29.4737
 29.518
 32.5374
 32.6334
 32.519
 32.5873
 29.9295
 29.9907
 29.9229
 29.9023
 29.5055
 29.5499
 29.4496
 29.3511
 29.5182
 29.4968
 29.4765
 29.5912
 27.5801
 27.5897
 27.6662
 27.6334
 30.2634
 30.1595
 30.1005
 30.2307
 30.1363
 30.1981
 30.0943
 30.2173
 28.6903
 28.5985
 28.6639
 28.6366
 30.4779
 30.5113
 30.5709
 30.5958
 30.6531
 30.6803
 30.6191
 30.7012
 28.8363
 28.946
 28.841
 28.9281
 28.8558
 28.8424
 28.9163
 28.8441
 29.2696
 29.257
 29.1413
 29.1858
 30.1638
 30.2123
 29.0825
 29.1338
 29.0418
 29.1132
 30.1685
 30.1051
 30.1844
 30.1363
 29.705
 29.616
 29.5813
 29.6058
 28.0965
 28.1439
 28.1702
 28.0974
 29.5643
 29.5405
 29.4955
 29.4789
 28.5752
 28.5399
 28.5116
 28.6047
 30.3701
 30.2297
 30.2766
 30.2464
 29.8535
 29.9353
 29.9446
 29.9161
 29.5412
 29.3679
 29.4464
 29.4694
 30.5703
 30.6481
 30.6777
 30.595
 31.7618
 31.6151
 31.7223
 31.7535
 27.9618
 27.9732
 28.0164
 27.9853
 31.1698
 31.1512
 31.1184
 31.2096
 29.0038
 28.9784
 29.0643
 29.0658
 31.7154
 31.6587
 31.7213
 31.8492
 29.0724
 28.9951
 29.042
 29.0501
 30.2877
 30.3058
 30.3463
 30.3061
 30.2787
 30.2521
 30.3408
 30.2873
 29.2013
 29.1731
 29.2587
 29.2292
 28.3499
 28.4206
 28.3479
 28.4373
 29.8681
 29.7471
 29.7661
 29.7661
 30.7482
 30.8028
 30.7435
 30.685
 28.3346
 28.2259
 28.2753
 28.2001
 30.2591
 30.2379
 30.1646
 30.1315
 29.8093
 29.7077
 29.7595
 29.6846
 28.6186
 28.4641
 28.509
 28.5451
 29.3077
 29.2317
 29.2016
 29.1978
 29.5302
 29.5425
 29.5108
 29.455
 28.049
 28.0136
 27.9631
 27.9416
 28.3812
 28.3399
 28.359
 28.391
 29.1601
 29.1414
 29.2437
 29.205
 29.6189
 29.5737
 29.666
 29.4816
 30.0869
 30.0571
 30.06
 29.9351
 30.7971
 30.7945
 30.9
 28.4786
 28.4564
 28.4396
 28.4004
 31.6566
 31.7064
 31.8835
 31.7673
 28.6884
 28.7841
 28.7332
 28.7685
 30.4317
 30.5688
 30.491
 30.4769
 30.6771
 30.7878
 30.7336
 30.7563
 28.1752
 28.2512
 28.2057
 28.1133
 29.3387
 29.3882
 29.3255
 29.3826
 29.4442
 29.4715
 30.2062
 29.6563
 29.5684
 29.701
 29.6249
 31.8598
 31.7389
 28.8387
 28.818
 28.796
 30.7971
 30.7841
 30.8948
 30.8232
 28.7415
 28.8309
 28.7988
 28.7893
 29.7432
 29.6675
 29.688
 29.7091
 30.1874
 30.0569
 30.1338
 30.1187
 28.1619
 28.1636
 28.0791
 28.1283
 30.8845
 30.7957
 30.9153
 30.8022
 28.9747
 28.9799
 28.9443
 28.9046
 27.9395
 27.9284
 28.0219
 28.0156
 29.4226
 29.5086
 29.4504
 29.5014
 28.9045
 29.0358
 28.9974
 28.9976
 29.5641
 29.5106
 29.5752
 29.7003
 27.6495
 27.7794
 27.6714
 27.7788
 27.7839
 27.765
 27.8057
 27.8804
 27.907
 27.958
 27.9769
 27.9042
 29.6936
 29.7652
 29.6836
 29.698
 29.1032
 29.2092
 29.1662
 29.1249
 29.5517
 29.5515
 29.6234
 29.5663
 29.8729
 29.8653
 29.779
 29.9027
 28.7964
 28.7779
 28.7658
 28.8632
 28.3659
 28.2886
 28.3307
 28.2704
 28.3013
 28.2708
 28.3389
 28.2139
 29.2535
 29.2202
 29.2862
 29.2142
 29.5502
 29.5484
 29.5757
 29.6164
 30.322
 30.3523
 30.3405
 30.2242
 28.576
 28.5128
 28.5019
 28.6042
 31.0297
 31.0086
 31.1497
 31.1019
 28.566
 28.5262
 28.5644
 28.5701
 29.2772
 29.1555
 29.2719
 29.1786
 29.2969
 29.3101
 29.2695
 29.4012
 30.8571
 30.8272
 30.8515
 30.9727
 32.601
 32.5114
 32.7108
 32.6709
 29.9125
 29.822
 29.9161
 29.89
 28.5203
 28.5847
 28.5263
 28.5085
 30.6382
 30.7476
 30.6572
 30.6174
 29.0914
 29.0379
 29.15
 29.0538
 29.0659
 29.0093
 28.9335
 28.9555
 28.6761
 28.636
 28.7452
 28.7168
 31.3573
 31.3599
 31.4059
 31.2883
 31.3179
 31.2792
 31.3467
 31.3738
 28.4714
 28.3614
 28.3788
 28.421
 28.8066
 28.9131
 28.9752
 28.888
 30.0344
 30.015
 30.0772
 30.0812
 29.4683
 29.491
 29.4162
 29.3767
 29.3395
 29.2978
 29.3075
 29.3671
 30.0018
 30.0861
 29.9287
 30.0613
 28.9433
 29.017
 28.9589
 29.0316
 27.3392
 27.4477
 27.374
 27.3571
 29.0788
 28.9669
 28.9853
 28.9372
 29.5115
 29.4886
 29.5418
 29.4385
 29.4869
 29.4888
 29.5584
 29.5075
 29.2473
 29.1893
 29.2341
 29.3032
 27.8416
 27.8342
 27.8911
 27.8503
 28.4277
 28.5006
 28.4635
 29.0032
 28.9846
 28.9601
 29.0057
 30.8064
 30.8297
 30.6906
 30.8123
 29.6999
 29.7117
 29.7776
 29.6683
 28.3408
 28.4517
 28.5029
 28.4432
 30.3191
 30.2629
 30.2604
 30.2084
 29.9526
 30.008
 30.0112
 29.9222
 29.8028
 29.8662
 29.9512
 29.8418
 28.8299
 28.8984
 28.9187
 28.8944
 29.2501
 29.3199
 29.2482
 29.3946
 28.998
 29.1318
 29.0844
 29.0586
 30.5372
 30.4711
 30.4698
 30.5109
 29.8468
 29.7936
 29.7721
 29.8546
 28.8682
 28.9212
 28.8499
 28.7777
 29.8473
 29.8168
 29.7579
 29.8929
 29.0222
 28.9221
 28.934
 28.9683
 30.5811
 30.6195
 30.5513
 30.634
 28.0079
 27.9964
 28.0728
 28.0078
 30.3318
 30.3843
 30.2853
 30.2516
 30.4074
 30.6012
 30.4875
 30.4893
 28.6096
 28.5895
 28.534
 28.522
 30.4204
 30.4036
 30.3775
 30.3754
 29.0205
 29.0697
 29.0257
 29.1077
 30.8358
 30.8597
 30.9542
 30.9493
 29.2333
 29.2735
 29.2539
 29.1863
 28.1076
 27.9877
 28.0776
 28.0168
 29.1803
 29.3137
 29.309
 29.2686
 28.7329
 28.7046
 28.7194
 28.7382
 29.0437
 29.0715
 29.0261
 29.0091
 29.0224
 29.0107
 28.9586
 28.9088
 27.8892
 27.8632
 27.8368
 27.9484
 30.5348
 30.5678
 30.6566
 30.6342
 30.3903
 30.4437
 30.5503
 30.4573
 28.242
 28.2268
 28.2826
 28.1733
 28.1638
 28.1211
 28.1689
 30.0539
 30.1075
 30.1084
 30.0264
 29.1065
 29.0214
 29.0785
 29.0886
 29.0219
 29.0025
 29.0805
 28.9915
 30.451
 30.3559
 30.4927
 30.4153
 28.6862
 28.6362
 28.6514
 28.6289
 29.5396
 29.6294
 29.6172
 29.5282
 29.247
 29.3522
 29.3207
 29.3756
 28.6141
 28.5615
 28.5409
 28.5546
 30.8936
 30.9359
 30.8868
 30.8308
 30.13
 30.2478
 30.2469
 30.2018
 27.8524
 27.969
 27.8797
 27.9098
 30.5079
 30.5289
 30.4962
 30.3482
 30.8976
 30.9544
 30.9195
 30.9189
 29.5089
 29.4724
 29.517
 29.4076
 31.8048
 31.7829
 31.8251
 31.7127
 29.4191
 29.3955
 29.4357
 29.4102
 28.5689
 28.6214
 28.6415
 28.6521
 28.336
 28.3816
 28.3633
 30.9649
 30.9515
 30.9455
 30.9814
 30.2696
 30.1622
 30.2935
 30.186
 30.3511
 30.3796
 30.3942
 30.4744
 30.1999
 30.2955
 30.2213
 30.2742
 27.8032
 27.7447
 27.7198
 27.7423
 30.7609
 30.7383
 30.7913
 30.8473
 30.2567
 30.3401
 30.2723
 30.1797
 28.4121
 28.3798
 28.4173
 28.4503
 29.8737
 29.9092
 29.85
 30.0892
 30.2419
 30.1711
 29.1072
 29.2126
 29.2599
 31.6439
 31.5395
 31.523
 31.6032
 29.411
 29.3728
 29.4278
 29.3379
 29.3627
 29.3238
 29.4336
 29.4034
 28.1928
 28.1526
 28.2361
 28.2517
 28.0602
 28.0905
 27.9631
 28.081
 30.4889
 30.5395
 30.5464
 30.4078
 29.2179
 29.1134
 29.1334
 29.1113
 29.068
 29.0087
 28.9709
 29.0036
 29.5272
 29.4183
 29.4624
 29.3878
 29.9724
 29.9229
 29.9269
 30.032
 29.2131
 29.2747
 29.2618
 29.1759
 30.4963
 30.4686
 30.518
 30.4432
 28.2136
 28.2431
 28.2075
 28.1837
 30.2967
 30.3032
 30.2343
 30.2184
 28.2992
 28.3826
 28.3502
 28.2798
 28.0156
 28.0619
 28.1017
 28.0284
 28.1556
 28.1851
 28.1752
 28.1966
 30.2844
 30.3488
 28.792
 28.7947
 28.8617
 28.8288
 30.4557
 30.3622
 30.3953
 30.441
 28.56
 28.4346
 28.4815
 28.452
 28.2605
 28.3594
 28.2424
 28.338
 29.9622
 29.9295
 29.8984
 29.952
 29.2451
 29.2319
 29.1721
 29.2151
 30.1441
 30.1351
 30.0669
 30.1355
 29.6811
 29.6554
 29.6561
 29.5645
 32.2126
 32.064
 32.2131
 32.0674
 28.1014
 28.1418
 28.0431
 28.1284
 30.1219
 30.2677
 30.1239
 30.1356
 30.8576
 30.9607
 30.9486
 30.8404
 29.5897
 29.6163
 29.5431
 29.4853
 30.8035
 30.99
 30.9591
 30.8501
 29.7522
 29.8461
 29.8639
 29.8056
 28.7817
 28.812
 28.7139
 28.8339
 29.3849
 29.4378
 29.4438
 29.4081
 28.2022
 28.0719
 28.206
 29.6034
 29.5044
 29.688
 29.5576
 32.3349
 32.345
 32.3682
 32.4287
 27.7205
 27.6889
 27.6666
 27.7366
 29.3227
 29.3278
 29.2818
 29.3382
 28.6444
 28.7005
 28.7674
 28.688
 30.566
 30.4846
 30.6781
 30.6009
 29.8832
 29.8279
 29.9951
 29.9272
 29.9931
 29.8545
 29.9041
 29.8518
 28.1088
 28.1494
 28.0811
 28.0443
 29.789
 29.8644
 29.9199
 29.891
 27.7621
 27.7804
 27.7483
 27.8225
 28.7614
 28.8396
 28.8414
 28.7557
 30.4489
 30.4205
 30.3913
 30.4471
 31.7924
 31.8222
 31.735
 31.8497
 29.7021
 29.8253
 29.7647
 29.8355
 29.3691
 29.3788
 29.3045
 29.4064
 28.6402
 28.6579
 28.6885
 28.7632
 32.0441
 32.0809
 31.9763
 32.0913
 29.6283
 29.7019
 29.5817
 29.6013
 27.8755
 27.9095
 27.9355
 27.9142
 28.4946
 28.4152
 28.4438
 28.4669
 28.3649
 28.4026
 28.3242
 28.4257
 28.3601
 28.4355
 28.4458
 28.4185
 28.4278
 28.3351
 28.3969
 28.3991
 29.0802
 29.0531
 29.083
 29.0811
 30.4232
 30.2056
 30.1139
 30.0972
 30.1544
 28.9206
 29.0474
 29.0022
 28.9812
 28.9348
 28.9077
 29.0075
 29.0135
 31.3614
 31.2962
 31.2764
 31.357
 28.2998
 28.3064
 28.3463
 28.313
 28.5953
 28.5447
 28.4624
 28.5091
 30.5587
 30.3959
 30.4295
 30.2762
 30.2785
 30.3089
 30.2018
 30.1366
 30.154
 30.0968
 30.3495
 30.452
 30.5838
 30.5194
 28.8945
 28.8108
 28.8299
 28.9201
 27.9138
 27.9019
 27.943
 27.897
 29.4275
 29.4647
 29.4108
 29.5041
 28.0469
 28.1687
 28.1963
 28.2115
 29.6207
 29.6512
 29.6761
 29.5805
 28.8451
 28.9234
 28.9645
 28.9489
 30.3104
 30.3218
 30.3566
 30.408
 29.2021
 29.1026
 29.2309
 29.144
 29.1229
 29.0274
 28.9798
 29.1217
 30.3161
 30.3649
 30.4429
 30.4121
 29.8687
 29.9265
 29.7608
 29.8069
 29.5785
 29.5914
 29.6634
 29.7334
 29.1141
 29.0842
 29.1189
 29.0792
 30.9692
 30.996
 30.9661
 30.8578
 28.8689
 28.9595
 28.927
 28.8545
 29.9442
 30.0562
 29.93
 29.8829
 28.8026
 28.8121
 28.8012
 28.8505
 28.1209
 28.1939
 28.1409
 28.1637
 28.034
 28.0935
 28.0753
 28.0561
 28.0458
 27.9998
 28.1215
 27.7499
 27.7041
 27.6718
 27.6298
 28.3873
 28.4753
 28.5445
 28.4384
 29.3775
 29.3942
 29.3361
 29.3488
 27.9402
 27.9855
 28.0299
 27.9545
 29.3464
 29.3478
 29.3909
 29.4009
 29.0413
 28.991
 29.0108
 28.2526
 28.172
 28.2161
 28.2203
 28.2058
 28.295
 28.2559
 29.1636
 29.1736
 29.1222
 29.1053
 29.9885
 29.9229
 29.9929
 29.8764
 28.8296
 28.8904
 28.9131
 28.9218
 28.0593
 28.0064
 28.0535
 28.0838
 30.1721
 30.2289
 30.2116
 30.2932
 29.4865
 29.5128
 29.5673
 29.589
 29.3825
 29.2504
 29.3569
 29.378
 28.6897
 28.7796
 28.7327
 28.7383
 30.3193
 30.4046
 30.286
 30.3797
 30.6329
 30.7381
 30.6234
 30.5887
 29.5108
 29.5139
 29.5206
 29.4462
 27.7299
 27.7712
 27.7787
 27.7768
 30.0948
 30.1911
 30.0805
 30.1417
 30.468
 30.4244
 30.5417
 30.4022
 28.9549
 29.0505
 28.9501
 28.9715
 30.1442
 30.0645
 30.1273
 30.5367
 30.4467
 30.4843
 29.0983
 29.1658
 29.0428
 29.1329
 30.4637
 30.5353
 30.5699
 30.4573
 30.5708
 30.6821
 30.5679
 30.5973
 28.8742
 28.8622
 28.8918
 30.2293
 30.2334
 28.2415
 28.2289
 28.1321
 28.1181
 28.8438
 28.7474
 28.7488
 28.7679
 31.1155
 31.0475
 31.1665
 31.0154
 31.6201
 31.4812
 31.6736
 31.5584
 30.0876
 30.2704
 30.1793
 30.1413
 28.2096
 28.2134
 28.1665
 28.1979
 28.7385
 28.801
 28.826
 28.8032
 30.953
 30.9619
 30.9831
 30.996
 30.1354
 30.1373
 30.0712
 30.1218
 30.2016
 30.1532
 30.1642
 30.4379
 30.3663
 30.3653
 30.3713
 30.3558
 30.4503
 30.3731
 30.3172
 30.5655
 30.6967
 30.6212
 30.6933
 28.0324
 27.9558
 28.0156
 27.9955
 27.9838
 27.9202
 28.0417
 29.4733
 29.5291
 29.4603
 29.5479
 30.1691
 30.3004
 30.155
 30.1776
 27.7367
 27.6732
 30.567
 30.6582
 30.6211
 30.6809
 29.2803
 29.1548
 29.2329
 29.1664
 28.9895
 29.0247
 30.4945
 30.4769
 30.3981
 30.487
 28
 27.9446
 28.0269
 27.8999
 27.8161
 27.8738
 27.8272
 27.7229
 29.6024
 29.566
 29.5914
 31.3463
 31.2324
 31.2784
 30.2884
 30.1569
 30.2992
 30.2822
 28.5929
 28.6635
 28.5373
 28.642
 29.9014
 29.9414
 29.9995
 30.0297
 30.021
 30.0699
 29.9955
 30.0807
 28.909
 28.9011
 28.874
 28.7842
 32.0902
 31.927
 32.077
 32.1437
 28.6653
 28.666
 28.5756
 28.5822
 28.6803
 28.6863
 28.6277
 28.6065
 30.64
 30.6092
 30.7647
 30.6659
 28.2402
 28.1839
 28.1752
 28.2546
 32.2682
 32.3346
 32.4173
 32.4549
 28.0432
 28.1659
 28.1686
 28.155
 28.3025
 28.4012
 30.1138
 30.0388
 30.049
 29.9899
 30.7424
 30.8662
 30.8022
 30.7094
 28.2913
 28.218
 28.221
 28.2573
 29.9548
 29.9408
 29.9443
 29.9941
 27.7034
 27.7434
 27.7215
 30.2137
 30.3185
 30.3046
 30.9026
 30.7751
 30.7319
 28.084
 28.0295
 28.0626
 28.0932
 30.1956
 30.272
 30.2796
 30.243
 28.2574
 28.249
 30.9305
 30.8425
 30.9262
 30.8825
 29.4366
 29.3404
 29.3562
 29.3888
 30.2039
 30.2173
 29.8198
 29.6677
 29.6619
 29.7505
 30.0343
 30.0361
 30.0263
 30.1423
 27.8017
 27.734
 27.8463
 27.8195
 30.8192
 30.8843
 30.8628
 28.4679
 32.1027
 32.2268
 32.1898
 32.2139
 28.2457
 28.2004
 28.1792
 28.3031
 30.0408
 30.0312
 29.8904
 29.9292
 28.6063
 28.6669
 28.6431
 28.6102
 30.0094
 30.0875
 30.127
 30.0308
 28.8965
 31.3555
 31.4126
 31.4167
 31.3417
 28.8517
 28.8717
 28.8816
 28.9456
 28.3575
 28.3401
 28.2729
 28.4232
 28.4381
 28.5326
 28.4344
 28.2146
 28.1087
 28.1976
 28.1651
 30.636
 30.6148
 30.5001
 30.5656
 28.1158
 28.1104
 28.1285
 28.0569
 30.8659
 30.9121
 30.8703
 30.9838
 28.1839
 28.1382
 28.1241
 28.122
 29.5246
 29.5663
 29.5807
 29.5969
 28.6964
 28.6518
 28.6237
 28.6084
 29.1034
 29.1442
 29.1675
 29.1861
 27.9983
 28.0931
 29.4069
 29.4893
 29.4681
 29.4136
 31.1961
 31.2311
 31.1068
 31.2297
 30.9046
 30.9453
 30.8069
 30.9293
 29.1348
 29.0731
 29.0405
 29.0473
 28.646
 28.6492
 28.6544
 28.5608
 28.4792
 28.5529
 28.5037
 28.4664
 28.1517
 28.2336
 28.2204
 28.2735
 28.4933
 28.4242
 28.465
 28.5128
 30.7693
 30.8367
 30.7528
 30.8909
 30.463
 30.4528
 30.4816
 30.3564
 27.6892
 27.7534
 27.7883
 27.7767
 29.1294
 29.0636
 29.1074
 28.9784
 30.269
 30.1351
 30.234
 30.2113
 31.7067
 31.7079
 31.6198
 31.8522
 28.2331
 28.1947
 28.2581
 28.1331
 30.2736
 30.2308
 30.205
 30.1439
 29.75
 29.6813
 29.7911
 29.7388
 31.0038
 31.0164
 31.0049
 30.921
 28.9693
 29.0171
 28.9842
 28.9833
 28.0788
 28.0734
 28.1042
 28.0769
 29.0564
 29.1735
 29.1256
 29.1458
 29.7219
 29.6582
 29.6009
 29.6526
 31.1624
 31.0915
 31.0382
 31.1915
 28.0524
 28.7616
 28.7093
 28.8023
 28.6991
 29.658
 29.7003
 29.7762
 29.7006
 28.5447
 28.5
 28.5241
 28.4396
 30.2226
 30.371
 30.2722
 30.2374
 29.0792
 29.0091
 29.1041
 31.1699
 30.9715
 31.1134
 31.0639
 28.3646
 28.4931
 28.4178
 28.4561
 30.7144
 30.7364
 30.6462
 30.7103
 27.4602
 27.4989
 27.4735
 27.42
 30.3674
 30.364
 30.3295
 30.3665
 31.683
 31.4559
 31.5061
 31.591
 31.2384
 31.2515
 31.1697
 31.1096
 27.7013
 27.7623
 27.7783
 27.8203
 27.9692
 27.985
 27.9522
 27.9356
 29.4944
 29.4273
 29.4491
 29.4105
 30.2581
 30.3244
 30.267
 29.3345
 29.3298
 29.4312
 29.3963
 28.8081
 28.8672
 28.7397
 28.7769
 29.1786
 29.0409
 29.087
 29.1126
 29.3502
 29.3324
 29.1968
 29.2587
 27.6381
 27.6883
 27.6939
 27.7233
 30.4958
 30.5205
 30.3889
 30.4924
 31.1221
 31.2281
 31.2625
 28.594
 28.6406
 28.6547
 28.7105
 28.3499
 28.2785
 28.3062
 28.3281
 30.3125
 30.328
 30.2949
 30.4424
 30.4207
 30.3736
 30.5082
 28.1433
 28.1804
 28.0958
 28.2075
 29.4959
 29.5167
 29.4318
 29.4874
 30.4305
 30.5458
 30.4614
 30.4918
 29.6424
 29.6884
 29.6859
 29.6222
 28.3919
 28.3819
 28.449
 28.3923
 30.3053
 30.1971
 30.3622
 30.2267
 29.5771
 29.7227
 29.7143
 29.6163
 30.0191
 29.9022
 29.9866
 28.021
 28.0353
 28.0698
 28.0968
 29.4
 29.4236
 29.4564
 29.3565
 27.6692
 27.7001
 27.5763
 29.3016
 29.2462
 29.2816
 29.3014
 31.0656
 31.0033
 31.1129
 31.0731
 29.1637
 29.1401
 29.0877
 29.0251
 29.4242
 29.2999
 29.4544
 30.3086
 30.3015
 30.1799
 30.1707
 30.7829
 30.7635
 30.8375
 30.7108
 30.2507
 30.2102
 30.1493
 30.256
 31.7414
 31.7041
 31.6209
 31.612
 29.7473
 29.7583
 29.7909
 29.8149
 30.0898
 30.1136
 30.0156
 30.1373
 28.0226
 28.1475
 28.1204
 27.9942
 30.7119
 30.5932
 30.6052
 30.6556
 28.9095
 28.9318
 28.8889
 28.8458
 27.7199
 27.6966
 27.7346
 27.7771
 27.7053
 27.8152
 27.7624
 27.7507
 28.469
 28.4267
 28.4494
 28.4573
 27.7441
 27.6563
 27.6686
 27.7913
 28.1046
 28.1049
 28.1106
 27.6397
 27.7538
 27.7255
 27.7274
 31.0971
 31.1562
 31.0876
 31.2158
 29.6953
 29.8383
 29.84
 29.8205
 29.9842
 29.8988
 29.9631
 29.8913
 29.904
 29.9423
 29.954
 29.9711
 27.9888
 28.0331
 27.9673
 27.9549
 29.8157
 29.802
 29.9097
 29.8926
 30.2518
 30.3469
 30.357
 30.295
 28.6345
 28.6543
 28.5847
 28.696
 30.1533
 30.0909
 30.1698
 30.0448
 28.5992
 28.6552
 28.6961
 29.2701
 29.1848
 29.1657
 28.1048
 28.1884
 28.2118
 28.1691
 29.6324
 29.5919
 29.6601
 29.6556
 28.881
 28.9493
 28.9225
 28.8449
 29.9322
 30.0513
 29.999
 29.9071
 27.6451
 27.7049
 27.924
 27.9532
 27.9727
 27.8722
 31.1755
 31.2206
 31.2018
 31.2849
 28.8823
 28.8289
 28.8031
 28.7592
 30.2936
 30.224
 30.3414
 30.3513
 32.5391
 32.6204
 32.5289
 32.5714
 30.2361
 30.2755
 30.3335
 30.2672
 28.6811
 28.7628
 28.6809
 30.7971
 30.8183
 30.679
 30.6711
 27.7516
 27.8413
 27.7524
 27.8335
 30.3103
 30.2489
 30.2876
 30.2182
 28.966
 28.8884
 28.9092
 28.9591
 30.8979
 30.9226
 31.0015
 30.9226
 32.0847
 31.9334
 32.0292
 31.9507
 30.4107
 30.3219
 30.406
 30.4445
 29.7306
 29.7685
 29.6985
 29.1709
 29.3127
 29.1893
 29.2445
 30.5889
 30.5979
 30.686
 28.5401
 28.5797
 28.5137
 28.4707
 28.4975
 28.3959
 28.4934
 28.4123
 28.6914
 28.7788
 28.7119
 28.696
 27.8823
 28.0478
 27.9998
 27.9672
 28.4532
 28.4748
 28.3953
 29.9915
 29.9085
 29.9465
 29.8774
 28.55
 28.6185
 28.857
 28.9295
 28.9483
 28.9117
 28.7132
 28.737
 28.713
 28.6759
 30.4225
 30.3879
 30.4045
 30.4868
 30.3801
 30.2808
 30.3571
 30.2531
 32.7087
 32.6513
 32.5937
 32.662
 30.302
 30.2294
 30.3033
 29.9177
 29.9508
 29.973
 29.9341
 29.2721
 29.2747
 29.3213
 29.3369
 29.9735
 29.8874
 29.8594
 29.9291
 31.0559
 30.9953
 31.0704
 31.0666
 28.3468
 28.4659
 28.3838
 28.4231
 29.588
 29.5314
 29.5836
 29.6348
 28.1544
 28.1582
 28.1768
 28.1161
 29.1865
 29.2401
 29.1801
 29.2274
 27.9116
 27.8528
 27.9067
 31.9155
 31.8346
 31.8246
 31.8556
 28.7241
 28.6042
 28.6936
 28.6806
 29.5072
 29.5796
 29.4928
 29.5273
 30.4935
 30.5199
 29.8974
 29.8724
 29.8226
 29.8478
 29.662
 29.7534
 29.7371
 28.0987
 28.0721
 28.1455
 28.0986
 27.9755
 28.02
 28.0733
 28.0638
 30.5153
 30.5536
 30.4999
 30.5209
 29.5423
 29.5663
 30.1789
 30.0874
 30.1447
 30.2187
 28.497
 28.5718
 28.4454
 28.436
 30.9553
 30.8634
 30.9672
 30.833
 30.4273
 30.4112
 30.5051
 30.5187
 30.1754
 30.0783
 30.0382
 30.0862
 29.2854
 29.3003
 29.3171
 29.1872
 28.661
 28.6605
 28.7103
 28.7278
 28.5224
 28.5542
 28.6163
 28.5526
 32.4243
 32.4206
 32.496
 32.5283
 30.8096
 30.7156
 30.6437
 29.097
 29.2427
 29.1548
 29.0585
 29.0013
 29.0887
 28.9547
 28.0628
 28.0096
 28.0496
 27.9804
 29.3946
 30.2901
 30.2805
 30.3687
 30.3468
 28.8725
 28.9087
 28.9735
 28.9483
 28.3872
 28.4766
 28.4758
 28.3787
 28.434
 28.4336
 30.5801
 30.6489
 30.6796
 30.6881
 29.2625
 29.172
 29.1949
 29.1831
 30.8877
 30.954
 30.9277
 30.8584
 29.0041
 29.8839
 29.926
 29.775
 29.7435
 29.9521
 29.8892
 29.8558
 29.9154
 28.0607
 28.1492
 27.947
 27.897
 27.8526
 27.9121
 31.2852
 31.3922
 31.3049
 31.2842
 28.4814
 28.4754
 28.576
 28.4562
 29.1228
 29.1995
 29.1369
 29.0538
 32.2842
 32.2283
 32.2598
 32.3358
 29.3065
 29.316
 29.2677
 29.349
 29.4232
 29.5197
 29.5688
 29.5679
 30.5893
 30.6809
 30.5073
 30.568
 27.7358
 27.6532
 27.6444
 27.6174
 29.4644
 29.5516
 29.5673
 30.0081
 29.9167
 29.9023
 29.9996
 27.8917
 27.7971
 27.8659
 27.8525
 30.1007
 30.1734
 30.2386
 30.1316
 29.5415
 29.4873
 28.3516
 28.3673
 28.3056
 28.4246
 29.1635
 29.1406
 29.0547
 29.0487
 27.8957
 27.9342
 27.8194
 27.891
 29.5423
 29.4107
 30.4484
 30.425
 30.3949
 30.3884
 30.0825
 30.0693
 30.0047
 29.9851
 28.3079
 28.2893
 28.3783
 28.3462
 28.5035
 28.5516
 28.4653
 28.4806
 28.5431
 28.6254
 28.5497
 28.54
 30.087
 29.9815
 30.0259
 30.0757
 31.5179
 31.6212
 31.5989
 31.5594
 27.7333
 27.6448
 27.7144
 27.6733
 30.4647
 30.4727
 30.4528
 30.4171
 29.2399
 29.1421
 29.1574
 29.1918
 29.9748
 29.8377
 29.9334
 29.885
 29.2406
 29.3464
 29.2295
 28.893
 28.8064
 28.8835
 28.7638
 29.4199
 29.3657
 29.3992
 29.4683
 28.6961
 28.6616
 28.6178
 28.7181
 28.6514
 28.6834
 28.654
 28.7688
 32.116
 32.0037
 32.1125
 30.8376
 30.7504
 30.658
 30.6956
 29.1121
 29.1656
 29.1414
 29.1539
 28.3782
 28.2933
 28.3419
 28.296
 30.2257
 30.3669
 30.2308
 30.1488
 30.0751
 30.0682
 29.0357
 29.0847
 29.0363
 29.0302
 29.2357
 29.1385
 29.1342
 29.1199
 27.337
 27.3658
 27.4108
 27.316
 31.1534
 31.0664
 31.1645
 31.2599
 28.5884
 28.5893
 29.7509
 29.685
 29.664
 29.7574
 28.7296
 28.7129
 28.7094
 28.6833
 29.0341
 29.0295
 28.9788
 28.9905
 29.7021
 29.6943
 29.6225
 29.7522
 28.8643
 28.7946
 28.8024
 28.7969
 30.5006
 30.46
 30.4702
 30.396
 30.8675
 30.9988
 30.8465
 30.9197
 28.3335
 28.2996
 28.2538
 28.1448
 29.221
 29.182
 29.1226
 31.4614
 31.544
 31.4361
 28.1739
 28.147
 28.1288
 28.0969
 28.1716
 28.2056
 28.2292
 28.2318
 29.4588
 29.4484
 29.4514
 29.3695
 28.0588
 28.0136
 28.0297
 28.0208
 27.8246
 27.7073
 27.8173
 27.7142
 29.6402
 29.6089
 29.5318
 29.6297
 28.3213
 28.2788
 28.2606
 28.2649
 27.3786
 27.3472
 27.429
 27.3316
 28.5545
 28.5346
 28.5861
 28.4725
 29.1191
 29.2506
 29.1901
 29.2698
 28.3097
 28.267
 28.3262
 28.3412
 28.7343
 28.7504
 28.7099
 28.9397
 28.8763
 31.1047
 31.1355
 31.1216
 31.1776
 28.9217
 28.8506
 28.8522
 28.89
 31.5485
 31.5339
 31.5117
 31.5189
 31.365
 31.3494
 31.2936
 31.1891
 29.0197
 28.9962
 28.9768
 29.0576
 29.8106
 29.8119
 29.8801
 29.773
 28.763
 28.6901
 28.7039
 28.718
 29.3948
 29.4462
 30.9472
 30.9993
 30.9773
 30.8936
 27.7962
 27.7654
 27.7338
 27.8032
 29.8327
 29.9315
 29.7884
 29.8387
 28.1595
 28.1765
 28.2439
 28.2001
 30.8863
 31.0066
 30.9091
 30.9096
 28.1292
 28.0182
 28.0536
 28.0356
 28.9462
 29.0457
 28.969
 28.9824
 30.2054
 30.2885
 30.3367
 30.3019
 27.5098
 27.5515
 27.5405
 27.6016
 30.012
 29.9115
 29.9872
 30.0099
 29.6259
 29.7929
 29.6963
 29.7088
 27.8074
 27.793
 27.8595
 27.7855
 29.449
 29.5809
 29.5618
 29.5664
 28.3335
 28.2706
 28.2994
 28.3405
 28.3057
 28.3539
 28.3347
 29.6523
 29.8179
 29.7325
 29.7805
 28.3804
 28.3007
 28.3457
 28.3278
 30.649
 30.5487
 30.5501
 30.6783
 28.2231
 28.1742
 28.1756
 28.2173
 28.2438
 28.2699
 28.2212
 28.2611
 30.3893
 30.4083
 30.2122
 30.3099
 30.3058
 30.3422
 30.2512
 30.3861
 32.8685
 32.8496
 32.9611
 32.9538
 28.407
 28.5046
 28.4824
 31.2892
 31.1359
 31.1641
 31.1872
 27.9643
 28.0157
 28.0075
 27.9864
 30.4446
 28.2523
 28.3216
 28.2839
 28.2281
 28.2528
 28.2944
 28.3232
 32.2747
 32.4437
 32.4283
 32.3682
 32.2817
 32.3895
 32.3477
 32.4011
 27.9461
 28.0057
 27.9451
 27.9024
 30.3184
 30.3574
 30.272
 30.38
 28.7496
 28.7909
 28.7025
 29.9185
 29.9893
 29.9223
 30.0396
 29.6036
 29.5924
 29.6322
 28.1959
 28.242
 28.1164
 29.1294
 29.0621
 29.0444
 29.101
 29.926
 30.0096
 30.0257
 29.947
 30.4077
 30.3754
 30.4268
 30.3838
 28.7976
 28.756
 28.7444
 30.9989
 30.9368
 31.0701
 31.0826
 30.4091
 30.1839
 30.2838
 29.7123
 29.5769
 29.5798
 29.6782
 30.383
 30.2848
 30.3144
 30.3457
 30.3811
 30.2586
 30.2363
 30.2684
 28.1459
 28.1942
 28.1828
 28.1887
 29.6259
 29.7034
 29.6242
 29.5967
 29.999
 30.0684
 29.0877
 29.1552
 29.1029
 29.19
 27.9044
 28.0782
 28.0448
 28.0658
 28.0819
 32.9178
 32.9756
 33.0249
 32.9298
 28.4091
 28.3338
 28.381
 27.73
 27.7676
 27.7817
 27.7465
 28.5785
 28.6867
 28.6782
 28.68
 30.4255
 30.3881
 30.3345
 30.4329
 29.6291
 29.6885
 29.7477
 29.6705
 27.675
 27.6943
 27.7189
 27.725
 28.393
 28.445
 28.5008
 28.4424
 30.982
 31.0224
 31.0335
 30.9183
 29.7354
 29.7044
 29.6977
 29.8201
 29.8481
 29.807
 29.7554
 29.821
 33.013
 33.0579
 33.0382
 33.015
 30.6687
 30.6757
 30.7079
 30.6021
 28.4565
 28.3663
 28.4697
 28.4193
 29.0424
 29.0497
 28.981
 29.066
 29.4612
 29.3844
 29.3157
 29.4722
 28.684
 28.6102
 28.6469
 28.6395
 28.9213
 28.9453
 28.8561
 28.9483
 28.5915
 28.5878
 28.6415
 28.5144
 27.4865
 27.6022
 27.5645
 27.4567
 28.3835
 28.417
 28.4316
 28.5446
 28.6665
 28.7029
 28.7722
 28.6986
 28.7736
 29.1943
 29.1961
 29.2525
 29.1256
 27.9646
 27.9994
 28.0098
 28.006
 29.5449
 29.5908
 29.5153
 29.5425
 29.0912
 29.069
 29.028
 29.1334
 29.3075
 29.3961
 29.3383
 29.2712
 29.9031
 30.0305
 29.9323
 30.0257
 31.7462
 31.7072
 31.6353
 31.8287
 27.3975
 27.5016
 28.882
 28.9223
 28.9299
 32.4881
 32.5185
 32.5604
 30.1548
 30.2169
 30.1777
 30.2575
 31.2575
 31.2824
 31.4226
 31.4045
 30.6928
 30.7391
 30.6576
 30.7771
 27.8816
 27.9802
 27.9374
 27.9249
 29.2356
 29.3324
 29.2868
 29.3529
 28.7268
 28.6467
 28.6367
 28.5669
 28.9336
 28.9941
 29.0128
 29.1242
 28.6705
 28.6196
 28.6949
 28.6644
 29.4537
 29.4527
 28.3042
 28.452
 28.3178
 28.4381
 28.5271
 28.5748
 28.6148
 28.4549
 30.1985
 30.3231
 30.1825
 30.3087
 30.3546
 30.3346
 30.337
 30.3129
 29.1627
 29.1433
 29.1785
 29.1299
 29.158
 29.0943
 29.0477
 28.9912
 30.6716
 30.8188
 30.8304
 30.668
 28.5539
 28.6347
 28.6641
 28.6621
 27.5345
 27.5721
 27.5289
 27.5684
 28.2381
 28.2767
 28.2789
 28.3119
 27.4773
 27.4386
 27.5148
 27.4194
 28.1729
 28.0903
 28.1121
 28.1065
 29.3048
 29.191
 29.2785
 29.2479
 28.7203
 28.7675
 29.412
 29.316
 29.4363
 29.3853
 30.2597
 30.177
 30.1871
 30.1577
 28.4644
 28.3528
 28.3516
 28.416
 29.4364
 29.4594
 29.4301
 29.5252
 29.5839
 29.6554
 29.677
 29.6351
 30.4029
 30.3911
 30.3434
 30.2801
 30.1064
 30.0578
 30.1441
 29.9924
 30.4339
 30.3394
 30.3685
 30.4015
 31.8018
 31.8051
 31.9057
 31.8392
 28.5302
 28.4958
 28.5672
 28.5038
 28.8074
 28.7993
 31.3942
 31.4703
 31.466
 31.5414
 29.9527
 29.9148
 28.8306
 28.8897
 28.8205
 28.3414
 28.3122
 30.6276
 30.6223
 30.6881
 30.5572
 31.558
 31.5417
 31.5143
 31.4877
 30.7333
 30.7018
 30.6393
 30.6144
 29.9907
 29.8581
 29.8497
 29.8576
 29.0208
 29.0995
 29.1082
 29.0951
 28.6116
 28.6442
 28.6572
 28.6645
 29.9717
 29.9142
 29.886
 29.9046
 29.1896
 29.1803
 29.1528
 29.2716
 29.1774
 29.2299
 29.2534
 29.2053
 29.2477
 29.1806
 29.1482
 29.1616
 29.0817
 29.2136
 29.092
 29.4444
 29.5039
 29.3903
 29.431
 29.7946
 29.7565
 29.9195
 29.7774
 30.3541
 30.2664
 30.4103
 30.2663
 27.9237
 27.9477
 27.9035
 27.8599
 29.6462
 29.6429
 29.5267
 29.5509
 30.8222
 30.8139
 31.0158
 30.8664
 31.0609
 30.9897
 31.0697
 31.0778
 30.7906
 30.8903
 30.878
 30.8468
 30.3676
 30.3707
 30.2694
 30.2466
 30.4887
 30.546
 30.5725
 30.5233
 28.1803
 28.1353
 28.1254
 28.1023
 29.539
 29.5382
 29.5551
 29.4733
 28.5999
 28.5228
 28.5793
 28.6252
 30.3804
 30.2965
 30.4045
 30.3234
 27.8635
 27.8381
 27.8469
 27.8268
 27.804
 27.8195
 27.7243
 28.575
 28.729
 28.6911
 28.678
 30.1772
 30.1261
 30.226
 30.1531
 27.5941
 27.698
 27.6787
 29.7505
 29.8363
 29.7341
 29.867
 28.1994
 28.1872
 28.3277
 28.3064
 28.2434
 28.3379
 29.8269
 29.8714
 29.8354
 30.6901
 30.6517
 30.7542
 30.731
 30.4121
 30.4252
 30.3114
 30.3334
 29.358
 29.2593
 29.396
 27.809
 27.9218
 27.9086
 28.6074
 28.7034
 28.7215
 28.6689
 27.8012
 27.8179
 27.9096
 27.7372
 29.6665
 29.5793
 29.5354
 29.5939
 28.0413
 28.0269
 27.9971
 28.0914
 29.1917
 29.179
 29.2308
 29.2896
 30.1005
 30.2246
 30.1642
 27.6641
 27.7268
 27.6954
 27.6033
 28.824
 29.0786
 28.9851
 29.0302
 29.0679
 28.8527
 28.8347
 28.9045
 30.1068
 30.182
 30.1617
 30.1657
 30.1712
 30.0416
 29.731
 29.8217
 29.8016
 29.7969
 29.5675
 29.4625
 29.5292
 29.4694
 28.6392
 27.5821
 27.6932
 27.7019
 27.626
 31.8975
 32.0219
 32.048
 32.0536
 30.0472
 30.081
 30.216
 30.2526
 30.1834
 30.1545
 30.1943
 30.1962
 30.3155
 30.2846
 28.5449
 28.6383
 28.6369
 28.5821
 28.4664
 28.4524
 28.547
 28.4489
 29.977
 30.0863
 28.6909
 28.657
 28.5605
 28.622
 28.7035
 28.6196
 28.6961
 29.043
 29.1154
 29.1594
 29.1808
 29.5285
 29.603
 29.5266
 29.6121
 28.554
 28.4426
 28.4624
 28.5454
 28.3233
 28.3322
 28.2518
 28.3526
 28.3744
 28.3013
 28.3433
 28.5236
 28.5191
 28.4974
 28.5592
 29.6632
 29.6398
 29.624
 29.6952
 31.2172
 31.2892
 31.1926
 31.1784
 29.8369
 29.8488
 29.8902
 29.8682
 28.3029
 28.373
 28.4225
 28.3611
 28.7941
 28.8528
 28.8549
 28.7904
 29.9306
 29.8812
 29.8501
 29.8431
 28.8109
 28.8913
 28.8247
 28.8155
 29.1818
 29.1525
 29.2643
 29.1442
 29.1636
 29.0865
 29.1188
 29.0841
 28.804
 28.7393
 28.7497
 28.0957
 28.0768
 28.1255
 28.1122
 29.8791
 29.7922
 29.8304
 29.8266
 29.455
 29.3763
 29.3834
 29.4001
 31.1192
 31.1543
 31.1026
 31.0257
 30.4921
 30.4522
 30.4283
 30.509
 30.409
 30.5617
 30.4778
 30.5675
 30.4649
 30.4235
 30.4389
 30.3852
 29.2091
 29.2529
 29.2325
 30.8999
 30.9253
 30.848
 30.8259
 30.5818
 30.5473
 30.4969
 30.6244
 27.6343
 27.7235
 27.7257
 27.6548
 29.1011
 29.1417
 29.1928
 29.2255
 28.33
 28.3386
 28.3952
 28.3908
 29.0285
 28.9947
 29.055
 29.096
 28.8128
 28.7606
 28.8239
 28.8111
 30.1422
 30.2176
 30.1902
 30.2961
 29.3923
 29.2349
 29.3613
 29.3341
 28.2216
 28.1651
 28.2052
 28.1791
 28.9477
 28.9786
 28.8666
 28.8844
 30.5551
 30.6344
 30.5332
 30.463
 28.0559
 28.0274
 28.059
 28.0157
 29.7471
 29.82
 30.7112
 29.3289
 29.2899
 29.228
 29.3448
 29.5405
 29.4494
 29.549
 29.569
 31.6615
 31.6742
 31.5794
 29.8518
 29.9441
 29.9652
 30.02
 28.9914
 28.8636
 28.9226
 28.8389
 29.1947
 29.1577
 29.1764
 29.2154
 28.0577
 28.0199
 28.0156
 28.0381
 30.3628
 30.2162
 30.3264
 30.1962
 30.2032
 30.2115
 30.1082
 31.3773
 31.5409
 31.4111
 31.4248
 30.4412
 30.3116
 30.4171
 28.9789
 28.8307
 28.9528
 30.4693
 30.4853
 30.5728
 30.5236
 29.5197
 29.4323
 29.4263
 29.413
 33.0129
 33.0393
 32.9813
 32.8431
 29.6304
 29.6556
 29.6569
 30.9203
 30.9527
 30.9222
 30.921
 29.754
 29.7847
 29.8773
 29.8071
 30.6479
 30.5678
 30.576
 30.5056
 28.5642
 28.5292
 28.5724
 28.5092
 28.4178
 28.4927
 28.4446
 28.3976
 27.8244
 27.8209
 27.778
 27.878
 29.1369
 29.2351
 29.1513
 29.1304
 30.5833
 30.7037
 30.6003
 30.6705
 30.1107
 30.1513
 31.3486
 31.3428
 31.286
 31.2994
 29.5734
 29.5393
 29.866
 29.7126
 29.7532
 30.2479
 30.1931
 30.1539
 30.2
 27.8597
 27.818
 27.9402
 27.9224
 27.9837
 27.9948
 28.0273
 28.0014
 30.2209
 30.2057
 30.281
 30.3263
 30.9716
 30.9314
 28.9786
 28.9463
 28.9658
 28.8968
 30.3853
 30.4106
 30.3311
 30.3229
 29.793
 29.9191
 29.7399
 27.3942
 27.371
 27.4504
 29.2548
 29.1525
 29.1834
 29.1897
 28.1298
 28.0562
 28.1537
 28.1878
 29.1337
 29.0668
 29.0479
 29.1488
 28.6024
 28.5394
 28.5416
 28.6332
 30.626
 30.5262
 30.5998
 30.6614
 30.2827
 30.1336
 30.3209
 30.1853
 29.1034
 29.1808
 29.0238
 29.1249
 29.8618
 29.7627
 29.7446
 29.8676
 30.6048
 30.5985
 30.5311
 30.4899
 29.5176
 29.5004
 29.422
 29.3812
 28.6647
 28.6587
 28.7134
 29.1724
 29.0944
 29.146
 29.1046
 32.445
 32.3877
 32.2514
 32.294
 30.9397
 30.9636
 30.9161
 30.9373
 29.907
 29.9011
 29.9308
 29.8275
 31.6773
 31.5558
 31.6544
 31.652
 28.0592
 28.0462
 28.1238
 27.7248
 27.7921
 27.8601
 27.8038
 28.4389
 28.3175
 28.3727
 28.3643
 29.2177
 28.7935
 28.6764
 28.6582
 28.7303
 29.3815
 29.3195
 29.4253
 29.439
 30.6409
 30.6934
 30.675
 30.1813
 30.1508
 30.1084
 30.2593
 32.5359
 32.615
 32.5286
 32.6167
 31.5134
 31.4968
 31.4941
 31.3954
 29.9599
 29.964
 29.9057
 29.8548
 27.6319
 27.7407
 27.6997
 27.7164
 32.243
 32.1239
 32.0661
 32.0357
 28.6319
 28.5538
 28.6725
 28.5907
 29.3024
 29.2788
 29.2122
 29.2834
 30.1795
 30.3579
 30.3317
 29.3719
 29.4826
 29.4751
 29.4704
 27.7607
 27.7164
 27.7041
 30.6095
 30.4553
 30.4377
 29.7398
 29.7199
 29.6233
 29.6401
 29.9132
 29.941
 29.9695
 29.9932
 29.8663
 29.8784
 29.7932
 29.773
 30.7124
 30.7946
 30.7431
 30.6456
 29.4667
 29.404
 29.496
 29.4129
 27.8154
 27.9166
 27.9192
 27.9675
 28.1012
 28.0997
 28.1022
 28.0553
 31.0732
 31.0176
 31.0511
 31.0439
 28.1609
 28.1207
 28.1198
 28.2158
 27.9485
 27.8431
 27.8683
 27.9602
 28.0895
 28.1114
 28.1949
 28.1902
 28.8731
 28.8739
 28.8161
 28.8451
 29.3618
 29.4234
 29.3437
 29.9603
 30.0948
 30.0757
 30.0167
 28.408
 28.4609
 28.493
 28.3896
 28.4858
 28.4389
 28.4069
 28.4278
 27.3752
 27.3855
 27.4939
 27.4364
 31.6896
 31.6094
 31.6233
 31.5981
 31.2755
 31.3486
 31.32
 31.2407
 30.7813
 30.8316
 30.7148
 30.8394
 29.7726
 29.9217
 29.8257
 29.846
 29.9069
 29.9017
 29.9057
 27.9136
 27.8695
 27.7967
 27.84
 28.4088
 28.4431
 28.4927
 28.475
 29.4628
 29.5196
 29.5479
 29.5053
 28.0627
 28.0152
 29.0228
 29.026
 29.0342
 29.0998
 28.1564
 28.1237
 28.0219
 28.0912
 29.1696
 29.082
 29.1911
 29.0684
 29.9573
 29.9154
 30.0634
 30.0537
 31.1455
 31.1976
 31.163
 31.0426
 32.6583
 32.5056
 32.6357
 32.6167
 28.2017
 28.2345
 28.2344
 28.1886
 27.849
 27.8336
 27.8343
 27.7854
 29.7129
 29.8261
 29.7676
 29.8411
 29.2801
 29.3221
 29.3366
 29.2833
 30.3016
 30.4081
 30.2288
 28.7931
 28.8587
 28.836
 28.875
 30.3508
 30.3669
 30.3025
 30.3076
 29.4746
 29.5477
 29.6124
 29.5571
 28.8243
 28.8622
 28.8512
 28.8091
 29.1876
 29.2132
 29.2777
 28.0492
 28.1164
 28.1023
 28.1058
 28.8621
 28.7611
 31.5839
 31.3663
 31.5279
 31.4728
 28.552
 28.6154
 28.585
 30.2387
 30.1896
 30.219
 30.2034
 29.0222
 29.0487
 29.0713
 29.2699
 29.3715
 29.2793
 29.3151
 28.9354
 29.0227
 28.8866
 28.9734
 28.8305
 28.7471
 32.2413
 32.2497
 32.3566
 32.206
 32.2316
 32.3778
 32.3553
 32.2754
 29.2909
 29.3829
 29.3421
 29.3864
 29.0385
 29.0929
 29.025
 29.0627
 32.1737
 32.1887
 32.0891
 32.0756
 30.1545
 30.2714
 30.8302
 30.8215
 30.7368
 30.6609
 28.7873
 28.8305
 28.7207
 28.7676
 29.0213
 28.9829
 28.9214
 29.0492
 28.8483
 28.9448
 28.9677
 28.9391
 29.95
 29.9452
 29.8664
 29.9536
 30.5926
 30.5529
 30.7012
 30.562
 31.111
 31.0264
 31.0007
 31.0802
 30.5617
 30.5921
 30.5837
 30.4116
 28.4726
 28.5613
 28.4839
 28.5406
 29.2881
 29.4952
 29.3978
 31.7106
 31.5928
 31.5657
 28.7026
 28.5758
 28.6533
 28.6596
 28.6179
 28.7706
 28.6856
 28.6666
 29.5379
 29.5947
 29.6372
 29.5913
 29.5773
 29.4831
 29.5484
 30.5486
 30.6269
 30.6492
 30.6485
 28.3654
 28.3883
 28.3268
 28.3645
 30.8997
 30.9429
 30.9271
 30.8661
 30.933
 31.0147
 30.9551
 27.6465
 27.5529
 27.5081
 27.5862
 28.1314
 28.0854
 30.1015
 30.1346
 30.051
 30.0905
 29.3521
 29.2583
 29.3707
 29.45
 29.4986
 29.4785
 29.547
 30.568
 30.4981
 30.4985
 28.4049
 28.3597
 28.4463
 28.4217
 30.6597
 30.5197
 30.6098
 30.6307
 28.6137
 28.6956
 28.7083
 28.6517
 30.8347
 30.7582
 30.5297
 30.6683
 30.5818
 30.627
 30.2654
 30.3252
 30.303
 30.2491
 31.5407
 31.5428
 31.6541
 31.6351
 28.5196
 28.4257
 29.9042
 29.8506
 29.8412
 29.8463
 27.7423
 27.7759
 27.7544
 27.7286
 30.0012
 30.0293
 29.8974
 29.8474
 28.3649
 28.2911
 28.2665
 28.2544
 27.9883
 27.9107
 28.037
 27.9234
 28.6177
 28.6952
 28.0504
 27.9917
 28.0186
 28.0237
 30.535
 30.5395
 30.5385
 30.4548
 28.0856
 28.0576
 28.0426
 28.0955
 27.6974
 27.5891
 27.5936
 27.6733
 28.897
 28.8869
 28.8203
 28.838
 29.4694
 29.4947
 29.396
 29.3595
 28.0296
 28.1339
 28.0781
 28.0217
 31.526
 31.3359
 31.3844
 31.5619
 28.0627
 27.9488
 29.9603
 29.8905
 29.9004
 29.809
 28.1794
 28.1875
 28.2871
 28.2781
 30.5341
 30.4358
 30.4568
 30.4615
 29.6927
 29.837
 29.7973
 29.7093
 30.342
 30.3952
 30.2588
 30.5861
 30.6685
 30.6217
 30.7263
 30.8221
 30.7103
 30.7476
 30.6862
 29.0149
 29.0654
 29.0868
 28.2395
 28.23
 28.1722
 28.1877
 29.2272
 29.2751
 29.2715
 30.6229
 30.6941
 30.6737
 29.2523
 29.1183
 29.2279
 29.1602
 28.9014
 28.928
 28.89
 28.8009
 29.476
 29.3712
 29.3626
 29.4036
 29.665
 29.7078
 29.7279
 29.8287
 29.8633
 29.8507
 29.7357
 29.7102
 29.6474
 29.7873
 28.1492
 28.2341
 28.1704
 28.2276
 28.5749
 28.6323
 28.5948
 28.551
 29.6071
 29.5293
 29.5627
 29.4308
 30.5585
 30.6252
 30.605
 29.1718
 29.2196
 29.1681
 29.1659
 30.0759
 30.2081
 30.1628
 30.2197
 31.9579
 31.9863
 32.03
 32.0719
 29.7965
 29.8451
 29.8248
 29.8293
 28.0973
 28.1092
 28.0493
 28.0666
 29.7998
 29.6808
 29.7378
 29.7911
 30.7459
 30.7468
 30.7125
 30.6552
 30.5923
 30.6326
 30.6013
 29.4123
 29.3909
 29.3938
 28.8806
 29.9298
 30.0614
 29.9564
 29.9613
 28.0227
 28.0353
 27.99
 28.1613
 28.1461
 28.1052
 29.8071
 29.7009
 29.7601
 29.7032
 27.5843
 27.5529
 27.5359
 27.5275
 30.6025
 29.1086
 29.1911
 29.1424
 29.1518
 30.5306
 30.5038
 30.5036
 30.4604
 28.0107
 27.9821
 28.0934
 28.012
 28.6851
 28.5532
 28.6189
 28.6567
 28.4359
 28.3906
 28.4711
 28.4671
 30.8517
 30.8039
 30.7402
 30.8332
 30.0483
 29.9667
 30.0595
 30.0539
 29.2756
 29.3214
 29.2244
 29.3113
 29.8885
 29.9936
 29.8196
 29.9554
 28.7896
 28.7651
 28.6912
 28.7106
 30.5191
 30.6008
 30.4827
 30.4661
 30.0919
 30.014
 29.9423
 30.0038
 28.9809
 28.9728
 28.988
 28.8879
 27.8977
 27.7938
 27.8576
 27.8158
 30.6954
 30.7343
 30.5728
 30.684
 31.4022
 31.5084
 31.3932
 31.3997
 27.969
 27.921
 27.9469
 27.9016
 31.4128
 31.506
 31.1607
 31.1993
 31.1592
 31.0581
 29.3208
 29.271
 29.3448
 29.3998
 30.0155
 29.9701
 29.9697
 30.0703
 27.4194
 27.3858
 27.3924
 27.4538
 28.0564
 28.0622
 27.9739
 28.682
 28.6856
 28.6324
 28.7285
 30.7186
 30.678
 30.779
 30.6525
 30.0962
 30.1084
 30.1424
 30.177
 30.123
 30.0621
 28.7217
 28.6068
 28.6414
 28.6858
 28.7935
 28.7861
 28.8559
 28.7756
 28.5793
 28.5699
 28.6689
 28.5801
 27.7194
 27.7008
 27.8328
 27.6813
 28.4689
 28.4546
 28.5362
 29.735
 29.1759
 29.1751
 29.1396
 29.2107
 29.1244
 29.2157
 29.201
 29.2129
 28.3007
 28.3552
 28.3508
 28.3957
 28.4808
 28.5178
 28.5242
 28.4407
 29.023
 29.0961
 29.0854
 29.979
 29.9749
 29.9018
 30.0968
 29.1611
 29.0181
 29.117
 29.0706
 29.8114
 29.7605
 29.8575
 32.0143
 31.9973
 32.0444
 31.9346
 28.2643
 28.1664
 28.2014
 28.1624
 28.2592
 28.1364
 28.2017
 32.209
 29.1137
 29.0875
 29.1176
 29.0168
 29.0567
 29.0317
 31.3218
 31.3086
 31.3152
 31.2407
 30.7634
 30.7236
 30.6346
 30.7575
 30.2902
 30.2219
 30.1704
 30.2461
 30.3463
 30.3015
 30.2682
 30.3691
 30.3799
 30.3001
 29.7039
 29.7429
 29.7611
 29.8121
 29.698
 29.6236
 27.3236
 27.3307
 30.6334
 30.4349
 30.5946
 30.4921
 29.4826
 29.4976
 29.4746
 29.5657
 30.6736
 30.677
 30.8691
 30.7432
 28.1869
 28.1508
 28.2741
 28.2292
 28.1968
 28.2585
 28.1957
 28.2626
 28.7341
 28.6926
 28.6723
 28.7044
 29.2887
 29.2811
 29.1599
 29.2215
 29.323
 29.3683
 30.5897
 28.5668
 28.484
 28.5114
 28.4888
 27.7443
 27.7503
 27.6426
 27.7761
 28.2037
 28.1178
 28.217
 28.1795
 32.9852
 32.9422
 32.9271
 32.8897
 27.8306
 27.8203
 27.8662
 27.8567
 30.2618
 30.2482
 30.3408
 30.2199
 30.0063
 30.0859
 30.0584
 30.1351
 28.7483
 28.7443
 28.6784
 28.6898
 28.738
 28.7456
 28.7916
 28.7754
 30.5725
 30.4221
 30.5072
 30.45
 27.9217
 27.8771
 27.9255
 27.9159
 28.1798
 28.1263
 28.1513
 28.1052
 28.4915
 28.4744
 28.4238
 28.4229
 27.9701
 28.0212
 28.0175
 27.9721
 30.0907
 29.9958
 30.0025
 29.9514
 30.6977
 30.6408
 30.6407
 30.5713
 28.2151
 28.2813
 28.2958
 28.2787
 29.662
 29.6238
 29.6959
 29.7691
 29.3555
 29.3934
 29.4056
 29.3566
 32.4734
 32.4845
 32.3059
 32.4718
 27.826
 27.8147
 28.0229
 28.0063
 28.0759
 27.9771
 30.9801
 31.1071
 31.1537
 30.9849
 30.0802
 30.1974
 30.1864
 30.2289
 28.1421
 28.1995
 28.1245
 28.0959
 29.8365
 29.8018
 29.8495
 29.7548
 29.7337
 29.7002
 29.8109
 29.798
 27.7283
 27.7213
 27.7598
 27.8044
 29.2137
 29.2293
 29.2061
 29.1748
 29.3832
 29.3549
 29.3804
 29.4318
 28.4764
 28.4347
 28.4077
 28.4254
 28.7433
 28.7527
 28.7933
 28.8369
 29.6594
 29.649
 29.7503
 30.0324
 29.9606
 30.0147
 29.8954
 31.166
 31.138
 31.2169
 31.0141
 29.8384
 29.7668
 29.7541
 29.7378
 29.3051
 29.3494
 29.3031
 29.3749
 27.6478
 27.6309
 27.6487
 27.7396
 29.8713
 29.7305
 29.8027
 29.8118
 30.959
 30.9486
 31.0378
 31.0632
 28.5874
 28.5351
 28.5689
 28.6277
 28.8698
 28.8664
 28.9123
 29.2806
 29.1621
 29.1589
 29.1273
 31.0936
 31.0719
 31.0581
 30.9955
 29.095
 29.166
 29.1335
 29.2041
 28.0055
 28.0099
 27.9861
 27.987
 29.1994
 29.1421
 29.1743
 29.0772
 30.8568
 30.9428
 30.8822
 30.8341
 30.524
 30.4707
 30.5596
 30.6352
 27.2737
 27.2931
 27.257
 27.2546
 30.147
 30.1336
 30.1408
 30.2559
 28.9275
 29.0568
 29.012
 28.9931
 27.3712
 27.3554
 27.4133
 27.4128
 28.0627
 27.9759
 28.012
 28.5727
 28.5938
 28.4965
 28.4731
 28.1214
 28.1412
 28.031
 28.1513
 32.1814
 32.1196
 32.0095
 32.059
 30.3652
 30.2456
 30.378
 27.801
 27.6986
 27.7149
 27.7253
 29.0022
 29.0249
 28.9409
 29.038
 28.3654
 28.3925
 28.2998
 28.4297
 30.6636
 30.6695
 30.7333
 30.8078
 29.8687
 29.7823
 29.897
 29.82
 28.7241
 28.8421
 28.8165
 31.2583
 31.2458
 31.1796
 31.1679
 30.5411
 30.6191
 30.5688
 30.6018
 29.8093
 27.7437
 27.7142
 27.7186
 27.6703
 31.8922
 31.8773
 31.9489
 31.9733
 28.4733
 28.3648
 28.4137
 28.3574
 28.8525
 28.9025
 28.8534
 28.9521
 32.3862
 28.2313
 28.2965
 28.1965
 27.8272
 27.7475
 27.8038
 27.7899
 29.5778
 29.5234
 29.3975
 29.518
 28.8307
 28.8382
 28.7828
 28.8726
 30.2709
 30.3674
 29.3288
 29.3656
 29.3646
 29.277
 30.3354
 30.3996
 30.4351
 30.3338
 29.968
 30.0041
 29.8705
 29.8574
 28.6417
 28.6843
 28.6372
 28.6066
 31.3592
 31.3249
 31.3201
 31.2093
 30.6194
 30.6951
 30.6361
 30.7334
 31.3803
 31.2264
 30.9983
 30.9993
 30.9726
 30.9807
 31.1185
 31.1821
 31.0563
 31.1755
 27.7575
 27.8053
 27.8484
 27.8583
 29.0309
 29.0195
 29.0555
 28.9289
 29.767
 29.656
 29.7109
 29.7192
 29.1039
 29.1298
 29.1447
 29.0726
 27.7022
 27.7083
 31.3127
 31.391
 31.375
 31.2963
 27.7339
 27.6992
 27.7568
 31.6153
 31.6978
 31.6171
 31.6858
 27.826
 27.8958
 27.8518
 27.9025
 29.8648
 29.9264
 29.8309
 29.9172
 29.544
 29.5268
 29.5641
 27.6979
 27.7316
 27.7294
 27.685
 29.0622
 29.1352
 29.0465
 29.1186
 29.4724
 29.4318
 29.3497
 29.4354
 29.7677
 29.8329
 29.6536
 29.8248
 29.6943
 29.7576
 28.9199
 29.0036
 28.9584
 27.66
 27.7703
 27.7843
 27.7071
 29.5763
 29.5164
 29.5807
 29.5662
 29.7102
 29.756
 30.0492
 30.1989
 30.2083
 30.1616
 31.7577
 31.7246
 31.6451
 29.1811
 29.1543
 29.2564
 29.2656
 27.8198
 27.814
 27.8043
 31.293
 31.4462
 31.2731
 29.4665
 29.5593
 29.5145
 29.5821
 28.7036
 28.7115
 28.8001
 28.771
 31.8636
 31.8872
 31.8491
 31.8567
 28.2022
 28.1856
 28.237
 28.2436
 28.6314
 28.7147
 28.7028
 28.7086
 28.1434
 28.1189
 28.1692
 27.783
 27.7775
 27.6497
 27.7083
 29.228
 29.3199
 29.2343
 29.236
 27.9917
 28.0091
 28.0493
 28.0502
 29.8993
 29.9213
 29.8671
 29.9628
 27.6974
 28.8825
 29.3682
 29.4103
 29.336
 29.4367
 28.8795
 28.8875
 28.971
 28.9796
 28.5092
 28.4863
 28.53
 28.6039
 28.8777
 28.9185
 28.8301
 28.8651
 28.3364
 28.3795
 28.3072
 28.3214
 29.3779
 29.4258
 29.3881
 29.3238
 29.463
 29.4304
 29.416
 29.3833
 29.7308
 29.7428
 29.7736
 29.6746
 29.3792
 29.3778
 29.462
 30.82
 30.7894
 30.8332
 30.7614
 29.3235
 28.7887
 28.6563
 28.6507
 28.736
 27.8598
 27.8535
 27.9412
 30.0102
 30.1494
 30.0883
 30.1365
 29.2178
 29.118
 29.1392
 28.823
 28.8073
 28.8937
 28.8758
 28.7255
 28.712
 28.6266
 28.6176
 28.0547
 28.0202
 27.9735
 28.0317
 30.3534
 30.3543
 30.3011
 30.4457
 29.1291
 29.209
 29.2329
 29.2411
 29.4436
 29.5016
 29.5519
 29.4828
 29.5238
 29.5903
 29.591
 29.6557
 29.3539
 29.3892
 29.3435
 29.4232
 28.4673
 28.5892
 28.4506
 28.5323
 29.4903
 29.6181
 29.5687
 29.5546
 31.339
 31.3417
 31.3352
 31.27
 31.2488
 31.1688
 31.1537
 29.3702
 29.3682
 29.2967
 29.2908
 29.3521
 29.2641
 29.2566
 29.2512
 29.4187
 29.5079
 29.383
 29.3585
 27.8999
 27.8978
 27.9783
 27.9832
 28.4914
 28.5656
 28.5643
 28.4813
 30.0935
 30.0424
 30.0412
 30.0223
 30.6829
 30.5805
 30.5647
 30.7063
 28.165
 28.1868
 28.2268
 28.1632
 31.8393
 31.8142
 31.7796
 31.7185
 29.7432
 29.6548
 29.7012
 29.7168
 30.9085
 30.8673
 30.8664
 30.4879
 30.3737
 30.39
 30.357
 28.5964
 28.6446
 28.5793
 28.6789
 30.3161
 30.4629
 30.3997
 30.3675
 31.2221
 31.046
 31.1616
 31.9601
 31.8067
 31.7426
 31.7172
 27.645
 27.6235
 27.5831
 27.5357
 30.2378
 30.3004
 30.253
 30.2178
 28.9459
 29.0546
 29.0403
 28.9596
 27.9776
 28.0334
 28.0836
 28.0416
 28.3475
 28.2537
 28.3825
 28.322
 30.1192
 30.1109
 30.1688
 30.1338
 31.0026
 31.1062
 31.1768
 31.0825
 29.1653
 29.1123
 29.1884
 29.1419
 30.9094
 30.7859
 29.7134
 29.8583
 29.8405
 29.7466
 29.4796
 29.4885
 29.5366
 29.4505
 29.5673
 29.5611
 29.6004
 30.7257
 30.6799
 30.7209
 28.8641
 28.8671
 28.8454
 28.8154
 29.037
 29.045
 29.1052
 28.975
 30.1495
 30.0475
 30.0896
 30.143
 28.4727
 28.3806
 28.4995
 28.4531
 29.3697
 29.4632
 29.4118
 29.3393
 30.9414
 30.9432
 30.9684
 30.9419
 29.9391
 29.908
 29.9562
 29.022
 29.0201
 29.0961
 29.0134
 29.2808
 29.2421
 29.1813
 27.6421
 27.6954
 27.6935
 27.7236
 31.4181
 31.4399
 31.42
 31.5484
 29.9324
 29.8437
 29.8549
 29.9139
 29.9634
 29.9874
 30.0705
 29.9668
 27.5736
 27.602
 27.5101
 27.4477
 28.4893
 28.4403
 28.4529
 30.3645
 30.4289
 30.4347
 30.4221
 28.2696
 28.3658
 28.3175
 30.2319
 30.2286
 30.2941
 30.2737
 32.444
 32.3485
 32.5173
 32.4396
 27.9563
 27.9352
 27.9095
 27.9898
 30.7138
 30.7371
 30.7787
 30.8942
 27.791
 27.8393
 27.8499
 27.8274
 30.4568
 30.3124
 30.4057
 30.3699
 32.6202
 32.6998
 32.5687
 32.6267
 31.0869
 31.2523
 31.1564
 31.0385
 30.7274
 30.612
 30.581
 30.7402
 29.3233
 29.4549
 30.6381
 30.6518
 30.8061
 30.7717
 29.0079
 29.0642
 29.091
 29.1287
 29.5026
 29.5006
 29.5711
 29.4541
 28.032
 28.1114
 27.9626
 27.9544
 28.1295
 28.1904
 28.1504
 28.0967
 28.3208
 28.3303
 28.3211
 28.4018
 28.1081
 28.0972
 28.0799
 28.1334
 28.6642
 28.6994
 28.6197
 28.6802
 28.289
 28.2172
 28.2397
 28.2825
 31.3333
 31.4774
 31.5059
 31.3176
 27.9784
 27.9441
 27.9573
 27.9693
 29.7427
 29.834
 29.8281
 29.7774
 28.4823
 28.5841
 28.5618
 28.1425
 28.0737
 28.0765
 28.1269
 30.6308
 30.7305
 30.7464
 30.6899
 31.2311
 31.289
 31.3786
 31.3328
 28.515
 28.5261
 28.5919
 28.4617
 29.5114
 29.5329
 29.581
 29.5998
 28.7207
 28.7787
 28.723
 28.701
 28.6996
 28.6999
 28.5745
 29.8332
 29.8507
 29.9419
 28.782
 28.7623
 29.1684
 29.2907
 27.6488
 27.6099
 27.6151
 27.6485
 29.2212
 29.1699
 29.2165
 29.1162
 28.7362
 28.7942
 28.681
 28.7809
 29.1202
 29.0716
 29.0849
 29.0188
 28.3209
 28.3035
 28.263
 28.3165
 28.3185
 29.5871
 29.5857
 29.6716
 29.6749
 30.9709
 30.9713
 30.9668
 30.9481
 28.664
 28.7507
 28.6686
 28.726
 28.7228
 28.8124
 28.81
 28.7349
 32.3144
 32.2962
 32.2311
 32.1453
 29.3905
 29.3291
 29.3687
 29.405
 29.366
 29.4475
 29.4701
 29.3879
 28.7955
 28.8579
 30.6591
 30.6319
 30.5837
 30.6479
 29.9623
 29.9111
 29.9466
 29.9994
 30.5108
 30.5647
 30.604
 30.5797
 30.0318
 29.9616
 29.9751
 30.0533
 30.5379
 30.5493
 30.5897
 30.5102
 28.4879
 28.5054
 28.468
 28.4194
 27.9811
 27.9696
 28.0462
 28.0016
 30.2373
 30.2753
 30.3302
 30.2037
 29.4042
 29.5112
 29.4298
 29.4339
 28.3207
 28.4162
 28.3602
 28.4007
 29.7564
 29.7803
 29.768
 29.678
 30.2301
 30.163
 31.0927
 31.0587
 31.0252
 31.1079
 29.6682
 29.6955
 29.7035
 29.7736
 28.2244
 28.2574
 28.2579
 28.176
 27.8917
 27.9435
 27.9364
 27.8689
 31.9943
 31.954
 29.6851
 29.6213
 29.5689
 29.5792
 29.728
 29.8737
 29.778
 29.7898
 29.9087
 29.969
 30.4009
 30.3455
 30.3628
 30.3057
 29.5282
 29.4164
 29.412
 31.3091
 31.2433
 31.2457
 31.1896
 28.0702
 28.0217
 28.1116
 28.0635
 27.9325
 27.9264
 27.9228
 27.6166
 27.6651
 27.7181
 27.6827
 29.1497
 29.0054
 29.0782
 29.0441
 29.3343
 29.2384
 29.3791
 29.2913
 28.422
 28.3231
 28.2792
 28.348
 28.7428
 28.7345
 28.6635
 28.7382
 28.9134
 28.8212
 28.8561
 29.2915
 29.2787
 29.314
 29.2182
 28.6525
 28.5211
 28.5686
 28.6424
 29.6309
 29.662
 29.6161
 29.6058
 29.3493
 29.3623
 29.2879
 29.422
 28.8134
 28.8315
 28.8615
 28.7795
 29.3602
 29.4281
 29.4559
 29.3612
 32.5207
 32.5642
 32.4992
 32.4753
 30.3335
 30.3746
 30.3697
 30.4408
 28.6471
 28.6325
 28.5721
 28.5629
 30.4038
 30.3813
 30.5075
 30.5445
 30.6425
 30.7801
 30.6364
 30.5611
 28.1373
 28.1354
 28.0834
 28.1885
 28.1549
 28.229
 28.1691
 28.1763
 27.9486
 28.0209
 27.9408
 27.9396
 28.3682
 28.3758
 28.3097
 28.3283
 29.7803
 29.7389
 29.8403
 29.7405
 30.4598
 30.4998
 30.4027
 30.4946
 28.7671
 28.869
 28.7682
 28.8514
 30.3997
 30.3693
 30.347
 30.3646
 31.1736
 31.1193
 31.1143
 31.0385
 29.4498
 29.3874
 29.4341
 29.3679
 29.8636
 29.9227
 29.982
 29.8747
 29.8625
 29.7605
 29.8551
 30.9764
 31.0291
 31.143
 31.0488
 30.2168
 30.233
 30.2721
 30.245
 28.7131
 28.6634
 28.7051
 28.6545
 29.337
 29.2618
 29.2503
 27.6274
 27.6991
 27.7066
 27.6536
 27.8667
 27.7974
 27.7614
 27.8216
 29.9956
 29.9242
 30.0278
 29.9304
 29.0175
 28.9641
 30.7446
 30.7473
 30.8572
 30.717
 29.321
 29.3718
 29.4449
 29.3883
 27.9096
 27.8968
 27.9684
 27.9134
 30.3444
 30.3194
 30.2586
 29.741
 29.7472
 29.6953
 29.8153
 29.9133
 29.7695
 29.8073
 29.8427
 29.3959
 29.3154
 29.3043
 29.4149
 29.3823
 29.3396
 29.2857
 29.3531
 29.207
 29.1414
 29.1927
 29.1422
 29.4865
 29.4189
 28.33
 28.3491
 28.2276
 28.3305
 29.4086
 29.4985
 29.4617
 29.4157
 28.9012
 29.02
 28.9871
 29.461
 29.3801
 29.4182
 29.3761
 28.981
 29.0176
 29.0571
 28.9945
 30.3849
 30.4784
 30.4073
 30.5245
 29.6276
 29.64
 29.5508
 29.1394
 29.1403
 29.0169
 29.1868
 29.491
 29.4994
 29.4409
 30.4946
 30.4734
 30.5685
 28.92
 28.9274
 28.927
 29.0046
 29.3079
 29.2341
 29.2419
 32.2121
 32.233
 32.1632
 32.3564
 28.7826
 28.8421
 28.8724
 28.7801
 29.8012
 29.9033
 29.8923
 29.9106
 28.3715
 28.3802
 28.3565
 28.2891
 28.2288
 28.2906
 28.1994
 28.2142
 30.6213
 30.4923
 30.6357
 30.6213
 29.2052
 29.2881
 29.315
 29.9734
 30.095
 30.0295
 30.0157
 28.0734
 28.1893
 28.1339
 29.3125
 29.2541
 29.2991
 29.214
 28.739
 28.7151
 28.7147
 28.7143
 28.0677
 28.0167
 28.0216
 28.0742
 32.6411
 32.7819
 32.7277
 32.637
 30.125
 30.1134
 30.0568
 30.1331
 29.1489
 29.0108
 29.055
 29.0387
 31.091
 31.2096
 31.1857
 29.2738
 29.202
 29.2307
 29.2932
 27.8996
 28.8017
 28.8421
 28.9701
 28.8877
 28.3196
 28.3197
 28.2926
 28.2669
 28.4909
 28.5587
 28.5696
 28.5252
 29.1434
 29.1856
 29.2272
 29.3256
 29.3275
 29.3174
 31.8565
 31.7904
 31.8145
 31.7721
 29.9819
 30.0215
 30.0558
 30.1117
 30.0973
 30.0364
 30.0953
 27.9583
 27.8032
 27.9649
 27.9641
 29.4004
 29.4098
 29.3151
 29.3222
 29.0154
 29.0474
 29.1104
 29.0538
 28.2008
 28.2362
 28.1716
 28.2434
 29.3256
 29.3502
 29.2626
 29.378
 31.4105
 31.3084
 31.4117
 31.3837
 29.4788
 29.5113
 29.469
 29.4978
 30.1395
 30.1324
 30.1209
 30.0652
 30.4001
 30.4732
 30.4296
 30.4003
 31.0126
 30.9694
 31.0238
 31.0139
 31.4762
 31.5326
 31.4908
 31.3756
 27.5623
 27.658
 27.6216
 27.6295
 31.8061
 31.7464
 31.8104
 31.6092
 29.4137
 29.4596
 29.4025
 29.4796
 27.623
 27.6468
 27.676
 27.6711
 29.7574
 29.7668
 29.7223
 29.6878
 30.9697
 28.0693
 28.1104
 28.0934
 28.0308
 30.5208
 31.4231
 31.3297
 31.28
 31.3514
 29.0844
 28.9891
 28.444
 28.5438
 28.4496
 28.534
 28.114
 28.1315
 28.0803
 28.093
 27.5289
 27.6063
 27.5279
 28.4014
 28.3228
 28.3139
 28.3093
 29.6569
 27.7848
 28.7371
 28.7778
 28.795
 27.9741
 27.9292
 27.9065
 27.9601
 29.7018
 29.6996
 29.7104
 29.7619
 30.1974
 30.1965
 30.2102
 30.3071
 28.7551
 28.816
 28.8018
 28.6859
 27.8019
 27.7345
 27.8152
 27.8
 28.1557
 28.1798
 28.1342
 28.1832
 28.9123
 28.8036
 28.8146
 31.4598
 31.5073
 31.3332
 31.4171
 32.6549
 32.5963
 32.6506
 32.5208
 30.7657
 30.9013
 30.8825
 30.8251
 29.1341
 29.0742
 29.1714
 31.0879
 30.9908
 31.0362
 31.133
 28.2438
 28.2608
 28.1785
 28.419
 28.3803
 28.4412
 28.4131
 30.4177
 30.4659
 28.7009
 28.5698
 27.3664
 27.4361
 27.3616
 27.6115
 27.5986
 27.6007
 27.5688
 29.5494
 29.6215
 29.5062
 29.5621
 29.9996
 30.0143
 30.0592
 29.9623
 29.5088
 29.5378
 29.465
 29.4572
 27.83
 27.8291
 27.8196
 27.8383
 28.68
 28.6579
 28.6833
 28.7287
 30.9401
 30.9389
 30.9595
 30.8459
 28.6865
 28.6693
 28.72
 28.6297
 29.1789
 29.1439
 29.2286
 29.1415
 28.7316
 28.6557
 28.6789
 33.0537
 32.9868
 32.9722
 29.9579
 30.0054
 29.6914
 29.6981
 29.7545
 29.6576
 28.5685
 28.4891
 28.5534
 28.5599
 28.6512
 28.6221
 28.5313
 28.6403
 28.6374
 28.6625
 28.5529
 32.1179
 32.1369
 31.1149
 31.1141
 31.0355
 31.1082
 29.091
 32.2415
 32.3217
 32.2692
 32.2262
 30.1841
 30.0791
 30.1649
 30.1851
 29.6455
 29.6589
 31.4387
 31.2982
 31.2795
 31.3514
 27.5415
 27.4528
 27.5081
 27.5265
 27.7782
 27.7746
 27.816
 27.6945
 30.5481
 30.3828
 30.5048
 30.4101
 30.0983
 30.166
 29.9838
 30.0372
 29.9681
 30.0399
 29.9721
 28.5547
 28.5365
 28.6144
 28.5465
 30.9321
 30.871
 30.8273
 30.7937
 29.4723
 29.4122
 29.4847
 28.9862
 28.988
 28.9396
 28.8822
 30.0341
 30.0177
 29.9409
 29.9925
 30.4021
 30.2997
 30.2464
 30.3323
 30.3384
 30.4059
 30.3924
 30.314
 29.7723
 29.6924
 29.6705
 29.7698
 28.7755
 28.8356
 30.1752
 30.1491
 30.107
 30.194
 27.6035
 27.7152
 27.7016
 27.6952
 30.4554
 30.4044
 30.4557
 30.3923
 31.3754
 31.411
 31.2682
 31.35
 29.1307
 29.0712
 31.8191
 31.7396
 31.8995
 31.7408
 29.8914
 29.8886
 29.9247
 27.9572
 28.0005
 27.9317
 27.9288
 31.6561
 31.6501
 31.6389
 30.3665
 30.3685
 30.2848
 30.3142
 31.383
 30.4907
 30.5196
 30.5276
 30.6283
 29.3221
 29.3686
 29.3118
 29.3477
 29.5467
 29.5267
 29.4831
 29.5554
 27.8671
 27.7819
 29.2804
 29.257
 29.2823
 29.296
 30.4912
 30.6031
 30.4675
 30.6192
 29.9517
 29.7853
 29.8713
 29.9473
 28.0619
 28.1147
 28.1046
 28.1108
 29.6875
 29.6644
 29.5819
 29.5972
 29.1442
 28.2238
 28.1699
 28.2362
 29.9223
 29.9046
 29.9873
 29.8595
 28.6847
 28.7009
 28.66
 28.7608
 29.8333
 29.8782
 29.8893
 29.7808
 27.8638
 27.9395
 27.9466
 27.9106
 27.3878
 27.3499
 27.4269
 30.3719
 30.3038
 30.2159
 30.2724
 28.9977
 28.92
 29.0352
 29.008
 28.6549
 28.6435
 28.585
 28.5479
 29.9758
 30.0024
 30.3893
 30.4807
 30.4963
 30.3867
 29.8388
 29.7028
 28.8873
 28.8692
 28.907
 28.9302
 28.7562
 28.7244
 28.6711
 28.7738
 29.6626
 29.6598
 29.5661
 29.5881
 28.9675
 28.9591
 28.9505
 28.088
 28.1924
 28.2044
 28.1724
 28.4155
 28.4368
 28.3891
 29.7205
 29.5735
 29.689
 29.6384
 30.2505
 30.3677
 30.4273
 30.2973
 28.656
 28.7353
 28.7406
 28.6732
 29.5862
 29.5949
 29.6798
 30.9863
 31.0114
 30.9846
 31.0121
 30.015
 30.0404
 29.9827
 29.9507
 28.4185
 28.4031
 28.4926
 27.5916
 27.6808
 27.6891
 28.744
 28.7053
 28.7088
 30.0215
 30.1108
 29.9969
 30.0815
 27.7189
 27.7293
 27.7271
 27.6783
 28.8756
 28.9104
 28.8652
 28.8129
 28.2998
 28.2644
 28.1517
 28.1847
 28.4152
 28.3858
 28.4273
 28.419
 31.2342
 31.2422
 31.3017
 29.669
 29.6428
 29.7041
 29.6363
 28.3757
 28.3203
 28.4028
 28.4028
 29.5204
 29.4788
 29.4749
 29.3885
 28.6098
 28.607
 28.628
 28.7079
 27.8682
 27.8348
 30.9584
 30.9011
 30.8941
 30.8475
 28.459
 28.5003
 28.4087
 28.4885
 29.7481
 29.7972
 29.8148
 29.7284
 28.7547
 28.8155
 27.7619
 27.761
 27.8126
 27.7188
 28.2992
 28.2202
 28.3253
 28.1642
 27.6555
 27.6612
 27.5921
 27.5413
 28.5793
 28.6055
 28.5624
 28.7226
 28.6083
 28.6489
 28.6636
 28.6084
 28.6767
 28.6565
 28.7276
 30.1866
 30.1629
 30.2481
 30.2808
 31.4107
 31.5029
 31.3443
 29.3859
 29.3711
 29.3768
 28.1235
 28.1881
 28.1391
 28.2115
 29.6027
 29.5454
 29.4744
 29.5348
 30.5291
 30.619
 30.5707
 30.5107
 29.3979
 29.5049
 29.5068
 29.5398
 29.8326
 29.7097
 29.8128
 27.7805
 27.7476
 27.8317
 27.8296
 30.9084
 30.8732
 30.5978
 30.5366
 30.5277
 28.6564
 28.6407
 28.7015
 28.5881
 29.5034
 29.4365
 29.3872
 29.481
 30.7166
 30.7114
 30.6018
 30.6995
 29.1259
 29.2577
 29.2613
 29.1564
 29.9046
 29.955
 29.8755
 29.8629
 28.0878
 28.075
 27.9787
 30.0219
 30.0561
 29.9532
 29.9651
 29.0784
 29.0312
 30.7095
 30.5725
 30.586
 30.6942
 30.5895
 30.6519
 30.6189
 30.6634
 27.9449
 28.0036
 30.3343
 30.2777
 30.2948
 30.3772
 29.3095
 29.3933
 29.3447
 29.3195
 29.8647
 31.3871
 31.4591
 31.4402
 29.1247
 29.1171
 29.0878
 29.1772
 27.981
 27.9768
 28.0208
 27.9454
 31.0185
 31.0744
 30.9586
 31.0299
 30.5234
 30.44
 30.5543
 30.5303
 28.6538
 28.5979
 28.5913
 30.933
 30.8792
 30.8573
 30.81
 27.6036
 27.697
 27.6284
 27.5957
 30.9486
 30.8809
 30.868
 30.9986
 28.8265
 28.9035
 28.8437
 28.7637
 29.809
 29.7519
 29.769
 29.8261
 30.586
 30.5545
 30.5882
 29.8521
 29.7445
 29.8673
 29.7805
 30.7657
 30.8903
 30.8297
 30.818
 30.3952
 30.4591
 30.4016
 28.5127
 28.5615
 28.4884
 28.5015
 28.5748
 29.4855
 29.287
 29.4016
 29.4016
 27.9392
 27.9867
 28.0067
 27.9888
 29.1096
 29.0361
 29.1507
 29.0632
 28.7297
 28.6737
 28.7268
 28.7637
 30.5963
 30.6383
 30.5197
 30.4214
 30.4458
 28.9554
 29.0296
 28.9819
 28.9388
 27.9986
 27.9084
 29.1349
 29.1108
 29.1738
 29.0899
 30.7047
 30.7377
 30.6462
 28.0936
 28.0739
 28.1335
 28.0981
 29.2005
 29.2868
 29.2782
 29.2421
 30.604
 30.6682
 30.6043
 30.5602
 29.4423
 29.4603
 29.3489
 29.4202
 28.9018
 28.7736
 31.1213
 31.1757
 31.1309
 31.2226
 30.4076
 30.2636
 30.1835
 30.2591
 30.1767
 30.1846
 30.1528
 30.2614
 30.1923
 30.144
 29.3255
 29.2925
 29.3314
 28.8525
 28.8947
 28.9106
 28.9553
 30.3427
 30.3495
 30.3197
 30.3527
 29.7745
 29.7783
 29.0378
 29.1101
 29.1221
 29.1778
 29.1073
 29.0941
 29.4354
 29.3421
 29.3345
 29.4085
 31.7246
 31.6237
 31.6389
 31.5758
 29.08
 30.7947
 30.6776
 30.761
 30.772
 27.7779
 27.7396
 27.798
 28.5722
 28.6238
 28.6503
 28.566
 29.4183
 29.3629
 29.3972
 29.5191
 29.314
 29.2462
 29.3342
 30.4058
 30.3317
 30.3706
 30.4216
 27.9914
 27.9403
 28.0788
 27.976
 28.8935
 28.9172
 28.8442
 28.8589
 28.0311
 28.0177
 28.1114
 28.0626
 30.7585
 30.7313
 30.8432
 30.8401
 30.2028
 30.1259
 28.5575
 28.5903
 28.6298
 28.5917
 27.9211
 27.9404
 27.9325
 27.9563
 27.4219
 27.396
 27.443
 27.3564
 28.0356
 28.0821
 28.0174
 28.8933
 28.856
 28.9277
 28.8844
 28.1913
 28.1573
 28.1158
 28.1525
 30.9364
 30.8173
 30.7899
 30.855
 28.2588
 28.224
 28.2045
 28.8957
 28.9161
 28.929
 28.9225
 30.768
 30.846
 30.7849
 30.8581
 28.6441
 28.55
 28.6248
 28.6095
 28.9899
 28.9349
 28.9161
 28.9724
 30.0755
 29.9855
 30.0125
 29.9124
 30.94
 30.9261
 31.0569
 31.0396
 29.5252
 29.4828
 29.4117
 29.4963
 31.9316
 31.8266
 31.7943
 31.7647
 30.5629
 30.511
 30.5843
 30.3497
 30.456
 30.4348
 30.4455
 32.2999
 32.1481
 32.3438
 32.2674
 28.1551
 28.2145
 28.2113
 28.3243
 28.3298
 28.263
 28.2815
 30.315
 30.1637
 30.2101
 31.3725
 31.3844
 31.414
 30.8952
 31.0311
 30.8928
 30.9101
 30.1596
 30.1754
 30.0952
 30.2437
 28.859
 28.7723
 28.8314
 28.8414
 31.6797
 31.6061
 31.4706
 31.6001
 29.0279
 29.1428
 29.1566
 29.0607
 28.3524
 28.2897
 28.401
 28.3486
 29.1798
 29.1637
 29.061
 29.0671
 29.6116
 29.6621
 29.5438
 30.7369
 30.7357
 30.7624
 30.6781
 28.0202
 27.9541
 27.946
 27.9513
 28.2834
 28.228
 28.2842
 28.312
 30.1168
 30.0389
 30.0778
 30.1679
 27.7963
 27.7657
 27.7368
 27.9987
 27.9071
 27.988
 27.9662
 27.9379
 27.9022
 27.9825
 27.9444
 31.687
 31.7061
 32.1629
 32.1714
 32.2458
 32.0762
 28.8199
 28.8524
 28.8952
 29.3715
 29.4386
 29.3019
 29.4054
 29.3567
 29.2742
 29.3047
 29.3391
 32.8735
 29.6518
 28.9519
 28.8738
 28.3648
 28.3114
 28.348
 28.3291
 31.4157
 29.7811
 29.7019
 29.7804
 27.3376
 27.391
 27.3889
 27.3885
 29.3248
 29.3883
 29.3349
 29.272
 27.6946
 27.7589
 27.7144
 27.7638
 29.6429
 29.5394
 29.6794
 29.8714
 29.7949
 29.8425
 28.2139
 28.1733
 28.2658
 28.2066
 29.0569
 29.0848
 29.133
 29.1984
 30.9248
 31.0147
 30.8422
 30.8922
 28.2851
 28.1559
 28.2023
 27.8189
 27.7306
 27.726
 27.821
 28.3205
 28.3301
 28.3972
 28.3208
 30.3471
 30.3692
 30.22
 30.3751
 30.0157
 30.0891
 30.0728
 30.0893
 28.1163
 28.0595
 28.0643
 28.0596
 29.6488
 29.7216
 29.7658
 28.4857
 28.4681
 28.5097
 28.5421
 30.7232
 30.6321
 30.7692
 30.7682
 28.9392
 28.9297
 29.0037
 28.9716
 30.7974
 30.7161
 30.7794
 30.7862
 29.1096
 29.0046
 29.0619
 29.0552
 28.4032
 28.3784
 28.3188
 28.4699
 31.0536
 31.086
 30.9829
 29.1563
 29.0948
 28.2673
 28.3212
 28.3149
 28.3711
 29.6818
 29.7358
 29.735
 30.808
 30.8685
 30.9217
 30.8778
 28.7644
 28.7317
 28.7862
 28.7106
 28.8809
 28.9013
 28.7796
 28.869
 32.5869
 32.6438
 32.5187
 32.5014
 29.4541
 29.5281
 29.4718
 32.2124
 32.1116
 32.1131
 29.2444
 29.2764
 29.3439
 29.3349
 29.4199
 30.6842
 30.7247
 30.8606
 30.8552
 29.5615
 29.5003
 29.4659
 28.3413
 28.351
 28.354
 28.3798
 29.4724
 29.4277
 29.3868
 29.3875
 29.4264
 29.4433
 29.4543
 27.4317
 27.4739
 27.4965
 27.5528
 30.3586
 30.1711
 30.224
 30.3043
 31.1007
 31.0931
 31.0338
 31.0689
 29.85
 29.88
 29.7513
 29.8336
 28.1705
 28.1151
 28.1232
 28.2111
 32.6881
 32.5883
 32.5872
 32.4756
 28.5849
 28.667
 28.5948
 28.5897
 30.9792
 31.0773
 31.053
 31.067
 28.306
 28.4471
 28.424
 28.3626
 28.3306
 28.3911
 28.4226
 28.3612
 28.555
 28.5087
 30.3453
 30.4004
 30.4096
 30.3514
 27.9854
 27.9958
 27.9908
 28.4715
 28.5907
 28.5312
 28.4562
 30.3951
 30.2895
 30.3495
 30.4504
 29.8125
 29.8584
 29.739
 33.0643
 33.0587
 33.12
 33.0532
 29.3868
 29.5382
 29.4199
 28.0536
 27.9931
 28.0317
 28.0578
 28.3277
 28.3722
 28.0451
 27.9877
 27.926
 28.0349
 28.5157
 28.4996
 31.0995
 30.9655
 31.1551
 30.9212
 28.4244
 28.4462
 28.4329
 28.5199
 29.2356
 29.1687
 29.9262
 29.8595
 29.8782
 29.9159
 28.518
 28.4879
 28.4367
 28.4841
 30.2733
 30.392
 30.3776
 30.286
 28.072
 28.0852
 28.0266
 27.9072
 28.9418
 28.9129
 29.0194
 31.4267
 31.4944
 31.5038
 31.4148
 28.8557
 28.883
 28.9167
 28.9465
 30.3268
 30.4059
 30.4706
 30.502
 30.3036
 30.4054
 30.3274
 32.7231
 32.6992
 32.7911
 32.7131
 30.9732
 30.8144
 30.7862
 30.9466
 28.2593
 28.3134
 28.2431
 28.3118
 29.5386
 29.5212
 29.5986
 29.7377
 30.6362
 30.5713
 30.6183
 30.5519
 29.7204
 29.7845
 29.747
 29.7149
 28.6787
 28.5758
 28.56
 28.6458
 30.6906
 30.684
 30.5272
 31.4476
 28.9743
 28.9308
 29.0281
 28.9041
 30.6251
 30.4743
 32.0777
 32.1933
 30.612
 30.5399
 30.6136
 30.7475
 28.6116
 28.5527
 28.2727
 28.2755
 28.2373
 28.2878
 30.0817
 30.0114
 29.9659
 30.0207
 27.8695
 27.8557
 27.787
 27.8612
 29.9272
 29.9265
 30.1127
 30.0855
 28.4977
 28.4865
 28.5157
 28.6187
 30.3493
 30.3411
 30.2986
 30.2963
 28.3812
 28.3317
 28.4241
 28.3579
 29.6246
 29.5571
 27.9547
 27.9825
 28.7957
 28.7473
 28.8147
 28.7367
 28.7909
 28.8069
 28.8013
 28.7246
 29.1441
 29.1895
 29.1225
 29.1163
 28.4058
 28.5078
 28.4185
 28.3399
 30.3693
 30.466
 30.4112
 30.4129
 27.9755
 27.9799
 28.0067
 27.8494
 27.847
 27.9189
 27.867
 30.7716
 30.6447
 30.6379
 30.6817
 28.5317
 28.6427
 28.6177
 28.5969
 30.7538
 30.6564
 30.6562
 30.5672
 29.2855
 29.4511
 29.3251
 29.333
 29.4699
 28.2525
 28.2411
 28.2353
 28.3174
 31.9187
 31.9901
 31.8864
 31.8352
 28.5876
 28.5374
 28.4769
 28.5443
 29.32
 29.2112
 29.3883
 29.3029
 28.6613
 28.7205
 28.7278
 28.7211
 28.7103
 27.4703
 27.5125
 27.6022
 27.551
 28.3707
 28.3726
 28.4792
 28.4442
 31.9665
 31.8462
 31.7724
 31.9619
 29.6572
 29.7445
 29.7799
 29.7004
 30.1413
 29.1632
 29.2022
 29.168
 29.0971
 28.0745
 28.0766
 28.1352
 28.1773
 28.232
 28.2177
 28.1635
 28.0776
 28.2283
 28.1493
 28.1893
 32.4925
 32.4079
 28.4962
 28.4874
 28.4552
 30.0595
 30.0757
 30.0832
 29.9828
 28.5764
 28.6123
 28.5498
 28.6182
 29.1352
 28.7319
 28.7961
 28.7153
 28.7697
 27.8416
 27.9557
 27.9314
 27.8464
 28.7281
 28.6799
 28.5774
 28.7084
 29.7126
 29.6899
 29.8086
 29.6247
 30.7707
 30.7456
 30.8177
 30.7201
 27.5727
 27.6684
 27.5401
 27.5803
 28.578
 28.6099
 28.5429
 28.6289
 27.6658
 27.7045
 27.6803
 27.6095
 30.1309
 30.2705
 30.1295
 30.1094
 29.0828
 29.1253
 27.9269
 27.8392
 27.9392
 27.8875
 29.128
 29.096
 29.0888
 29.019
 29.4261
 29.3327
 29.2648
 29.151
 29.1474
 29.2489
 28.1896
 28.221
 28.2386
 28.1685
 29.8813
 29.9909
 30.0463
 29.9467
 31.0359
 30.9198
 30.9767
 30.9769
 30.8989
 30.962
 30.9728
 30.9459
 30.0607
 30.0314
 30.0264
 30.1361
 29.5453
 29.6765
 29.5716
 29.5494
 29.6705
 29.6143
 29.5788
 29.2996
 29.3605
 29.3769
 29.3324
 31.1522
 31.255
 31.173
 29.8363
 29.8281
 29.73
 29.7395
 29.2113
 29.1811
 29.167
 29.2546
 30.251
 30.3306
 30.198
 30.3373
 30.0125
 29.9438
 29.9589
 29.9696
 29.0421
 29.0322
 28.9736
 28.9236
 29.4676
 29.536
 29.4887
 29.5242
 28.7153
 28.7445
 28.6933
 28.713
 30.9019
 30.8793
 30.838
 28.3224
 28.3487
 28.2703
 28.3489
 30.2159
 30.1152
 30.1559
 30.2338
 29.691
 29.7649
 29.795
 29.6676
 29.4871
 29.426
 29.3874
 28.8415
 28.8624
 28.8269
 28.7628
 28.7789
 28.7634
 28.72
 28.8032
 28.668
 28.6641
 28.5865
 28.2178
 28.159
 28.1924
 28.8744
 28.915
 28.9661
 28.877
 28.0739
 28.0269
 28.1196
 28.0111
 28.0088
 28.027
 28.0901
 29.467
 29.623
 29.5408
 29.5723
 30.066
 30.1398
 30.065
 30.1285
 30.4968
 28.176
 28.2163
 28.1147
 28.1636
 28.1065
 28.2368
 32.7695
 32.8514
 32.7634
 32.7772
 28.4715
 28.5348
 29.6075
 29.7262
 29.618
 27.6535
 27.5682
 28.8742
 28.9922
 28.965
 28.9537
 29.5855
 29.5447
 29.5374
 28.5018
 28.3698
 28.4633
 28.3989
 30.1028
 30.0725
 30.1385
 30.0458
 32.0716
 31.9508
 31.994
 32.0761
 29.0128
 29.0012
 29.0388
 28.9386
 28.2284
 28.1159
 28.2418
 28.4018
 28.3976
 28.385
 28.4504
 30.3291
 30.4609
 30.4214
 30.5186
 30.3536
 30.2355
 30.6468
 30.5647
 30.6796
 27.5996
 27.6566
 28.2012
 28.2729
 28.1844
 28.3014
 29.2515
 29.1125
 29.1407
 28.5347
 28.6126
 28.485
 28.4751
 30.2845
 30.415
 30.3859
 30.3213
 29.2971
 29.2971
 29.2277
 29.2095
 29.3825
 29.3278
 29.3204
 29.3843
 30.4334
 30.3704
 30.3638
 30.295
 30.3533
 30.3169
 30.3302
 27.3768
 27.2999
 27.3602
 27.2692
 31.0494
 31.1841
 28.0054
 28.0075
 28.0055
 28.0657
 29.653
 29.5735
 29.6055
 29.6495
 29.189
 29.1369
 29.1327
 29.138
 31.0062
 30.8837
 29.1741
 29.232
 29.2395
 29.2772
 29.6108
 29.641
 29.6623
 29.5858
 28.32
 28.3458
 28.3714
 28.3328
 29.4252
 29.3801
 29.3547
 29.4809
 30.1366
 30.1427
 28.9396
 28.9403
 28.9781
 28.9125
 28.6044
 28.6421
 28.5757
 29.1919
 29.1106
 29.1338
 29.1008
 30.5518
 30.5138
 30.571
 30.4438
 32.4332
 32.3429
 32.3647
 32.4295
 29.4824
 29.5294
 29.4724
 29.3799
 29.0891
 28.984
 29.0598
 29.0879
 29.621
 29.5763
 29.6791
 29.6583
 29.9163
 29.9832
 29.9249
 29.8681
 28.2879
 28.2081
 28.9361
 28.9667
 29.004
 31.6613
 31.7028
 31.7763
 31.6885
 30.3968
 30.4597
 30.3507
 30.4992
 29.211
 29.1785
 29.2322
 29.2603
 28.3135
 28.2863
 28.2776
 29.6004
 29.6205
 29.7338
 29.7434
 30.1729
 30.0248
 30.088
 30.1783
 28.5335
 28.6143
 28.6257
 28.5667
 28.8328
 28.8627
 28.8881
 28.8773
 28.2311
 28.2175
 28.2136
 28.466
 28.4568
 28.4622
 28.4468
 29.8427
 29.8495
 29.8869
 29.9733
 29.5088
 29.5184
 29.4369
 32.2964
 32.2749
 32.3568
 32.3981
 30.2282
 30.2411
 31.0783
 31.1469
 31.0266
 31.0093
 30.4886
 30.904
 28.0591
 30.0722
 30.1565
 30.0952
 30.2
 27.595
 28.8633
 28.934
 28.8626
 28.9594
 30.218
 30.1228
 30.1803
 29.7714
 29.7017
 29.6999
 28.244
 28.2391
 28.3486
 28.258
 28.379
 28.4333
 28.3634
 28.4171
 30.6043
 30.749
 30.7368
 30.6564
 27.8303
 27.8133
 27.8072
 27.8906
 29.3854
 29.4409
 29.5098
 28.3916
 28.3327
 28.3719
 29.0378
 29.1315
 29.1029
 29.0311
 30.0658
 30.0121
 30.1242
 30.086
 29.1763
 29.0553
 29.162
 29.9769
 29.9507
 29.9409
 30.0403
 29.5714
 29.4637
 28.3004
 28.2576
 28.2385
 28.1787
 28.0529
 27.9577
 28.0024
 28.0404
 30.341
 30.2348
 30.4097
 30.343
 28.5401
 28.6451
 28.6127
 28.5198
 28.9909
 29.1125
 29.0054
 28.9583
 29.7931
 29.8425
 29.7272
 29.7916
 28.1025
 28.1297
 28.1531
 28.1816
 29.6456
 29.715
 29.5873
 29.5796
 29.3238
 29.3855
 29.3892
 29.2648
 29.4562
 29.512
 29.4449
 29.429
 30.3279
 30.2449
 30.4439
 30.3916
 30.3195
 30.4264
 31.2871
 31.4683
 31.3729
 31.3257
 28.9827
 28.9833
 28.9535
 28.8897
 28.9643
 29.0656
 29.0374
 27.9277
 27.9105
 27.89
 27.894
 27.5508
 27.5229
 27.5764
 27.9429
 27.9191
 28.0197
 29.0738
 28.9876
 28.9203
 29.0361
 28.6446
 28.5864
 28.5425
 28.6797
 28.3474
 28.2773
 28.3413
 28.2704
 29.9507
 30.0593
 30.0295
 29.9638
 31.1166
 31.0271
 30.9892
 30.9826
 27.6129
 27.613
 27.6655
 27.5298
 30.1724
 30.2251
 30.2539
 30.1464
 29.0868
 29.0839
 29.0396
 29.1018
 27.5463
 27.5979
 27.6721
 27.516
 28.7391
 28.8146
 28.7228
 28.7491
 29.6466
 29.6865
 29.6526
 29.6795
 30.1559
 30.244
 30.2248
 30.8053
 30.6966
 30.7706
 30.8253
 30.5303
 30.5753
 30.5158
 30.5855
 30.4346
 30.5873
 30.2925
 30.2512
 30.4108
 28.2596
 28.3003
 28.3139
 28.3336
 28.0366
 28.0953
 28.0676
 28.0874
 28.792
 28.8039
 28.8079
 28.8912
 29.4586
 27.9878
 27.9591
 27.9754
 28.0096
 30.9486
 30.9372
 30.9693
 30.9779
 27.7231
 27.6576
 27.7436
 27.6324
 29.7797
 29.9089
 29.751
 28.631
 30.6404
 30.6203
 30.6922
 30.5297
 30.567
 30.6258
 30.4638
 29.2181
 29.2401
 29.3598
 29.297
 28.459
 28.4478
 28.5165
 28.4091
 29.4103
 28.6861
 28.7177
 28.7459
 29.4235
 29.4583
 29.4322
 29.3446
 30.0124
 29.988
 30.0554
 30.0557
 29.7583
 29.8562
 29.7842
 29.7696
 28.6379
 30.3302
 30.3293
 30.2525
 28.3485
 28.392
 28.3322
 28.3702
 28.219
 28.2361
 28.1558
 28.2623
 27.9517
 27.9245
 27.9656
 29.9976
 29.9885
 30.0743
 29.9805
 30.9916
 31.0365
 30.9829
 28.1912
 28.2216
 28.0721
 28.1023
 28.1492
 28.1419
 29.5228
 29.5274
 29.4701
 27.7007
 27.7288
 27.6774
 27.7507
 28.285
 28.3231
 28.2954
 28.2526
 28.7908
 28.8472
 28.7701
 28.7619
 29.2337
 29.2091
 29.2381
 29.3194
 30.2186
 30.2558
 30.2733
 30.1709
 28.1217
 28.107
 28.1453
 28.0429
 30.0001
 29.9797
 30.0779
 29.7752
 29.7008
 29.6941
 29.6708
 28.0367
 28.0365
 27.9468
 28.0061
 28.6876
 28.6934
 28.7263
 28.7466
 27.7236
 27.7705
 27.8341
 27.7544
 29.7536
 29.6745
 29.6444
 29.6592
 29.1746
 29.1379
 29.2384
 29.0817
 28.2312
 28.2386
 28.1919
 28.2321
 29.1941
 29.1109
 29.1984
 29.1756
 27.7192
 27.6131
 27.6996
 30.0083
 30.0512
 30.0637
 30.0495
 29.0992
 29.1041
 29.1063
 29.1832
 28.8408
 28.7473
 28.819
 28.8186
 29.2604
 29.3321
 29.1951
 29.2847
 28.2187
 28.2249
 28.1373
 28.1862
 29.4932
 29.5711
 29.5443
 29.5633
 28.9341
 28.9538
 28.9375
 29.006
 30.9952
 30.9957
 31.0196
 30.987
 28.4142
 28.3936
 28.4651
 28.4969
 31.0536
 31.0578
 31.0474
 30.3363
 30.3847
 30.3768
 30.317
 30.6485
 30.6228
 30.4333
 30.5678
 28.413
 28.466
 28.4085
 28.3552
 28.6723
 28.5588
 28.6407
 28.6436
 29.736
 29.8216
 29.8356
 29.8761
 27.5095
 27.5522
 27.6145
 32.3187
 32.3662
 28.9372
 28.867
 28.9737
 28.9488
 31.3611
 31.4346
 31.5155
 31.3989
 28.688
 28.6914
 28.5924
 28.6148
 29.7752
 29.9459
 29.9758
 29.9991
 30.0485
 28.5216
 28.4858
 28.4785
 28.4459
 28.2041
 28.2212
 28.1528
 28.2238
 31.0037
 31.006
 28.6596
 28.6297
 28.5188
 28.627
 29.0426
 29.1889
 29.0412
 29.1148
 30.1821
 30.1631
 30.2467
 30.0252
 29.5512
 29.6112
 29.6172
 29.5386
 28.3015
 28.3781
 28.2324
 27.991
 28.0206
 28.0121
 28.0329
 27.5714
 27.5625
 27.5484
 29.9077
 29.9668
 29.9414
 29.8958
 27.9328
 28.0064
 28.018
 28.0338
 30.6154
 30.7172
 30.6778
 30.6589
 28.7708
 28.7317
 28.7403
 28.8196
 29.1828
 29.0864
 29.1558
 29.1466
 27.9569
 27.9715
 27.9828
 27.905
 28.6753
 28.6249
 28.71
 28.749
 31.4364
 31.4815
 31.5386
 31.4735
 29.4427
 29.5721
 29.4538
 29.5641
 29.9593
 29.7841
 29.8243
 29.924
 28.5139
 28.4675
 28.5374
 28.6111
 30.5114
 30.591
 30.6513
 30.6118
 28.9869
 29.0494
 28.9945
 28.9085
 29.9537
 30.0349
 30.0325
 30.908
 31.0162
 30.9035
 31.0625
 28.8494
 28.7753
 28.8985
 28.7179
 28.7386
 28.7928
 30.2495
 30.3376
 30.4009
 30.565
 30.5855
 30.5374
 30.5049
 27.9838
 32.8598
 32.7852
 32.7494
 32.8739
 28.2468
 28.3101
 28.1919
 28.2564
 30.7705
 29.7373
 29.753
 29.7745
 29.6591
 29.9698
 30.0203
 29.8492
 30.2063
 30.092
 30.1391
 30.2041
 31.5615
 31.6266
 31.5562
 31.6683
 30.6214
 30.5374
 30.5586
 29.21
 29.2527
 29.241
 29.9344
 29.9652
 27.4175
 27.5009
 27.51
 30.5759
 30.4967
 30.5996
 29.7106
 29.6371
 29.6163
 27.913
 27.8401
 27.8621
 28.4718
 28.4674
 28.3945
 28.4737
 30.2164
 30.1294
 30.1151
 30.8695
 30.9994
 27.8393
 27.9155
 27.8192
 27.8445
 31.3001
 31.2242
 31.3383
 31.1644
 30.5797
 30.615
 32.4182
 32.54
 32.0047
 32.0336
 31.9327
 29.7699
 29.7143
 29.8086
 27.8418
 27.9358
 27.9515
 28.6546
 28.6345
 28.5678
 30.1274
 30.0298
 29.9202
 29.8731
 29.9672
 28.14
 31.1119
 31.1195
 31.0569
 31.0473
 29.9751
 29.8056
 29.9039
 29.9348
 28.5635
 28.5978
 28.5446
 28.5187
 28.5168
 28.5606
 28.5328
 29.8188
 29.8621
 29.7863
 29.72
 28.7174
 28.6744
 28.632
 28.6365
 28.4209
 28.4875
 28.4498
 28.3705
 29.4002
 28.5735
 28.6042
 28.5609
 28.532
 27.7747
 27.7351
 27.7706
 27.8292
 30.372
 30.531
 30.5537
 30.4446
 27.8682
 27.8334
 27.8702
 27.8813
 32.375
 32.4486
 32.5362
 27.81
 27.8505
 27.7225
 27.7842
 30.2694
 30.2963
 30.3849
 30.3689
 28.4123
 28.481
 28.435
 28.3823
 30.6234
 30.6286
 30.8151
 30.7742
 27.6431
 28.257
 28.3586
 28.3232
 28.3931
 28.1313
 28.0639
 28.0934
 30.9037
 30.8305
 30.9167
 30.9641
 28.4268
 28.4986
 28.4769
 28.5212
 28.9988
 28.9458
 28.9334
 28.9486
 29.0914
 29.0506
 29.1588
 29.1632
 27.5629
 27.6429
 29.5986
 29.5834
 29.578
 29.9068
 29.8359
 29.8071
 29.7337
 28.6211
 28.6682
 28.5314
 28.5314
 28.5857
 28.5427
 28.5442
 28.492
 28.8742
 28.8758
 28.7961
 28.8804
 30.358
 30.319
 30.0686
 30.1251
 30.1344
 29.7319
 29.6761
 29.657
 29.6411
 30.946
 31.0326
 31.0377
 31.0483
 29.9756
 29.9945
 30.0835
 31.5139
 31.5481
 31.3906
 29.8457
 29.8478
 29.9107
 29.796
 30.3172
 30.2001
 30.3415
 29.4656
 28.6094
 28.6159
 28.5304
 29.7524
 29.8014
 29.747
 29.6766
 30.6154
 30.6019
 30.4003
 30.5132
 29.4398
 29.3847
 29.3646
 29.359
 28.2725
 28.3206
 27.4918
 27.5506
 27.5944
 27.4868
 28.5366
 28.5857
 28.5152
 28.6367
 29.6121
 29.63
 29.6356
 29.5951
 27.7081
 27.7016
 27.5849
 27.7482
 27.8471
 27.8107
 27.7971
 29.281
 29.3694
 29.4055
 29.3036
 30.8084
 30.86
 30.742
 29.6107
 29.6216
 29.5196
 29.5987
 30.7618
 30.9534
 30.8261
 30.9291
 28.7191
 28.7292
 28.7083
 28.8789
 30.9895
 30.9854
 30.99
 30.9518
 30.3115
 30.2265
 30.2025
 30.273
 27.7845
 27.8669
 27.7814
 27.8396
 29.1172
 29.1211
 29.1888
 29.1165
 29.8163
 29.8839
 29.7889
 29.8696
 28.6666
 28.6406
 28.3196
 28.2011
 28.2235
 28.2342
 29.7529
 29.6627
 29.6961
 29.5927
 29.49
 29.4349
 29.4797
 29.4876
 30.7659
 30.7168
 30.7988
 29.6625
 29.7254
 29.7794
 32.6851
 32.8575
 32.771
 32.8505
 30.2163
 30.1548
 30.8864
 30.7828
 30.8232
 30.9015
 28.932
 28.9998
 28.9388
 29.0287
 31.6019
 31.5264
 31.4597
 31.5582
 30.4584
 30.4796
 30.5854
 28.7761
 28.7448
 28.7517
 28.7864
 30.3688
 30.2947
 30.407
 30.4607
 30.4436
 30.5196
 30.5398
 29.7483
 29.8135
 29.7993
 29.7008
 28.4036
 28.2227
 32.211
 32.1716
 30.2174
 30.3038
 29.5683
 29.6345
 29.6069
 29.6183
 28.7871
 28.7443
 28.7933
 28.6926
 29.2823
 29.2897
 29.2407
 29.2194
 30.7518
 30.9291
 30.754
 30.8919
 29.0357
 29.1245
 29.0765
 30.8024
 30.8389
 30.772
 30.7727
 27.9948
 27.9776
 27.9312
 28.0086
 28.8301
 28.8334
 28.8471
 28.914
 30.7149
 30.6204
 30.7489
 29.6028
 29.6977
 29.6129
 29.5622
 30.9799
 30.9678
 30.9204
 30.3287
 30.2585
 30.2817
 30.3445
 30.665
 30.6846
 30.5772
 30.6425
 29.7735
 29.8437
 29.8866
 29.895
 27.8082
 27.8561
 27.9313
 27.8895
 28.9651
 28.8436
 28.8664
 28.9102
 29.6398
 29.7372
 29.6579
 29.2091
 29.2476
 29.2361
 28.0735
 28.1454
 28.0764
 28.1187
 28.8734
 28.8403
 28.9356
 28.8172
 29.8113
 29.7402
 29.6761
 29.7283
 31.0772
 31.01
 30.7448
 30.8117
 30.7083
 30.7074
 32.2706
 32.3074
 32.3733
 32.216
 28.5615
 28.538
 28.5479
 28.5716
 30.4153
 30.5439
 30.4833
 30.4985
 29.3155
 29.4092
 29.3465
 29.4465
 31.2339
 31.2624
 31.2618
 31.3112
 29.1452
 29.1901
 29.2324
 29.2244
 29.4744
 28.5149
 28.6087
 28.6031
 28.5889
 29.748
 29.8551
 29.8816
 29.7571
 29.6775
 29.6319
 29.5872
 29.6015
 29.8753
 29.9529
 29.9192
 30.0008
 30.646
 30.7732
 30.6055
 28.2407
 28.2226
 28.1926
 28.3283
 29.6711
 29.6922
 29.6982
 29.7316
 28.3243
 28.2859
 28.2426
 28.7908
 28.8381
 28.7835
 28.8384
 28.4159
 28.3278
 28.375
 28.3137
 30.5204
 30.4276
 30.5217
 32.9217
 32.8793
 32.8492
 28.6158
 28.5212
 28.5483
 29.177
 29.0438
 29.1181
 29.0458
 29.8805
 29.8157
 29.7718
 29.8153
 29.6937
 29.6364
 29.7587
 29.7339
 31.8177
 31.7463
 31.9051
 31.742
 29.2454
 29.2864
 29.29
 29.3012
 29.0704
 29.0815
 28.9547
 29.0378
 30.3233
 30.3301
 30.1452
 30.322
 30.2348
 30.2199
 28.7311
 28.7942
 28.759
 28.7428
 30.4697
 30.3845
 28.9557
 28.9808
 30.7973
 32.6735
 32.7088
 32.7315
 32.672
 31.1001
 31.0017
 27.6411
 27.5695
 27.6327
 30.9856
 30.9059
 30.8411
 30.9217
 28.6432
 28.6236
 30.3708
 30.388
 30.3698
 30.372
 29.9586
 29.8092
 29.8943
 28.5267
 28.5285
 28.5342
 28.4446
 28.8773
 28.8132
 28.8977
 28.8597
 28.243
 28.2349
 28.1699
 29.646
 29.7193
 29.6472
 29.759
 29.4345
 28.1764
 28.2964
 28.2086
 28.2364
 30.9909
 31.0434
 30.9413
 30.9008
 29.3018
 29.3555
 29.222
 29.3054
 28.5163
 28.6345
 28.5483
 28.6032
 32.1659
 32.1912
 32.1337
 32.1732
 30.5831
 27.6601
 29.7817
 29.6499
 29.7317
 29.8172
 29.2321
 29.144
 29.2475
 29.2787
 30.3461
 30.5012
 30.3992
 30.3956
 29.1949
 29.2373
 29.21
 29.1932
 30.7107
 30.7021
 30.5795
 30.7972
 30.7035
 30.6252
 30.7109
 29.6507
 29.5413
 29.675
 29.6374
 28.5134
 28.4313
 28.5895
 27.4203
 27.3473
 27.4209
 27.4611
 31.7922
 31.9653
 31.9579
 29.49
 29.4983
 29.5716
 29.5204
 29.6296
 29.5079
 28.0328
 28.0279
 28.0674
 27.9632
 28.6257
 28.6762
 28.6591
 28.7166
 30.6683
 30.5109
 30.6244
 31.4106
 29.7032
 29.7963
 29.7615
 29.7076
 29.488
 29.4277
 29.4353
 28.7914
 28.8373
 28.8103
 28.7689
 28.5675
 28.6498
 28.5921
 28.6291
 29.7385
 29.8023
 28.7153
 28.7157
 28.7251
 28.6614
 29.162
 29.1839
 29.1599
 29.0957
 27.9194
 27.8687
 28.8815
 28.9607
 28.9152
 28.9398
 28.6988
 28.6657
 28.6566
 28.6002
 28.8305
 28.7857
 28.8229
 28.8376
 29.4522
 29.4056
 29.7349
 29.6806
 29.7489
 29.7969
 29.9123
 29.9994
 29.9629
 29.9337
 29.1184
 29.0463
 29.0638
 29.0799
 30.7189
 30.6603
 30.563
 30.5345
 30.3667
 30.4091
 30.4416
 30.4108
 32.0632
 31.8973
 31.914
 32.0455
 29.9297
 30.0886
 29.1186
 29.2546
 29.1564
 29.1911
 29.7936
 29.8205
 29.778
 29.7179
 29.2628
 29.2009
 29.1531
 29.2407
 29.628
 29.6187
 28.5061
 28.5262
 27.722
 27.7052
 27.6926
 27.6879
 30.9334
 29.679
 29.6884
 29.6606
 29.6054
 29.5099
 29.5865
 29.5417
 29.5086
 30.1047
 30.1795
 30.1829
 30.2945
 28.6595
 28.7561
 28.6852
 28.772
 29.1581
 29.2113
 29.2308
 29.1556
 30.7337
 30.7728
 30.6742
 30.8341
 30.8762
 29.8494
 29.7595
 29.8692
 29.8238
 29.9513
 29.8362
 29.8911
 29.9783
 30.6218
 30.6083
 30.7186
 30.6132
 30.3878
 30.3695
 30.2493
 30.3042
 29.5275
 29.4389
 29.5474
 29.5484
 30.7628
 30.8152
 30.8776
 30.8451
 29.2533
 29.2326
 29.3416
 30.2735
 30.2769
 30.3083
 30.3112
 31.7114
 31.6446
 29.2145
 29.1714
 29.1471
 29.388
 29.2922
 29.3276
 29.2846
 30.8367
 30.7691
 30.7357
 31.257
 31.1891
 31.2138
 31.2334
 28.9433
 28.9742
 28.8843
 28.9293
 29.2638
 29.3708
 29.2655
 28.4476
 28.5905
 28.5205
 29.4774
 29.5413
 29.5243
 28.2197
 28.2437
 28.1962
 31.9438
 32.0337
 32.0722
 31.9551
 27.9168
 27.886
 27.9334
 27.8811
 30.0588
 30.1255
 29.1466
 29.1666
 30.5707
 30.5752
 30.5874
 30.5048
 28.9866
 29.0463
 28.9458
 28.4449
 28.393
 28.4089
 28.3955
 28.1689
 28.271
 31.0074
 30.9988
 31.0603
 29.1755
 29.1722
 29.2409
 30.362
 30.4345
 30.3188
 30.7975
 30.8064
 30.8453
 30.8457
 29.6937
 29.6612
 29.7393
 29.6283
 29.7949
 29.8753
 29.8592
 29.8037
 28.6857
 28.6955
 28.7194
 28.6428
 28.5652
 28.6334
 28.5973
 28.6849
 29.9513
 29.9027
 29.8698
 28.9788
 29.0121
 29.0509
 28.8205
 28.7349
 28.7668
 28.7143
 27.2711
 27.3173
 27.258
 29.4582
 29.5197
 29.5173
 28.6973
 28.6517
 28.7378
 29.5476
 29.5118
 29.5821
 30.0586
 30.1552
 30.1264
 30.9328
 30.9002
 30.8978
 30.8519
 29.4244
 29.6654
 29.5704
 29.6293
 30.3134
 30.3366
 30.3976
 30.6806
 30.5712
 28.8545
 28.9086
 28.8009
 28.8608
 28.814
 28.7466
 28.8567
 28.893
 30.5951
 30.4773
 30.4243
 30.4212
 30.684
 30.8095
 30.7252
 30.8311
 31.4571
 31.5242
 31.4468
 31.5784
 27.8917
 27.8636
 28.2899
 28.3857
 28.3289
 28.2755
 27.8097
 30.1168
 29.9968
 30.0908
 29.3865
 29.3662
 29.4208
 29.4588
 30.7085
 30.687
 29.629
 29.6472
 29.5325
 31.0551
 31.0198
 28.3693
 28.3718
 28.2942
 28.4343
 28.0915
 28.1258
 27.9886
 28.0835
 28.5702
 28.5466
 28.6124
 30.0262
 29.9507
 29.9638
 28.0779
 28.0957
 28.0651
 28.0553
 30.3472
 30.4388
 30.3642
 30.3128
 28.5135
 28.5587
 28.5884
 28.5214
 30.2707
 30.3571
 30.3687
 30.2188
 30.7381
 30.699
 30.7751
 27.8304
 27.7192
 27.7739
 27.8094
 30.9528
 30.8744
 30.9061
 29.7867
 29.7687
 29.6111
 29.7787
 27.8247
 27.7548
 27.7883
 30.2102
 30.2802
 30.1327
 30.1928
 28.8225
 28.0005
 27.9515
 28.0962
 28.0228
 31.1652
 31.1338
 31.0736
 31.1425
 28.8544
 28.9715
 28.88
 28.8555
 29.5065
 29.4924
 29.5695
 30.6764
 30.7052
 30.6417
 30.8315
 28.9075
 28.9556
 28.8647
 30.3226
 30.3689
 31.8935
 32.0318
 31.992
 31.8817
 31.1986
 31.3508
 31.3644
 28.0389
 28.0698
 27.9919
 28.0843
 28.1161
 28.0678
 31.2074
 31.1699
 31.2751
 31.1412
 29.8263
 29.7883
 29.8011
 29.7504
 29.5966
 29.7085
 29.7044
 29.6778
 29.133
 29.1726
 29.07
 29.1392
 29.1722
 29.2969
 29.2188
 29.2847
 27.9046
 30.7734
 30.8309
 30.7621
 30.8123
 27.9246
 27.9744
 27.8956
 29.2165
 29.2835
 29.3329
 29.3147
 30.9125
 30.8106
 30.7778
 29.2172
 29.2933
 29.2481
 29.2846
 29.5146
 28.7103
 28.6936
 28.5984
 28.6365
 30.319
 30.3529
 30.3254
 29.4942
 29.384
 29.4582
 27.8689
 27.9001
 27.9693
 27.9081
 29.4776
 29.4687
 29.5257
 32.4722
 32.466
 32.5275
 29.4841
 29.5402
 29.4749
 29.6217
 28.7053
 28.6163
 28.6659
 29.4186
 29.3956
 28.2904
 28.2384
 28.3284
 28.3027
 28.5944
 28.5214
 28.555
 28.5758
 27.7574
 27.7844
 27.8335
 27.8875
 29.2984
 29.4397
 29.3416
 29.306
 28.5874
 28.6244
 28.638
 28.6545
 28.3001
 28.2431
 28.1885
 30.4637
 30.4168
 30.5666
 30.4941
 29.5496
 29.4674
 29.9737
 30.0351
 29.9651
 29.9944
 28.8139
 28.8122
 28.8294
 28.7763
 29.502
 29.4362
 29.4447
 29.5347
 28.9277
 28.9729
 28.8882
 28.9754
 29.4375
 29.4177
 29.344
 29.3469
 29.5514
 29.6132
 29.6162
 28.3041
 28.3513
 28.3252
 28.0575
 28.0611
 28.0758
 27.9777
 28.3704
 28.367
 28.3119
 28.6795
 28.5621
 28.6525
 31.9115
 31.7712
 31.9552
 29.5397
 29.4303
 29.5074
 28.3818
 28.3521
 28.4034
 28.3906
 29.5442
 29.5064
 29.5606
 29.2236
 29.2155
 29.1496
 29.2809
 28.8693
 29.027
 28.9825
 28.9758
 29.5842
 29.5108
 29.5372
 29.479
 30.5188
 30.4541
 30.5067
 30.5707
 29.5167
 29.2537
 29.2772
 29.226
 29.379
 30.9377
 30.8895
 30.861
 30.8762
 30.7355
 30.6391
 30.6953
 30.6489
 30.6349
 30.5447
 30.6037
 30.6353
 28.8738
 28.91
 28.7922
 28.7478
 30.4191
 30.467
 30.4398
 30.4254
 27.565
 27.6379
 27.5977
 27.642
 31.2859
 31.2124
 31.1475
 31.1403
 30.4401
 30.4329
 30.4683
 31.0599
 31.1598
 31.1967
 31.1913
 30.6488
 30.7395
 30.5981
 30.8824
 30.845
 29.4336
 29.4429
 29.3857
 29.2833
 28.1149
 28.1668
 28.1841
 28.0297
 28.0467
 28.0009
 28.0734
 30.602
 30.6949
 27.7257
 27.6772
 27.7411
 28.2997
 28.3101
 28.28
 28.2567
 30.656
 30.7029
 30.6552
 27.8493
 27.8129
 27.8964
 27.7905
 29.8918
 29.8649
 29.8057
 29.9478
 30.6715
 30.7926
 30.7093
 30.6354
 31.0818
 30.915
 30.9932
 31.001
 31.7093
 31.6283
 31.7327
 31.7581
 29.0162
 28.8968
 28.9717
 28.8988
 29.8624
 29.8645
 29.8934
 30.0101
 27.8192
 27.9194
 27.8226
 32.3616
 32.2853
 32.3498
 32.2234
 31.2958
 31.2141
 31.244
 31.1674
 27.9237
 27.7969
 27.8688
 27.8701
 29.547
 29.5471
 29.4714
 28.2415
 28.1608
 28.1371
 30.5185
 30.5309
 30.6519
 27.7799
 27.8759
 27.8736
 27.8067
 28.1519
 28.1724
 28.1824
 28.2576
 30.2162
 30.1674
 30.0819
 30.162
 29.9703
 30.0697
 29.9687
 30.0713
 28.513
 28.5064
 28.4814
 28.4079
 29.3159
 29.3523
 29.3995
 29.3754
 31.3707
 31.2638
 31.2995
 31.2164
 28.1826
 28.3251
 28.2365
 28.2647
 27.6954
 29.2606
 29.2467
 29.1913
 29.1953
 28.0515
 28.0153
 28.0236
 27.9579
 30.9683
 30.9711
 30.9365
 30.9415
 27.8191
 27.7592
 27.8379
 27.8677
 29.5984
 29.6068
 29.8526
 29.8953
 29.8405
 29.8047
 28.5448
 28.6188
 28.6267
 28.6324
 29.1565
 29.0623
 29.0668
 29.8536
 29.8837
 29.8321
 28.5362
 28.5302
 28.6206
 28.635
 28.5246
 28.5644
 28.4888
 28.5427
 30.5246
 30.6109
 30.6291
 29.5411
 29.3905
 29.389
 29.4794
 31.5155
 31.3841
 31.2999
 31.4468
 31.4985
 27.7502
 27.8708
 27.7388
 27.8649
 29.4505
 29.4818
 29.5321
 29.453
 28.0222
 27.9801
 29.7098
 29.8585
 29.8608
 30.2629
 30.3495
 30.208
 30.2356
 27.8365
 27.8423
 27.8169
 27.7973
 30.7846
 30.7558
 30.7642
 30.2712
 30.3063
 30.2378
 30.2999
 30.0171
 29.925
 29.9889
 30.1013
 28.796
 28.6397
 28.7106
 28.6695
 30.4257
 30.2902
 30.3794
 30.3794
 28.5188
 29.1026
 29.015
 28.9808
 29.1083
 28.0421
 28.0139
 28.0849
 27.8829
 27.9076
 27.921
 27.9649
 29.0025
 28.9772
 29.068
 29.0242
 27.5525
 27.5502
 27.541
 27.624
 29.9659
 29.0567
 29.1662
 29.1838
 29.0909
 29.4224
 29.5404
 29.5065
 29.4425
 31.6935
 31.5947
 31.5687
 31.6531
 29.4709
 29.4434
 29.4193
 29.5139
 29.7543
 29.7321
 29.7014
 29.6726
 29.7585
 29.7353
 29.6824
 28.1747
 28.2532
 28.2865
 29.8167
 29.9055
 29.8782
 29.8318
 28.1049
 27.9948
 28.0523
 29.4214
 29.4525
 29.3331
 29.2881
 29.3127
 29.2271
 29.2357
 29.2096
 29.5031
 29.4783
 29.3649
 29.406
 28.1551
 28.1096
 28.1096
 29.9387
 28.0049
 29.1443
 29.0746
 29.1308
 29.2401
 30.5338
 30.4783
 30.6101
 30.4257
 30.3238
 30.3017
 29.3165
 29.3043
 29.3723
 29.4311
 29.4444
 29.3806
 29.3442
 29.4115
 29.4769
 29.3712
 29.4814
 32.6352
 32.6213
 32.7241
 28.5061
 28.5996
 28.5035
 29.6277
 29.5788
 28.2328
 28.3558
 28.3328
 28.3439
 29.0066
 28.9394
 28.9973
 31.5235
 31.6267
 31.7244
 31.6861
 29.7456
 29.8935
 29.8286
 29.7294
 30.4835
 30.5195
 30.5903
 30.6106
 28.8488
 28.9523
 28.9042
 28.8634
 30.1694
 30.2112
 30.1844
 30.2864
 31.4334
 31.4743
 31.5007
 29.8685
 29.9091
 29.9549
 29.9383
 28.7595
 28.6756
 28.6977
 28.7037
 29.5258
 29.4458
 29.4259
 29.4793
 30.3505
 30.3994
 30.3504
 29.8368
 29.8995
 29.8688
 29.8864
 30.4797
 30.5856
 30.4575
 30.558
 30.8042
 30.6508
 30.6129
 30.796
 27.9585
 27.9051
 27.9269
 27.903
 30.6573
 30.5672
 30.5986
 30.5684
 30.3931
 30.4577
 30.3565
 30.3725
 29.0127
 28.8953
 28.9511
 28.8925
 29.8991
 29.9535
 29.8569
 29.8697
 27.3914
 27.3494
 27.354
 27.3567
 29.8138
 29.8648
 29.7838
 30.8914
 30.9758
 30.9366
 30.861
 30.7083
 30.768
 30.7259
 30.7732
 30.614
 30.7379
 28.7957
 28.8456
 28.7868
 28.8831
 27.5464
 27.6133
 27.5813
 27.5874
 29.7844
 29.87
 29.8148
 29.8659
 30.6272
 30.6779
 30.7042
 28.8625
 28.9345
 28.9538
 28.8737
 29.6381
 29.6991
 29.5731
 29.5756
 30.2806
 30.2845
 30.2952
 30.2147
 30.9785
 30.809
 30.906
 28.4097
 28.3401
 28.3083
 28.3841
 28.4065
 28.378
 28.4632
 29.795
 29.7529
 29.6913
 29.7031
 29.7744
 29.8559
 29.7243
 30.3694
 30.2973
 30.2716
 30.2311
 28.864
 28.862
 28.945
 30.6278
 30.6081
 30.7316
 29.3788
 29.2723
 29.3286
 28.3318
 28.4281
 28.395
 28.7283
 28.7588
 29.9521
 29.8819
 29.9448
 29.8774
 29.8253
 29.874
 29.6466
 29.7523
 30.3099
 31.0489
 31.0201
 31.1186
 28.1008
 28.1141
 28.2203
 29.7283
 29.6732
 29.6972
 29.7651
 30.3364
 29.4337
 29.3716
 28.9084
 28.9125
 28.9239
 28.8587
 29.4742
 29.5916
 29.4901
 29.7503
 29.7078
 29.8544
 29.7118
 29.9116
 29.7442
 29.7997
 29.8598
 29.8809
 29.727
 28.178
 28.242
 28.2566
 28.2038
 28.16
 28.1076
 28.0102
 28.0433
 30.6986
 30.6072
 29.3994
 29.4691
 29.4787
 29.5427
 29.2066
 29.1826
 29.1607
 29.1266
 28.8508
 28.7842
 28.8682
 28.8771
 29.6151
 29.6528
 29.6844
 29.596
 29.6961
 29.6448
 29.6781
 29.7278
 28.3266
 28.43
 28.3446
 28.3686
 30.4341
 30.3124
 30.3237
 30.2311
 30.4781
 30.3578
 30.4169
 28.4677
 28.3987
 28.3167
 28.3003
 30.3221
 30.2541
 30.2812
 30.2153
 28.1073
 28.1453
 28.0881
 28.1182
 28.3788
 28.428
 28.4087
 28.435
 29.8161
 29.7733
 29.8596
 29.8052
 28.7215
 28.6995
 28.7526
 28.8218
 30.2858
 30.2296
 30.1455
 30.1205
 28.5995
 28.6346
 28.6075
 30.688
 30.6363
 30.7033
 30.633
 29.1115
 29.1308
 29.0942
 29.0593
 29.8721
 29.8453
 28.6351
 28.5521
 28.5903
 28.6318
 28.5558
 28.5657
 28.6085
 29.6732
 29.5745
 29.6658
 28.4685
 28.4834
 28.4533
 28.3815
 31.3843
 31.2945
 31.2241
 31.2872
 30.2699
 30.2355
 30.1537
 30.1472
 29.0025
 29.1033
 29.0929
 28.9916
 28.0707
 28.0714
 28.1158
 28.0793
 28.2955
 28.2328
 28.2191
 28.2922
 27.9326
 27.9161
 27.9127
 28.1365
 28.1231
 29.9857
 29.9165
 29.9835
 29.9003
 30.5316
 30.4763
 30.6377
 30.5612
 30.1545
 30.1428
 30.0427
 29.9626
 30.03
 30.0285
 29.7296
 29.721
 29.625
 29.7198
 30.6293
 30.6287
 30.7
 29.2257
 29.2817
 29.2567
 29.3079
 27.3907
 27.4149
 27.4805
 30.0682
 30.08
 30.042
 29.9709
 28.2313
 28.3169
 28.2579
 28.2363
 28.7553
 28.6547
 28.6723
 29.3564
 29.4074
 29.3013
 28.8055
 28.7195
 28.8354
 28.3206
 28.4005
 28.82
 28.8042
 28.8044
 30.2253
 30.2062
 30.1804
 30.283
 28.0536
 28.0062
 28.0592
 28.0846
 29.1085
 29.01
 29.088
 31.7357
 31.8017
 31.8327
 31.7314
 30.7098
 30.786
 29.1725
 30.0328
 29.9296
 29.9963
 30.0211
 29.4389
 29.3623
 29.3691
 28.702
 28.6652
 28.729
 28.6999
 28.0941
 28.0502
 29.4925
 29.5296
 29.5231
 29.5738
 30.7565
 30.7985
 30.8215
 30.6584
 28.3112
 28.26
 28.2816
 28.311
 28.9207
 28.8894
 28.9291
 32.2726
 32.2676
 32.4104
 32.4409
 30.6058
 30.6377
 30.725
 30.1247
 30.0811
 30.1856
 30.1222
 29.0885
 29.0822
 29.1327
 29.0329
 29.4337
 29.3614
 31.0042
 30.9686
 30.9765
 30.9797
 28.8884
 28.7994
 30.2575
 30.356
 30.2409
 30.2309
 29.7317
 29.6965
 29.8069
 29.726
 29.5049
 29.4328
 29.3701
 29.4482
 30.0871
 30.1372
 30.2361
 28.7389
 28.8609
 28.7511
 28.8224
 28.4167
 28.3581
 28.2909
 28.4188
 28.4483
 28.4575
 28.4653
 28.371
 30.7139
 30.8438
 30.7157
 30.7938
 29.4497
 29.5048
 31.8891
 32.0864
 31.9288
 32.0766
 29.8962
 30.0049
 30.0289
 27.7402
 32.7065
 32.7015
 32.743
 32.8952
 29.4405
 29.3761
 29.4268
 29.4146
 29.994
 29.9138
 29.9526
 28.3931
 28.3458
 28.3126
 28.4149
 28.4165
 28.4417
 28.3664
 28.3755
 28.4025
 28.3774
 28.4382
 28.4649
 30.2124
 30.1309
 30.2532
 30.1372
 30.5086
 30.5803
 30.5649
 30.6011
 28.9414
 28.9488
 28.8582
 28.9523
 29.8118
 29.9301
 29.7917
 29.8657
 27.4867
 28.0328
 27.9847
 29.0876
 29.0977
 29.6217
 29.6758
 29.6696
 28.0152
 27.9109
 27.9774
 27.9929
 29.4877
 29.5271
 29.1946
 29.2557
 31.4869
 31.4123
 31.5341
 31.46
 30.1983
 30.2301
 30.3008
 30.2574
 28.9137
 28.823
 28.9095
 28.8277
 31.1978
 31.3325
 31.2465
 31.1987
 27.5603
 27.6083
 27.5263
 27.5974
 28.0926
 28.1907
 27.9619
 28.0039
 28.0588
 27.9571
 28.4354
 28.3794
 29.8928
 29.8262
 29.8756
 32.2873
 32.217
 32.3128
 32.3616
 31.1058
 31.0455
 31.0478
 31.1284
 28.0637
 28.0005
 28.0629
 28.1029
 28.6496
 28.5249
 28.5772
 29.3332
 29.4059
 29.4686
 29.3561
 30.129
 30.0214
 30.0775
 30.1167
 28.1505
 28.0917
 28.1529
 28.0183
 29.3866
 29.2885
 30.1282
 30.0846
 28.8363
 28.7673
 28.8804
 28.8533
 30.5385
 30.6487
 30.5008
 30.6844
 30.7213
 30.8549
 30.7774
 32.3453
 32.1409
 32.1222
 32.27
 30.0863
 30.0365
 30.056
 29.9708
 28.2864
 28.2648
 28.3975
 28.3248
 28.379
 28.3244
 30.2609
 30.2695
 30.1896
 30.3258
 28.5743
 28.62
 28.5504
 28.8419
 28.8609
 28.8115
 28.8814
 28.3523
 28.2707
 28.3518
 28.27
 30.1316
 30.0514
 30.0778
 30.1141
 27.9004
 28.0084
 29.695
 31.7535
 31.7544
 31.6466
 31.6411
 28.5512
 28.5781
 28.516
 31.3433
 31.3934
 31.2684
 31.4571
 28.7218
 28.7278
 28.7097
 28.6414
 30.8712
 30.8769
 30.9991
 30.826
 30.4475
 30.4562
 30.3696
 30.3459
 28.8847
 28.8233
 28.8118
 29.9401
 29.8994
 29.9608
 30.0056
 29.0902
 29.0931
 29.0484
 29.1582
 29.0977
 29.2023
 28.2573
 28.2354
 28.2494
 28.8256
 28.8074
 28.8425
 32.0415
 32.0527
 31.9628
 32.0323
 30.7024
 30.5783
 30.737
 30.5468
 28.1414
 28.2391
 28.2555
 28.2644
 28.5002
 28.5341
 30.4266
 30.2758
 30.4378
 28.7949
 28.8928
 28.8859
 28.9499
 28.8756
 28.9046
 28.9319
 30.2038
 30.2488
 30.1953
 30.1738
 27.9085
 27.9268
 29.9783
 30.007
 29.9765
 29.9415
 30.4008
 30.3929
 30.3639
 28.8033
 28.781
 29.4792
 29.4927
 29.5335
 29.4149
 30.8434
 30.8876
 28.9686
 29.0185
 29.8912
 29.9847
 29.9552
 29.9231
 29.2408
 29.2222
 29.3091
 29.1863
 29.243
 29.298
 29.2604
 30.9976
 30.9604
 31.0228
 30.8509
 31.176
 31.1921
 31.111
 31.1827
 28.7307
 28.7709
 28.8339
 28.7878
 28.1109
 28.1015
 28.1461
 28.1479
 29.1247
 29.0858
 29.1679
 29.411
 29.4682
 29.4994
 29.455
 29.3787
 28.4609
 28.441
 30.0511
 29.9661
 30.0508
 30.0699
 30.4219
 28.104
 28.1213
 28.175
 28.1411
 29.4343
 29.5612
 29.536
 29.4669
 32.0972
 32.0522
 29.6661
 29.7706
 29.6662
 31.9007
 31.8799
 31.9494
 31.8621
 29.0455
 29.0976
 29.055
 29.088
 30.8847
 30.7602
 30.7516
 30.2121
 30.117
 27.8513
 27.852
 27.8609
 27.9947
 27.9895
 28.022
 30.58
 30.4611
 30.3533
 30.3752
 32.0523
 32.0893
 32.1216
 32.2225
 28.0902
 28.2042
 28.0823
 30.4838
 30.4673
 30.4147
 30.5493
 30.3703
 30.4169
 30.2923
 30.4129
 28.7808
 28.7415
 28.7227
 28.7642
 29.0978
 28.9181
 29.0128
 28.7899
 28.7881
 28.8636
 28.7873
 28.5271
 28.6106
 28.4592
 28.6429
 30.9729
 30.9602
 30.6716
 30.67
 30.5919
 29.1268
 29.1675
 29.233
 29.2076
 30.3846
 30.3908
 30.2945
 30.3362
 28.6987
 28.7531
 28.7389
 28.7019
 30.8964
 30.734
 28.1913
 28.2347
 28.2024
 28.2643
 28.6579
 28.7808
 28.7242
 28.6403
 30.08
 30.068
 30.1036
 30.0165
 28.3371
 28.2491
 29.6934
 29.6755
 29.6443
 29.6282
 31.5258
 31.4792
 31.5115
 31.5011
 30.9192
 30.8624
 30.9108
 30.8292
 27.8501
 27.8146
 27.7685
 27.7885
 28.0912
 28.1239
 28.1503
 30.1398
 30.1518
 30.1661
 27.8812
 27.8301
 29.7083
 29.6426
 29.6921
 29.5581
 28.2546
 28.3109
 28.2511
 28.3137
 30.4313
 30.4852
 30.4065
 30.4804
 30.9926
 30.8916
 31.0045
 28.4196
 28.3379
 28.3402
 28.3938
 29.792
 29.6637
 29.6878
 29.7313
 30.5747
 30.5379
 30.4668
 30.6257
 30.7552
 30.9744
 30.7634
 29.0974
 29.2093
 29.0759
 29.3413
 29.3258
 29.3875
 29.2964
 29.1681
 29.1741
 29.0884
 29.1868
 29.9396
 29.8338
 29.9235
 29.8517
 30.2466
 30.2239
 30.1796
 30.286
 30.6469
 30.7605
 28.8628
 28.7591
 28.8633
 28.8609
 29.2743
 29.3846
 29.2954
 29.3471
 29.2423
 29.3537
 29.3734
 29.4818
 29.3444
 29.3608
 31.8729
 31.7967
 31.754
 31.7845
 28.0905
 27.99
 28.0574
 29.8793
 29.8871
 29.8819
 29.9753
 29.4645
 29.5277
 29.4658
 30.7559
 30.673
 30.8008
 30.765
 30.4519
 30.5478
 30.4871
 30.5128
 29.8198
 29.7989
 29.74
 30.3589
 30.4049
 28.6305
 28.67
 28.5647
 27.7534
 27.7229
 27.7975
 27.7571
 30.512
 30.5638
 30.5927
 30.4079
 29.5116
 29.4391
 29.4246
 29.5236
 28.4707
 28.457
 28.5132
 28.5236
 30.3653
 30.3395
 30.4147
 30.274
 30.1467
 30.1037
 30.0783
 30.0047
 28.3888
 28.452
 28.5298
 28.5164
 30.1797
 30.0684
 28.1911
 28.2174
 28.1569
 29.2347
 29.2948
 31.1153
 31.2058
 31.1622
 31.2403
 29.798
 29.7616
 29.7374
 29.7556
 31.274
 31.3569
 31.2935
 29.5733
 29.5877
 29.0416
 28.9958
 28.9022
 29.0367
 29.7571
 29.7462
 28.8381
 28.7767
 29.871
 29.9213
 29.8788
 29.8506
 28.8828
 28.9587
 28.8705
 28.8349
 28.5611
 28.4814
 28.4164
 28.4678
 27.8801
 27.8648
 27.9033
 27.8991
 29.5048
 29.462
 30.4696
 30.4588
 30.611
 30.6472
 28.4671
 28.5429
 30.6712
 30.5859
 30.6203
 31.6817
 31.6565
 31.5195
 31.5839
 31.8262
 31.7953
 31.8274
 29.4454
 29.3455
 29.3514
 29.3677
 29.8528
 29.7795
 29.8401
 30.5977
 30.1251
 30.0456
 30.1603
 30.0571
 30.61
 30.553
 30.6701
 30.5679
 29.8847
 29.9583
 29.869
 29.9573
 28.8332
 28.975
 28.976
 28.8545
 27.9135
 27.9429
 27.9476
 27.8786
 29.6735
 29.6996
 29.5835
 29.6114
 28.3781
 28.4153
 28.2956
 28.3202
 30.1199
 28.7538
 28.857
 28.8121
 28.8355
 31.1863
 31.2745
 31.193
 31.2078
 28.7198
 28.6501
 28.645
 29.9732
 28.1083
 28.0926
 28.1399
 28.0516
 27.9737
 27.9569
 27.9538
 27.999
 28.0907
 28.0229
 27.9982
 29.4082
 29.4231
 29.4059
 29.499
 28.052
 28.0312
 28.0041
 27.9981
 30.557
 30.6039
 30.6372
 30.627
 28.9162
 28.9465
 28.9416
 29.0183
 29.6616
 29.5508
 29.5711
 29.6476
 31.4257
 31.3253
 31.4561
 29.0239
 29.5457
 29.5659
 29.6
 29.508
 28.002
 27.9461
 27.9454
 27.9274
 27.9751
 27.9162
 27.8614
 27.8888
 28.8865
 28.9118
 28.8608
 28.9189
 30.0676
 30.1406
 30.1768
 30.1417
 29.7334
 29.6357
 29.7099
 28.0372
 28.0121
 28.0498
 28.1195
 27.9335
 27.8928
 27.9162
 27.9513
 30.6205
 30.6699
 30.6611
 28.4662
 28.3987
 28.0366
 28.0618
 28.0562
 30.5813
 30.6331
 30.5279
 30.5247
 28.6491
 28.5592
 28.6932
 28.6983
 29.8033
 29.2067
 29.1844
 29.1444
 29.2104
 28.9778
 29.0485
 28.971
 29.0964
 27.9512
 27.917
 28.2664
 28.1802
 28.2361
 28.1777
 28.2955
 28.1923
 28.2332
 28.1643
 28.3883
 28.4646
 28.3664
 28.4575
 28.6171
 28.564
 28.5983
 28.563
 31.2105
 31.0674
 28.059
 28.0315
 27.9885
 30.9729
 31.008
 30.9763
 30.2655
 30.4087
 30.4307
 30.3058
 28.6055
 28.6487
 28.5943
 28.5256
 29.6343
 29.7161
 29.6817
 29.6717
 27.6807
 27.7449
 27.675
 27.6275
 29.185
 29.2036
 29.1529
 29.1748
 28.3406
 28.2857
 28.346
 28.7876
 28.7899
 29.272
 29.3978
 29.2993
 29.2876
 29.3322
 29.4748
 29.3306
 29.4268
 30.6362
 30.5477
 30.5429
 28.9316
 28.8535
 28.8955
 28.8244
 29.931
 29.8857
 29.8181
 28.1829
 28.1982
 28.1126
 28.2144
 27.9646
 29.1117
 29.2104
 29.2217
 29.1457
 28.8079
 28.7545
 28.7516
 28.7727
 28.9808
 29.0307
 29.0563
 32.6323
 32.7597
 32.6501
 32.6371
 30.2993
 30.2335
 30.8426
 30.9425
 29.5796
 29.7175
 29.7016
 29.6293
 32.9178
 32.8826
 27.7443
 27.718
 27.6956
 27.6389
 28.6501
 28.5036
 30.6557
 30.6799
 30.6053
 30.6136
 29.5429
 29.5336
 29.4754
 29.5038
 28.2931
 28.2152
 28.2499
 28.3315
 30.1628
 30.1942
 30.122
 30.1554
 29.636
 29.6771
 29.5836
 29.6362
 28.2101
 28.1595
 28.1633
 28.0973
 29.6884
 29.6575
 29.6324
 29.7835
 27.9465
 28.0097
 27.9921
 28.0188
 28.901
 28.8433
 28.8541
 30.3308
 30.3198
 30.445
 30.3361
 29.0565
 29.1283
 29.0868
 29.1339
 29.2598
 29.3235
 29.96
 29.8243
 29.814
 28.8849
 28.9006
 28.8092
 28.7964
 27.8732
 27.8775
 27.8009
 27.796
 28.1095
 28.0559
 28.017
 28.1185
 30.4732
 30.4771
 30.5586
 30.5304
 30.9321
 30.9342
 30.9757
 30.9598
 30.7005
 30.8246
 30.7015
 30.7825
 30.9897
 30.964
 31.018
 29.3684
 29.3825
 29.3621
 29.4789
 28.4582
 28.4192
 28.6781
 28.5835
 28.6478
 28.6449
 28.4805
 28.426
 28.5189
 30.4074
 30.4945
 30.4588
 30.5278
 29.3948
 29.3816
 29.329
 29.3441
 27.6929
 27.687
 27.6687
 27.6222
 29.1637
 29.2074
 29.2593
 29.1671
 29.0742
 29.1701
 29.0619
 29.1337
 28.0865
 28.0402
 28.1034
 28.1121
 30.722
 30.843
 30.8274
 30.7699
 28.6667
 28.7037
 30.7526
 30.8362
 28.3251
 28.3878
 28.3164
 28.2585
 29.2754
 29.2971
 29.2738
 29.3695
 31.1032
 30.9742
 31.0338
 30.8964
 30.9555
 30.9646
 30.9959
 30.1307
 30.2533
 29.2595
 29.2927
 29.2374
 29.2856
 28.8433
 28.8548
 28.8001
 29.8578
 29.93
 29.9647
 29.8574
 29.8488
 29.7129
 29.8469
 29.754
 28.5496
 28.6345
 28.6101
 28.5971
 30.9442
 30.9422
 30.9244
 27.8007
 27.783
 27.8639
 27.8553
 29.0032
 29.0267
 29.0083
 30.4315
 30.3981
 30.3656
 28.0002
 27.9956
 28.0606
 27.9596
 28.3814
 30.0798
 30.1761
 30.1507
 30.1179
 28.0274
 28.1392
 28.1061
 28.0525
 28.9733
 28.8895
 28.9171
 27.851
 27.8446
 27.8423
 27.8425
 28.0566
 28.1159
 28.1047
 28.0236
 28.0169
 31.0043
 30.9475
 29.5469
 29.5749
 29.4723
 29.5336
 31.4047
 31.4909
 31.4845
 31.4277
 29.9876
 29.0111
 28.9684
 29.0965
 28.6751
 28.6166
 28.5474
 28.6697
 29.9829
 29.967
 30.0453
 30.0463
 30.3408
 30.3699
 29.088
 29.0474
 29.0439
 30.1558
 30.2052
 30.1461
 30.0988
 30.2513
 30.2507
 30.2048
 30.1818
 28.0355
 27.9844
 29.951
 29.8836
 29.9454
 29.9519
 30.9893
 30.8475
 30.9591
 30.8533
 30.3806
 30.3563
 30.1666
 30.3186
 31.0159
 31.1104
 31.0395
 28.4231
 28.4932
 28.3783
 28.6878
 28.698
 28.0696
 28.0553
 28.1079
 30.6587
 30.7855
 30.7499
 30.7328
 30.5553
 30.5029
 30.4454
 32.6599
 32.4643
 32.6412
 32.6971
 28.4768
 28.5827
 28.4801
 28.4324
 30.2092
 30.1821
 30.2146
 30.0842
 29.0195
 29.0834
 29.0641
 29.0156
 28.4861
 28.508
 28.5974
 28.5367
 30.5864
 30.5696
 30.5347
 30.4824
 29.5663
 29.4929
 29.5713
 28.6978
 28.6951
 28.6371
 28.9908
 29.0116
 29.0058
 28.9086
 29.5771
 29.6827
 29.6796
 29.6651
 28.9974
 28.9589
 28.929
 31.0456
 30.867
 31.0269
 31.0077
 29.4776
 29.471
 29.4565
 29.5361
 30.5909
 30.68
 30.6669
 30.6663
 30.7791
 30.912
 30.7704
 30.7978
 27.6121
 27.5179
 27.6468
 30.5156
 30.6056
 30.5114
 27.5889
 28.397
 28.3815
 28.4794
 28.4486
 30.8234
 28.6682
 30.1071
 30.1139
 30.1824
 30.1626
 31.0152
 31.0914
 31.1466
 31.0853
 28.8235
 29.6272
 27.7886
 27.8149
 27.802
 27.8121
 32.4693
 32.4644
 32.5075
 30.241
 30.3244
 30.3652
 30.8641
 31.0209
 27.4798
 27.4341
 27.5253
 27.4853
 29.7774
 29.9072
 29.8215
 29.8038
 28.3621
 28.2889
 28.2825
 28.9473
 29.0112
 28.8353
 28.8694
 28.7468
 28.8283
 27.9626
 28.0173
 28.0257
 27.9752
 29.6022
 29.5895
 29.4658
 29.5149
 28.1281
 28.0793
 28.1485
 28.1025
 29.4961
 29.4301
 29.3428
 29.4578
 28.5573
 28.5348
 28.5032
 28.5921
 28.3973
 28.4773
 28.4088
 28.2481
 30.393
 30.5423
 30.3491
 30.2911
 29.3281
 27.8962
 27.8043
 27.8401
 27.8281
 29.1519
 29.1427
 29.2588
 29.1336
 29.0433
 29.0201
 30.5413
 30.6517
 30.6311
 30.5191
 29.9924
 30.0961
 30.0021
 29.3993
 29.4186
 29.4539
 29.4979
 27.6282
 27.7003
 27.7155
 27.6821
 30.2122
 30.2129
 30.279
 30.3028
 28.7121
 28.8216
 28.8204
 28.7773
 29.4064
 29.3967
 29.4569
 30.7223
 30.6076
 30.6538
 30.6486
 31.5528
 31.5
 31.6045
 31.4598
 30.0377
 30.092
 30.0991
 28.3082
 28.3048
 28.2538
 29.1155
 28.4917
 28.5918
 28.56
 28.5549
 30.2787
 30.3107
 30.302
 30.3042
 28.2163
 28.0918
 28.1555
 28.1742
 29.3063
 29.4237
 28.8412
 28.8954
 28.8671
 28.8255
 28.8267
 28.8549
 28.9808
 31.7682
 31.7273
 31.8841
 31.7869
 27.4281
 27.3139
 27.3545
 27.4166
 29.9313
 29.8437
 29.8882
 30.456
 30.372
 30.5219
 30.3471
 28.7227
 28.8459
 28.8029
 32.3672
 32.4553
 32.542
 32.3943
 28.5168
 28.5025
 28.4172
 28.4114
 28.4685
 28.4551
 30.877
 30.9755
 30.9194
 30.9785
 30.5923
 30.5907
 30.5564
 30.6404
 31.3844
 31.3156
 31.2345
 31.3479
 29.6166
 31.4166
 31.2682
 31.2768
 31.2939
 28.5534
 28.6224
 28.6479
 28.67
 30.5576
 30.4315
 28.6148
 28.5726
 28.5699
 28.6613
 28.3004
 28.2606
 28.3085
 28.2637
 27.7061
 27.6663
 27.6712
 27.5803
 32.3861
 32.4122
 32.3181
 28.9926
 28.908
 28.9388
 28.9479
 28.3645
 28.3503
 28.4092
 28.3839
 31.7867
 31.7363
 31.7078
 31.8134
 28.9471
 28.5411
 28.5173
 28.485
 28.5613
 28.0481
 28.0121
 28.048
 29.5957
 29.5427
 29.5555
 29.5012
 27.7696
 27.6797
 27.6467
 27.6863
 29.1406
 29.0978
 29.1434
 29.1528
 29.0475
 30.279
 30.4082
 30.2515
 29.2131
 29.2976
 29.263
 29.1776
 29.3301
 29.3013
 29.2558
 29.3793
 29.9614
 30.0711
 30.0375
 30.9453
 31.6042
 31.516
 31.7139
 28.8833
 28.8356
 28.858
 28.5474
 28.5344
 28.5814
 30.4215
 30.3237
 30.3593
 30.2433
 28.7243
 28.7782
 28.0631
 28.1058
 28.1245
 28.0988
 27.9252
 27.9394
 27.9441
 28.2018
 28.149
 28.9583
 28.8917
 28.9443
 28.2958
 28.4001
 28.3361
 30.6351
 32.4809
 32.5566
 32.4457
 32.452
 28.9767
 28.9534
 29.0244
 28.9976
 32.1482
 32.104
 32.0145
 32.1483
 28.6302
 28.612
 28.5807
 29.4633
 29.486
 29.5766
 29.5897
 30.2373
 30.1981
 30.3328
 30.2719
 29.1424
 29.1291
 29.0503
 28.6538
 28.5903
 29.5879
 29.4837
 29.5394
 29.5674
 29.9368
 29.8794
 29.9225
 30.6602
 30.6422
 30.6411
 29.0369
 28.9934
 28.9452
 29.0503
 28.477
 28.3909
 28.4576
 28.4189
 27.4197
 27.4729
 27.3993
 27.466
 29.2903
 29.3096
 27.3844
 27.4474
 27.4682
 28.82
 30.8504
 30.7606
 30.6966
 30.7487
 30.1863
 30.1239
 30.2004
 30.1433
 28.7926
 28.8448
 28.8089
 28.1535
 28.0989
 31.0015
 30.9585
 31.0781
 30.9232
 28.5672
 28.6061
 30.8549
 30.9072
 29.1632
 29.1652
 29.2059
 31.1157
 31.2311
 31.0787
 30.2347
 30.2686
 30.3075
 30.3116
 28.1636
 28.1547
 28.1247
 28.1716
 29.7194
 29.6991
 29.702
 29.5859
 29.7155
 29.6544
 29.6143
 27.938
 28.0382
 28.0308
 28.0382
 31.5447
 31.4615
 31.5852
 29.3872
 29.4731
 29.4341
 28.4737
 28.4317
 28.7395
 28.7553
 28.8376
 28.8235
 31.6437
 31.5568
 31.6278
 31.6529
 30.2565
 30.257
 30.2656
 30.1901
 28.4143
 28.3914
 28.3599
 28.3535
 28.3284
 28.367
 28.3535
 28.4009
 29.6765
 29.7656
 29.6829
 29.704
 27.5922
 27.4892
 27.5094
 27.6025
 30.6425
 30.557
 30.6877
 31.8205
 31.9841
 31.9835
 29.1395
 29.0808
 28.685
 28.6614
 28.7186
 28.6937
 28.16
 28.1962
 28.0972
 28.0902
 29.8479
 29.3507
 29.7329
 29.6636
 29.6183
 29.571
 32.5761
 32.6621
 32.7017
 32.4975
 28.4989
 28.532
 30.3087
 30.2728
 30.2174
 30.0107
 30.0484
 29.9559
 29.9298
 30.909
 31.0182
 29.9746
 29.9824
 30.04
 29.9415
 30.6993
 30.768
 30.196
