 26.4822
 26.3974
 26.428
 26.3737
 25.0272
 25.0232
 24.9711
 24.9471
 25.4211
 25.4699
 25.4076
 25.4759
 25.3627
 25.3989
 25.4441
 25.4523
 24.5834
 24.5089
 24.6122
 24.6263
 24.6086
 24.6597
 24.5658
 24.641
 26.8046
 26.873
 26.8523
 26.8018
 26.7626
 26.7383
 26.739
 26.7832
 24.5688
 24.5975
 24.6566
 24.5892
 24.6266
 24.619
 24.6414
 24.5477
 27.0062
 27.0544
 26.9817
 26.9703
 25.3685
 25.366
 25.4167
 25.3808
 26.1648
 26.1786
 26.222
 26.1249
 25.0553
 25.1283
 25.1542
 25.1077
 25.648
 25.6567
 25.6243
 25.5829
 26.5974
 26.6461
 26.5657
 26.6451
 24.8158
 24.7712
 24.8133
 24.7444
 25.2353
 25.2695
 25.2208
 25.2599
 25.6662
 25.657
 25.6489
 25.6163
 24.7735
 24.7833
 24.752
 24.6989
 26.711
 26.7831
 26.7105
 26.7567
 24.4244
 24.4291
 24.3564
 24.3416
 27.5077
 27.5525
 27.5442
 27.4809
 25.1891
 25.1496
 25.2005
 25.2147
 25.7472
 25.7781
 25.7104
 25.7046
 25.5756
 25.5709
 25.6007
 25.6191
 25.9761
 25.9198
 25.8908
 25.9642
 26.6044
 26.6507
 26.5917
 26.5951
 26.1932
 26.2105
 26.2675
 26.2307
 25.1142
 25.1259
 25.1417
 25.186
 25.699
 25.6017
 25.7141
 25.6844
 26.1513
 26.0984
 26.107
 26.1478
 25.313
 25.3726
 25.3137
 25.3636
 25.0035
 25.0318
 25.0313
 25.0257
 26.1692
 26.2329
 26.1646
 26.2558
 26.5433
 26.5492
 26.5646
 26.5616
 25.363
 25.4315
 25.3844
 25.3822
 26.8424
 26.8215
 26.8008
 26.7994
 25.1957
 25.1857
 25.0889
 25.1119
 24.2288
 24.3022
 24.2444
 24.3168
 25.5221
 25.542
 25.514
 25.5831
 25.1405
 25.0921
 25.1123
 25.147
 26.8029
 26.8063
 26.7449
 26.8461
 25.3013
 25.3505
 25.3301
 25.2752
 24.5553
 24.5782
 24.5231
 24.5574
 26.3189
 26.2677
 26.2919
 26.3163
 25.2987
 25.2141
 25.2372
 25.2202
 26.5226
 26.459
 26.4973
 26.5591
 26.1701
 26.2053
 26.2264
 26.2424
 25.6552
 25.6961
 25.7052
 25.753
 26.629
 26.6595
 26.6786
 26.6155
 25.5198
 25.5731
 25.5623
 25.5304
 26.0834
 26.1412
 26.0657
 26.162
 25.5304
 25.4936
 25.5155
 25.4976
 26.2466
 26.1935
 26.2354
 26.1603
 25.4126
 25.4197
 25.3725
 25.463
 25.1357
 25.1398
 25.1015
 25.0628
 25.1234
 25.1702
 25.1441
 25.2191
 26.3012
 26.3207
 26.3859
 26.2806
 25.9271
 25.9559
 25.9596
 25.8862
 27.423
 27.4473
 27.4945
 27.4458
 26.2335
 26.2498
 26.3017
 26.2418
 25.739
 25.6544
 25.6987
 25.6902
 26.0557
 26.0563
 25.9825
 26.0969
 26.141
 26.0823
 26.1406
 26.0861
 26.6668
 26.7038
 26.6451
 26.6532
 24.7558
 24.6876
 24.651
 24.758
 24.6049
 24.5854
 24.5527
 24.5302
 25.6291
 25.5556
 25.6718
 25.6319
 26.2112
 26.2261
 26.1896
 26.2565
 25.1714
 25.1514
 25.1167
 25.1761
 26.7051
 26.823
 26.7795
 26.781
 26.7169
 26.7752
 26.7931
 26.7234
 27.5706
 27.6222
 27.5651
 27.5699
 25.4708
 25.3944
 25.4455
 25.3895
 26.3321
 26.2731
 26.2614
 26.3265
 26.4494
 26.4937
 26.4138
 26.4232
 24.4905
 24.4173
 24.4428
 24.4073
 26.5899
 26.6264
 26.6763
 26.6091
 26.4655
 26.4951
 26.5303
 26.4669
 26.3542
 26.3116
 26.3634
 26.4087
 25.834
 25.8406
 25.7939
 25.7977
 26.4148
 26.3464
 26.3971
 26.3739
 26.176
 26.1464
 26.1289
 26.1569
 25.9125
 25.9283
 25.955
 25.9708
 26.5431
 26.6198
 26.5305
 26.6194
 27.7198
 27.7191
 27.6512
 27.6571
 26.6851
 26.6679
 26.6241
 26.6552
 25.4078
 25.4616
 25.3987
 25.4853
 25.4071
 25.4412
 25.3932
 25.4588
 25.1162
 25.1733
 25.1695
 25.1318
 26.8431
 26.8549
 26.8374
 26.8085
 24.3405
 24.3538
 24.4082
 24.3085
 25.2196
 25.1659
 25.2336
 25.2091
 26.8269
 26.8193
 26.8776
 26.9004
 26.1544
 26.1625
 26.1755
 26.0914
 26.476
 26.434
 26.5277
 26.4903
 26.4632
 26.4912
 26.4932
 26.7972
 26.808
 26.8133
 26.8446
 25.2916
 25.3309
 25.3707
 25.2756
 25.9689
 25.8911
 25.9138
 25.952
 25.3975
 25.3345
 25.3978
 26.2448
 26.3246
 26.2683
 26.2914
 25.8162
 25.7652
 25.7827
 25.8474
 24.8342
 24.9352
 24.9264
 24.8065
 26.72
 26.7155
 26.6355
 26.6677
 26.523
 26.5689
 26.6087
 26.5596
 25.4701
 25.5364
 25.5444
 25.5202
 25.2325
 25.2697
 25.1809
 25.1858
 26.7926
 26.7674
 26.7958
 26.839
 26.5551
 26.537
 26.4349
 26.4631
 25.9963
 25.9304
 25.8931
 25.9901
 24.6705
 24.6315
 24.6519
 24.6358
 25.4396
 25.3783
 25.3501
 25.3824
 25.7647
 25.8514
 25.7871
 25.7652
 27.4628
 27.5498
 27.4687
 27.4715
 25.8914
 25.9272
 25.8554
 25.826
 24.8349
 24.9089
 24.8359
 24.9217
 26.3879
 26.4775
 26.3546
 26.3724
 26.5844
 26.5708
 26.6332
 26.5943
 26.5537
 26.6148
 26.607
 26.5889
 27.1215
 27.1301
 27.1274
 27.0921
 26.4145
 26.5088
 26.4996
 26.5001
 25.463
 25.4633
 25.4533
 25.5016
 26.8315
 26.7989
 26.7785
 26.7608
 24.771
 24.8289
 24.7734
 24.759
 26.7284
 26.8029
 26.8027
 26.7326
 24.8712
 24.9626
 24.8588
 24.9173
 25.9481
 25.9936
 25.991
 25.9604
 26.0542
 25.9923
 25.9796
 26.0308
 26.2897
 26.2899
 26.2106
 26.2683
 26.4142
 26.4141
 26.4739
 26.4801
 24.4212
 24.349
 24.3306
 24.3408
 26.3626
 26.4104
 26.3604
 26.3995
 24.2266
 24.2915
 24.2509
 24.3435
 25.1861
 25.2163
 25.1387
 25.1961
 27.3002
 27.2366
 27.2452
 27.3009
 24.5005
 24.5086
 24.4667
 24.4448
 26.6019
 26.5438
 26.6024
 26.6561
 27.2218
 27.2775
 27.3029
 27.2248
 25.0079
 25.0304
 25.0627
 25.0364
 24.5396
 24.46
 24.5198
 24.5544
 25.582
 25.5776
 25.5947
 25.62
 25.0757
 25.1455
 25.0644
 25.1426
 26.5107
 26.5833
 26.5385
 26.5659
 25.4793
 25.5083
 25.4868
 25.4371
 26.1172
 26.1202
 26.0745
 26.0705
 26.7506
 26.7155
 26.7645
 26.768
 26.9929
 26.999
 27.0162
 26.9473
 25.9147
 25.9331
 25.8796
 25.9536
 25.7701
 25.7885
 25.7971
 25.8413
 26.5584
 26.5648
 26.5083
 26.512
 26.5276
 26.6216
 26.5419
 26.5451
 25.3806
 25.3572
 25.3987
 25.4153
 24.5848
 24.6411
 24.5426
 24.5234
 24.7072
 24.7389
 24.6931
 24.6704
 24.7429
 24.8085
 24.7908
 24.7563
 25.2238
 25.2574
 25.1966
 25.2537
 26.5203
 26.6091
 26.5457
 26.5677
 26.4861
 26.4417
 26.4259
 26.4158
 25.7385
 25.784
 25.8344
 25.8547
 25.2498
 25.2811
 25.2035
 25.2491
 25.2586
 25.2895
 25.2608
 25.2163
 25.6211
 25.6759
 25.632
 25.62
 25.4183
 25.3643
 25.4265
 25.4198
 26.8844
 26.8966
 26.8625
 26.8019
 27.9358
 27.9896
 27.9231
 27.9973
 26.3783
 26.3878
 26.4486
 26.4132
 27.7688
 27.7003
 27.7105
 26.4122
 26.4246
 26.3817
 26.4409
 24.7405
 24.7822
 24.7515
 24.7921
 25.6713
 25.647
 25.6272
 25.5817
 24.6595
 24.6921
 24.6315
 24.7075
 26.5542
 26.5464
 26.62
 26.5688
 25.2615
 25.2564
 25.1516
 25.1793
 25.611
 25.6359
 25.6979
 25.6434
 24.4394
 24.3959
 24.385
 24.5069
 25.003
 25.0188
 24.9924
 24.9392
 26.3461
 26.2898
 26.3282
 26.3468
 25.219
 25.2242
 25.2826
 25.2046
 24.9064
 24.9955
 24.955
 24.9801
 27.207
 27.2796
 27.2706
 27.2737
 25.6874
 25.6678
 25.6284
 25.6206
 24.8722
 24.8506
 24.8509
 24.9122
 25.4113
 25.3594
 25.4507
 25.3243
 24.8667
 24.9358
 24.8628
 24.8629
 26.4785
 26.4194
 26.387
 26.4092
 24.9819
 24.8804
 24.9956
 24.9002
 25.9688
 25.937
 26.0279
 25.9688
 25.8511
 25.8263
 25.7917
 25.8612
 25.0046
 25.0357
 25.0743
 24.9742
 24.2653
 24.3179
 24.3191
 24.2814
 26.9332
 26.9013
 26.8628
 26.8408
 26.1966
 26.1411
 26.1133
 26.183
 25.4415
 25.4855
 25.5046
 25.4881
 25.0534
 25.0062
 25.0272
 24.9973
 26.3442
 26.409
 26.3784
 26.3688
 26.7783
 26.7201
 26.6872
 26.768
 25.1971
 25.1927
 25.2745
 25.2634
 25.3126
 25.2637
 25.3183
 25.2924
 24.5006
 24.4388
 24.3864
 24.4934
 26.6297
 26.5508
 26.6438
 26.593
 24.584
 24.5154
 24.5246
 24.5725
 26.221
 26.1669
 26.2233
 26.2412
 27.8867
 27.8946
 27.8512
 27.8383
 24.7568
 24.7369
 24.6836
 24.7235
 25.3296
 25.2966
 25.3638
 25.4135
 24.8257
 24.8149
 24.8585
 24.8587
 25.7968
 25.8721
 25.8366
 25.7968
 25.9474
 25.9244
 25.9118
 25.9434
 25.074
 25.1476
 25.1454
 25.116
 26.5324
 26.5047
 26.5663
 26.5196
 26.6805
 26.6492
 26.6371
 26.6775
 27.5357
 27.5649
 27.59
 27.6037
 25.5609
 25.5251
 25.496
 25.4752
 25.7491
 25.7703
 25.6683
 25.7409
 25.4449
 25.5437
 25.46
 25.4246
 26.1626
 26.0795
 26.0699
 26.174
 24.5364
 24.5314
 24.4969
 24.6099
 24.5207
 24.4251
 24.5211
 24.5345
 25.3774
 25.3553
 25.3054
 25.2982
 28.3947
 28.4148
 28.3792
 28.3168
 25.928
 25.961
 25.9197
 26.0002
 25.9039
 25.9154
 25.9888
 25.9164
 25.935
 25.9157
 25.9995
 25.9912
 25.0137
 25.0384
 24.9589
 25.0446
 27.3953
 27.3175
 27.4305
 27.3984
 27.5211
 27.5452
 27.5718
 27.6248
 24.9255
 24.9705
 24.9309
 24.9993
 26.2715
 26.195
 26.3008
 26.2145
 26.0783
 26.0917
 26.0673
 26.0639
 25.2772
 25.3006
 25.3305
 25.3781
 26.6074
 26.571
 26.5485
 26.5818
 24.9797
 25.0266
 25.0157
 24.9673
 26.1623
 26.2688
 26.2205
 26.3032
 26.2335
 26.2274
 26.2849
 26.2548
 26.7809
 26.8199
 26.7605
 26.8335
 26.0045
 25.9352
 25.9645
 25.9163
 24.8813
 24.852
 24.8594
 24.8988
 25.2591
 25.1965
 25.1708
 25.2282
 26.5928
 26.5981
 26.5453
 26.5558
 26.3877
 26.3145
 26.3148
 26.3857
 24.7135
 24.6864
 24.6413
 24.6736
 25.036
 25.0922
 25.0614
 25.0725
 25.8738
 25.8966
 25.9335
 25.8946
 26.8749
 26.8587
 26.8603
 26.8377
 27.1145
 27.0315
 27.0583
 27.119
 25.357
 25.4297
 25.4558
 25.4016
 26.7227
 26.7827
 26.7225
 26.8403
 24.7701
 24.8475
 24.8413
 24.7771
 25.4833
 25.3977
 25.4441
 25.4915
 25.0177
 25.0406
 25.0665
 25.022
 25.2178
 25.2944
 25.2851
 25.2388
 25.9335
 25.9696
 25.928
 25.8887
 26.4728
 26.581
 26.5589
 26.5071
 27.0159
 26.92
 26.9939
 27.0022
 26.8039
 26.8854
 26.7987
 26.8135
 26.4892
 26.5517
 26.5621
 26.513
 25.8736
 25.85
 25.8436
 25.9577
 25.8809
 25.8214
 25.854
 25.8922
 25.8199
 25.8716
 25.7818
 25.8354
 25.4213
 25.4539
 25.3917
 25.4027
 27.316
 27.391
 27.3328
 27.3364
 25.6561
 25.6366
 25.6647
 25.6007
 26.6069
 26.6693
 26.6391
 26.625
 26.0892
 26.0159
 26.0666
 26.0281
 24.5969
 24.7061
 24.6166
 24.6522
 25.8253
 25.8543
 25.8547
 25.8867
 26.7192
 26.7521
 26.7311
 26.8033
 26.0553
 26.075
 26.024
 25.9918
 26.4528
 26.4151
 26.4188
 26.4762
 25.8978
 25.9764
 25.9042
 25.9687
 27.2385
 27.2938
 27.2716
 27.2108
 26.0962
 26.0863
 26.0467
 26.0391
 25.3464
 25.3648
 25.3152
 25.3692
 25.3914
 25.3843
 25.3622
 25.3794
 24.6561
 24.7765
 24.6839
 24.7274
 26.3225
 26.3297
 26.2672
 26.3117
 26.4913
 26.4487
 26.5044
 26.3875
 24.605
 24.7022
 24.6169
 24.6361
 26.4775
 26.4824
 26.4196
 26.4747
 24.9125
 24.932
 24.8625
 24.9428
 25.6437
 25.5584
 25.6069
 25.5634
 25.8877
 25.9767
 25.8906
 25.8804
 26.5099
 26.443
 26.4508
 26.5105
 25.9071
 25.8993
 25.8196
 25.8948
 24.9017
 24.9152
 24.8898
 24.8844
 27.975
 27.9387
 27.9082
 28.0198
 26.9053
 26.9208
 26.9213
 26.9009
 26.8309
 26.81
 26.8325
 26.8805
 26.2503
 26.2199
 26.2836
 26.1982
 26.0972
 26.1467
 26.1103
 26.139
 26.3458
 26.3911
 26.4056
 26.3477
 24.4767
 24.5055
 24.404
 24.5131
 26.5352
 26.5771
 26.5729
 26.4891
 25.4576
 25.4636
 25.439
 25.5097
 25.8185
 24.9683
 25.0348
 25.0331
 25.0524
 25.5152
 25.4591
 25.4142
 25.4608
 26.9514
 26.9221
 26.9114
 26.9385
 26.1923
 26.2184
 26.1689
 26.1311
 26.3706
 26.4424
 26.4007
 26.4068
 24.8431
 24.9131
 24.8979
 24.8896
 26.0523
 26.1414
 26.0798
 26.0975
 24.7542
 24.7465
 24.8118
 24.8052
 25.2526
 25.216
 25.2779
 25.1987
 26.9438
 26.9034
 26.9258
 26.8485
 26.5223
 26.5863
 26.4769
 26.5266
 25.444
 25.4005
 25.3907
 25.4332
 25.8951
 25.9682
 25.8767
 26.7988
 26.8298
 26.7933
 26.7729
 25.3594
 25.4721
 25.3914
 25.4433
 26.4115
 26.5001
 26.4754
 26.4561
 25.9193
 26.0081
 25.9595
 25.9133
 24.7283
 24.7291
 24.8287
 24.7469
 26.2581
 26.284
 26.3212
 26.2711
 25.0011
 25.0909
 25.0252
 24.9959
 25.7922
 25.8393
 25.7967
 25.8679
 25.0935
 25.1342
 25.1883
 25.1516
 24.8094
 24.8087
 24.732
 24.7691
 26.2037
 26.2138
 26.1625
 26.1667
 27.8884
 27.7969
 27.791
 27.7535
 24.3602
 24.4007
 24.4113
 24.4122
 25.3912
 25.4306
 25.4426
 25.4001
 26.6359
 26.641
 26.5232
 26.6139
 26.0762
 26.0225
 26.018
 26.0783
 27.2053
 27.1857
 27.2079
 27.256
 24.7788
 24.7283
 24.6506
 24.7093
 26.829
 26.8747
 26.8485
 26.8387
 25.5724
 25.5134
 25.5977
 25.554
 26.5599
 26.674
 26.5833
 26.5878
 24.3165
 24.3286
 24.3242
 24.3957
 24.4187
 24.4316
 24.4804
 24.5171
 25.1751
 25.2316
 25.2559
 25.1529
 25.5391
 25.5257
 25.5417
 25.5952
 25.5369
 26.6769
 26.6698
 26.736
 26.6947
 26.5958
 26.6213
 26.6452
 26.5822
 25.3309
 25.2755
 25.2716
 25.2624
 26.7129
 26.6539
 26.6594
 26.7155
 26.4682
 26.4987
 26.5009
 26.4414
 25.2043
 25.1781
 25.1845
 25.2529
 26.1769
 26.0981
 26.174
 26.1035
 25.335
 25.3298
 25.3309
 25.2782
 26.4141
 26.4226
 26.4737
 26.4383
 26.267
 26.2304
 26.2132
 26.2071
 25.9698
 25.9068
 25.99
 25.9305
 25.5722
 25.5013
 25.5362
 25.4701
 25.05
 25.0827
 24.9834
 25.0048
 25.6136
 25.6305
 25.6651
 25.6558
 25.6457
 25.6041
 25.5973
 25.6053
 26.9947
 26.9956
 26.9524
 26.9297
 25.4366
 25.4372
 25.3987
 25.4285
 25.848
 25.8372
 25.7985
 25.8421
 25.7495
 25.7614
 25.8
 25.767
 26.2112
 26.202
 26.2612
 26.2188
 26.7769
 26.7881
 26.7466
 26.8454
 25.1588
 25.1857
 25.1552
 25.1238
 26.7513
 26.7979
 26.7769
 26.7112
 24.5024
 24.5063
 24.4129
 24.4704
 25.0588
 25.1074
 25.0285
 25.0584
 25.0463
 25.0341
 25.0234
 25.0527
 24.8922
 24.9268
 24.9312
 24.8555
 25.2502
 25.2238
 25.2816
 25.226
 27.2229
 27.2601
 27.3252
 25.6722
 25.7584
 25.6859
 25.6919
 25.0858
 25.1205
 25.1369
 25.1004
 26.2174
 26.2854
 26.2504
 26.2328
 26.4479
 26.4172
 26.4749
 26.4122
 25.2435
 25.2302
 25.19
 25.2962
 25.9769
 25.9971
 25.9775
 25.9128
 26.3876
 26.3795
 26.4176
 26.4187
 24.5104
 24.4187
 25.4432
 25.4508
 25.5166
 25.5068
 25.9446
 25.9681
 26.0002
 25.6408
 25.6191
 25.6252
 25.6918
 27.0172
 27.0555
 26.9801
 26.9895
 25.0021
 24.9594
 24.9574
 25.0341
 25.6613
 25.6773
 25.7142
 25.7044
 26.2248
 26.2752
 26.2395
 26.1875
 25.6893
 25.7497
 25.7313
 25.7006
 26.77
 26.8011
 26.7422
 26.765
 26.8986
 26.791
 26.8691
 26.8462
 25.9636
 25.917
 25.8892
 25.9286
 26.6792
 26.6871
 26.6986
 26.6427
 25.8735
 25.9067
 25.8921
 25.9161
 24.9129
 24.9317
 25.0004
 25.0082
 26.6602
 26.6251
 26.5932
 26.6359
 27.5204
 27.4544
 27.4634
 27.4324
 25.4697
 25.5864
 25.5225
 25.4816
 26.0372
 25.9934
 26.0533
 25.9959
 26.7357
 26.7515
 26.6815
 26.6999
 25.9444
 25.9757
 25.9109
 25.9207
 24.8147
 24.8385
 24.8018
 24.8128
 26.5047
 26.5128
 26.547
 26.5203
 25.5642
 25.5892
 25.5886
 25.6184
 26.1111
 26.0311
 26.0799
 25.9949
 25.277
 25.2301
 25.2317
 25.19
 24.9706
 24.9683
 24.937
 24.9977
 26.6273
 26.5773
 26.6114
 26.5185
 26.2725
 26.2243
 26.2374
 26.2533
 25.5496
 25.5561
 25.6394
 25.5817
 26.7652
 26.7407
 26.7488
 26.7273
 27.9246
 28.0023
 27.9941
 27.9559
 25.7071
 25.7574
 25.7694
 25.7645
 28.0819
 28.1011
 28.0485
 28.0019
 27.9528
 27.877
 27.8653
 27.8939
 27.0246
 26.9833
 26.9833
 27.0433
 25.4315
 25.4721
 25.5122
 25.5297
 25.4668
 25.4074
 25.4088
 25.3641
 25.3626
 25.421
 25.3775
 25.4449
 25.4987
 25.5632
 25.5498
 25.4737
 27.2632
 27.3196
 27.2775
 27.3096
 26.6448
 26.6825
 26.608
 26.6319
 26.6287
 26.7299
 26.721
 26.6816
 26.1473
 26.0792
 26.1446
 26.0685
 25.6184
 25.6572
 25.6183
 25.6427
 25.2928
 25.2927
 25.3228
 25.2659
 26.5595
 26.4936
 26.4834
 26.5488
 25.4077
 25.978
 25.9414
 25.9325
 25.9708
 24.4095
 24.3985
 24.3181
 24.367
 26.0348
 26.0369
 25.9881
 26.0324
 24.8224
 24.7505
 24.8043
 26.7103
 26.6636
 26.6463
 26.7249
 27.7914
 27.7314
 27.7369
 27.7043
 25.8867
 25.8952
 25.8274
 25.9296
 26.2178
 26.29
 26.2841
 26.2865
 26.7132
 26.6584
 26.6263
 26.6173
 26.6073
 26.5807
 26.6425
 26.5759
 27.065
 27.1774
 27.1109
 27.1194
 25.5866
 25.5932
 25.5475
 25.4665
 25.922
 25.8614
 25.9309
 25.8902
 26.375
 26.4152
 26.3697
 26.3851
 25.9783
 26.0318
 25.9053
 25.1272
 25.1682
 25.1813
 26.4979
 26.4921
 26.5657
 26.5757
 27.1323
 27.1673
 27.1658
 27.1383
 26.3557
 26.3197
 26.3156
 26.3712
 27.0407
 27.1001
 27.0215
 27.1258
 25.1635
 25.0637
 25.1361
 25.12
 25.1668
 25.1461
 25.1249
 25.0895
 26.7748
 26.8036
 26.7905
 26.8027
 27.1271
 27.2167
 27.1654
 27.1419
 25.7077
 25.7872
 25.723
 25.7591
 24.5831
 24.6366
 24.5427
 24.6209
 27.1105
 27.11
 27.1522
 27.1044
 25.387
 25.4509
 25.4511
 25.3747
 27.5544
 27.5904
 27.5353
 27.5663
 25.2791
 25.2318
 25.2985
 25.1831
 26.1263
 26.1753
 26.0991
 26.1974
 25.1655
 25.1646
 25.095
 25.1063
 26.7068
 26.6862
 26.6673
 26.608
 26.221
 26.2722
 26.2617
 26.2719
 26.4383
 26.4619
 26.4022
 26.399
 26.4275
 26.4611
 26.389
 26.4715
 25.72
 25.6817
 25.6952
 25.7483
 26.0129
 26.0671
 26.0081
 26.0105
 25.0754
 25.1393
 25.1591
 25.1208
 24.4778
 24.4196
 24.55
 24.5631
 26.0484
 26.0552
 26.1016
 26.0602
 24.9201
 24.9408
 24.9709
 24.879
 25.3147
 25.2232
 25.1979
 25.2349
 27.2789
 27.3236
 27.3855
 27.3012
 26.762
 26.6526
 26.671
 26.7075
 26.1319
 26.1785
 26.1954
 26.1642
 27.0682
 27.1219
 27.1339
 27.1631
 25.6479
 25.5784
 25.5892
 25.6233
 25.1599
 25.051
 25.1108
 25.0928
 27.0246
 26.9417
 27.0193
 27.0253
 25.9322
 25.8826
 25.9226
 25.9085
 26.3772
 26.3893
 26.3881
 26.421
 27.8794
 27.833
 27.7968
 27.857
 26.2476
 26.2589
 26.261
 26.2083
 25.9053
 25.8682
 25.8805
 25.8568
 25.3812
 25.3303
 25.3661
 25.3107
 26.472
 26.4554
 26.4468
 25.8908
 25.9008
 25.9165
 25.9055
 26.2872
 26.3297
 26.2088
 26.275
 25.4575
 25.5157
 25.4598
 25.4944
 25.4208
 25.3413
 25.3814
 25.3706
 24.7965
 24.839
 24.8093
 24.8881
 26.5888
 26.6049
 26.5511
 26.6104
 24.5774
 24.5628
 24.5375
 24.5645
 26.4765
 26.4232
 26.4709
 26.5026
 25.928
 25.8619
 25.8698
 25.8354
 25.856
 25.92
 25.8992
 25.936
 28.0074
 28.0716
 28.0044
 28.0325
 26.2812
 26.3206
 26.2762
 26.2639
 25.9318
 25.9552
 25.8903
 25.8213
 25.9679
 25.9523
 25.9379
 26.0215
 24.3645
 24.3707
 24.4391
 24.4031
 26.4845
 26.4177
 26.3792
 26.4649
 26.4032
 26.4419
 26.3715
 26.4565
 25.3197
 25.2465
 25.2995
 25.2755
 26.6373
 26.6538
 26.6906
 26.7015
 26.6988
 26.7135
 26.6745
 26.7232
 25.4504
 25.5299
 25.4566
 25.5118
 25.4563
 25.4477
 25.5043
 25.448
 25.7823
 25.7733
 25.6839
 25.7208
 26.421
 26.452
 25.613
 25.6575
 25.5853
 25.6436
 26.4199
 26.3819
 26.4263
 26.4015
 26.103
 26.0397
 26.0155
 26.033
 24.8013
 24.8427
 24.8673
 24.8003
 26.0217
 26.004
 25.9729
 25.9603
 25.2235
 25.1872
 25.1643
 25.2431
 26.5311
 26.4343
 26.4675
 26.4427
 26.2046
 26.2621
 26.2685
 26.2463
 25.9571
 25.8397
 25.8963
 25.9017
 26.6485
 26.7008
 26.721
 26.6746
 27.4577
 27.4029
 27.4521
 27.4795
 24.6908
 24.7032
 24.7395
 24.7125
 27.0427
 27.039
 27.0138
 27.0664
 25.6033
 25.5815
 25.6444
 25.6431
 27.4465
 27.4264
 27.4257
 27.498
 25.6328
 25.5718
 25.609
 25.6164
 26.4895
 26.4989
 26.5232
 26.5041
 26.4988
 26.4801
 26.5399
 26.5039
 25.7344
 25.7128
 25.7793
 25.7466
 25.0277
 25.0881
 25.0291
 25.1015
 26.218
 26.128
 26.1423
 26.1435
 26.7911
 26.8181
 26.7878
 26.7542
 25.0281
 24.9383
 24.9793
 24.9163
 26.4669
 26.4796
 26.4175
 26.4033
 26.1716
 26.1078
 26.1327
 26.0895
 25.2757
 25.1533
 25.1859
 25.2196
 25.8085
 25.752
 25.7315
 25.7299
 25.9837
 25.9985
 25.9723
 25.9351
 24.7799
 24.7459
 24.7039
 24.681
 25.0508
 25.0191
 25.0314
 25.0593
 25.6977
 25.683
 25.7618
 25.7329
 26.0182
 25.9848
 26.0473
 25.9192
 26.3295
 26.309
 26.3094
 26.2277
 26.8007
 26.8017
 26.8589
 25.1778
 25.1534
 25.1468
 25.1104
 27.4541
 27.4923
 27.5758
 27.5356
 25.3446
 25.4194
 25.3793
 25.4017
 26.5811
 26.6649
 26.6179
 26.6107
 26.7288
 26.7969
 26.7704
 26.7815
 24.8896
 24.9526
 24.92
 24.8388
 25.838
 25.873
 25.8219
 25.8629
 25.9323
 25.9529
 26.4345
 26.0713
 26.0096
 26.0923
 26.0452
 27.4864
 27.4239
 25.4549
 25.4358
 25.4178
 26.858
 26.8379
 26.9119
 26.8656
 25.3897
 25.4576
 25.4355
 25.4296
 26.1449
 26.0886
 26.1047
 26.1157
 26.4408
 26.3507
 26.4036
 26.3921
 24.8677
 24.8678
 24.7921
 24.8424
 26.8771
 26.819
 26.8888
 26.8173
 25.5494
 25.5536
 25.5272
 25.4942
 24.6721
 24.663
 24.7418
 24.7407
 25.8614
 25.9268
 25.8802
 25.9197
 25.499
 25.597
 25.5679
 25.5675
 25.9738
 25.9297
 25.9764
 26.0668
 24.4045
 24.5284
 24.4228
 24.5261
 24.5274
 24.5148
 24.551
 24.6149
 24.6497
 24.6905
 24.7009
 24.6455
 26.0983
 26.1489
 26.0894
 26.0987
 25.6574
 25.7386
 25.7058
 25.6735
 26.002
 26.0068
 26.053
 26.0169
 26.1715
 26.1759
 26.111
 26.193
 25.407
 25.3918
 25.3834
 25.4574
 25.0483
 24.9834
 25.0185
 24.9691
 25.0036
 24.9784
 25.0378
 24.939
 25.7914
 25.7631
 25.8095
 25.764
 25.9917
 25.988
 26.0108
 26.0395
 26.5079
 26.5354
 26.521
 26.4494
 25.2335
 25.1819
 25.1748
 25.2544
 26.9988
 26.9894
 27.062
 27.0071
 25.2134
 25.1816
 25.2117
 25.2161
 25.7638
 25.6668
 25.7545
 25.6867
 25.7801
 25.7789
 25.7637
 25.8409
 26.835
 26.8297
 26.8521
 26.9136
 28.1447
 28.0874
 28.1841
 28.17
 26.2639
 26.2031
 26.2646
 26.2499
 25.1808
 25.2417
 25.203
 25.1759
 26.7077
 26.7718
 26.7218
 26.6873
 25.6439
 25.6065
 25.6858
 25.6139
 25.6025
 25.5585
 25.5008
 25.5189
 25.3041
 25.2717
 25.3614
 25.3376
 27.1612
 27.1805
 27.1952
 27.135
 27.1437
 27.1268
 27.1625
 27.1781
 25.1399
 25.0507
 25.0711
 25.1001
 25.4082
 25.4938
 25.5236
 25.4624
 26.3277
 26.3168
 26.3546
 26.3557
 25.9335
 25.9492
 25.8933
 25.8643
 25.8032
 25.7819
 25.786
 25.8273
 26.3157
 26.3684
 26.2634
 26.3496
 25.5207
 25.5712
 25.5382
 25.5895
 24.1353
 24.2344
 24.1651
 24.1497
 25.6183
 25.5336
 25.5471
 25.509
 25.9404
 25.9175
 25.9576
 25.885
 25.9156
 25.9174
 25.9683
 25.9243
 25.7649
 25.7204
 25.756
 25.8079
 24.5945
 24.5925
 24.6476
 24.6038
 25.0897
 25.1498
 25.1177
 25.5477
 25.5379
 25.5138
 25.5529
 26.8028
 26.8143
 26.7426
 26.8114
 26.1055
 26.1097
 26.1559
 26.0847
 25.0249
 25.1115
 25.1484
 25.1058
 26.506
 26.4757
 26.4689
 26.4391
 26.2429
 26.2821
 26.2859
 26.2235
 26.1475
 26.1842
 26.2478
 26.1801
 25.4157
 25.4653
 25.4811
 25.4655
 25.7452
 25.7933
 25.7418
 25.8452
 25.5437
 25.6462
 25.6086
 25.5893
 26.6632
 26.6255
 26.6226
 26.6489
 26.2031
 26.1651
 26.1512
 26.2094
 25.4631
 25.5054
 25.4499
 25.394
 26.2162
 26.1929
 26.1558
 26.2447
 25.6019
 25.5328
 25.5385
 25.5666
 26.6916
 26.7156
 26.6745
 26.7258
 24.7481
 24.734
 24.8014
 24.7491
 26.5232
 26.5594
 26.4971
 26.4753
 26.5739
 26.6942
 26.621
 26.621
 25.2695
 25.261
 25.2163
 25.2049
 26.5541
 26.5423
 26.5279
 26.5299
 25.5973
 25.6324
 25.6008
 25.6628
 26.8446
 26.8488
 26.9171
 26.908
 25.7572
 25.7878
 25.7759
 25.7183
 24.8242
 24.7208
 24.802
 24.7481
 25.7171
 25.8078
 25.8053
 25.7703
 25.348
 25.3241
 25.3399
 25.3524
 25.6032
 25.6242
 25.5982
 25.5767
 25.6002
 25.5868
 25.5579
 25.5168
 24.6441
 24.6221
 24.5992
 24.7009
 26.6403
 26.6717
 26.7152
 26.7119
 26.5551
 26.5856
 26.6474
 26.5918
 24.9429
 24.9312
 24.9763
 24.8847
 24.8686
 24.8326
 24.8724
 26.3564
 26.3876
 26.3892
 26.3393
 25.6328
 25.5656
 25.6162
 25.6257
 25.6213
 25.604
 25.6649
 25.5956
 26.5859
 26.5294
 26.6169
 26.5694
 25.3105
 25.2693
 25.2824
 25.2652
 25.9783
 26.0414
 26.035
 25.9675
 25.7485
 25.8195
 25.804
 25.8339
 25.2557
 25.2117
 25.1962
 25.2088
 26.8568
 26.8831
 26.852
 26.8187
 26.366
 26.4399
 26.4328
 26.4159
 24.6029
 24.7064
 24.6276
 24.6535
 26.6321
 26.6437
 26.6227
 26.5319
 26.8575
 26.8901
 26.8728
 26.8689
 25.9622
 25.9349
 25.9665
 25.8862
 27.4757
 27.4569
 27.4934
 27.4147
 25.8574
 25.843
 25.8731
 25.8515
 25.2145
 25.2524
 25.269
 25.2782
 25.0206
 25.0595
 25.0438
 26.9048
 26.8965
 26.8857
 26.9077
 26.4904
 26.421
 26.5039
 26.436
 26.5559
 26.5764
 26.5923
 26.6294
 26.4195
 26.4733
 26.4351
 26.4606
 24.5586
 24.5083
 24.4845
 24.5039
 26.7938
 26.7844
 26.8113
 26.8484
 26.4525
 26.5042
 26.462
 26.3992
 25.0845
 25.0566
 25.09
 25.1177
 26.2192
 26.2446
 26.2037
 26.3717
 26.4544
 26.4068
 25.6705
 25.7416
 25.7817
 27.3567
 27.2888
 27.2775
 27.3316
 25.8492
 25.8202
 25.8542
 25.7958
 25.8396
 25.8119
 25.8953
 25.8721
 24.9112
 24.8759
 24.9446
 24.9578
 24.7784
 24.8062
 24.6919
 24.7962
 26.6246
 26.6665
 26.6725
 26.5779
 25.7114
 25.6373
 25.6465
 25.6428
 25.6515
 25.6059
 25.5781
 25.6007
 25.9603
 25.8852
 25.9172
 25.8636
 26.2667
 26.2341
 26.2335
 26.3069
 25.7175
 25.7683
 25.7487
 25.6996
 26.6421
 26.6263
 26.6563
 26.6093
 24.9089
 24.9327
 24.9038
 24.8843
 26.4562
 26.4632
 26.4258
 26.4062
 25.0036
 25.069
 25.0392
 24.9961
 24.7311
 24.7729
 24.8045
 24.7408
 24.8508
 24.8753
 24.8694
 24.8868
 26.5037
 26.5467
 25.3973
 25.4029
 25.4519
 25.4247
 26.5969
 26.5254
 26.5583
 26.5846
 25.2173
 25.1133
 25.1517
 25.1285
 24.9793
 25.051
 24.9612
 25.0388
 26.2863
 26.256
 26.2406
 26.2746
 25.7528
 25.7509
 25.7006
 25.7318
 26.4068
 26.4011
 26.3576
 26.4007
 26.0776
 26.0687
 26.0643
 26.0064
 27.796
 27.6955
 27.8091
 27.7162
 24.8285
 24.8631
 24.7785
 24.8483
 26.3793
 26.4551
 26.3731
 26.3655
 26.8718
 26.9276
 26.9225
 26.8561
 26.0118
 26.0337
 25.9793
 25.947
 26.8239
 26.9221
 26.9225
 26.8381
 26.0943
 26.1619
 26.1726
 26.1284
 25.3742
 25.3971
 25.3222
 25.4157
 25.8921
 25.9319
 25.9342
 25.9083
 24.9136
 24.808
 24.9151
 26.0121
 25.9478
 26.0552
 25.974
 27.8441
 27.8689
 27.8712
 27.9069
 24.4846
 24.4568
 24.4356
 24.4936
 25.8112
 25.8151
 25.7803
 25.8232
 25.257
 25.3012
 25.3502
 25.2884
 26.6653
 26.611
 26.7414
 26.6862
 26.24
 26.1979
 26.3026
 26.2529
 26.2765
 26.187
 26.2258
 26.187
 24.8225
 24.863
 24.8074
 24.7718
 26.1783
 26.2283
 26.2633
 26.2453
 24.5103
 24.5302
 24.4943
 24.5662
 25.3906
 25.4547
 25.4565
 25.3847
 26.6162
 26.6002
 26.5783
 26.6126
 27.4936
 27.4903
 27.4364
 27.5203
 26.0745
 26.1592
 26.1125
 26.1708
 25.872
 25.8766
 25.8228
 25.8916
 25.289
 25.2999
 25.3276
 25.3853
 27.718
 27.7662
 27.6824
 27.7391
 26.0484
 26.0973
 26.0157
 26.0339
 24.6341
 24.6687
 24.6881
 24.6702
 25.1493
 25.0877
 25.1106
 25.1304
 25.0753
 25.098
 25.0349
 25.1148
 25.0757
 25.1319
 25.1436
 25.1196
 25.0943
 25.0164
 25.0673
 25.0705
 25.6317
 25.6084
 25.6349
 25.6348
 26.5702
 26.4486
 26.3865
 26.3736
 26.4155
 25.488
 25.5744
 25.5443
 25.5348
 25.5028
 25.4827
 25.56
 25.5579
 27.1395
 27.1038
 27.101
 27.1381
 24.9795
 24.9835
 25.0158
 24.9877
 25.2381
 25.1915
 25.1311
 25.1712
 26.6542
 26.5567
 26.5764
 26.4762
 26.4774
 26.4936
 26.4437
 26.4023
 26.4147
 26.3767
 26.5249
 26.5934
 26.679
 26.6329
 25.4849
 25.4198
 25.4353
 25.504
 24.6484
 24.6329
 24.6687
 24.6318
 25.8998
 25.9262
 25.8847
 25.9565
 24.7591
 24.863
 24.8858
 24.8978
 26.0394
 26.0578
 26.0785
 26.0131
 25.4509
 25.5093
 25.5431
 25.5329
 26.5408
 26.5502
 26.5681
 26.6087
 25.728
 25.6533
 25.7502
 25.6879
 25.6334
 25.5652
 25.5289
 25.6318
 26.5204
 26.5501
 26.6035
 26.5788
 26.2153
 26.2539
 26.14
 26.1742
 26.0083
 26.0169
 26.0647
 26.1052
 25.6656
 25.6426
 25.6679
 25.6362
 26.9499
 26.9551
 26.9336
 26.8781
 25.4958
 25.5624
 25.5331
 25.4834
 26.2337
 26.3087
 26.2225
 26.1924
 25.4036
 25.4126
 25.4034
 25.443
 24.8679
 24.9277
 24.8819
 24.9046
 24.77
 24.8174
 24.8059
 24.789
 24.7616
 24.7218
 24.8278
 24.5001
 24.4569
 24.4285
 24.3933
 25.0717
 25.1419
 25.2015
 25.1157
 25.8834
 25.896
 25.8533
 25.8629
 24.6901
 24.727
 24.7642
 24.6995
 25.8384
 25.8379
 25.8715
 25.8788
 25.6186
 25.5843
 25.6002
 24.9292
 24.8627
 24.8998
 24.9039
 24.906
 24.9789
 24.948
 25.6994
 25.7082
 25.6656
 25.6527
 26.2671
 26.2317
 26.2736
 26.1946
 25.435
 25.484
 25.5011
 25.509
 24.7934
 24.7489
 24.7851
 24.8111
 26.4205
 26.4486
 26.4299
 26.4844
 25.9421
 25.9626
 26.0021
 26.0192
 25.8507
 25.7583
 25.8406
 25.8484
 25.3343
 25.3986
 25.3608
 25.3617
 26.4873
 26.5358
 26.4547
 26.5216
 26.6968
 26.7543
 26.6911
 26.6837
 25.9274
 25.9288
 25.936
 25.8816
 24.5048
 24.5424
 24.5489
 24.5434
 26.3741
 26.4407
 26.3651
 26.4069
 26.6142
 26.5744
 26.6471
 26.5687
 25.5386
 25.6138
 25.5349
 25.5512
 26.3979
 26.3562
 26.3952
 26.6666
 26.6113
 26.6352
 25.654
 25.7048
 25.6104
 25.681
 26.5945
 26.6303
 26.6641
 26.5953
 26.6491
 26.7185
 26.6538
 26.6649
 25.4916
 25.4783
 25.5051
 26.484
 26.4903
 24.9541
 24.9382
 24.8592
 24.8468
 25.4378
 25.3567
 25.3593
 25.3796
 27.0032
 26.9593
 27.0394
 26.9398
 27.3555
 27.3038
 27.3984
 27.3271
 26.358
 26.472
 26.4091
 26.3939
 24.9009
 24.9032
 24.8643
 24.8909
 25.3936
 25.4391
 25.4633
 25.442
 26.8885
 26.8992
 26.9076
 26.9161
 26.3988
 26.3979
 26.3591
 26.3556
 26.4088
 26.384
 26.3953
 26.5656
 26.5214
 26.5175
 26.5205
 26.5195
 26.5718
 26.5198
 26.4924
 26.6633
 26.7406
 26.6885
 26.7321
 24.7557
 24.6868
 24.7414
 24.7273
 24.7159
 24.6595
 24.759
 25.9342
 25.975
 25.925
 25.9893
 26.4169
 26.4982
 26.4062
 26.4241
 24.4965
 24.4402
 26.6721
 26.7228
 26.7054
 26.7434
 25.7577
 25.6619
 25.7223
 25.6731
 25.5697
 25.5948
 26.607
 26.6091
 26.5541
 26.6022
 24.7167
 24.6668
 24.7406
 24.627
 24.5586
 24.6095
 24.5675
 24.4714
 26.0299
 26.0042
 26.0227
 27.1245
 27.0647
 27.0897
 26.482
 26.401
 26.4887
 26.4738
 25.2275
 25.2862
 25.1858
 25.2719
 26.2472
 26.2812
 26.3101
 26.3378
 26.3378
 26.3706
 26.318
 26.3789
 25.4751
 25.4687
 25.4502
 25.3779
 27.6918
 27.6194
 27.6931
 27.7443
 25.3107
 25.3054
 25.242
 25.2484
 25.2977
 25.3036
 25.254
 25.237
 26.7017
 26.6901
 26.7829
 26.7189
 24.9327
 24.8858
 24.8785
 24.9452
 27.8148
 27.8804
 27.901
 27.945
 24.7597
 24.8689
 24.8703
 24.862
 25.0166
 25.0871
 26.3599
 26.3133
 26.3213
 26.2805
 26.768
 26.838
 26.7984
 26.7467
 24.9757
 24.9145
 24.9181
 24.9483
 26.2796
 26.2688
 26.2723
 26.3077
 24.479
 24.517
 24.4948
 26.4452
 26.5056
 26.5114
 26.8573
 26.781
 26.7589
 24.8033
 24.7595
 24.7847
 24.8114
 26.4348
 26.4784
 26.4825
 26.4668
 24.9467
 24.9398
 26.8807
 26.8295
 26.8794
 26.8584
 25.8847
 25.8172
 25.8259
 25.8598
 26.3992
 26.4166
 26.1542
 26.0447
 26.0478
 26.1098
 26.3184
 26.3227
 26.3169
 26.3871
 24.5504
 24.4952
 24.5916
 24.5686
 26.8125
 26.8474
 26.8337
 25.1245
 27.7516
 27.7957
 27.7839
 27.8066
 24.9439
 24.9144
 24.8903
 24.9935
 26.3404
 26.3337
 26.2345
 26.2623
 25.2693
 25.3094
 25.2956
 25.2754
 26.3192
 26.3675
 26.3942
 26.335
 25.4884
 27.1331
 27.1588
 27.1602
 27.125
 25.4576
 25.4674
 25.4778
 25.5259
 25.0533
 25.0323
 24.9876
 25.1056
 25.102
 25.1754
 25.0991
 24.9214
 24.8381
 24.9054
 24.8837
 26.6824
 26.6653
 26.5928
 26.6327
 24.8636
 24.8611
 24.8741
 24.814
 26.8648
 26.8841
 26.8658
 26.9333
 24.9218
 24.8838
 24.8675
 24.8656
 25.968
 25.9998
 26.0082
 26.021
 25.318
 25.2831
 25.2613
 25.2479
 25.6791
 25.7094
 25.7272
 25.7425
 24.7138
 24.7983
 25.8516
 25.9082
 25.8934
 25.854
 27.0545
 27.0795
 27.002
 27.078
 26.8653
 26.8909
 26.8055
 26.8798
 25.6939
 25.6467
 25.6297
 25.63
 25.2829
 25.2866
 25.2906
 25.2164
 25.1503
 25.2094
 25.1711
 25.1377
 24.8608
 24.9287
 24.9142
 24.9592
 25.1609
 25.0906
 25.131
 25.1657
 26.8166
 26.8401
 26.7934
 26.8773
 26.6011
 26.6027
 26.6174
 26.534
 24.446
 24.5023
 24.5292
 24.52
 25.6484
 25.6068
 25.6333
 25.5406
 26.4983
 26.4165
 26.4829
 26.4563
 27.4901
 27.4961
 27.4275
 27.5523
 24.924
 24.894
 24.9474
 24.8393
 26.4885
 26.4652
 26.4496
 26.4109
 26.107
 26.0586
 26.1385
 26.0969
 26.9394
 26.9518
 26.9426
 26.8918
 25.5413
 25.5777
 25.5515
 25.5502
 24.7992
 24.7935
 24.8211
 24.7994
 25.6183
 25.7091
 25.6739
 25.6883
 26.068
 26.0344
 25.9902
 26.0239
 27.019
 26.9808
 26.9491
 27.0407
 24.7737
 25.38
 25.3381
 25.41
 25.333
 26.0658
 26.0957
 26.1481
 26.1075
 25.2156
 25.1816
 25.1963
 25.1346
 26.471
 26.5488
 26.4997
 26.469
 25.6009
 25.5525
 25.6218
 27.0416
 26.9352
 27.0128
 26.9992
 25.0503
 25.1581
 25.0945
 25.1262
 26.7691
 26.7823
 26.7306
 26.7686
 24.2373
 24.2708
 24.2472
 24.1997
 26.5259
 26.5203
 26.5039
 26.5219
 27.3969
 27.2551
 27.2773
 27.3306
 27.07
 27.0778
 27.0279
 27.0089
 24.4655
 24.5162
 24.5335
 24.5655
 24.7073
 24.7161
 24.6861
 24.6748
 25.9404
 25.8902
 25.9094
 25.8785
 26.4472
 26.4798
 26.4416
 25.7911
 25.7951
 25.8705
 25.8442
 25.4142
 25.4535
 25.3668
 25.3844
 25.7118
 25.603
 25.6398
 25.6562
 25.8375
 25.8255
 25.7241
 25.771
 24.4188
 24.466
 24.4686
 24.4948
 26.633
 26.6556
 26.5653
 26.6318
 27.0264
 27.1118
 27.1157
 25.2571
 25.2924
 25.2962
 25.3371
 25.0219
 24.9642
 24.9928
 25.0065
 26.4971
 26.5044
 26.4851
 26.6035
 26.5908
 26.5563
 26.6467
 24.8517
 24.8875
 24.8179
 24.9134
 25.9522
 25.9679
 25.9059
 25.9474
 26.5734
 26.643
 26.5893
 26.6007
 26.0766
 26.1096
 26.1059
 26.0621
 25.0718
 25.0635
 25.1204
 25.0686
 26.4902
 26.4135
 26.527
 26.4379
 26.018
 26.1168
 26.104
 26.0478
 26.3208
 26.2442
 26.2983
 24.7405
 24.7532
 24.7863
 24.8046
 25.8807
 25.8889
 25.9202
 25.8491
 24.423
 24.4549
 24.3354
 25.8117
 25.7715
 25.7962
 25.8116
 26.9686
 26.9246
 26.9991
 26.9724
 25.6681
 25.6535
 25.6197
 25.569
 25.8673
 25.782
 25.8885
 26.4823
 26.4736
 26.4057
 26.4152
 26.8072
 26.7907
 26.8343
 26.7661
 26.4866
 26.4531
 26.4147
 26.4897
 27.4351
 27.4134
 27.3568
 27.3488
 26.1485
 26.1586
 26.1835
 26.1959
 26.3528
 26.375
 26.2998
 26.3901
 24.7569
 24.8566
 24.8359
 24.7295
 26.7677
 26.6901
 26.7073
 26.7324
 25.5002
 25.5191
 25.4848
 25.4529
 24.4988
 24.4806
 24.5168
 24.5531
 24.4868
 24.5826
 24.538
 24.5231
 25.1293
 25.0943
 25.118
 25.1196
 24.5009
 24.419
 24.4283
 24.542
 24.8093
 24.8088
 24.8158
 24.3998
 24.5036
 24.4777
 24.479
 26.9828
 27.0165
 26.9811
 27.0448
 26.0826
 26.1693
 26.1756
 26.1573
 26.2876
 26.2236
 26.2724
 26.2206
 26.2434
 26.2772
 26.2783
 26.293
 24.728
 24.7672
 24.7104
 24.6985
 26.1601
 26.1547
 26.2188
 26.2202
 26.4732
 26.5393
 26.5477
 26.4959
 25.3054
 25.3216
 25.2635
 25.3486
 26.3979
 26.3501
 26.4039
 26.3374
 25.2493
 25.2962
 25.3267
 25.7745
 25.7121
 25.6958
 24.834
 24.9047
 24.9161
 24.8844
 26.0708
 26.0446
 26.0917
 26.0901
 25.4811
 25.535
 25.5146
 25.4606
 26.262
 26.339
 26.3056
 26.2429
 24.4093
 24.4567
 24.6458
 24.6696
 24.6908
 24.6047
 27.0261
 27.0524
 27.0465
 27.092
 25.4816
 25.4378
 25.4213
 25.381
 26.4747
 26.4212
 26.4901
 26.509
 28.0354
 28.1322
 28.0371
 28.0699
 26.4724
 26.5003
 26.5383
 26.4942
 25.3116
 25.3736
 25.3129
 26.8078
 26.8187
 26.7339
 26.7357
 24.5311
 24.605
 24.5257
 24.5923
 26.4895
 26.4562
 26.4784
 26.4415
 25.5493
 25.4885
 25.5053
 25.5434
 26.8901
 26.8879
 26.9445
 26.8966
 27.646
 27.6021
 27.6152
 27.5766
 26.5702
 26.5168
 26.5686
 26.5898
 26.1398
 26.1654
 26.1175
 25.6955
 25.7992
 25.7049
 25.7467
 26.6775
 26.6745
 26.7306
 25.2018
 25.2313
 25.1837
 25.1467
 25.1398
 25.057
 25.1431
 25.0743
 25.3242
 25.3954
 25.3418
 25.3283
 24.6274
 24.7697
 24.727
 24.7001
 25.1316
 25.1539
 25.0958
 26.3063
 26.2573
 26.2754
 26.2369
 25.2078
 25.2642
 25.4416
 25.4954
 25.5137
 25.4785
 25.3382
 25.3589
 25.3413
 25.3099
 26.5498
 26.5252
 26.5375
 26.5899
 26.5365
 26.4812
 26.5271
 26.4694
 28.0835
 28.0373
 28.0125
 28.0503
 26.5131
 26.462
 26.5134
 26.2596
 26.2825
 26.2983
 26.274
 25.8071
 25.8077
 25.8413
 25.8534
 26.2825
 26.2244
 26.2131
 26.2574
 26.9726
 26.9355
 26.9824
 26.9806
 25.0336
 25.1286
 25.0621
 25.0961
 25.982
 25.9389
 25.9773
 26.0186
 24.8528
 24.8564
 24.8733
 24.8235
 25.7137
 25.7586
 25.7127
 25.7492
 24.6653
 24.6212
 24.6586
 27.5645
 27.5065
 27.5165
 27.5219
 25.3461
 25.2518
 25.3234
 25.3131
 25.9832
 26.0345
 25.972
 25.9989
 26.6219
 26.6542
 26.2507
 26.2345
 26.202
 26.217
 26.0661
 26.1336
 26.1225
 24.8162
 24.7939
 24.8554
 24.814
 24.7288
 24.7658
 24.8135
 24.799
 26.6487
 26.6678
 26.6315
 26.6552
 25.9875
 26.0028
 26.4105
 26.3506
 26.3894
 26.4399
 25.163
 25.2206
 25.1191
 25.1122
 26.9306
 26.8967
 26.9383
 26.8771
 26.5758
 26.5627
 26.617
 26.6245
 26.4261
 26.3605
 26.332
 26.3648
 25.775
 25.7829
 25.7941
 25.6996
 25.2897
 25.2921
 25.3307
 25.342
 25.1674
 25.1924
 25.2428
 25.192
 27.8554
 27.8627
 27.8986
 27.9217
 26.8049
 26.7452
 26.7107
 25.6535
 25.7614
 25.6972
 25.6144
 25.5703
 25.6309
 25.5426
 24.787
 24.7378
 24.7747
 24.7159
 25.8995
 26.4744
 26.4712
 26.5302
 26.5199
 25.4449
 25.4756
 25.5262
 25.505
 25.0736
 25.1455
 25.1438
 25.0657
 25.0833
 25.0812
 26.6694
 26.7045
 26.7278
 26.7344
 25.791
 25.734
 25.7506
 25.7341
 26.8601
 26.89
 26.8725
 26.8383
 25.577
 26.1983
 26.2301
 26.1317
 26.11
 26.2863
 26.2448
 26.2203
 26.2606
 24.7887
 24.8575
 24.6747
 24.629
 24.5908
 24.6446
 27.1915
 27.2524
 27.2103
 27.1918
 25.1482
 25.1428
 25.2215
 25.1244
 25.6407
 25.7035
 25.6617
 25.5975
 27.7516
 27.7251
 27.7333
 27.7817
 25.8307
 25.8331
 25.8005
 25.8604
 25.896
 25.9634
 26.0009
 26.0007
 26.6584
 26.7164
 26.62
 26.6527
 24.4903
 24.4188
 24.4121
 24.3925
 25.9405
 26.0042
 26.0055
 26.32
 26.2596
 26.2528
 26.3135
 24.6372
 24.5543
 24.6167
 24.6055
 26.3619
 26.4043
 26.4497
 26.3658
 26.0039
 25.963
 25.0312
 25.041
 24.9894
 25.09
 25.6883
 25.6743
 25.606
 25.6035
 24.6393
 24.6735
 24.5846
 24.6375
 25.9865
 25.8921
 26.5739
 26.5555
 26.5386
 26.538
 26.3681
 26.3574
 26.315
 26.2982
 24.9787
 24.963
 25.0385
 25.0111
 25.1605
 25.1975
 25.1317
 25.1419
 25.1862
 25.2528
 25.1929
 25.1901
 26.3687
 26.2954
 26.3253
 26.3612
 27.2783
 27.3298
 27.3131
 27.2904
 24.4955
 24.4206
 24.4838
 24.4491
 26.6441
 26.6445
 26.6345
 26.6062
 25.7393
 25.6779
 25.6808
 25.7145
 26.2558
 26.1643
 26.228
 26.1949
 25.74
 25.8147
 25.7387
 25.4903
 25.4211
 25.4851
 25.3952
 25.895
 25.8541
 25.8805
 25.9314
 25.3086
 25.2818
 25.2429
 25.3241
 25.29
 25.315
 25.2894
 25.3842
 27.7
 27.6135
 27.6959
 26.8596
 26.8014
 26.756
 26.7807
 25.6867
 25.7273
 25.7098
 25.7167
 25.0538
 24.9827
 25.0214
 24.9833
 26.4453
 26.5298
 26.4476
 26.412
 26.3687
 26.3636
 25.5981
 25.6352
 25.5967
 25.5923
 25.7559
 25.6911
 25.6814
 25.6712
 24.1215
 24.1452
 24.1862
 24.0993
 27.0397
 27.0015
 27.0528
 27.121
 25.237
 25.2344
 26.1451
 26.0926
 26.0814
 26.1448
 25.353
 25.3287
 25.3309
 25.3132
 25.6115
 25.6043
 25.5651
 25.5791
 26.0998
 26.0944
 26.0412
 26.1358
 25.4582
 25.4024
 25.4125
 25.4072
 26.6419
 26.6154
 26.6232
 26.5758
 26.8414
 26.91
 26.8312
 26.8689
 25.0179
 24.9904
 24.9525
 24.8619
 25.743
 25.7149
 25.6684
 27.3112
 27.3516
 27.2911
 24.9155
 24.8882
 24.8749
 24.849
 24.8824
 24.9079
 24.9305
 24.9327
 25.8915
 25.8812
 25.8767
 25.8291
 24.7824
 24.7417
 24.7581
 24.7503
 24.5859
 24.4933
 24.5776
 24.4926
 26.0608
 26.0352
 25.9853
 26.0504
 25.042
 25.0096
 24.9902
 24.9951
 24.1648
 24.1355
 24.2128
 24.1224
 25.2032
 25.1902
 25.2301
 25.138
 25.6785
 25.7703
 25.7292
 25.7881
 24.9894
 24.9496
 24.9993
 25.014
 25.3568
 25.3695
 25.3332
 25.5265
 25.4754
 27.0841
 27.0881
 27.0967
 27.1251
 25.5295
 25.473
 25.4809
 25.501
 27.2676
 27.255
 27.2427
 27.2428
 27.1735
 27.1767
 27.124
 27.0838
 25.6138
 25.5904
 25.5807
 25.6374
 26.1722
 26.1728
 26.2224
 26.1455
 25.4142
 25.3535
 25.3674
 25.3768
 25.8487
 25.8891
 26.9096
 26.9431
 26.9279
 26.8757
 24.5554
 24.5309
 24.5
 24.5588
 26.1583
 26.215
 26.1187
 26.1554
 24.8902
 24.909
 24.961
 24.9235
 26.8845
 26.9455
 26.8908
 26.9041
 24.8412
 24.7425
 24.7742
 24.7573
 25.5241
 25.6022
 25.5417
 25.5516
 26.4267
 26.4845
 26.5241
 26.494
 24.2949
 24.3324
 24.3227
 24.3776
 26.3164
 26.2466
 26.2995
 26.3162
 26.039
 26.1404
 26.0777
 26.099
 24.5599
 24.5478
 24.6075
 24.5448
 25.8872
 25.9777
 25.959
 25.9621
 25.0125
 24.9614
 24.987
 25.0186
 24.9977
 25.0396
 25.0214
 26.0399
 26.1515
 26.0967
 26.1255
 25.0532
 24.9897
 25.0278
 25.011
 26.715
 26.6486
 26.6527
 26.7255
 24.9135
 24.8719
 24.8758
 24.9086
 24.9365
 24.9584
 24.9186
 24.9495
 26.5658
 26.5788
 26.4595
 26.5209
 26.5218
 26.5463
 26.4864
 26.5736
 28.3195
 28.299
 28.3731
 28.3588
 25.1114
 25.1857
 25.1722
 27.13
 27.0395
 27.0479
 27.0742
 24.6926
 24.7397
 24.73
 24.7134
 26.5912
 24.9449
 25.0045
 24.9764
 24.9292
 24.9455
 24.9843
 25.0009
 27.8096
 27.9
 27.8822
 27.8444
 27.8773
 27.903
 27.9016
 27.9287
 24.6713
 24.7227
 24.6716
 24.6339
 26.5186
 26.5457
 26.4878
 26.558
 25.3713
 25.4044
 25.333
 26.2495
 26.2996
 26.253
 26.3347
 26.0256
 26.0199
 26.0482
 24.9133
 24.9457
 24.8476
 25.6495
 25.6054
 25.5918
 25.6329
 26.2437
 26.3035
 26.3115
 26.2623
 26.5864
 26.566
 26.5983
 26.5716
 25.3997
 25.3646
 25.3567
 26.9276
 26.8933
 26.9786
 26.984
 26.5554
 26.4252
 26.4951
 26.0848
 25.99
 25.9993
 26.0565
 26.5716
 26.5097
 26.5208
 26.5427
 26.5635
 26.4837
 26.4696
 26.4896
 24.8719
 24.9107
 24.9072
 24.9147
 26.0028
 26.0571
 26.007
 25.9834
 26.3103
 26.3408
 25.6664
 25.7128
 25.6789
 25.7407
 24.67
 24.7832
 24.7538
 24.7739
 24.7859
 28.3986
 28.4291
 28.448
 28.4025
 25.091
 25.0275
 25.0621
 24.4988
 24.5287
 24.5458
 24.5144
 25.2267
 25.312
 25.3026
 25.3075
 26.599
 26.575
 26.5412
 26.6035
 26.029
 26.0703
 26.1019
 26.0665
 24.4482
 24.4611
 24.4844
 24.4909
 25.1021
 25.1458
 25.1878
 25.1417
 26.9433
 26.9824
 26.9883
 26.9112
 26.1099
 26.0887
 26.0798
 26.1694
 26.1993
 26.1705
 26.1345
 26.1816
 28.4324
 28.4522
 28.4469
 28.429
 26.7239
 26.7325
 26.7533
 26.6901
 25.1333
 25.0608
 25.143
 25.1014
 25.5866
 25.5917
 25.5379
 25.608
 25.9269
 25.8783
 25.8303
 25.9247
 25.3161
 25.2572
 25.2802
 25.2793
 25.5159
 25.5274
 25.4661
 25.5308
 25.247
 25.2438
 25.2896
 25.1808
 24.2723
 24.38
 24.3439
 24.2419
 25.0616
 25.0874
 25.1025
 25.1886
 25.2851
 25.3166
 25.3682
 25.3089
 25.3888
 25.7197
 25.7196
 25.7607
 25.6661
 24.7083
 24.7369
 24.7469
 24.7435
 25.9873
 26.0198
 25.9633
 25.9843
 25.6335
 25.611
 25.5797
 25.6667
 25.8075
 25.8711
 25.83
 25.7807
 26.2181
 26.3047
 26.2386
 26.2989
 27.4745
 27.4455
 27.3817
 27.4997
 24.1851
 24.2842
 25.4694
 25.5014
 25.5082
 28.0948
 28.1006
 28.1149
 26.4244
 26.4663
 26.4393
 26.4911
 27.1335
 27.1368
 27.2251
 27.2211
 26.7283
 26.7587
 26.7106
 26.7882
 24.6144
 24.6982
 24.6645
 24.6512
 25.7479
 25.8215
 25.7878
 25.834
 25.3414
 25.2771
 25.2737
 25.2182
 25.5237
 25.5597
 25.5845
 25.6491
 25.2943
 25.2589
 25.3159
 25.2936
 25.9195
 25.9169
 24.9774
 25.1022
 24.9911
 25.0947
 25.1973
 25.2357
 25.2659
 25.1443
 26.446
 26.5227
 26.4357
 26.5128
 26.5134
 26.4985
 26.5001
 26.4883
 25.6871
 25.6743
 25.7004
 25.6625
 25.6826
 25.6392
 25.6025
 25.5591
 26.7367
 26.8232
 26.8396
 26.7239
 25.2311
 25.2855
 25.3079
 25.3108
 24.3168
 24.3516
 24.3141
 24.349
 24.9328
 24.9661
 24.9671
 24.9952
 24.2642
 24.2285
 24.2981
 24.2096
 24.8766
 24.8076
 24.825
 24.8214
 25.7783
 25.6968
 25.7619
 25.7414
 25.3502
 25.387
 25.8888
 25.8168
 25.9079
 25.8694
 26.4877
 26.4309
 26.4394
 26.4182
 25.132
 25.0405
 25.0394
 25.0951
 25.9087
 25.9233
 25.9056
 25.9737
 26.0366
 26.0852
 26.1012
 26.0727
 26.5782
 26.5746
 26.5444
 26.4958
 26.3649
 26.3494
 26.3958
 26.2991
 26.5576
 26.5071
 26.5126
 26.5369
 27.4592
 27.4541
 27.5075
 27.4807
 25.1811
 25.1568
 25.2173
 25.1661
 25.4058
 25.394
 27.2597
 27.271
 27.2733
 27.331
 26.27
 26.2454
 25.4421
 25.4905
 25.434
 25.0122
 24.9903
 26.7127
 26.7169
 26.753
 26.673
 27.3478
 27.3215
 27.316
 27.2987
 26.7905
 26.7617
 26.7239
 26.7103
 26.2888
 26.2204
 26.2102
 26.2083
 25.5618
 25.6292
 25.6338
 25.6269
 25.291
 25.3166
 25.3265
 25.3345
 26.2966
 26.2493
 26.2361
 26.2499
 25.6834
 25.6816
 25.6571
 25.7459
 25.7364
 25.7769
 25.7926
 25.7594
 25.7376
 25.692
 25.6658
 25.685
 25.6415
 25.7372
 25.6454
 25.8989
 25.9445
 25.8554
 25.8913
 26.1574
 26.1304
 26.2221
 26.1546
 26.5342
 26.4809
 26.5693
 26.4818
 24.6735
 24.6932
 24.655
 24.6171
 26.0148
 26.0136
 25.9405
 25.9527
 26.8295
 26.8259
 26.9368
 26.853
 26.9667
 26.9405
 26.9752
 26.9875
 26.8087
 26.862
 26.8567
 26.8312
 26.5425
 26.5463
 26.4788
 26.4648
 26.5917
 26.6292
 26.6459
 26.6165
 24.8693
 24.8324
 24.8247
 24.8053
 26.0055
 26.0061
 26.0181
 25.9588
 25.239
 25.1745
 25.2238
 25.2587
 26.5384
 26.4726
 26.5529
 26.5001
 24.616
 24.593
 24.5991
 24.5695
 24.5455
 24.5603
 24.4809
 25.2245
 25.3429
 25.3086
 25.3009
 26.4298
 26.397
 26.4629
 26.4121
 24.3695
 24.4627
 24.4446
 26.119
 26.1724
 26.119
 26.204
 24.8928
 24.8817
 25.0093
 24.9905
 24.9389
 25.0136
 26.1974
 26.2318
 26.207
 26.7977
 26.7733
 26.8421
 26.8225
 26.54
 26.5593
 26.4924
 26.4985
 25.8164
 25.747
 25.8401
 24.5482
 24.6545
 24.6437
 25.2484
 25.3249
 25.3411
 25.2999
 24.5447
 24.5677
 24.6427
 24.4926
 26.0758
 26.0119
 25.9812
 26.0202
 24.7735
 24.7635
 24.7352
 24.8187
 25.731
 25.7181
 25.7586
 25.7954
 26.3706
 26.4419
 26.407
 24.432
 24.4891
 24.4588
 24.3733
 25.4297
 25.625
 25.553
 25.5849
 25.6149
 25.4719
 25.4611
 25.5109
 26.3897
 26.4336
 26.4218
 26.4243
 26.4271
 26.3454
 26.0819
 26.1438
 26.1375
 26.1409
 26.0145
 25.9409
 25.9928
 25.9492
 25.2823
 24.3575
 24.4579
 24.4672
 24.4003
 27.6118
 27.6895
 27.6709
 27.677
 26.3161
 26.345
 26.4388
 26.4608
 26.4227
 26.4057
 26.4387
 26.436
 26.5171
 26.4908
 25.202
 25.2787
 25.2749
 25.2332
 25.1506
 25.1327
 25.2069
 25.1374
 26.2855
 26.348
 25.3337
 25.314
 25.2377
 25.2867
 25.3287
 25.2615
 25.3225
 25.6113
 25.6613
 25.6943
 25.7123
 25.9634
 26.0177
 25.9638
 26.0237
 25.2066
 25.1171
 25.1312
 25.2001
 25.0107
 25.0099
 24.954
 25.029
 25.0673
 25.0054
 25.0468
 25.1845
 25.1739
 25.1681
 25.2185
 26.0674
 26.0513
 26.0404
 26.0907
 27.1099
 27.1401
 27.0898
 27.0821
 26.2015
 26.2086
 26.2388
 26.2232
 24.9957
 25.0568
 25.0982
 25.0448
 25.3763
 25.4163
 25.4173
 25.3684
 26.2179
 26.1851
 26.1607
 26.1573
 25.3996
 25.4613
 25.4147
 25.4024
 25.6934
 25.6716
 25.7541
 25.6644
 25.6974
 25.6385
 25.6624
 25.6366
 25.4123
 25.3627
 25.3719
 24.807
 24.787
 24.8278
 24.8156
 26.226
 26.1652
 26.1924
 26.1891
 25.91
 25.8521
 25.8573
 25.8693
 27.0324
 27.0634
 27.0449
 26.9923
 26.6017
 26.566
 26.5614
 26.6033
 26.5391
 26.6344
 26.5844
 26.6423
 26.6122
 26.5808
 26.5905
 26.5602
 25.7091
 25.7411
 25.7288
 26.8751
 26.8897
 26.85
 26.8367
 26.6861
 26.663
 26.6255
 26.6936
 24.402
 24.478
 24.4801
 24.423
 25.6562
 25.6877
 25.7251
 25.7498
 25.0261
 25.0274
 25.0693
 25.0772
 25.5744
 25.5465
 25.589
 25.6243
 25.4232
 25.3798
 25.4298
 25.4184
 26.3977
 26.4485
 26.4258
 26.4972
 25.8424
 25.7269
 25.8191
 25.801
 24.9506
 24.9037
 24.9425
 24.9209
 25.5316
 25.5557
 25.4697
 25.4825
 26.6473
 26.6892
 26.6246
 26.5894
 24.7741
 24.7508
 24.7729
 24.7395
 26.128
 26.1805
 26.732
 25.8252
 25.7976
 25.752
 25.8375
 25.9806
 25.9192
 25.9872
 26.0016
 27.3476
 27.3571
 27.2945
 26.2156
 26.2766
 26.29
 26.327
 25.5469
 25.4508
 25.4942
 25.434
 25.7321
 25.6948
 25.7154
 25.7403
 24.782
 24.7501
 24.7443
 24.7647
 26.5494
 26.4509
 26.5219
 26.4304
 26.4344
 26.4464
 26.373
 27.1863
 27.2816
 27.2187
 27.2033
 26.5886
 26.5107
 26.5696
 25.5524
 25.4383
 25.5337
 26.622
 26.6319
 26.6856
 26.6568
 25.9609
 25.9019
 25.8931
 25.8896
 28.4236
 28.432
 28.4147
 28.3451
 26.0491
 26.0677
 26.069
 26.8678
 26.8842
 26.8687
 26.8682
 26.0911
 26.1168
 26.1726
 26.1257
 26.7012
 26.6493
 26.6541
 26.6174
 25.2483
 25.2208
 25.257
 25.2058
 25.1134
 25.1695
 25.1293
 25.0957
 24.5572
 24.5548
 24.5186
 24.6057
 25.6499
 25.7264
 25.6662
 25.6475
 26.6917
 26.7646
 26.6998
 26.7417
 26.3617
 26.3867
 27.1213
 27.1184
 27.0916
 27.0959
 25.9647
 25.94
 26.2146
 26.1159
 26.1397
 26.4821
 26.4448
 26.4181
 26.4489
 24.6122
 24.5773
 24.6769
 24.6642
 24.7291
 24.7415
 24.7678
 24.7414
 26.4279
 26.4123
 26.4566
 26.4965
 26.9
 26.8779
 25.5607
 25.5356
 25.5513
 25.4966
 26.5197
 26.5396
 26.4894
 26.4886
 26.142
 26.2239
 26.0987
 24.1836
 24.1592
 24.233
 25.7731
 25.6947
 25.7205
 25.722
 24.8456
 24.7781
 24.8631
 24.8943
 25.6692
 25.6185
 25.6041
 25.6788
 25.2315
 25.1843
 25.1798
 25.261
 26.7175
 26.6571
 26.7054
 26.7382
 26.4736
 26.3854
 26.4986
 26.4141
 25.6566
 25.7164
 25.5978
 25.6755
 26.1985
 26.1319
 26.1167
 26.2028
 26.7044
 26.6896
 26.6584
 26.6161
 25.9548
 25.9329
 25.8894
 25.8586
 25.3321
 25.3254
 25.3674
 25.711
 25.6492
 25.6902
 25.658
 28.0081
 27.9467
 27.8873
 27.929
 26.8898
 26.8974
 26.8763
 26.8867
 26.2375
 26.2356
 26.2487
 26.1833
 27.375
 27.3089
 27.3852
 27.3548
 24.7978
 24.7938
 24.8515
 24.4741
 24.5302
 24.5902
 24.5393
 25.1069
 25.0032
 25.0455
 25.0416
 25.7397
 25.387
 25.3016
 25.2843
 25.3398
 25.8395
 25.793
 25.8702
 25.8772
 26.7272
 26.7744
 26.7519
 26.4234
 26.4059
 26.3825
 26.4745
 28.0176
 28.0874
 28.0226
 28.1067
 27.2633
 27.2606
 27.2458
 27.225
 26.269
 26.2702
 26.2319
 26.1971
 24.4027
 24.5013
 24.4654
 24.4803
 27.8254
 27.7909
 27.7356
 27.739
 25.2771
 25.2151
 25.3126
 25.2453
 25.7728
 25.7616
 25.7093
 25.7612
 26.4055
 26.5179
 26.5062
 25.8687
 25.9414
 25.944
 25.9399
 24.5255
 24.4905
 24.4771
 26.6954
 26.598
 26.5861
 26.0928
 26.0777
 26.009
 26.0222
 26.2602
 26.2779
 26.2969
 26.3108
 26.2178
 26.2286
 26.1637
 26.1506
 26.7968
 26.8415
 26.8238
 26.7602
 25.9139
 25.8702
 25.9337
 25.8734
 24.5648
 24.6568
 24.6569
 24.7015
 24.8232
 24.8304
 24.8309
 24.7861
 26.9655
 26.9425
 26.9503
 26.9551
 24.8765
 24.845
 24.847
 24.9247
 24.674
 24.5846
 24.6072
 24.6872
 24.8427
 24.8551
 24.9259
 24.9202
 25.4644
 25.4681
 25.4207
 25.4447
 25.8201
 25.8648
 25.8042
 26.2648
 26.3564
 26.3365
 26.307
 25.1048
 25.1464
 25.1762
 25.0912
 25.1465
 25.1094
 25.0822
 25.0995
 24.1679
 24.1739
 24.282
 24.221
 27.3425
 27.2961
 27.3068
 27.294
 27.0889
 27.126
 27.1098
 27.0632
 26.8011
 26.8253
 26.7489
 26.8292
 26.174
 26.2672
 26.2053
 26.2149
 26.1935
 26.1879
 26.1899
 24.6445
 24.6046
 24.5413
 24.5789
 25.0852
 25.1156
 25.1519
 25.1414
 25.9229
 25.9666
 25.9866
 25.9536
 24.7861
 24.7479
 25.5952
 25.597
 25.6017
 25.6538
 24.8566
 24.8285
 24.7424
 24.8041
 25.6921
 25.6185
 25.7079
 25.6109
 26.2746
 26.2424
 26.336
 26.3179
 27.0286
 27.0668
 27.0369
 26.9755
 28.094
 28.0091
 28.1096
 28.0618
 24.9051
 24.9286
 24.9342
 24.8939
 24.6263
 24.6147
 24.6126
 24.5689
 26.073
 26.1478
 26.1065
 26.1502
 25.7892
 25.821
 25.8313
 25.7902
 26.5108
 26.5756
 26.4663
 25.4367
 25.4862
 25.4746
 25.5017
 26.5408
 26.5524
 26.5089
 26.5126
 25.9007
 25.9549
 26.0027
 25.9639
 25.427
 25.4577
 25.4466
 25.4159
 25.717
 25.736
 25.7719
 24.8077
 24.8667
 24.8513
 24.8536
 25.4617
 25.3868
 27.3735
 27.2566
 27.3632
 27.3225
 25.201
 25.2497
 25.2249
 26.4269
 26.4001
 26.4109
 26.4135
 25.5587
 25.5751
 25.5923
 25.7935
 25.8605
 25.795
 25.8272
 25.5036
 25.5698
 25.4648
 25.5298
 25.4381
 25.372
 27.774
 27.7752
 27.8349
 27.7634
 27.9029
 27.9927
 28.0117
 27.9402
 25.7777
 25.846
 25.8171
 25.8494
 25.5787
 25.6175
 25.5744
 25.6111
 27.7221
 27.7347
 27.6975
 27.6618
 26.4192
 26.4919
 26.8328
 26.8238
 26.7851
 26.7327
 25.4116
 25.4418
 25.3568
 25.399
 25.591
 25.564
 25.5133
 25.6133
 25.4588
 25.5313
 25.5485
 25.528
 26.2813
 26.279
 26.2215
 26.2823
 26.6731
 26.6642
 26.7413
 26.6596
 27.0782
 27.0155
 27.012
 27.0668
 26.6604
 26.6725
 26.6691
 26.5655
 25.1452
 25.2074
 25.1473
 25.1912
 25.7747
 25.9204
 25.85
 27.376
 27.3236
 27.2889
 25.3398
 25.2415
 25.2984
 25.3033
 25.2653
 25.3848
 25.3194
 25.3034
 25.9995
 26.0401
 26.0652
 25.9868
 25.9712
 25.9099
 25.9579
 26.6779
 26.7226
 26.7376
 26.7375
 25.0334
 25.0539
 25.0035
 25.0349
 26.8598
 26.8805
 26.8732
 26.8411
 26.877
 26.9211
 26.8858
 24.42
 24.3364
 24.2935
 24.3626
 24.8769
 24.836
 26.3787
 26.4028
 26.3457
 26.37
 25.831
 25.764
 25.8382
 25.9257
 25.9608
 25.9441
 25.997
 26.6914
 26.6437
 26.6575
 25.0801
 25.0417
 25.119
 25.0952
 26.7129
 26.6268
 26.6846
 26.6971
 25.2598
 25.3218
 25.3365
 25.2964
 26.8268
 26.7862
 26.637
 26.716
 26.6616
 26.6911
 26.4521
 26.4867
 26.4718
 26.4438
 27.2678
 27.2803
 27.3452
 27.3161
 25.1704
 25.0965
 26.2453
 26.2079
 26.2018
 26.2063
 24.5105
 24.5401
 24.5186
 24.4982
 26.279
 26.3041
 26.2187
 26.1796
 25.0476
 24.9848
 24.9645
 24.9569
 24.7171
 24.6492
 24.7628
 24.6613
 25.2659
 25.3295
 24.7606
 24.7068
 24.7285
 24.7389
 26.6735
 26.6813
 26.6802
 26.6239
 24.7925
 24.7649
 24.7539
 24.7985
 24.4503
 24.3583
 24.3624
 24.4303
 25.5148
 25.5086
 25.4555
 25.4704
 25.8996
 25.9208
 25.8504
 25.8228
 24.7605
 24.8452
 24.7968
 24.7552
 27.3158
 27.2222
 27.259
 27.3361
 24.7914
 24.6983
 26.2525
 26.2086
 26.2077
 26.149
 24.8806
 24.8943
 24.9698
 24.9617
 26.6682
 26.6065
 26.6182
 26.621
 26.0905
 26.1848
 26.1554
 26.1019
 26.5324
 26.5587
 26.4767
 26.6848
 26.7277
 26.6943
 26.7585
 26.8299
 26.7666
 26.7863
 26.7532
 25.5589
 25.5969
 25.6144
 24.9416
 24.9328
 24.8787
 24.8941
 25.7265
 25.7602
 25.7685
 26.6935
 26.7402
 26.7164
 25.7831
 25.6873
 25.7674
 25.7162
 25.4937
 25.5114
 25.4846
 25.4155
 25.9529
 25.8802
 25.8718
 25.9003
 26.0719
 26.1039
 26.118
 26.1652
 26.1943
 26.1931
 26.0913
 26.0676
 26.0253
 26.1251
 24.8789
 24.9365
 24.8927
 24.9397
 25.2537
 25.2977
 25.2653
 25.2347
 25.9887
 25.946
 25.9731
 25.8822
 26.6687
 26.7132
 26.6896
 25.7059
 25.743
 25.703
 25.6993
 26.337
 26.4208
 26.392
 26.4286
 27.5763
 27.5719
 27.6041
 27.6277
 26.1642
 26.197
 26.1826
 26.1867
 24.8335
 24.8418
 24.7868
 24.8055
 26.1697
 26.0899
 26.1306
 26.1679
 26.7852
 26.7878
 26.762
 26.7325
 26.6908
 26.722
 26.7101
 25.8996
 25.8864
 25.8938
 25.4685
 26.23
 26.3211
 26.258
 26.2612
 24.7476
 24.76
 24.72
 24.8685
 24.855
 24.8214
 26.1827
 26.1152
 26.1588
 26.1204
 24.3712
 24.346
 24.3278
 24.32
 26.6753
 25.6389
 25.6952
 25.6552
 25.6687
 26.6305
 26.6078
 26.6133
 26.5924
 24.7438
 24.7184
 24.8141
 24.7472
 25.3383
 25.2405
 25.2857
 25.3162
 25.115
 25.0792
 25.1478
 25.1391
 26.838
 26.8119
 26.7775
 26.8322
 26.3351
 26.2811
 26.3407
 26.3393
 25.7478
 25.7824
 25.7176
 25.7792
 26.2316
 26.3006
 26.1951
 26.2735
 25.3963
 25.3769
 25.3187
 25.3332
 26.6271
 26.6675
 26.5991
 26.5938
 26.3616
 26.3175
 26.2684
 26.3067
 25.5623
 25.5561
 25.5682
 25.4899
 24.6572
 24.5719
 24.623
 24.5829
 26.7715
 26.778
 26.6986
 26.7468
 27.2031
 27.275
 27.1976
 27.2028
 24.7148
 24.6709
 24.6914
 24.6563
 27.1975
 27.2561
 27.0727
 27.0995
 27.0938
 27.0306
 25.8158
 25.7783
 25.8334
 25.8762
 26.3248
 26.2902
 26.2906
 26.3556
 24.2115
 24.178
 24.1856
 24.2411
 24.7768
 24.7822
 24.7021
 25.3357
 25.34
 25.2931
 25.3668
 26.7428
 26.7208
 26.7848
 26.703
 26.3735
 26.3832
 26.4062
 26.4323
 26.3951
 26.3513
 25.3542
 25.2611
 25.2896
 25.3248
 25.4256
 25.4213
 25.4766
 25.4117
 25.2514
 25.2505
 25.3207
 25.2522
 24.4733
 24.458
 24.5769
 24.4381
 25.1345
 25.1263
 25.1907
 26.1204
 25.6999
 25.7061
 25.6829
 25.7342
 25.6689
 25.7355
 25.7207
 25.7201
 24.9903
 25.0329
 25.0326
 25.0677
 25.1556
 25.1885
 25.191
 25.1271
 25.5806
 25.6362
 25.6297
 26.2567
 26.2733
 26.2208
 26.3343
 25.7099
 25.606
 25.6744
 25.6483
 26.1803
 26.1445
 26.2118
 27.7438
 27.7407
 27.781
 27.7035
 24.9516
 24.8634
 24.8951
 24.881
 24.9631
 24.86
 24.9163
 27.7626
 25.6597
 25.6419
 25.6655
 25.5884
 25.6035
 25.5853
 27.1195
 27.1069
 27.1126
 27.0801
 26.7863
 26.7645
 26.709
 26.7908
 26.4722
 26.433
 26.4184
 26.4817
 26.5479
 26.5185
 26.4844
 26.5525
 26.56
 26.5065
 26.0911
 26.126
 26.1415
 26.1637
 26.0678
 26.0116
 24.1108
 24.1134
 26.6891
 26.5764
 26.6785
 26.6147
 25.9394
 25.9542
 25.9278
 25.9932
 26.7817
 26.7734
 26.8854
 26.8307
 24.8882
 24.8531
 24.9612
 24.9199
 24.938
 24.9895
 24.9384
 24.9938
 25.3852
 25.3484
 25.3355
 25.3622
 25.7674
 25.7543
 25.6663
 25.7102
 25.7893
 25.8262
 26.6826
 25.2247
 25.1582
 25.1782
 25.1607
 24.4957
 24.5027
 24.4072
 24.5242
 24.917
 24.8492
 24.9289
 24.9007
 28.4126
 28.4026
 28.3906
 28.3635
 24.5772
 24.5669
 24.6036
 24.5976
 26.4803
 26.475
 26.5358
 26.4484
 26.2676
 26.3305
 26.3063
 26.357
 25.3526
 25.3461
 25.304
 25.3031
 25.3493
 25.3579
 25.393
 25.3794
 26.6874
 26.5864
 26.64
 26.6109
 24.6646
 24.6281
 24.6696
 24.661
 24.8829
 24.8385
 24.8599
 24.8197
 25.1879
 25.1746
 25.1323
 25.1319
 24.7326
 24.7772
 24.7659
 24.7326
 26.3492
 26.2866
 26.2892
 26.2595
 26.726
 26.6999
 26.6925
 26.6586
 24.9178
 24.9736
 24.987
 24.9725
 26.0287
 26.0164
 26.0543
 26.1064
 25.8717
 25.9004
 25.9108
 25.874
 27.9725
 27.9506
 27.884
 27.9448
 24.583
 24.5698
 24.7428
 24.7286
 24.7878
 24.6999
 26.9355
 27.0069
 27.0321
 26.9295
 26.3424
 26.422
 26.4179
 26.4488
 24.8532
 24.8995
 24.8358
 24.8114
 26.1526
 26.1302
 26.165
 26.0995
 26.141
 26.1201
 26.1936
 26.1865
 24.4956
 24.485
 24.5217
 24.5545
 25.7354
 25.7477
 25.7295
 25.7056
 25.8671
 25.8461
 25.8642
 25.9034
 25.1375
 25.1021
 25.0814
 25.1016
 25.3822
 25.3938
 25.4196
 25.4537
 26.0686
 26.0589
 26.1356
 26.3259
 26.2768
 26.3117
 26.2288
 27.0547
 27.0583
 27.0892
 26.9783
 26.2078
 26.1644
 26.154
 26.1424
 25.8
 25.836
 25.8012
 25.8528
 24.4187
 24.402
 24.4157
 24.4958
 26.2227
 26.1188
 26.1734
 26.1755
 26.9013
 26.8975
 26.9495
 26.974
 25.2318
 25.1846
 25.2116
 25.2582
 25.4815
 25.4832
 25.5163
 25.7641
 25.6743
 25.6733
 25.6486
 27.0598
 27.0533
 27.0471
 27.0029
 25.6507
 25.7064
 25.681
 25.7341
 24.7288
 24.726
 24.716
 24.7109
 25.7233
 25.6966
 25.7056
 25.6516
 26.8486
 26.8956
 26.865
 26.8379
 26.6249
 26.5868
 26.6402
 26.6891
 24.0601
 24.0804
 24.0454
 24.0423
 26.3758
 26.3647
 26.3722
 26.4497
 25.5165
 25.6145
 25.5821
 25.5649
 24.1625
 24.1509
 24.2058
 24.2042
 24.7679
 24.69
 24.7252
 25.23
 25.24
 25.1676
 25.1484
 24.8394
 24.85
 24.7607
 24.8633
 27.6767
 27.6337
 27.578
 27.6012
 26.5359
 26.4656
 26.5518
 24.5523
 24.47
 24.4838
 24.4865
 25.5607
 25.5755
 25.5109
 25.5894
 25.0597
 25.0749
 25.0019
 25.1103
 26.7459
 26.7517
 26.799
 26.8371
 26.1722
 26.1094
 26.1885
 26.1353
 25.3655
 25.4577
 25.4344
 27.0753
 27.0579
 27.0199
 27.0199
 26.6459
 26.7111
 26.6751
 26.6978
 26.1775
 24.5214
 24.4918
 24.5029
 24.4572
 27.5211
 27.5168
 27.5685
 27.5775
 25.136
 25.0443
 25.0894
 25.0342
 25.4642
 25.5056
 25.4727
 25.5433
 27.8636
 24.945
 24.9978
 24.9172
 24.5739
 24.4985
 24.5487
 24.5368
 25.9719
 25.9413
 25.8522
 25.9294
 25.4325
 25.4375
 25.3906
 25.4676
 26.4923
 26.5555
 25.8281
 25.8565
 25.8535
 25.7886
 26.5159
 26.5552
 26.5823
 26.5231
 26.2744
 26.3017
 26.2117
 26.21
 25.2828
 25.319
 25.2788
 25.2575
 27.2441
 27.2369
 27.2356
 27.1621
 26.7123
 26.7555
 26.7234
 26.7773
 27.1884
 27.1161
 26.921
 26.9227
 26.9103
 26.9137
 26.9884
 27.0311
 26.9553
 27.0224
 24.5223
 24.5581
 24.6043
 24.6094
 25.5751
 25.569
 25.5954
 25.5025
 26.1394
 26.0598
 26.1064
 26.1044
 25.6761
 25.6972
 25.7101
 25.6543
 24.4785
 24.4825
 27.1068
 27.1473
 27.1387
 27.1009
 24.4907
 24.4683
 24.5171
 27.3976
 27.4348
 27.3995
 27.4388
 24.6022
 24.6632
 24.6203
 24.6679
 26.2106
 26.2558
 26.1889
 26.2519
 25.9825
 25.9677
 25.9972
 24.4797
 24.5128
 24.507
 24.4685
 25.6191
 25.6744
 25.6065
 25.6608
 25.9303
 25.9021
 25.843
 25.9031
 26.1671
 26.2067
 26.0535
 26.1656
 26.0796
 26.1241
 25.4982
 25.5617
 25.5308
 24.4342
 24.5333
 24.5446
 24.4743
 26.012
 25.9699
 26.0161
 26.0047
 26.1066
 26.1389
 26.3317
 26.4137
 26.4248
 26.3818
 27.4039
 27.3891
 27.3341
 25.6806
 25.6644
 25.7411
 25.746
 24.5746
 24.5698
 24.5616
 27.1586
 27.2263
 27.1529
 25.9465
 26.002
 25.9695
 26.0234
 25.3411
 25.3456
 25.4161
 25.3922
 27.5575
 27.5787
 27.5567
 27.5522
 24.9031
 24.8879
 24.93
 24.9365
 25.296
 25.3536
 25.3443
 25.3555
 24.8876
 24.8678
 24.9097
 24.5494
 24.5411
 24.4358
 24.4899
 25.7583
 25.8265
 25.7639
 25.7627
 24.732
 24.7465
 24.7776
 24.7808
 26.2363
 26.2556
 26.2161
 26.283
 24.4669
 25.4734
 25.8588
 25.889
 25.8338
 25.9081
 25.4793
 25.4887
 25.5485
 25.5556
 25.174
 25.1564
 25.1921
 25.2498
 25.4836
 25.5141
 25.4436
 25.4716
 25.0483
 25.0866
 25.0294
 25.0402
 25.8578
 25.8941
 25.8657
 25.8172
 25.9273
 25.9035
 25.8931
 25.8685
 26.1236
 26.1336
 26.1567
 26.0835
 25.8671
 25.8684
 25.9253
 26.8084
 26.7922
 26.8126
 26.7654
 25.8211
 25.3757
 25.2804
 25.2762
 25.3376
 24.5996
 24.5953
 24.6694
 26.2902
 26.382
 26.3415
 26.3718
 25.7342
 25.6597
 25.6759
 25.4409
 25.4358
 25.4951
 25.4886
 25.3408
 25.326
 25.2619
 25.2524
 24.7996
 24.7681
 24.7284
 24.7773
 26.5366
 26.545
 26.5061
 26.602
 25.662
 25.7139
 25.7307
 25.7425
 25.8973
 25.9398
 25.975
 25.9189
 25.9658
 26.0116
 26.0138
 26.0572
 25.8442
 25.8701
 25.8356
 25.8967
 25.147
 25.2446
 25.1328
 25.2001
 25.9438
 26.0396
 26.0029
 25.9934
 27.124
 27.1237
 27.1233
 27.0907
 27.1207
 27.0732
 27.0728
 25.8449
 25.8391
 25.7859
 25.7814
 25.8246
 25.7761
 25.7647
 25.7545
 25.89
 25.9476
 25.8591
 25.8514
 24.6366
 24.6343
 24.7083
 24.7053
 25.1519
 25.2152
 25.2136
 25.1458
 26.3763
 26.3399
 26.3436
 26.3293
 26.734
 26.6668
 26.6672
 26.7559
 24.8786
 24.8931
 24.9282
 24.8756
 27.4904
 27.5081
 27.4906
 27.4364
 26.1468
 26.0855
 26.1196
 26.1283
 26.8813
 26.845
 26.8482
 26.5954
 26.539
 26.5409
 26.5077
 25.2572
 25.2873
 25.2375
 25.3227
 26.5188
 26.6125
 26.5739
 26.5528
 27.0884
 26.9697
 27.0495
 27.5757
 27.4994
 27.4606
 27.468
 24.4192
 24.3995
 24.3585
 24.3131
 26.474
 26.515
 26.4816
 26.4595
 25.5343
 25.6178
 25.6053
 25.5466
 24.7028
 24.7493
 24.7947
 24.7565
 25.0316
 24.9484
 25.0609
 25.0076
 26.4049
 26.3989
 26.4384
 26.4132
 26.9277
 26.9925
 27.0418
 26.9772
 25.6949
 25.6554
 25.7134
 25.6787
 26.8882
 26.8069
 26.0806
 26.175
 26.1608
 26.1045
 25.9595
 25.9652
 26.0001
 25.9395
 26.0263
 26.0207
 26.0504
 26.7655
 26.7397
 26.7637
 25.4891
 25.4887
 25.4715
 25.4505
 25.6088
 25.6153
 25.6622
 25.5604
 26.4113
 26.3404
 26.3706
 26.4067
 25.1388
 25.0664
 25.1613
 25.1258
 25.8546
 25.927
 25.888
 25.8312
 26.8781
 26.879
 26.8941
 26.8797
 26.2263
 26.196
 26.2317
 25.5943
 25.5932
 25.6503
 25.5921
 25.7915
 25.761
 25.7168
 24.4149
 24.4561
 24.4608
 24.4834
 27.2134
 27.2362
 27.2103
 27.2945
 26.2636
 26.1993
 26.2093
 26.2484
 26.285
 26.301
 26.3547
 26.2858
 24.3512
 24.3778
 24.2969
 24.2405
 25.1402
 25.102
 25.1104
 26.5232
 26.5525
 26.5658
 26.5472
 24.9898
 25.0655
 25.0306
 26.4697
 26.4677
 26.512
 26.4985
 28.0385
 27.9831
 28.0513
 28.0045
 24.7096
 24.6881
 24.6562
 24.7298
 26.7559
 26.7725
 26.801
 26.8647
 24.5429
 24.5781
 24.5879
 24.5692
 26.598
 26.513
 26.5717
 26.5453
 28.0578
 28.1355
 28.055
 28.0686
 27.012
 27.0963
 27.0384
 26.9858
 26.7494
 26.6888
 26.6581
 26.7588
 25.8296
 25.9221
 26.7236
 26.7225
 26.8204
 26.8021
 25.5568
 25.5913
 25.612
 25.6433
 25.932
 25.9307
 25.9759
 25.8922
 24.7518
 24.8267
 24.6948
 24.6841
 24.8606
 24.9068
 24.8694
 24.8287
 25.0098
 25.0303
 25.0121
 25.0731
 24.8371
 24.8273
 24.8108
 24.8557
 25.3106
 25.3353
 25.2741
 25.322
 24.9809
 24.9164
 24.9371
 24.9716
 27.1534
 27.2391
 27.2532
 27.1437
 24.735
 24.7034
 24.7159
 24.7269
 26.1075
 26.1625
 26.1746
 26.1441
 25.1277
 25.2211
 25.1941
 24.8605
 24.8017
 24.8061
 24.8414
 26.7144
 26.7816
 26.7899
 26.7596
 27.0704
 27.0991
 27.1428
 27.1197
 25.1878
 25.1993
 25.2441
 25.1436
 25.9745
 25.9871
 26.0113
 26.0362
 25.3425
 25.3889
 25.3449
 25.3401
 25.3388
 25.3374
 25.2318
 26.1684
 26.1846
 26.2422
 25.3794
 25.362
 25.691
 25.7777
 24.4285
 24.3952
 24.3944
 24.4253
 25.739
 25.7062
 25.7397
 25.6693
 25.3605
 25.399
 25.3144
 25.3927
 25.6322
 25.5962
 25.6131
 25.5619
 25.0036
 24.9979
 24.9648
 25.0056
 25.0085
 26.0188
 26.0164
 26.0774
 26.08
 26.8932
 26.8933
 26.8913
 26.8826
 25.3277
 25.3942
 25.3302
 25.3704
 25.3479
 25.4057
 25.4099
 25.3495
 27.8873
 27.8528
 27.8206
 27.7665
 25.8519
 25.8042
 25.8308
 25.8621
 25.8511
 25.9065
 25.9258
 25.8699
 25.411
 25.4572
 26.7401
 26.7224
 26.6927
 26.7319
 26.2809
 26.245
 26.2692
 26.3057
 26.6405
 26.6717
 26.6976
 26.6871
 26.3373
 26.292
 26.3011
 26.3497
 26.6333
 26.6393
 26.6675
 26.6199
 25.1396
 25.1591
 25.1317
 25.0932
 24.7359
 24.7319
 24.7965
 24.7572
 26.4558
 26.4817
 26.518
 26.442
 25.8604
 25.9295
 25.8741
 25.8844
 25.0069
 25.0863
 25.0363
 25.0726
 26.1122
 26.1335
 26.1335
 26.0665
 26.4562
 26.4128
 26.9929
 26.9673
 26.9481
 27.0005
 26.0183
 26.0384
 26.0536
 26.0925
 24.936
 24.966
 24.9681
 24.894
 24.6304
 24.6739
 24.665
 24.6143
 27.6757
 27.6632
 26.0698
 26.0228
 25.9925
 25.9905
 26.1334
 26.2271
 26.166
 26.1688
 26.2357
 26.2665
 26.5739
 26.5374
 26.5493
 26.5132
 25.9493
 25.8812
 25.8679
 27.1372
 27.0957
 27.0947
 27.0605
 24.808
 24.7622
 24.8455
 24.8026
 24.6794
 24.6767
 24.6727
 24.3855
 24.4365
 24.4854
 24.4482
 25.6661
 25.566
 25.6132
 25.5922
 25.8378
 25.7656
 25.8708
 25.8058
 25.1003
 25.0148
 24.9804
 25.0358
 25.3835
 25.3827
 25.3266
 25.3819
 25.5091
 25.4454
 25.4726
 25.774
 25.7631
 25.7943
 25.7234
 25.2745
 25.1684
 25.2055
 25.2649
 26.0514
 26.0731
 26.0392
 26.0318
 25.8121
 25.8259
 25.767
 25.8583
 25.4205
 25.4341
 25.4601
 25.3969
 25.845
 25.8937
 25.9127
 25.8427
 28.0163
 28.0412
 27.977
 27.9728
 26.5367
 26.563
 26.56
 26.6059
 25.2749
 25.2673
 25.2113
 25.2041
 26.5517
 26.5363
 26.6141
 26.6379
 26.7195
 26.8053
 26.7158
 26.6663
 24.866
 24.8688
 24.8255
 24.9114
 24.9031
 24.9656
 24.9108
 24.9203
 24.714
 24.7736
 24.7071
 24.7034
 25.0824
 25.0876
 25.0327
 25.0501
 26.1293
 26.1168
 26.1742
 26.1173
 26.5748
 26.5981
 26.5423
 26.6014
 25.3641
 25.4506
 25.3639
 25.4309
 26.5404
 26.5213
 26.5098
 26.5172
 27.0132
 26.9889
 26.9778
 26.9379
 25.9148
 25.8685
 25.9035
 25.856
 26.2183
 26.2578
 26.3016
 26.1901
 26.1774
 26.1057
 26.1707
 26.9152
 26.9502
 27.0141
 26.9573
 26.4572
 26.4667
 26.4946
 26.4755
 25.3328
 25.2936
 25.3258
 25.2895
 25.8011
 25.7466
 25.7399
 24.3983
 24.4629
 24.4669
 24.42
 24.6177
 24.5624
 24.5257
 24.5818
 26.2684
 26.2229
 26.2917
 26.2238
 25.6064
 25.5638
 26.781
 26.7835
 26.8512
 26.7615
 25.7838
 25.8274
 25.8726
 25.8286
 24.6826
 24.6687
 24.7298
 24.6809
 26.5248
 26.5116
 26.4785
 26.0977
 26.0972
 26.0695
 26.1492
 26.2183
 26.1256
 26.1466
 26.1699
 25.8768
 25.8153
 25.8089
 25.8923
 25.8914
 25.8586
 25.8184
 25.8676
 25.7231
 25.6796
 25.7205
 25.6738
 25.9607
 25.9155
 25.0395
 25.0575
 24.9566
 25.0416
 25.9056
 25.9683
 25.9445
 25.909
 25.4943
 25.5857
 25.5585
 25.9383
 25.8808
 25.9127
 25.8815
 25.5539
 25.5824
 25.6126
 25.5657
 26.5564
 26.6183
 26.5713
 26.6485
 26.044
 26.0536
 25.9892
 25.6574
 25.6563
 25.5692
 25.6928
 25.9471
 25.9535
 25.9111
 26.6378
 26.6193
 26.68
 25.4863
 25.4913
 25.4902
 25.5533
 25.8203
 25.7728
 25.772
 27.743
 27.7368
 27.6999
 27.8187
 25.4006
 25.4437
 25.47
 25.3993
 26.1699
 26.2437
 26.2355
 26.2488
 25.0487
 25.0554
 25.0346
 24.9816
 24.9408
 24.9856
 24.9134
 24.9237
 26.7003
 26.617
 26.7127
 26.7007
 25.7101
 25.7645
 25.7873
 26.2988
 26.3724
 26.3281
 26.3241
 24.8097
 24.9044
 24.8569
 25.8178
 25.7725
 25.8066
 25.7451
 25.3577
 25.3372
 25.3372
 25.3398
 24.7863
 24.7463
 24.7475
 24.7942
 28.2431
 28.3203
 28.2972
 28.2412
 26.3973
 26.3882
 26.3506
 26.4015
 25.6771
 25.5754
 25.6108
 25.5927
 26.9893
 27.0522
 27.0508
 25.8026
 25.749
 25.7691
 25.814
 24.6385
 25.415
 25.4486
 25.5371
 25.4753
 24.9971
 24.9982
 24.9775
 24.9557
 25.1402
 25.1869
 25.1962
 25.1606
 25.679
 25.706
 25.7535
 25.8251
 25.828
 25.8194
 27.5549
 27.5005
 27.5413
 27.5067
 26.299
 26.326
 26.3496
 26.3864
 26.3763
 26.3336
 26.3744
 24.681
 24.5499
 24.6872
 24.6865
 25.8802
 25.8872
 25.8147
 25.8221
 25.6115
 25.6364
 25.6832
 25.6419
 24.8979
 24.929
 24.8713
 24.9353
 25.8075
 25.823
 25.7609
 25.8345
 27.189
 27.1458
 27.2086
 27.1891
 25.9419
 25.9653
 25.9339
 25.9558
 26.4101
 26.4075
 26.3987
 26.3594
 26.556
 26.6033
 26.5825
 26.5617
 26.9305
 26.9059
 26.9353
 26.9314
 27.2784
 27.3114
 27.3084
 27.2289
 24.3415
 24.4185
 24.387
 24.3988
 27.4682
 27.4376
 27.49
 27.3782
 25.8896
 25.9242
 25.8821
 25.9392
 24.4076
 24.4275
 24.4576
 24.4534
 26.1311
 26.1368
 26.1043
 26.0803
 26.8957
 24.7805
 24.8174
 24.8034
 24.7493
 26.6142
 27.2089
 27.1421
 27.1206
 27.1773
 25.6114
 25.5416
 25.1089
 25.1875
 25.1121
 25.1814
 24.8673
 24.8802
 24.8378
 24.8459
 24.3115
 24.3812
 24.3123
 25.0868
 25.0196
 25.0167
 25.0148
 26.0699
 24.5434
 25.3592
 25.3888
 25.4044
 24.6986
 24.6564
 24.6404
 24.6782
 26.1046
 26.1023
 26.1104
 26.1467
 26.4116
 26.4046
 26.4276
 26.476
 25.3625
 25.4057
 25.3927
 25.3048
 24.5785
 24.5195
 24.5904
 24.5809
 24.8625
 24.8816
 24.842
 24.885
 25.5021
 25.4159
 25.4254
 27.2742
 27.31
 27.1934
 27.2605
 28.1952
 28.1237
 28.1669
 28.1081
 26.8434
 26.9265
 26.9247
 26.8853
 25.6888
 25.6412
 25.7087
 27.067
 27.0055
 27.0317
 27.088
 24.9674
 24.9839
 24.9143
 25.081
 25.0542
 25.1014
 25.0776
 26.5633
 26.5916
 25.3062
 25.2193
 24.1623
 24.2269
 24.1554
 24.3858
 24.3711
 24.3765
 24.3444
 25.9855
 26.0389
 25.9539
 25.9953
 26.3137
 26.325
 26.3551
 26.2887
 25.9476
 25.9593
 25.9037
 25.9023
 24.5738
 24.5747
 24.5638
 24.5805
 25.3153
 25.295
 25.314
 25.3511
 26.9031
 26.9039
 26.9083
 26.8473
 25.2958
 25.2824
 25.3235
 25.2529
 25.6879
 25.6669
 25.7241
 25.6607
 25.3682
 25.3148
 25.329
 28.4559
 28.4249
 28.4139
 26.2917
 26.3237
 26.095
 26.0963
 26.1445
 26.0691
 25.206
 25.144
 25.1882
 25.2016
 25.2817
 25.2545
 25.1816
 25.2614
 25.2556
 25.2834
 25.1908
 27.6655
 27.6736
 26.9796
 26.9832
 26.94
 26.9746
 25.6468
 27.7302
 27.7913
 27.7605
 27.7474
 26.4331
 26.3614
 26.4205
 26.4306
 26.0494
 26.0667
 27.2581
 27.1572
 27.158
 27.2095
 24.3256
 24.2441
 24.2918
 24.3112
 24.55
 24.5416
 24.575
 24.4764
 26.6537
 26.5464
 26.6239
 26.5646
 26.3417
 26.3827
 26.2626
 26.2948
 26.2962
 26.3402
 26.2984
 25.2048
 25.1827
 25.2525
 25.2006
 26.883
 26.8457
 26.8173
 26.8014
 25.902
 25.8643
 25.9113
 25.5282
 25.5256
 25.4905
 25.4477
 26.3345
 26.324
 26.2766
 26.3084
 26.5407
 26.4751
 26.4403
 26.5007
 26.539
 26.5836
 26.5737
 26.5231
 26.134
 26.0922
 26.0632
 26.1229
 25.4035
 25.4486
 26.423
 26.4067
 26.3827
 26.4378
 24.3595
 24.4612
 24.4495
 24.4429
 26.6184
 26.5856
 26.6185
 26.5777
 27.149
 27.1685
 27.0879
 27.1321
 25.6506
 25.6157
 27.4625
 27.4299
 27.5102
 27.4203
 26.2167
 26.2002
 26.2425
 24.7004
 24.7328
 24.6792
 24.6741
 27.371
 27.3841
 27.3692
 26.5518
 26.5532
 26.4964
 26.5161
 27.2126
 26.5994
 26.6218
 26.6196
 26.6843
 25.812
 25.848
 25.8058
 25.8238
 26.0073
 25.9933
 25.9613
 26.0126
 24.6163
 24.5395
 25.7663
 25.7441
 25.7603
 25.7729
 26.6127
 26.6856
 26.6004
 26.6923
 26.2736
 26.1545
 26.2158
 26.2717
 24.7756
 24.8239
 24.8159
 24.8209
 26.0602
 26.0427
 25.9823
 25.9963
 25.6644
 24.9299
 24.8855
 24.9414
 26.2514
 26.2381
 26.2954
 26.2101
 25.3146
 25.3296
 25.2959
 25.3765
 26.1648
 26.2003
 26.2061
 26.1327
 24.6022
 24.6718
 24.6776
 24.6468
 24.1764
 24.1388
 24.2085
 26.5536
 26.5079
 26.45
 26.4907
 25.5475
 25.4997
 25.5809
 25.5588
 25.3043
 25.2915
 25.2471
 25.2187
 26.3037
 26.3112
 26.5382
 26.5828
 26.5984
 26.5278
 26.165
 26.0723
 25.5125
 25.4962
 25.5249
 25.545
 25.4028
 25.378
 25.3359
 25.4111
 26.0671
 26.0564
 25.9978
 26.0192
 25.5715
 25.5651
 25.5603
 24.8125
 24.8943
 24.908
 24.8776
 25.0974
 25.1151
 25.0772
 26.0927
 25.9921
 26.0779
 26.0385
 26.465
 26.5401
 26.579
 26.497
 25.3085
 25.3718
 25.3744
 25.3234
 26.0243
 26.0304
 26.0913
 26.9101
 26.9224
 26.9077
 26.922
 26.325
 26.3376
 26.3037
 26.2819
 25.0809
 25.0722
 25.1383
 24.3708
 24.4502
 24.4524
 25.3696
 25.3391
 25.3395
 26.3295
 26.3881
 26.3103
 26.369
 24.4858
 24.4921
 24.4949
 24.4503
 25.4737
 25.5023
 25.4667
 25.4245
 24.9855
 24.9564
 24.8647
 24.8887
 25.0846
 25.0585
 25.092
 25.0855
 27.0763
 27.1026
 27.1221
 26.0951
 26.0793
 26.1215
 26.0731
 25.0445
 25.0031
 25.0676
 25.067
 25.9642
 25.9346
 25.9273
 25.8644
 25.2597
 25.2576
 25.2748
 25.3404
 24.6387
 24.6046
 26.9151
 26.8739
 26.8764
 26.8461
 25.1516
 25.1838
 25.1093
 25.1715
 26.1341
 26.1669
 26.1819
 26.12
 25.3792
 25.4351
 24.5156
 24.5169
 24.5626
 24.4801
 24.9866
 24.9169
 25.0082
 24.8738
 24.4181
 24.4232
 24.3651
 24.317
 25.2261
 25.2447
 25.21
 25.3582
 25.2736
 25.2996
 25.3134
 25.2625
 25.3134
 25.2976
 25.3564
 26.4305
 26.414
 26.4723
 26.4907
 27.1998
 27.2427
 27.1573
 25.848
 25.8345
 25.8386
 24.8408
 24.8945
 24.8559
 24.9145
 26.0441
 26.0037
 25.9537
 25.9987
 26.639
 26.7041
 26.6826
 26.6321
 25.8449
 25.9122
 25.9284
 25.9408
 26.1689
 26.0853
 26.159
 24.535
 24.5058
 24.5823
 24.5775
 26.8634
 26.84
 26.7021
 26.665
 26.6591
 25.2908
 25.2729
 25.3268
 25.2356
 25.9213
 25.8688
 25.8455
 25.8991
 26.7441
 26.7364
 26.6766
 26.733
 25.6433
 25.7418
 25.7433
 25.6689
 26.2458
 26.2846
 26.2178
 26.2167
 24.793
 24.7825
 24.6991
 26.3278
 26.3462
 26.2848
 26.291
 25.6447
 25.6065
 26.755
 26.6728
 26.6878
 26.744
 26.6685
 26.7171
 26.6925
 26.7185
 24.6862
 24.7333
 26.5415
 26.4947
 26.5166
 26.5658
 25.813
 25.8743
 25.8386
 25.8171
 26.1869
 27.1596
 27.2108
 27.1954
 25.6392
 25.639
 25.6172
 25.6787
 24.7085
 24.7025
 24.745
 24.6761
 27.001
 27.0138
 26.9646
 27.016
 26.6589
 26.6075
 26.6753
 26.6623
 25.3095
 25.2726
 25.2688
 26.9382
 26.9184
 26.8931
 26.8701
 24.3761
 24.4539
 24.3968
 24.3667
 26.9022
 26.8583
 26.8458
 26.9313
 25.433
 25.4946
 25.4468
 25.383
 26.1614
 26.1261
 26.1369
 26.1777
 26.6952
 26.6737
 26.6889
 26.207
 26.1361
 26.2157
 26.1574
 26.7875
 26.8577
 26.8182
 26.8146
 26.5876
 26.6285
 26.5938
 25.1697
 25.214
 25.1517
 25.1703
 25.2308
 25.9135
 25.7816
 25.8613
 25.8601
 24.6783
 24.7129
 24.7372
 24.7144
 25.6387
 25.5802
 25.6734
 25.6035
 25.3809
 25.3364
 25.3799
 25.4037
 26.6876
 26.7155
 26.6431
 26.5584
 26.5741
 25.5234
 25.5886
 25.5422
 25.5141
 24.7232
 24.6418
 25.6932
 25.676
 25.7268
 25.6605
 26.7663
 26.7844
 26.7261
 24.8199
 24.8016
 24.8515
 24.8263
 25.7309
 25.8005
 25.7866
 25.7667
 26.7078
 26.7461
 26.7084
 26.6815
 25.8875
 25.8992
 25.8167
 25.8708
 25.473
 25.3755
 27.015
 27.0472
 27.0249
 27.0721
 26.564
 26.4698
 26.4199
 26.4606
 26.4093
 26.4197
 26.414
 26.4855
 26.4496
 26.415
 25.8013
 25.787
 25.8087
 25.4801
 25.5083
 25.5255
 25.5559
 26.5049
 26.5102
 26.4947
 26.5112
 26.1537
 26.1578
 25.6191
 25.6706
 25.666
 25.7109
 25.655
 25.645
 25.911
 25.8405
 25.8342
 25.8906
 27.4209
 27.352
 27.3639
 27.3256
 25.6482
 26.797
 26.7295
 26.7775
 26.7878
 24.5384
 24.4971
 24.553
 25.213
 25.2469
 25.2708
 25.2062
 25.8863
 25.8463
 25.8696
 25.9569
 25.8045
 25.7542
 25.8204
 26.5781
 26.5306
 26.5571
 26.5909
 24.7263
 24.681
 24.7981
 24.7119
 25.4825
 25.5008
 25.4454
 25.4588
 24.7521
 24.739
 24.822
 24.779
 26.807
 26.7932
 26.8591
 26.8563
 26.4423
 26.3946
 25.2036
 25.2295
 25.2616
 25.2286
 24.6695
 24.6735
 24.6658
 24.696
 24.2079
 24.1819
 24.2261
 24.1467
 24.7473
 24.788
 24.7329
 25.4779
 25.4465
 25.5008
 25.4681
 24.8801
 24.8556
 24.8175
 24.8481
 26.8937
 26.8293
 26.797
 26.8466
 24.9606
 24.9304
 24.9132
 25.4881
 25.5046
 25.5173
 25.513
 26.7941
 26.8324
 26.7982
 26.8456
 25.3091
 25.2398
 25.2899
 25.2811
 25.5741
 25.531
 25.5156
 25.5614
 26.3467
 26.3007
 26.2993
 26.2442
 26.9178
 26.9077
 26.9862
 26.9785
 25.9842
 25.9601
 25.9103
 25.9688
 27.5567
 27.5163
 27.4591
 27.4727
 26.6507
 26.6151
 26.661
 26.5178
 26.5836
 26.5772
 26.5881
 27.8156
 27.759
 27.857
 27.7884
 24.8631
 24.9119
 24.9094
 25.0322
 25.0305
 24.9788
 24.9928
 26.4822
 26.3874
 26.4167
 27.1797
 27.1764
 27.2013
 26.8822
 26.9549
 26.8812
 26.8843
 26.4175
 26.4274
 26.375
 26.4708
 25.4509
 25.3829
 25.4278
 25.4353
 27.3953
 27.3741
 27.3097
 27.3843
 25.5682
 25.6563
 25.6689
 25.5984
 25.0369
 24.9856
 25.0781
 25.0338
 25.692
 25.6863
 25.6056
 25.6223
 26.037
 26.072
 25.9872
 26.7593
 26.7619
 26.7672
 26.7205
 24.7378
 24.6823
 24.6725
 24.68
 24.9829
 24.9426
 24.984
 25.0124
 26.3746
 26.3245
 26.3529
 26.406
 24.5685
 24.5373
 24.5129
 24.7281
 24.6446
 24.7177
 24.6978
 24.6699
 24.6446
 24.7081
 24.6816
 27.3558
 27.3708
 27.7868
 27.7807
 27.8267
 27.7279
 25.4482
 25.4735
 25.5099
 25.8623
 25.9077
 25.814
 25.8885
 25.8199
 25.7589
 25.7803
 25.8098
 28.3687
 26.0598
 25.53
 25.473
 25.0348
 24.9919
 25.0201
 25.0074
 27.195
 26.173
 26.1181
 26.1736
 24.1301
 24.1775
 24.1758
 24.1745
 25.7907
 25.8364
 25.7958
 25.7487
 24.4804
 24.5307
 24.4965
 24.5411
 26.0402
 25.9725
 26.0746
 26.2032
 26.1434
 26.1798
 24.9048
 24.8725
 24.9492
 24.8987
 25.5872
 25.6084
 25.6478
 25.69
 26.8801
 26.9314
 26.8335
 26.8578
 24.9732
 24.8696
 24.9081
 24.5648
 24.4796
 24.4779
 24.5638
 25.0085
 25.0176
 25.0735
 25.0064
 26.4958
 26.5082
 26.4099
 26.5128
 26.3242
 26.3694
 26.36
 26.3691
 24.8294
 24.7807
 24.7853
 24.7779
 26.0646
 26.0925
 26.1335
 25.1481
 25.1348
 25.1675
 25.1951
 26.7467
 26.6905
 26.7786
 26.7758
 25.5172
 25.4993
 25.5659
 25.5382
 26.8085
 26.7623
 26.8008
 26.8001
 25.6672
 25.6011
 25.6456
 25.6345
 25.0801
 25.0611
 25.0092
 25.1333
 26.9509
 26.9702
 26.915
 25.7078
 25.6594
 24.963
 25.0019
 24.9994
 25.0408
 26.0719
 26.1079
 26.1118
 26.8329
 26.8821
 26.9062
 26.8776
 25.3792
 25.3544
 25.3935
 25.336
 25.4629
 25.476
 25.3827
 25.4512
 28.0904
 28.1059
 28.027
 28.0541
 25.8737
 25.9306
 25.8903
 27.6952
 27.6371
 27.6271
 25.7647
 25.7746
 25.8154
 25.8035
 25.8669
 26.775
 26.7821
 26.8698
 26.8542
 25.9987
 25.9537
 25.9259
 25.0197
 25.0263
 25.0284
 25.0509
 25.9256
 25.8947
 25.8657
 25.8668
 25.8808
 25.8994
 25.9107
 24.2164
 24.2556
 24.2723
 24.3248
 26.5218
 26.4025
 26.4346
 26.4804
 27.0068
 27.0022
 26.9714
 26.9851
 26.2051
 26.2269
 26.1345
 26.194
 24.8704
 24.8294
 24.8304
 24.9091
 28.149
 28.0799
 28.1143
 28.0256
 25.2152
 25.2787
 25.2284
 25.2228
 26.9661
 27.0197
 26.9987
 27.0066
 24.9776
 25.0985
 25.0767
 25.0244
 25.053
 25.0967
 25.1246
 25.0774
 25.1979
 25.1624
 26.4935
 26.5291
 26.534
 26.4993
 24.735
 24.7439
 24.7407
 25.1463
 25.2389
 25.1939
 25.1315
 26.5593
 26.4925
 26.534
 26.597
 26.188
 26.2158
 26.1371
 28.4641
 28.4614
 28.4976
 28.4605
 25.8535
 25.9523
 25.8679
 24.7763
 24.7285
 24.7668
 24.7875
 25.0234
 25.062
 24.7818
 24.7284
 24.6779
 24.7701
 25.2023
 25.1933
 27.0157
 26.963
 27.0607
 26.9284
 25.1028
 25.12
 25.1098
 25.1811
 25.7549
 25.7132
 26.2578
 26.2106
 26.2228
 26.2496
 25.1515
 25.1269
 25.0897
 25.1248
 26.448
 26.5401
 26.5342
 26.4641
 24.7926
 24.8041
 24.7508
 24.6518
 25.5454
 25.526
 25.6001
 27.1697
 27.2058
 27.2124
 27.1642
 25.4596
 25.4787
 25.5061
 25.5327
 26.507
 26.5619
 26.5922
 26.6148
 26.4773
 26.5446
 26.4955
 28.2037
 28.2019
 28.2224
 28.173
 26.9209
 26.8228
 26.802
 26.8958
 24.9831
 25.0232
 24.9641
 25.0233
 25.9342
 25.9209
 25.975
 26.1302
 26.7201
 26.6837
 26.7091
 26.6651
 26.1217
 26.1666
 26.1336
 26.1133
 25.3061
 25.2266
 25.2145
 25.2838
 26.7428
 26.7407
 26.6358
 27.2159
 25.5652
 25.5363
 25.606
 25.5124
 26.7037
 26.6118
 27.7004
 27.7607
 26.7038
 26.6571
 26.7056
 26.7842
 25.253
 25.2048
 24.9591
 24.961
 24.9308
 24.9714
 26.3141
 26.265
 26.2439
 26.2703
 24.6058
 24.5932
 24.5356
 24.5979
 26.2403
 26.2371
 26.3592
 26.3446
 25.1632
 25.1552
 25.179
 25.2612
 26.548
 26.5439
 26.5151
 26.5117
 25.0754
 25.0367
 25.1104
 25.0609
 26.0321
 25.9873
 24.6844
 24.7134
 25.4034
 25.3645
 25.4203
 25.3535
 25.3886
 25.4084
 25.4056
 25.3448
 25.6877
 25.7239
 25.6713
 25.6671
 25.0785
 25.1599
 25.086
 25.0242
 26.5647
 26.6266
 26.5901
 26.5927
 24.7153
 24.7307
 24.7488
 24.6099
 24.6013
 24.6642
 24.6203
 26.7854
 26.71
 26.7084
 26.7378
 25.2189
 25.2986
 25.2845
 25.2611
 26.7781
 26.7227
 26.7188
 26.6646
 25.7919
 25.9151
 25.8302
 25.8313
 25.9204
 24.9519
 24.9428
 24.9387
 25.0084
 27.5469
 27.5954
 27.5473
 27.4992
 25.2601
 25.2218
 25.1759
 25.2295
 25.8068
 25.7413
 25.8593
 25.8081
 25.2923
 25.3369
 25.3435
 25.3419
 25.3579
 24.2497
 24.2936
 24.3768
 24.3285
 25.0563
 25.057
 25.1473
 25.1192
 27.6572
 27.604
 27.5546
 27.6631
 26.0572
 26.1215
 26.1478
 26.0898
 26.365
 25.7227
 25.7448
 25.7216
 25.6717
 24.7896
 24.7914
 24.8448
 24.8798
 24.9564
 24.9499
 24.8995
 24.7919
 24.9237
 24.8572
 24.8881
 28.081
 28.0357
 25.1481
 25.1434
 25.1248
 26.3625
 26.3695
 26.3805
 26.3116
 25.2118
 25.2404
 25.193
 25.2465
 25.6792
 25.3542
 25.4073
 25.3457
 25.3763
 24.6055
 24.7036
 24.6801
 24.6105
 25.3527
 25.3123
 25.231
 25.3382
 26.0879
 26.0698
 26.1514
 26.0252
 26.8024
 26.7883
 26.8271
 26.7731
 24.3431
 24.4263
 24.3159
 24.3504
 25.2348
 25.2617
 25.2071
 25.2787
 24.4341
 24.4676
 24.4486
 24.3881
 26.3779
 26.4668
 26.377
 26.3653
 25.6642
 25.6955
 24.6609
 24.5809
 24.6711
 24.6245
 25.6812
 25.6593
 25.6577
 25.6034
 25.8997
 25.8313
 25.7589
 25.6982
 25.6819
 25.752
 24.9205
 24.9411
 24.9578
 24.8978
 26.2307
 26.3053
 26.3412
 26.2741
 27.0113
 26.9496
 26.9891
 26.9884
 26.8774
 26.9062
 26.9115
 26.9033
 26.3208
 26.2949
 26.2921
 26.3565
 25.9984
 26.0855
 26.0205
 25.9875
 26.0769
 26.0362
 26.0085
 25.8009
 25.8459
 25.8603
 25.8213
 27.0621
 27.1012
 27.0625
 26.1603
 26.1726
 26.1031
 26.1122
 25.7243
 25.6868
 25.6834
 25.7519
 26.4541
 26.5085
 26.4199
 26.5149
 26.3248
 26.2746
 26.2874
 26.2929
 25.6082
 25.6032
 25.5582
 25.5186
 25.9079
 25.9574
 25.9174
 25.9385
 25.3328
 25.3566
 25.3184
 25.3363
 26.8914
 26.8759
 26.8517
 25.013
 25.0378
 24.9691
 25.0361
 26.4439
 26.3819
 26.4144
 26.463
 26.0598
 26.1039
 26.1269
 26.0426
 25.9267
 25.8792
 25.857
 25.472
 25.4828
 25.458
 25.4104
 25.3879
 25.3761
 25.3414
 25.4075
 25.289
 25.2841
 25.2264
 24.9178
 24.8793
 24.8996
 25.4473
 25.4761
 25.5157
 25.4571
 24.8129
 24.7774
 24.8547
 24.7371
 24.7344
 24.752
 24.8063
 25.895
 26.0069
 25.9478
 25.9699
 26.3371
 26.3849
 26.3331
 26.3795
 26.623
 24.8876
 24.9211
 24.8288
 24.8777
 24.8299
 24.9396
 28.2514
 28.2986
 28.2464
 28.2292
 25.1386
 25.1892
 26.0127
 26.091
 26.0167
 24.422
 24.3481
 25.4783
 25.5677
 25.5446
 25.533
 26.0355
 26.0058
 26.0023
 25.1448
 25.0364
 25.1104
 25.0641
 26.3652
 26.3479
 26.392
 26.3291
 27.7679
 27.699
 27.7192
 27.781
 25.582
 25.5717
 25.6016
 25.5231
 24.9279
 24.8285
 24.9341
 25.0748
 25.073
 25.061
 25.1147
 26.4954
 26.5862
 26.5609
 26.6237
 26.5132
 26.4505
 26.7092
 26.6585
 26.7291
 24.378
 24.4221
 24.9188
 24.9792
 24.9086
 24.9982
 25.7389
 25.6435
 25.6606
 25.1922
 25.2588
 25.1507
 25.1424
 26.465
 26.5527
 26.5351
 26.4916
 25.8105
 25.8136
 25.7615
 25.7483
 25.8605
 25.8168
 25.8136
 25.8625
 26.5698
 26.5336
 26.5428
 26.4673
 26.5011
 26.4782
 26.485
 24.1632
 24.089
 24.1448
 24.0579
 26.963
 27.0453
 24.7524
 24.7451
 24.7478
 24.7942
 26.0416
 25.9849
 26.0091
 26.0373
 25.7225
 25.6828
 25.6801
 25.6818
 26.9182
 26.8544
 25.7316
 25.7737
 25.7775
 25.8096
 26.023
 26.0432
 26.0606
 26.0033
 25.0018
 25.0204
 25.0416
 25.0088
 25.9012
 25.8652
 25.8494
 25.9382
 26.3965
 26.3975
 25.5225
 25.522
 25.5525
 25.5025
 25.2496
 25.2786
 25.2266
 25.7212
 25.6605
 25.6779
 25.6518
 26.6591
 26.6314
 26.6727
 26.5904
 27.9247
 27.8597
 27.8707
 27.9282
 25.9098
 25.9464
 25.9062
 25.8358
 25.6466
 25.5656
 25.6242
 25.6453
 26.0613
 26.0295
 26.0992
 26.0847
 26.2548
 26.2956
 26.2535
 26.2196
 24.9757
 24.9079
 25.5059
 25.532
 25.5561
 27.405
 27.4327
 27.4732
 27.407
 26.5538
 26.6005
 26.5187
 26.6229
 25.7406
 25.717
 25.7575
 25.777
 24.9947
 24.9712
 24.9655
 26.0041
 26.0227
 26.0981
 26.1028
 26.4249
 26.335
 26.37
 26.4292
 25.1774
 25.2444
 25.2521
 25.205
 25.4715
 25.4923
 25.5133
 25.5066
 24.9636
 24.9525
 24.953
 25.1302
 25.1204
 25.1257
 25.1139
 26.1794
 26.1755
 26.2111
 26.2554
 25.9491
 25.9552
 25.8986
 27.8267
 27.8142
 27.8421
 27.8799
 26.4424
 26.445
 27.0146
 27.0573
 26.9882
 26.9632
 26.6069
 26.8608
 24.7863
 26.3615
 26.4232
 26.3764
 26.4526
 24.3686
 25.4705
 25.5271
 25.4698
 25.5461
 26.4183
 26.3531
 26.3893
 26.1455
 26.0975
 26.0968
 24.961
 24.9552
 25.0414
 24.9696
 25.0559
 25.0981
 25.0426
 25.0879
 26.7149
 26.8014
 26.7995
 26.7442
 24.5988
 24.5837
 24.572
 24.6456
 25.8383
 25.8891
 25.9348
 25.0604
 25.0112
 25.0463
 25.6044
 25.6675
 25.6463
 25.5969
 26.3582
 26.3233
 26.4
 26.3739
 25.6727
 25.5835
 25.6611
 26.2975
 26.2803
 26.2749
 26.3431
 26.0077
 25.9278
 24.9817
 24.9474
 24.9309
 24.8799
 24.7789
 24.7001
 24.7398
 24.767
 26.5412
 26.4752
 26.575
 26.5262
 25.2027
 25.2866
 25.2579
 25.1873
 25.5418
 25.6341
 25.5536
 25.5191
 26.1386
 26.1809
 26.1016
 26.1392
 24.8413
 24.8643
 24.8866
 24.9124
 26.0206
 26.0713
 25.9827
 25.9913
 25.8202
 25.867
 25.8689
 25.7758
 25.9441
 25.9832
 25.9334
 25.9245
 26.5169
 26.4583
 26.6047
 26.5651
 26.5195
 26.592
 27.1249
 27.2251
 27.1647
 27.1383
 25.5189
 25.5204
 25.5096
 25.4529
 25.5394
 25.6103
 25.5954
 24.6578
 24.6413
 24.6259
 24.6296
 24.3388
 24.3107
 24.3632
 24.6898
 24.6644
 24.752
 25.6299
 25.5628
 25.5137
 25.6014
 25.2983
 25.2554
 25.2189
 25.326
 25.022
 24.9645
 25.0165
 24.9567
 26.2922
 26.3605
 26.3428
 26.3006
 27.0082
 26.9537
 26.9268
 26.9248
 24.3889
 24.3894
 24.4333
 24.3142
 26.4315
 26.46
 26.4826
 26.416
 25.6638
 25.6626
 25.6307
 25.6774
 24.3307
 24.3712
 24.4423
 24.2971
 25.3939
 25.4541
 25.3786
 25.3986
 26.063
 26.0926
 26.0688
 26.0887
 26.415
 26.4693
 26.4608
 26.8248
 26.7566
 26.8006
 26.8374
 26.6587
 26.6872
 26.6515
 26.693
 26.6061
 26.6769
 26.4869
 26.4552
 26.56
 24.9914
 25.0255
 25.0377
 25.0494
 24.7483
 24.7994
 24.777
 24.7924
 25.401
 25.4128
 25.4141
 25.485
 25.9151
 24.7564
 24.7311
 24.7436
 24.7765
 26.8853
 26.8844
 26.8956
 26.9055
 24.4918
 24.4391
 24.5095
 24.4127
 26.1473
 26.2189
 26.12
 25.2761
 26.7562
 26.7519
 26.7967
 26.609
 26.6371
 26.6751
 26.5737
 25.7387
 25.7522
 25.8357
 25.7867
 25.1515
 25.1445
 25.196
 25.1101
 25.9072
 25.3111
 25.3369
 25.3571
 25.899
 25.9193
 25.9013
 25.8399
 26.314
 26.2968
 26.3445
 26.3441
 26.1348
 26.208
 26.1543
 26.1457
 25.2754
 26.5149
 26.5114
 26.4703
 25.0467
 25.0854
 25.0365
 25.0694
 24.9118
 24.9293
 24.86
 24.9484
 24.6985
 24.6712
 24.7096
 26.3072
 26.3027
 26.3532
 26.2974
 26.9241
 26.9597
 26.9236
 24.9299
 24.9501
 24.8239
 24.8486
 24.8834
 24.8813
 25.9403
 25.9405
 25.8985
 24.4787
 24.5044
 24.4542
 24.5192
 24.9715
 25.001
 24.9772
 24.9438
 25.4263
 25.4487
 25.4009
 25.3929
 25.7251
 25.7069
 25.7355
 25.7894
 26.4504
 26.4687
 26.4826
 26.4239
 24.859
 24.8514
 24.8822
 24.7994
 26.287
 26.271
 26.3433
 26.1531
 26.1013
 26.0957
 26.0786
 24.7467
 24.7495
 24.6702
 24.7201
 25.3087
 25.3082
 25.3337
 25.3507
 24.4789
 24.523
 24.5744
 24.5128
 26.1408
 26.0927
 26.0703
 26.079
 25.7084
 25.6835
 25.7549
 25.6401
 24.923
 24.929
 24.8912
 24.921
 25.7278
 25.6735
 25.7369
 25.7232
 24.4804
 24.3896
 24.4642
 26.3215
 26.3453
 26.3571
 26.3472
 25.6188
 25.6217
 25.6288
 25.6808
 25.4561
 25.3884
 25.4404
 25.436
 25.7929
 25.8373
 25.7418
 25.8067
 24.9216
 24.9257
 24.8499
 24.892
 25.9278
 25.987
 25.9576
 25.9758
 25.5218
 25.5379
 25.5255
 25.5773
 26.9204
 26.9185
 26.9326
 26.9178
 25.0962
 25.0815
 25.1349
 25.1613
 26.9386
 26.9406
 26.9378
 26.4991
 26.5291
 26.526
 26.489
 26.6977
 26.6752
 26.5607
 26.6466
 25.1144
 25.1491
 25.105
 25.0642
 25.3211
 25.2357
 25.2999
 25.2954
 26.1334
 26.1911
 26.1939
 26.2256
 24.2905
 24.3324
 24.3883
 27.8073
 27.8278
 25.5174
 25.4621
 25.5461
 25.526
 27.2137
 27.2663
 27.3268
 27.2599
 25.3326
 25.3308
 25.2578
 25.2805
 26.1301
 26.2787
 26.2998
 26.3158
 26.3498
 25.1832
 25.1587
 25.1496
 25.1269
 24.8961
 24.9127
 24.8547
 24.9128
 26.9214
 26.9219
 25.2763
 25.251
 25.1608
 25.2561
 25.5831
 25.6916
 25.5788
 25.6341
 26.4059
 26.3997
 26.4474
 26.3141
 25.9481
 25.9956
 26.0049
 25.9402
 24.9815
 25.0485
 24.9252
 24.7217
 24.7456
 24.7367
 24.7506
 24.3443
 24.3389
 24.324
 26.2457
 26.2847
 26.2707
 26.2376
 24.6815
 24.7378
 24.7509
 24.764
 26.7129
 26.7711
 26.7479
 26.7337
 25.3875
 25.37
 25.3672
 25.433
 25.6802
 25.6087
 25.6608
 25.6559
 24.6923
 24.7012
 24.7087
 24.6489
 25.3166
 25.2777
 25.3399
 25.3723
 27.3199
 27.3525
 27.3784
 27.333
 25.9115
 26
 25.9175
 25.9888
 26.2397
 26.1361
 26.1544
 26.2244
 25.1772
 25.1407
 25.1993
 25.2553
 26.6392
 26.6874
 26.7175
 26.7018
 25.5363
 25.5831
 25.5535
 25.4858
 26.2628
 26.315
 26.3178
 26.9127
 26.9649
 26.9261
 26.9892
 25.4566
 25.4012
 25.4963
 25.3638
 25.3766
 25.4146
 26.4817
 26.5424
 26.5839
 26.6395
 26.6493
 26.6194
 26.5974
 24.7231
 28.3338
 28.2867
 28.2864
 28.3617
 24.9415
 24.9936
 24.8942
 24.9488
 26.7822
 26.1241
 26.135
 26.1512
 26.0689
 26.252
 26.2872
 26.1714
 26.4491
 26.3709
 26.406
 26.4399
 27.3474
 27.3744
 27.3319
 27.4136
 26.7159
 26.6646
 26.6719
 25.732
 25.7642
 25.7567
 26.26
 26.2811
 24.2056
 24.2819
 24.2895
 26.675
 26.6241
 26.6971
 26.1239
 26.0753
 26.0556
 24.6691
 24.6083
 24.6214
 25.1402
 25.1364
 25.0762
 25.14
 26.4404
 26.3951
 26.3797
 26.8809
 26.9536
 24.5868
 24.6484
 24.5671
 24.5904
 27.1635
 27.1305
 27.2027
 27.0891
 26.6664
 26.6885
 27.9168
 27.9836
 27.625
 27.6387
 27.5921
 26.1444
 26.1101
 26.1746
 24.601
 24.677
 24.6943
 25.2869
 25.2738
 25.2196
 26.3959
 26.3409
 26.2746
 26.241
 26.3007
 24.8447
 26.9742
 26.977
 26.9442
 26.9395
 26.2422
 26.1311
 26.2005
 26.2111
 25.2101
 25.2366
 25.1942
 25.2119
 25.2082
 25.2434
 25.2235
 26.1673
 26.1917
 26.1384
 26.0949
 25.3147
 25.2853
 25.2496
 25.2525
 25.0956
 25.1486
 25.1184
 25.0527
 25.8535
 25.2432
 25.2527
 25.2272
 25.2058
 24.5249
 24.4908
 24.5218
 24.5713
 26.5359
 26.6408
 26.6552
 26.5799
 24.6285
 24.5966
 24.6302
 24.6379
 27.946
 27.9432
 27.9998
 24.5698
 24.6061
 24.4985
 24.5434
 26.4939
 26.5104
 26.568
 26.5586
 25.0925
 25.1478
 25.1088
 25.068
 26.6811
 26.6809
 26.8035
 26.7766
 24.4122
 24.964
 25.0479
 25.0174
 25.0758
 24.8431
 24.7823
 24.8098
 26.8716
 26.8319
 26.8866
 26.9133
 25.1235
 25.1747
 25.1644
 25.199
 25.5716
 25.5255
 25.5173
 25.5346
 25.6444
 25.6111
 25.6944
 25.6971
 24.3416
 24.4139
 26.0281
 26.0196
 26.0218
 26.1908
 26.1423
 26.1221
 26.0806
 25.2441
 25.2805
 25.1762
 25.1752
 25.2232
 25.1902
 25.1903
 25.1461
 25.4665
 25.4648
 25.4098
 25.4774
 26.5238
 26.5093
 26.3539
 26.3936
 26.3974
 26.1299
 26.0896
 26.083
 26.0732
 26.9522
 27.0053
 27.0023
 27.0063
 26.2405
 26.2646
 26.3208
 27.3191
 27.3291
 27.2501
 26.195
 26.2
 26.2487
 26.161
 26.5005
 26.4206
 26.5157
 25.9214
 25.2379
 25.2478
 25.1798
 26.0948
 26.1217
 26.0831
 26.0403
 26.6972
 26.6901
 26.5524
 26.6266
 25.8712
 25.8338
 25.8156
 25.8122
 24.9839
 25.0221
 24.2679
 24.3224
 24.3616
 24.2619
 25.1854
 25.2226
 25.1646
 25.2612
 26.0362
 26.0489
 26.0537
 26.0225
 24.462
 24.4562
 24.3485
 24.4995
 24.6089
 24.5769
 24.5646
 25.775
 25.8479
 25.8704
 25.7973
 26.8241
 26.8494
 26.7865
 26.0058
 26.013
 25.9413
 26.0009
 26.8205
 26.9199
 26.8402
 26.9137
 25.3387
 25.3464
 25.3304
 25.4585
 26.9117
 26.9095
 26.9143
 26.8924
 26.4971
 26.4492
 26.4336
 26.4723
 24.5559
 24.6248
 24.549
 24.6037
 25.6915
 25.6922
 25.7431
 25.6889
 26.192
 26.2341
 26.1735
 26.2241
 25.2743
 25.2566
 25.0255
 24.9301
 24.9531
 24.9618
 26.1097
 26.0451
 26.0649
 25.9915
 25.9472
 25.9086
 25.9374
 25.9443
 26.7856
 26.7511
 26.8024
 26.0895
 26.1322
 26.167
 28.167
 28.2591
 28.1962
 28.2427
 26.4461
 26.4118
 26.8699
 26.8236
 26.8485
 26.9007
 25.5425
 25.5964
 25.5477
 25.6155
 27.3443
 27.2844
 27.247
 27.3105
 26.6041
 26.6199
 26.6871
 25.3844
 25.3622
 25.3677
 25.3965
 26.559
 26.5101
 26.5829
 26.6324
 26.6255
 26.6785
 26.6793
 26.1375
 26.1775
 26.1681
 26.1025
 25.0748
 24.928
 27.7041
 27.6765
 26.4567
 26.5102
 26.0066
 26.0551
 26.0353
 26.0431
 25.4042
 25.3659
 25.4064
 25.3282
 25.8174
 25.8175
 25.7835
 25.7701
 26.8127
 26.9188
 26.8233
 26.8853
 25.5967
 25.6658
 25.6276
 26.8137
 26.8334
 26.7986
 26.8
 24.7472
 24.7328
 24.6917
 24.7642
 25.4277
 25.4306
 25.4385
 25.4911
 26.7461
 26.695
 26.7664
 25.9975
 26.065
 26.0048
 25.9702
 26.9121
 26.9114
 26.8844
 26.5622
 26.5094
 26.5264
 26.5649
 26.7004
 26.7126
 26.6492
 26.6888
 26.1019
 26.1494
 26.1722
 26.1848
 24.5687
 24.6072
 24.6651
 24.6362
 25.5343
 25.4521
 25.4753
 25.4883
 26.0471
 26.1191
 26.0626
 25.7359
 25.7645
 25.7584
 24.8138
 24.8801
 24.8181
 24.8578
 25.4738
 25.4533
 25.522
 25.4331
 26.1412
 26.0947
 26.0593
 26.0829
 26.9833
 26.9544
 26.7629
 26.8038
 26.7343
 26.7334
 27.7931
 27.8162
 27.8716
 27.7777
 25.2146
 25.1993
 25.2017
 25.2249
 26.5605
 26.6352
 26.6054
 26.6129
 25.8254
 25.8892
 25.8468
 25.9168
 27.0823
 27.1066
 27.1001
 27.1282
 25.6849
 25.7177
 25.7499
 25.7434
 25.956
 25.1932
 25.257
 25.2645
 25.2497
 26.1029
 26.1727
 26.1893
 26.1118
 26.0841
 26.0533
 26.0167
 26.0311
 26.2336
 26.2884
 26.2658
 26.313
 26.7044
 26.7767
 26.6739
 24.9446
 24.9288
 24.9058
 25.0174
 26.0939
 26.1118
 26.1138
 26.1358
 25.0111
 24.9791
 24.9424
 25.3958
 25.4343
 25.3934
 25.4321
 25.1043
 25.023
 25.0684
 25.0162
 26.68
 26.6239
 26.6865
 28.3799
 28.3453
 28.3306
 25.2612
 25.1899
 25.2076
 25.6859
 25.5855
 25.6407
 25.5866
 26.2115
 26.1761
 26.1464
 26.1849
 26.0579
 26.0259
 26.109
 26.0908
 27.4835
 27.4365
 27.5428
 27.4338
 25.7879
 25.8181
 25.8221
 25.8302
 25.5991
 25.6042
 25.528
 25.5922
 26.5411
 26.5428
 26.4035
 26.5201
 26.4619
 26.4534
 25.3498
 25.3993
 25.3699
 25.3611
 26.6207
 26.5588
 25.5366
 25.5597
 26.8143
 28.2126
 28.2326
 28.2271
 28.1743
 27.0407
 26.9782
 24.4147
 24.3467
 24.4062
 26.9296
 26.876
 26.83
 26.8839
 25.2765
 25.2605
 26.5213
 26.5341
 26.5238
 26.5228
 26.2823
 26.1798
 26.2303
 25.1934
 25.1839
 25.1922
 25.1229
 25.4702
 25.4168
 25.472
 25.4505
 24.9422
 24.939
 24.8816
 26.0604
 26.1126
 26.0583
 26.1411
 25.8987
 24.885
 24.988
 24.9111
 24.9363
 26.916
 26.9407
 26.8901
 26.8636
 25.7853
 25.8282
 25.7424
 25.8006
 25.1786
 25.2738
 25.2043
 25.2502
 27.8572
 27.8522
 27.8241
 27.829
 26.6963
 24.4357
 26.1545
 26.0645
 26.1219
 26.1796
 25.7523
 25.6933
 25.7647
 25.7877
 26.5087
 26.6
 26.5451
 26.5338
 25.7235
 25.7547
 25.7328
 25.7203
 26.7716
 26.7616
 26.6929
 26.7985
 26.7431
 26.6993
 26.7482
 26.0409
 25.9743
 26.064
 26.0337
 25.1604
 25.0972
 25.2198
 24.2112
 24.1381
 24.2085
 24.2487
 27.5085
 27.5934
 27.5964
 25.9509
 25.9562
 25.9994
 25.9694
 26.0379
 25.9543
 24.747
 24.7451
 24.7758
 24.6901
 25.2755
 25.3174
 25.3031
 25.3485
 26.7111
 26.6155
 26.6857
 27.2018
 26.0974
 26.168
 26.1418
 26.1028
 25.9475
 25.9067
 25.9144
 25.3963
 25.4313
 25.4131
 25.3775
 25.2204
 25.2848
 25.2389
 25.2692
 26.1248
 26.1677
 25.3125
 25.3151
 25.3148
 25.2673
 25.6946
 25.7115
 25.694
 25.644
 24.6431
 24.6009
 25.4956
 25.5532
 25.5119
 25.5335
 25.3236
 25.2954
 25.2881
 25.2475
 25.426
 25.3907
 25.4223
 25.4305
 25.9205
 25.8859
 26.0954
 26.054
 26.1005
 26.1362
 26.2613
 26.3184
 26.2936
 26.276
 25.6666
 25.619
 25.6263
 25.6471
 26.7595
 26.7175
 26.6695
 26.6459
 26.5233
 26.543
 26.5657
 26.5448
 27.6676
 27.6004
 27.6082
 27.6825
 26.2646
 26.3646
 25.6788
 25.7747
 25.7038
 25.7309
 26.1494
 26.1641
 26.1392
 26.0962
 25.7799
 25.7382
 25.7081
 25.7621
 26.0489
 26.0395
 25.1872
 25.2069
 24.4795
 24.4669
 24.4547
 24.4494
 26.8901
 26.0868
 26.0937
 26.0748
 26.0342
 25.9115
 25.965
 25.9399
 25.9213
 26.3807
 26.4242
 26.4325
 26.4947
 25.3101
 25.3843
 25.3245
 25.3903
 25.7191
 25.7579
 25.7748
 25.72
 26.7804
 26.804
 26.7478
 26.8228
 26.8512
 26.1879
 26.1264
 26.2044
 26.1795
 26.255
 26.1754
 26.2267
 26.2588
 26.697
 26.6915
 26.7534
 26.6943
 26.5426
 26.5277
 26.4489
 26.4855
 25.9731
 25.9151
 25.9931
 25.9959
 26.7744
 26.8099
 26.8406
 26.819
 25.7355
 25.7204
 25.7964
 26.4659
 26.4667
 26.483
 26.4884
 27.3759
 27.3342
 25.7233
 25.6864
 25.6718
 25.8339
 25.7668
 25.7924
 25.7615
 26.8532
 26.8089
 26.7873
 27.0795
 27.0434
 27.0497
 27.0676
 25.5183
 25.5384
 25.4785
 25.5202
 25.7572
 25.8358
 25.757
 25.115
 25.2281
 25.1733
 25.9276
 25.9731
 25.962
 24.9313
 24.949
 24.9154
 27.6892
 27.7421
 27.7512
 27.695
 24.6453
 24.6189
 24.6581
 24.6133
 26.3289
 26.3797
 25.6686
 25.6972
 26.6659
 26.6663
 26.6787
 26.6234
 25.5604
 25.5959
 25.5246
 25.151
 25.1072
 25.1195
 25.1097
 24.8852
 24.97
 26.9146
 26.9081
 26.9414
 25.7109
 25.7119
 25.7654
 26.5316
 26.5807
 26.5113
 26.8282
 26.8297
 26.8498
 26.8643
 26.0945
 26.0702
 26.1266
 26.0471
 26.1652
 26.2252
 26.2142
 26.171
 25.3425
 25.3548
 25.3668
 25.3052
 25.2196
 25.2723
 25.2431
 25.313
 26.237
 26.2158
 26.1844
 25.5482
 25.5725
 25.6031
 25.396
 25.3356
 25.3619
 25.3307
 24.0608
 24.1069
 24.0455
 25.9137
 25.9438
 25.9431
 25.3324
 25.2974
 25.3677
 25.9717
 25.9428
 26.0054
 26.3369
 26.403
 26.3862
 26.8913
 26.8695
 26.8744
 26.853
 25.9042
 26.0575
 25.9937
 26.0346
 26.4768
 26.4932
 26.5343
 26.731
 26.6636
 25.4401
 25.479
 25.3955
 25.4462
 25.4191
 25.3679
 25.4496
 25.4807
 26.6782
 26.6085
 26.5759
 26.5661
 26.7448
 26.8185
 26.7712
 26.8267
 27.1958
 27.2331
 27.1923
 27.2615
 24.6453
 24.6191
 24.9886
 25.0691
 25.022
 24.9783
 24.5629
 26.3733
 26.2997
 26.3638
 25.8664
 25.8515
 25.8927
 25.9185
 26.739
 26.7342
 26.0137
 26.0293
 25.9563
 26.9508
 26.9279
 25.0581
 25.0568
 24.9942
 25.1082
 24.8301
 24.8552
 24.743
 24.8174
 25.2166
 25.2037
 25.2579
 26.3203
 26.2735
 26.2787
 24.835
 24.848
 24.8234
 24.8127
 26.5045
 26.5712
 26.5199
 26.4894
 25.1683
 25.2049
 25.2263
 25.1734
 26.4572
 26.5178
 26.5283
 26.4285
 26.7653
 26.7404
 26.7865
 24.5729
 24.474
 24.5213
 24.5534
 26.8911
 26.8537
 26.8702
 26.1353
 26.1204
 26.0303
 26.1092
 24.5795
 24.5177
 24.5481
 26.4367
 26.4826
 26.4011
 26.4404
 25.4489
 24.725
 24.6857
 24.8107
 24.7444
 27.0068
 26.9892
 26.9548
 26.994
 25.4346
 25.5227
 25.4537
 25.4342
 25.9508
 25.9356
 26.0004
 26.7395
 26.7701
 26.7259
 26.845
 25.4852
 25.5163
 25.4547
 26.5227
 26.5506
 27.6382
 27.7131
 27.6632
 27.6109
 27.0859
 27.209
 27.216
 24.7964
 24.8236
 24.7339
 24.8141
 24.8371
 24.7972
 27.0662
 27.0467
 27.1103
 27.0274
 26.19
 26.1648
 26.1726
 26.1367
 26.019
 26.0968
 26.0941
 26.0755
 25.6921
 25.7181
 25.6476
 25.7023
 25.7051
 25.7969
 25.7393
 25.7903
 24.6585
 26.7994
 26.8311
 26.7938
 26.8194
 24.6586
 24.7057
 24.6349
 25.7069
 25.7611
 25.7951
 25.7749
 26.8694
 26.8084
 26.7882
 25.7583
 25.8103
 25.7751
 25.8086
 25.9494
 25.3625
 25.3475
 25.2769
 25.3041
 26.5008
 26.5141
 26.5035
 25.9444
 25.8576
 25.9053
 24.602
 24.6274
 24.6917
 24.6358
 25.9383
 25.94
 25.9733
 27.9537
 27.9376
 27.998
 25.9438
 25.9838
 25.9424
 26.0399
 25.3449
 25.2827
 25.3107
 25.8902
 25.8725
 24.9777
 24.9359
 25.0101
 24.9914
 25.2341
 25.1768
 25.203
 25.2191
 24.5233
 24.5469
 24.5889
 24.6366
 25.7729
 25.8788
 25.8035
 25.7831
 25.2582
 25.2818
 25.2964
 25.312
 24.984
 24.9368
 24.8901
 26.5893
 26.5558
 26.6504
 26.6089
 25.9941
 25.9374
 26.2923
 26.3358
 26.2874
 26.308
 25.4266
 25.4275
 25.439
 25.396
 25.955
 25.9053
 25.9145
 25.9775
 25.5026
 25.537
 25.4698
 25.5368
 25.9046
 25.891
 25.8352
 25.8364
 25.9905
 26.035
 26.0368
 24.9928
 25.0347
 25.0107
 24.777
 24.775
 24.7913
 24.705
 25.0266
 25.0252
 24.9811
 25.307
 25.2149
 25.287
 27.5424
 27.5071
 27.5867
 26.0001
 25.925
 25.9808
 25.0593
 25.0339
 25.0742
 25.0674
 26.0023
 25.9751
 26.0097
 25.7211
 25.7117
 25.6814
 25.7617
 25.4533
 25.5735
 25.5367
 25.5349
 25.9739
 25.9236
 25.9432
 25.9016
 26.6406
 26.6011
 26.633
 26.6698
 25.981
 25.7382
 25.7512
 25.7154
 25.8256
 26.889
 26.863
 26.8503
 26.8566
 26.8106
 26.755
 26.7894
 26.7585
 26.7278
 26.6782
 26.7106
 26.734
 25.4654
 25.4883
 25.4039
 25.3711
 26.5581
 26.5912
 26.5706
 26.5626
 24.3587
 24.4256
 24.3834
 24.4263
 27.163
 27.1242
 27.0821
 27.0824
 26.5579
 26.5517
 26.571
 26.9692
 27.0234
 27.0516
 27.0435
 26.7202
 26.7702
 26.6845
 26.849
 26.8326
 25.8771
 25.8844
 25.8417
 25.7651
 24.8195
 24.8666
 24.8814
 24.7607
 24.7748
 24.7336
 24.7964
 26.7038
 26.755
 24.4953
 24.4574
 24.5112
 24.9816
 24.9918
 24.9686
 24.9435
 26.7275
 26.7584
 26.7219
 24.5979
 24.5665
 24.6315
 24.5481
 26.247
 26.2323
 26.1907
 26.2852
 26.7169
 26.7923
 26.7476
 26.6978
 27.0005
 26.9005
 26.9442
 26.9567
 27.4017
 27.3661
 27.4285
 27.4344
 25.5774
 25.4805
 25.5391
 25.4857
 26.2149
 26.2156
 26.2371
 26.3163
 24.5605
 24.6471
 24.5649
 27.9649
 27.8951
 27.9455
 27.8572
 27.1231
 27.067
 27.0938
 27.0438
 24.6482
 24.5439
 24.6026
 24.6041
 25.9661
 25.9607
 25.9114
 24.9414
 24.8689
 24.8524
 26.6251
 26.6308
 26.7084
 24.5301
 24.6117
 24.6088
 24.5571
 24.8915
 24.9112
 24.9234
 24.9791
 26.4522
 26.4206
 26.3663
 26.4171
 26.2554
 26.3203
 26.2556
 26.326
 25.1735
 25.1694
 25.1484
 25.0892
 25.8139
 25.8451
 25.8812
 25.8593
 27.2114
 27.1468
 27.1576
 27.1343
 24.8943
 25.0163
 24.9388
 24.9653
 24.4604
 25.7999
 25.7864
 25.7477
 25.7492
 24.7665
 24.7351
 24.7413
 24.6826
 26.8929
 26.8936
 26.8781
 26.8791
 24.563
 24.5106
 24.5801
 24.6054
 25.999
 26.0087
 26.2053
 26.2363
 26.1974
 26.174
 25.1844
 25.2438
 25.2514
 25.2523
 25.6977
 25.6287
 25.6342
 26.2205
 26.2355
 26.2061
 25.1937
 25.1913
 25.2628
 25.2714
 25.2178
 25.2495
 25.1887
 25.233
 26.6508
 26.7085
 26.7159
 25.9609
 25.8442
 25.8455
 25.9111
 27.2646
 27.198
 27.1401
 27.2291
 27.2732
 24.5059
 24.6098
 24.4977
 24.603
 25.8797
 25.9093
 25.9392
 25.8831
 24.775
 24.7355
 26.0825
 26.1768
 26.1768
 26.4928
 26.5501
 26.4551
 26.4724
 24.5948
 24.6069
 24.5751
 24.5644
 26.7989
 26.7783
 26.7862
 26.4903
 26.5148
 26.4695
 26.5103
 26.2869
 26.2256
 26.2692
 26.3445
 25.3944
 25.2757
 25.3336
 25.3046
 26.5821
 26.4972
 26.5494
 26.5525
 25.1909
 25.6304
 25.5636
 25.5417
 25.6371
 24.7787
 24.7554
 24.8162
 24.6251
 24.6485
 24.6575
 24.7003
 25.5775
 25.555
 25.6277
 25.5937
 24.3337
 24.3334
 24.3278
 24.402
 26.2881
 25.6296
 25.7108
 25.7201
 25.6551
 25.8623
 25.9498
 25.9195
 25.8825
 27.3941
 27.3306
 27.3138
 27.3753
 25.9526
 25.9359
 25.9164
 25.9853
 26.1369
 26.1217
 26.1012
 26.0803
 26.1085
 26.0947
 26.0556
 24.8809
 24.9463
 24.9734
 26.1474
 26.208
 26.1961
 26.1561
 24.8469
 24.7548
 24.8039
 25.8921
 25.9225
 25.8333
 25.7985
 25.8164
 25.7557
 25.768
 25.7495
 25.9143
 25.8985
 25.8194
 25.8471
 24.856
 24.8175
 24.8202
 26.2661
 24.733
 25.6875
 25.6408
 25.6838
 25.7535
 26.6631
 26.6393
 26.7163
 26.5698
 26.5072
 26.4879
 25.8194
 25.8051
 25.8575
 25.9166
 25.9221
 25.8848
 25.8571
 25.8895
 25.9352
 25.855
 25.9313
 28.0455
 28.0334
 28.1025
 25.1699
 25.2438
 25.1692
 26.016
 25.9874
 24.9582
 25.052
 25.0312
 25.0468
 25.5969
 25.5476
 25.5923
 27.3153
 27.3424
 27.4071
 27.3813
 26.1104
 26.1982
 26.1494
 26.1247
 26.629
 26.6562
 26.6946
 26.7112
 25.4319
 25.5132
 25.4746
 25.4418
 26.3867
 26.4229
 26.3967
 26.4643
 27.2219
 27.2389
 27.2497
 26.2312
 26.2562
 26.2886
 26.2755
 25.3871
 25.3215
 25.341
 25.3443
 25.9415
 25.8826
 25.87
 25.9069
 26.5496
 26.5815
 26.5482
 26.1942
 26.2389
 26.2166
 26.229
 26.5941
 26.6599
 26.5813
 26.6434
 26.8292
 26.7424
 26.733
 26.8342
 24.6847
 24.641
 24.6603
 24.6387
 26.7405
 26.6875
 26.7064
 26.6872
 26.5759
 26.6181
 26.5529
 26.5621
 25.5664
 25.4809
 25.5196
 25.4746
 26.2387
 26.267
 26.2053
 26.2203
 24.1717
 24.1334
 24.1392
 24.137
 26.1383
 26.1701
 26.1144
 26.857
 26.9065
 26.884
 26.8335
 26.7698
 26.8032
 26.7801
 26.8055
 26.6867
 26.7728
 25.3954
 25.4397
 25.3938
 25.4719
 24.3312
 24.3899
 24.3602
 24.3668
 26.1595
 26.2178
 26.183
 26.2181
 26.6954
 26.7327
 26.744
 25.4592
 25.5175
 25.5313
 25.4699
 26.0382
 26.0667
 26.0032
 25.9855
 26.5035
 26.5045
 26.5114
 26.4583
 26.8992
 26.7996
 26.8585
 25.0946
 25.0378
 25.0129
 25.0755
 25.0655
 25.0513
 25.1166
 26.1514
 26.1345
 26.0942
 26.0871
 26.126
 26.1707
 26.0907
 26.5314
 26.48
 26.4593
 26.451
 25.4684
 25.474
 25.5276
 26.6996
 26.6926
 26.765
 25.8467
 25.7744
 25.8085
 25.0211
 25.0973
 25.0664
 25.3638
 25.3833
 26.2758
 26.2317
 26.2741
 26.2267
 26.1982
 26.2277
 26.0274
 26.1002
 26.4771
 26.9569
 26.9421
 26.9992
 24.8307
 24.8396
 24.9272
 26.1311
 26.089
 26.1061
 26.1504
 26.5073
 25.8987
 25.8531
 25.4659
 25.4618
 25.4771
 25.4259
 25.9215
 25.9887
 25.9215
 26.1176
 26.0874
 26.1826
 26.0989
 26.2454
 26.1356
 26.1311
 26.1745
 26.1931
 26.0904
 24.8887
 24.9433
 24.9575
 24.9166
 24.8629
 24.8168
 24.7318
 24.7627
 26.7333
 26.6772
 25.8784
 25.9141
 25.9253
 25.9695
 25.7331
 25.7161
 25.6994
 25.6735
 25.474
 25.4227
 25.4837
 25.492
 26.0274
 26.0559
 26.0793
 26.0147
 26.0997
 26.0626
 26.0881
 26.1218
 25.0121
 25.1003
 25.0292
 25.052
 26.587
 26.5126
 26.5106
 26.4605
 26.6143
 26.5401
 26.5791
 25.1307
 25.0752
 25.0095
 24.9941
 26.5312
 26.4863
 26.5025
 26.4585
 24.8202
 24.8487
 24.8016
 24.8306
 25.0444
 25.0818
 25.0655
 25.0883
 26.1915
 26.1617
 26.2184
 26.1852
 25.3456
 25.3273
 25.3678
 25.4227
 26.4898
 26.4546
 26.4043
 26.3876
 25.2358
 25.2655
 25.2463
 26.7418
 26.7059
 26.7515
 26.7138
 25.6532
 25.6681
 25.6385
 25.6131
 26.2326
 26.2144
 25.2649
 25.1886
 25.223
 25.2548
 25.2082
 25.2175
 25.2528
 26.0745
 25.9993
 26.0691
 25.1262
 25.1365
 25.1127
 25.0547
 27.2051
 27.1651
 27.1217
 27.1519
 26.4827
 26.4617
 26.4065
 26.4005
 25.5803
 25.6578
 25.6483
 25.5726
 24.8022
 24.7986
 24.8384
 24.8033
 24.984
 24.9299
 24.9163
 24.9786
 24.6958
 24.6869
 24.6799
 24.8549
 24.8405
 26.3141
 26.2704
 26.3153
 26.2584
 26.6408
 26.6115
 26.7088
 26.6575
 26.4114
 26.4069
 26.3065
 26.2471
 26.294
 26.2905
 26.1178
 26.111
 26.0443
 26.1097
 26.6824
 26.6812
 26.7275
 25.7698
 25.8087
 25.795
 25.8247
 24.1734
 24.1957
 24.2566
 26.3321
 26.3413
 26.3194
 26.2685
 24.9619
 25.0358
 24.9874
 24.9679
 25.3824
 25.3071
 25.3258
 25.8582
 25.8935
 25.8252
 25.3968
 25.3294
 25.4112
 25.0092
 25.0733
 25.4309
 25.4202
 25.4198
 26.4622
 26.4431
 26.4265
 26.4955
 24.7714
 24.7295
 24.7756
 24.7961
 25.6411
 25.5665
 25.6194
 27.4522
 27.5118
 27.5327
 27.4549
 26.7577
 26.7973
 25.7096
 26.2947
 26.2219
 26.2692
 26.291
 25.8779
 25.8201
 25.8243
 25.3083
 25.2841
 25.3339
 25.3075
 24.8034
 24.7639
 25.9513
 25.9786
 25.9746
 26.0115
 26.8065
 26.844
 26.8534
 26.7662
 24.9865
 24.9439
 24.9602
 24.9852
 25.538
 25.5135
 25.5468
 27.8558
 27.8749
 27.9476
 27.9553
 26.7047
 26.7201
 26.7767
 26.3796
 26.3413
 26.4161
 26.37
 25.6392
 25.6347
 25.6735
 25.5963
 25.9022
 25.8519
 26.92
 26.899
 26.9046
 26.9043
 25.5047
 25.4388
 26.4371
 26.5034
 26.4456
 26.4333
 26.1374
 26.1125
 26.1861
 26.1344
 25.9239
 25.8684
 25.8316
 25.8842
 26.3711
 26.4028
 26.4692
 25.3746
 25.464
 25.379
 25.4386
 25.088
 25.0392
 24.9882
 25.0864
 25.1402
 25.1482
 25.1489
 25.0793
 26.8076
 26.8801
 26.8171
 26.8655
 25.9199
 25.9584
 27.5804
 27.6742
 27.6148
 27.6951
 26.2075
 26.2733
 26.2944
 24.5132
 28.1801
 28.1645
 28.1749
 28.2864
 25.9261
 25.8866
 25.922
 25.9136
 26.3108
 26.2544
 26.2816
 25.0971
 25.0527
 25.0336
 25.1081
 25.1062
 25.1278
 25.0659
 25.0732
 25.1152
 25.0918
 25.1419
 25.1644
 26.4491
 26.3965
 26.4799
 26.3984
 26.6563
 26.6897
 26.701
 26.709
 25.5272
 25.5321
 25.4615
 25.5358
 26.1466
 26.2305
 26.1301
 26.1837
 24.2705
 24.7573
 24.7218
 25.643
 25.6491
 26.0609
 26.105
 26.0961
 24.73
 24.6383
 24.6984
 24.7118
 25.9606
 25.9886
 25.7142
 25.7613
 27.3057
 27.251
 27.3245
 27.268
 26.4503
 26.4722
 26.5177
 26.4868
 25.521
 25.4499
 25.5146
 25.461
 27.1493
 27.2248
 27.1717
 27.1427
 24.3481
 24.3866
 24.3147
 24.3799
 24.8098
 24.8913
 24.6993
 24.7381
 24.7854
 24.6971
 25.1069
 25.0595
 26.2284
 26.1893
 26.2261
 27.9772
 27.9151
 27.9981
 28.0046
 27.0828
 27.0424
 27.0369
 27.0899
 24.7863
 24.7329
 24.7855
 24.82
 25.2982
 25.2064
 25.2497
 25.8084
 25.862
 25.9054
 25.8305
 26.3904
 26.3194
 26.3663
 26.3913
 24.8883
 24.8354
 24.8859
 24.763
 25.8472
 25.776
 26.3936
 26.3688
 25.443
 25.3862
 25.4712
 25.4493
 26.644
 26.7176
 26.6215
 26.7328
 26.7627
 26.8367
 26.8011
 27.9268
 27.8044
 27.8101
 27.87
 26.3569
 26.3233
 26.3324
 26.2782
 24.9776
 24.963
 25.0763
 25.0162
 25.0582
 25.0165
 26.4838
 26.4871
 26.4314
 26.5271
 25.2261
 25.2617
 25.2059
 25.4355
 25.4451
 25.4138
 25.4653
 25.0353
 24.9685
 25.0349
 24.9673
 26.4027
 26.3479
 26.3663
 26.3908
 24.6337
 24.7321
 26.0982
 27.4744
 27.4593
 27.4061
 27.3908
 25.2113
 25.2318
 25.1814
 27.1626
 27.1996
 27.1461
 27.2293
 25.3655
 25.3707
 25.3629
 25.3089
 26.8387
 26.8419
 26.9131
 26.8148
 26.6091
 26.616
 26.56
 26.546
 25.4838
 25.4372
 25.4284
 26.2685
 26.2392
 26.2838
 26.3159
 25.6301
 25.6356
 25.5992
 25.6852
 25.6621
 25.7294
 24.9935
 24.9737
 24.9843
 25.4126
 25.4002
 25.4325
 27.5902
 27.5879
 27.5288
 27.5761
 26.7326
 26.6635
 26.7576
 26.6439
 24.8727
 24.9546
 24.962
 24.9684
 25.1555
 25.1816
 26.559
 26.4534
 26.5587
 25.4107
 25.4869
 25.4801
 25.5221
 25.4632
 25.4846
 25.5069
 26.4488
 26.4793
 26.443
 26.4287
 24.6534
 24.6605
 26.256
 26.2779
 26.2538
 26.2273
 26.5382
 26.5336
 26.5139
 25.4022
 25.3846
 25.9298
 25.9471
 25.9598
 25.8869
 26.8359
 26.8626
 25.545
 25.5809
 26.2282
 26.3
 26.2828
 26.2489
 25.7709
 25.7669
 25.8172
 25.7338
 25.7761
 25.8147
 25.7845
 26.9579
 26.9411
 26.9754
 26.8668
 27.1155
 27.1199
 27.0717
 27.1042
 25.3544
 25.3875
 25.436
 25.4013
 24.8366
 24.8318
 24.8713
 24.8702
 25.6758
 25.6451
 25.7014
 25.8932
 25.9318
 25.9559
 25.9167
 25.8721
 25.1556
 25.1398
 26.3471
 26.2889
 26.3441
 26.3598
 26.5883
 24.8394
 24.8557
 24.9
 24.873
 25.8902
 25.982
 25.9599
 25.9101
 27.8008
 27.7604
 26.065
 26.1378
 26.0639
 27.5563
 27.5399
 27.5778
 27.5163
 25.5999
 25.6415
 25.6067
 25.6325
 26.8507
 26.777
 26.7668
 26.4552
 26.3982
 24.5995
 24.6039
 24.6065
 24.7296
 24.7239
 24.7553
 26.6911
 26.6088
 26.5068
 26.5155
 27.6848
 27.7223
 27.7353
 27.7664
 24.8313
 24.9211
 24.8206
 26.6249
 26.615
 26.5797
 26.6638
 26.5301
 26.5573
 26.4831
 26.5558
 25.3938
 25.3649
 25.3462
 25.3783
 25.6217
 25.4927
 25.5596
 25.3947
 25.3898
 25.451
 25.3906
 25.1803
 25.2485
 25.1271
 25.2734
 26.8945
 26.888
 26.7132
 26.7114
 26.6713
 25.6604
 25.6908
 25.7428
 25.7214
 26.5658
 26.5709
 26.5048
 26.5292
 25.3256
 25.366
 25.3546
 25.3238
 26.8582
 26.7712
 24.8978
 24.9364
 24.9095
 24.9647
 25.3041
 25.3996
 25.3568
 25.2892
 26.3673
 26.3602
 26.3818
 26.3265
 25.0234
 24.9536
 26.0928
 26.0794
 26.0576
 26.0462
 27.2366
 27.2168
 27.2304
 27.2208
 26.8632
 26.8278
 26.8622
 26.8106
 24.5862
 24.5577
 24.5239
 24.5379
 24.8088
 24.8361
 24.8598
 26.4012
 26.4113
 26.4197
 24.6144
 24.5708
 26.0717
 26.035
 26.0721
 25.9853
 24.9657
 25.0082
 24.9589
 25.0107
 26.566
 26.5987
 26.5535
 26.6008
 26.9616
 26.8992
 26.9484
 25.0858
 25.0184
 25.0221
 25.055
 26.1745
 26.0919
 26.1062
 26.1316
 26.6658
 26.6431
 26.6001
 26.7036
 26.8288
 26.9432
 26.8188
 25.6441
 25.717
 25.6203
 25.8402
 25.8288
 25.8744
 25.8061
 25.693
 25.6984
 25.6358
 25.7088
 26.2511
 26.1861
 26.2448
 26.1949
 26.4786
 26.4639
 26.4322
 26.5057
 26.7199
 26.7833
 25.4633
 25.3824
 25.465
 25.4629
 25.7853
 25.8654
 25.8018
 25.8388
 25.7628
 25.8451
 25.8584
 25.9096
 25.8069
 25.8314
 27.5225
 27.4873
 27.4463
 27.4769
 24.8059
 24.7293
 24.7881
 26.1893
 26.196
 26.1979
 26.253
 25.9534
 26.0001
 25.9548
 26.7863
 26.7392
 26.8135
 26.792
 26.6102
 26.6692
 26.6292
 26.6453
 26.1867
 26.1705
 26.1265
 26.5403
 26.5722
 25.284
 25.3182
 25.2351
 24.5092
 24.487
 24.5491
 24.5162
 26.6277
 26.6769
 26.6839
 26.5887
 25.9693
 25.9185
 25.9046
 25.9699
 25.1568
 25.1437
 25.1934
 25.1977
 26.5568
 26.536
 26.5834
 26.4946
 26.4086
 26.3767
 26.3581
 26.3083
 25.066
 25.1187
 25.1836
 25.1729
 26.4286
 26.3588
 24.8928
 24.9143
 24.8608
 25.7164
 25.7638
 27.0251
 27.067
 27.0629
 27.0927
 26.1721
 26.1464
 26.1294
 26.1425
 27.092
 27.1305
 27.0959
 26.0059
 26.0168
 25.5833
 25.5486
 25.4813
 25.5787
 26.1563
 26.1508
 25.453
 25.4002
 26.2208
 26.2565
 26.2263
 26.2066
 25.4694
 25.5212
 25.4552
 25.4344
 25.2204
 25.156
 25.1018
 25.1444
 24.6343
 24.6226
 24.6554
 24.6508
 25.9479
 25.916
 26.603
 26.6008
 26.6996
 26.7255
 25.1662
 25.2291
 26.7492
 26.6906
 26.7235
 27.3875
 27.3741
 27.2816
 27.3223
 27.4908
 27.4502
 27.4771
 25.8669
 25.7969
 25.8016
 25.8125
 26.2105
 26.1592
 26.2013
 26.6651
 26.3883
 26.3387
 26.4135
 26.3479
 26.6759
 26.6354
 26.7173
 26.6557
 26.2459
 26.294
 26.2355
 26.292
 25.4152
 25.5226
 25.5216
 25.432
 24.644
 24.6697
 24.6727
 24.6115
 26.0778
 26.0959
 26.014
 26.0362
 25.0657
 25.0959
 24.996
 25.0158
 26.3903
 25.3739
 25.4554
 25.4182
 25.4335
 27.0272
 27.0717
 27.031
 27.0337
 25.3514
 25.2945
 25.2895
 26.2986
 24.8317
 24.8228
 24.8592
 24.7723
 24.7069
 24.6975
 24.6941
 24.7184
 24.7959
 24.7393
 24.7181
 25.8797
 25.8898
 25.877
 25.9475
 24.7732
 24.7622
 24.7362
 24.7353
 26.6594
 26.6965
 26.7125
 26.7174
 25.5048
 25.5291
 25.5242
 25.5843
 26.0828
 26.0102
 26.0229
 26.0756
 27.2457
 27.1924
 27.2482
 25.5851
 25.9888
 26.004
 26.0295
 25.9608
 24.7425
 24.694
 24.6932
 24.6775
 24.7244
 24.6787
 24.6289
 24.6514
 25.5113
 25.5301
 25.4918
 25.5375
 26.3677
 26.4111
 26.4335
 26.4105
 26.1397
 26.0742
 26.1198
 24.789
 24.7611
 24.7972
 24.8572
 24.6958
 24.6597
 24.6754
 24.7115
 26.6866
 26.719
 26.7163
 25.1243
 25.0705
 24.7539
 24.7736
 24.765
 26.6555
 26.6935
 26.6237
 26.6199
 25.2897
 25.2087
 25.3136
 25.3227
 26.1724
 25.7009
 25.6858
 25.6528
 25.7007
 25.5416
 25.5928
 25.5328
 25.6277
 24.7099
 24.6786
 24.9774
 24.9048
 24.9536
 24.8994
 24.9964
 24.9108
 24.9466
 24.8851
 25.06
 25.1219
 25.0393
 25.1143
 25.2803
 25.2357
 25.2691
 25.2407
 27.1321
 27.0509
 24.7802
 24.7555
 24.716
 26.9023
 26.9189
 26.9015
 26.4865
 26.5721
 26.5875
 26.5113
 25.2457
 25.2819
 25.2378
 25.1816
 26.0544
 26.1125
 26.0871
 26.0801
 24.4553
 24.5113
 24.4504
 24.4058
 25.7134
 25.7281
 25.6884
 25.7046
 25.0369
 24.9921
 25.0433
 25.4296
 25.4315
 25.749
 25.8402
 25.7698
 25.767
 25.8194
 25.9136
 25.8261
 25.8844
 26.7252
 26.6851
 26.6787
 25.5116
 25.4566
 25.4853
 25.4336
 26.2458
 26.2177
 26.1724
 24.8848
 24.8984
 24.8228
 24.9136
 24.7002
 25.6422
 25.7226
 25.7314
 25.6752
 25.4473
 25.4055
 25.4009
 25.4197
 25.5474
 25.5836
 25.6047
 28.0414
 28.1039
 28.031
 28.0296
 26.5084
 26.4614
 26.8272
 26.8844
 26.0038
 26.0983
 26.08
 26.0339
 28.3924
 28.3646
 24.4992
 24.4779
 24.459
 24.4086
 25.2802
 25.1646
 26.7326
 26.7447
 26.703
 26.7066
 25.9905
 25.9832
 25.9396
 25.9604
 24.9945
 24.9328
 24.9599
 25.0263
 26.4304
 26.4521
 26.403
 26.4246
 26.052
 26.0897
 26.0234
 26.0551
 24.9367
 24.9001
 24.9001
 24.8431
 26.0722
 26.051
 26.0416
 26.1322
 24.6684
 24.7256
 24.7086
 24.7316
 25.506
 25.4594
 25.4721
 26.5181
 26.515
 26.5982
 26.5261
 25.6077
 25.6642
 25.6288
 25.6673
 25.7769
 25.8225
 26.28
 26.1887
 26.1774
 25.482
 25.4954
 25.4259
 25.4147
 24.6114
 24.6157
 24.5535
 24.552
 24.8366
 24.7909
 24.7539
 24.8471
 26.5957
 26.603
 26.6565
 26.637
 26.884
 26.8881
 26.9072
 26.8985
 26.7335
 26.8126
 26.7464
 26.7862
 26.9413
 26.9294
 26.9584
 25.8603
 25.8718
 25.8573
 25.9428
 25.1232
 25.0929
 25.3086
 25.2327
 25.2817
 25.282
 25.1573
 25.1156
 25.1879
 26.5456
 26.5979
 26.5776
 26.6178
 25.8808
 25.8706
 25.8315
 25.8426
 24.4602
 24.454
 24.4371
 24.3978
 25.7248
 25.7574
 25.7885
 25.7231
 25.6442
 25.7143
 25.6362
 25.6936
 24.8195
 24.7825
 24.8359
 24.8374
 26.7727
 26.8578
 26.8333
 26.7994
 25.2988
 25.3163
 26.8009
 26.8492
 25.0348
 25.0916
 25.0354
 24.9861
 25.7789
 25.7909
 25.7682
 25.8422
 27.0371
 26.9686
 27.0092
 26.8489
 26.8768
 26.896
 26.9035
 26.3652
 26.4399
 25.772
 25.7984
 25.7556
 25.793
 25.4469
 25.4555
 25.4109
 26.1828
 26.2336
 26.2412
 26.1774
 26.2113
 26.1204
 26.2122
 26.1516
 25.1988
 25.262
 25.2417
 25.2344
 26.944
 26.9453
 26.924
 24.551
 24.535
 24.6146
 24.6019
 25.5712
 25.5889
 25.5773
 26.6036
 26.5816
 26.5603
 24.7188
 24.7164
 24.7732
 24.6867
 25.0663
 26.3613
 26.4284
 26.4155
 26.3926
 24.7571
 24.8583
 24.8234
 24.7753
 25.5549
 25.485
 25.5084
 24.5918
 24.5832
 24.5821
 24.5847
 24.7795
 24.8275
 24.821
 24.7566
 24.7402
 27.0098
 26.9698
 25.9907
 26.0108
 25.9352
 25.9805
 27.1578
 27.2032
 27.1994
 27.1727
 26.301
 25.5644
 25.5364
 25.6306
 25.3052
 25.2568
 25.2055
 25.3019
 26.2956
 26.2862
 26.3349
 26.3456
 26.505
 26.5213
 25.6257
 25.5954
 25.5936
 26.417
 26.4516
 26.4106
 26.3765
 26.4868
 26.4848
 26.4546
 26.4393
 24.7495
 24.7145
 26.2728
 26.2268
 26.2693
 26.276
 26.9511
 26.8556
 26.9446
 26.8714
 26.532
 26.5195
 26.3955
 26.4974
 26.9419
 26.9902
 26.9469
 25.1073
 25.1641
 25.0815
 25.3268
 25.3268
 24.7813
 24.7673
 24.8151
 26.7225
 26.7958
 26.7737
 26.7776
 26.6502
 26.6165
 26.5864
 28.1277
 28.0268
 28.1212
 28.166
 25.1456
 25.2321
 25.1461
 25.1071
 26.4274
 26.4034
 26.433
 26.3429
 25.5797
 25.6277
 25.6109
 25.5745
 25.1785
 25.1958
 25.2629
 25.222
 26.6501
 26.6431
 26.6197
 26.5896
 26.0054
 25.9529
 26.0094
 25.3515
 25.3446
 25.3023
 25.5569
 25.5656
 25.5758
 25.5044
 26.0304
 26.0994
 26.1005
 26.0921
 25.5511
 25.5211
 25.4981
 26.9655
 26.8526
 26.9497
 26.937
 25.9311
 25.9258
 25.9148
 25.9746
 26.6761
 26.7333
 26.7291
 26.7148
 26.7804
 26.8667
 26.77
 26.789
 24.3795
 24.2962
 24.4095
 26.6585
 26.7103
 26.6594
 24.3748
 25.0855
 25.0743
 25.1562
 25.1283
 26.8285
 25.3151
 26.3785
 26.385
 26.4278
 26.4155
 26.9555
 26.9983
 27.0305
 26.9947
 25.4358
 26.0372
 24.5533
 24.575
 24.5658
 24.576
 28.0295
 27.9868
 28.0115
 26.4273
 26.4788
 26.498
 26.8805
 26.952
 24.267
 24.2262
 24.3132
 24.2782
 26.1526
 26.2445
 26.1846
 26.1705
 25.0363
 24.9728
 24.9672
 25.5305
 25.5815
 25.4201
 25.4464
 25.3512
 25.414
 24.7155
 24.7611
 24.773
 24.7291
 26.0297
 26.0278
 25.9405
 25.9725
 24.8462
 24.808
 24.8684
 24.8331
 25.9226
 25.8807
 25.8187
 25.9004
 25.1995
 25.1852
 25.1585
 25.2298
 25.0897
 25.1543
 25.0963
 24.9724
 26.5547
 26.6471
 26.5301
 26.4947
 25.8357
 24.6412
 24.5524
 24.5893
 24.5771
 25.6858
 25.675
 25.7557
 25.659
 25.5946
 25.5827
 26.6937
 26.7449
 26.7515
 26.6786
 26.302
 26.364
 26.3037
 25.8777
 25.8923
 25.9164
 25.9527
 24.4182
 24.4847
 24.4962
 24.4708
 26.4539
 26.4549
 26.4995
 26.514
 25.3348
 25.4222
 25.4198
 25.385
 25.9058
 25.8951
 25.9423
 26.7674
 26.7041
 26.7311
 26.7219
 27.3348
 27.3164
 27.39
 27.2903
 26.3209
 26.3663
 26.3795
 24.989
 24.9865
 24.9452
 25.6802
 25.1846
 25.2615
 25.2311
 25.2298
 26.462
 26.4812
 26.4738
 26.4754
 24.899
 24.7951
 24.8493
 24.8661
 25.7747
 25.8618
 25.4515
 25.4918
 25.472
 25.4397
 25.4141
 25.4359
 25.5332
 27.446
 27.4146
 27.5104
 27.4463
 24.2144
 24.1032
 24.1414
 24.2042
 26.273
 26.2157
 26.2438
 26.5935
 26.5474
 26.638
 26.5299
 25.3739
 25.458
 25.4251
 27.8472
 27.9116
 27.956
 27.8823
 25.201
 25.1955
 25.1162
 25.1039
 25.1563
 25.144
 26.8623
 26.9112
 26.8839
 26.923
 26.698
 26.6971
 26.6743
 26.725
 27.2017
 27.15
 27.111
 27.1913
 26.0418
 27.2431
 27.1783
 27.1872
 27.1745
 25.1906
 25.2522
 25.2664
 25.2902
 26.6821
 26.6108
 25.2896
 25.2536
 25.2536
 25.326
 24.9807
 24.9459
 24.985
 24.9501
 24.4704
 24.4328
 24.4393
 24.3579
 28.0071
 28.0318
 27.9478
 25.5662
 25.5023
 25.5246
 25.5335
 25.068
 25.054
 25.1082
 25.0806
 27.4628
 27.418
 27.3989
 27.4718
 25.5623
 25.1963
 25.1738
 25.1513
 25.2134
 24.7636
 24.7331
 24.764
 26.0331
 26.0047
 26.0125
 25.972
 24.5287
 24.4466
 24.4117
 24.4492
 25.6813
 25.6507
 25.6839
 25.6921
 25.6083
 26.4906
 26.5712
 26.4738
 25.7362
 25.803
 25.776
 25.7104
 25.8067
 25.7876
 25.7585
 25.8427
 26.2801
 26.3559
 26.3336
 26.9166
 27.3251
 27.2664
 27.3893
 25.4729
 25.4303
 25.4505
 25.2118
 25.1983
 25.2339
 26.5656
 26.5014
 26.533
 26.4475
 25.3324
 25.3725
 24.8146
 24.8477
 24.8673
 24.843
 24.6646
 24.6791
 24.6826
 24.9059
 24.8616
 25.5305
 25.4807
 25.5221
 24.986
 25.0698
 25.0181
 26.7001
 27.9031
 27.9429
 27.8775
 27.8882
 25.583
 25.566
 25.619
 25.6019
 27.7001
 27.6775
 27.614
 27.7065
 25.2762
 25.2684
 25.2368
 25.8863
 25.9091
 25.9627
 25.974
 26.4565
 26.4203
 26.5175
 26.4805
 25.6615
 25.6464
 25.5913
 25.2684
 25.223
 25.9955
 25.9251
 25.9712
 25.9704
 26.2651
 26.2237
 26.2523
 26.7076
 26.7008
 26.6986
 25.5759
 25.553
 25.512
 25.5905
 25.1513
 25.0858
 25.1355
 25.1017
 24.2107
 24.2589
 24.1907
 24.2518
 25.7888
 25.7996
 24.1761
 24.2322
 24.2548
 25.4284
 26.8551
 26.8013
 26.7567
 26.7854
 26.4397
 26.3972
 26.4422
 26.4104
 25.4358
 25.4775
 25.4505
 24.8533
 24.8057
 26.9263
 26.9028
 26.9678
 26.8846
 25.2219
 25.2506
 26.8616
 26.8923
 25.6881
 25.692
 25.7215
 27.0164
 27.0742
 26.9919
 26.4419
 26.4573
 26.4833
 26.4804
 24.8594
 24.8533
 24.8256
 24.8661
 26.135
 26.1248
 26.1225
 26.0134
 26.0978
 26.0534
 26.0384
 24.6903
 24.7683
 24.7652
 24.7728
 27.3383
 27.3035
 27.363
 25.8702
 25.9338
 25.9043
 25.1361
 25.0999
 25.3597
 25.373
 25.4373
 25.4254
 27.4509
 27.398
 27.4244
 27.4455
 26.4996
 26.4988
 26.4959
 26.4489
 25.0696
 25.0493
 25.0244
 25.0178
 25.0065
 25.0354
 25.029
 25.0663
 26.0791
 26.1451
 26.0855
 26.1004
 24.379
 24.2847
 24.3041
 24.3802
 26.6911
 26.6386
 26.7149
 27.5051
 27.5797
 27.5676
 25.6702
 25.6345
 25.3399
 25.3231
 25.3688
 25.345
 24.8685
 24.8998
 24.8119
 24.8075
 26.2147
 25.8122
 26.1068
 26.0571
 26.0278
 25.994
 28.1228
 28.2123
 28.2093
 28.0994
 25.1643
 25.1902
 26.5177
 26.4908
 26.4527
 26.3141
 26.3401
 26.2758
 26.2573
 26.8688
 26.9239
 26.2527
 26.2603
 26.299
 26.2282
