 -85.4799
 -85.4847
 -85.4837
 -85.4861
 -85.5583
 -85.559
 -85.5608
 -85.5618
 -85.5403
 -85.5377
 -85.5409
 -85.5384
 -85.5438
 -85.5411
 -85.5405
 -85.5391
 -85.5856
 -85.5872
 -85.5844
 -85.5836
 -85.5818
 -85.58
 -85.5832
 -85.5807
 -85.4624
 -85.4596
 -85.4604
 -85.4622
 -85.4668
 -85.4675
 -85.4675
 -85.4661
 -85.5814
 -85.5805
 -85.5782
 -85.5803
 -85.5808
 -85.5811
 -85.5804
 -85.5835
 -85.4518
 -85.45
 -85.4527
 -85.4532
 -85.5391
 -85.5396
 -85.5368
 -85.5386
 -85.4948
 -85.4946
 -85.492
 -85.4971
 -85.563
 -85.5594
 -85.5578
 -85.5605
 -85.527
 -85.5258
 -85.5277
 -85.5298
 -85.472
 -85.4695
 -85.4738
 -85.4698
 -85.5752
 -85.5766
 -85.5748
 -85.577
 -85.5468
 -85.5449
 -85.5474
 -85.5455
 -85.5289
 -85.53
 -85.5304
 -85.5323
 -85.5711
 -85.5711
 -85.5724
 -85.574
 -85.4653
 -85.4614
 -85.4654
 -85.4628
 -85.59
 -85.5905
 -85.5922
 -85.5919
 -85.4049
 -85.4029
 -85.4017
 -85.4053
 -85.5562
 -85.557
 -85.554
 -85.5537
 -85.5233
 -85.5211
 -85.5234
 -85.5249
 -85.534
 -85.5348
 -85.5334
 -85.5325
 -85.5107
 -85.5142
 -85.5159
 -85.5109
 -85.4702
 -85.4677
 -85.4707
 -85.47
 -85.4938
 -85.4928
 -85.4901
 -85.4921
 -85.5602
 -85.56
 -85.5583
 -85.5566
 -85.525
 -85.5293
 -85.5238
 -85.5257
 -85.4955
 -85.498
 -85.498
 -85.4954
 -85.5513
 -85.5486
 -85.5521
 -85.5491
 -85.5584
 -85.5572
 -85.557
 -85.5575
 -85.4963
 -85.4938
 -85.497
 -85.4919
 -85.4765
 -85.4759
 -85.4756
 -85.4759
 -85.5485
 -85.5444
 -85.5482
 -85.547
 -85.4496
 -85.4514
 -85.4518
 -85.4531
 -85.5524
 -85.5524
 -85.557
 -85.5556
 -85.5936
 -85.5921
 -85.5932
 -85.5916
 -85.5371
 -85.5366
 -85.5379
 -85.5338
 -85.5578
 -85.5601
 -85.5589
 -85.5585
 -85.4565
 -85.456
 -85.4585
 -85.4544
 -85.5467
 -85.545
 -85.5457
 -85.5486
 -85.581
 -85.5804
 -85.5825
 -85.5816
 -85.4873
 -85.4898
 -85.4887
 -85.4875
 -85.5487
 -85.5524
 -85.5514
 -85.5515
 -85.4733
 -85.4761
 -85.4733
 -85.4701
 -85.4995
 -85.4974
 -85.4965
 -85.4952
 -85.5294
 -85.5271
 -85.5264
 -85.5248
 -85.4688
 -85.4677
 -85.4666
 -85.4686
 -85.5319
 -85.5293
 -85.5294
 -85.5314
 -85.5025
 -85.4986
 -85.5024
 -85.4973
 -85.5377
 -85.5393
 -85.5373
 -85.5394
 -85.4913
 -85.4941
 -85.4925
 -85.4964
 -85.5381
 -85.5375
 -85.5401
 -85.5358
 -85.5534
 -85.5538
 -85.5553
 -85.5568
 -85.5571
 -85.556
 -85.5574
 -85.5534
 -85.4874
 -85.4876
 -85.4832
 -85.4892
 -85.5084
 -85.5068
 -85.5074
 -85.5112
 -85.4121
 -85.4093
 -85.4073
 -85.41
 -85.4933
 -85.4931
 -85.4902
 -85.4926
 -85.5253
 -85.5291
 -85.5276
 -85.5284
 -85.5047
 -85.5041
 -85.5084
 -85.5017
 -85.5031
 -85.5067
 -85.5026
 -85.5063
 -85.4697
 -85.4678
 -85.4706
 -85.4705
 -85.5732
 -85.5759
 -85.5767
 -85.5729
 -85.5859
 -85.5867
 -85.5874
 -85.5878
 -85.5319
 -85.5354
 -85.5294
 -85.5312
 -85.4944
 -85.4937
 -85.4963
 -85.4928
 -85.5521
 -85.5535
 -85.555
 -85.5519
 -85.4649
 -85.4595
 -85.4611
 -85.4608
 -85.4642
 -85.4613
 -85.4609
 -85.4645
 -85.4075
 -85.4054
 -85.409
 -85.4084
 -85.539
 -85.5419
 -85.5404
 -85.5432
 -85.4858
 -85.4893
 -85.4902
 -85.486
 -85.4794
 -85.4767
 -85.4799
 -85.482
 -85.5884
 -85.5901
 -85.5894
 -85.5903
 -85.4753
 -85.4744
 -85.472
 -85.4751
 -85.4808
 -85.4792
 -85.4769
 -85.4805
 -85.4856
 -85.4881
 -85.4857
 -85.4831
 -85.5147
 -85.514
 -85.5169
 -85.5163
 -85.4819
 -85.4853
 -85.483
 -85.484
 -85.4989
 -85.5012
 -85.502
 -85.4999
 -85.5082
 -85.5074
 -85.5063
 -85.505
 -85.4739
 -85.4705
 -85.4751
 -85.4716
 -85.3977
 -85.3967
 -85.4023
 -85.4023
 -85.4676
 -85.4686
 -85.4705
 -85.4689
 -85.5405
 -85.539
 -85.5419
 -85.537
 -85.5413
 -85.5403
 -85.543
 -85.5405
 -85.5561
 -85.5552
 -85.5541
 -85.5579
 -85.4644
 -85.4641
 -85.4647
 -85.4658
 -85.591
 -85.5909
 -85.5897
 -85.5923
 -85.5551
 -85.5576
 -85.5551
 -85.5556
 -85.4518
 -85.4517
 -85.4485
 -85.4487
 -85.5003
 -85.5003
 -85.4989
 -85.5046
 -85.4791
 -85.4809
 -85.4765
 -85.4781
 -85.4802
 -85.4784
 -85.4788
 -85.4659
 -85.4654
 -85.4654
 -85.4643
 -85.5468
 -85.5449
 -85.5434
 -85.5478
 -85.5105
 -85.5147
 -85.513
 -85.5106
 -85.5433
 -85.5462
 -85.5442
 -85.4932
 -85.4891
 -85.4915
 -85.49
 -85.5203
 -85.5219
 -85.5212
 -85.5182
 -85.5688
 -85.5662
 -85.5663
 -85.5705
 -85.4659
 -85.4666
 -85.4712
 -85.4692
 -85.4747
 -85.4722
 -85.4709
 -85.4727
 -85.5402
 -85.5372
 -85.5363
 -85.5373
 -85.5525
 -85.5509
 -85.5555
 -85.5549
 -85.4568
 -85.4568
 -85.4553
 -85.4528
 -85.4724
 -85.473
 -85.4781
 -85.4767
 -85.506
 -85.5098
 -85.5119
 -85.5065
 -85.5823
 -85.584
 -85.5829
 -85.5834
 -85.5392
 -85.5423
 -85.543
 -85.5418
 -85.5205
 -85.5156
 -85.5203
 -85.5202
 -85.4189
 -85.414
 -85.4192
 -85.4186
 -85.5146
 -85.5116
 -85.5156
 -85.5176
 -85.5683
 -85.5658
 -85.5684
 -85.5646
 -85.4833
 -85.4785
 -85.4857
 -85.4838
 -85.477
 -85.4777
 -85.4744
 -85.4763
 -85.4752
 -85.4719
 -85.4728
 -85.4737
 -85.4474
 -85.447
 -85.447
 -85.4483
 -85.4791
 -85.4744
 -85.4746
 -85.4747
 -85.5417
 -85.5411
 -85.5416
 -85.5395
 -85.4613
 -85.4625
 -85.4637
 -85.4647
 -85.5798
 -85.5779
 -85.5789
 -85.5797
 -85.4631
 -85.459
 -85.4596
 -85.4626
 -85.5679
 -85.5641
 -85.5678
 -85.5656
 -85.5136
 -85.5107
 -85.5108
 -85.5127
 -85.4998
 -85.5026
 -85.504
 -85.5006
 -85.4897
 -85.49
 -85.4938
 -85.4906
 -85.4837
 -85.4836
 -85.4813
 -85.4802
 -85.5895
 -85.5909
 -85.5914
 -85.5913
 -85.4866
 -85.4851
 -85.4865
 -85.4854
 -85.5936
 -85.5923
 -85.5931
 -85.5914
 -85.5539
 -85.5532
 -85.5567
 -85.5542
 -85.4314
 -85.4355
 -85.4347
 -85.4309
 -85.5839
 -85.5834
 -85.5852
 -85.5861
 -85.4723
 -85.4762
 -85.4731
 -85.4701
 -85.4277
 -85.4257
 -85.4248
 -85.4272
 -85.5634
 -85.5629
 -85.5617
 -85.563
 -85.5865
 -85.5883
 -85.5872
 -85.5867
 -85.5286
 -85.5297
 -85.5279
 -85.5273
 -85.5592
 -85.5563
 -85.56
 -85.5573
 -85.4796
 -85.4759
 -85.4778
 -85.4773
 -85.5357
 -85.5345
 -85.5359
 -85.5387
 -85.4985
 -85.4966
 -85.4995
 -85.4996
 -85.4675
 -85.4689
 -85.4671
 -85.4669
 -85.4534
 -85.453
 -85.4527
 -85.4554
 -85.5116
 -85.5104
 -85.5136
 -85.5094
 -85.5206
 -85.5209
 -85.5197
 -85.5176
 -85.4778
 -85.4771
 -85.4795
 -85.4808
 -85.4773
 -85.4734
 -85.4774
 -85.4766
 -85.5448
 -85.5453
 -85.5429
 -85.543
 -85.5822
 -85.5816
 -85.5839
 -85.5842
 -85.579
 -85.5773
 -85.5793
 -85.5798
 -85.5779
 -85.575
 -85.5756
 -85.5769
 -85.5471
 -85.5457
 -85.5481
 -85.5451
 -85.477
 -85.4731
 -85.4761
 -85.475
 -85.4786
 -85.4805
 -85.4814
 -85.4822
 -85.5192
 -85.5184
 -85.5135
 -85.5136
 -85.554
 -85.5522
 -85.557
 -85.5553
 -85.5532
 -85.5515
 -85.5522
 -85.5543
 -85.5305
 -85.5278
 -85.5295
 -85.53
 -85.5388
 -85.5413
 -85.5377
 -85.5385
 -85.4551
 -85.4544
 -85.4558
 -85.459
 -85.3787
 -85.3763
 -85.3792
 -85.3739
 -85.485
 -85.4844
 -85.4806
 -85.4827
 -85.3945
 -85.3996
 -85.3982
 -85.4853
 -85.485
 -85.4868
 -85.4829
 -85.5712
 -85.5695
 -85.5706
 -85.5689
 -85.5274
 -85.5293
 -85.5297
 -85.532
 -85.582
 -85.581
 -85.5836
 -85.5809
 -85.4766
 -85.4772
 -85.4739
 -85.4769
 -85.5493
 -85.5482
 -85.5523
 -85.5513
 -85.5309
 -85.5311
 -85.5274
 -85.5288
 -85.5874
 -85.5884
 -85.5891
 -85.5863
 -85.5658
 -85.5654
 -85.5663
 -85.5691
 -85.485
 -85.4885
 -85.4861
 -85.485
 -85.549
 -85.5486
 -85.5458
 -85.5489
 -85.5692
 -85.5652
 -85.5676
 -85.5656
 -85.427
 -85.422
 -85.4245
 -85.4224
 -85.5256
 -85.5272
 -85.5286
 -85.5289
 -85.5687
 -85.5693
 -85.5708
 -85.5688
 -85.5421
 -85.5447
 -85.5398
 -85.5459
 -85.5656
 -85.5627
 -85.566
 -85.5656
 -85.4783
 -85.4813
 -85.483
 -85.4831
 -85.5649
 -85.5701
 -85.5649
 -85.5692
 -85.5082
 -85.5101
 -85.5042
 -85.5076
 -85.5159
 -85.5178
 -85.5198
 -85.5155
 -85.5647
 -85.5645
 -85.5622
 -85.5659
 -85.5936
 -85.5925
 -85.5925
 -85.5934
 -85.4553
 -85.4572
 -85.4586
 -85.4595
 -85.4969
 -85.4993
 -85.5013
 -85.4977
 -85.5354
 -85.5336
 -85.532
 -85.5329
 -85.5653
 -85.567
 -85.5667
 -85.567
 -85.488
 -85.4856
 -85.4865
 -85.4866
 -85.4606
 -85.4644
 -85.4661
 -85.4613
 -85.5516
 -85.5517
 -85.5483
 -85.5483
 -85.5421
 -85.5448
 -85.5421
 -85.5432
 -85.5845
 -85.5859
 -85.5874
 -85.5845
 -85.4692
 -85.4731
 -85.4683
 -85.4717
 -85.5864
 -85.588
 -85.5877
 -85.5866
 -85.4942
 -85.4983
 -85.4962
 -85.4949
 -85.3824
 -85.3813
 -85.3827
 -85.3843
 -85.576
 -85.5777
 -85.5784
 -85.5777
 -85.547
 -85.5488
 -85.5457
 -85.5422
 -85.5783
 -85.5783
 -85.5769
 -85.5765
 -85.5195
 -85.5157
 -85.5184
 -85.5201
 -85.5121
 -85.5142
 -85.5149
 -85.5127
 -85.5608
 -85.5576
 -85.5584
 -85.5587
 -85.4767
 -85.4779
 -85.4751
 -85.4773
 -85.4716
 -85.4735
 -85.4737
 -85.4725
 -85.4109
 -85.4089
 -85.4091
 -85.4079
 -85.5307
 -85.5332
 -85.5343
 -85.5359
 -85.5215
 -85.5196
 -85.5248
 -85.5213
 -85.5428
 -85.5383
 -85.541
 -85.5436
 -85.4974
 -85.5016
 -85.502
 -85.4963
 -85.5824
 -85.5821
 -85.5837
 -85.5803
 -85.5862
 -85.5892
 -85.5864
 -85.5857
 -85.5451
 -85.5463
 -85.5493
 -85.5493
 -85.355
 -85.3545
 -85.3557
 -85.3574
 -85.5076
 -85.5056
 -85.5083
 -85.5039
 -85.5102
 -85.5093
 -85.5057
 -85.5093
 -85.5079
 -85.5084
 -85.5045
 -85.5046
 -85.562
 -85.5609
 -85.5642
 -85.5602
 -85.4218
 -85.4258
 -85.419
 -85.4214
 -85.4027
 -85.4032
 -85.3989
 -85.3982
 -85.5626
 -85.5605
 -85.5628
 -85.5598
 -85.4908
 -85.4948
 -85.4892
 -85.4945
 -85.5046
 -85.5044
 -85.5056
 -85.5058
 -85.5444
 -85.5424
 -85.5419
 -85.5388
 -85.4743
 -85.476
 -85.4774
 -85.4757
 -85.5664
 -85.5633
 -85.5642
 -85.5659
 -85.4978
 -85.4916
 -85.4951
 -85.4907
 -85.4924
 -85.4919
 -85.4889
 -85.4916
 -85.4615
 -85.4592
 -85.4628
 -85.458
 -85.5068
 -85.5113
 -85.5082
 -85.5116
 -85.571
 -85.5725
 -85.5724
 -85.5705
 -85.5486
 -85.5521
 -85.5532
 -85.55
 -85.4731
 -85.4724
 -85.4757
 -85.4753
 -85.4866
 -85.4907
 -85.4908
 -85.4866
 -85.5793
 -85.58
 -85.5813
 -85.581
 -85.5652
 -85.5633
 -85.5647
 -85.5635
 -85.5105
 -85.5093
 -85.507
 -85.5091
 -85.4637
 -85.4643
 -85.4642
 -85.4652
 -85.4372
 -85.4431
 -85.4421
 -85.438
 -85.5452
 -85.5424
 -85.5408
 -85.544
 -85.463
 -85.4594
 -85.4628
 -85.4553
 -85.5733
 -85.5705
 -85.5704
 -85.573
 -85.5358
 -85.5401
 -85.5376
 -85.5349
 -85.571
 -85.5704
 -85.5694
 -85.5699
 -85.5519
 -85.5489
 -85.5487
 -85.5505
 -85.5098
 -85.5082
 -85.5096
 -85.512
 -85.4789
 -85.4738
 -85.475
 -85.4771
 -85.4431
 -85.449
 -85.4439
 -85.444
 -85.4563
 -85.4512
 -85.4566
 -85.4554
 -85.4771
 -85.4728
 -85.4721
 -85.4737
 -85.5161
 -85.5173
 -85.5166
 -85.5116
 -85.5172
 -85.5176
 -85.5187
 -85.515
 -85.5211
 -85.518
 -85.5236
 -85.5202
 -85.5466
 -85.5447
 -85.5474
 -85.547
 -85.4221
 -85.4181
 -85.419
 -85.4187
 -85.5303
 -85.5309
 -85.5294
 -85.5324
 -85.4722
 -85.4683
 -85.4699
 -85.4711
 -85.5037
 -85.5077
 -85.5051
 -85.5075
 -85.5848
 -85.5816
 -85.5845
 -85.5838
 -85.5144
 -85.5126
 -85.5127
 -85.5111
 -85.4648
 -85.4633
 -85.4643
 -85.4603
 -85.5018
 -85.5015
 -85.5039
 -85.5058
 -85.4802
 -85.4824
 -85.4819
 -85.4794
 -85.5104
 -85.5064
 -85.5111
 -85.5082
 -85.4247
 -85.4215
 -85.4228
 -85.4253
 -85.5055
 -85.5058
 -85.5089
 -85.509
 -85.5478
 -85.5468
 -85.5488
 -85.5473
 -85.5385
 -85.5389
 -85.5403
 -85.539
 -85.579
 -85.575
 -85.5784
 -85.5766
 -85.4873
 -85.4866
 -85.4896
 -85.4874
 -85.4779
 -85.4803
 -85.478
 -85.4838
 -85.577
 -85.574
 -85.5772
 -85.5767
 -85.4813
 -85.481
 -85.4848
 -85.4814
 -85.571
 -85.5699
 -85.5723
 -85.5698
 -85.5262
 -85.5307
 -85.5278
 -85.5296
 -85.5169
 -85.512
 -85.5168
 -85.5175
 -85.4789
 -85.482
 -85.4812
 -85.4786
 -85.5122
 -85.5119
 -85.5153
 -85.5115
 -85.5726
 -85.5713
 -85.5729
 -85.5729
 -85.3809
 -85.3815
 -85.3824
 -85.3781
 -85.4628
 -85.4623
 -85.4623
 -85.4629
 -85.4619
 -85.4623
 -85.4618
 -85.4596
 -85.4913
 -85.4926
 -85.4898
 -85.4944
 -85.504
 -85.5015
 -85.5037
 -85.5021
 -85.4883
 -85.4865
 -85.4853
 -85.4889
 -85.5849
 -85.5838
 -85.5871
 -85.5831
 -85.477
 -85.4751
 -85.4757
 -85.4792
 -85.5428
 -85.5434
 -85.5447
 -85.5417
 -85.5164
 -85.5642
 -85.561
 -85.5621
 -85.562
 -85.5373
 -85.5394
 -85.5414
 -85.5401
 -85.4542
 -85.4569
 -85.4578
 -85.4558
 -85.4949
 -85.4933
 -85.4956
 -85.498
 -85.4828
 -85.4793
 -85.4819
 -85.4828
 -85.5691
 -85.5667
 -85.5668
 -85.567
 -85.5074
 -85.502
 -85.5058
 -85.5043
 -85.5721
 -85.5728
 -85.5698
 -85.5696
 -85.5507
 -85.5525
 -85.5498
 -85.5535
 -85.4553
 -85.4571
 -85.4558
 -85.4592
 -85.4756
 -85.4719
 -85.4784
 -85.4759
 -85.5483
 -85.5503
 -85.5503
 -85.5482
 -85.5126
 -85.5082
 -85.5119
 -85.4636
 -85.4615
 -85.4626
 -85.4651
 -85.5439
 -85.5393
 -85.5421
 -85.5393
 -85.4833
 -85.4795
 -85.4796
 -85.4824
 -85.5138
 -85.5086
 -85.5111
 -85.5138
 -85.5772
 -85.5772
 -85.5742
 -85.5769
 -85.4903
 -85.4888
 -85.4872
 -85.49
 -85.5647
 -85.562
 -85.5645
 -85.5654
 -85.5202
 -85.5185
 -85.5206
 -85.5169
 -85.5572
 -85.5556
 -85.5534
 -85.555
 -85.5751
 -85.5752
 -85.5776
 -85.5764
 -85.4925
 -85.4921
 -85.4945
 -85.4944
 -85.3797
 -85.386
 -85.3845
 -85.3879
 -85.5864
 -85.5849
 -85.5852
 -85.5845
 -85.5417
 -85.5405
 -85.5385
 -85.5401
 -85.4681
 -85.4681
 -85.4738
 -85.4692
 -85.5022
 -85.5041
 -85.5053
 -85.5017
 -85.4304
 -85.4315
 -85.4317
 -85.4281
 -85.5729
 -85.5741
 -85.5771
 -85.5744
 -85.466
 -85.4646
 -85.4654
 -85.4657
 -85.5283
 -85.5312
 -85.5268
 -85.5291
 -85.4733
 -85.467
 -85.4716
 -85.4724
 -85.5899
 -85.5893
 -85.5897
 -85.5871
 -85.5889
 -85.5887
 -85.5872
 -85.5862
 -85.5508
 -85.5478
 -85.547
 -85.5513
 -85.5314
 -85.5326
 -85.5314
 -85.5289
 -85.5324
 -85.464
 -85.4647
 -85.4601
 -85.4632
 -85.4719
 -85.4704
 -85.4694
 -85.4731
 -85.5445
 -85.5475
 -85.5477
 -85.5475
 -85.469
 -85.4713
 -85.4713
 -85.469
 -85.4795
 -85.4788
 -85.4781
 -85.4817
 -85.5488
 -85.55
 -85.5492
 -85.5465
 -85.4948
 -85.4988
 -85.4948
 -85.4987
 -85.547
 -85.5473
 -85.5479
 -85.55
 -85.4827
 -85.4822
 -85.4793
 -85.4826
 -85.4923
 -85.4952
 -85.4951
 -85.4956
 -85.5088
 -85.5115
 -85.5072
 -85.5109
 -85.5307
 -85.5342
 -85.5318
 -85.5352
 -85.5603
 -85.5589
 -85.5627
 -85.5627
 -85.5258
 -85.5249
 -85.5231
 -85.5234
 -85.526
 -85.5273
 -85.5285
 -85.5275
 -85.4554
 -85.4554
 -85.457
 -85.4581
 -85.5426
 -85.5434
 -85.5443
 -85.5438
 -85.5177
 -85.5185
 -85.5198
 -85.5173
 -85.5235
 -85.5237
 -85.5214
 -85.5234
 -85.4977
 -85.4987
 -85.4948
 -85.497
 -85.4632
 -85.4628
 -85.4646
 -85.4605
 -85.5561
 -85.5561
 -85.5581
 -85.5577
 -85.4647
 -85.4619
 -85.4632
 -85.4668
 -85.5863
 -85.5862
 -85.5885
 -85.5873
 -85.5659
 -85.5639
 -85.5675
 -85.5664
 -85.5678
 -85.5678
 -85.5678
 -85.567
 -85.566
 -85.5655
 -85.565
 -85.5676
 -85.5509
 -85.5521
 -85.5492
 -85.5523
 -85.4365
 -85.4343
 -85.43
 -85.5252
 -85.521
 -85.5248
 -85.5236
 -85.5627
 -85.5618
 -85.5608
 -85.5628
 -85.4964
 -85.4928
 -85.4949
 -85.4959
 -85.4831
 -85.4837
 -85.4819
 -85.4844
 -85.5527
 -85.5531
 -85.5557
 -85.5502
 -85.5073
 -85.5061
 -85.5082
 -85.5103
 -85.4862
 -85.4864
 -85.4856
 -85.4847
 -85.5836
 -85.586
 -85.539
 -85.5382
 -85.5355
 -85.5353
 -85.51
 -85.5097
 -85.5074
 -85.5304
 -85.531
 -85.5301
 -85.5278
 -85.4427
 -85.4419
 -85.446
 -85.4457
 -85.5649
 -85.5671
 -85.5668
 -85.5644
 -85.5299
 -85.529
 -85.5273
 -85.5275
 -85.4958
 -85.4927
 -85.4941
 -85.4969
 -85.5224
 -85.5187
 -85.52
 -85.5214
 -85.4678
 -85.4668
 -85.4682
 -85.4676
 -85.4578
 -85.4629
 -85.4593
 -85.4603
 -85.5061
 -85.5089
 -85.5098
 -85.5079
 -85.4663
 -85.4656
 -85.466
 -85.4691
 -85.5105
 -85.5087
 -85.5094
 -85.508
 -85.5681
 -85.5678
 -85.5649
 -85.5645
 -85.4709
 -85.4725
 -85.4737
 -85.4722
 -85.4105
 -85.4146
 -85.4106
 -85.4134
 -85.5344
 -85.5288
 -85.5327
 -85.5331
 -85.5025
 -85.5048
 -85.5018
 -85.505
 -85.4675
 -85.4668
 -85.4696
 -85.4688
 -85.5116
 -85.5092
 -85.5125
 -85.5127
 -85.5796
 -85.5787
 -85.5802
 -85.5797
 -85.4801
 -85.48
 -85.4784
 -85.4802
 -85.5368
 -85.5341
 -85.534
 -85.5335
 -85.5009
 -85.5042
 -85.5016
 -85.5066
 -85.5499
 -85.5514
 -85.5509
 -85.5534
 -85.5688
 -85.5682
 -85.5697
 -85.5675
 -85.4691
 -85.4717
 -85.4698
 -85.4749
 -85.4896
 -85.4919
 -85.4913
 -85.4907
 -85.5301
 -85.5297
 -85.5258
 -85.5281
 -85.4663
 -85.467
 -85.4669
 -85.4679
 -85.3836
 -85.3805
 -85.381
 -85.3829
 -85.5214
 -85.5184
 -85.5186
 -85.5177
 -85.3748
 -85.3741
 -85.3748
 -85.3781
 -85.3826
 -85.3876
 -85.3866
 -85.384
 -85.4439
 -85.4467
 -85.4458
 -85.4428
 -85.542
 -85.5399
 -85.538
 -85.5367
 -85.5411
 -85.5429
 -85.5434
 -85.5451
 -85.5454
 -85.5436
 -85.5452
 -85.542
 -85.5359
 -85.5326
 -85.5334
 -85.5365
 -85.4294
 -85.4264
 -85.429
 -85.4281
 -85.4723
 -85.4709
 -85.4742
 -85.4728
 -85.4678
 -85.4644
 -85.4657
 -85.4648
 -85.4956
 -85.4994
 -85.4959
 -85.4998
 -85.5252
 -85.5233
 -85.5255
 -85.5238
 -85.5504
 -85.5494
 -85.5482
 -85.5504
 -85.4762
 -85.48
 -85.4816
 -85.4778
 -85.5424
 -85.5136
 -85.5161
 -85.5164
 -85.5148
 -85.5882
 -85.5888
 -85.5909
 -85.5896
 -85.5065
 -85.5074
 -85.5092
 -85.507
 -85.574
 -85.5769
 -85.5746
 -85.4706
 -85.4721
 -85.4734
 -85.4701
 -85.3954
 -85.3991
 -85.3974
 -85.3993
 -85.513
 -85.513
 -85.5173
 -85.5112
 -85.4975
 -85.4928
 -85.4933
 -85.4933
 -85.4665
 -85.4685
 -85.4706
 -85.4718
 -85.4707
 -85.4719
 -85.4693
 -85.4723
 -85.4396
 -85.4358
 -85.4384
 -85.4383
 -85.5304
 -85.5295
 -85.5314
 -85.5359
 -85.5138
 -85.5175
 -85.513
 -85.5157
 -85.4891
 -85.4861
 -85.4894
 -85.4877
 -85.5066
 -85.5044
 -85.5105
 -85.553
 -85.5516
 -85.5511
 -85.4768
 -85.4775
 -85.4729
 -85.4722
 -85.4476
 -85.4465
 -85.4465
 -85.4474
 -85.4828
 -85.4852
 -85.4847
 -85.4821
 -85.4467
 -85.4432
 -85.4479
 -85.4421
 -85.559
 -85.5623
 -85.5599
 -85.5608
 -85.5504
 -85.5518
 -85.5525
 -85.5544
 -85.4668
 -85.4658
 -85.4663
 -85.4657
 -85.4337
 -85.4283
 -85.4322
 -85.4334
 -85.5217
 -85.5174
 -85.5212
 -85.5195
 -85.5822
 -85.5797
 -85.5827
 -85.5801
 -85.4448
 -85.4445
 -85.4427
 -85.4447
 -85.5406
 -85.5379
 -85.5373
 -85.5413
 -85.4097
 -85.4071
 -85.4095
 -85.4076
 -85.5499
 -85.5513
 -85.5494
 -85.5536
 -85.4982
 -85.4952
 -85.4998
 -85.4944
 -85.5593
 -85.5596
 -85.5617
 -85.5619
 -85.4697
 -85.4706
 -85.4711
 -85.4737
 -85.4918
 -85.4891
 -85.4893
 -85.4892
 -85.476
 -85.4747
 -85.4785
 -85.4783
 -85.4829
 -85.4817
 -85.4857
 -85.4798
 -85.5217
 -85.5238
 -85.5231
 -85.5201
 -85.5052
 -85.5026
 -85.5059
 -85.5058
 -85.5621
 -85.5599
 -85.5578
 -85.5582
 -85.5858
 -85.5873
 -85.5839
 -85.5841
 -85.5006
 -85.5002
 -85.4977
 -85.4998
 -85.5673
 -85.5662
 -85.5656
 -85.5688
 -85.5464
 -85.5501
 -85.552
 -85.5493
 -85.4247
 -85.423
 -85.4191
 -85.4245
 -85.4609
 -85.467
 -85.4654
 -85.4637
 -85.4972
 -85.495
 -85.4941
 -85.4951
 -85.4404
 -85.438
 -85.4374
 -85.4351
 -85.5244
 -85.5279
 -85.5274
 -85.5262
 -85.5575
 -85.5625
 -85.5599
 -85.56
 -85.4429
 -85.4482
 -85.4429
 -85.4428
 -85.5078
 -85.5106
 -85.5086
 -85.5092
 -85.4848
 -85.4846
 -85.4847
 -85.483
 -85.3841
 -85.3874
 -85.387
 -85.3839
 -85.4946
 -85.4941
 -85.4934
 -85.4969
 -85.5156
 -85.5179
 -85.5176
 -85.5181
 -85.5487
 -85.5518
 -85.5498
 -85.5526
 -85.4821
 -85.4831
 -85.4841
 -85.5152
 -85.5145
 -85.5134
 -85.5149
 -85.4891
 -85.4892
 -85.4932
 -85.4904
 -85.5417
 -85.5388
 -85.5409
 -85.5405
 -85.5405
 -85.5438
 -85.5435
 -85.5424
 -85.5709
 -85.5687
 -85.5702
 -85.5676
 -85.4735
 -85.4743
 -85.4764
 -85.4736
 -85.5802
 -85.5812
 -85.5822
 -85.5807
 -85.4791
 -85.4819
 -85.4797
 -85.4783
 -85.5132
 -85.517
 -85.5166
 -85.5189
 -85.5195
 -85.5164
 -85.5168
 -85.5154
 -85.379
 -85.3755
 -85.3785
 -85.3785
 -85.4867
 -85.4844
 -85.4869
 -85.4873
 -85.5104
 -85.51
 -85.5129
 -85.5166
 -85.5085
 -85.5097
 -85.5097
 -85.5062
 -85.5869
 -85.5868
 -85.5848
 -85.5867
 -85.4788
 -85.482
 -85.4838
 -85.4799
 -85.4844
 -85.4824
 -85.4855
 -85.4816
 -85.5488
 -85.5513
 -85.549
 -85.5509
 -85.4697
 -85.4689
 -85.4669
 -85.4664
 -85.4681
 -85.4673
 -85.4693
 -85.4671
 -85.5383
 -85.5342
 -85.538
 -85.5359
 -85.5423
 -85.542
 -85.5395
 -85.5421
 -85.5215
 -85.5215
 -85.5257
 -85.5246
 -85.4816
 -85.4801
 -85.5323
 -85.53
 -85.5341
 -85.5307
 -85.4837
 -85.4855
 -85.4839
 -85.4845
 -85.5021
 -85.5055
 -85.5065
 -85.5049
 -85.5744
 -85.5731
 -85.5719
 -85.5751
 -85.5026
 -85.5036
 -85.5054
 -85.506
 -85.554
 -85.556
 -85.5574
 -85.553
 -85.4746
 -85.4806
 -85.4785
 -85.4802
 -85.4968
 -85.4942
 -85.4933
 -85.4951
 -85.5101
 -85.5154
 -85.5125
 -85.5138
 -85.4737
 -85.4711
 -85.4699
 -85.4718
 -85.4123
 -85.4129
 -85.4114
 -85.4089
 -85.5825
 -85.5822
 -85.5816
 -85.5825
 -85.4455
 -85.4447
 -85.4464
 -85.4442
 -85.5265
 -85.5279
 -85.5245
 -85.5247
 -85.4116
 -85.4116
 -85.4146
 -85.4107
 -85.5313
 -85.534
 -85.5317
 -85.5314
 -85.4803
 -85.4798
 -85.4788
 -85.4788
 -85.4802
 -85.4809
 -85.4779
 -85.4796
 -85.5193
 -85.5207
 -85.5166
 -85.5193
 -85.5628
 -85.5596
 -85.562
 -85.5591
 -85.4946
 -85.4989
 -85.4979
 -85.4986
 -85.4663
 -85.4653
 -85.4664
 -85.4676
 -85.5612
 -85.565
 -85.5629
 -85.5657
 -85.4774
 -85.4741
 -85.4788
 -85.479
 -85.4945
 -85.4981
 -85.497
 -85.4991
 -85.5473
 -85.5525
 -85.5515
 -85.5495
 -85.5175
 -85.5207
 -85.5212
 -85.5212
 -85.5059
 -85.5038
 -85.5062
 -85.5077
 -85.5739
 -85.5758
 -85.5768
 -85.5774
 -85.5657
 -85.5666
 -85.5666
 -85.5652
 -85.5266
 -85.5267
 -85.5229
 -85.5249
 -85.5057
 -85.5077
 -85.5047
 -85.5113
 -85.4871
 -85.4883
 -85.4886
 -85.4932
 -85.4626
 -85.4622
 -85.4601
 -85.553
 -85.555
 -85.5538
 -85.5566
 -85.4077
 -85.4051
 -85.4021
 -85.4022
 -85.541
 -85.5371
 -85.5392
 -85.5387
 -85.4752
 -85.4714
 -85.4733
 -85.4736
 -85.4694
 -85.4671
 -85.4679
 -85.4676
 -85.5661
 -85.5632
 -85.5649
 -85.5686
 -85.5202
 -85.5179
 -85.5212
 -85.5188
 -85.5069
 -85.5058
 -85.4832
 -85.501
 -85.5045
 -85.5004
 -85.5027
 -85.4128
 -85.4156
 -85.5374
 -85.5388
 -85.5402
 -85.4543
 -85.4565
 -85.4516
 -85.4544
 -85.5382
 -85.5348
 -85.5358
 -85.5359
 -85.4941
 -85.4975
 -85.4967
 -85.4965
 -85.4821
 -85.4866
 -85.4838
 -85.4839
 -85.5741
 -85.5743
 -85.5774
 -85.5754
 -85.4554
 -85.4583
 -85.4549
 -85.4584
 -85.5352
 -85.5356
 -85.5359
 -85.5379
 -85.578
 -85.5788
 -85.5758
 -85.5761
 -85.5165
 -85.5134
 -85.5167
 -85.5143
 -85.5349
 -85.5307
 -85.5325
 -85.5321
 -85.5105
 -85.5135
 -85.5113
 -85.5065
 -85.5894
 -85.586
 -85.5884
 -85.5854
 -85.5868
 -85.5867
 -85.5856
 -85.5844
 -85.5848
 -85.584
 -85.5837
 -85.5849
 -85.5024
 -85.4993
 -85.5021
 -85.5019
 -85.5265
 -85.5232
 -85.5243
 -85.5263
 -85.5043
 -85.5039
 -85.5014
 -85.5034
 -85.4988
 -85.4976
 -85.5022
 -85.4977
 -85.5421
 -85.5434
 -85.5439
 -85.5409
 -85.562
 -85.5656
 -85.5646
 -85.5658
 -85.5607
 -85.5618
 -85.5588
 -85.5627
 -85.5155
 -85.5174
 -85.5149
 -85.517
 -85.5088
 -85.5082
 -85.5078
 -85.5063
 -85.4789
 -85.4771
 -85.4782
 -85.4815
 -85.5496
 -85.5522
 -85.5521
 -85.5488
 -85.4408
 -85.4408
 -85.4376
 -85.4429
 -85.5565
 -85.5585
 -85.556
 -85.5551
 -85.5232
 -85.5278
 -85.5226
 -85.5266
 -85.5203
 -85.5222
 -85.5208
 -85.5191
 -85.4564
 -85.4561
 -85.454
 -85.4511
 -85.3668
 -85.3693
 -85.3663
 -85.3668
 -85.4897
 -85.4928
 -85.4896
 -85.4905
 -85.5563
 -85.5525
 -85.554
 -85.5561
 -85.4696
 -85.4671
 -85.4689
 -85.4708
 -85.5254
 -85.527
 -85.5236
 -85.5276
 -85.5304
 -85.5329
 -85.5359
 -85.5346
 -85.5483
 -85.5498
 -85.5458
 -85.5473
 -85.4343
 -85.4316
 -85.4319
 -85.4342
 -85.4376
 -85.4376
 -85.4361
 -85.4359
 -85.5553
 -85.5597
 -85.5577
 -85.5579
 -85.5431
 -85.5387
 -85.5388
 -85.5417
 -85.4887
 -85.4891
 -85.4873
 -85.4877
 -85.512
 -85.5106
 -85.5134
 -85.5152
 -85.5227
 -85.5241
 -85.523
 -85.5223
 -85.486
 -85.4842
 -85.4888
 -85.4847
 -85.5356
 -85.5339
 -85.5339
 -85.5318
 -85.5963
 -85.5945
 -85.5958
 -85.596
 -85.528
 -85.5314
 -85.5313
 -85.5335
 -85.5125
 -85.5139
 -85.5114
 -85.5159
 -85.5124
 -85.5119
 -85.5091
 -85.5124
 -85.5234
 -85.525
 -85.5234
 -85.5207
 -85.5814
 -85.5819
 -85.58
 -85.5814
 -85.5625
 -85.5602
 -85.5619
 -85.5337
 -85.5335
 -85.5357
 -85.5333
 -85.4665
 -85.4661
 -85.4685
 -85.4659
 -85.4981
 -85.4985
 -85.4958
 -85.4993
 -85.5606
 -85.5568
 -85.5567
 -85.5569
 -85.4791
 -85.48
 -85.4809
 -85.4822
 -85.4932
 -85.4904
 -85.4902
 -85.4937
 -85.4971
 -85.4957
 -85.4916
 -85.495
 -85.5406
 -85.5386
 -85.538
 -85.5376
 -85.5236
 -85.5206
 -85.5241
 -85.518
 -85.5341
 -85.5283
 -85.5303
 -85.5311
 -85.4721
 -85.4731
 -85.4738
 -85.4725
 -85.4977
 -85.5001
 -85.5008
 -85.4979
 -85.5382
 -85.5359
 -85.5386
 -85.5406
 -85.4908
 -85.4923
 -85.4942
 -85.4894
 -85.5283
 -85.531
 -85.5312
 -85.5292
 -85.4703
 -85.4695
 -85.4711
 -85.4691
 -85.5784
 -85.579
 -85.5764
 -85.5784
 -85.4775
 -85.475
 -85.4782
 -85.4796
 -85.4722
 -85.4666
 -85.47
 -85.47
 -85.5459
 -85.5459
 -85.548
 -85.5488
 -85.4785
 -85.4793
 -85.48
 -85.4795
 -85.5319
 -85.531
 -85.5322
 -85.5291
 -85.4533
 -85.4541
 -85.4497
 -85.4506
 -85.5204
 -85.5192
 -85.5201
 -85.5227
 -85.5711
 -85.5748
 -85.5714
 -85.5736
 -85.5221
 -85.5177
 -85.5175
 -85.5203
 -85.5485
 -85.55
 -85.5484
 -85.5485
 -85.5304
 -85.5289
 -85.5298
 -85.5319
 -85.5283
 -85.5296
 -85.5302
 -85.5329
 -85.5814
 -85.5814
 -85.5824
 -85.5787
 -85.4714
 -85.4701
 -85.4686
 -85.4682
 -85.4738
 -85.4724
 -85.4697
 -85.4723
 -85.5655
 -85.5653
 -85.5638
 -85.5675
 -85.5731
 -85.5746
 -85.5727
 -85.4854
 -85.4843
 -85.4841
 -85.4861
 -85.5353
 -85.5385
 -85.535
 -85.5348
 -85.5249
 -85.5262
 -85.5227
 -85.5266
 -85.4698
 -85.4726
 -85.4674
 -85.4699
 -85.5492
 -85.5513
 -85.5505
 -85.5504
 -85.5098
 -85.5059
 -85.5067
 -85.5096
 -85.52
 -85.5166
 -85.517
 -85.5162
 -85.5519
 -85.5543
 -85.5542
 -85.5536
 -85.4628
 -85.4619
 -85.4631
 -85.4644
 -85.4849
 -85.481
 -85.4823
 -85.4818
 -85.5841
 -85.5816
 -85.5839
 -85.5829
 -85.4725
 -85.4721
 -85.4729
 -85.4768
 -85.4647
 -85.4637
 -85.4642
 -85.4644
 -85.512
 -85.5128
 -85.5114
 -85.5156
 -85.4151
 -85.4164
 -85.4135
 -85.419
 -85.5175
 -85.5183
 -85.5165
 -85.518
 -85.555
 -85.554
 -85.5531
 -85.5524
 -85.5636
 -85.5617
 -85.5627
 -85.4558
 -85.4559
 -85.4578
 -85.4563
 -85.4786
 -85.4818
 -85.4775
 -85.4807
 -85.4706
 -85.4697
 -85.467
 -85.4671
 -85.4836
 -85.481
 -85.4827
 -85.4822
 -85.586
 -85.5872
 -85.5881
 -85.5874
 -85.4603
 -85.4605
 -85.4592
 -85.457
 -85.4772
 -85.4748
 -85.4769
 -85.4808
 -85.5626
 -85.5648
 -85.5628
 -85.562
 -85.4942
 -85.4937
 -85.496
 -85.4808
 -85.4778
 -85.4809
 -85.5218
 -85.5206
 -85.5175
 -85.4206
 -85.4256
 -85.4262
 -85.4223
 -85.5191
 -85.5214
 -85.5202
 -85.5224
 -85.5168
 -85.5189
 -85.5144
 -85.5147
 -85.5658
 -85.5677
 -85.5651
 -85.5648
 -85.5741
 -85.5736
 -85.5775
 -85.5736
 -85.4676
 -85.4642
 -85.464
 -85.4702
 -85.5247
 -85.5279
 -85.5284
 -85.5266
 -85.5238
 -85.5264
 -85.5277
 -85.5268
 -85.5071
 -85.5117
 -85.5096
 -85.5124
 -85.4898
 -85.4909
 -85.4918
 -85.487
 -85.525
 -85.5215
 -85.5243
 -85.5251
 -85.4723
 -85.4733
 -85.4721
 -85.4741
 -85.5717
 -85.5706
 -85.5718
 -85.5723
 -85.4847
 -85.4836
 -85.4851
 -85.4875
 -85.5631
 -85.5605
 -85.5622
 -85.5616
 -85.5772
 -85.5761
 -85.5738
 -85.5763
 -85.5775
 -85.5769
 -85.5764
 -85.5758
 -85.4777
 -85.4758
 -85.5461
 -85.5452
 -85.5435
 -85.5451
 -85.4709
 -85.4751
 -85.4734
 -85.4718
 -85.5528
 -85.5573
 -85.5561
 -85.557
 -85.5621
 -85.5606
 -85.5636
 -85.5607
 -85.4856
 -85.4884
 -85.4886
 -85.4871
 -85.5249
 -85.525
 -85.5274
 -85.5267
 -85.4831
 -85.483
 -85.4858
 -85.4833
 -85.5004
 -85.5002
 -85.501
 -85.504
 -85.3889
 -85.3947
 -85.3873
 -85.3923
 -85.5694
 -85.5679
 -85.5717
 -85.5691
 -85.4849
 -85.4825
 -85.4859
 -85.4884
 -85.4558
 -85.4533
 -85.4534
 -85.4565
 -85.5051
 -85.5033
 -85.5068
 -85.5072
 -85.4549
 -85.4498
 -85.4485
 -85.455
 -85.5037
 -85.5007
 -85.4987
 -85.5025
 -85.5446
 -85.5437
 -85.5468
 -85.5423
 -85.5095
 -85.5073
 -85.5073
 -85.5086
 -85.5665
 -85.5703
 -85.5668
 -85.5055
 -85.5087
 -85.5053
 -85.5084
 -85.3894
 -85.3871
 -85.3874
 -85.3862
 -85.5876
 -85.5881
 -85.5888
 -85.5876
 -85.5234
 -85.5224
 -85.5243
 -85.5217
 -85.5544
 -85.5527
 -85.5499
 -85.5533
 -85.4666
 -85.4694
 -85.4623
 -85.4654
 -85.489
 -85.4919
 -85.4868
 -85.4903
 -85.4897
 -85.4947
 -85.4916
 -85.4945
 -85.5755
 -85.574
 -85.5764
 -85.5778
 -85.4945
 -85.4921
 -85.4899
 -85.4912
 -85.5849
 -85.5842
 -85.5855
 -85.583
 -85.5417
 -85.5383
 -85.5385
 -85.5421
 -85.4728
 -85.4736
 -85.4746
 -85.4727
 -85.4128
 -85.414
 -85.4174
 -85.4118
 -85.5009
 -85.4962
 -85.4989
 -85.4951
 -85.5114
 -85.5117
 -85.5144
 -85.511
 -85.5462
 -85.5466
 -85.5449
 -85.5426
 -85.3937
 -85.3888
 -85.3949
 -85.3929
 -85.502
 -85.4997
 -85.5038
 -85.5025
 -85.5825
 -85.5808
 -85.5803
 -85.5807
 -85.5597
 -85.5618
 -85.5609
 -85.5599
 -85.5586
 -85.559
 -85.5611
 -85.5579
 -85.5551
 -85.553
 -85.552
 -85.5533
 -85.5593
 -85.5632
 -85.5612
 -85.5608
 -85.5322
 -85.5329
 -85.5324
 -85.5326
 -85.4765
 -85.4818
 -85.4851
 -85.4852
 -85.4838
 -85.5404
 -85.5372
 -85.5383
 -85.5375
 -85.5398
 -85.5406
 -85.5364
 -85.5371
 -85.4474
 -85.4486
 -85.4485
 -85.4474
 -85.5683
 -85.5683
 -85.5672
 -85.5685
 -85.5531
 -85.5554
 -85.5586
 -85.5567
 -85.4724
 -85.4763
 -85.4759
 -85.4763
 -85.4765
 -85.4755
 -85.4815
 -85.4836
 -85.4826
 -85.4852
 -85.4735
 -85.4697
 -85.4649
 -85.4676
 -85.5391
 -85.5422
 -85.5412
 -85.5391
 -85.5848
 -85.585
 -85.5844
 -85.5853
 -85.5136
 -85.5116
 -85.5136
 -85.5102
 -85.5749
 -85.571
 -85.5692
 -85.5693
 -85.5033
 -85.5029
 -85.5011
 -85.5043
 -85.5379
 -85.5356
 -85.5338
 -85.534
 -85.469
 -85.4682
 -85.4678
 -85.4643
 -85.526
 -85.529
 -85.5245
 -85.5268
 -85.5305
 -85.5345
 -85.5361
 -85.5314
 -85.4769
 -85.4756
 -85.4733
 -85.4745
 -85.4936
 -85.4917
 -85.4975
 -85.4948
 -85.5043
 -85.504
 -85.5011
 -85.4991
 -85.5257
 -85.5276
 -85.5263
 -85.5273
 -85.4443
 -85.4454
 -85.4466
 -85.45
 -85.5328
 -85.5296
 -85.5316
 -85.5335
 -85.4939
 -85.4902
 -85.4944
 -85.4968
 -85.5452
 -85.5442
 -85.545
 -85.5427
 -85.5649
 -85.5626
 -85.5646
 -85.5632
 -85.5788
 -85.5776
 -85.577
 -85.5779
 -85.5737
 -85.5752
 -85.5713
 -85.5869
 -85.5873
 -85.5885
 -85.5889
 -85.5579
 -85.5554
 -85.5524
 -85.5556
 -85.5104
 -85.5097
 -85.5121
 -85.5116
 -85.5756
 -85.5738
 -85.5722
 -85.5752
 -85.5192
 -85.5198
 -85.5179
 -85.5173
 -85.5267
 -85.5284
 -85.5274
 -85.5757
 -85.5774
 -85.5764
 -85.5759
 -85.5703
 -85.5683
 -85.5691
 -85.5223
 -85.5206
 -85.5236
 -85.5247
 -85.4923
 -85.4946
 -85.4921
 -85.4968
 -85.5424
 -85.5404
 -85.5395
 -85.539
 -85.5766
 -85.5782
 -85.5772
 -85.5762
 -85.4788
 -85.4782
 -85.4803
 -85.4768
 -85.5097
 -85.509
 -85.5063
 -85.5061
 -85.5135
 -85.5178
 -85.5129
 -85.5139
 -85.5452
 -85.5421
 -85.5444
 -85.5449
 -85.4802
 -85.4778
 -85.4825
 -85.4784
 -85.468
 -85.4654
 -85.4683
 -85.467
 -85.5143
 -85.5145
 -85.5139
 -85.5172
 -85.5832
 -85.5816
 -85.5815
 -85.582
 -85.4865
 -85.4829
 -85.4869
 -85.4851
 -85.4702
 -85.473
 -85.4694
 -85.4727
 -85.5326
 -85.5283
 -85.5326
 -85.5322
 -85.4827
 -85.4837
 -85.4818
 -85.4715
 -85.4737
 -85.473
 -85.5276
 -85.5261
 -85.5303
 -85.527
 -85.4725
 -85.4713
 -85.4692
 -85.4724
 -85.4741
 -85.4706
 -85.4732
 -85.4734
 -85.533
 -85.5341
 -85.5322
 -85.4728
 -85.4721
 -85.5636
 -85.5638
 -85.5683
 -85.5685
 -85.5418
 -85.5462
 -85.5463
 -85.5445
 -85.4443
 -85.4478
 -85.4416
 -85.4485
 -85.4211
 -85.4216
 -85.4182
 -85.4218
 -85.4818
 -85.4759
 -85.4795
 -85.4798
 -85.5724
 -85.5722
 -85.5734
 -85.5724
 -85.538
 -85.5358
 -85.5343
 -85.5358
 -85.4628
 -85.4625
 -85.4623
 -85.462
 -85.4838
 -85.4844
 -85.4858
 -85.4886
 -85.4856
 -85.4859
 -85.4851
 -85.4778
 -85.4802
 -85.4805
 -85.4805
 -85.4802
 -85.4778
 -85.4811
 -85.4818
 -85.4697
 -85.4669
 -85.4693
 -85.4665
 -85.5817
 -85.583
 -85.5821
 -85.5819
 -85.5749
 -85.5771
 -85.5739
 -85.5137
 -85.5116
 -85.514
 -85.5101
 -85.4805
 -85.4762
 -85.4811
 -85.4796
 -85.5882
 -85.5895
 -85.4709
 -85.4692
 -85.4696
 -85.4681
 -85.5206
 -85.5263
 -85.5226
 -85.5247
 -85.5345
 -85.5335
 -85.4728
 -85.4724
 -85.4759
 -85.4728
 -85.5774
 -85.5788
 -85.5766
 -85.5802
 -85.5851
 -85.5836
 -85.5841
 -85.5869
 -85.5053
 -85.5069
 -85.5052
 -85.4435
 -85.4463
 -85.4446
 -85.4753
 -85.4795
 -85.475
 -85.476
 -85.5505
 -85.5478
 -85.5526
 -85.548
 -85.4894
 -85.4862
 -85.4864
 -85.4836
 -85.4873
 -85.4853
 -85.4886
 -85.4844
 -85.5389
 -85.5382
 -85.5401
 -85.5433
 -85.3961
 -85.3974
 -85.3946
 -85.3913
 -85.5477
 -85.5486
 -85.551
 -85.5503
 -85.5502
 -85.5498
 -85.5521
 -85.5535
 -85.4672
 -85.4674
 -85.4633
 -85.4663
 -85.5702
 -85.5713
 -85.5717
 -85.5695
 -85.3887
 -85.3835
 -85.3851
 -85.3814
 -85.5784
 -85.5739
 -85.5741
 -85.5733
 -85.5605
 -85.5585
 -85.4837
 -85.4859
 -85.485
 -85.4876
 -85.4641
 -85.4613
 -85.4627
 -85.4652
 -85.5687
 -85.5707
 -85.5702
 -85.5695
 -85.4921
 -85.4934
 -85.4932
 -85.491
 -85.5826
 -85.581
 -85.5821
 -85.4818
 -85.4788
 -85.4776
 -85.4602
 -85.4634
 -85.4643
 -85.5787
 -85.5797
 -85.5789
 -85.5781
 -85.4831
 -85.4814
 -85.4814
 -85.4813
 -85.5698
 -85.5702
 -85.4611
 -85.4629
 -85.4605
 -85.4615
 -85.517
 -85.5201
 -85.5204
 -85.5172
 -85.4872
 -85.4852
 -85.4986
 -85.5049
 -85.504
 -85.5003
 -85.4839
 -85.4834
 -85.4838
 -85.4803
 -85.5842
 -85.5869
 -85.5836
 -85.5847
 -85.4663
 -85.4651
 -85.4657
 -85.5608
 -85.3911
 -85.3909
 -85.3911
 -85.3892
 -85.568
 -85.5686
 -85.57
 -85.5654
 -85.4871
 -85.4874
 -85.4923
 -85.4913
 -85.5463
 -85.5449
 -85.5452
 -85.5458
 -85.4835
 -85.4813
 -85.4799
 -85.483
 -85.5385
 -85.4474
 -85.4466
 -85.4466
 -85.4476
 -85.5379
 -85.538
 -85.5369
 -85.5344
 -85.5583
 -85.5598
 -85.561
 -85.5562
 -85.5585
 -85.5555
 -85.5594
 -85.5693
 -85.5716
 -85.5705
 -85.5703
 -85.4671
 -85.4683
 -85.4717
 -85.4701
 -85.5657
 -85.5657
 -85.5654
 -85.5679
 -85.4555
 -85.4548
 -85.4558
 -85.4521
 -85.5628
 -85.5644
 -85.5654
 -85.5655
 -85.5121
 -85.5103
 -85.5098
 -85.5087
 -85.5451
 -85.5471
 -85.548
 -85.5488
 -85.5221
 -85.5206
 -85.5194
 -85.5184
 -85.5782
 -85.5747
 -85.5214
 -85.5184
 -85.5185
 -85.521
 -85.4462
 -85.4451
 -85.449
 -85.4449
 -85.4538
 -85.4524
 -85.458
 -85.4533
 -85.5219
 -85.5247
 -85.5251
 -85.5254
 -85.5498
 -85.5499
 -85.549
 -85.5528
 -85.5541
 -85.5518
 -85.5531
 -85.5551
 -85.5753
 -85.5723
 -85.5733
 -85.5715
 -85.555
 -85.5583
 -85.5565
 -85.5547
 -85.4539
 -85.4542
 -85.4563
 -85.452
 -85.4708
 -85.471
 -85.4701
 -85.4753
 -85.5888
 -85.5875
 -85.587
 -85.5871
 -85.5272
 -85.5286
 -85.528
 -85.5325
 -85.475
 -85.4791
 -85.475
 -85.4784
 -85.4051
 -85.4041
 -85.4095
 -85.4032
 -85.5683
 -85.5697
 -85.567
 -85.5723
 -85.4791
 -85.4792
 -85.4803
 -85.4824
 -85.5003
 -85.5035
 -85.4983
 -85.5009
 -85.4547
 -85.4534
 -85.4543
 -85.4563
 -85.5366
 -85.5352
 -85.5366
 -85.5369
 -85.5753
 -85.5755
 -85.5746
 -85.5754
 -85.5303
 -85.5265
 -85.5276
 -85.5267
 -85.5052
 -85.5056
 -85.5093
 -85.5076
 -85.449
 -85.4507
 -85.4521
 -85.4467
 -85.5745
 -85.5416
 -85.5438
 -85.5403
 -85.5434
 -85.4995
 -85.498
 -85.4951
 -85.4961
 -85.5489
 -85.5508
 -85.5503
 -85.5526
 -85.4751
 -85.4733
 -85.4737
 -85.477
 -85.5362
 -85.538
 -85.5343
 -85.445
 -85.4493
 -85.4458
 -85.4451
 -85.5613
 -85.5562
 -85.5596
 -85.5579
 -85.4669
 -85.4665
 -85.4684
 -85.4671
 -85.5937
 -85.593
 -85.5934
 -85.5946
 -85.4803
 -85.4808
 -85.4812
 -85.4807
 -85.4173
 -85.4259
 -85.4251
 -85.4223
 -85.442
 -85.4416
 -85.4451
 -85.4442
 -85.5887
 -85.5877
 -85.5868
 -85.5863
 -85.58
 -85.5796
 -85.5811
 -85.5814
 -85.5137
 -85.5167
 -85.5157
 -85.5167
 -85.4827
 -85.482
 -85.4842
 -85.5221
 -85.5222
 -85.5176
 -85.5195
 -85.5413
 -85.5397
 -85.5434
 -85.5435
 -85.5209
 -85.5269
 -85.525
 -85.5244
 -85.5166
 -85.5178
 -85.5225
 -85.52
 -85.5864
 -85.5846
 -85.5849
 -85.584
 -85.4723
 -85.4714
 -85.4751
 -85.4723
 -85.4424
 -85.4362
 -85.4368
 -85.549
 -85.5466
 -85.548
 -85.5468
 -85.5678
 -85.5702
 -85.5683
 -85.5677
 -85.4773
 -85.476
 -85.478
 -85.4732
 -85.4738
 -85.4751
 -85.4712
 -85.5716
 -85.5701
 -85.5725
 -85.5686
 -85.5091
 -85.5086
 -85.5113
 -85.5088
 -85.4743
 -85.4707
 -85.4736
 -85.4738
 -85.4996
 -85.4977
 -85.498
 -85.5003
 -85.562
 -85.5616
 -85.5593
 -85.5616
 -85.4755
 -85.4799
 -85.4732
 -85.4792
 -85.5027
 -85.4978
 -85.4994
 -85.5009
 -85.4873
 -85.4902
 -85.4878
 -85.5799
 -85.5795
 -85.5778
 -85.5784
 -85.5097
 -85.5103
 -85.5079
 -85.5114
 -85.5889
 -85.5883
 -85.5913
 -85.5202
 -85.5217
 -85.5213
 -85.5201
 -85.4486
 -85.4515
 -85.4468
 -85.4481
 -85.5306
 -85.5314
 -85.5336
 -85.5361
 -85.5149
 -85.5191
 -85.5137
 -85.4786
 -85.4797
 -85.4826
 -85.4803
 -85.4656
 -85.4663
 -85.4648
 -85.4669
 -85.4783
 -85.4797
 -85.482
 -85.4776
 -85.4146
 -85.4149
 -85.4197
 -85.4201
 -85.4937
 -85.4928
 -85.4912
 -85.4911
 -85.4877
 -85.4865
 -85.491
 -85.4858
 -85.5726
 -85.5694
 -85.57
 -85.574
 -85.4611
 -85.4654
 -85.464
 -85.463
 -85.5392
 -85.5377
 -85.54
 -85.5409
 -85.5817
 -85.582
 -85.5806
 -85.5795
 -85.5825
 -85.5796
 -85.5811
 -85.5821
 -85.5588
 -85.5608
 -85.5587
 -85.5601
 -85.5839
 -85.5864
 -85.5862
 -85.5822
 -85.5742
 -85.5748
 -85.5745
 -85.5891
 -85.5856
 -85.5868
 -85.5867
 -85.455
 -85.4533
 -85.4548
 -85.4523
 -85.4988
 -85.4956
 -85.4941
 -85.4961
 -85.4883
 -85.4922
 -85.4894
 -85.4926
 -85.494
 -85.4924
 -85.492
 -85.4912
 -85.5774
 -85.5752
 -85.5767
 -85.5774
 -85.4988
 -85.4991
 -85.4961
 -85.4947
 -85.4787
 -85.475
 -85.475
 -85.4775
 -85.5434
 -85.5425
 -85.5457
 -85.5416
 -85.4813
 -85.4848
 -85.4812
 -85.4834
 -85.5505
 -85.5483
 -85.5479
 -85.5215
 -85.5249
 -85.5249
 -85.5701
 -85.5674
 -85.5683
 -85.5687
 -85.4998
 -85.5011
 -85.4987
 -85.4987
 -85.5367
 -85.5341
 -85.5348
 -85.5372
 -85.4924
 -85.4882
 -85.4904
 -85.4931
 -85.5895
 -85.5884
 -85.5823
 -85.5812
 -85.5803
 -85.5828
 -85.4506
 -85.4497
 -85.4499
 -85.4483
 -85.5379
 -85.5405
 -85.5409
 -85.5428
 -85.4782
 -85.4824
 -85.4793
 -85.4768
 -85.3753
 -85.368
 -85.3746
 -85.3723
 -85.4814
 -85.4803
 -85.4783
 -85.48
 -85.549
 -85.5463
 -85.5486
 -85.4617
 -85.4612
 -85.4651
 -85.4648
 -85.5805
 -85.5782
 -85.5812
 -85.5791
 -85.4824
 -85.4837
 -85.4825
 -85.4838
 -85.5363
 -85.539
 -85.5374
 -85.5366
 -85.4503
 -85.452
 -85.4481
 -85.4508
 -85.4032
 -85.4025
 -85.4051
 -85.4062
 -85.4755
 -85.478
 -85.4753
 -85.4747
 -85.4956
 -85.4943
 -85.4967
 -85.5247
 -85.5201
 -85.5253
 -85.5234
 -85.4683
 -85.4681
 -85.4643
 -85.5508
 -85.5498
 -85.5515
 -85.5534
 -85.5593
 -85.5635
 -85.5596
 -85.5631
 -85.5462
 -85.5436
 -85.5459
 -85.5462
 -85.5785
 -85.5733
 -85.5754
 -85.576
 -85.5566
 -85.5541
 -85.5554
 -85.486
 -85.4883
 -85.4879
 -85.4895
 -85.553
 -85.5505
 -85.5417
 -85.5385
 -85.5376
 -85.5405
 -85.5488
 -85.5476
 -85.5478
 -85.5498
 -85.4771
 -85.4788
 -85.478
 -85.4747
 -85.4794
 -85.4818
 -85.4793
 -85.4816
 -85.3771
 -85.3798
 -85.3807
 -85.3786
 -85.479
 -85.4811
 -85.479
 -85.4869
 -85.4854
 -85.4849
 -85.4859
 -85.5142
 -85.514
 -85.5122
 -85.5116
 -85.4872
 -85.4907
 -85.491
 -85.4887
 -85.4508
 -85.4529
 -85.4506
 -85.4502
 -85.5597
 -85.5564
 -85.5594
 -85.5568
 -85.5123
 -85.5146
 -85.5119
 -85.5101
 -85.5778
 -85.5779
 -85.577
 -85.5782
 -85.5283
 -85.5253
 -85.528
 -85.5263
 -85.5756
 -85.5766
 -85.5758
 -85.4103
 -85.4143
 -85.4125
 -85.4133
 -85.5468
 -85.551
 -85.5475
 -85.5479
 -85.5042
 -85.5013
 -85.5047
 -85.5032
 -85.4713
 -85.4693
 -85.4911
 -85.4916
 -85.4933
 -85.4925
 -85.5024
 -85.4988
 -85.5
 -85.5714
 -85.5722
 -85.5702
 -85.5718
 -85.5725
 -85.571
 -85.569
 -85.5702
 -85.4718
 -85.4706
 -85.4724
 -85.4713
 -85.5098
 -85.5084
 -85.4815
 -85.4849
 -85.4828
 -85.48
 -85.5538
 -85.5521
 -85.5562
 -85.5562
 -85.4475
 -85.4473
 -85.447
 -85.4483
 -85.4756
 -85.477
 -85.4743
 -85.4741
 -85.4812
 -85.4844
 -85.4859
 -85.4843
 -85.5194
 -85.5186
 -85.5194
 -85.5233
 -85.5515
 -85.5509
 -85.5492
 -85.5494
 -85.5564
 -85.5535
 -85.5516
 -85.5546
 -85.3929
 -85.3922
 -85.3911
 -85.3895
 -85.4629
 -85.4658
 -85.4669
 -85.5252
 -85.5201
 -85.5231
 -85.5291
 -85.5322
 -85.529
 -85.5324
 -85.5759
 -85.5773
 -85.5762
 -85.5782
 -85.5092
 -85.4798
 -85.4796
 -85.4759
 -85.4772
 -85.5382
 -85.5363
 -85.5336
 -85.5352
 -85.5585
 -85.5556
 -85.5562
 -85.5592
 -85.5681
 -85.5688
 -85.4722
 -85.4711
 -85.4696
 -85.4691
 -85.5155
 -85.5181
 -85.517
 -85.5187
 -85.4639
 -85.4631
 -85.4638
 -85.4647
 -85.5302
 -85.4951
 -85.4928
 -85.4982
 -85.4996
 -85.4888
 -85.491
 -85.4921
 -85.4903
 -85.5771
 -85.574
 -85.5808
 -85.5824
 -85.5826
 -85.5815
 -85.4278
 -85.4257
 -85.4267
 -85.4283
 -85.5554
 -85.5561
 -85.5527
 -85.5574
 -85.5303
 -85.5262
 -85.5274
 -85.5306
 -85.4003
 -85.4016
 -85.4017
 -85.399
 -85.5142
 -85.5144
 -85.5159
 -85.5126
 -85.5117
 -85.508
 -85.5062
 -85.5069
 -85.4691
 -85.4654
 -85.4695
 -85.4681
 -85.5878
 -85.5891
 -85.5894
 -85.5894
 -85.5079
 -85.5046
 -85.505
 -85.4843
 -85.4879
 -85.4876
 -85.4846
 -85.5834
 -85.5865
 -85.5844
 -85.5849
 -85.4845
 -85.4826
 -85.4797
 -85.4858
 -85.5031
 -85.5054
 -85.5627
 -85.5633
 -85.5653
 -85.5608
 -85.5247
 -85.5248
 -85.5285
 -85.5279
 -85.5798
 -85.5782
 -85.5802
 -85.5794
 -85.5067
 -85.5115
 -85.4774
 -85.4787
 -85.4795
 -85.4792
 -85.4848
 -85.485
 -85.4869
 -85.4881
 -85.5659
 -85.5658
 -85.5627
 -85.5637
 -85.5585
 -85.5575
 -85.5592
 -85.5596
 -85.5537
 -85.5499
 -85.5535
 -85.552
 -85.4879
 -85.4918
 -85.4901
 -85.4878
 -85.4287
 -85.4264
 -85.4281
 -85.4288
 -85.5833
 -85.5853
 -85.5834
 -85.5842
 -85.4676
 -85.4681
 -85.4687
 -85.4707
 -85.5221
 -85.5241
 -85.5255
 -85.5223
 -85.4922
 -85.4977
 -85.494
 -85.4958
 -85.5214
 -85.5177
 -85.5207
 -85.536
 -85.5395
 -85.5359
 -85.5396
 -85.5142
 -85.5169
 -85.5149
 -85.5128
 -85.5473
 -85.5483
 -85.5507
 -85.5465
 -85.547
 -85.5463
 -85.5475
 -85.5429
 -85.3992
 -85.4057
 -85.3998
 -85.4506
 -85.4547
 -85.4559
 -85.4545
 -85.5212
 -85.5189
 -85.5199
 -85.5197
 -85.5639
 -85.5661
 -85.5645
 -85.5667
 -85.4777
 -85.4737
 -85.4776
 -85.483
 -85.4847
 -85.4847
 -85.5322
 -85.531
 -85.5332
 -85.5332
 -85.5202
 -85.5227
 -85.5241
 -85.5244
 -85.5954
 -85.5951
 -85.5944
 -85.5956
 -85.4417
 -85.4429
 -85.4405
 -85.4358
 -85.5519
 -85.5536
 -85.4969
 -85.5008
 -85.5007
 -85.4977
 -85.545
 -85.5466
 -85.5465
 -85.5473
 -85.5275
 -85.5285
 -85.5307
 -85.5288
 -85.5017
 -85.5014
 -85.5045
 -85.4992
 -85.5418
 -85.5444
 -85.5432
 -85.544
 -85.4722
 -85.4732
 -85.4733
 -85.4754
 -85.4604
 -85.4584
 -85.4609
 -85.4596
 -85.5601
 -85.5612
 -85.564
 -85.5671
 -85.5203
 -85.5223
 -85.5246
 -85.42
 -85.4188
 -85.4213
 -85.5676
 -85.5694
 -85.5698
 -85.5704
 -85.5721
 -85.5713
 -85.5699
 -85.5694
 -85.5143
 -85.5153
 -85.5165
 -85.5175
 -85.5763
 -85.5777
 -85.5776
 -85.5774
 -85.5792
 -85.5818
 -85.5797
 -85.5823
 -85.5014
 -85.503
 -85.5056
 -85.5023
 -85.5565
 -85.5579
 -85.5591
 -85.5588
 -85.5942
 -85.5944
 -85.5935
 -85.595
 -85.5559
 -85.5556
 -85.5542
 -85.5578
 -85.5232
 -85.5194
 -85.5209
 -85.5177
 -85.5653
 -85.5658
 -85.564
 -85.5633
 -85.5469
 -85.546
 -85.5483
 -85.533
 -85.5357
 -85.4316
 -85.4329
 -85.4308
 -85.4296
 -85.5313
 -85.5345
 -85.5334
 -85.5333
 -85.4343
 -85.4353
 -85.4359
 -85.4362
 -85.4342
 -85.433
 -85.4378
 -85.4378
 -85.5257
 -85.5275
 -85.5276
 -85.5249
 -85.4964
 -85.4965
 -85.4937
 -85.4973
 -85.5369
 -85.5403
 -85.5393
 -85.539
 -85.5179
 -85.5155
 -85.4559
 -85.4544
 -85.4552
 -85.4575
 -85.5832
 -85.5843
 -85.5851
 -85.5841
 -85.4976
 -85.4956
 -85.5008
 -85.4984
 -85.565
 -85.5639
 -85.562
 -85.5639
 -85.4566
 -85.4537
 -85.4562
 -85.4548
 -85.5728
 -85.5758
 -85.5751
 -85.5754
 -85.5316
 -85.5279
 -85.5311
 -85.531
 -85.4798
 -85.476
 -85.4735
 -85.4754
 -85.5937
 -85.5932
 -85.5933
 -85.5924
 -85.4893
 -85.4925
 -85.4898
 -85.4895
 -85.5011
 -85.4966
 -85.4999
 -85.4971
 -85.5852
 -85.5856
 -85.5839
 -85.5863
 -85.5141
 -85.5095
 -85.5112
 -85.5112
 -85.567
 -85.5687
 -85.5673
 -85.5667
 -85.5639
 -85.5619
 -85.5626
 -85.5039
 -85.4989
 -85.5005
 -85.5008
 -85.5643
 -85.5664
 -85.5648
 -85.5657
 -85.4697
 -85.4727
 -85.4723
 -85.4697
 -85.5715
 -85.573
 -85.5729
 -85.572
 -85.5702
 -85.5693
 -85.5705
 -85.5697
 -85.4738
 -85.4728
 -85.4783
 -85.4754
 -85.4776
 -85.477
 -85.4798
 -85.4757
 -85.3593
 -85.3601
 -85.3573
 -85.3583
 -85.5536
 -85.5504
 -85.5507
 -85.4349
 -85.4395
 -85.4405
 -85.4375
 -85.5811
 -85.579
 -85.5796
 -85.5797
 -85.4716
 -85.5662
 -85.5633
 -85.5636
 -85.5656
 -85.5666
 -85.5637
 -85.5644
 -85.3903
 -85.3868
 -85.3884
 -85.3898
 -85.3822
 -85.3839
 -85.3823
 -85.381
 -85.5785
 -85.5762
 -85.5779
 -85.5796
 -85.4773
 -85.476
 -85.4786
 -85.4753
 -85.5457
 -85.5447
 -85.5475
 -85.4916
 -85.4889
 -85.4915
 -85.4876
 -85.5043
 -85.5045
 -85.504
 -85.5652
 -85.5644
 -85.5679
 -85.5308
 -85.5336
 -85.5335
 -85.531
 -85.4932
 -85.4896
 -85.4899
 -85.4925
 -85.4754
 -85.4767
 -85.475
 -85.4763
 -85.5462
 -85.5482
 -85.5484
 -85.4524
 -85.4548
 -85.4492
 -85.4487
 -85.4753
 -85.4807
 -85.4763
 -85.5005
 -85.5061
 -85.5045
 -85.503
 -85.4673
 -85.4706
 -85.4708
 -85.4695
 -85.4758
 -85.4792
 -85.4801
 -85.4789
 -85.5671
 -85.565
 -85.5656
 -85.5652
 -85.5083
 -85.5055
 -85.5071
 -85.5092
 -85.4848
 -85.485
 -85.5226
 -85.5206
 -85.5218
 -85.5186
 -85.5745
 -85.5819
 -85.5826
 -85.5823
 -85.5819
 -85.3537
 -85.3531
 -85.3529
 -85.3539
 -85.5603
 -85.5632
 -85.561
 -85.5892
 -85.5889
 -85.5879
 -85.5889
 -85.5544
 -85.5507
 -85.5522
 -85.5511
 -85.4738
 -85.4748
 -85.4766
 -85.474
 -85.5056
 -85.503
 -85.5026
 -85.5014
 -85.5906
 -85.5907
 -85.5903
 -85.5898
 -85.5536
 -85.5513
 -85.5496
 -85.5518
 -85.4506
 -85.4477
 -85.4473
 -85.4527
 -85.501
 -85.5009
 -85.5018
 -85.4964
 -85.4979
 -85.4995
 -85.5009
 -85.498
 -85.354
 -85.3534
 -85.3534
 -85.3542
 -85.4695
 -85.4689
 -85.4683
 -85.4706
 -85.5542
 -85.5579
 -85.5547
 -85.5561
 -85.5327
 -85.5325
 -85.5357
 -85.5317
 -85.5094
 -85.5112
 -85.5143
 -85.5112
 -85.5492
 -85.5524
 -85.551
 -85.5513
 -85.5332
 -85.5337
 -85.5363
 -85.5331
 -85.55
 -85.5495
 -85.5479
 -85.5527
 -85.5939
 -85.5914
 -85.592
 -85.5942
 -85.5591
 -85.5573
 -85.5568
 -85.5528
 -85.5467
 -85.5444
 -85.5431
 -85.5465
 -85.5438
 -85.5223
 -85.522
 -85.5199
 -85.5254
 -85.5824
 -85.5817
 -85.5812
 -85.5811
 -85.5088
 -85.5064
 -85.5094
 -85.5082
 -85.5311
 -85.5324
 -85.5339
 -85.5291
 -85.5173
 -85.5136
 -85.5163
 -85.5191
 -85.4924
 -85.4874
 -85.4914
 -85.4883
 -85.411
 -85.4128
 -85.4181
 -85.4116
 -85.5954
 -85.5932
 -85.5416
 -85.5397
 -85.5397
 -85.3675
 -85.3677
 -85.368
 -85.4813
 -85.4787
 -85.4802
 -85.4774
 -85.4325
 -85.4338
 -85.4278
 -85.4271
 -85.4631
 -85.4613
 -85.4639
 -85.4587
 -85.5816
 -85.5781
 -85.58
 -85.5799
 -85.5239
 -85.5205
 -85.5214
 -85.52
 -85.5445
 -85.5481
 -85.5475
 -85.5503
 -85.5324
 -85.5327
 -85.5296
 -85.5284
 -85.5514
 -85.5522
 -85.5501
 -85.5506
 -85.5123
 -85.5119
 -85.5656
 -85.5595
 -85.5656
 -85.5606
 -85.5514
 -85.5494
 -85.548
 -85.5529
 -85.4798
 -85.4762
 -85.4804
 -85.4769
 -85.4816
 -85.4826
 -85.4825
 -85.4829
 -85.5297
 -85.5298
 -85.5288
 -85.5311
 -85.5239
 -85.5253
 -85.5275
 -85.5295
 -85.4639
 -85.4593
 -85.4588
 -85.4639
 -85.5482
 -85.5464
 -85.5454
 -85.5448
 -85.5915
 -85.5905
 -85.5912
 -85.5908
 -85.5691
 -85.5676
 -85.5681
 -85.5671
 -85.594
 -85.5948
 -85.5935
 -85.595
 -85.573
 -85.5751
 -85.5744
 -85.5747
 -85.5207
 -85.5247
 -85.5209
 -85.5217
 -85.5471
 -85.5446
 -85.5142
 -85.518
 -85.5133
 -85.5158
 -85.4806
 -85.483
 -85.4832
 -85.4842
 -85.5584
 -85.5612
 -85.5613
 -85.5587
 -85.5128
 -85.5115
 -85.513
 -85.5094
 -85.5019
 -85.4993
 -85.4984
 -85.4999
 -85.4741
 -85.4746
 -85.4763
 -85.478
 -85.4852
 -85.4841
 -85.483
 -85.488
 -85.4745
 -85.4764
 -85.4775
 -85.4755
 -85.4178
 -85.419
 -85.4166
 -85.4169
 -85.5554
 -85.5564
 -85.5532
 -85.5557
 -85.5429
 -85.5438
 -85.423
 -85.426
 -85.4254
 -85.4208
 -85.4908
 -85.4915
 -85.5396
 -85.5376
 -85.5399
 -85.5692
 -85.5692
 -85.4691
 -85.4689
 -85.4676
 -85.4706
 -85.4227
 -85.4253
 -85.4252
 -85.426
 -85.4614
 -85.4626
 -85.4648
 -85.4659
 -85.4899
 -85.4918
 -85.4928
 -85.4937
 -85.5341
 -85.5304
 -85.5302
 -85.5308
 -85.5434
 -85.5421
 -85.5418
 -85.5411
 -85.4887
 -85.4923
 -85.4923
 -85.4914
 -85.5314
 -85.531
 -85.5322
 -85.5278
 -85.5189
 -85.5166
 -85.5159
 -85.5176
 -85.5243
 -85.5267
 -85.5284
 -85.5269
 -85.5262
 -85.5224
 -85.5268
 -85.5136
 -85.5115
 -85.5163
 -85.5143
 -85.4954
 -85.4968
 -85.4933
 -85.4944
 -85.477
 -85.4797
 -85.4755
 -85.4792
 -85.5811
 -85.5805
 -85.5819
 -85.583
 -85.5078
 -85.5075
 -85.5108
 -85.5109
 -85.4596
 -85.459
 -85.4555
 -85.4585
 -85.4508
 -85.4504
 -85.45
 -85.4486
 -85.4653
 -85.4636
 -85.4638
 -85.4646
 -85.4737
 -85.4735
 -85.4773
 -85.4779
 -85.477
 -85.475
 -85.4742
 -85.4755
 -85.5787
 -85.58
 -85.5797
 -85.58
 -85.5032
 -85.5031
 -85.5023
 -85.5056
 -85.5532
 -85.5542
 -85.5524
 -85.5515
 -85.477
 -85.4806
 -85.4757
 -85.4793
 -85.5832
 -85.5843
 -85.5839
 -85.586
 -85.5864
 -85.5863
 -85.5877
 -85.5493
 -85.5433
 -85.5453
 -85.5456
 -85.4841
 -85.4853
 -85.482
 -85.4842
 -85.591
 -85.5889
 -85.5894
 -85.4998
 -85.4968
 -85.4987
 -85.4941
 -85.5726
 -85.5731
 -85.5686
 -85.5695
 -85.5718
 -85.5689
 -85.4942
 -85.4918
 -85.493
 -85.4517
 -85.453
 -85.4488
 -85.4505
 -85.4756
 -85.4731
 -85.4765
 -85.4769
 -85.5185
 -85.5222
 -85.5179
 -85.5836
 -85.58
 -85.5804
 -85.5505
 -85.5478
 -85.5463
 -85.5481
 -85.5844
 -85.5846
 -85.5815
 -85.5867
 -85.5042
 -85.5076
 -85.5093
 -85.5065
 -85.5719
 -85.5726
 -85.574
 -85.5701
 -85.5202
 -85.5209
 -85.5185
 -85.5173
 -85.4861
 -85.4831
 -85.4849
 -85.5895
 -85.5877
 -85.5886
 -85.5911
 -85.5437
 -85.5323
 -85.5359
 -85.5352
 -85.5333
 -85.5357
 -85.5358
 -85.5334
 -85.4836
 -85.482
 -85.4816
 -85.4814
 -85.4813
 -85.4852
 -85.5066
 -85.5031
 -85.5026
 -85.5016
 -85.502
 -85.5059
 -85.5027
 -85.505
 -85.5485
 -85.5916
 -85.589
 -85.5883
 -85.5902
 -85.3987
 -85.3942
 -85.3979
 -85.3979
 -85.493
 -85.4904
 -85.4844
 -85.4832
 -85.4846
 -85.4853
 -85.4813
 -85.4816
 -85.4777
 -85.4791
 -85.5528
 -85.5496
 -85.5503
 -85.5519
 -85.5559
 -85.5577
 -85.5541
 -85.5562
 -85.4856
 -85.4826
 -85.5455
 -85.5452
 -85.5492
 -85.5467
 -85.5484
 -85.5512
 -85.5484
 -85.5279
 -85.5259
 -85.5242
 -85.5229
 -85.5082
 -85.505
 -85.5075
 -85.5051
 -85.5538
 -85.5573
 -85.5569
 -85.5546
 -85.5631
 -85.5642
 -85.5658
 -85.5636
 -85.5576
 -85.5606
 -85.5582
 -85.5559
 -85.5569
 -85.5563
 -85.5537
 -85.5064
 -85.5075
 -85.5074
 -85.5051
 -85.441
 -85.4411
 -85.443
 -85.4432
 -85.4972
 -85.4964
 -85.4949
 -85.4957
 -85.5624
 -85.56
 -85.5583
 -85.5609
 -85.5441
 -85.5435
 -85.5429
 -85.5462
 -85.4962
 -85.4983
 -85.499
 -85.4998
 -85.5448
 -85.5416
 -85.5435
 -85.5445
 -85.5262
 -85.5274
 -85.522
 -85.5269
 -85.528
 -85.5311
 -85.53
 -85.5306
 -85.5439
 -85.5453
 -85.5456
 -85.5816
 -85.5819
 -85.5809
 -85.5813
 -85.4957
 -85.4988
 -85.4972
 -85.4981
 -85.516
 -85.5195
 -85.5187
 -85.5177
 -85.4409
 -85.4382
 -85.4387
 -85.4423
 -85.4734
 -85.4758
 -85.4756
 -85.4736
 -85.4785
 -85.4728
 -85.4752
 -85.4723
 -85.4729
 -85.4744
 -85.474
 -85.4753
 -85.5248
 -85.5227
 -85.5238
 -85.4623
 -85.4618
 -85.4632
 -85.4635
 -85.4674
 -85.4687
 -85.4715
 -85.4672
 -85.589
 -85.5874
 -85.5871
 -85.5882
 -85.5273
 -85.5253
 -85.5247
 -85.5234
 -85.5651
 -85.5654
 -85.5642
 -85.5624
 -85.5332
 -85.5346
 -85.5323
 -85.5304
 -85.5431
 -85.5455
 -85.5434
 -85.5441
 -85.4819
 -85.479
 -85.4807
 -85.4765
 -85.5154
 -85.5216
 -85.5171
 -85.5174
 -85.5641
 -85.5656
 -85.5632
 -85.564
 -85.5361
 -85.5351
 -85.5388
 -85.5376
 -85.4686
 -85.4675
 -85.4717
 -85.4725
 -85.581
 -85.5818
 -85.5813
 -85.582
 -85.4972
 -85.4942
 -85.4667
 -85.5166
 -85.5182
 -85.52
 -85.5157
 -85.5078
 -85.5103
 -85.5067
 -85.5065
 -85.4285
 -85.4278
 -85.4321
 -85.4923
 -85.4895
 -85.4886
 -85.4868
 -85.5335
 -85.5387
 -85.5368
 -85.5392
 -85.5192
 -85.522
 -85.5203
 -85.5193
 -85.5758
 -85.5769
 -85.577
 -85.5764
 -85.4759
 -85.4805
 -85.4772
 -85.48
 -85.4798
 -85.479
 -85.4834
 -85.4321
 -85.4269
 -85.4294
 -85.4323
 -85.4742
 -85.4778
 -85.4755
 -85.5311
 -85.5376
 -85.5321
 -85.4734
 -85.4732
 -85.4707
 -85.4719
 -85.5077
 -85.5111
 -85.5119
 -85.5113
 -85.3543
 -85.3543
 -85.3542
 -85.356
 -85.505
 -85.5035
 -85.5043
 -85.4592
 -85.4588
 -85.4593
 -85.4595
 -85.5042
 -85.5026
 -85.4992
 -85.5023
 -85.4713
 -85.474
 -85.4739
 -85.4751
 -85.5462
 -85.5473
 -85.5454
 -85.5482
 -85.5542
 -85.5521
 -85.5543
 -85.5553
 -85.5864
 -85.5864
 -85.5872
 -85.5854
 -85.5287
 -85.5249
 -85.5285
 -85.5295
 -85.4695
 -85.4669
 -85.4691
 -85.4677
 -85.4838
 -85.4822
 -85.4475
 -85.4473
 -85.449
 -85.4487
 -85.5116
 -85.5129
 -85.4922
 -85.4972
 -85.4962
 -85.4802
 -85.4819
 -85.4835
 -85.4813
 -85.5802
 -85.5806
 -85.5775
 -85.578
 -85.5781
 -85.5774
 -85.5763
 -85.5775
 -85.4818
 -85.4834
 -85.4815
 -85.4782
 -85.4624
 -85.4631
 -85.5341
 -85.5346
 -85.5338
 -85.5369
 -85.4793
 -85.4776
 -85.4808
 -85.4802
 -85.4969
 -85.4927
 -85.5001
 -85.5943
 -85.5949
 -85.5936
 -85.5193
 -85.5232
 -85.5213
 -85.5217
 -85.5704
 -85.5732
 -85.5697
 -85.5687
 -85.5239
 -85.527
 -85.5276
 -85.5238
 -85.5531
 -85.5556
 -85.5559
 -85.5516
 -85.4688
 -85.4712
 -85.4693
 -85.4681
 -85.4758
 -85.4802
 -85.4745
 -85.4789
 -85.5257
 -85.5225
 -85.528
 -85.5242
 -85.4937
 -85.4977
 -85.4987
 -85.4933
 -85.4667
 -85.4676
 -85.4693
 -85.4721
 -85.5082
 -85.5098
 -85.512
 -85.5137
 -85.541
 -85.5416
 -85.5396
 -85.5236
 -85.5265
 -85.5246
 -85.5265
 -85.3736
 -85.3784
 -85.3797
 -85.3771
 -85.4631
 -85.4629
 -85.4635
 -85.4632
 -85.4921
 -85.4913
 -85.4919
 -85.4952
 -85.4207
 -85.4237
 -85.4184
 -85.4219
 -85.5699
 -85.5695
 -85.5676
 -85.5881
 -85.5869
 -85.5856
 -85.5868
 -85.5574
 -85.5621
 -85.56
 -85.5601
 -85.5226
 -85.5402
 -85.5437
 -85.5451
 -85.5426
 -85.5157
 -85.5181
 -85.514
 -85.5143
 -85.4595
 -85.4555
 -85.4578
 -85.479
 -85.4803
 -85.4812
 -85.4763
 -85.3771
 -85.3727
 -85.3767
 -85.3705
 -85.4292
 -85.429
 -85.431
 -85.4286
 -85.4896
 -85.4895
 -85.4918
 -85.494
 -85.5904
 -85.5879
 -85.5887
 -85.5882
 -85.3875
 -85.3868
 -85.3913
 -85.3891
 -85.5497
 -85.5519
 -85.5477
 -85.5502
 -85.5239
 -85.5242
 -85.5273
 -85.5244
 -85.4822
 -85.4765
 -85.4762
 -85.5113
 -85.5075
 -85.5067
 -85.5067
 -85.5884
 -85.5888
 -85.5893
 -85.4623
 -85.4681
 -85.469
 -85.5067
 -85.5089
 -85.5122
 -85.5116
 -85.4906
 -85.4898
 -85.4891
 -85.4879
 -85.4947
 -85.4942
 -85.4977
 -85.4986
 -85.4585
 -85.4563
 -85.4563
 -85.4602
 -85.5114
 -85.5137
 -85.5101
 -85.5143
 -85.5807
 -85.5769
 -85.5771
 -85.5754
 -85.5757
 -85.5749
 -85.574
 -85.5767
 -85.4527
 -85.4527
 -85.4538
 -85.452
 -85.5676
 -85.5683
 -85.568
 -85.5653
 -85.5783
 -85.581
 -85.58
 -85.5773
 -85.5666
 -85.5666
 -85.5634
 -85.5639
 -85.5412
 -85.5401
 -85.5426
 -85.5413
 -85.5179
 -85.5155
 -85.5193
 -85.4897
 -85.4846
 -85.4864
 -85.4871
 -85.555
 -85.5531
 -85.5507
 -85.5541
 -85.5591
 -85.5597
 -85.5614
 -85.5605
 -85.5957
 -85.5955
 -85.5938
 -85.5947
 -85.4299
 -85.4324
 -85.4315
 -85.4321
 -85.4487
 -85.4474
 -85.4479
 -85.4495
 -85.4586
 -85.4585
 -85.463
 -85.4582
 -85.4919
 -85.4874
 -85.4906
 -85.4904
 -85.4982
 -85.4986
 -85.4983
 -85.5798
 -85.5815
 -85.5838
 -85.5825
 -85.5623
 -85.5614
 -85.56
 -85.5594
 -85.5144
 -85.5122
 -85.5113
 -85.5133
 -85.5768
 -85.5786
 -85.5334
 -85.5339
 -85.5338
 -85.5308
 -85.5755
 -85.5767
 -85.5789
 -85.5767
 -85.5276
 -85.5314
 -85.5266
 -85.5321
 -85.4888
 -85.4915
 -85.4862
 -85.4886
 -85.4455
 -85.4425
 -85.445
 -85.4481
 -85.3721
 -85.3759
 -85.3699
 -85.3742
 -85.5715
 -85.57
 -85.5699
 -85.572
 -85.5761
 -85.5762
 -85.5766
 -85.5781
 -85.5039
 -85.4995
 -85.5026
 -85.5005
 -85.5222
 -85.5206
 -85.5201
 -85.5226
 -85.4766
 -85.4736
 -85.4787
 -85.5354
 -85.5332
 -85.5336
 -85.5318
 -85.4775
 -85.4768
 -85.4787
 -85.4792
 -85.5166
 -85.5132
 -85.5108
 -85.5128
 -85.5431
 -85.5414
 -85.5425
 -85.5433
 -85.5245
 -85.5235
 -85.5223
 -85.5677
 -85.565
 -85.5661
 -85.566
 -85.5379
 -85.5419
 -85.4156
 -85.4207
 -85.414
 -85.417
 -85.5558
 -85.5543
 -85.5556
 -85.4823
 -85.4833
 -85.4836
 -85.482
 -85.5381
 -85.5382
 -85.5368
 -85.516
 -85.5127
 -85.5166
 -85.5141
 -85.5358
 -85.5318
 -85.5373
 -85.5345
 -85.5381
 -85.5417
 -85.3957
 -85.3957
 -85.3933
 -85.3951
 -85.3765
 -85.3726
 -85.3699
 -85.3742
 -85.5193
 -85.5153
 -85.5168
 -85.5151
 -85.5349
 -85.5329
 -85.5348
 -85.5323
 -85.3963
 -85.3962
 -85.3964
 -85.3997
 -85.4813
 -85.4776
 -85.4549
 -85.4558
 -85.4566
 -85.4594
 -85.5391
 -85.5384
 -85.5424
 -85.5403
 -85.5328
 -85.5333
 -85.5361
 -85.5314
 -85.5363
 -85.533
 -85.5325
 -85.5328
 -85.4915
 -85.4922
 -85.4944
 -85.4914
 -85.4689
 -85.4671
 -85.4643
 -85.4693
 -85.4339
 -85.438
 -85.4375
 -85.4337
 -85.4714
 -85.4715
 -85.4717
 -85.4766
 -85.5554
 -85.5534
 -85.5564
 -85.5552
 -85.5193
 -85.5116
 -85.5156
 -85.4251
 -85.4278
 -85.4305
 -85.5455
 -85.55
 -85.5477
 -85.5478
 -85.5479
 -85.5433
 -85.5454
 -85.5469
 -85.5043
 -85.5021
 -85.5007
 -85.5099
 -85.5111
 -85.5143
 -85.5111
 -85.4703
 -85.4686
 -85.4681
 -85.4682
 -85.5663
 -85.5654
 -85.5674
 -85.5667
 -85.4652
 -85.4645
 -85.4647
 -85.4656
 -85.4596
 -85.458
 -85.4597
 -85.5867
 -85.5896
 -85.5907
 -85.5887
 -85.5648
 -85.5667
 -85.4865
 -85.4848
 -85.4881
 -85.4875
 -85.5169
 -85.5206
 -85.5172
 -85.5101
 -85.5088
 -85.5093
 -85.506
 -85.4665
 -85.4696
 -85.4679
 -85.5641
 -85.5659
 -85.5623
 -85.5631
 -85.4652
 -85.4702
 -85.4667
 -85.4657
 -85.5506
 -85.5481
 -85.5464
 -85.5472
 -85.4662
 -85.4675
 -85.4697
 -85.466
 -85.4685
 -85.4674
 -85.4829
 -85.4809
 -85.4819
 -85.4829
 -85.4312
 -85.4292
 -85.4256
 -85.4292
 -85.5566
 -85.5593
 -85.4951
 -85.497
 -85.4977
 -85.4974
 -85.5868
 -85.586
 -85.5864
 -85.5875
 -85.49
 -85.4874
 -85.4912
 -85.4943
 -85.561
 -85.5638
 -85.5645
 -85.5643
 -85.5762
 -85.5789
 -85.5749
 -85.578
 -85.55
 -85.5467
 -85.5814
 -85.5833
 -85.5826
 -85.5819
 -85.4669
 -85.467
 -85.4657
 -85.4695
 -85.5819
 -85.5824
 -85.5825
 -85.5817
 -85.5891
 -85.5913
 -85.5905
 -85.5891
 -85.5312
 -85.5313
 -85.5344
 -85.5334
 -85.5103
 -85.5087
 -85.5125
 -85.5144
 -85.5728
 -85.5697
 -85.5718
 -85.5729
 -85.4202
 -85.4246
 -85.4212
 -85.4196
 -85.5712
 -85.5745
 -85.4937
 -85.4963
 -85.4964
 -85.4999
 -85.5715
 -85.57
 -85.5678
 -85.5681
 -85.4712
 -85.4742
 -85.4736
 -85.4733
 -85.4987
 -85.4935
 -85.4954
 -85.4981
 -85.473
 -85.4719
 -85.4767
 -85.4697
 -85.4681
 -85.4697
 -85.4672
 -85.4632
 -85.4655
 -85.4646
 -85.4658
 -85.5337
 -85.5312
 -85.5304
 -85.5688
 -85.569
 -85.5711
 -85.5711
 -85.526
 -85.5242
 -85.5226
 -85.4704
 -85.4683
 -85.4699
 -85.5168
 -85.5214
 -85.5174
 -85.5204
 -85.5383
 -85.5379
 -85.5381
 -85.5418
 -85.5067
 -85.5104
 -85.5109
 -85.5097
 -85.505
 -85.5037
 -85.5024
 -85.4977
 -85.4956
 -85.4949
 -85.499
 -85.5013
 -85.5031
 -85.4976
 -85.5697
 -85.5689
 -85.5699
 -85.5674
 -85.5456
 -85.5435
 -85.5455
 -85.5466
 -85.5114
 -85.5118
 -85.51
 -85.5153
 -85.4631
 -85.4604
 -85.4628
 -85.5274
 -85.5253
 -85.5269
 -85.5279
 -85.4839
 -85.4795
 -85.4819
 -85.4794
 -85.4049
 -85.4069
 -85.4044
 -85.4032
 -85.5
 -85.4981
 -85.4995
 -85.4992
 -85.5729
 -85.5721
 -85.5747
 -85.5738
 -85.4964
 -85.4999
 -85.4978
 -85.4958
 -85.466
 -85.466
 -85.4668
 -85.4679
 -85.4687
 -85.4668
 -85.4672
 -85.509
 -85.5097
 -85.5083
 -85.5405
 -85.4954
 -85.4897
 -85.4934
 -85.4931
 -85.5769
 -85.5765
 -85.5779
 -85.5731
 -85.5736
 -85.5747
 -85.4942
 -85.4976
 -85.4951
 -85.4971
 -85.5884
 -85.5895
 -85.5901
 -85.5901
 -85.4721
 -85.5324
 -85.529
 -85.5311
 -85.5304
 -85.4713
 -85.4724
 -85.472
 -85.4728
 -85.5755
 -85.5773
 -85.5741
 -85.5758
 -85.5427
 -85.5471
 -85.5455
 -85.5435
 -85.5588
 -85.5607
 -85.557
 -85.5578
 -85.4632
 -85.4642
 -85.4652
 -85.4634
 -85.4873
 -85.4901
 -85.487
 -85.4876
 -85.5273
 -85.5251
 -85.5274
 -85.5241
 -85.4892
 -85.4853
 -85.4906
 -85.4867
 -85.5403
 -85.5418
 -85.5447
 -85.544
 -85.4734
 -85.4723
 -85.4756
 -85.4753
 -85.4844
 -85.4853
 -85.4885
 -85.4872
 -85.5322
 -85.5326
 -85.5326
 -85.5357
 -85.5759
 -85.5784
 -85.5769
 -85.5787
 -85.456
 -85.4577
 -85.46
 -85.4595
 -85.4316
 -85.4264
 -85.4317
 -85.4308
 -85.5781
 -85.5805
 -85.5793
 -85.5794
 -85.4374
 -85.4341
 -85.4366
 -85.4344
 -85.4333
 -85.4371
 -85.5179
 -85.519
 -85.5162
 -85.5148
 -85.4863
 -85.4884
 -85.4883
 -85.4853
 -85.5953
 -85.5954
 -85.5955
 -85.5946
 -85.5754
 -85.5751
 -85.5778
 -85.5416
 -85.5413
 -85.544
 -85.5405
 -85.4692
 -85.47
 -85.4671
 -85.4709
 -85.484
 -85.4834
 -85.4826
 -85.4818
 -85.4841
 -85.4858
 -85.5427
 -85.5478
 -85.5462
 -85.5439
 -85.5367
 -85.5365
 -85.5337
 -85.5374
 -85.5463
 -85.5458
 -85.543
 -85.5461
 -85.5878
 -85.5879
 -85.5847
 -85.5889
 -85.5525
 -85.5523
 -85.5495
 -85.4994
 -85.5228
 -85.5217
 -85.5225
 -85.5201
 -85.525
 -85.521
 -85.5223
 -85.5241
 -85.5666
 -85.5658
 -85.5655
 -85.5639
 -85.5532
 -85.5513
 -85.5516
 -85.5541
 -85.5354
 -85.5327
 -85.5322
 -85.492
 -85.4891
 -85.4925
 -85.4875
 -85.522
 -85.5271
 -85.5243
 -85.5245
 -85.4985
 -85.5009
 -85.4968
 -85.387
 -85.3866
 -85.3839
 -85.3886
 -85.5679
 -85.5722
 -85.5702
 -85.5673
 -85.5634
 -85.5681
 -85.5656
 -85.3923
 -85.5265
 -85.5269
 -85.5261
 -85.5298
 -85.5347
 -85.5351
 -85.4463
 -85.4464
 -85.4459
 -85.4475
 -85.4596
 -85.461
 -85.4653
 -85.4602
 -85.4783
 -85.4804
 -85.479
 -85.4796
 -85.4764
 -85.4782
 -85.4789
 -85.4757
 -85.4754
 -85.4777
 -85.4989
 -85.4959
 -85.4948
 -85.495
 -85.5027
 -85.5061
 -85.5957
 -85.5954
 -85.467
 -85.4723
 -85.4665
 -85.4698
 -85.5104
 -85.5093
 -85.5119
 -85.5077
 -85.4538
 -85.4552
 -85.4493
 -85.4508
 -85.5708
 -85.5722
 -85.5687
 -85.5702
 -85.5623
 -85.5599
 -85.5621
 -85.5597
 -85.5407
 -85.5431
 -85.5435
 -85.5418
 -85.5277
 -85.5285
 -85.533
 -85.5315
 -85.5186
 -85.5174
 -85.4668
 -85.5502
 -85.553
 -85.5529
 -85.5532
 -85.5851
 -85.5843
 -85.5872
 -85.5839
 -85.5649
 -85.568
 -85.5641
 -85.5656
 -85.3546
 -85.3545
 -85.3552
 -85.3561
 -85.5859
 -85.5864
 -85.5857
 -85.5858
 -85.4791
 -85.4792
 -85.4762
 -85.4806
 -85.4929
 -85.4892
 -85.4906
 -85.4878
 -85.5473
 -85.5477
 -85.5494
 -85.5499
 -85.5487
 -85.5476
 -85.5463
 -85.5471
 -85.4695
 -85.4735
 -85.4712
 -85.4727
 -85.5844
 -85.585
 -85.5841
 -85.5845
 -85.572
 -85.5732
 -85.5727
 -85.5741
 -85.5502
 -85.5506
 -85.5527
 -85.553
 -85.5731
 -85.571
 -85.5723
 -85.5728
 -85.4843
 -85.488
 -85.4881
 -85.489
 -85.4696
 -85.4702
 -85.4712
 -85.4718
 -85.5686
 -85.5671
 -85.566
 -85.5665
 -85.5066
 -85.5055
 -85.5048
 -85.5018
 -85.5107
 -85.5091
 -85.5083
 -85.5104
 -85.3787
 -85.3819
 -85.3824
 -85.3824
 -85.5842
 -85.5846
 -85.5752
 -85.5753
 -85.5737
 -85.5767
 -85.4534
 -85.4508
 -85.4498
 -85.4537
 -85.4883
 -85.4838
 -85.4835
 -85.4823
 -85.5727
 -85.5711
 -85.5743
 -85.5744
 -85.503
 -85.504
 -85.5023
 -85.506
 -85.496
 -85.497
 -85.4932
 -85.4935
 -85.5869
 -85.5875
 -85.5865
 -85.5863
 -85.5257
 -85.5245
 -85.5256
 -85.5269
 -85.5179
 -85.5188
 -85.5182
 -85.5158
 -85.56
 -85.5607
 -85.5617
 -85.5596
 -85.5425
 -85.5413
 -85.5404
 -85.5384
 -85.5038
 -85.5037
 -85.4999
 -85.4889
 -85.4917
 -85.49
 -85.4951
 -85.4402
 -85.4379
 -85.4381
 -85.4435
 -85.4927
 -85.4948
 -85.4954
 -85.496
 -85.5224
 -85.5206
 -85.5218
 -85.5198
 -85.5856
 -85.5864
 -85.5862
 -85.5836
 -85.495
 -85.5005
 -85.4977
 -85.4969
 -85.4538
 -85.4535
 -85.4507
 -85.4484
 -85.5477
 -85.5508
 -85.5492
 -85.5472
 -85.5362
 -85.5354
 -85.5339
 -85.522
 -85.5259
 -85.5271
 -85.528
 -85.4349
 -85.4343
 -85.4347
 -85.4377
 -85.5276
 -85.525
 -85.5257
 -85.5242
 -85.5832
 -85.5831
 -85.5834
 -85.5835
 -85.5242
 -85.5238
 -85.5251
 -85.5257
 -85.4614
 -85.4596
 -85.461
 -85.4618
 -85.4741
 -85.4764
 -85.4739
 -85.4712
 -85.596
 -85.5954
 -85.596
 -85.5959
 -85.4843
 -85.4851
 -85.4846
 -85.4797
 -85.5353
 -85.5311
 -85.5321
 -85.5337
 -85.5953
 -85.5957
 -85.5948
 -85.5944
 -85.5766
 -85.5798
 -85.5779
 -85.5488
 -85.5483
 -85.552
 -85.553
 -85.5694
 -85.5701
 -85.573
 -85.5686
 -85.4055
 -85.4085
 -85.4109
 -85.4098
 -85.4733
 -85.4773
 -85.4714
 -85.5813
 -85.5836
 -85.5831
 -85.5836
 -85.5337
 -85.5324
 -85.5356
 -85.5313
 -85.558
 -85.557
 -85.5607
 -85.5552
 -85.4575
 -85.4571
 -85.4542
 -85.453
 -85.502
 -85.5063
 -85.5017
 -85.5045
 -85.5409
 -85.5359
 -85.5377
 -85.4497
 -85.4505
 -85.4518
 -85.4518
 -85.4722
 -85.4647
 -85.4664
 -85.4653
 -85.4975
 -85.5821
 -85.5835
 -85.5824
 -85.584
 -85.4111
 -85.4107
 -85.4074
 -85.4078
 -85.5585
 -85.5632
 -85.5611
 -85.5637
 -85.5373
 -85.5352
 -85.5356
 -85.5324
 -85.3882
 -85.565
 -85.5632
 -85.5664
 -85.5811
 -85.5838
 -85.582
 -85.5822
 -85.512
 -85.5116
 -85.5169
 -85.5134
 -85.545
 -85.545
 -85.547
 -85.5435
 -85.4786
 -85.4756
 -85.5185
 -85.517
 -85.5165
 -85.5198
 -85.4782
 -85.476
 -85.474
 -85.4766
 -85.4892
 -85.4879
 -85.4927
 -85.493
 -85.5502
 -85.548
 -85.5501
 -85.5507
 -85.4233
 -85.4228
 -85.4225
 -85.4273
 -85.47
 -85.4685
 -85.4698
 -85.4678
 -85.4312
 -85.4339
 -85.4599
 -85.4602
 -85.4605
 -85.46
 -85.4545
 -85.4522
 -85.4555
 -85.4528
 -85.5865
 -85.5854
 -85.5837
 -85.5837
 -85.5313
 -85.531
 -85.5297
 -85.5344
 -85.5009
 -85.5058
 -85.5032
 -85.503
 -85.5223
 -85.5209
 -85.5201
 -85.5232
 -85.5846
 -85.5841
 -85.4489
 -85.4475
 -85.4478
 -85.4489
 -85.5836
 -85.5845
 -85.5825
 -85.4163
 -85.4157
 -85.416
 -85.4144
 -85.5786
 -85.5754
 -85.5776
 -85.5763
 -85.491
 -85.4887
 -85.4918
 -85.4882
 -85.5103
 -85.5099
 -85.5089
 -85.582
 -85.5807
 -85.5813
 -85.5824
 -85.5307
 -85.5275
 -85.5306
 -85.5286
 -85.5107
 -85.5127
 -85.5148
 -85.5121
 -85.4924
 -85.4907
 -85.5013
 -85.4949
 -85.4991
 -85.4973
 -85.5365
 -85.533
 -85.5351
 -85.5865
 -85.5839
 -85.5835
 -85.5861
 -85.5092
 -85.5112
 -85.5088
 -85.51
 -85.5025
 -85.5003
 -85.4871
 -85.4837
 -85.4827
 -85.486
 -85.4248
 -85.4256
 -85.4294
 -85.5307
 -85.5317
 -85.5275
 -85.5274
 -85.5852
 -85.5855
 -85.5855
 -85.4306
 -85.4294
 -85.4309
 -85.5071
 -85.5047
 -85.5062
 -85.5032
 -85.5441
 -85.5444
 -85.5411
 -85.5422
 -85.4067
 -85.4047
 -85.4059
 -85.4072
 -85.5707
 -85.5715
 -85.5702
 -85.5697
 -85.5469
 -85.545
 -85.5452
 -85.5438
 -85.5646
 -85.5653
 -85.5636
 -85.5807
 -85.5813
 -85.5841
 -85.5823
 -85.521
 -85.5171
 -85.5206
 -85.5213
 -85.581
 -85.5801
 -85.5797
 -85.579
 -85.4927
 -85.4921
 -85.4943
 -85.4903
 -85.5858
 -85.5407
 -85.5169
 -85.5159
 -85.5187
 -85.515
 -85.5366
 -85.5356
 -85.5335
 -85.5327
 -85.554
 -85.5545
 -85.5527
 -85.5507
 -85.5383
 -85.5374
 -85.5404
 -85.5389
 -85.5572
 -85.5554
 -85.5577
 -85.5574
 -85.5167
 -85.5147
 -85.5154
 -85.5183
 -85.5113
 -85.5119
 -85.5127
 -85.5142
 -85.5019
 -85.5008
 -85.4998
 -85.5034
 -85.5127
 -85.5126
 -85.5096
 -85.4661
 -85.4666
 -85.4661
 -85.4681
 -85.5208
 -85.5428
 -85.5462
 -85.5466
 -85.5455
 -85.5829
 -85.583
 -85.5802
 -85.4869
 -85.4818
 -85.4835
 -85.4821
 -85.5242
 -85.528
 -85.5267
 -85.5374
 -85.5362
 -85.5349
 -85.5339
 -85.5445
 -85.5459
 -85.5486
 -85.5496
 -85.5749
 -85.576
 -85.5778
 -85.5756
 -85.4763
 -85.476
 -85.4779
 -85.4733
 -85.5239
 -85.5218
 -85.5217
 -85.5199
 -85.5134
 -85.5122
 -85.5097
 -85.5137
 -85.5108
 -85.5093
 -85.5084
 -85.5063
 -85.5183
 -85.5174
 -85.5193
 -85.5157
 -85.5533
 -85.5483
 -85.5541
 -85.5506
 -85.5105
 -85.5058
 -85.5075
 -85.5086
 -85.4481
 -85.4482
 -85.448
 -85.4491
 -85.4374
 -85.4393
 -85.4383
 -85.5177
 -85.5182
 -85.5207
 -85.5216
 -85.5192
 -85.5197
 -85.5215
 -85.5228
 -85.5121
 -85.5091
 -85.5141
 -85.514
 -85.5795
 -85.58
 -85.5769
 -85.5772
 -85.5544
 -85.5519
 -85.5512
 -85.554
 -85.4845
 -85.4866
 -85.486
 -85.4869
 -85.4616
 -85.466
 -85.4653
 -85.4598
 -85.5734
 -85.5722
 -85.5708
 -85.5733
 -85.4145
 -85.4109
 -85.4118
 -85.4162
 -85.4952
 -85.4985
 -85.4967
 -85.4962
 -85.4564
 -85.4578
 -85.4575
 -85.4739
 -85.4759
 -85.4763
 -85.479
 -85.5498
 -85.5493
 -85.5516
 -85.5468
 -85.4732
 -85.4694
 -85.4702
 -85.4724
 -85.4386
 -85.4463
 -85.4413
 -85.4062
 -85.41
 -85.4119
 -85.4098
 -85.5895
 -85.5902
 -85.5906
 -85.5921
 -85.4815
 -85.4792
 -85.4808
 -85.4824
 -85.5322
 -85.528
 -85.5289
 -85.5311
 -85.5771
 -85.5761
 -85.574
 -85.5758
 -85.5637
 -85.5662
 -85.5626
 -85.5637
 -85.4841
 -85.4851
 -85.4826
 -85.484
 -85.4497
 -85.4457
 -85.4421
 -85.4466
 -85.5286
 -85.5303
 -85.5269
 -85.5286
 -85.4531
 -85.4568
 -85.5031
 -85.4976
 -85.4989
 -85.5017
 -85.5065
 -85.5062
 -85.5042
 -85.5076
 -85.5018
 -85.502
 -85.5004
 -85.4636
 -85.4648
 -85.4636
 -85.5339
 -85.5339
 -85.5352
 -85.536
 -85.5299
 -85.5294
 -85.5277
 -85.5324
 -85.4835
 -85.4869
 -85.485
 -85.4839
 -85.5559
 -85.5583
 -85.5547
 -85.5557
 -85.5163
 -85.5123
 -85.5144
 -85.5172
 -85.4642
 -85.4641
 -85.4637
 -85.4641
 -85.4978
 -85.5008
 -85.4982
 -85.5331
 -85.5327
 -85.5303
 -85.5321
 -85.521
 -85.5233
 -85.5247
 -85.5885
 -85.5881
 -85.5875
 -85.587
 -85.4326
 -85.4305
 -85.4331
 -85.4275
 -85.4938
 -85.4967
 -85.4967
 -85.4943
 -85.4892
 -85.4884
 -85.4857
 -85.4894
 -85.5896
 -85.5893
 -85.5917
 -85.593
 -85.5607
 -85.5621
 -85.5617
 -85.4754
 -85.4753
 -85.4733
 -85.4756
 -85.56
 -85.5569
 -85.5582
 -85.4813
 -85.4819
 -85.4794
 -85.4801
 -85.3708
 -85.3732
 -85.3718
 -85.3739
 -85.579
 -85.5796
 -85.5811
 -85.5781
 -85.4641
 -85.4632
 -85.4619
 -85.4594
 -85.5871
 -85.5866
 -85.5862
 -85.5866
 -85.4721
 -85.4757
 -85.4728
 -85.4747
 -85.3746
 -85.3696
 -85.3732
 -85.3738
 -85.4437
 -85.4406
 -85.4436
 -85.4447
 -85.4658
 -85.468
 -85.47
 -85.4653
 -85.5148
 -85.5106
 -85.4608
 -85.4616
 -85.4554
 -85.4562
 -85.5357
 -85.5334
 -85.5327
 -85.531
 -85.5114
 -85.5114
 -85.5103
 -85.5146
 -85.5764
 -85.5738
 -85.5781
 -85.5785
 -85.5711
 -85.5701
 -85.5724
 -85.5722
 -85.5649
 -85.5624
 -85.5644
 -85.5625
 -85.5748
 -85.5752
 -85.5758
 -85.5741
 -85.5443
 -85.5438
 -85.5463
 -85.5443
 -85.5662
 -85.5686
 -85.5681
 -85.5673
 -85.436
 -85.4307
 -85.4303
 -85.4361
 -85.5725
 -85.574
 -85.5737
 -85.5733
 -85.5018
 -85.4989
 -85.4972
 -85.4986
 -85.5586
 -85.5546
 -85.5551
 -85.5714
 -85.5735
 -85.5738
 -85.5728
 -85.4651
 -85.4616
 -85.4613
 -85.4631
 -85.4449
 -85.4441
 -85.4425
 -85.4431
 -85.5495
 -85.5492
 -85.5475
 -85.5521
 -85.5041
 -85.5039
 -85.5031
 -85.5009
 -85.5455
 -85.544
 -85.5452
 -85.5446
 -85.5445
 -85.5443
 -85.5495
 -85.4967
 -85.4959
 -85.4931
 -85.5421
 -85.5438
 -85.5253
 -85.5212
 -85.5861
 -85.5875
 -85.5873
 -85.5861
 -85.5211
 -85.5222
 -85.5202
 -85.524
 -85.5419
 -85.5408
 -85.5447
 -85.5408
 -85.5322
 -85.5337
 -85.5321
 -85.5347
 -85.5663
 -85.5606
 -85.5617
 -85.5598
 -85.5594
 -85.5072
 -85.5083
 -85.505
 -85.5051
 -85.4585
 -85.4585
 -85.4585
 -85.4586
 -85.5428
 -85.5401
 -85.5432
 -85.5414
 -85.5463
 -85.545
 -85.5438
 -85.5474
 -85.3845
 -85.3875
 -85.3887
 -85.3907
 -85.5174
 -85.5203
 -85.5184
 -85.5166
 -85.5136
 -85.5107
 -85.5095
 -85.5122
 -85.5411
 -85.5388
 -85.4681
 -85.4686
 -85.4697
 -85.4682
 -85.4914
 -85.4932
 -85.4926
 -85.4908
 -85.4722
 -85.4708
 -85.4701
 -85.4705
 -85.4861
 -85.4883
 -85.488
 -85.4855
 -85.4709
 -85.4705
 -85.4693
 -85.4713
 -85.5622
 -85.5608
 -85.5615
 -85.5634
 -85.5722
 -85.5718
 -85.5693
 -85.5709
 -85.4822
 -85.4806
 -85.4788
 -85.4821
 -85.5174
 -85.5149
 -85.5173
 -85.5156
 -85.5649
 -85.5624
 -85.5646
 -85.5634
 -85.5062
 -85.5039
 -85.5041
 -85.5083
 -85.4816
 -85.4843
 -85.4511
 -85.4525
 -85.4531
 -85.4506
 -85.5121
 -85.5111
 -85.5085
 -85.5073
 -85.5657
 -85.5646
 -85.5649
 -85.5679
 -85.5842
 -85.5826
 -85.583
 -85.5844
 -85.3943
 -85.3936
 -85.5005
 -85.5039
 -85.5044
 -85.506
 -85.4961
 -85.4912
 -85.4943
 -85.4944
 -85.4931
 -85.4923
 -85.4739
 -85.4752
 -85.4753
 -85.476
 -85.5119
 -85.5151
 -85.5164
 -85.4358
 -85.4383
 -85.4384
 -85.4404
 -85.5728
 -85.5744
 -85.5709
 -85.5732
 -85.5836
 -85.5835
 -85.5832
 -85.5896
 -85.5886
 -85.5867
 -85.5881
 -85.5302
 -85.5349
 -85.5334
 -85.5337
 -85.5171
 -85.5213
 -85.516
 -85.5195
 -85.5569
 -85.5608
 -85.562
 -85.56
 -85.5401
 -85.5394
 -85.5424
 -85.5397
 -85.5357
 -85.5385
 -85.5368
 -85.523
 -85.5234
 -85.522
 -85.5261
 -85.5508
 -85.5565
 -85.5544
 -85.5513
 -85.5065
 -85.5041
 -85.5059
 -85.5065
 -85.5191
 -85.5185
 -85.5221
 -85.5175
 -85.5445
 -85.5438
 -85.5422
 -85.5447
 -85.5177
 -85.5159
 -85.515
 -85.5183
 -85.3762
 -85.3749
 -85.3799
 -85.3796
 -85.4774
 -85.4761
 -85.4758
 -85.474
 -85.5506
 -85.5504
 -85.5537
 -85.5541
 -85.4718
 -85.4721
 -85.4674
 -85.4663
 -85.463
 -85.4585
 -85.4631
 -85.466
 -85.5673
 -85.5667
 -85.5683
 -85.565
 -85.5638
 -85.5608
 -85.5635
 -85.5627
 -85.5741
 -85.5717
 -85.5737
 -85.5747
 -85.5546
 -85.5545
 -85.5571
 -85.5559
 -85.5006
 -85.4998
 -85.4977
 -85.4998
 -85.4783
 -85.4771
 -85.4798
 -85.4765
 -85.5457
 -85.5413
 -85.546
 -85.5422
 -85.4796
 -85.4808
 -85.4811
 -85.4809
 -85.4533
 -85.4542
 -85.4551
 -85.4563
 -85.5152
 -85.5178
 -85.5155
 -85.5178
 -85.4943
 -85.492
 -85.4899
 -85.4963
 -85.4977
 -85.5019
 -85.4988
 -85.4535
 -85.4514
 -85.4485
 -85.4512
 -85.4816
 -85.481
 -85.48
 -85.4803
 -85.5492
 -85.551
 -85.5494
 -85.5503
 -85.5212
 -85.524
 -85.5247
 -85.591
 -85.5892
 -85.5895
 -85.5904
 -85.5785
 -85.5807
 -85.5822
 -85.5799
 -85.4924
 -85.4951
 -85.491
 -85.4949
 -85.5267
 -85.5292
 -85.4577
 -85.4573
 -85.4533
 -85.459
 -85.5211
 -85.518
 -85.5168
 -85.5196
 -85.5734
 -85.5741
 -85.5718
 -85.5739
 -85.4782
 -85.4791
 -85.48
 -85.5031
 -85.5041
 -85.5046
 -85.5002
 -85.4936
 -85.4977
 -85.4976
 -85.4969
 -85.5154
 -85.5184
 -85.5191
 -85.5153
 -85.5096
 -85.5115
 -85.5138
 -85.5111
 -85.5197
 -85.5214
 -85.519
 -85.5224
 -85.5065
 -85.509
 -85.5595
 -85.5576
 -85.5617
 -85.5589
 -85.5085
 -85.5056
 -85.5067
 -85.5087
 -85.5351
 -85.531
 -85.533
 -85.5077
 -85.5108
 -85.5087
 -85.5105
 -85.5367
 -85.5351
 -85.5334
 -85.5355
 -85.4729
 -85.4698
 -85.4721
 -85.4679
 -85.5081
 -85.5074
 -85.5113
 -85.5281
 -85.5288
 -85.5322
 -85.5263
 -85.5137
 -85.5129
 -85.5151
 -85.472
 -85.4728
 -85.4703
 -85.5385
 -85.5379
 -85.5375
 -85.5345
 -85.515
 -85.5175
 -85.518
 -85.3986
 -85.3998
 -85.401
 -85.395
 -85.5397
 -85.5374
 -85.5359
 -85.5402
 -85.4965
 -85.4932
 -85.4938
 -85.4924
 -85.5646
 -85.5645
 -85.5655
 -85.5666
 -85.5706
 -85.5685
 -85.5718
 -85.5711
 -85.4625
 -85.4672
 -85.4612
 -85.4622
 -85.5267
 -85.5246
 -85.5225
 -85.4858
 -85.4822
 -85.4848
 -85.4846
 -85.5695
 -85.5659
 -85.568
 -85.52
 -85.5229
 -85.5209
 -85.5235
 -85.5478
 -85.549
 -85.5488
 -85.548
 -85.5772
 -85.5778
 -85.579
 -85.577
 -85.3595
 -85.3571
 -85.3576
 -85.3594
 -85.4856
 -85.4864
 -85.4882
 -85.4851
 -85.5245
 -85.5301
 -85.528
 -85.5292
 -85.4479
 -85.4452
 -85.4437
 -85.5149
 -85.5175
 -85.517
 -85.5141
 -85.5803
 -85.5427
 -85.5403
 -85.5369
 -85.5403
 -85.5678
 -85.5678
 -85.5681
 -85.5692
 -85.5566
 -85.5559
 -85.5552
 -85.5576
 -85.5267
 -85.5256
 -85.5205
 -85.5169
 -85.5173
 -85.5169
 -85.4028
 -85.407
 -85.4033
 -85.4053
 -85.4915
 -85.4904
 -85.4889
 -85.4864
 -85.4861
 -85.4886
 -85.4868
 -85.5816
 -85.5847
 -85.5821
 -85.5815
 -85.5156
 -85.5155
 -85.5186
 -85.5189
 -85.5259
 -85.5246
 -85.5219
 -85.5242
 -85.5705
 -85.5685
 -85.5719
 -85.5688
 -85.5183
 -85.5174
 -85.5213
 -85.5186
 -85.4325
 -85.4335
 -85.4298
 -85.4311
 -85.5124
 -85.5114
 -85.5136
 -85.5122
 -85.4843
 -85.4846
 -85.4851
 -85.4871
 -85.4774
 -85.4748
 -85.475
 -85.4764
 -85.4584
 -85.4595
 -85.4582
 -85.458
 -85.4256
 -85.4241
 -85.4232
 -85.4284
 -85.5884
 -85.587
 -85.5876
 -85.5871
 -85.4125
 -85.414
 -85.4099
 -85.4154
 -85.5162
 -85.514
 -85.5161
 -85.5134
 -85.5865
 -85.5866
 -85.585
 -85.5855
 -85.5005
 -85.4993
 -85.5015
 -85.5021
 -85.4579
 -85.5757
 -85.5744
 -85.5749
 -85.5776
 -85.4713
 -85.4308
 -85.4355
 -85.4357
 -85.4312
 -85.5307
 -85.5347
 -85.5584
 -85.5551
 -85.5595
 -85.556
 -85.5666
 -85.5665
 -85.5683
 -85.5678
 -85.5907
 -85.5889
 -85.5912
 -85.5596
 -85.563
 -85.5624
 -85.562
 -85.5012
 -85.5837
 -85.5458
 -85.5452
 -85.5441
 -85.5834
 -85.5846
 -85.585
 -85.5841
 -85.5031
 -85.5025
 -85.5029
 -85.5004
 -85.4833
 -85.4845
 -85.4813
 -85.4805
 -85.5426
 -85.5405
 -85.5415
 -85.5458
 -85.5809
 -85.5823
 -85.58
 -85.5795
 -85.5735
 -85.5728
 -85.5739
 -85.5726
 -85.5348
 -85.5397
 -85.5392
 -85.4215
 -85.4187
 -85.427
 -85.4213
 -85.3641
 -85.3687
 -85.366
 -85.368
 -85.4486
 -85.4442
 -85.4431
 -85.4458
 -85.5227
 -85.5255
 -85.5222
 -85.4351
 -85.4383
 -85.4371
 -85.4347
 -85.5614
 -85.5606
 -85.5636
 -85.5638
 -85.5642
 -85.5626
 -85.5638
 -85.4711
 -85.4697
 -85.5479
 -85.5494
 -85.5957
 -85.5947
 -85.5957
 -85.5885
 -85.5894
 -85.5891
 -85.5899
 -85.5068
 -85.5043
 -85.5089
 -85.5068
 -85.4902
 -85.4896
 -85.488
 -85.4919
 -85.5135
 -85.5131
 -85.5164
 -85.5151
 -85.586
 -85.5858
 -85.5864
 -85.5858
 -85.5486
 -85.5503
 -85.5494
 -85.5476
 -85.4567
 -85.4563
 -85.4565
 -85.4586
 -85.5488
 -85.5501
 -85.5479
 -85.5508
 -85.5282
 -85.5289
 -85.5258
 -85.5295
 -85.5441
 -85.5461
 -85.5459
 -85.353
 -85.3536
 -85.3541
 -85.4885
 -85.4864
 -85.5032
 -85.5031
 -85.5008
 -85.5052
 -85.5572
 -85.5602
 -85.5577
 -85.5572
 -85.5492
 -85.5501
 -85.5534
 -85.5515
 -85.5514
 -85.55
 -85.5546
 -85.4037
 -85.4036
 -85.4558
 -85.4552
 -85.457
 -85.4561
 -85.5281
 -85.4016
 -85.3976
 -85.399
 -85.3997
 -85.4829
 -85.4866
 -85.4843
 -85.4836
 -85.5079
 -85.5061
 -85.4274
 -85.4342
 -85.4339
 -85.4301
 -85.5884
 -85.5904
 -85.5898
 -85.5887
 -85.58
 -85.5809
 -85.5799
 -85.5826
 -85.4672
 -85.4736
 -85.4686
 -85.4717
 -85.4874
 -85.4856
 -85.4918
 -85.4907
 -85.4893
 -85.4877
 -85.4893
 -85.5537
 -85.5556
 -85.5515
 -85.5538
 -85.4569
 -85.4599
 -85.4613
 -85.4616
 -85.5135
 -85.5143
 -85.5131
 -85.5394
 -85.5404
 -85.5415
 -85.544
 -85.4873
 -85.4881
 -85.49
 -85.4887
 -85.4749
 -85.4779
 -85.4801
 -85.4766
 -85.4779
 -85.4759
 -85.4765
 -85.479
 -85.4993
 -85.5005
 -85.5036
 -85.5007
 -85.539
 -85.537
 -85.4836
 -85.4841
 -85.4848
 -85.4821
 -85.5897
 -85.5865
 -85.5872
 -85.5873
 -85.4733
 -85.4751
 -85.4736
 -85.4755
 -85.4426
 -85.4413
 -85.4449
 -85.4436
 -85.5287
 -85.5286
 -85.4181
 -85.4183
 -85.4154
 -85.4191
 -85.4935
 -85.4961
 -85.4921
 -85.5818
 -85.5814
 -85.5828
 -85.5828
 -85.423
 -85.421
 -85.4222
 -85.4757
 -85.4753
 -85.478
 -85.4768
 -85.4273
 -85.4731
 -85.4717
 -85.4723
 -85.4693
 -85.5182
 -85.516
 -85.5188
 -85.5182
 -85.5033
 -85.5041
 -85.5059
 -85.5031
 -85.5839
 -85.5861
 -85.5236
 -85.5256
 -85.5248
 -85.5236
 -85.4695
 -85.4653
 -85.4703
 -85.4648
 -85.4904
 -85.4966
 -85.4931
 -85.491
 -85.5745
 -85.5731
 -85.5731
 -85.5735
 -85.5048
 -85.5065
 -85.5094
 -85.508
 -85.5296
 -85.5656
 -85.5667
 -85.5645
 -85.4909
 -85.4918
 -85.4884
 -85.4927
 -85.548
 -85.547
 -85.5481
 -85.5454
 -85.4952
 -85.4923
 -85.4933
 -85.4962
 -85.5829
 -85.5811
 -85.5803
 -85.5821
 -85.5944
 -85.5951
 -85.5939
 -85.4765
 -85.4782
 -85.4811
 -85.4794
 -85.5362
 -85.5373
 -85.5338
 -85.5352
 -85.5452
 -85.5463
 -85.548
 -85.5491
 -85.4854
 -85.486
 -85.4737
 -85.4722
 -85.4712
 -85.4748
 -85.4986
 -85.5039
 -85.5312
 -85.5325
 -85.5308
 -85.5298
 -85.5378
 -85.5389
 -85.5414
 -85.5378
 -85.5002
 -85.5024
 -85.5048
 -85.5029
 -85.5279
 -85.5281
 -85.5283
 -85.5704
 -85.5677
 -85.5667
 -85.5682
 -85.5574
 -85.5564
 -85.5579
 -85.5002
 -85.5042
 -85.4991
 -85.5026
 -85.4772
 -85.4728
 -85.471
 -85.4761
 -85.5468
 -85.5432
 -85.5435
 -85.5455
 -85.505
 -85.5044
 -85.5007
 -85.4623
 -85.4619
 -85.4623
 -85.462
 -85.4872
 -85.4869
 -85.4883
 -85.4893
 -85.5613
 -85.5598
 -85.5586
 -85.59
 -85.5879
 -85.5884
 -85.5437
 -85.5452
 -85.5455
 -85.4871
 -85.4841
 -85.4882
 -85.4857
 -85.5896
 -85.59
 -85.5896
 -85.5906
 -85.5402
 -85.5384
 -85.5398
 -85.542
 -85.565
 -85.5661
 -85.5692
 -85.5689
 -85.562
 -85.5636
 -85.5623
 -85.5625
 -85.4402
 -85.4362
 -85.437
 -85.4988
 -85.4997
 -85.4975
 -85.4999
 -85.5656
 -85.5667
 -85.5644
 -85.5646
 -85.5097
 -85.511
 -85.511
 -85.5144
 -85.5491
 -85.5493
 -85.5489
 -85.546
 -85.576
 -85.5776
 -85.456
 -85.4581
 -85.4579
 -85.4593
 -85.5557
 -85.5538
 -85.5581
 -85.5548
 -85.5007
 -85.4997
 -85.4985
 -85.5018
 -85.545
 -85.541
 -85.5866
 -85.5865
 -85.5846
 -85.5871
 -85.5644
 -85.5677
 -85.5633
 -85.5687
 -85.5905
 -85.5909
 -85.5925
 -85.5929
 -85.554
 -85.554
 -85.5554
 -85.545
 -85.5488
 -85.5484
 -85.5471
 -85.5474
 -85.5455
 -85.5466
 -85.5434
 -85.4819
 -85.4827
 -85.4802
 -85.4792
 -85.433
 -85.4314
 -85.4356
 -85.5162
 -85.5161
 -85.5166
 -85.57
 -85.5674
 -85.569
 -85.5668
 -85.5016
 -85.5038
 -85.5066
 -85.504
 -85.4712
 -85.467
 -85.4684
 -85.4717
 -85.5184
 -85.5153
 -85.5137
 -85.5139
 -85.4937
 -85.4983
 -85.494
 -85.5873
 -85.588
 -85.5855
 -85.5853
 -85.4588
 -85.4597
 -85.4698
 -85.4716
 -85.4717
 -85.5506
 -85.5515
 -85.5487
 -85.5535
 -85.5141
 -85.5181
 -85.5174
 -85.5168
 -85.4661
 -85.4666
 -85.4691
 -85.4666
 -85.5256
 -85.5199
 -85.5206
 -85.5236
 -85.4927
 -85.4903
 -85.4942
 -85.4945
 -85.5737
 -85.5747
 -85.5781
 -85.4878
 -85.4876
 -85.4899
 -85.4897
 -85.5253
 -85.5276
 -85.4637
 -85.4673
 -85.466
 -85.4643
 -85.4687
 -85.4658
 -85.4673
 -85.466
 -85.576
 -85.5749
 -85.4744
 -85.4771
 -85.4757
 -85.4727
 -85.5197
 -85.5169
 -85.5181
 -85.5199
 -85.4971
 -85.441
 -85.4376
 -85.4387
 -85.5291
 -85.5284
 -85.5289
 -85.5265
 -85.5782
 -85.5784
 -85.5771
 -85.5794
 -85.4403
 -85.4417
 -85.4424
 -85.4388
 -85.4712
 -85.4733
 -85.4704
 -85.4712
 -85.5433
 -85.5446
 -85.5447
 -85.445
 -85.4447
 -85.4474
 -85.4479
 -85.5901
 -85.5883
 -85.5892
 -85.5905
 -85.4558
 -85.4575
 -85.4582
 -85.4545
 -85.5403
 -85.5374
 -85.5394
 -85.5421
 -85.4989
 -85.5015
 -85.5003
 -85.4983
 -85.4665
 -85.4676
 -85.4664
 -85.4931
 -85.4967
 -85.493
 -85.4959
 -85.4667
 -85.4643
 -85.4658
 -85.4658
 -85.4722
 -85.4699
 -85.471
 -85.5573
 -85.5547
 -85.558
 -85.5533
 -85.5508
 -85.5119
 -85.5184
 -85.5141
 -85.5143
 -85.5819
 -85.581
 -85.5797
 -85.5809
 -85.5302
 -85.5338
 -85.5285
 -85.5327
 -85.5392
 -85.5415
 -85.5391
 -85.5384
 -85.4703
 -85.4692
 -85.4721
 -85.4744
 -85.473
 -85.5391
 -85.536
 -85.5379
 -85.5402
 -85.58
 -85.5828
 -85.5221
 -85.5231
 -85.5198
 -85.5236
 -85.4657
 -85.4651
 -85.4671
 -85.5732
 -85.575
 -85.5726
 -85.5736
 -85.523
 -85.5186
 -85.5203
 -85.5211
 -85.4696
 -85.4683
 -85.4699
 -85.4708
 -85.5137
 -85.5134
 -85.5179
 -85.5146
 -85.5371
 -85.5423
 -85.4516
 -85.4501
 -85.4509
 -85.4495
 -85.4718
 -85.4777
 -85.4791
 -85.4777
 -85.4803
 -85.4793
 -85.4782
 -85.4741
 -85.475
 -85.4773
 -85.5211
 -85.5204
 -85.52
 -85.5336
 -85.5323
 -85.5311
 -85.5297
 -85.4821
 -85.4816
 -85.4823
 -85.4818
 -85.5012
 -85.5003
 -85.5264
 -85.5245
 -85.5258
 -85.5239
 -85.527
 -85.5269
 -85.5141
 -85.517
 -85.5179
 -85.5145
 -85.4153
 -85.4207
 -85.4198
 -85.4214
 -85.5254
 -85.4667
 -85.469
 -85.4673
 -85.4668
 -85.5868
 -85.5882
 -85.5864
 -85.5517
 -85.551
 -85.5489
 -85.552
 -85.5118
 -85.5131
 -85.5118
 -85.5072
 -85.5229
 -85.5251
 -85.5213
 -85.4757
 -85.4779
 -85.477
 -85.4754
 -85.5744
 -85.5763
 -85.5724
 -85.5751
 -85.5412
 -85.5401
 -85.5425
 -85.5414
 -85.5747
 -85.5757
 -85.5719
 -85.574
 -85.4554
 -85.4553
 -85.4531
 -85.4533
 -85.4803
 -85.4828
 -85.5566
 -85.5554
 -85.5542
 -85.5559
 -85.58
 -85.5796
 -85.5802
 -85.5791
 -85.5945
 -85.5953
 -85.5938
 -85.5955
 -85.5773
 -85.5753
 -85.577
 -85.5385
 -85.5416
 -85.5381
 -85.5403
 -85.5787
 -85.5798
 -85.58
 -85.5797
 -85.4574
 -85.46
 -85.4624
 -85.4595
 -85.566
 -85.5682
 -85.5685
 -85.5401
 -85.5391
 -85.5383
 -85.5382
 -85.4662
 -85.465
 -85.4661
 -85.4645
 -85.5437
 -85.5468
 -85.545
 -85.5452
 -85.5308
 -85.5331
 -85.5343
 -85.531
 -85.4827
 -85.4839
 -85.4863
 -85.4882
 -85.4544
 -85.4549
 -85.4516
 -85.4517
 -85.5044
 -85.5055
 -85.5082
 -85.5051
 -85.4071
 -85.4073
 -85.4135
 -85.4097
 -85.4697
 -85.4718
 -85.4694
 -85.4766
 -85.4733
 -85.4731
 -85.4723
 -85.3904
 -85.3913
 -85.3873
 -85.3929
 -85.5731
 -85.5715
 -85.5718
 -85.5624
 -85.5627
 -85.5651
 -85.5647
 -85.4788
 -85.4841
 -85.4824
 -85.4348
 -85.4363
 -85.4344
 -85.4525
 -85.4501
 -85.453
 -85.4532
 -85.4821
 -85.4817
 -85.4841
 -85.4796
 -85.5405
 -85.545
 -85.543
 -85.5423
 -85.4171
 -85.4164
 -85.4187
 -85.4147
 -85.5339
 -85.529
 -85.5288
 -85.5331
 -85.5615
 -85.5628
 -85.5594
 -85.5614
 -85.5275
 -85.5273
 -85.5321
 -85.5298
 -85.5076
 -85.505
 -85.5096
 -85.4683
 -85.4681
 -85.4682
 -85.4697
 -85.5758
 -85.5775
 -85.5783
 -85.5772
 -85.5665
 -85.5682
 -85.5662
 -85.5647
 -85.4813
 -85.4839
 -85.4822
 -85.4798
 -85.5807
 -85.5818
 -85.583
 -85.5795
 -85.5827
 -85.5805
 -85.5806
 -85.5825
 -85.5826
 -85.5808
 -85.5816
 -85.427
 -85.4262
 -85.3913
 -85.3923
 -85.3903
 -85.3949
 -85.5357
 -85.5344
 -85.5323
 -85.5126
 -85.5105
 -85.5153
 -85.5111
 -85.5194
 -85.523
 -85.5219
 -85.5198
 -85.3556
 -85.5027
 -85.5325
 -85.5356
 -85.5662
 -85.5675
 -85.567
 -85.5667
 -85.435
 -85.4939
 -85.4967
 -85.4939
 -85.5963
 -85.5955
 -85.5955
 -85.5955
 -85.5201
 -85.5178
 -85.5202
 -85.5229
 -85.5824
 -85.5811
 -85.5828
 -85.5804
 -85.5065
 -85.5101
 -85.5036
 -85.4977
 -85.5015
 -85.499
 -85.5742
 -85.5746
 -85.5721
 -85.5747
 -85.5342
 -85.5322
 -85.5301
 -85.5289
 -85.4589
 -85.4567
 -85.4607
 -85.46
 -85.5632
 -85.5677
 -85.5661
 -85.5832
 -85.586
 -85.5861
 -85.5832
 -85.5644
 -85.5635
 -85.562
 -85.5636
 -85.4794
 -85.4792
 -85.4851
 -85.4789
 -85.4872
 -85.485
 -85.4854
 -85.4854
 -85.5745
 -85.5761
 -85.576
 -85.5761
 -85.5018
 -85.5024
 -85.4991
 -85.5583
 -85.5584
 -85.5576
 -85.556
 -85.4636
 -85.4665
 -85.462
 -85.4626
 -85.5374
 -85.5389
 -85.5348
 -85.5365
 -85.4627
 -85.465
 -85.4629
 -85.4627
 -85.5255
 -85.5273
 -85.5244
 -85.5265
 -85.561
 -85.561
 -85.5633
 -85.5593
 -85.4562
 -85.4552
 -85.4575
 -85.5213
 -85.5241
 -85.57
 -85.569
 -85.5685
 -85.567
 -85.5012
 -85.4991
 -85.4988
 -85.4591
 -85.4569
 -85.4559
 -85.4571
 -85.5459
 -85.547
 -85.5458
 -85.548
 -85.5375
 -85.5372
 -85.5419
 -85.5384
 -85.3705
 -85.3706
 -85.3748
 -85.3717
 -85.5182
 -85.5145
 -85.5166
 -85.4047
 -85.4081
 -85.4092
 -85.5196
 -85.5182
 -85.5161
 -85.5186
 -85.5151
 -85.4549
 -85.4562
 -85.4506
 -85.4528
 -85.5076
 -85.5111
 -85.5116
 -85.5664
 -85.5664
 -85.5665
 -85.5652
 -85.5108
 -85.5123
 -85.5143
 -85.5142
 -85.5154
 -85.5145
 -85.5142
 -85.5936
 -85.593
 -85.5925
 -85.5914
 -85.473
 -85.4794
 -85.478
 -85.4761
 -85.4509
 -85.4509
 -85.4524
 -85.4523
 -85.496
 -85.4952
 -85.4996
 -85.4963
 -85.5713
 -85.5718
 -85.5726
 -85.5694
 -85.3681
 -85.3714
 -85.3679
 -85.3731
 -85.5586
 -85.5556
 -85.5573
 -85.5574
 -85.4493
 -85.4472
 -85.4492
 -85.4485
 -85.5661
 -85.5603
 -85.5622
 -85.5648
 -85.5561
 -85.5546
 -85.5531
 -85.5548
 -85.5588
 -85.5599
 -85.4812
 -85.4789
 -85.4785
 -85.4806
 -85.5768
 -85.5772
 -85.577
 -85.5538
 -85.55
 -85.5513
 -85.5544
 -85.4758
 -85.4788
 -85.4769
 -85.4742
 -85.4929
 -85.4917
 -85.4956
 -85.3531
 -85.3533
 -85.3519
 -85.3531
 -85.5139
 -85.5102
 -85.5148
 -85.5773
 -85.5789
 -85.5767
 -85.5761
 -85.5605
 -85.5585
 -85.5726
 -85.5753
 -85.5766
 -85.5739
 -85.5488
 -85.5492
 -85.4437
 -85.444
 -85.4404
 -85.4463
 -85.558
 -85.5578
 -85.558
 -85.5553
 -85.5192
 -85.5208
 -85.4926
 -85.4945
 -85.4934
 -85.4925
 -85.5645
 -85.566
 -85.5664
 -85.5658
 -85.4825
 -85.4771
 -85.4778
 -85.4816
 -85.575
 -85.575
 -85.5772
 -85.5798
 -85.5301
 -85.5308
 -85.5275
 -85.4432
 -85.4418
 -85.4411
 -85.443
 -85.5401
 -85.5398
 -85.5387
 -85.5368
 -85.473
 -85.4698
 -85.4693
 -85.4675
 -85.4771
 -85.4728
 -85.4758
 -85.3643
 -85.3637
 -85.3646
 -85.3664
 -85.4542
 -85.4582
 -85.4592
 -85.4554
 -85.56
 -85.5588
 -85.5614
 -85.5586
 -85.5154
 -85.5167
 -85.5131
 -85.4967
 -85.4675
 -85.4693
 -85.4682
 -85.4697
 -85.5023
 -85.4994
 -85.5017
 -85.5032
 -85.5506
 -85.5549
 -85.5553
 -85.5514
 -85.4626
 -85.4628
 -85.4686
 -85.436
 -85.5292
 -85.5304
 -85.527
 -85.5319
 -85.4687
 -85.4724
 -85.3985
 -85.3948
 -85.4664
 -85.469
 -85.4667
 -85.4634
 -85.5499
 -85.552
 -85.57
 -85.5697
 -85.5705
 -85.5694
 -85.4926
 -85.4955
 -85.4956
 -85.4956
 -85.5847
 -85.5853
 -85.5867
 -85.5854
 -85.4894
 -85.4903
 -85.4838
 -85.4837
 -85.5573
 -85.5578
 -85.5557
 -85.5532
 -85.4773
 -85.4775
 -85.4791
 -85.4789
 -85.5568
 -85.5582
 -85.5548
 -85.557
 -85.5021
 -85.5058
 -85.5792
 -85.5783
 -85.5472
 -85.5496
 -85.5465
 -85.5501
 -85.5452
 -85.544
 -85.5445
 -85.5477
 -85.5248
 -85.5233
 -85.5261
 -85.5257
 -85.5561
 -85.5533
 -85.5572
 -85.5587
 -85.4758
 -85.4729
 -85.4744
 -85.4742
 -85.5778
 -85.5773
 -85.577
 -85.5801
 -85.5813
 -85.5794
 -85.5807
 -85.4628
 -85.4661
 -85.466
 -85.4645
 -85.5478
 -85.5444
 -85.5449
 -85.5465
 -85.4586
 -85.4624
 -85.4624
 -85.4657
 -85.5225
 -85.5108
 -85.5152
 -85.5152
 -85.5112
 -85.565
 -85.5651
 -85.5649
 -85.5623
 -85.4106
 -85.4072
 -85.4093
 -85.4132
 -85.5463
 -85.5479
 -85.5498
 -85.5473
 -85.5179
 -85.5209
 -85.5144
 -85.5171
 -85.5536
 -85.5514
 -85.5511
 -85.5507
 -85.5405
 -85.5936
 -85.5931
 -85.5909
 -85.5918
 -85.5593
 -85.56
 -85.5564
 -85.557
 -85.3955
 -85.397
 -85.4
 -85.3952
 -85.5026
 -85.4994
 -85.4979
 -85.5005
 -85.4854
 -85.5202
 -85.5206
 -85.5213
 -85.524
 -85.5744
 -85.5746
 -85.5723
 -85.5711
 -85.5669
 -85.5664
 -85.5694
 -85.5738
 -85.5694
 -85.5714
 -85.5705
 -85.3691
 -85.3704
 -85.5563
 -85.5552
 -85.5549
 -85.4823
 -85.4821
 -85.4812
 -85.4849
 -85.5509
 -85.5495
 -85.5508
 -85.5484
 -85.5246
 -85.5461
 -85.5431
 -85.5462
 -85.5454
 -85.5789
 -85.5747
 -85.5762
 -85.5787
 -85.5449
 -85.547
 -85.55
 -85.5454
 -85.5008
 -85.5021
 -85.4972
 -85.5046
 -85.4657
 -85.4662
 -85.4648
 -85.4666
 -85.5911
 -85.5891
 -85.5913
 -85.5907
 -85.5513
 -85.5503
 -85.5521
 -85.5491
 -85.5892
 -85.5885
 -85.5888
 -85.59
 -85.4831
 -85.4782
 -85.4831
 -85.4838
 -85.5228
 -85.5212
 -85.5787
 -85.5817
 -85.5787
 -85.5801
 -85.5238
 -85.5244
 -85.5243
 -85.5275
 -85.5132
 -85.5162
 -85.5235
 -85.5242
 -85.5269
 -85.5233
 -85.5685
 -85.5685
 -85.5676
 -85.5705
 -85.4917
 -85.4878
 -85.4861
 -85.4896
 -85.4384
 -85.4411
 -85.4386
 -85.4384
 -85.4585
 -85.4571
 -85.4573
 -85.4568
 -85.4879
 -85.4901
 -85.4905
 -85.4874
 -85.5039
 -85.4996
 -85.5025
 -85.51
 -85.5054
 -85.508
 -85.5087
 -85.5208
 -85.5192
 -85.5177
 -85.5206
 -85.4375
 -85.4373
 -85.4386
 -85.4988
 -85.496
 -85.5003
 -85.4994
 -85.5261
 -85.5289
 -85.5286
 -85.5248
 -85.4785
 -85.4745
 -85.4794
 -85.4748
 -85.4901
 -85.4925
 -85.4923
 -85.4918
 -85.5289
 -85.5287
 -85.5309
 -85.5331
 -85.5192
 -85.5163
 -85.5187
 -85.5181
 -85.5479
 -85.5465
 -85.5473
 -85.546
 -85.4558
 -85.4567
 -85.4577
 -85.5635
 -85.562
 -85.5652
 -85.5628
 -85.4793
 -85.4825
 -85.4797
 -85.4776
 -85.505
 -85.5037
 -85.5019
 -85.5062
 -85.5103
 -85.5133
 -85.5139
 -85.5341
 -85.5342
 -85.5352
 -85.5374
 -85.5437
 -85.5438
 -85.5459
 -85.5422
 -85.5468
 -85.5481
 -85.55
 -85.5694
 -85.5701
 -85.5706
 -85.5438
 -85.5424
 -85.5405
 -85.5419
 -85.5695
 -85.5705
 -85.5677
 -85.5768
 -85.5769
 -85.5765
 -85.5747
 -85.5116
 -85.5057
 -85.5095
 -85.5074
 -85.4836
 -85.4814
 -85.4852
 -85.4824
 -85.4731
 -85.5692
 -85.5683
 -85.5721
 -85.568
 -85.5699
 -85.5654
 -85.3614
 -85.3599
 -85.3616
 -85.3636
 -85.5573
 -85.555
 -85.5036
 -85.5024
 -85.5062
 -85.5888
 -85.5904
 -85.5353
 -85.5311
 -85.5324
 -85.5335
 -85.5018
 -85.5035
 -85.5036
 -85.5583
 -85.563
 -85.5607
 -85.5619
 -85.4859
 -85.4869
 -85.4847
 -85.4887
 -85.3859
 -85.3894
 -85.3884
 -85.3845
 -85.5319
 -85.5323
 -85.5315
 -85.5348
 -85.5665
 -85.5711
 -85.5671
 -85.5614
 -85.5607
 -85.5618
 -85.5597
 -85.4765
 -85.4723
 -85.4722
 -85.4704
 -85.4813
 -85.4837
 -85.4632
 -85.4662
 -85.4621
 -85.5879
 -85.5862
 -85.5647
 -85.5619
 -85.5648
 -85.5618
 -85.5219
 -85.5258
 -85.5247
 -85.5565
 -85.5535
 -85.559
 -85.5583
 -85.479
 -85.4734
 -85.4745
 -85.4771
 -85.5161
 -85.5156
 -85.5189
 -85.5196
 -85.5151
 -85.5172
 -85.518
 -85.5154
 -85.4723
 -85.4738
 -85.4715
 -85.4829
 -85.4806
 -85.4825
 -85.4818
 -85.5943
 -85.5954
 -85.5947
 -85.5962
 -85.4482
 -85.4436
 -85.5754
 -85.5771
 -85.5767
 -85.5753
 -85.5072
 -85.5105
 -85.509
 -85.5071
 -85.5269
 -85.529
 -85.5289
 -85.5295
 -85.4581
 -85.4601
 -85.519
 -85.5167
 -85.5166
 -85.5145
 -85.5045
 -85.503
 -85.5021
 -85.5056
 -85.5667
 -85.5665
 -85.5656
 -85.5672
 -85.5108
 -85.5137
 -85.5139
 -85.5099
 -85.4844
 -85.4848
 -85.5383
 -85.5384
 -85.5366
 -85.5388
 -85.5508
 -85.5502
 -85.5524
 -85.5226
 -85.5258
 -85.5246
 -85.5265
 -85.4691
 -85.4712
 -85.4681
 -85.4728
 -85.3842
 -85.3885
 -85.3876
 -85.3834
 -85.513
 -85.5115
 -85.5147
 -85.5178
 -85.5292
 -85.5327
 -85.5295
 -85.5296
 -85.5007
 -85.5026
 -85.4989
 -85.4996
 -85.4862
 -85.4843
 -85.4869
 -85.4885
 -85.5678
 -85.5697
 -85.538
 -85.5365
 -85.535
 -85.4183
 -85.4167
 -85.4144
 -85.4192
 -85.4747
 -85.4722
 -85.4757
 -85.4704
 -85.5237
 -85.5242
 -85.5229
 -85.5212
 -85.5678
 -85.5687
 -85.5685
 -85.5073
 -85.5056
 -85.5019
 -85.502
 -85.4817
 -85.4861
 -85.4843
 -85.4815
 -85.5537
 -85.5501
 -85.5501
 -85.5519
 -85.5338
 -85.5329
 -85.5316
 -85.5318
 -85.5606
 -85.561
 -85.5607
 -85.559
 -85.5592
 -85.5596
 -85.559
 -85.4972
 -85.4982
 -85.4952
 -85.4941
 -85.5108
 -85.509
 -85.5121
 -85.3925
 -85.3935
 -85.393
 -85.3906
 -85.4845
 -85.4847
 -85.4459
 -85.4434
 -85.4473
 -85.4496
 -85.4715
 -85.4603
 -85.572
 -85.4858
 -85.4826
 -85.4847
 -85.4812
 -85.5912
 -85.5377
 -85.5357
 -85.5375
 -85.5339
 -85.4844
 -85.4866
 -85.4851
 -85.4983
 -85.5014
 -85.5014
 -85.563
 -85.5636
 -85.5602
 -85.5633
 -85.5641
 -85.5627
 -85.5644
 -85.5625
 -85.4655
 -85.461
 -85.4611
 -85.464
 -85.5816
 -85.5818
 -85.5832
 -85.5804
 -85.5162
 -85.5137
 -85.5105
 -85.5631
 -85.5646
 -85.5641
 -85.5273
 -85.5243
 -85.5254
 -85.5279
 -85.486
 -85.4878
 -85.4841
 -85.485
 -85.5294
 -85.5337
 -85.5292
 -85.4905
 -85.4922
 -85.492
 -85.4887
 -85.5071
 -85.5114
 -85.565
 -85.567
 -85.5676
 -85.5697
 -85.5722
 -85.5751
 -85.5733
 -85.5728
 -85.4701
 -85.4735
 -85.4692
 -85.4727
 -85.5508
 -85.547
 -85.5493
 -85.5518
 -85.5354
 -85.5309
 -85.5343
 -85.537
 -85.5018
 -85.4988
 -85.5035
 -85.5009
 -85.5692
 -85.5678
 -85.5671
 -85.5656
 -85.5083
 -85.5048
 -85.5104
 -85.5085
 -85.517
 -85.5153
 -85.5151
 -85.5198
 -85.507
 -85.5048
 -85.5077
 -85.5081
 -85.4752
 -85.4789
 -85.4659
 -85.4683
 -85.4707
 -85.4664
 -85.439
 -85.434
 -85.4383
 -85.4394
 -85.5364
 -85.5361
 -85.5351
 -85.5387
 -85.5303
 -85.5278
 -85.5273
 -85.5844
 -85.5847
 -85.5848
 -85.5847
 -85.5872
 -85.5886
 -85.5864
 -85.5754
 -85.5766
 -85.5735
 -85.5281
 -85.5317
 -85.5334
 -85.5291
 -85.5461
 -85.5476
 -85.5491
 -85.5444
 -85.565
 -85.5671
 -85.5658
 -85.5675
 -85.4879
 -85.4846
 -85.4854
 -85.4873
 -85.449
 -85.4514
 -85.4534
 -85.4533
 -85.5896
 -85.5902
 -85.5879
 -85.5914
 -85.48
 -85.479
 -85.477
 -85.4804
 -85.523
 -85.5227
 -85.5245
 -85.5221
 -85.5909
 -85.5908
 -85.5884
 -85.5925
 -85.5377
 -85.5346
 -85.5387
 -85.5376
 -85.505
 -85.5037
 -85.5054
 -85.5039
 -85.482
 -85.4793
 -85.4799
 -85.4603
 -85.4641
 -85.4617
 -85.4598
 -85.4722
 -85.4713
 -85.4728
 -85.4708
 -85.4677
 -85.4673
 -85.4774
 -85.4796
 -85.4734
 -85.5592
 -85.5574
 -85.5572
 -85.5567
 -85.5824
 -85.5815
 -85.5817
 -85.5816
 -85.5436
 -85.5423
 -85.5437
 -85.5398
 -85.509
 -85.57
 -85.5711
 -85.5709
 -85.5691
 -85.4632
 -85.4633
 -85.4629
 -85.4626
 -85.5842
 -85.5852
 -85.5838
 -85.5864
 -85.4942
 -85.4923
 -85.4968
 -85.5506
 -85.4607
 -85.4603
 -85.4576
 -85.4754
 -85.4732
 -85.4711
 -85.4765
 -85.5211
 -85.5209
 -85.5162
 -85.5198
 -85.5558
 -85.5557
 -85.5537
 -85.5579
 -85.5091
 -85.5501
 -85.5485
 -85.5484
 -85.511
 -85.5106
 -85.5112
 -85.5145
 -85.4909
 -85.4917
 -85.4894
 -85.4891
 -85.4985
 -85.4949
 -85.4975
 -85.4985
 -85.5512
 -85.4792
 -85.48
 -85.4813
 -85.5582
 -85.5564
 -85.5592
 -85.5574
 -85.5689
 -85.5681
 -85.5711
 -85.5672
 -85.5802
 -85.5814
 -85.5799
 -85.4891
 -85.4893
 -85.4871
 -85.4892
 -85.4529
 -85.451
 -85.4529
 -85.5625
 -85.5624
 -85.5676
 -85.5666
 -85.5654
 -85.5652
 -85.51
 -85.5114
 -85.5131
 -85.5859
 -85.5857
 -85.5872
 -85.5856
 -85.5681
 -85.5675
 -85.5686
 -85.5692
 -85.5403
 -85.5409
 -85.5423
 -85.5433
 -85.525
 -85.526
 -85.524
 -85.5213
 -85.482
 -85.4818
 -85.4808
 -85.4831
 -85.567
 -85.567
 -85.5655
 -85.5688
 -85.4915
 -85.4924
 -85.4882
 -85.5006
 -85.5033
 -85.5041
 -85.5044
 -85.5811
 -85.5804
 -85.5832
 -85.582
 -85.5485
 -85.5487
 -85.5481
 -85.5467
 -85.5874
 -85.5861
 -85.5843
 -85.5868
 -85.4967
 -85.4988
 -85.5003
 -85.4997
 -85.5235
 -85.5241
 -85.5211
 -85.5266
 -85.5737
 -85.5732
 -85.5749
 -85.574
 -85.5202
 -85.5227
 -85.5187
 -85.5195
 -85.5877
 -85.5892
 -85.5877
 -85.4866
 -85.4852
 -85.4851
 -85.4856
 -85.5303
 -85.5303
 -85.5287
 -85.5272
 -85.537
 -85.5396
 -85.5372
 -85.5379
 -85.5158
 -85.5142
 -85.5191
 -85.5153
 -85.5689
 -85.569
 -85.5716
 -85.5695
 -85.5139
 -85.5103
 -85.5124
 -85.5116
 -85.5368
 -85.536
 -85.5359
 -85.5347
 -85.462
 -85.462
 -85.4616
 -85.462
 -85.562
 -85.5624
 -85.5602
 -85.5589
 -85.4576
 -85.4574
 -85.4575
 -85.4823
 -85.4806
 -85.4806
 -85.4826
 -85.467
 -85.469
 -85.4752
 -85.4699
 -85.5538
 -85.5532
 -85.5549
 -85.5565
 -85.5437
 -85.5473
 -85.5442
 -85.5451
 -85.4933
 -85.4901
 -85.4905
 -85.4884
 -85.5931
 -85.5922
 -85.591
 -85.3943
 -85.3932
 -85.5356
 -85.5376
 -85.5339
 -85.5358
 -85.4272
 -85.4227
 -85.4182
 -85.4219
 -85.5434
 -85.5442
 -85.5473
 -85.5455
 -85.5017
 -85.493
 -85.4913
 -85.4907
 -85.4887
 -85.5574
 -85.5577
 -85.5584
 -85.5595
 -85.5752
 -85.5735
 -85.5764
 -85.5745
 -85.4619
 -85.4618
 -85.5495
 -85.551
 -85.5551
 -85.5508
 -85.5288
 -85.5231
 -85.5297
 -85.5265
 -85.48
 -85.4799
 -85.4781
 -85.4844
 -85.5139
 -85.5105
 -85.5102
 -85.5137
 -85.5649
 -85.5621
 -85.5682
 -85.5834
 -85.5828
 -85.5829
 -85.5826
 -85.5899
 -85.5899
 -85.5907
 -85.4946
 -85.4929
 -85.4934
 -85.4956
 -85.5756
 -85.5744
 -85.5733
 -85.5733
 -85.469
 -85.4668
 -85.4677
 -85.468
 -85.5426
 -85.541
 -85.5429
 -85.539
 -85.5288
 -85.5324
 -85.5294
 -85.5295
 -85.5829
 -85.583
 -85.5827
 -85.5841
 -85.5471
 -85.5482
 -85.5466
 -85.5447
 -85.4151
 -85.4129
 -85.4124
 -85.4154
 -85.5085
 -85.5032
 -85.5079
 -85.5049
 -85.4932
 -85.4968
 -85.4973
 -85.4925
 -85.5549
 -85.5556
 -85.5532
 -85.5518
 -85.4722
 -85.4703
 -85.4695
 -85.4697
 -85.534
 -85.5318
 -85.5314
 -85.535
 -85.4879
 -85.4863
 -85.4848
 -85.4471
 -85.4452
 -85.4446
 -85.4441
 -85.5337
 -85.5367
 -85.5325
 -85.5406
 -85.5404
 -85.539
 -85.4792
 -85.4769
 -85.4746
 -85.4696
 -85.4694
 -85.4707
 -85.4719
 -85.5742
 -85.3572
 -85.3588
 -85.3581
 -85.3555
 -85.5682
 -85.567
 -85.57
 -85.568
 -85.461
 -85.4991
 -85.4984
 -85.4982
 -85.5016
 -85.4935
 -85.491
 -85.4978
 -85.4748
 -85.4797
 -85.4774
 -85.476
 -85.4207
 -85.4202
 -85.423
 -85.4172
 -85.4684
 -85.4705
 -85.4699
 -85.5258
 -85.5243
 -85.5241
 -85.4945
 -85.4932
 -85.5952
 -85.5934
 -85.5933
 -85.4673
 -85.4706
 -85.4664
 -85.4961
 -85.4987
 -85.5
 -85.5754
 -85.5776
 -85.5775
 -85.5572
 -85.5573
 -85.5595
 -85.5577
 -85.4798
 -85.4811
 -85.4826
 -85.457
 -85.4538
 -85.5823
 -85.5812
 -85.5836
 -85.5828
 -85.4324
 -85.434
 -85.4289
 -85.4365
 -85.4668
 -85.4656
 -85.3834
 -85.3804
 -85.4047
 -85.404
 -85.4054
 -85.4982
 -85.5009
 -85.4972
 -85.5804
 -85.5783
 -85.5764
 -85.5484
 -85.5482
 -85.5505
 -85.4833
 -85.4833
 -85.4865
 -85.4884
 -85.4854
 -85.5723
 -85.4563
 -85.4562
 -85.4575
 -85.4575
 -85.4947
 -85.5004
 -85.496
 -85.4969
 -85.5547
 -85.5549
 -85.5567
 -85.5474
 -85.548
 -85.5462
 -85.5469
 -85.4985
 -85.497
 -85.5003
 -85.5031
 -85.5516
 -85.552
 -85.555
 -85.5546
 -85.5585
 -85.5567
 -85.5581
 -85.5606
 -85.5165
 -85.5501
 -85.5517
 -85.5517
 -85.5529
 -85.5867
 -85.5876
 -85.5864
 -85.5855
 -85.4737
 -85.468
 -85.4667
 -85.4705
 -85.5829
 -85.5849
 -85.584
 -85.5836
 -85.379
 -85.382
 -85.3785
 -85.5799
 -85.5785
 -85.5819
 -85.5812
 -85.4756
 -85.475
 -85.4718
 -85.4719
 -85.5636
 -85.5611
 -85.563
 -85.5648
 -85.4677
 -85.4679
 -85.4607
 -85.4623
 -85.5866
 -85.5631
 -85.56
 -85.5616
 -85.5591
 -85.5742
 -85.5759
 -85.5756
 -85.4565
 -85.458
 -85.4558
 -85.4548
 -85.553
 -85.5512
 -85.5509
 -85.5494
 -85.5333
 -85.5367
 -85.5367
 -85.5353
 -85.5283
 -85.5298
 -85.5266
 -85.5258
 -85.5928
 -85.5909
 -85.5034
 -85.5036
 -85.5031
 -85.4985
 -85.5014
 -85.5028
 -85.504
 -85.5513
 -85.5491
 -85.5535
 -85.5544
 -85.5486
 -85.5498
 -85.5495
 -85.5521
 -85.5353
 -85.5363
 -85.5378
 -85.5344
 -85.4784
 -85.4779
 -85.4879
 -85.486
 -85.4857
 -85.4965
 -85.4989
 -85.4989
 -85.4992
 -85.4489
 -85.446
 -85.4473
 -85.4469
 -85.4952
 -85.492
 -85.4894
 -85.4198
 -85.4199
 -85.4235
 -85.4952
 -85.4952
 -85.4926
 -85.4975
 -85.4762
 -85.4798
 -85.4743
 -85.5145
 -85.5532
 -85.5514
 -85.5551
 -85.5033
 -85.5027
 -85.505
 -85.5066
 -85.4652
 -85.4651
 -85.4729
 -85.4692
 -85.5191
 -85.5218
 -85.5224
 -85.5224
 -85.5615
 -85.5598
 -85.5929
 -85.5917
 -85.5908
 -85.5929
 -85.552
 -85.5524
 -85.5538
 -85.5502
 -85.5076
 -85.5071
 -85.5068
 -85.5089
 -85.5863
 -85.5867
 -85.5897
 -85.5852
 -85.5856
 -85.5862
 -85.5868
 -85.5219
 -85.5189
 -85.5169
 -85.5203
 -85.465
 -85.4642
 -85.4663
 -85.5035
 -85.5034
 -85.5071
 -85.5034
 -85.4528
 -85.4492
 -85.4539
 -85.4486
 -85.5431
 -85.5433
 -85.5442
 -85.5372
 -85.4625
 -85.4625
 -85.4624
 -85.4631
 -85.4809
 -85.4825
 -85.4834
 -85.4821
 -85.5809
 -85.5785
 -85.5817
 -85.5791
 -85.521
 -85.5212
 -85.5183
 -85.5214
 -85.4944
 -85.4925
 -85.4954
 -85.4927
 -85.5567
 -85.5567
 -85.5591
 -85.5632
 -85.5618
 -85.5613
 -85.5002
 -85.5039
 -85.5025
 -85.507
 -85.5085
 -85.5107
 -85.5095
 -85.5095
 -85.4655
 -85.4675
 -85.4649
 -85.4979
 -85.4956
 -85.4937
 -85.3669
 -85.3637
 -85.3669
 -85.3648
 -85.4831
 -85.4841
 -85.4562
 -85.4583
 -85.4565
 -85.4531
 -85.5299
 -85.5267
 -85.5295
 -85.5259
 -85.422
 -85.427
 -85.4284
 -85.4248
 -85.4734
 -85.4728
 -85.4702
 -85.5466
 -85.5472
 -85.5465
 -85.5452
 -85.4715
 -85.4746
 -85.4705
 -85.4632
 -85.4639
 -85.4599
 -85.4613
 -85.4947
 -85.4931
 -85.4934
 -85.4969
 -85.5572
 -85.5635
 -85.4035
 -85.4054
 -85.4802
 -85.4779
 -85.5097
 -85.5067
 -85.508
 -85.5072
 -85.5425
 -85.5451
 -85.5429
 -85.5461
 -85.5146
 -85.515
 -85.5167
 -85.5172
 -85.454
 -85.4483
 -85.4522
 -85.4513
 -85.5314
 -85.5283
 -85.5294
 -85.4659
 -85.4644
 -85.4656
 -85.4654
 -85.5758
 -85.5751
 -85.5772
 -85.5742
 -85.5443
 -85.5444
 -85.5449
 -85.5417
 -85.4691
 -85.4709
 -85.4681
 -85.5073
 -85.5034
 -85.5069
 -85.5084
 -85.4551
 -85.454
 -85.4554
 -85.472
 -85.4758
 -85.4745
 -85.4725
 -85.4716
 -85.4711
 -85.4741
 -85.472
 -85.5064
 -85.5033
 -85.5029
 -85.5015
 -85.5863
 -85.5854
 -85.5844
 -85.5848
 -85.5361
 -85.5397
 -85.5381
 -85.5391
 -85.504
 -85.4999
 -85.5027
 -85.5234
 -85.5221
 -85.5217
 -85.5738
 -85.5705
 -85.5736
 -85.5716
 -85.5366
 -85.5367
 -85.5342
 -85.5382
 -85.5013
 -85.5043
 -85.5044
 -85.505
 -85.4491
 -85.4495
 -85.4686
 -85.4671
 -85.4698
 -85.4699
 -85.393
 -85.3914
 -85.3871
 -85.3918
 -85.5552
 -85.5555
 -85.5555
 -85.554
 -85.4748
 -85.4716
 -85.4725
 -85.4722
 -85.5153
 -85.5126
 -85.5142
 -85.5105
 -85.4422
 -85.4405
 -85.4412
 -85.4403
 -85.5252
 -85.5241
 -85.5227
 -85.5225
 -85.5069
 -85.55
 -85.5496
 -85.5466
 -85.5474
 -85.5017
 -85.4977
 -85.497
 -85.5003
 -85.4986
 -85.5007
 -85.503
 -85.5017
 -85.4905
 -85.4872
 -85.488
 -85.4867
 -85.4667
 -85.4635
 -85.4686
 -85.5647
 -85.5651
 -85.5658
 -85.561
 -85.4991
 -85.4983
 -85.4982
 -85.497
 -85.5621
 -85.563
 -85.5651
 -85.5458
 -85.5433
 -85.5451
 -85.5443
 -85.5581
 -85.562
 -85.5602
 -85.5626
 -85.4591
 -85.4625
 -85.4585
 -85.3554
 -85.3567
 -85.3572
 -85.5472
 -85.5509
 -85.55
 -85.5255
 -85.5307
 -85.5284
 -85.5318
 -85.4943
 -85.4956
 -85.497
 -85.4939
 -85.5039
 -85.5049
 -85.5006
 -85.5016
 -85.4121
 -85.4146
 -85.4081
 -85.4153
 -85.5156
 -85.5141
 -85.5136
 -85.5134
 -85.5336
 -85.5344
 -85.5362
 -85.532
 -85.4744
 -85.4751
 -85.482
 -85.4764
 -85.4792
 -85.4796
 -85.5478
 -85.5457
 -85.5474
 -85.5468
 -85.4727
 -85.4754
 -85.5374
 -85.5359
 -85.4555
 -85.3624
 -85.3619
 -85.3623
 -85.3653
 -85.4407
 -85.4446
 -85.5896
 -85.5917
 -85.59
 -85.4494
 -85.4524
 -85.4554
 -85.4526
 -85.5512
 -85.5505
 -85.481
 -85.4802
 -85.4807
 -85.481
 -85.4902
 -85.4958
 -85.4939
 -85.5506
 -85.5526
 -85.5512
 -85.5542
 -85.5391
 -85.542
 -85.5389
 -85.5404
 -85.5679
 -85.5684
 -85.571
 -85.5045
 -85.5013
 -85.5049
 -85.5006
 -85.5144
 -85.5682
 -85.5647
 -85.5675
 -85.5668
 -85.4574
 -85.4568
 -85.4581
 -85.4593
 -85.5216
 -85.5184
 -85.5212
 -85.518
 -85.5554
 -85.5519
 -85.5545
 -85.5522
 -85.3806
 -85.3819
 -85.3836
 -85.3845
 -85.4691
 -85.5864
 -85.4969
 -85.5011
 -85.4982
 -85.4951
 -85.5203
 -85.5228
 -85.519
 -85.5183
 -85.4755
 -85.4714
 -85.4737
 -85.4746
 -85.526
 -85.5247
 -85.5261
 -85.5267
 -85.4669
 -85.4673
 -85.4697
 -85.4625
 -85.4648
 -85.4669
 -85.4647
 -85.5027
 -85.5056
 -85.5005
 -85.503
 -85.5555
 -85.5574
 -85.5523
 -85.5927
 -85.5944
 -85.5929
 -85.5924
 -85.4102
 -85.4071
 -85.406
 -85.5122
 -85.5125
 -85.5053
 -85.5068
 -85.5033
 -85.5081
 -85.5785
 -85.5777
 -85.5782
 -85.5793
 -85.5474
 -85.5453
 -85.5467
 -85.5445
 -85.466
 -85.4708
 -85.4677
 -85.4335
 -85.5013
 -85.4983
 -85.4992
 -85.5017
 -85.5086
 -85.5102
 -85.5096
 -85.545
 -85.5436
 -85.5436
 -85.5459
 -85.5573
 -85.5538
 -85.5562
 -85.5548
 -85.4978
 -85.496
 -85.5489
 -85.5486
 -85.5503
 -85.5524
 -85.5282
 -85.5273
 -85.5276
 -85.5304
 -85.5844
 -85.5853
 -85.5343
 -85.5314
 -85.5345
 -85.533
 -85.5493
 -85.5506
 -85.5515
 -85.5522
 -85.5448
 -85.5466
 -85.5446
 -85.545
 -85.5127
 -85.5141
 -85.5033
 -85.5049
 -85.5022
 -85.5005
 -85.4886
 -85.4858
 -85.4873
 -85.4876
 -85.5274
 -85.5296
 -85.5295
 -85.5274
 -85.4641
 -85.4665
 -85.468
 -85.4693
 -85.4752
 -85.4744
 -85.4733
 -85.4745
 -85.401
 -85.4027
 -85.402
 -85.3982
 -85.4881
 -85.4832
 -85.5236
 -85.5191
 -85.5228
 -85.5209
 -85.4971
 -85.496
 -85.4986
 -85.5003
 -85.518
 -85.5201
 -85.5213
 -85.5193
 -85.5057
 -85.5056
 -85.5502
 -85.5489
 -85.5894
 -85.5899
 -85.5899
 -85.5905
 -85.4523
 -85.5038
 -85.5037
 -85.5048
 -85.5069
 -85.5178
 -85.5143
 -85.5153
 -85.5153
 -85.4827
 -85.4806
 -85.4796
 -85.4769
 -85.5438
 -85.5402
 -85.5436
 -85.5404
 -85.52
 -85.5178
 -85.5167
 -85.5198
 -85.4665
 -85.4657
 -85.4677
 -85.464
 -85.4629
 -85.4935
 -85.4977
 -85.4936
 -85.4971
 -85.4934
 -85.4984
 -85.4943
 -85.4924
 -85.4673
 -85.4673
 -85.4647
 -85.4671
 -85.4756
 -85.4768
 -85.481
 -85.4793
 -85.5058
 -85.5086
 -85.5039
 -85.5037
 -85.4679
 -85.4665
 -85.4656
 -85.4664
 -85.5244
 -85.5257
 -85.5213
 -85.4839
 -85.4838
 -85.4834
 -85.4827
 -85.4267
 -85.4294
 -85.5229
 -85.5247
 -85.5258
 -85.5207
 -85.5246
 -85.5229
 -85.5247
 -85.4573
 -85.4595
 -85.4609
 -85.4487
 -85.4502
 -85.4502
 -85.4486
 -85.536
 -85.5356
 -85.5373
 -85.534
 -85.5204
 -85.5162
 -85.5208
 -85.561
 -85.557
 -85.5586
 -85.5102
 -85.5077
 -85.5084
 -85.5677
 -85.568
 -85.568
 -85.3902
 -85.3874
 -85.3883
 -85.3903
 -85.5851
 -85.5856
 -85.5847
 -85.5857
 -85.4881
 -85.4857
 -85.5277
 -85.5242
 -85.4653
 -85.4659
 -85.4656
 -85.4684
 -85.5325
 -85.5315
 -85.5351
 -85.5522
 -85.5544
 -85.5541
 -85.5547
 -85.5668
 -85.5632
 -85.4581
 -85.4584
 -85.4575
 -85.5243
 -85.5236
 -85.521
 -85.4794
 -85.4759
 -85.4794
 -85.4585
 -85.4583
 -85.4568
 -85.4559
 -85.5015
 -85.5025
 -85.4995
 -85.5035
 -85.4974
 -85.4938
 -85.4952
 -85.4967
 -85.5412
 -85.5402
 -85.54
 -85.5431
 -85.5511
 -85.5496
 -85.5506
 -85.5477
 -85.4928
 -85.4921
 -85.4955
 -85.5364
 -85.5359
 -85.5341
 -85.5464
 -85.5486
 -85.5467
 -85.5471
 -85.5954
 -85.5947
 -85.5959
 -85.514
 -85.5133
 -85.5131
 -85.544
 -85.5456
 -85.5419
 -85.5097
 -85.5117
 -85.5081
 -85.4856
 -85.4819
 -85.4826
 -85.4592
 -85.4609
 -85.4599
 -85.4604
 -85.5104
 -85.5096
 -85.513
 -85.5103
 -85.4794
 -85.4779
 -85.4754
 -85.4653
 -85.4685
 -85.543
 -85.541
 -85.5455
 -85.5428
 -85.5431
 -85.5452
 -85.5423
 -85.5401
 -85.4679
 -85.4711
 -85.4726
 -85.4737
 -85.4662
 -85.4635
 -85.4648
 -85.4631
 -85.4382
 -85.4366
 -85.4385
 -85.4355
 -85.5769
 -85.578
 -85.5639
 -85.561
 -85.5623
 -85.5641
 -85.584
 -85.484
 -85.4874
 -85.4833
 -85.5165
 -85.5177
 -85.515
 -85.5146
 -85.4686
 -85.4681
 -85.507
 -85.5068
 -85.5088
 -85.4546
 -85.4558
 -85.5599
 -85.5603
 -85.5628
 -85.5584
 -85.5691
 -85.5687
 -85.5724
 -85.5707
 -85.5546
 -85.5555
 -85.5525
 -85.4873
 -85.4898
 -85.4895
 -85.5671
 -85.567
 -85.5679
 -85.5686
 -85.4786
 -85.4743
 -85.4776
 -85.4792
 -85.5569
 -85.5551
 -85.555
 -85.5568
 -85.4794
 -85.4754
 -85.4746
 -85.4811
 -85.4605
 -85.4619
 -85.4588
 -85.5845
 -85.5877
 -85.5859
 -85.5855
 -85.4636
 -85.4646
 -85.4642
 -85.501
 -85.5026
 -85.5051
 -85.5026
 -85.5798
 -85.5821
 -85.5809
 -85.4783
 -85.4755
 -85.4783
 -85.4762
 -85.5356
 -85.5751
 -85.5763
 -85.5719
 -85.5746
 -85.4542
 -85.4551
 -85.4565
 -85.4551
 -85.5451
 -85.5406
 -85.5437
 -85.5453
 -85.5149
 -85.516
 -85.5113
 -85.4604
 -85.4584
 -85.4615
 -85.454
 -85.5385
 -85.5382
 -85.54
 -85.4749
 -85.4739
 -85.3948
 -85.3913
 -85.3958
 -85.3973
 -85.4394
 -85.4327
 -85.4318
 -85.5685
 -85.5673
 -85.5731
 -85.5698
 -85.5695
 -85.5708
 -85.446
 -85.4478
 -85.4435
 -85.4481
 -85.4972
 -85.499
 -85.499
 -85.4996
 -85.5069
 -85.5027
 -85.5031
 -85.5047
 -85.5219
 -85.5208
 -85.5244
 -85.521
 -85.5239
 -85.519
 -85.5224
 -85.5201
 -85.5795
 -85.466
 -85.465
 -85.4662
 -85.4652
 -85.5812
 -85.5801
 -85.5824
 -85.5267
 -85.5235
 -85.5223
 -85.5232
 -85.458
 -85.4613
 -85.4621
 -85.5189
 -85.5161
 -85.5182
 -85.5159
 -85.5107
 -85.5405
 -85.5415
 -85.5444
 -85.5434
 -85.4806
 -85.4807
 -85.4805
 -85.5114
 -85.5169
 -85.5151
 -85.5817
 -85.5805
 -85.5787
 -85.5804
 -85.5083
 -85.5069
 -85.5063
 -85.3816
 -85.3837
 -85.3792
 -85.5083
 -85.506
 -85.5078
 -85.5032
 -85.5423
 -85.545
 -85.5444
 -85.514
 -85.514
 -85.5677
 -85.5686
 -85.5664
 -85.5666
 -85.5547
 -85.5569
 -85.5554
 -85.5553
 -85.5869
 -85.5864
 -85.5851
 -85.5843
 -85.5226
 -85.5169
 -85.521
 -85.5225
 -85.5488
 -85.5481
 -85.5469
 -85.5455
 -85.5678
 -85.5695
 -85.5709
 -85.4768
 -85.4786
 -85.4738
 -85.4755
 -85.5044
 -85.5077
 -85.4914
 -85.4893
 -85.4922
 -85.4907
 -85.5424
 -85.5417
 -85.5422
 -85.5437
 -85.5082
 -85.5113
 -85.51
 -85.5075
 -85.5409
 -85.5395
 -85.5435
 -85.5402
 -85.5129
 -85.5141
 -85.516
 -85.5167
 -85.5104
 -85.5076
 -85.5083
 -85.5647
 -85.563
 -85.5647
 -85.5769
 -85.5763
 -85.5758
 -85.5795
 -85.5719
 -85.5715
 -85.5733
 -85.5496
 -85.5527
 -85.55
 -85.4074
 -85.4061
 -85.4035
 -85.5041
 -85.5081
 -85.505
 -85.563
 -85.5643
 -85.5632
 -85.5627
 -85.5039
 -85.5054
 -85.5035
 -85.5233
 -85.5251
 -85.5242
 -85.522
 -85.5353
 -85.5289
 -85.5312
 -85.5306
 -85.5106
 -85.5129
 -85.5128
 -85.5151
 -85.4711
 -85.4732
 -85.4713
 -85.4702
 -85.5052
 -85.5235
 -85.5235
 -85.5253
 -85.5196
 -85.4632
 -85.4639
 -85.4643
 -85.4641
 -85.459
 -85.4615
 -85.4598
 -85.4612
 -85.4668
 -85.4677
 -85.4676
 -85.4655
 -85.5367
 -85.5367
 -85.5399
 -85.5416
 -85.4772
 -85.4751
 -85.4764
 -85.4772
 -85.5865
 -85.5844
 -85.5862
 -85.5846
 -85.4321
 -85.434
 -85.4367
 -85.4361
 -85.4733
 -85.4736
 -85.4729
 -85.4528
 -85.451
 -85.4501
 -85.4502
 -85.4629
 -85.4611
 -85.465
 -85.4656
 -85.4661
 -85.5158
 -85.5153
 -85.5171
 -85.5219
 -85.5775
 -85.5754
 -85.5745
 -85.5768
 -85.5764
 -85.5776
 -85.5757
 -85.4694
 -85.4675
 -85.5834
 -85.5852
 -85.5828
 -85.5653
 -85.5648
 -85.5651
 -85.5674
 -85.463
 -85.4617
 -85.4629
 -85.5859
 -85.5865
 -85.585
 -85.5872
 -85.4893
 -85.4903
 -85.4925
 -85.4875
 -85.4677
 -85.4635
 -85.465
 -85.4679
 -85.4519
 -85.4562
 -85.4544
 -85.4536
 -85.4196
 -85.4204
 -85.4177
 -85.4176
 -85.5304
 -85.5355
 -85.5333
 -85.5346
 -85.4925
 -85.493
 -85.4915
 -85.4877
 -85.5846
 -85.5829
 -85.5846
 -85.3755
 -85.38
 -85.3774
 -85.382
 -85.439
 -85.443
 -85.4404
 -85.4439
 -85.5846
 -85.587
 -85.5858
 -85.5856
 -85.5129
 -85.5131
 -85.5162
 -85.571
 -85.5741
 -85.5748
 -85.4682
 -85.4676
 -85.4634
 -85.585
 -85.5839
 -85.5833
 -85.5844
 -85.5649
 -85.5636
 -85.563
 -85.5609
 -85.4804
 -85.4824
 -85.4848
 -85.482
 -85.4926
 -85.4893
 -85.492
 -85.4881
 -85.556
 -85.5561
 -85.5563
 -85.5592
 -85.5202
 -85.5187
 -85.5164
 -85.5179
 -85.4268
 -85.4306
 -85.4311
 -85.4302
 -85.5679
 -85.5632
 -85.5662
 -85.5648
 -85.5875
 -85.5153
 -85.5161
 -85.5184
 -85.5182
 -85.5753
 -85.5768
 -85.576
 -85.5785
 -85.4638
 -85.4638
 -85.4642
 -85.4643
 -85.5829
 -85.5843
 -85.5819
 -85.5812
 -85.5089
 -85.508
 -85.4941
 -85.4925
 -85.4951
 -85.4958
 -85.5533
 -85.5503
 -85.5502
 -85.5503
 -85.5239
 -85.5271
 -85.5262
 -85.4919
 -85.4913
 -85.4926
 -85.555
 -85.5543
 -85.5516
 -85.552
 -85.5476
 -85.5461
 -85.549
 -85.5466
 -85.4697
 -85.4679
 -85.4671
 -85.5108
 -85.5173
 -85.5177
 -85.5134
 -85.4332
 -85.4315
 -85.4353
 -85.43
 -85.4268
 -85.5851
 -85.5807
 -85.5852
 -85.5823
 -85.516
 -85.5145
 -85.5128
 -85.516
 -85.5705
 -85.5721
 -85.5026
 -85.4976
 -85.4983
 -85.4785
 -85.4757
 -85.4801
 -85.4793
 -85.5834
 -85.5826
 -85.5845
 -85.5843
 -85.4669
 -85.4676
 -85.4674
 -85.4807
 -85.4798
 -85.4824
 -85.4801
 -85.4909
 -85.4948
 -85.4917
 -85.4878
 -85.5413
 -85.5462
 -85.5426
 -85.5443
 -85.4748
 -85.4789
 -85.4767
 -85.4761
 -85.5514
 -85.5317
 -85.5352
 -85.5362
 -85.5307
 -85.5763
 -85.577
 -85.5743
 -85.581
 -85.5802
 -85.58
 -85.5785
 -85.5341
 -85.536
 -85.5325
 -85.5343
 -85.5901
 -85.5898
 -85.5897
 -85.5876
 -85.4916
 -85.5261
 -85.5217
 -85.5218
 -85.525
 -85.5163
 -85.5114
 -85.514
 -85.5147
 -85.4206
 -85.4248
 -85.426
 -85.4221
 -85.5066
 -85.5075
 -85.5086
 -85.5047
 -85.5016
 -85.5018
 -85.5028
 -85.5047
 -85.5041
 -85.5045
 -85.5073
 -85.5708
 -85.5688
 -85.5679
 -85.5013
 -85.4973
 -85.4985
 -85.4997
 -85.5676
 -85.571
 -85.5693
 -85.5115
 -85.509
 -85.5196
 -85.5217
 -85.5208
 -85.5186
 -85.5176
 -85.5186
 -85.5147
 -85.5154
 -85.5194
 -85.5181
 -85.5737
 -85.5747
 -85.5747
 -85.4921
 -85.5799
 -85.5236
 -85.5258
 -85.5231
 -85.5202
 -85.4629
 -85.4627
 -85.4593
 -85.4707
 -85.4742
 -85.4759
 -85.5186
 -85.5199
 -85.5163
 -85.5093
 -85.5091
 -85.5107
 -85.5125
 -85.5167
 -85.5139
 -85.5185
 -85.5143
 -85.3785
 -85.3797
 -85.3756
 -85.555
 -85.5522
 -85.5544
 -85.5091
 -85.51
 -85.5617
 -85.5582
 -85.5594
 -85.558
 -85.5279
 -85.5306
 -85.5278
 -85.4215
 -85.4233
 -85.4183
 -85.4198
 -85.5006
 -85.4969
 -85.5002
 -85.4969
 -85.4722
 -85.471
 -85.4696
 -85.4689
 -85.5404
 -85.5364
 -85.5389
 -85.5404
 -85.4865
 -85.4835
 -85.4861
 -85.4818
 -85.4327
 -85.432
 -85.4323
 -85.4912
 -85.49
 -85.4884
 -85.4892
 -85.5407
 -85.5441
 -85.5427
 -85.5432
 -85.5128
 -85.5163
 -85.5166
 -85.5147
 -85.4771
 -85.4759
 -85.4776
 -85.4979
 -85.4953
 -85.4964
 -85.4961
 -85.471
 -85.4675
 -85.4713
 -85.4685
 -85.4546
 -85.4588
 -85.4574
 -85.4533
 -85.5834
 -85.5843
 -85.5835
 -85.5842
 -85.4682
 -85.4704
 -85.4698
 -85.4704
 -85.4754
 -85.4733
 -85.4761
 -85.4762
 -85.5357
 -85.5391
 -85.5383
 -85.5404
 -85.4889
 -85.4883
 -85.4916
 -85.49
 -85.5942
 -85.5946
 -85.5945
 -85.595
 -85.5041
 -85.5026
 -85.5054
 -85.4606
 -85.4586
 -85.4592
 -85.462
 -85.467
 -85.4659
 -85.4666
 -85.4658
 -85.4669
 -85.4619
 -85.5468
 -85.5437
 -85.5465
 -85.5428
 -85.5934
 -85.5924
 -85.5931
 -85.5927
 -85.4964
 -85.4934
 -85.4949
 -85.4931
 -85.4705
 -85.4691
 -85.4687
 -85.5395
 -85.5363
 -85.5365
 -85.5387
 -85.5038
 -85.5036
 -85.5046
 -85.5076
 -85.4788
 -85.4793
 -85.4787
 -85.4813
 -85.4582
 -85.4625
 -85.46
 -85.5571
 -85.56
 -85.5613
 -85.5577
 -85.5661
 -85.5656
 -85.5635
 -85.4968
 -85.4961
 -85.4985
 -85.5006
 -85.4996
 -85.4983
 -85.502
 -85.477
 -85.4807
 -85.4824
 -85.4809
 -85.5384
 -85.537
 -85.535
 -85.4668
 -85.4667
 -85.4636
 -85.5148
 -85.5181
 -85.5169
 -85.566
 -85.563
 -85.5652
 -85.5437
 -85.5431
 -85.49
 -85.4921
 -85.4892
 -85.4918
 -85.4931
 -85.4916
 -85.5083
 -85.5044
 -85.4785
 -85.4553
 -85.4557
 -85.4533
 -85.5689
 -85.5685
 -85.5645
 -85.4969
 -85.4996
 -85.4987
 -85.4964
 -85.4812
 -85.513
 -85.5147
 -85.5391
 -85.5403
 -85.5382
 -85.5413
 -85.5126
 -85.5098
 -85.5133
 -85.4976
 -85.4992
 -85.4944
 -85.4978
 -85.4906
 -85.4961
 -85.501
 -85.4984
 -85.4966
 -85.5023
 -85.5722
 -85.5698
 -85.5693
 -85.5714
 -85.5739
 -85.5754
 -85.5776
 -85.5773
 -85.4665
 -85.4688
 -85.511
 -85.5111
 -85.5096
 -85.5067
 -85.5258
 -85.5267
 -85.5282
 -85.5293
 -85.5346
 -85.5373
 -85.5346
 -85.5339
 -85.5087
 -85.5063
 -85.5054
 -85.5088
 -85.5026
 -85.505
 -85.5033
 -85.5021
 -85.5653
 -85.5619
 -85.5654
 -85.565
 -85.4688
 -85.4726
 -85.4739
 -85.4764
 -85.4703
 -85.4738
 -85.4722
 -85.5556
 -85.558
 -85.5612
 -85.5625
 -85.4773
 -85.4797
 -85.4786
 -85.4806
 -85.5798
 -85.5783
 -85.5798
 -85.5793
 -85.5676
 -85.5663
 -85.5673
 -85.5654
 -85.4939
 -85.4955
 -85.4926
 -85.4942
 -85.5444
 -85.5455
 -85.5442
 -85.5412
 -85.4794
 -85.481
 -85.4836
 -85.4843
 -85.5549
 -85.5532
 -85.5537
 -85.4683
 -85.4701
 -85.4679
 -85.4691
 -85.5307
 -85.5292
 -85.5312
 -85.5324
 -85.4909
 -85.4918
 -85.5508
 -85.5553
 -85.5532
 -85.5525
 -85.5567
 -85.5561
 -85.554
 -85.5047
 -85.5089
 -85.5054
 -85.5597
 -85.5599
 -85.561
 -85.5627
 -85.4358
 -85.4368
 -85.4394
 -85.4387
 -85.4782
 -85.4797
 -85.4818
 -85.4831
 -85.5308
 -85.5269
 -85.5273
 -85.5308
 -85.5735
 -85.5743
 -85.5726
 -85.5747
 -85.5673
 -85.5695
 -85.5697
 -85.5679
 -85.5737
 -85.5733
 -85.5741
 -85.5729
 -85.574
 -85.4846
 -85.4866
 -85.4843
 -85.4874
 -85.4701
 -85.471
 -85.4665
 -85.4695
 -85.4838
 -85.4838
 -85.4908
 -85.4939
 -85.4916
 -85.4907
 -85.4999
 -85.4997
 -85.5033
 -85.4997
 -85.4727
 -85.4728
 -85.4704
 -85.5171
 -85.515
 -85.5155
 -85.5142
 -85.5952
 -85.5948
 -85.5935
 -85.4858
 -85.4851
 -85.4865
 -85.4898
 -85.5606
 -85.557
 -85.5592
 -85.5601
 -85.5413
 -85.5446
 -85.5434
 -85.5124
 -85.5105
 -85.5139
 -85.544
 -85.5472
 -85.5442
 -85.565
 -85.5634
 -85.5415
 -85.5417
 -85.5415
 -85.4801
 -85.4812
 -85.4819
 -85.4785
 -85.5767
 -85.5781
 -85.5768
 -85.5761
 -85.5313
 -85.5343
 -85.5327
 -85.4119
 -85.4073
 -85.4055
 -85.4109
 -85.4595
 -85.4576
 -85.5231
 -85.4912
 -85.4958
 -85.4927
 -85.4913
 -85.5168
 -85.5204
 -85.5203
 -85.5529
 -85.5531
 -85.5511
 -85.5533
 -85.5817
 -85.5824
 -85.5118
 -85.5108
 -85.5109
 -85.5087
 -85.4551
 -85.4518
 -85.4518
 -85.4551
 -85.5686
 -85.57
 -85.5698
 -85.5687
 -85.5302
 -85.5316
 -85.5296
 -85.3839
 -85.3815
 -85.3791
 -85.3792
 -85.4688
 -85.4681
 -85.4662
 -85.485
 -85.4874
 -85.4828
 -85.4855
 -85.5298
 -85.5303
 -85.5289
 -85.5326
 -85.5119
 -85.5143
 -85.4622
 -85.4629
 -85.4626
 -85.4627
 -85.5325
 -85.5358
 -85.4853
 -85.4807
 -85.4825
 -85.4838
 -85.4967
 -85.498
 -85.4942
 -85.497
 -85.5129
 -85.5164
 -85.5173
 -85.5147
 -85.4816
 -85.4798
 -85.4762
 -85.5404
 -85.5367
 -85.5407
 -85.5373
 -85.5568
 -85.5593
 -85.5616
 -85.5574
 -85.5532
 -85.5535
 -85.5539
 -85.556
 -85.4522
 -85.4489
 -85.4508
 -85.4478
 -85.5154
 -85.5131
 -85.4014
 -85.3978
 -85.3986
 -85.3951
 -85.4963
 -85.4933
 -85.4916
 -85.5828
 -85.3659
 -85.3674
 -85.3676
 -85.362
 -85.5076
 -85.5092
 -85.5074
 -85.5076
 -85.4897
 -85.4928
 -85.4904
 -85.5549
 -85.5572
 -85.5574
 -85.5546
 -85.5561
 -85.555
 -85.5583
 -85.5583
 -85.5528
 -85.5543
 -85.5518
 -85.5507
 -85.4812
 -85.4838
 -85.4798
 -85.4835
 -85.4675
 -85.4661
 -85.4643
 -85.4644
 -85.5339
 -85.5343
 -85.5374
 -85.534
 -85.4978
 -85.4936
 -85.4997
 -85.497
 -85.5927
 -85.5743
 -85.5748
 -85.5275
 -85.5275
 -85.4997
 -85.4972
 -85.4979
 -85.5763
 -85.5796
 -85.5777
 -85.5769
 -85.5054
 -85.5041
 -85.5274
 -85.5249
 -85.4211
 -85.4253
 -85.4208
 -85.4251
 -85.4813
 -85.4799
 -85.4777
 -85.479
 -85.5314
 -85.5353
 -85.5322
 -85.5342
 -85.4286
 -85.425
 -85.428
 -85.4296
 -85.5876
 -85.5867
 -85.5888
 -85.5873
 -85.5745
 -85.572
 -85.5809
 -85.5793
 -85.5773
 -85.5812
 -85.5581
 -85.5603
 -85.4921
 -85.4934
 -85.4909
 -85.3717
 -85.3755
 -85.3705
 -85.3712
 -85.4334
 -85.436
 -85.4368
 -85.4338
 -85.5759
 -85.5776
 -85.5759
 -85.5749
 -85.5453
 -85.5493
 -85.547
 -85.5193
 -85.516
 -85.514
 -85.5174
 -85.4853
 -85.4899
 -85.4862
 -85.4852
 -85.5654
 -85.5677
 -85.5668
 -85.577
 -85.5148
 -85.519
 -85.4803
 -85.4815
 -85.5408
 -85.5445
 -85.5401
 -85.5413
 -85.4668
 -85.4632
 -85.4681
 -85.4629
 -85.4651
 -85.4622
 -85.4633
 -85.3786
 -85.3845
 -85.383
 -85.3819
 -85.4844
 -85.4865
 -85.4862
 -85.4891
 -85.567
 -85.5674
 -85.5619
 -85.5639
 -85.5632
 -85.5639
 -85.4789
 -85.4785
 -85.4814
 -85.4772
 -85.553
 -85.5514
 -85.554
 -85.5421
 -85.5423
 -85.543
 -85.5403
 -85.5629
 -85.5642
 -85.5614
 -85.5649
 -85.4854
 -85.4887
 -85.4875
 -85.4858
 -85.5813
 -85.5782
 -85.5024
 -85.4126
 -85.4146
 -85.4166
 -85.4185
 -85.552
 -85.5516
 -85.5537
 -85.4341
 -85.4314
 -85.4323
 -85.43
 -85.5403
 -85.5399
 -85.5398
 -85.5426
 -85.4617
 -85.4616
 -85.4585
 -85.4624
 -85.4739
 -85.4732
 -85.4756
 -85.4762
 -85.5364
 -85.5384
 -85.5384
 -85.4918
 -85.4929
 -85.4913
 -85.4892
 -85.5332
 -85.5322
 -85.5342
 -85.5297
 -85.5241
 -85.5223
 -85.5589
 -85.5598
 -85.5596
 -85.5421
 -85.5426
 -85.5398
 -85.4113
 -85.4119
 -85.4154
 -85.4122
 -85.4668
 -85.4695
 -85.4654
 -85.4705
 -85.5661
 -85.5625
 -85.5628
 -85.5625
 -85.5602
 -85.5596
 -85.4755
 -85.4817
 -85.476
 -85.5426
 -85.5395
 -85.5406
 -85.5389
 -85.5416
 -85.5411
 -85.5397
 -85.4829
 -85.4813
 -85.4833
 -85.4837
 -85.577
 -85.5774
 -85.493
 -85.4919
 -85.493
 -85.4952
 -85.4796
 -85.4799
 -85.4811
 -85.5455
 -85.5464
 -85.5104
 -85.5086
 -85.5106
 -85.5131
 -85.4648
 -85.4639
 -85.5352
 -85.5348
 -85.4945
 -85.4897
 -85.4904
 -85.4928
 -85.5174
 -85.5175
 -85.5151
 -85.5198
 -85.5172
 -85.5153
 -85.5173
 -85.4448
 -85.4449
 -85.4433
 -85.45
 -85.4322
 -85.4325
 -85.4351
 -85.4345
 -85.542
 -85.5393
 -85.5367
