 30.1582
 30.027
 30.0854
 30.0102
 28.207
 28.2123
 28.1399
 28.1094
 28.7098
 28.7702
 28.6928
 28.7802
 28.6266
 28.6674
 28.7422
 28.7431
 27.7379
 27.6502
 27.7679
 27.7818
 27.7688
 27.8205
 27.7222
 27.8016
 30.6718
 30.7859
 30.7539
 30.6612
 30.5671
 30.5342
 30.5378
 30.6051
 27.727
 27.7603
 27.8268
 27.7492
 27.788
 27.781
 27.8038
 27.7055
 30.9611
 31.0515
 30.9174
 30.8995
 28.6056
 28.6044
 28.6668
 28.6195
 29.6726
 29.6983
 29.7574
 29.6188
 28.2853
 28.3646
 28.4012
 28.3443
 28.9849
 28.9942
 28.9525
 28.9015
 30.3362
 30.4175
 30.2889
 30.4167
 28.0048
 27.9547
 28.0027
 27.9267
 28.4457
 28.4875
 28.4293
 28.479
 29.0381
 29.0265
 29.0185
 28.9774
 27.9351
 27.9537
 27.9147
 27.8496
 30.4647
 30.578
 30.473
 30.536
 27.5598
 27.5666
 27.4856
 27.4689
 31.6137
 31.6832
 31.6499
 31.5531
 28.4277
 28.3755
 28.4383
 28.4579
 29.1485
 29.1861
 29.0803
 29.0801
 28.8967
 28.8939
 28.9299
 28.9541
 29.43
 29.3564
 29.3149
 29.4085
 30.3337
 30.4039
 30.3084
 30.3139
 29.695
 29.7229
 29.8093
 29.7507
 28.3463
 28.3604
 28.3784
 28.4345
 29.0587
 28.9229
 29.0815
 29.041
 29.6366
 29.5547
 29.5739
 29.6302
 28.5749
 28.6464
 28.5771
 28.6378
 28.1762
 28.2093
 28.209
 28.2045
 29.678
 29.7689
 29.6738
 29.7989
 30.2647
 30.2749
 30.3072
 30.3022
 28.6697
 28.7527
 28.6987
 28.6869
 30.6414
 30.6196
 30.5726
 30.5865
 28.4308
 28.4166
 28.3003
 28.3263
 27.3592
 27.4351
 27.3694
 27.4517
 28.8452
 28.8704
 28.8358
 28.9233
 28.3723
 28.3154
 28.3385
 28.3831
 30.6299
 30.6369
 30.5302
 30.6959
 28.5867
 28.6432
 28.6208
 28.5493
 27.6905
 27.716
 27.6574
 27.6944
 29.8902
 29.813
 29.8513
 29.8881
 28.5561
 28.4548
 28.4821
 28.4598
 30.2325
 30.1243
 30.1738
 30.2709
 29.69
 29.7357
 29.7657
 29.7901
 29.0218
 29.0725
 29.0861
 29.1434
 30.3969
 30.4546
 30.4843
 30.3648
 28.7991
 28.8733
 28.852
 28.8136
 29.6078
 29.6847
 29.5683
 29.71
 28.8704
 28.8184
 28.8367
 28.8253
 29.8233
 29.7414
 29.8054
 29.6956
 28.6682
 28.6787
 28.6197
 28.7396
 28.3429
 28.3565
 28.3048
 28.2529
 28.359
 28.415
 28.3832
 28.4761
 29.9079
 29.9436
 30.039
 29.8835
 29.347
 29.3841
 29.3984
 29.2928
 31.5554
 31.5686
 31.6615
 31.5849
 29.7789
 29.7967
 29.8719
 29.7908
 29.1362
 29.0161
 29.0807
 29.0693
 29.5315
 29.5318
 29.4418
 29.5903
 29.6817
 29.5987
 29.6739
 29.5943
 30.4145
 30.473
 30.3674
 30.3924
 27.9294
 27.8529
 27.8048
 27.9299
 27.7508
 27.7312
 27.6921
 27.6687
 29.001
 28.9035
 29.0525
 29.0033
 29.7459
 29.7637
 29.7142
 29.8033
 28.3932
 28.3691
 28.3262
 28.3995
 30.4991
 30.6662
 30.6136
 30.6239
 30.4833
 30.5914
 30.6048
 30.5207
 31.8226
 31.9115
 31.829
 31.8205
 28.769
 28.663
 28.7348
 28.6627
 29.9447
 29.8691
 29.8503
 29.943
 30.0852
 30.1541
 30.0197
 30.0584
 27.6373
 27.5555
 27.5814
 27.545
 30.3248
 30.3916
 30.4716
 30.3609
 30.1161
 30.1567
 30.2135
 30.1141
 29.9489
 29.8875
 29.9624
 30.0268
 29.2173
 29.2147
 29.1545
 29.1541
 30.0281
 29.9255
 30.0016
 29.9655
 29.689
 29.6447
 29.6216
 29.6605
 29.3033
 29.3234
 29.3641
 29.3789
 30.2368
 30.3568
 30.2236
 30.3654
 32.0152
 31.9818
 31.9039
 31.9308
 30.4638
 30.4507
 30.3735
 30.4174
 28.668
 28.7487
 28.6648
 28.7747
 28.6787
 28.7318
 28.6676
 28.7631
 28.3269
 28.4066
 28.3961
 28.3553
 30.739
 30.7634
 30.7395
 30.6905
 27.4652
 27.4846
 27.5467
 27.4362
 28.4746
 28.408
 28.494
 28.4592
 30.6331
 30.6115
 30.7044
 30.7604
 29.6812
 29.6957
 29.7047
 29.601
 30.1204
 30.0617
 30.1997
 30.1438
 30.1033
 30.146
 30.1425
 30.6253
 30.6486
 30.6528
 30.7126
 28.5382
 28.5909
 28.639
 28.5243
 29.4493
 29.3461
 29.3722
 29.4236
 28.6765
 28.5917
 28.6842
 29.845
 29.9607
 29.8759
 29.9101
 29.2047
 29.1398
 29.1618
 29.2451
 28.0158
 28.136
 28.1238
 27.9855
 30.555
 30.5537
 30.421
 30.4811
 30.2325
 30.3097
 30.3776
 30.2895
 28.7602
 28.8421
 28.8493
 28.8205
 28.5043
 28.5465
 28.4409
 28.449
 30.6223
 30.5621
 30.6093
 30.6757
 30.2845
 30.2598
 30.0922
 30.1326
 29.4577
 29.3671
 29.3144
 29.4567
 27.8433
 27.7986
 27.8209
 27.8006
 28.7215
 28.6483
 28.6116
 28.6533
 29.1686
 29.2814
 29.1992
 29.1703
 31.6606
 31.8301
 31.6865
 31.6915
 29.3098
 29.3473
 29.2475
 29.2162
 28.0032
 28.0969
 28.0042
 28.106
 30.031
 30.1668
 29.9857
 30.0043
 30.3377
 30.3127
 30.4152
 30.348
 30.2223
 30.3174
 30.3159
 30.2858
 31.1926
 31.2102
 31.2038
 31.1366
 30.0697
 30.2182
 30.2027
 30.1991
 28.7596
 28.7563
 28.7439
 28.8051
 30.6916
 30.6224
 30.586
 30.5649
 27.9584
 28.0262
 27.9592
 27.945
 30.5363
 30.6529
 30.6619
 30.5408
 28.0545
 28.162
 28.04
 28.1073
 29.3676
 29.4275
 29.4229
 29.3899
 29.5076
 29.4153
 29.4034
 29.4703
 29.8456
 29.8471
 29.7351
 29.8161
 30.039
 30.0384
 30.1376
 30.1387
 27.5657
 27.482
 27.4628
 27.471
 29.9554
 30.0364
 29.9507
 30.0183
 27.3461
 27.4151
 27.3738
 27.4762
 28.3991
 28.4462
 28.3439
 28.4187
 31.4455
 31.3541
 31.3574
 31.4455
 27.6284
 27.6372
 27.5922
 27.5681
 30.3554
 30.2687
 30.3616
 30.4509
 31.2151
 31.3289
 31.3748
 31.2166
 28.2168
 28.2439
 28.2807
 28.2514
 27.6784
 27.597
 27.6548
 27.6911
 28.8882
 28.8858
 28.9024
 28.941
 28.295
 28.3775
 28.2816
 28.3755
 30.1959
 30.3095
 30.2356
 30.291
 28.7529
 28.7959
 28.7665
 28.7053
 29.615
 29.6022
 29.5387
 29.5346
 30.5602
 30.5003
 30.5802
 30.5906
 30.9847
 30.9811
 31.0296
 30.901
 29.3291
 29.3504
 29.2803
 29.3787
 29.1776
 29.2125
 29.2169
 29.2819
 30.3164
 30.3233
 30.2236
 30.2476
 30.2144
 30.3711
 30.2434
 30.2421
 28.6504
 28.6101
 28.6606
 28.6964
 27.7413
 27.8127
 27.6933
 27.6722
 27.8646
 27.8991
 27.8524
 27.8237
 27.9073
 27.9819
 27.9589
 27.9251
 28.4744
 28.5102
 28.4274
 28.4998
 30.1897
 30.3285
 30.2338
 30.2644
 30.1292
 30.066
 30.0411
 30.0257
 29.0855
 29.156
 29.2152
 29.2486
 28.5293
 28.5712
 28.4746
 28.5327
 28.5215
 28.5586
 28.5193
 28.4643
 28.956
 29.0256
 28.9677
 28.9519
 28.6785
 28.6071
 28.684
 28.6802
 30.7682
 30.7984
 30.7473
 30.6418
 32.2461
 32.3395
 32.2132
 32.2917
 30.0222
 30.044
 30.1278
 30.0821
 32.0922
 32.0018
 31.9997
 30.0516
 30.0642
 29.9944
 30.0705
 27.8813
 27.9303
 27.8924
 27.9392
 29.0073
 28.9763
 28.9498
 28.8925
 27.8143
 27.8537
 27.7889
 27.8748
 30.2612
 30.2514
 30.3719
 30.2985
 28.5322
 28.5214
 28.3894
 28.4242
 28.9496
 28.9962
 29.0744
 28.9879
 27.5823
 27.5312
 27.5227
 27.6618
 28.2003
 28.2213
 28.1922
 28.1254
 29.9482
 29.8714
 29.9248
 29.9464
 28.4486
 28.4525
 28.5279
 28.4221
 28.109
 28.2079
 28.1708
 28.1926
 31.193
 31.2969
 31.3112
 31.2857
 29.0358
 29.0122
 28.9614
 28.9516
 28.0362
 28.0144
 28.0184
 28.0955
 28.718
 28.6549
 28.7715
 28.6143
 28.0239
 28.1074
 28.0229
 28.0183
 30.1563
 30.0651
 30.0148
 30.0664
 28.1978
 28.0831
 28.2141
 28.1048
 29.4498
 29.4047
 29.5289
 29.4493
 29.2774
 29.2374
 29.1966
 29.2826
 28.2104
 28.2519
 28.2956
 28.1743
 27.3931
 27.4481
 27.4485
 27.4078
 30.9029
 30.8596
 30.792
 30.7571
 29.7148
 29.6407
 29.5992
 29.6968
 28.6972
 28.7593
 28.7767
 28.755
 28.2855
 28.2272
 28.2561
 28.2168
 29.9404
 30.0556
 30.0021
 29.9826
 30.6121
 30.5389
 30.4875
 30.604
 28.4273
 28.4208
 28.5258
 28.5087
 28.54
 28.4814
 28.5499
 28.5147
 27.6552
 27.5851
 27.5263
 27.6472
 30.3779
 30.2613
 30.3963
 30.3179
 27.7468
 27.6646
 27.674
 27.7345
 29.7899
 29.7231
 29.8153
 29.8393
 32.1804
 32.192
 32.1071
 32.0952
 27.927
 27.907
 27.8471
 27.8944
 28.6141
 28.5731
 28.6558
 28.7208
 28.0098
 27.9961
 28.0489
 28.0478
 29.1803
 29.2928
 29.2551
 29.1864
 29.4117
 29.39
 29.372
 29.4152
 28.2901
 28.3766
 28.3766
 28.34
 30.2112
 30.1762
 30.269
 30.1937
 30.4814
 30.4372
 30.4113
 30.488
 31.7727
 31.8066
 31.8843
 31.9072
 28.8799
 28.8303
 28.7951
 28.7678
 29.1456
 29.1741
 29.0287
 29.1359
 28.7549
 28.8874
 28.7656
 28.7279
 29.6745
 29.5615
 29.5485
 29.6915
 27.6851
 27.6711
 27.6369
 27.7711
 27.6632
 27.5593
 27.6622
 27.6778
 28.6501
 28.6315
 28.5614
 28.5501
 32.8508
 32.8967
 32.8298
 32.7102
 29.3308
 29.3708
 29.3213
 29.4382
 29.2962
 29.3062
 29.4173
 29.3095
 29.3413
 29.3093
 29.4371
 29.4191
 28.2394
 28.2629
 28.1709
 28.2737
 31.5947
 31.4574
 31.6392
 31.6027
 31.6145
 31.6868
 31.6766
 31.8135
 28.088
 28.1403
 28.0994
 28.1807
 29.8637
 29.7523
 29.9071
 29.7912
 29.554
 29.5718
 29.5394
 29.5333
 28.5214
 28.5504
 28.592
 28.6399
 30.3123
 30.2556
 30.2204
 30.2699
 28.1829
 28.2406
 28.22
 28.1654
 29.7008
 29.8571
 29.7834
 29.9012
 29.7786
 29.747
 29.8399
 29.8145
 30.6028
 30.6698
 30.591
 30.708
 29.4541
 29.3662
 29.3924
 29.3299
 28.0857
 28.0541
 28.061
 28.1051
 28.5206
 28.4442
 28.4094
 28.4815
 30.3011
 30.3056
 30.2285
 30.2635
 30.0608
 29.9558
 29.9562
 30.0592
 27.885
 27.8562
 27.8057
 27.8411
 28.2571
 28.3266
 28.2892
 28.3
 29.2528
 29.281
 29.3315
 29.2799
 30.7924
 30.7645
 30.7637
 30.7334
 31.0979
 30.9965
 31.0486
 31.1363
 28.6353
 28.7307
 28.7637
 28.6945
 30.5472
 30.6425
 30.5422
 30.723
 27.953
 28.0416
 28.0324
 27.9623
 28.8046
 28.6905
 28.7476
 28.804
 28.2515
 28.2802
 28.3125
 28.2545
 28.4574
 28.5482
 28.5383
 28.4819
 29.3586
 29.4063
 29.3508
 29.2964
 30.1268
 30.2896
 30.2606
 30.1752
 30.9581
 30.8073
 30.9069
 30.9523
 30.6403
 30.7685
 30.635
 30.6377
 30.1439
 30.2328
 30.2458
 30.1574
 29.3244
 29.2906
 29.2782
 29.4452
 29.3234
 29.221
 29.287
 29.3227
 29.2396
 29.3146
 29.1998
 29.2792
 28.7215
 28.7616
 28.6819
 28.6957
 31.4305
 31.5587
 31.414
 31.4145
 29.0025
 28.9769
 29.0133
 28.9303
 30.3299
 30.423
 30.3746
 30.3509
 29.5721
 29.4836
 29.5377
 29.493
 27.7636
 27.8877
 27.7875
 27.8296
 29.2002
 29.2372
 29.2309
 29.2857
 30.5006
 30.5459
 30.5125
 30.6311
 29.5253
 29.5564
 29.4855
 29.437
 30.0896
 30.026
 30.0347
 30.123
 29.3334
 29.4433
 29.3481
 29.4383
 31.2182
 31.3075
 31.2823
 31.1724
 29.5848
 29.5652
 29.5174
 29.5096
 28.6135
 28.6392
 28.5778
 28.644
 28.6367
 28.6261
 28.6008
 28.6193
 27.8267
 27.9584
 27.8571
 27.9049
 29.8834
 29.8928
 29.7987
 29.8674
 30.1855
 30.1212
 30.2095
 30.0316
 27.7349
 27.8525
 27.7555
 27.7776
 30.1614
 30.1819
 30.0896
 30.1584
 28.1176
 28.1394
 28.061
 28.1549
 28.9784
 28.8684
 28.928
 28.8678
 29.3427
 29.4675
 29.3384
 29.345
 30.168
 30.0689
 30.0819
 30.1684
 29.3466
 29.3308
 29.2204
 29.3271
 28.104
 28.1192
 28.0871
 28.0838
 32.398
 32.3191
 32.2441
 32.4542
 30.8451
 30.871
 30.8717
 30.8423
 30.7191
 30.6737
 30.7212
 30.8026
 29.8
 29.7553
 29.8487
 29.728
 29.5826
 29.649
 29.5992
 29.6376
 29.9804
 30.0619
 30.084
 29.9924
 27.6211
 27.6515
 27.5426
 27.6644
 30.2075
 30.2683
 30.2603
 30.1403
 28.7639
 28.7797
 28.7464
 28.8413
 29.233
 28.1655
 28.2458
 28.2425
 28.268
 28.828
 28.7571
 28.7005
 28.7598
 30.8784
 30.8429
 30.8319
 30.8751
 29.7113
 29.7486
 29.6792
 29.6274
 29.9903
 30.1071
 30.0444
 30.0686
 28.0245
 28.1085
 28.088
 28.077
 29.557
 29.6779
 29.5969
 29.609
 27.9031
 27.8936
 27.9647
 27.9612
 28.5068
 28.4638
 28.531
 28.4386
 30.9063
 30.8529
 30.8802
 30.7649
 30.2279
 30.3215
 30.1554
 30.2341
 28.7736
 28.7157
 28.7033
 28.7548
 29.3409
 29.4366
 29.3047
 30.6893
 30.7413
 30.6659
 30.648
 28.6487
 28.7873
 28.6846
 28.7523
 30.07
 30.2261
 30.1716
 30.1612
 29.3685
 29.4927
 29.4235
 29.3653
 27.9017
 27.9033
 28.016
 27.9226
 29.8078
 29.8465
 29.898
 29.8284
 28.2113
 28.3217
 28.243
 28.2056
 29.1666
 29.2284
 29.1729
 29.2682
 28.3108
 28.3568
 28.419
 28.378
 27.9951
 27.9939
 27.908
 27.9525
 29.7065
 29.7215
 29.6464
 29.651
 32.1484
 32.0422
 31.9905
 31.9754
 27.4819
 27.5235
 27.5393
 27.5353
 28.6506
 28.7106
 28.7151
 28.6564
 30.411
 30.4125
 30.236
 30.372
 29.5553
 29.483
 29.4756
 29.5593
 31.2811
 31.2472
 31.3092
 31.377
 27.9555
 27.8883
 27.8018
 27.8645
 30.7207
 30.7973
 30.7497
 30.7315
 28.8704
 28.7924
 28.901
 28.8436
 30.2706
 30.4334
 30.3061
 30.3014
 27.4394
 27.4576
 27.4508
 27.5302
 27.5567
 27.5634
 27.6226
 27.6523
 28.39
 28.4571
 28.4942
 28.3542
 28.8317
 28.8287
 28.8498
 28.9259
 28.8469
 30.4491
 30.4472
 30.5399
 30.4847
 30.3275
 30.3692
 30.4112
 30.3152
 28.5963
 28.5264
 28.5219
 28.5095
 30.4998
 30.4007
 30.4195
 30.5024
 30.1458
 30.203
 30.1991
 30.1044
 28.4511
 28.4174
 28.4226
 28.5131
 29.6851
 29.567
 29.677
 29.5796
 28.5947
 28.588
 28.5961
 28.5232
 30.0181
 30.0203
 30.0998
 30.0739
 29.8144
 29.7639
 29.7409
 29.7305
 29.4084
 29.3249
 29.4351
 29.3564
 28.8868
 28.7958
 28.8385
 28.7526
 28.2716
 28.3114
 28.1918
 28.2178
 28.9129
 28.9318
 28.9789
 28.9649
 28.9738
 28.909
 28.912
 28.9136
 31.0084
 31.0087
 30.9284
 30.8895
 28.7272
 28.732
 28.6804
 28.7211
 29.2928
 29.2802
 29.2186
 29.2771
 29.1145
 29.1329
 29.181
 29.139
 29.7817
 29.7773
 29.8549
 29.7957
 30.6207
 30.6448
 30.5692
 30.7417
 28.4005
 28.4341
 28.3957
 28.3599
 30.572
 30.644
 30.6029
 30.5208
 27.657
 27.6604
 27.5556
 27.6211
 28.2847
 28.3479
 28.252
 28.2878
 28.2817
 28.2661
 28.2502
 28.2877
 28.0619
 28.1093
 28.1127
 28.0181
 28.4881
 28.4602
 28.5321
 28.4637
 31.3342
 31.3905
 31.4936
 29.0103
 29.1215
 29.0275
 29.0313
 28.3187
 28.3612
 28.3808
 28.34
 29.7483
 29.842
 29.7947
 29.7656
 30.1044
 30.0455
 30.148
 30.039
 28.516
 28.499
 28.4518
 28.577
 29.4257
 29.4581
 29.4274
 29.338
 30.0105
 29.9931
 30.064
 30.0614
 27.664
 27.5584
 28.7277
 28.7367
 28.8203
 28.8085
 29.3747
 29.405
 29.4472
 28.9825
 28.9561
 28.9629
 29.0475
 30.9391
 31.0223
 30.896
 30.9104
 28.2138
 28.164
 28.1616
 28.2538
 28.9991
 29.02
 29.0683
 29.0557
 29.7629
 29.8325
 29.7776
 29.7085
 29.0168
 29.0958
 29.0711
 29.0265
 30.6341
 30.6787
 30.5872
 30.6106
 30.8184
 30.6509
 30.7709
 30.7314
 29.3801
 29.319
 29.2687
 29.3284
 30.4116
 30.4122
 30.4598
 30.3604
 29.2486
 29.2948
 29.2721
 29.3066
 28.1114
 28.134
 28.2128
 28.2226
 30.4014
 30.3515
 30.2953
 30.3608
 31.763
 31.6512
 31.607
 31.5655
 28.7744
 28.9279
 28.8467
 28.7806
 29.4789
 29.4191
 29.5096
 29.4239
 30.5232
 30.5589
 30.4377
 30.4771
 29.3697
 29.4148
 29.3278
 29.3371
 28.0127
 28.0434
 28.0033
 28.0155
 30.1886
 30.2062
 30.2628
 30.2251
 28.93
 28.952
 28.9535
 29.0003
 29.645
 29.5233
 29.5942
 29.4747
 28.5297
 28.4728
 28.4728
 28.4246
 28.1861
 28.1804
 28.145
 28.217
 30.3659
 30.2928
 30.3452
 30.1978
 29.8049
 29.7323
 29.7537
 29.7781
 28.8401
 28.8492
 28.9671
 28.8805
 30.563
 30.5281
 30.5355
 30.4997
 32.3129
 32.4655
 32.4441
 32.3886
 29.0601
 29.1261
 29.1498
 29.1358
 32.5433
 32.5728
 32.4451
 32.3879
 32.3731
 32.2601
 32.2085
 32.232
 31.0171
 30.9494
 30.9382
 31.0464
 28.7401
 28.7856
 28.8402
 28.8587
 28.7718
 28.694
 28.6975
 28.6389
 28.6312
 28.707
 28.6492
 28.7339
 28.7941
 28.873
 28.8558
 28.7617
 31.3199
 31.4243
 31.3413
 31.4353
 30.4082
 30.4749
 30.3506
 30.3857
 30.3619
 30.5567
 30.5443
 30.448
 29.6321
 29.5354
 29.6309
 29.5135
 28.9159
 28.9687
 28.9174
 28.9454
 28.5617
 28.5577
 28.5973
 28.5249
 30.2884
 30.1949
 30.1788
 30.2722
 28.6984
 29.4434
 29.4048
 29.3815
 29.433
 27.561
 27.5533
 27.4651
 27.5173
 29.4878
 29.4918
 29.4256
 29.4862
 27.9983
 27.9226
 27.9818
 30.5359
 30.4471
 30.4256
 30.5637
 32.1847
 32.1018
 32.0656
 32.0327
 29.3379
 29.3458
 29.2564
 29.3916
 29.7883
 29.8827
 29.8958
 29.8835
 30.5189
 30.4163
 30.3752
 30.3706
 30.3735
 30.3274
 30.4307
 30.3226
 31.0185
 31.2302
 31.1051
 31.1347
 28.9253
 28.9307
 28.8705
 28.7676
 29.387
 29.3037
 29.3886
 29.347
 30.0083
 30.0485
 29.9886
 30.0048
 29.4426
 29.5239
 29.3378
 28.3319
 28.3869
 28.4039
 30.1962
 30.1839
 30.2884
 30.2967
 31.2072
 31.2797
 31.2776
 31.2241
 29.928
 29.8824
 29.8663
 29.9535
 31.0335
 31.1288
 30.989
 31.1703
 28.4111
 28.2919
 28.3762
 28.3602
 28.3629
 28.342
 28.3136
 28.2726
 30.5902
 30.6414
 30.6179
 30.6432
 31.0968
 31.2526
 31.1766
 31.141
 29.0928
 29.1933
 29.1116
 29.1638
 27.743
 27.8023
 27.6905
 27.7844
 31.1848
 31.1808
 31.2654
 31.172
 28.6549
 28.7336
 28.7319
 28.6403
 31.7848
 31.8293
 31.7254
 31.7755
 28.5301
 28.4623
 28.5567
 28.4024
 29.6355
 29.7067
 29.5955
 29.7448
 28.4061
 28.4059
 28.3192
 28.3364
 30.4995
 30.468
 30.4297
 30.3359
 29.7438
 29.8177
 29.7998
 29.8224
 30.0833
 30.1212
 30.0383
 30.0267
 30.1005
 30.1636
 30.0555
 30.1526
 29.081
 29.0325
 29.0641
 29.1319
 29.4673
 29.5432
 29.4633
 29.4651
 28.3105
 28.3945
 28.4108
 28.3555
 27.6217
 27.5565
 27.7047
 27.7232
 29.4859
 29.4957
 29.5613
 29.5016
 28.1229
 28.1477
 28.1791
 28.077
 28.5856
 28.4675
 28.4398
 28.487
 31.37
 31.4608
 31.5605
 31.425
 30.5851
 30.4105
 30.4385
 30.4987
 29.627
 29.6983
 29.7217
 29.671
 31.0716
 31.1729
 31.1902
 31.2326
 28.9653
 28.8692
 28.8852
 28.9384
 28.4046
 28.2725
 28.3443
 28.3207
 30.9819
 30.8582
 30.9784
 30.9823
 29.335
 29.2688
 29.3295
 29.3026
 29.9723
 29.9954
 29.9956
 30.0472
 32.2251
 32.1723
 32.0621
 32.1576
 29.7852
 29.8022
 29.8064
 29.7299
 29.3187
 29.2715
 29.2875
 29.2541
 28.6613
 28.6045
 28.6474
 28.5754
 30.1522
 30.1222
 30.1124
 29.2967
 29.309
 29.3306
 29.3165
 29.8737
 29.9484
 29.7548
 29.8564
 28.7441
 28.8181
 28.7467
 28.7925
 28.6975
 28.5857
 28.6544
 28.6278
 27.9704
 28.0149
 27.9829
 28.0792
 30.3063
 30.3488
 30.2538
 30.3478
 27.7182
 27.7027
 27.6716
 27.7069
 30.1173
 30.0408
 30.1076
 30.1526
 29.3966
 29.3082
 29.3175
 29.2678
 29.2923
 29.3707
 29.3568
 29.4005
 32.4233
 32.5223
 32.4058
 32.4731
 29.8095
 29.8698
 29.803
 29.7828
 29.389
 29.4322
 29.3338
 29.2369
 29.4025
 29.3814
 29.3615
 29.4745
 27.4879
 27.4972
 27.573
 27.5402
 30.1374
 30.0351
 29.9769
 30.1054
 30.0121
 30.0729
 29.9705
 30.0919
 28.5853
 28.4949
 28.5593
 28.5323
 30.3499
 30.3826
 30.4414
 30.4656
 30.5193
 30.5461
 30.4856
 30.5664
 28.7302
 28.8381
 28.7349
 28.8202
 28.7487
 28.7357
 28.8084
 28.7373
 29.1573
 29.1448
 29.0308
 29.0747
 30.0394
 30.0872
 28.9717
 29.0225
 28.9317
 29.0022
 30.0434
 29.9811
 30.0588
 30.0118
 29.5866
 29.4989
 29.4648
 29.489
 27.9979
 28.0449
 28.0709
 27.9987
 29.4492
 29.4256
 29.3814
 29.365
 28.4716
 28.4365
 28.4085
 28.5005
 30.2414
 30.1028
 30.1492
 30.119
 29.7328
 29.8134
 29.8227
 29.7943
 29.4239
 29.2536
 29.3309
 29.3529
 30.4375
 30.5143
 30.5437
 30.4626
 31.6279
 31.4857
 31.5909
 31.6234
 27.865
 27.8763
 27.919
 27.8883
 31.0323
 31.0146
 30.9816
 31.0717
 28.8965
 28.8713
 28.9559
 28.9572
 31.5837
 31.5288
 31.5864
 31.7138
 28.9628
 28.8865
 28.9328
 28.9408
 30.1601
 30.1778
 30.2176
 30.1786
 30.1525
 30.1262
 30.2138
 30.161
 29.0905
 29.0627
 29.1472
 29.1175
 28.2488
 28.3186
 28.247
 28.3351
 29.7475
 29.628
 29.6468
 29.6468
 30.615
 30.6683
 30.6104
 30.5529
 28.2343
 28.127
 28.1758
 28.1015
 30.1324
 30.1134
 30.0402
 30.0081
 29.6896
 29.5898
 29.6402
 29.567
 28.5153
 28.363
 28.4071
 28.4429
 29.1948
 29.1199
 29.0903
 29.0867
 29.4149
 29.4275
 29.396
 29.3412
 27.9518
 27.9167
 27.8668
 27.8454
 28.2795
 28.2388
 28.2575
 28.2892
 29.0492
 29.0307
 29.1316
 29.0935
 29.5008
 29.4562
 29.5469
 29.3655
 29.9615
 29.9321
 29.9348
 29.812
 30.6624
 30.6601
 30.7636
 28.3779
 28.3556
 28.3394
 28.3004
 31.5307
 31.5818
 31.7563
 31.6439
 28.5849
 28.6792
 28.6289
 28.6635
 30.3024
 30.4373
 30.3609
 30.3471
 30.5437
 30.6526
 30.5997
 30.6219
 28.0767
 28.1518
 28.107
 28.0156
 29.2255
 29.2742
 29.2121
 29.2684
 29.3307
 29.3576
 30.08
 29.539
 29.4524
 29.5825
 29.5079
 31.722
 31.6025
 28.7327
 28.7122
 28.6904
 30.6672
 30.6532
 30.7633
 30.6922
 28.6373
 28.7254
 28.6938
 28.6846
 29.6256
 29.5508
 29.5711
 29.5916
 30.0627
 29.9339
 30.0098
 29.9949
 28.063
 28.0646
 27.9809
 28.0299
 30.7508
 30.6628
 30.7807
 30.6688
 28.8661
 28.8712
 28.8363
 28.797
 27.843
 27.8321
 27.9245
 27.9184
 29.3067
 29.3915
 29.3338
 29.3842
 28.7972
 28.9265
 28.8886
 28.8888
 29.4465
 29.3935
 29.4571
 29.5804
 27.5557
 27.6846
 27.5773
 27.6839
 27.6888
 27.6702
 27.7106
 27.7843
 27.811
 27.8613
 27.8798
 27.8082
 29.5755
 29.6462
 29.5656
 29.5798
 28.9933
 29.0978
 29.0555
 29.0147
 29.4362
 29.4362
 29.5069
 29.4508
 29.7497
 29.7428
 29.6575
 29.7791
 28.6902
 28.6719
 28.66
 28.756
 28.265
 28.1885
 28.2301
 28.1706
 28.2016
 28.1714
 28.2388
 28.1156
 29.1426
 29.1097
 29.1746
 29.104
 29.434
 29.4321
 29.4592
 29.4992
 30.1942
 30.2245
 30.2124
 30.0982
 28.4729
 28.4106
 28.3999
 28.5007
 30.8977
 30.8773
 31.0157
 30.9658
 28.4624
 28.4231
 28.4608
 28.4664
 29.1637
 29.0436
 29.1583
 29.0664
 29.1832
 29.1956
 29.1565
 29.2851
 30.7221
 30.6936
 30.7184
 30.837
 32.5064
 32.4141
 32.6135
 32.5747
 29.7923
 29.7032
 29.7957
 29.7702
 28.4175
 28.4815
 28.4243
 28.4061
 30.5057
 30.6132
 30.5247
 30.4847
 28.9817
 28.9291
 29.0393
 28.9445
 28.9555
 28.8996
 28.825
 28.8468
 28.5712
 28.5317
 28.6394
 28.6114
 31.2187
 31.2233
 31.2675
 31.1521
 31.1804
 31.1428
 31.2092
 31.236
 28.3693
 28.2609
 28.2783
 28.3197
 28.7
 28.8051
 28.8654
 28.7798
 29.9112
 29.8922
 29.9532
 29.957
 29.3534
 29.3757
 29.3019
 29.263
 29.2246
 29.184
 29.1935
 29.252
 29.88
 29.9628
 29.8078
 29.9382
 28.8349
 28.9073
 28.8506
 28.922
 27.2487
 27.3563
 27.2831
 27.2663
 28.9685
 28.8582
 28.8764
 28.8289
 29.3949
 29.3719
 29.4244
 29.3228
 29.3704
 29.3723
 29.4409
 29.3903
 29.1352
 29.078
 29.1223
 29.1903
 27.7465
 27.7394
 27.7959
 27.7552
 28.3255
 28.3974
 28.3607
 28.8932
 28.8752
 28.8507
 28.8958
 30.6706
 30.6933
 30.5573
 30.6768
 29.5822
 29.5935
 29.6585
 29.5511
 28.2401
 28.3494
 28.3997
 28.3411
 30.1913
 30.1363
 30.1335
 30.0825
 29.829
 29.8837
 29.887
 29.7992
 29.6822
 29.7442
 29.8283
 29.721
 28.7225
 28.7898
 28.8099
 28.7861
 29.137
 29.2056
 29.135
 29.279
 28.8882
 29.0201
 28.9733
 28.9479
 30.4072
 30.3424
 30.3409
 30.3814
 29.7263
 29.6737
 29.6527
 29.734
 28.761
 28.8133
 28.743
 28.6719
 29.7281
 29.6978
 29.6399
 29.7728
 28.9138
 28.8155
 28.8271
 28.8609
 30.4506
 30.4885
 30.4214
 30.5028
 27.9113
 27.8998
 27.9754
 27.9112
 30.2042
 30.2563
 30.1587
 30.1254
 30.2794
 30.4704
 30.3581
 30.3598
 28.5065
 28.4871
 28.4323
 28.4203
 30.2896
 30.2729
 30.2473
 30.2456
 28.9118
 28.9602
 28.9169
 28.9977
 30.7028
 30.7253
 30.8196
 30.8143
 29.1217
 29.1613
 29.1421
 29.0751
 28.0095
 27.891
 27.98
 27.9198
 29.0695
 29.2005
 29.196
 29.1559
 28.627
 28.599
 28.6139
 28.6322
 28.9343
 28.9617
 28.9174
 28.9002
 28.914
 28.9022
 28.8514
 28.8022
 27.7938
 27.7682
 27.7421
 27.8527
 30.4038
 30.437
 30.5236
 30.5023
 30.2621
 30.3144
 30.4191
 30.3276
 28.1425
 28.1276
 28.1826
 28.0747
 28.0648
 28.0226
 28.0699
 29.9313
 29.9838
 29.9848
 29.9043
 28.9951
 28.9112
 28.9678
 28.9778
 28.9145
 28.8952
 28.9722
 28.8844
 30.3216
 30.2283
 30.3631
 30.287
 28.581
 28.5317
 28.5467
 28.5246
 29.4233
 29.5118
 29.4998
 29.412
 29.1344
 29.2378
 29.2072
 29.2607
 28.51
 28.4581
 28.4378
 28.4514
 30.7568
 30.7984
 30.75
 30.6949
 30.0041
 30.1199
 30.1185
 30.075
 27.7571
 27.8725
 27.7841
 27.8139
 30.3778
 30.3984
 30.3662
 30.2206
 30.7603
 30.816
 30.782
 30.7811
 29.3932
 29.3573
 29.4011
 29.2933
 31.6701
 31.6474
 31.6911
 31.5773
 29.303
 29.2798
 29.3195
 29.2942
 28.4652
 28.5167
 28.5366
 28.5471
 28.2353
 28.2803
 28.2622
 30.8286
 30.8153
 30.8085
 30.8441
 30.1436
 30.0378
 30.1671
 30.0613
 30.2254
 30.2537
 30.2687
 30.3467
 30.0733
 30.1669
 30.0945
 30.146
 27.7084
 27.6506
 27.6259
 27.6482
 30.6278
 30.6059
 30.6579
 30.7134
 30.1295
 30.2115
 30.1448
 30.0533
 28.3104
 28.2784
 28.3155
 28.3481
 29.7529
 29.7879
 29.7296
 29.9662
 30.1155
 30.0456
 28.9981
 29.1014
 29.1482
 31.5069
 31.4023
 31.3856
 31.4663
 29.2948
 29.2571
 29.3109
 29.2228
 29.2485
 29.2102
 29.3185
 29.2888
 28.0943
 28.0546
 28.137
 28.1524
 27.9625
 27.9924
 27.8664
 27.983
 30.36
 30.4108
 30.4176
 30.2804
 29.1048
 29.0021
 29.0215
 29.0005
 28.9597
 28.9012
 28.864
 28.8961
 29.4111
 29.3039
 29.3473
 29.2739
 29.8494
 29.8007
 29.8044
 29.9081
 29.1006
 29.1616
 29.1484
 29.0645
 30.3673
 30.3401
 30.3886
 30.3149
 28.1139
 28.143
 28.1078
 28.0844
 30.1667
 30.1733
 30.106
 30.0898
 28.1995
 28.2817
 28.2495
 28.1808
 27.918
 27.9639
 28.0031
 27.9306
 28.0562
 28.0853
 28.0757
 28.0968
 30.1584
 30.2221
 28.6855
 28.6882
 28.7541
 28.7216
 30.3264
 30.2335
 30.2668
 30.3117
 28.457
 28.3331
 28.3794
 28.3504
 28.1617
 28.2589
 28.1437
 28.2379
 29.8411
 29.8083
 29.7781
 29.8307
 29.1325
 29.1199
 29.0607
 29.103
 30.0198
 30.011
 29.9438
 30.0113
 29.5629
 29.5382
 29.5386
 29.4487
 32.0909
 31.9394
 32.0936
 31.9455
 28.0038
 28.0438
 27.9462
 28.0304
 29.9973
 30.1395
 29.9987
 30.0091
 30.725
 30.8263
 30.8145
 30.7076
 29.4727
 29.4991
 29.4269
 29.3704
 30.671
 30.854
 30.825
 30.7158
 29.6311
 29.7235
 29.7412
 29.6834
 28.6748
 28.7047
 28.6081
 28.7263
 29.2723
 29.3246
 29.3304
 29.2952
 28.1033
 27.9749
 28.1071
 29.4858
 29.3886
 29.568
 29.4403
 32.2103
 32.2237
 32.2449
 32.3067
 27.6266
 27.5953
 27.5732
 27.6422
 29.209
 29.214
 29.1686
 29.2243
 28.5389
 28.5942
 28.66
 28.5817
 30.4355
 30.355
 30.5464
 30.4699
 29.7634
 29.7086
 29.8728
 29.8057
 29.8695
 29.7332
 29.7824
 29.7306
 28.0105
 28.0509
 27.9835
 27.9469
 29.6705
 29.7447
 29.7993
 29.7708
 27.6673
 27.6856
 27.6535
 27.7271
 28.6562
 28.7335
 28.7352
 28.6505
 30.321
 30.2931
 30.2642
 30.3191
 31.6609
 31.688
 31.6006
 31.7172
 29.5829
 29.7041
 29.6442
 29.7145
 29.2563
 29.2657
 29.1925
 29.2927
 28.5364
 28.5537
 28.584
 28.6577
 31.9246
 31.9658
 31.8571
 31.971
 29.5113
 29.5836
 29.4654
 29.485
 27.7804
 27.8142
 27.8398
 27.8188
 28.3916
 28.3134
 28.3417
 28.3645
 28.2651
 28.3019
 28.2246
 28.3247
 28.2607
 28.3348
 28.3451
 28.3181
 28.3258
 28.2342
 28.2952
 28.2975
 28.9701
 28.9433
 28.9729
 28.9711
 30.2935
 30.0804
 29.99
 29.9735
 30.0299
 28.8119
 28.9363
 28.892
 28.8716
 28.826
 28.7994
 28.8978
 28.9033
 31.2196
 31.1555
 31.1367
 31.2154
 28.1989
 28.2054
 28.2448
 28.2118
 28.4914
 28.4412
 28.3603
 28.4065
 30.4271
 30.2671
 30.3
 30.1495
 30.1517
 30.1815
 30.0766
 30.0123
 30.0297
 29.9731
 30.2217
 30.3231
 30.4533
 30.3893
 28.787
 28.7044
 28.7233
 28.812
 27.8175
 27.8055
 27.8461
 27.8007
 29.313
 29.3497
 29.2964
 29.3886
 27.949
 28.0694
 28.0967
 28.1116
 29.5035
 29.5334
 29.5581
 29.4641
 28.7385
 28.8156
 28.8562
 28.8409
 30.1861
 30.1976
 30.2315
 30.2829
 29.0904
 28.9925
 29.1189
 29.0335
 29.011
 28.9171
 28.8702
 29.0097
 30.1895
 30.2374
 30.3145
 30.2838
 29.748
 29.8049
 29.6416
 29.6873
 29.4621
 29.4748
 29.5455
 29.614
 29.0041
 28.9746
 29.0088
 28.9695
 30.8372
 30.8626
 30.8327
 30.7265
 28.7633
 28.8524
 28.8201
 28.749
 29.8206
 29.9309
 29.8067
 29.7602
 28.6959
 28.7053
 28.6945
 28.7431
 28.024
 28.0961
 28.0437
 28.0664
 27.937
 27.9956
 27.9779
 27.9589
 27.9481
 27.9026
 28.023
 27.6552
 27.6098
 27.5778
 27.5364
 28.2864
 28.3731
 28.4416
 28.3369
 29.2649
 29.2814
 29.2241
 29.2366
 27.8445
 27.8892
 27.9331
 27.8585
 29.2328
 29.2341
 29.2766
 29.2865
 28.9328
 28.8834
 28.903
 28.1518
 28.0723
 28.1158
 28.12
 28.1064
 28.1943
 28.1558
 29.053
 29.063
 29.0121
 28.9954
 29.8645
 29.8003
 29.869
 29.7542
 28.7229
 28.7829
 28.8052
 28.8139
 27.9621
 27.9099
 27.9563
 27.9862
 30.0476
 30.1028
 30.0852
 30.1658
 29.3712
 29.3971
 29.4508
 29.4723
 29.2681
 29.1382
 29.2433
 29.2637
 28.5855
 28.6739
 28.6276
 28.6329
 30.1904
 30.274
 30.1569
 30.2496
 30.5001
 30.6033
 30.4908
 30.4578
 29.3933
 29.3962
 29.403
 29.3296
 27.6364
 27.6773
 27.6848
 27.6827
 29.9711
 30.0662
 29.9571
 30.0173
 30.3394
 30.2955
 30.4109
 30.2742
 28.847
 28.9413
 28.8422
 28.8633
 30.0195
 29.9417
 30.0034
 30.4071
 30.3185
 30.3554
 28.9885
 29.0549
 28.9337
 29.0226
 30.3336
 30.4035
 30.4386
 30.3276
 30.4379
 30.5476
 30.4356
 30.4639
 28.7681
 28.7561
 28.7855
 30.1058
 30.1102
 28.1426
 28.1299
 28.0343
 28.0205
 28.7367
 28.6415
 28.6428
 28.6619
 30.9785
 30.9109
 31.0295
 30.8792
 31.4843
 31.3498
 31.5391
 31.4239
 29.9639
 30.1437
 30.0537
 30.0169
 28.1098
 28.1135
 28.0672
 28.0982
 28.6346
 28.6961
 28.721
 28.6983
 30.8148
 30.8239
 30.8445
 30.8573
 30.0109
 30.0126
 29.9478
 29.9957
 30.0743
 30.0272
 30.0382
 30.307
 30.2364
 30.2353
 30.241
 30.2265
 30.3191
 30.2427
 30.1883
 30.4344
 30.5632
 30.4886
 30.5597
 27.9349
 27.8591
 27.9183
 27.8986
 27.8871
 27.8242
 27.9441
 29.358
 29.4129
 29.3452
 29.4316
 30.0442
 30.1734
 30.0302
 30.0528
 27.6425
 27.5796
 30.4361
 30.5255
 30.4893
 30.5484
 29.1665
 29.0428
 29.1199
 29.0544
 28.8811
 28.9156
 30.3634
 30.3469
 30.2688
 30.356
 27.9025
 27.8477
 27.9292
 27.8035
 27.7207
 27.7779
 27.7317
 27.6283
 29.4856
 29.4497
 29.4747
 31.2048
 31.0928
 31.1382
 30.1614
 30.0321
 30.1721
 30.155
 28.4888
 28.5585
 28.4341
 28.5375
 29.7812
 29.8211
 29.8776
 29.908
 29.8993
 29.9474
 29.8739
 29.9583
 28.8004
 28.7927
 28.766
 28.6775
 31.9627
 31.8026
 31.9509
 32.0198
 28.5612
 28.5616
 28.4729
 28.4794
 28.5749
 28.5809
 28.523
 28.502
 30.5073
 30.4776
 30.6306
 30.533
 28.1403
 28.0847
 28.0761
 28.1545
 32.1448
 32.2163
 32.295
 32.3367
 27.9454
 28.0668
 28.0695
 28.0562
 28.2033
 28.3002
 29.9889
 29.9153
 29.9255
 29.8671
 30.6086
 30.7303
 30.6672
 30.576
 28.1907
 28.1184
 28.1214
 28.1572
 29.833
 29.819
 29.8225
 29.8718
 27.6101
 27.6498
 27.6281
 30.0878
 30.1905
 30.1779
 30.766
 30.6404
 30.5981
 27.986
 27.9323
 27.9649
 27.9952
 30.0699
 30.1447
 30.1521
 30.1167
 28.1572
 28.1489
 30.7934
 30.7069
 30.7893
 30.7466
 29.3209
 29.2264
 29.2417
 29.2743
 30.0756
 30.0895
 29.6986
 29.5485
 29.5432
 29.6305
 29.9113
 29.9133
 29.9036
 30.0176
 27.7067
 27.6399
 27.7509
 27.7244
 30.6833
 30.7471
 30.7258
 28.3651
 31.9833
 32.1038
 32.0682
 32.0938
 28.146
 28.1017
 28.0805
 28.2028
 29.9181
 29.9087
 29.7697
 29.808
 28.5033
 28.5627
 28.5395
 28.5073
 29.8876
 29.9643
 30.0032
 29.9087
 28.789
 31.2136
 31.2693
 31.2733
 31.1999
 28.7452
 28.7646
 28.7745
 28.8375
 28.2572
 28.2397
 28.1738
 28.3219
 28.3359
 28.429
 28.3323
 28.1154
 28.0111
 28.0986
 28.0667
 30.5025
 30.4812
 30.3682
 30.4326
 28.019
 28.0138
 28.0316
 27.9608
 30.7324
 30.7774
 30.7366
 30.8487
 28.0863
 28.0412
 28.0271
 28.025
 29.4084
 29.4496
 29.4636
 29.4797
 28.5913
 28.5473
 28.5196
 28.5045
 28.9946
 29.0348
 29.0578
 29.0762
 27.9008
 27.9946
 29.2909
 29.3719
 29.3511
 29.2975
 31.0582
 31.0931
 30.9699
 31.0918
 30.769
 30.8093
 30.6725
 30.7935
 29.0252
 28.9643
 28.9325
 28.939
 28.5417
 28.5448
 28.55
 28.4577
 28.3772
 28.4499
 28.4014
 28.3645
 28.053
 28.1338
 28.1206
 28.1731
 28.391
 28.3222
 28.3629
 28.4099
 30.6381
 30.703
 30.6206
 30.7568
 30.3336
 30.324
 30.3522
 30.2284
 27.5952
 27.6587
 27.693
 27.6816
 29.0179
 28.9535
 28.9963
 28.8694
 30.144
 30.0124
 30.1101
 30.0867
 31.5814
 31.5835
 31.493
 31.724
 28.1332
 28.0954
 28.158
 28.0344
 30.147
 30.1053
 30.08
 30.0197
 29.6299
 29.5621
 29.6705
 29.6186
 30.8675
 30.8805
 30.8688
 30.7861
 28.8606
 28.9076
 28.8751
 28.8742
 27.981
 27.9756
 28.006
 27.9792
 28.947
 29.0624
 29.0153
 29.0352
 29.6009
 29.5389
 29.4822
 29.5329
 31.023
 30.9533
 30.9007
 31.0523
 27.9548
 28.6559
 28.6044
 28.6959
 28.5944
 29.5406
 29.5822
 29.657
 29.5833
 28.4424
 28.3984
 28.4219
 28.3388
 30.0985
 30.2434
 30.1472
 30.1122
 28.9677
 28.8989
 28.9923
 31.0324
 30.8375
 30.977
 30.9296
 28.2637
 28.3908
 28.3163
 28.3541
 30.5817
 30.6033
 30.5147
 30.5777
 27.3683
 27.4066
 27.3814
 27.3284
 30.2376
 30.234
 30.2004
 30.2364
 31.5479
 31.321
 31.37
 31.4547
 31.0989
 31.1119
 31.0308
 30.9731
 27.6075
 27.6677
 27.6836
 27.725
 27.8727
 27.8881
 27.8556
 27.8393
 29.3784
 29.3121
 29.3337
 29.2957
 30.1299
 30.1944
 30.1378
 29.2195
 29.2151
 29.3152
 29.2807
 28.7017
 28.7597
 28.6346
 28.6707
 29.0677
 28.9318
 28.9774
 29.0024
 29.2366
 29.2191
 29.0855
 29.1464
 27.5454
 27.5951
 27.6006
 27.6297
 30.3664
 30.3911
 30.261
 30.3631
 30.9867
 31.0938
 31.1264
 28.4911
 28.5369
 28.5505
 28.6054
 28.2484
 28.178
 28.2056
 28.2271
 30.1846
 30.1999
 30.1672
 30.314
 30.2928
 30.2462
 30.379
 28.0446
 28.0814
 27.998
 28.1084
 29.3806
 29.4011
 29.3174
 29.3723
 30.3008
 30.4143
 30.3309
 30.3602
 29.5261
 29.5715
 29.5689
 29.5062
 28.2906
 28.2808
 28.347
 28.2909
 30.1778
 30.0708
 30.2339
 30.1001
 29.4612
 29.6044
 29.5957
 29.4999
 29.8965
 29.7816
 29.8645
 27.9235
 27.9376
 27.9719
 27.9984
 29.2863
 29.3091
 29.3418
 29.2434
 27.5752
 27.606
 27.483
 29.1891
 29.1346
 29.1692
 29.1888
 30.9286
 30.8665
 30.9755
 30.9361
 29.0513
 29.0282
 28.9768
 28.915
 29.3085
 29.1863
 29.3382
 30.18
 30.1727
 30.0537
 30.0457
 30.6488
 30.6295
 30.7021
 30.5781
 30.1256
 30.0853
 30.0253
 30.1309
 31.6064
 31.5694
 31.4854
 31.4763
 29.6296
 29.6407
 29.6729
 29.6963
 29.9653
 29.989
 29.8919
 30.0124
 27.9258
 28.0489
 28.0222
 27.8975
 30.5801
 30.4626
 30.4752
 30.5244
 28.8018
 28.8239
 28.7816
 28.7391
 27.6266
 27.6037
 27.6414
 27.6834
 27.6122
 27.7209
 27.6688
 27.657
 28.3664
 28.3247
 28.3474
 28.3549
 27.6498
 27.5627
 27.5749
 27.6965
 28.006
 28.0063
 28.012
 27.5462
 27.6592
 27.6311
 27.6329
 30.9584
 31.0167
 30.9495
 31.0749
 29.5769
 29.7169
 29.7189
 29.6994
 29.8618
 29.7774
 29.8409
 29.7699
 29.7829
 29.8211
 29.8323
 29.8493
 27.8923
 27.9361
 27.8711
 27.8588
 29.695
 29.6816
 29.7871
 29.7711
 30.1259
 30.2199
 30.2299
 30.1682
 28.5317
 28.5514
 28.4826
 28.5922
 30.0282
 29.9664
 30.0442
 29.9222
 28.4956
 28.551
 28.5912
 29.1574
 29.0734
 29.0546
 28.0073
 28.0899
 28.1126
 28.0707
 29.5164
 29.4765
 29.5436
 29.5394
 28.7741
 28.8414
 28.815
 28.7388
 29.8107
 29.9279
 29.8764
 29.7858
 27.5516
 27.6106
 27.8272
 27.856
 27.8754
 27.7761
 31.0359
 31.0803
 31.0623
 31.1439
 28.7753
 28.7225
 28.6972
 28.6537
 30.1653
 30.0962
 30.2113
 30.2219
 32.4291
 32.521
 32.4201
 32.4647
 30.1106
 30.1495
 30.2067
 30.1414
 28.5762
 28.6566
 28.5761
 30.663
 30.6837
 30.5464
 30.5392
 27.6582
 27.7467
 27.6588
 27.7387
 30.1814
 30.1214
 30.1593
 30.0915
 28.8578
 28.7813
 28.8019
 28.851
 30.7644
 30.7873
 30.866
 30.7881
 31.951
 31.8057
 31.8956
 31.8181
 30.2819
 30.1947
 30.2774
 30.3151
 29.6132
 29.6505
 29.5815
 29.0595
 29.199
 29.0774
 29.1317
 30.4572
 30.4657
 30.5528
 28.4374
 28.4764
 28.4115
 28.369
 28.3941
 28.2939
 28.3903
 28.3102
 28.5866
 28.6729
 28.6069
 28.5912
 27.7867
 27.9503
 27.9028
 27.8706
 28.3516
 28.3732
 28.2951
 29.8697
 29.7884
 29.8253
 29.7578
 28.4471
 28.5146
 28.7495
 28.8208
 28.8395
 28.8031
 28.6079
 28.6314
 28.6079
 28.5712
 30.2916
 30.2573
 30.2737
 30.3549
 30.2504
 30.1532
 30.2282
 30.1264
 32.593
 32.5324
 32.4756
 32.5445
 30.1755
 30.1038
 30.1767
 29.7973
 29.83
 29.8519
 29.8137
 29.1611
 29.1635
 29.2095
 29.2249
 29.8515
 29.7666
 29.7394
 29.8079
 30.9195
 30.8595
 30.9338
 30.9302
 28.2462
 28.3636
 28.2826
 28.3216
 29.4692
 29.4134
 29.465
 29.5156
 28.0551
 28.0588
 28.0773
 28.0174
 29.0749
 29.128
 29.0688
 29.1155
 27.8162
 27.7584
 27.8113
 31.7842
 31.7019
 31.694
 31.7233
 28.6187
 28.5006
 28.5887
 28.5759
 29.393
 29.4644
 29.3788
 29.4129
 30.3637
 30.3908
 29.7771
 29.7527
 29.7036
 29.7284
 29.5441
 29.6343
 29.6182
 28.0007
 27.9745
 28.0469
 28.0005
 27.8798
 27.9237
 27.9764
 27.9668
 30.3858
 30.4232
 30.3702
 30.3915
 29.4262
 29.4498
 30.0533
 29.9631
 30.0196
 30.0926
 28.3947
 28.4684
 28.3437
 28.3345
 30.822
 30.7332
 30.8339
 30.7031
 30.2978
 30.2816
 30.3738
 30.3871
 30.0507
 29.955
 29.9153
 29.9627
 29.172
 29.1866
 29.203
 29.0753
 28.5561
 28.5558
 28.6048
 28.6219
 28.419
 28.4504
 28.5117
 28.4488
 32.2945
 32.2922
 32.3671
 32.4003
 30.6745
 30.5815
 30.5114
 28.9873
 29.1308
 29.0443
 28.9489
 28.8925
 28.9784
 28.847
 27.9652
 27.9125
 27.9521
 27.8838
 29.2819
 30.1621
 30.1528
 30.2399
 30.2184
 28.7645
 28.8004
 28.8643
 28.8393
 28.2863
 28.3745
 28.3737
 28.2779
 28.331
 28.3306
 30.4481
 30.5152
 30.5459
 30.5543
 29.1512
 29.0625
 29.085
 29.073
 30.7514
 30.8159
 30.7899
 30.7222
 28.8955
 29.7617
 29.8034
 29.6549
 29.6239
 29.8311
 29.7691
 29.7361
 29.7948
 27.9633
 28.0505
 27.8502
 27.8008
 27.7568
 27.8158
 31.1555
 31.2615
 31.1758
 31.1545
 28.3792
 28.3733
 28.4723
 28.3542
 29.0111
 29.087
 29.0256
 28.9437
 32.1502
 32.0949
 32.125
 32.202
 29.1949
 29.2041
 29.1565
 29.2367
 29.3088
 29.4038
 29.4523
 29.4514
 30.4564
 30.5468
 30.3767
 30.4361
 27.6414
 27.5598
 27.551
 27.5245
 29.3502
 29.4361
 29.4512
 29.8864
 29.7963
 29.7824
 29.8779
 27.796
 27.7024
 27.7706
 27.7574
 29.9762
 30.0475
 30.1119
 30.0055
 29.4267
 29.3732
 28.2506
 28.2659
 28.205
 28.3226
 29.0522
 29.0298
 28.945
 28.9392
 27.8
 27.8381
 27.7251
 27.7955
 29.4263
 29.2967
 30.3173
 30.294
 30.2644
 30.2583
 29.9593
 29.9462
 29.8825
 29.863
 28.2068
 28.1884
 28.2764
 28.2446
 28.4007
 28.448
 28.3631
 28.378
 28.4396
 28.5208
 28.4462
 28.4368
 29.9632
 29.8592
 29.9029
 29.9522
 31.3806
 31.4822
 31.4595
 31.4203
 27.6392
 27.5518
 27.6208
 27.5802
 30.3382
 30.3457
 30.3262
 30.2905
 29.1273
 29.0315
 29.0461
 29.0805
 29.8509
 29.7159
 29.8101
 29.7624
 29.128
 29.2321
 29.1174
 28.7858
 28.7004
 28.7766
 28.6587
 29.3055
 29.252
 29.2852
 29.3532
 28.5905
 28.5565
 28.5132
 28.6121
 28.5472
 28.5787
 28.5496
 28.663
 31.9875
 31.8716
 31.9836
 30.7057
 30.6191
 30.5289
 30.5662
 29.0033
 29.056
 29.0322
 29.0444
 28.2768
 28.193
 28.2409
 28.1956
 30.0999
 30.2385
 30.1048
 30.0243
 29.9521
 29.9453
 28.9264
 28.9746
 28.9268
 28.9209
 29.1239
 29.0285
 29.0239
 29.0099
 27.2461
 27.2746
 27.3191
 27.2252
 31.0172
 30.9323
 31.0288
 31.1244
 28.4848
 28.4855
 29.6325
 29.5672
 29.5468
 29.6387
 28.6243
 28.6073
 28.6041
 28.5785
 28.9256
 28.9209
 28.8709
 28.8827
 29.5838
 29.5761
 29.5053
 29.6332
 28.757
 28.6882
 28.6961
 28.6907
 30.3714
 30.3314
 30.3414
 30.2684
 30.7317
 30.8602
 30.7112
 30.7829
 28.2329
 28.1995
 28.1543
 28.0467
 29.1095
 29.0711
 29.0125
 31.3326
 31.4139
 31.3068
 28.0765
 28.0497
 28.0318
 28.0004
 28.0728
 28.1063
 28.1297
 28.1323
 29.3423
 29.3319
 29.3344
 29.2545
 27.9612
 27.9165
 27.9325
 27.9237
 27.73
 27.6145
 27.7227
 27.621
 29.5232
 29.4922
 29.4165
 29.5127
 28.2223
 28.1804
 28.1623
 28.1666
 27.2875
 27.2563
 27.3376
 27.241
 28.451
 28.4315
 28.4822
 28.3703
 29.0095
 29.1387
 29.0793
 29.1579
 28.209
 28.1667
 28.2251
 28.24
 28.6288
 28.6447
 28.6045
 28.832
 28.7694
 30.9763
 31.0053
 30.9933
 31.0483
 28.815
 28.7448
 28.7466
 28.7835
 31.408
 31.393
 31.3711
 31.3778
 31.2273
 31.2132
 31.1558
 31.0547
 28.9121
 28.8886
 28.8697
 28.9491
 29.6906
 29.6919
 29.7592
 29.6536
 28.6589
 28.5868
 28.6006
 28.6144
 29.2795
 29.3303
 30.8123
 30.8638
 30.842
 30.7593
 27.7017
 27.6713
 27.6399
 27.7084
 29.7111
 29.8076
 29.6669
 29.7165
 28.0618
 28.0788
 28.1452
 28.1019
 30.7527
 30.8706
 30.7747
 30.7762
 28.0308
 27.921
 27.956
 27.9382
 28.8383
 28.9364
 28.8607
 28.8738
 30.0794
 30.1616
 30.2097
 30.1748
 27.418
 27.4592
 27.4483
 27.5089
 29.8894
 29.7903
 29.865
 29.8873
 29.5089
 29.6725
 29.5776
 29.5907
 27.7125
 27.6983
 27.7641
 27.691
 29.3328
 29.4624
 29.4434
 29.4479
 28.2324
 28.1704
 28.1989
 28.2393
 28.2055
 28.2531
 28.2341
 29.5337
 29.6964
 29.6127
 29.6595
 28.2788
 28.2003
 28.2447
 28.227
 30.5164
 30.4172
 30.4189
 30.5446
 28.1231
 28.0749
 28.0764
 28.1174
 28.1438
 28.1696
 28.1216
 28.1609
 30.2617
 30.2804
 30.0876
 30.1838
 30.1797
 30.2155
 30.1258
 30.2587
 32.7843
 32.7627
 32.8794
 32.8697
 28.3068
 28.4029
 28.3812
 31.1527
 31.0011
 31.028
 31.0522
 27.8674
 27.9184
 27.9102
 27.8893
 30.3157
 28.1524
 28.2209
 28.1839
 28.1287
 28.1529
 28.1941
 28.2222
 32.1502
 32.3193
 32.3024
 32.2412
 32.1676
 32.2698
 32.2317
 32.2849
 27.8494
 27.9082
 27.8484
 27.8062
 30.1916
 30.2301
 30.1458
 30.2523
 28.644
 28.6847
 28.5976
 29.7972
 29.867
 29.8009
 29.9167
 29.4866
 29.4756
 29.5149
 28.0974
 28.1426
 28.0189
 29.0177
 28.9517
 28.9343
 28.99
 29.8038
 29.8863
 29.902
 29.8247
 30.28
 30.2481
 30.2987
 30.2564
 28.6909
 28.6497
 28.6384
 30.8623
 30.8012
 30.9335
 30.9456
 30.2795
 30.0588
 30.1576
 29.5928
 29.4595
 29.4628
 29.559
 30.2567
 30.1599
 30.1886
 30.2195
 30.2535
 30.1328
 30.1108
 30.1424
 28.048
 28.0957
 28.0847
 28.0907
 29.5066
 29.5828
 29.5053
 29.4778
 29.8773
 29.9446
 28.9791
 29.0455
 28.9942
 29.0798
 27.8095
 27.9796
 27.9466
 27.9674
 27.9833
 32.8462
 32.9051
 32.9533
 32.8578
 28.3079
 28.2335
 28.2799
 27.6362
 27.6732
 27.6873
 27.6526
 28.475
 28.5816
 28.5731
 28.575
 30.2977
 30.2609
 30.208
 30.305
 29.5109
 29.5694
 29.6271
 29.5523
 27.5816
 27.6006
 27.625
 27.631
 28.2931
 28.3445
 28.3994
 28.3419
 30.8477
 30.8892
 30.9001
 30.7853
 29.616
 29.5856
 29.5787
 29.6996
 29.7274
 29.6868
 29.6361
 29.7008
 32.9387
 32.9836
 32.9647
 32.9399
 30.5355
 30.5428
 30.5744
 30.4704
 28.3549
 28.266
 28.3679
 28.3182
 28.9323
 28.9394
 28.8717
 28.9557
 29.3465
 29.2713
 29.2036
 29.3567
 28.5792
 28.5064
 28.5423
 28.5352
 28.8141
 28.8374
 28.7498
 28.8404
 28.4883
 28.4846
 28.5377
 28.412
 27.3948
 27.5095
 27.4721
 27.3652
 28.2823
 28.3153
 28.3299
 28.4411
 28.5614
 28.5975
 28.6655
 28.5929
 28.6677
 29.0829
 29.0847
 29.1402
 29.0152
 27.8683
 27.9026
 27.913
 27.9093
 29.4288
 29.474
 29.3996
 29.4264
 28.9808
 28.9586
 28.9182
 29.0224
 29.1947
 29.282
 29.225
 29.1588
 29.7812
 29.9067
 29.8099
 29.9017
 31.6161
 31.5763
 31.5019
 31.6951
 27.3064
 27.4097
 28.7742
 28.8141
 28.8215
 32.3941
 32.4225
 32.4634
 30.031
 30.0923
 30.0536
 30.1322
 31.1238
 31.1469
 31.2867
 31.2697
 30.5595
 30.6053
 30.525
 30.6434
 27.7855
 27.8829
 27.8407
 27.8283
 29.1233
 29.2187
 29.1739
 29.2388
 28.6212
 28.5421
 28.5326
 28.4637
 28.8261
 28.8852
 28.9041
 29.0129
 28.5653
 28.5154
 28.5895
 28.5595
 29.3388
 29.3377
 28.2033
 28.3493
 28.2167
 28.3357
 28.4248
 28.4719
 28.5113
 28.3539
 30.0737
 30.1963
 30.058
 30.1821
 30.2246
 30.2048
 30.2072
 30.1837
 29.0511
 29.0321
 29.0667
 29.0187
 29.0468
 28.9842
 28.9382
 28.8826
 30.5398
 30.6848
 30.6969
 30.5358
 28.4519
 28.5311
 28.56
 28.5583
 27.4424
 27.4797
 27.4369
 27.4761
 28.1383
 28.1764
 28.1785
 28.2112
 27.3857
 27.3473
 27.4228
 27.3282
 28.0738
 27.9923
 28.0138
 28.0082
 29.1907
 29.0788
 29.165
 29.1349
 28.6153
 28.6618
 29.2977
 29.203
 29.3217
 29.2714
 30.1339
 30.0522
 30.0623
 30.0332
 28.3623
 28.2522
 28.2509
 28.3146
 29.3219
 29.3445
 29.3157
 29.4094
 29.4685
 29.5389
 29.5602
 29.519
 30.2751
 30.2637
 30.2167
 30.1539
 29.9817
 29.9349
 30.0192
 29.87
 30.3029
 30.2105
 30.2383
 30.271
 31.6652
 31.6676
 31.7673
 31.7026
 28.427
 28.3933
 28.4638
 28.4012
 28.7007
 28.6924
 31.2642
 31.3358
 31.3323
 31.4088
 29.8307
 29.7935
 28.7243
 28.7826
 28.7143
 28.2399
 28.2112
 30.496
 30.4912
 30.5558
 30.4269
 31.4265
 31.4082
 31.3822
 31.3556
 30.6018
 30.5701
 30.5084
 30.4839
 29.8678
 29.7385
 29.73
 29.7373
 28.9106
 28.9886
 28.997
 28.9842
 28.5094
 28.5415
 28.5543
 28.5616
 29.8502
 29.793
 29.7656
 29.7841
 29.0765
 29.0676
 29.0403
 29.1574
 29.0677
 29.1195
 29.1426
 29.0953
 29.1344
 29.0686
 29.0365
 29.0502
 28.9722
 29.102
 28.9821
 29.3291
 29.3878
 29.2755
 29.316
 29.6749
 29.6373
 29.7965
 29.6585
 30.2263
 30.14
 30.2815
 30.1399
 27.828
 27.8517
 27.808
 27.7649
 29.5262
 29.5231
 29.4092
 29.4327
 30.6884
 30.6805
 30.8786
 30.7317
 30.9235
 30.8548
 30.9326
 30.9413
 30.6563
 30.7539
 30.7419
 30.7108
 30.2398
 30.243
 30.143
 30.1206
 30.3566
 30.4132
 30.4393
 30.391
 28.0804
 28.0361
 28.0264
 28.0035
 29.4243
 29.4236
 29.4402
 29.3596
 28.4958
 28.4198
 28.4756
 28.5208
 30.2513
 30.168
 30.2751
 30.1951
 27.7682
 27.7431
 27.7517
 27.7314
 27.7087
 27.724
 27.63
 28.4716
 28.6234
 28.5858
 28.5731
 30.0523
 30.002
 30.1005
 30.0285
 27.5014
 27.6042
 27.5851
 29.631
 29.7151
 29.6155
 29.7461
 28.0997
 28.0876
 28.2268
 28.2058
 28.1436
 28.2367
 29.7074
 29.7514
 29.716
 30.5626
 30.5246
 30.6264
 30.6029
 30.2813
 30.2951
 30.1834
 30.2045
 29.2431
 29.146
 29.2803
 27.7136
 27.8254
 27.8124
 28.5035
 28.5981
 28.6161
 28.5642
 27.706
 27.7229
 27.8133
 27.6429
 29.5487
 29.4626
 29.4194
 29.477
 27.9443
 27.9301
 27.9005
 27.9939
 29.081
 29.0683
 29.1195
 29.177
 29.9763
 30.0979
 30.0386
 27.5707
 27.6328
 27.6016
 27.5102
 28.7173
 28.9683
 28.8761
 28.9204
 28.9576
 28.7467
 28.7292
 28.7978
 29.9833
 30.057
 30.0374
 30.0414
 30.0467
 29.9193
 29.6102
 29.6994
 29.68
 29.6758
 29.452
 29.3486
 29.4146
 29.3556
 28.5352
 27.4894
 27.5994
 27.6081
 27.533
 31.7742
 31.8997
 31.921
 31.9269
 29.9224
 29.9561
 30.0893
 30.1252
 30.0575
 30.0292
 30.0693
 30.0709
 30.1887
 30.1578
 28.4419
 28.5341
 28.5326
 28.4786
 28.3649
 28.3508
 28.444
 28.3477
 29.8552
 29.9623
 28.5866
 28.5535
 28.4583
 28.519
 28.5983
 28.5156
 28.591
 28.934
 29.0052
 29.0485
 29.0697
 29.4122
 29.4857
 29.4105
 29.4946
 28.4508
 28.3409
 28.3604
 28.4422
 28.2227
 28.2311
 28.1523
 28.2514
 28.2739
 28.2017
 28.2434
 28.4208
 28.4161
 28.3952
 28.4561
 29.545
 29.5219
 29.5064
 29.5765
 31.083
 31.1529
 31.0579
 31.0439
 29.7168
 29.7286
 29.7695
 29.7477
 28.2028
 28.2721
 28.3209
 28.2602
 28.6866
 28.7442
 28.7463
 28.6827
 29.8067
 29.7582
 29.7274
 29.7205
 28.7036
 28.7828
 28.7174
 28.7081
 29.0698
 29.0409
 29.1511
 29.0328
 29.0524
 28.9764
 29.0082
 28.9741
 28.6975
 28.6339
 28.6442
 27.9972
 27.9785
 28.0265
 28.0133
 29.7582
 29.6726
 29.7102
 29.7065
 29.3394
 29.2618
 29.2688
 29.2854
 30.9847
 31.0205
 30.9705
 30.8938
 30.361
 30.321
 30.2981
 30.377
 30.2782
 30.4287
 30.3463
 30.4348
 30.336
 30.2948
 30.31
 30.2574
 29.0965
 29.1396
 29.1196
 30.764
 30.789
 30.7133
 30.6916
 30.4511
 30.417
 30.3668
 30.4918
 27.541
 27.6291
 27.6314
 27.5615
 28.9913
 29.0314
 29.0815
 29.1138
 28.2297
 28.238
 28.2936
 28.2898
 28.9185
 28.8851
 28.9444
 28.985
 28.7064
 28.6549
 28.7172
 28.7045
 30.0178
 30.0922
 30.0649
 30.1695
 29.277
 29.122
 29.2464
 29.2198
 28.1234
 28.0676
 28.1074
 28.0817
 28.8396
 28.8701
 28.7598
 28.7772
 30.4235
 30.501
 30.4011
 30.3327
 27.9581
 27.93
 27.9609
 27.9183
 29.6281
 29.7001
 30.5764
 29.2158
 29.1773
 29.1164
 29.2314
 29.4243
 29.3349
 29.4328
 29.4524
 31.5219
 31.5347
 31.4396
 29.7321
 29.8229
 29.8436
 29.8977
 28.8821
 28.7562
 28.8143
 28.732
 29.0841
 29.0471
 29.0659
 29.1041
 27.9601
 27.9228
 27.9185
 27.9408
 30.2355
 30.0907
 30.1993
 30.0709
 30.0777
 30.0863
 29.9842
 31.24
 31.4023
 31.2749
 31.2858
 30.3119
 30.1846
 30.2879
 28.8705
 28.7243
 28.8448
 30.3405
 30.3563
 30.4424
 30.394
 29.4038
 29.3179
 29.3117
 29.299
 32.9368
 32.9623
 32.9063
 32.7667
 29.5131
 29.538
 29.5392
 30.7833
 30.815
 30.7851
 30.784
 29.6325
 29.663
 29.7539
 29.6847
 30.5141
 30.435
 30.443
 30.3742
 28.4624
 28.4279
 28.4705
 28.4081
 28.3172
 28.3909
 28.3433
 28.2972
 27.7286
 27.7252
 27.6828
 27.7817
 29.025
 29.1219
 29.0395
 29.0187
 30.4529
 30.5712
 30.4695
 30.5385
 29.9859
 30.0258
 31.2062
 31.2005
 31.1449
 31.1579
 29.4547
 29.4212
 29.7456
 29.5949
 29.6346
 30.1224
 30.0684
 30.0296
 30.0752
 27.7645
 27.7233
 27.8439
 27.8265
 27.8874
 27.8985
 27.9306
 27.9048
 30.094
 30.0786
 30.1523
 30.1977
 30.8332
 30.7938
 28.8704
 28.8385
 28.8578
 28.7897
 30.2546
 30.2798
 30.2014
 30.1938
 29.6726
 29.7965
 29.6199
 27.3032
 27.2801
 27.3588
 29.1429
 29.042
 29.0726
 29.0786
 28.0316
 27.9587
 28.055
 28.0888
 29.0231
 28.9571
 28.9386
 29.0379
 28.4979
 28.436
 28.4379
 28.5285
 30.4948
 30.3966
 30.4692
 30.5296
 30.1556
 30.0091
 30.1932
 30.0598
 28.9935
 29.0699
 28.9151
 29.0148
 29.7409
 29.6432
 29.6254
 29.7466
 30.4744
 30.4674
 30.4017
 30.3599
 29.4016
 29.3841
 29.3076
 29.2673
 28.5617
 28.5557
 28.6095
 29.0616
 28.9846
 29.0355
 28.9947
 32.3386
 32.2757
 32.1412
 32.1871
 30.8024
 30.8254
 30.7792
 30.7998
 29.7855
 29.78
 29.8087
 29.7072
 31.5395
 31.4193
 31.5196
 31.5136
 27.9623
 27.9498
 28.0262
 27.6303
 27.6967
 27.7639
 27.7083
 28.337
 28.2169
 28.2714
 28.2632
 29.106
 28.6867
 28.5716
 28.5536
 28.6245
 29.2664
 29.2054
 29.3095
 29.3228
 30.5104
 30.5637
 30.5445
 30.0564
 30.0265
 29.9849
 30.1332
 32.423
 32.5079
 32.4175
 32.5129
 31.3748
 31.3592
 31.3551
 31.2612
 29.8377
 29.8417
 29.7843
 29.7341
 27.5387
 27.6464
 27.606
 27.6225
 32.1233
 32.0088
 31.9473
 31.92
 28.5279
 28.451
 28.5681
 28.4874
 29.1879
 29.1649
 29.0992
 29.1693
 30.0534
 30.2289
 30.2036
 29.259
 29.3677
 29.3607
 29.3561
 27.6665
 27.6229
 27.6106
 30.4788
 30.3267
 30.3093
 29.6189
 29.5991
 29.504
 29.5206
 29.7927
 29.82
 29.848
 29.8714
 29.7458
 29.7579
 29.6736
 29.6538
 30.5826
 30.6634
 30.6137
 30.5171
 29.3512
 29.2895
 29.38
 29.2981
 27.7204
 27.8206
 27.8231
 27.871
 28.0033
 28.0022
 28.0046
 27.958
 30.935
 30.8813
 30.9131
 30.9068
 28.0625
 28.0229
 28.0221
 28.1168
 27.8517
 27.7476
 27.7726
 27.8634
 27.9931
 28.0145
 28.0969
 28.0922
 28.7656
 28.7666
 28.7095
 28.7382
 29.247
 29.3077
 29.229
 29.8379
 29.9705
 29.9512
 29.8938
 28.3075
 28.3597
 28.3916
 28.2895
 28.3831
 28.337
 28.3054
 28.326
 27.2844
 27.2944
 27.4022
 27.3449
 31.5471
 31.4675
 31.4816
 31.4567
 31.1348
 31.2065
 31.1784
 31.1
 30.6482
 30.697
 30.5813
 30.7047
 29.655
 29.8014
 29.707
 29.7267
 29.783
 29.7778
 29.7817
 27.8172
 27.7736
 27.7015
 27.7444
 28.3073
 28.3412
 28.39
 28.3727
 29.3476
 29.4035
 29.4315
 29.3894
 27.9651
 27.9182
 28.9138
 28.917
 28.9249
 28.9898
 28.0573
 28.025
 27.9244
 27.993
 29.058
 28.9713
 29.0792
 28.9581
 29.8355
 29.7939
 29.9393
 29.929
 31.0085
 31.0609
 31.0256
 30.9075
 32.5483
 32.394
 32.5306
 32.5046
 28.1024
 28.1347
 28.1349
 28.0895
 27.755
 27.7398
 27.7404
 27.6919
 29.5928
 29.7041
 29.6463
 29.7184
 29.1675
 29.2089
 29.2231
 29.1706
 30.1752
 30.2799
 30.1037
 28.6886
 28.7532
 28.7311
 28.7694
 30.2234
 30.2394
 30.1758
 30.1807
 29.3577
 29.4299
 29.4936
 29.4392
 28.7175
 28.755
 28.7439
 28.7026
 29.0763
 29.1015
 29.1645
 27.9532
 28.0197
 28.0056
 28.0091
 28.7552
 28.6559
 31.4531
 31.238
 31.4003
 31.3443
 28.4485
 28.5109
 28.4809
 30.1104
 30.0623
 30.0908
 30.0762
 28.9116
 28.9376
 28.9598
 29.1584
 29.2582
 29.1673
 29.203
 28.8269
 28.913
 28.7788
 28.8642
 28.7241
 28.6418
 32.1139
 32.1217
 32.2291
 32.0799
 32.126
 32.2747
 32.258
 32.1723
 29.1776
 29.2683
 29.2281
 29.2717
 28.9281
 28.9816
 28.9151
 28.9526
 32.0441
 32.0598
 31.9629
 31.9451
 30.0304
 30.1455
 30.6966
 30.6877
 30.6053
 30.53
 28.6819
 28.7244
 28.6162
 28.6626
 28.9123
 28.8746
 28.8138
 28.9399
 28.7419
 28.837
 28.8595
 28.8314
 29.8286
 29.8238
 29.7461
 29.8321
 30.4605
 30.4228
 30.5678
 30.4308
 30.9814
 30.8964
 30.872
 30.9516
 30.4302
 30.4596
 30.4515
 30.2822
 28.3707
 28.4577
 28.3815
 28.4373
 29.1748
 29.3786
 29.2826
 31.5709
 31.4555
 31.4265
 28.598
 28.4731
 28.5493
 28.5555
 28.5142
 28.6647
 28.581
 28.5622
 29.423
 29.479
 29.5206
 29.4729
 29.4588
 29.3664
 29.4307
 30.4191
 30.496
 30.518
 30.5173
 28.2637
 28.2863
 28.2257
 28.2629
 30.7624
 30.8046
 30.7892
 30.7295
 30.7959
 30.876
 30.8173
 27.5534
 27.4608
 27.4163
 27.4936
 28.0345
 27.9889
 29.9776
 30.0104
 29.9279
 29.9666
 29.2382
 29.1459
 29.2561
 29.3357
 29.3836
 29.3637
 29.4314
 30.4385
 30.3692
 30.3707
 28.3033
 28.2587
 28.3444
 28.3199
 30.5268
 30.389
 30.4779
 30.4986
 28.5098
 28.5905
 28.6033
 28.5478
 30.6988
 30.6239
 30.399
 30.5352
 30.4499
 30.4945
 30.1371
 30.1957
 30.1738
 30.1212
 31.4007
 31.4041
 31.5146
 31.4935
 28.4164
 28.3239
 29.783
 29.7302
 29.7209
 29.726
 27.6485
 27.6817
 27.6603
 27.6348
 29.8773
 29.9054
 29.7757
 29.7261
 28.264
 28.1911
 28.1668
 28.155
 27.8914
 27.8146
 27.9397
 27.8272
 28.514
 28.5905
 27.9522
 27.8941
 27.9206
 27.9259
 30.4066
 30.4111
 30.4104
 30.3275
 27.9871
 27.9593
 27.9445
 27.9967
 27.6032
 27.4962
 27.5006
 27.5794
 28.7908
 28.781
 28.7152
 28.7327
 29.3532
 29.3783
 29.2812
 29.2451
 27.9326
 28.0354
 27.9802
 27.9248
 31.3929
 31.2059
 31.2552
 31.4285
 27.9654
 27.853
 29.837
 29.7684
 29.7778
 29.6879
 28.0802
 28.0886
 28.1865
 28.1776
 30.4047
 30.3078
 30.3284
 30.3331
 29.5748
 29.7166
 29.6773
 29.5911
 30.2152
 30.267
 30.133
 30.4551
 30.5357
 30.4893
 30.5922
 30.6876
 30.5779
 30.6144
 30.5542
 28.9049
 28.9547
 28.9758
 28.14
 28.1305
 28.0732
 28.0887
 29.1144
 29.1616
 29.1585
 30.4904
 30.5607
 30.5398
 29.141
 29.0092
 29.1171
 29.0503
 28.7939
 28.82
 28.7827
 28.6949
 29.3618
 29.2588
 29.2502
 29.2905
 29.547
 29.5892
 29.609
 29.7073
 29.7417
 29.7297
 29.6158
 29.5901
 29.5285
 29.6663
 28.0514
 28.1347
 28.0721
 28.1286
 28.4728
 28.5294
 28.4923
 28.4493
 29.4879
 29.412
 29.4451
 29.3153
 30.429
 30.4951
 30.4741
 29.0606
 29.1078
 29.057
 29.0546
 29.9516
 30.0817
 30.0369
 30.093
 31.8245
 31.85
 31.8947
 31.9365
 29.6765
 29.7243
 29.7043
 29.7088
 28
 28.0117
 27.9524
 27.9696
 29.6803
 29.5632
 29.6194
 29.6719
 30.6125
 30.6136
 30.5795
 30.5234
 30.4614
 30.5017
 30.4715
 29.2988
 29.2779
 29.2811
 28.773
 29.8065
 29.9364
 29.8333
 29.8382
 27.9254
 27.9379
 27.8931
 28.0624
 28.0474
 28.007
 29.6879
 29.5837
 29.6421
 29.5861
 27.4921
 27.4611
 27.4442
 27.4359
 30.4697
 28.9974
 29.0784
 29.0303
 29.0398
 30.3991
 30.3722
 30.3724
 30.3303
 27.9139
 27.8855
 27.9955
 27.9153
 28.5813
 28.4516
 28.5161
 28.5533
 28.3344
 28.2897
 28.3693
 28.3651
 30.716
 30.6692
 30.6068
 30.6982
 29.925
 29.8446
 29.9359
 29.9305
 29.1611
 29.2063
 29.1112
 29.1967
 29.7681
 29.8715
 29.7008
 29.8338
 28.6835
 28.6592
 28.5863
 28.6054
 30.3878
 30.4675
 30.3514
 30.3356
 29.9678
 29.8917
 29.8209
 29.8813
 28.8727
 28.8647
 28.8796
 28.781
 27.8026
 27.7001
 27.763
 27.7215
 30.5652
 30.602
 30.4445
 30.5523
 31.2653
 31.3717
 31.2563
 31.263
 27.8728
 27.8253
 27.8508
 27.8062
 31.2743
 31.3672
 31.0273
 31.0658
 31.0281
 30.9275
 29.2076
 29.1585
 29.2313
 29.2855
 29.8934
 29.8484
 29.8481
 29.9471
 27.3284
 27.295
 27.3015
 27.3624
 27.9588
 27.9645
 27.877
 28.5783
 28.5819
 28.5292
 28.6239
 30.5837
 30.5439
 30.6436
 30.5187
 29.9726
 29.9847
 30.0183
 30.0524
 29.9991
 29.939
 28.6169
 28.5034
 28.5377
 28.5814
 28.6884
 28.6812
 28.7501
 28.6708
 28.4769
 28.4679
 28.5652
 28.4777
 27.6251
 27.6067
 27.7374
 27.5874
 28.3668
 28.3529
 28.4334
 29.6162
 29.0646
 29.0642
 29.0294
 29.0993
 29.0142
 29.1041
 29.0894
 29.1006
 28.2003
 28.254
 28.2499
 28.2941
 28.379
 28.4156
 28.4218
 28.3396
 28.9134
 28.9854
 28.975
 29.8548
 29.852
 29.7798
 29.9707
 29.0509
 28.9101
 29.0073
 28.962
 29.6915
 29.6414
 29.7369
 31.9005
 31.8845
 31.934
 31.8213
 28.1641
 28.0671
 28.1018
 28.0642
 28.1598
 28.0385
 28.1031
 32.0824
 29.0035
 28.9777
 29.0074
 28.9081
 28.9464
 28.9218
 31.181
 31.1678
 31.1745
 31.1016
 30.63
 30.5909
 30.5029
 30.6246
 30.162
 30.095
 30.0457
 30.1208
 30.2196
 30.1754
 30.1419
 30.2416
 30.2522
 30.1735
 29.5854
 29.6243
 29.6424
 29.6918
 29.5785
 29.505
 27.2328
 27.2398
 30.5003
 30.3054
 30.4632
 30.3621
 29.3675
 29.3826
 29.3592
 29.4491
 30.5456
 30.548
 30.7372
 30.6147
 28.0876
 28.0519
 28.1737
 28.1293
 28.0993
 28.1602
 28.0982
 28.1644
 28.6301
 28.5889
 28.569
 28.6008
 29.1745
 29.1666
 29.0474
 29.1079
 29.2086
 29.2533
 30.4588
 28.4638
 28.3821
 28.4091
 28.3868
 27.6498
 27.6558
 27.5492
 27.6812
 28.105
 28.0203
 28.1182
 28.0813
 32.9094
 32.8685
 32.8523
 32.8126
 27.7353
 27.725
 27.7702
 27.761
 30.1356
 30.1225
 30.2138
 30.0941
 29.8813
 29.9601
 29.9327
 30.0082
 28.6419
 28.6379
 28.5734
 28.5842
 28.6319
 28.6396
 28.6848
 28.6688
 30.4424
 30.2938
 30.3777
 30.3217
 27.8256
 27.7817
 27.8294
 27.82
 28.0807
 28.0279
 28.0526
 28.007
 28.3906
 28.3737
 28.3237
 28.3228
 27.8747
 27.9253
 27.9213
 27.8766
 29.9662
 29.8727
 29.8792
 29.8291
 30.5629
 30.5075
 30.5069
 30.4392
 28.1158
 28.1812
 28.1955
 28.1787
 29.5422
 29.5054
 29.5756
 29.6478
 29.2434
 29.2809
 29.2929
 29.2446
 32.3582
 32.3645
 32.1903
 32.352
 27.7312
 27.7198
 27.9254
 27.9091
 27.9779
 27.8801
 30.8451
 30.9701
 31.0159
 30.8492
 29.9556
 30.0712
 30.0606
 30.1026
 28.0436
 28.1001
 28.0261
 27.9978
 29.7139
 29.6798
 29.7269
 29.6336
 29.6162
 29.5832
 29.6921
 29.6796
 27.6344
 27.6273
 27.6655
 27.7094
 29.1018
 29.1173
 29.0943
 29.0635
 29.2692
 29.2413
 29.2663
 29.3171
 28.3739
 28.3327
 28.306
 28.3238
 28.6386
 28.6481
 28.6879
 28.7309
 29.5417
 29.5314
 29.6314
 29.9093
 29.8384
 29.8917
 29.774
 31.0302
 31.0046
 31.081
 30.8813
 29.719
 29.6488
 29.6361
 29.6201
 29.1917
 29.2355
 29.1899
 29.2605
 27.5546
 27.5378
 27.5554
 27.6453
 29.7507
 29.6117
 29.6831
 29.6919
 30.8228
 30.8129
 30.9008
 30.9269
 28.4839
 28.432
 28.4654
 28.5233
 28.7635
 28.7603
 28.8054
 29.167
 29.0503
 29.0471
 29.016
 30.9636
 30.9428
 30.9292
 30.8666
 28.9852
 29.0552
 29.0232
 29.0927
 27.9081
 27.9122
 27.8892
 27.8897
 29.0877
 29.0322
 29.0631
 28.9684
 30.7218
 30.8062
 30.7469
 30.6997
 30.3923
 30.3393
 30.4268
 30.5015
 27.1832
 27.2025
 27.1667
 27.1642
 30.0209
 30.0076
 30.0148
 30.1284
 28.8198
 28.9472
 28.9032
 28.8844
 27.2803
 27.2648
 27.3223
 27.3218
 27.9643
 27.8784
 27.9143
 28.4698
 28.4903
 28.3945
 28.3714
 28.0234
 28.0426
 27.9339
 28.0529
 32.0448
 31.9819
 31.8728
 31.9217
 30.2372
 30.1198
 30.2506
 27.7062
 27.6052
 27.6213
 27.6313
 28.8928
 28.9151
 28.8324
 28.9282
 28.265
 28.2915
 28.2001
 28.3285
 30.5337
 30.5396
 30.6032
 30.6762
 29.7455
 29.6601
 29.7731
 29.6972
 28.6196
 28.7361
 28.7106
 31.1177
 31.1047
 31.0394
 31.0284
 30.4099
 30.4887
 30.4388
 30.4715
 29.6896
 27.6503
 27.621
 27.6256
 27.5777
 31.757
 31.7427
 31.8155
 31.8394
 28.3709
 28.2637
 28.3122
 28.2563
 28.7462
 28.7957
 28.7476
 28.8446
 32.2607
 28.1324
 28.1967
 28.0981
 27.732
 27.6529
 27.7087
 27.6949
 29.4592
 29.4062
 29.2822
 29.4004
 28.7238
 28.7312
 28.6764
 28.7652
 30.145
 30.2401
 29.2156
 29.252
 29.2509
 29.1646
 30.207
 30.2702
 30.3057
 30.2062
 29.8456
 29.8813
 29.7498
 29.7371
 28.5375
 28.5797
 28.5331
 28.503
 31.2298
 31.1973
 31.1927
 31.0816
 30.4881
 30.5624
 30.5045
 30.6
 31.2433
 31.0928
 30.8601
 30.8611
 30.8351
 30.843
 30.979
 31.0423
 30.9179
 31.0353
 27.6634
 27.7104
 27.7534
 27.763
 28.9209
 28.9099
 28.9452
 28.8207
 29.6472
 29.5378
 29.5924
 29.6001
 28.995
 29.0206
 29.0354
 28.9642
 27.609
 27.6149
 31.1712
 31.2481
 31.2323
 31.1554
 27.6397
 27.6056
 27.6625
 31.4853
 31.5661
 31.4873
 31.5556
 27.732
 27.801
 27.7573
 27.8077
 29.7446
 29.8054
 29.7112
 29.7965
 29.4276
 29.4106
 29.4474
 27.6049
 27.6384
 27.6361
 27.5921
 28.9525
 29.0244
 28.9371
 29.008
 29.3571
 29.3173
 29.2364
 29.3207
 29.65
 29.7139
 29.5357
 29.7039
 29.5757
 29.6381
 28.8118
 28.8943
 28.8499
 27.5668
 27.6761
 27.6899
 27.6134
 29.4596
 29.4007
 29.4641
 29.4497
 29.5917
 29.6369
 29.9256
 30.072
 30.0816
 30.0348
 31.6177
 31.5852
 31.5052
 29.0684
 29.0422
 29.1427
 29.1517
 27.7249
 27.7192
 27.7096
 31.1592
 31.3086
 31.1401
 29.3525
 29.4434
 29.3993
 29.4662
 28.599
 28.6067
 28.6941
 28.6654
 31.7354
 31.7601
 31.7218
 31.7281
 28.1028
 28.0864
 28.1371
 28.1437
 28.5284
 28.6101
 28.5984
 28.6044
 28.0463
 28.0222
 28.0718
 27.6889
 27.6832
 27.5571
 27.6152
 29.1166
 29.2073
 29.1229
 29.1244
 27.8952
 27.9123
 27.9519
 27.9529
 29.7782
 29.8
 29.7465
 29.8409
 27.6038
 28.775
 29.2546
 29.296
 29.2228
 29.322
 28.7725
 28.7806
 28.8626
 28.8711
 28.4067
 28.3842
 28.4274
 28.5001
 28.771
 28.8111
 28.7239
 28.7584
 28.2369
 28.2796
 28.2084
 28.2223
 29.2638
 29.3111
 29.2739
 29.2105
 29.348
 29.3159
 29.3018
 29.2695
 29.612
 29.624
 29.6544
 29.5567
 29.2657
 29.2644
 29.3471
 30.6839
 30.654
 30.6966
 30.6257
 29.2102
 28.6815
 28.5515
 28.546
 28.6297
 27.7641
 27.7579
 27.8445
 29.8867
 30.0238
 29.9638
 30.0111
 29.1058
 29.0075
 29.0284
 28.7171
 28.702
 28.7867
 28.7695
 28.62
 28.6064
 28.5224
 28.5134
 27.958
 27.9238
 27.8777
 27.9352
 30.2258
 30.2272
 30.1745
 30.3171
 29.0184
 29.0967
 29.1202
 29.1287
 29.3282
 29.3853
 29.4348
 29.3663
 29.4076
 29.4729
 29.4738
 29.5373
 29.2403
 29.275
 29.2299
 29.3086
 28.3658
 28.4861
 28.3493
 28.43
 29.3748
 29.5009
 29.4522
 29.4382
 31.1974
 31.1998
 31.1937
 31.1299
 31.114
 31.0349
 31.0207
 29.2559
 29.2538
 29.1833
 29.1774
 29.2376
 29.1518
 29.144
 29.1384
 29.3044
 29.3919
 29.2689
 29.2453
 27.8039
 27.8017
 27.8815
 27.886
 28.3889
 28.4623
 28.4609
 28.3791
 29.9701
 29.9195
 29.9186
 29.8999
 30.5505
 30.4491
 30.4344
 30.5742
 28.0664
 28.0878
 28.1273
 28.0645
 31.7037
 31.683
 31.6488
 31.5855
 29.6255
 29.5384
 29.5843
 29.5994
 30.7737
 30.7323
 30.7317
 30.3566
 30.2453
 30.2607
 30.2273
 28.4934
 28.5405
 28.4762
 28.5747
 30.1901
 30.3346
 30.2726
 30.2407
 31.0859
 30.9104
 31.0258
 31.8267
 31.6751
 31.6109
 31.5884
 27.5519
 27.5306
 27.4904
 27.4434
 30.1123
 30.174
 30.1272
 30.0924
 28.8381
 28.9453
 28.9312
 28.8518
 27.8806
 27.9358
 27.9854
 27.9439
 28.2466
 28.1539
 28.2813
 28.2214
 29.9961
 29.9878
 30.045
 30.0104
 30.8662
 30.969
 31.0394
 30.9454
 29.0539
 29.0017
 29.0767
 29.031
 30.7754
 30.653
 29.5935
 29.736
 29.7182
 29.6263
 29.3656
 29.3744
 29.4218
 29.3369
 29.4523
 29.4461
 29.4849
 30.5926
 30.5477
 30.5881
 28.7584
 28.7612
 28.7398
 28.7103
 28.9281
 28.936
 28.9954
 28.867
 30.0252
 29.9245
 29.9661
 30.0187
 28.3705
 28.2798
 28.397
 28.3513
 29.2559
 29.3482
 29.2975
 29.2259
 30.8031
 30.8049
 30.8296
 30.8036
 29.8151
 29.7839
 29.8315
 28.913
 28.9112
 28.986
 28.9049
 29.1683
 29.1301
 29.0703
 27.549
 27.6015
 27.5999
 27.6295
 31.2811
 31.3039
 31.2825
 31.411
 29.8108
 29.7233
 29.7343
 29.7925
 29.8417
 29.8653
 29.9471
 29.845
 27.4811
 27.5093
 27.4183
 27.3565
 28.3862
 28.338
 28.3503
 30.2355
 30.298
 30.3044
 30.2912
 28.1709
 28.2656
 28.2182
 30.1065
 30.1032
 30.1678
 30.1477
 32.3431
 32.2462
 32.4121
 32.333
 27.8605
 27.8396
 27.8137
 27.8933
 30.5808
 30.604
 30.6452
 30.7586
 27.6962
 27.7436
 27.7541
 27.7319
 30.3275
 30.1856
 30.2775
 30.2419
 32.5068
 32.5936
 32.4596
 32.5147
 30.9522
 31.1144
 31.0193
 30.9046
 30.593
 30.48
 30.4486
 30.6057
 29.2107
 29.3402
 30.508
 30.5206
 30.6732
 30.6394
 28.8981
 28.9532
 28.9796
 29.017
 29.386
 29.384
 29.4531
 29.3379
 27.9344
 28.0132
 27.8659
 27.8577
 28.0318
 28.0918
 28.0521
 27.9993
 28.2203
 28.2302
 28.2207
 28.3001
 28.0105
 27.9997
 27.9825
 28.0354
 28.5603
 28.5948
 28.5163
 28.5759
 28.1888
 28.1178
 28.14
 28.1822
 31.1963
 31.3393
 31.3675
 31.1808
 27.8828
 27.8488
 27.8619
 27.8738
 29.6226
 29.7121
 29.7072
 29.6576
 28.3792
 28.4801
 28.4577
 28.0442
 27.9762
 27.9791
 28.0285
 30.4996
 30.5984
 30.614
 30.5585
 31.0923
 31.1489
 31.2367
 31.1919
 28.4131
 28.4241
 28.4886
 28.3604
 29.3968
 29.4178
 29.4646
 29.4838
 28.6154
 28.6725
 28.6176
 28.5965
 28.5951
 28.5954
 28.4714
 29.7121
 29.7295
 29.8191
 28.6754
 28.6558
 29.0569
 29.1771
 27.5559
 27.5175
 27.5225
 27.5556
 29.1094
 29.0591
 29.105
 29.0064
 28.631
 28.6879
 28.5765
 28.6749
 29.0082
 28.9604
 28.9739
 28.9087
 28.2201
 28.2035
 28.1636
 28.2163
 28.2182
 29.4704
 29.4688
 29.5535
 29.5567
 30.8328
 30.8332
 30.8287
 30.8106
 28.5608
 28.6462
 28.5653
 28.6217
 28.6175
 28.7052
 28.7031
 28.629
 32.1992
 32.1767
 32.1121
 32.025
 29.2756
 29.215
 29.2539
 29.2898
 29.2524
 29.3325
 29.3549
 29.2741
 28.6895
 28.7509
 30.5276
 30.5007
 30.4533
 30.5164
 29.8403
 29.7899
 29.8247
 29.8767
 30.3811
 30.434
 30.4727
 30.4491
 29.9095
 29.8405
 29.8537
 29.9305
 30.4062
 30.4174
 30.4574
 30.3792
 28.3848
 28.4024
 28.3656
 28.3177
 27.8854
 27.8742
 27.9499
 27.9058
 30.1106
 30.1482
 30.2024
 30.0782
 29.2888
 29.3937
 29.3137
 29.3182
 28.2201
 28.3144
 28.2589
 28.299
 29.6356
 29.6594
 29.6478
 29.559
 30.1041
 30.038
 30.9554
 30.9215
 30.8885
 30.9704
 29.5472
 29.5741
 29.5826
 29.651
 28.1255
 28.1582
 28.1587
 28.0776
 27.7957
 27.8469
 27.8397
 27.7733
 31.872
 31.8333
 29.5664
 29.5035
 29.4523
 29.4618
 29.6103
 29.7536
 29.6595
 29.6709
 29.7872
 29.846
 30.2731
 30.2185
 30.2355
 30.1793
 29.4111
 29.3017
 29.2967
 31.1723
 31.1067
 31.1089
 31.0534
 27.9732
 27.9251
 28.0142
 27.9666
 27.8365
 27.8306
 27.8271
 27.5235
 27.5718
 27.6243
 27.5891
 29.0377
 28.8961
 28.9674
 28.934
 29.2214
 29.1269
 29.2655
 29.1791
 28.3206
 28.2228
 28.1795
 28.2474
 28.6382
 28.6303
 28.5602
 28.6337
 28.8061
 28.7156
 28.75
 29.1778
 29.1651
 29.2001
 29.1057
 28.5475
 28.4178
 28.4647
 28.5374
 29.5135
 29.5443
 29.499
 29.4889
 29.2346
 29.2476
 29.1741
 29.3058
 28.7068
 28.7247
 28.7543
 28.6736
 29.2464
 29.3132
 29.3404
 29.2472
 32.4089
 32.4531
 32.3826
 32.3599
 30.2068
 30.2473
 30.2426
 30.3126
 28.5424
 28.5283
 28.4683
 28.4592
 30.275
 30.2529
 30.3772
 30.4137
 30.5114
 30.6474
 30.5055
 30.431
 28.0395
 28.0379
 27.9866
 28.0903
 28.0579
 28.1311
 28.0717
 28.079
 27.8535
 27.9249
 27.8458
 27.8445
 28.2687
 28.2762
 28.2108
 28.2293
 29.6596
 29.6197
 29.7188
 29.6213
 30.3281
 30.3675
 30.2721
 30.3628
 28.6604
 28.7612
 28.6615
 28.7436
 30.2691
 30.2391
 30.2174
 30.2344
 31.0329
 30.9799
 30.9744
 30.9
 29.3347
 29.2732
 29.3192
 29.2541
 29.7433
 29.8015
 29.8601
 29.7526
 29.7402
 29.6398
 29.7329
 30.8404
 30.8928
 31.005
 30.9119
 30.0915
 30.1074
 30.1461
 30.1193
 28.6076
 28.5585
 28.5997
 28.55
 29.2221
 29.1482
 29.1368
 27.5342
 27.6052
 27.6125
 27.5602
 27.7714
 27.7032
 27.6673
 27.727
 29.8712
 29.8009
 29.9029
 29.8069
 28.9096
 28.8569
 30.6121
 30.615
 30.7235
 30.5846
 29.2062
 29.2566
 29.3281
 29.2722
 27.815
 27.8022
 27.873
 27.8186
 30.2162
 30.1917
 30.1322
 29.6205
 29.6262
 29.5757
 29.6936
 29.7906
 29.6493
 29.6863
 29.721
 29.2818
 29.2024
 29.1915
 29.3006
 29.2699
 29.2276
 29.1745
 29.241
 29.0953
 29.031
 29.0817
 29.0314
 29.3723
 29.3058
 28.2304
 28.2494
 28.1294
 28.231
 29.2956
 29.384
 29.3479
 29.3025
 28.7938
 28.911
 28.8785
 29.3469
 29.2672
 29.305
 29.2634
 28.8722
 28.9083
 28.9472
 28.8856
 30.2573
 30.3496
 30.2794
 30.3952
 29.5099
 29.5222
 29.4343
 29.0277
 29.0285
 28.9073
 29.0744
 29.3754
 29.3837
 29.3261
 30.3655
 30.3444
 30.4381
 28.8114
 28.8186
 28.8182
 28.8948
 29.1956
 29.1232
 29.1307
 32.0826
 32.1009
 32.0312
 32.2266
 28.677
 28.7355
 28.7654
 28.6745
 29.6816
 29.7823
 29.7714
 29.7896
 28.2702
 28.2787
 28.2553
 28.1889
 28.1297
 28.1904
 28.1006
 28.1151
 30.4902
 30.3628
 30.5048
 30.4902
 29.0926
 29.1739
 29.2006
 29.8522
 29.9716
 29.9069
 29.8936
 27.9764
 28.0907
 28.036
 29.1997
 29.142
 29.1863
 29.1027
 28.6333
 28.6096
 28.6092
 28.6091
 27.9698
 27.9196
 27.9243
 27.9763
 32.5625
 32.7059
 32.6521
 32.5582
 30.0009
 29.9894
 29.9336
 30.0088
 29.0379
 28.9019
 28.9456
 28.9292
 30.9539
 31.0704
 31.0481
 29.1625
 29.0918
 29.12
 29.1816
 27.8036
 28.6956
 28.7355
 28.8611
 28.78
 28.2185
 28.2186
 28.192
 28.1666
 28.3879
 28.4544
 28.4652
 28.4213
 29.0324
 29.0738
 29.1157
 29.2126
 29.2145
 29.2046
 31.7287
 31.6605
 31.6882
 31.6446
 29.8597
 29.8987
 29.9325
 29.9877
 29.9736
 29.9135
 29.9715
 27.8613
 27.7081
 27.8679
 27.8671
 29.2862
 29.2954
 29.202
 29.2091
 28.9079
 28.9394
 29.0015
 28.9458
 28.1013
 28.1364
 28.0724
 28.1435
 29.2118
 29.2359
 29.1498
 29.2627
 31.2713
 31.1719
 31.2745
 31.2465
 29.3636
 29.3957
 29.3539
 29.3823
 30.0155
 30.0086
 29.9972
 29.9422
 30.2706
 30.3428
 30.3004
 30.2713
 30.8745
 30.832
 30.8854
 30.876
 31.3423
 31.3984
 31.3594
 31.2434
 27.4699
 27.5644
 27.5283
 27.5364
 31.6703
 31.6112
 31.677
 31.4773
 29.2992
 29.3446
 29.2882
 29.3642
 27.5305
 27.554
 27.5831
 27.5782
 29.6379
 29.6471
 29.6032
 29.5693
 30.832
 27.9712
 28.0119
 27.9951
 27.9332
 30.3888
 31.285
 31.1912
 31.1429
 31.2152
 28.9734
 28.8796
 28.3419
 28.4402
 28.3473
 28.4306
 28.0175
 28.0346
 27.9841
 27.9965
 27.4368
 27.5135
 27.4359
 28.3004
 28.2227
 28.214
 28.2096
 29.5394
 27.6903
 28.6316
 28.6716
 28.6887
 27.8769
 27.8324
 27.8102
 27.8627
 29.5836
 29.5814
 29.592
 29.6428
 30.0704
 30.0691
 30.0836
 30.178
 28.6491
 28.7089
 28.6948
 28.5807
 27.708
 27.6414
 27.7212
 27.7063
 28.0568
 28.0806
 28.0355
 28.0839
 28.8048
 28.6975
 28.7083
 31.3271
 31.3753
 31.2005
 31.2861
 32.5652
 32.4981
 32.5554
 32.4266
 30.6374
 30.7713
 30.7537
 30.6965
 29.0242
 28.9651
 29.0606
 30.9589
 30.8624
 30.9072
 31.0029
 28.1453
 28.1622
 28.0809
 28.3167
 28.2788
 28.3388
 28.311
 30.2888
 30.3361
 28.595
 28.4665
 27.2758
 27.3449
 27.2709
 27.5187
 27.5058
 27.508
 27.4763
 29.4331
 29.5042
 29.3904
 29.4456
 29.8774
 29.8919
 29.9361
 29.8406
 29.3923
 29.4204
 29.3485
 29.3411
 27.7345
 27.7337
 27.7242
 27.7427
 28.5753
 28.5534
 28.5784
 28.6232
 30.8048
 30.8039
 30.8234
 30.7121
 28.5808
 28.5637
 28.6138
 28.5248
 29.0666
 29.0323
 29.1155
 29.0297
 28.6268
 28.5523
 28.575
 32.9806
 32.9137
 32.898
 29.8368
 29.8836
 29.5733
 29.5797
 29.6357
 29.5399
 28.4645
 28.3862
 28.4493
 28.4561
 28.5465
 28.5177
 28.4281
 28.5353
 28.5323
 28.5574
 28.4491
 31.9846
 32.0033
 30.9748
 30.9743
 30.8971
 30.9681
 28.9812
 32.1078
 32.1906
 32.1377
 32.0963
 30.0591
 29.9556
 30.0401
 30.0598
 29.5274
 29.541
 31.3053
 31.1638
 31.1464
 31.2188
 27.4494
 27.3614
 27.4162
 27.4345
 27.6843
 27.6805
 27.7213
 27.6015
 30.4179
 30.2545
 30.3749
 30.2816
 29.9727
 30.0391
 29.8598
 29.9121
 29.8467
 29.917
 29.8505
 28.4514
 28.4331
 28.5103
 28.4435
 30.7956
 30.7352
 30.6919
 30.6592
 29.3557
 29.297
 29.368
 28.876
 28.8775
 28.83
 28.7735
 29.9113
 29.8951
 29.8198
 29.8704
 30.2724
 30.1716
 30.119
 30.2039
 30.2115
 30.2781
 30.2646
 30.1874
 29.6523
 29.5744
 29.552
 29.6492
 28.6702
 28.7294
 30.05
 30.0243
 29.9832
 30.0688
 27.51
 27.6207
 27.6071
 27.6008
 30.3272
 30.2768
 30.3274
 30.2649
 31.2344
 31.2695
 31.1287
 31.2091
 29.0191
 28.9611
 31.6815
 31.6041
 31.7619
 31.6038
 29.7697
 29.7659
 29.8026
 27.861
 27.9036
 27.8358
 27.8328
 31.5196
 31.5157
 31.5033
 30.2391
 30.2412
 30.1585
 30.1875
 31.2487
 30.3593
 30.3882
 30.3954
 30.4949
 29.2088
 29.2548
 29.1987
 29.2336
 29.4317
 29.4121
 29.369
 29.4403
 27.7717
 27.6873
 29.1667
 29.1433
 29.1681
 29.1817
 30.3612
 30.4717
 30.338
 30.4874
 29.83
 29.6658
 29.7506
 29.8256
 27.9639
 28.0163
 28.0063
 28.0123
 29.5679
 29.5449
 29.4637
 29.479
 29.0325
 28.1246
 28.0714
 28.137
 29.8009
 29.7834
 29.865
 29.7391
 28.5799
 28.5959
 28.5555
 28.6549
 29.7121
 29.7567
 29.7673
 29.6607
 27.768
 27.843
 27.85
 27.8144
 27.2967
 27.2591
 27.3354
 30.2442
 30.1771
 30.0904
 30.1463
 28.8879
 28.812
 28.9251
 28.8982
 28.5511
 28.5397
 28.4821
 28.4456
 29.8548
 29.8803
 30.2601
 30.3491
 30.365
 30.2568
 29.7168
 29.583
 28.7815
 28.7635
 28.8008
 28.8238
 28.6519
 28.6206
 28.5679
 28.6689
 29.5449
 29.5417
 29.4498
 29.4718
 28.8605
 28.8522
 28.8438
 27.9904
 28.0933
 28.1052
 28.0735
 28.3143
 28.3353
 28.2883
 29.6013
 29.4567
 29.5708
 29.5206
 30.1244
 30.2399
 30.2987
 30.1705
 28.5523
 28.6306
 28.6357
 28.5694
 29.47
 29.4785
 29.5623
 30.8477
 30.8722
 30.8459
 30.8728
 29.8928
 29.9174
 29.8609
 29.8294
 28.3164
 28.3014
 28.3894
 27.4991
 27.5873
 27.5953
 28.6387
 28.6005
 28.6039
 29.8992
 29.9872
 29.8749
 29.9582
 27.625
 27.6352
 27.6332
 27.5849
 28.7684
 28.8028
 28.7582
 28.7066
 28.1993
 28.1644
 28.0532
 28.0856
 28.3134
 28.2843
 28.3252
 28.317
 31.0958
 31.106
 31.1632
 29.5523
 29.5266
 29.587
 29.5201
 28.2739
 28.2195
 28.3007
 28.3008
 29.4044
 29.3635
 29.3595
 29.2743
 28.5062
 28.5034
 28.5242
 28.6031
 27.7738
 27.7406
 30.8232
 30.766
 30.7597
 30.7135
 28.358
 28.3987
 28.3083
 28.387
 29.6292
 29.6774
 29.6949
 29.6097
 28.6493
 28.7096
 27.6673
 27.6665
 27.7175
 27.6248
 28.1988
 28.1206
 28.2246
 28.0655
 27.5619
 27.5675
 27.4993
 27.4489
 28.4756
 28.5014
 28.4589
 28.6178
 28.5054
 28.5451
 28.5597
 28.505
 28.5722
 28.5523
 28.6225
 30.0615
 30.0381
 30.1221
 30.1542
 31.2726
 31.3628
 31.2064
 29.2709
 29.2563
 29.2619
 28.0254
 28.0892
 28.0409
 28.1123
 29.4868
 29.4303
 29.3604
 29.42
 30.3982
 30.4874
 30.4404
 30.3803
 29.2823
 29.3871
 29.3898
 29.4216
 29.7118
 29.5908
 29.6925
 27.6858
 27.6532
 27.7366
 27.7343
 30.7722
 30.7374
 30.4671
 30.4069
 30.3981
 28.5519
 28.5361
 28.5964
 28.4845
 29.3861
 29.32
 29.2722
 29.3637
 30.5824
 30.5769
 30.4694
 30.5655
 29.0145
 29.1444
 29.1479
 29.0448
 29.7837
 29.8337
 29.7547
 29.7426
 27.9894
 27.9768
 27.8815
 29.8993
 29.9327
 29.8318
 29.8435
 28.9692
 28.9226
 30.5767
 30.4419
 30.4558
 30.5615
 30.4573
 30.5196
 30.4868
 30.5306
 27.8488
 27.9067
 30.2082
 30.1517
 30.1692
 30.2503
 29.1967
 29.2792
 29.2313
 29.2063
 29.7427
 31.2465
 31.3189
 31.2997
 29.0129
 29.0058
 28.977
 29.0647
 27.884
 27.8798
 27.9235
 27.8488
 30.8877
 30.941
 30.8285
 30.8998
 30.3941
 30.312
 30.4243
 30.4009
 28.5503
 28.4955
 28.4891
 30.8021
 30.7501
 30.7273
 30.6811
 27.5107
 27.6029
 27.5352
 27.5028
 30.813
 30.746
 30.7331
 30.8623
 28.72
 28.796
 28.737
 28.658
 29.6883
 29.6322
 29.649
 29.7054
 30.4559
 30.4247
 30.4576
 29.7319
 29.6261
 29.7467
 29.6614
 30.6312
 30.7535
 30.6937
 30.6824
 30.2687
 30.3317
 30.2752
 28.4098
 28.4582
 28.386
 28.3993
 28.4716
 29.369
 29.1741
 29.2868
 29.2867
 27.843
 27.8896
 27.9097
 27.8916
 28.9985
 28.926
 29.0392
 28.9528
 28.6257
 28.5704
 28.6229
 28.659
 30.4649
 30.5064
 30.3896
 30.2915
 30.3156
 28.8465
 28.92
 28.8725
 28.8303
 27.9014
 27.8121
 29.0252
 29.0015
 29.0638
 28.9809
 30.5725
 30.6049
 30.5147
 27.9959
 27.9764
 28.0352
 28.0005
 29.0893
 29.1746
 29.1658
 29.1305
 30.4733
 30.5365
 30.4736
 30.4303
 29.3266
 29.3443
 29.2344
 29.3049
 28.7936
 28.6673
 30.9842
 31.0379
 30.9939
 31.0839
 30.279
 30.137
 30.0583
 30.1323
 30.0512
 30.0593
 30.029
 30.1361
 30.0687
 30.0209
 29.2112
 29.1792
 29.2172
 28.747
 28.7883
 28.8042
 28.8482
 30.2129
 30.2197
 30.1905
 30.2227
 29.655
 29.6589
 28.9295
 29.0006
 29.0117
 29.0668
 28.9971
 28.9841
 29.3209
 29.229
 29.2214
 29.2945
 31.5892
 31.4875
 31.5029
 31.4401
 28.971
 30.6593
 30.5443
 30.6262
 30.6373
 27.6834
 27.6453
 27.7032
 28.4684
 28.519
 28.5453
 28.4623
 29.3039
 29.2494
 29.2831
 29.4032
 29.2004
 29.1337
 29.2204
 30.2777
 30.2047
 30.243
 30.2934
 27.8948
 27.8442
 27.981
 27.8795
 28.7858
 28.8091
 28.7372
 28.7519
 27.9336
 27.9203
 28.013
 27.9647
 30.6275
 30.6009
 30.7111
 30.7079
 30.0776
 30.002
 28.4539
 28.4862
 28.5251
 28.4875
 27.8254
 27.8439
 27.8361
 27.86
 27.3305
 27.3048
 27.3515
 27.2655
 27.9377
 27.9837
 27.9197
 28.7855
 28.7485
 28.8192
 28.7765
 28.0913
 28.058
 28.0169
 28.0531
 30.8008
 30.6839
 30.6555
 30.7206
 28.1593
 28.1248
 28.1055
 28.7881
 28.8083
 28.8211
 28.8148
 30.6339
 30.7101
 30.6502
 30.7224
 28.5411
 28.4485
 28.5219
 28.5069
 28.8818
 28.8275
 28.809
 28.8646
 29.9517
 29.864
 29.8893
 29.7915
 30.806
 30.7921
 30.9213
 30.9044
 29.4101
 29.3687
 29.2987
 29.382
 31.7978
 31.6957
 31.6584
 31.633
 30.431
 30.3797
 30.4519
 30.2211
 30.3257
 30.3054
 30.3163
 32.1737
 32.026
 32.2206
 32.1397
 28.0563
 28.1149
 28.1118
 28.2246
 28.2297
 28.164
 28.1822
 30.186
 30.0372
 30.0828
 31.2351
 31.2456
 31.2759
 30.7616
 30.8949
 30.7593
 30.7756
 30.0352
 30.0508
 29.9717
 30.1179
 28.7516
 28.6662
 28.7243
 28.7341
 31.5442
 31.4737
 31.3407
 31.4694
 28.9176
 29.0309
 29.0447
 28.9502
 28.2516
 28.1898
 28.2997
 28.2479
 29.0676
 29.0521
 28.9507
 28.9574
 29.4944
 29.5442
 29.4276
 30.6022
 30.6013
 30.6268
 30.5442
 27.9227
 27.8574
 27.8493
 27.8546
 28.1835
 28.1291
 28.1843
 28.212
 29.9928
 29.9161
 29.9546
 30.0429
 27.7023
 27.6719
 27.6433
 27.9017
 27.8109
 27.8911
 27.8695
 27.8413
 27.8063
 27.8854
 27.848
 31.5466
 31.566
 32.0445
 32.0512
 32.1266
 31.956
 28.7145
 28.7465
 28.7889
 29.2582
 29.3241
 29.1897
 29.2916
 29.2418
 29.1605
 29.1905
 29.2246
 32.7992
 29.5341
 28.8438
 28.7669
 28.2632
 28.2105
 28.2466
 28.228
 31.2767
 29.6628
 29.5848
 29.6622
 27.2469
 27.2998
 27.2978
 27.2973
 29.2104
 29.2729
 29.2203
 29.1582
 27.6018
 27.6651
 27.6213
 27.6702
 29.5246
 29.4229
 29.5611
 29.7498
 29.6741
 29.7212
 28.114
 28.074
 28.1653
 28.1068
 28.9461
 28.9737
 29.0213
 29.0853
 30.7886
 30.877
 30.7074
 30.7562
 28.1849
 28.0575
 28.1033
 27.7237
 27.636
 27.6316
 27.7257
 28.22
 28.2296
 28.2957
 28.2202
 30.2173
 30.2388
 30.0917
 30.2447
 29.8933
 29.9654
 29.9495
 29.9655
 28.018
 27.9619
 27.9666
 27.9618
 29.5316
 29.602
 29.6461
 28.3832
 28.3659
 28.4068
 28.4388
 30.5895
 30.4996
 30.6351
 30.6338
 28.831
 28.8211
 28.8944
 28.8627
 30.663
 30.5831
 30.6456
 30.652
 28.9999
 28.8971
 28.9537
 28.9467
 28.3018
 28.2774
 28.2185
 28.3675
 30.915
 30.947
 30.8458
 29.0462
 28.9855
 28.1673
 28.2202
 28.2142
 28.2695
 29.5634
 29.6166
 29.616
 30.6753
 30.7359
 30.7878
 30.7444
 28.6584
 28.6262
 28.6797
 28.6054
 28.7732
 28.7932
 28.6733
 28.7614
 32.4828
 32.5373
 32.4091
 32.3984
 29.3369
 29.4099
 29.3545
 32.076
 31.975
 31.9749
 29.1326
 29.1636
 29.2298
 29.2205
 29.3043
 30.555
 30.5934
 30.728
 30.7216
 29.4451
 29.3847
 29.3507
 28.2402
 28.2497
 28.2526
 28.2782
 29.357
 29.313
 29.2728
 29.2735
 29.3111
 29.3281
 29.339
 27.3403
 27.3821
 27.4043
 27.4602
 30.2301
 30.0456
 30.0975
 30.1761
 30.9637
 30.9561
 30.8981
 30.932
 29.7296
 29.7592
 29.6322
 29.7135
 28.0714
 28.0169
 28.0246
 28.1116
 32.5858
 32.4821
 32.4874
 32.3696
 28.4803
 28.5612
 28.4903
 28.4853
 30.847
 30.9434
 30.9186
 30.9326
 28.2049
 28.3444
 28.3215
 28.2608
 28.2316
 28.291
 28.3223
 28.2618
 28.4512
 28.4056
 30.215
 30.2694
 30.2784
 30.2212
 27.8894
 27.8996
 27.8947
 28.3698
 28.4872
 28.4286
 28.3545
 30.2666
 30.1626
 30.2219
 30.3212
 29.6935
 29.7385
 29.621
 32.9926
 32.9868
 33.0505
 32.9815
 29.2724
 29.4209
 29.3044
 27.956
 27.8964
 27.9347
 27.9604
 28.2275
 28.2715
 27.9482
 27.8913
 27.8305
 27.938
 28.4143
 28.3985
 30.9641
 30.8345
 31.0203
 30.7898
 28.323
 28.3445
 28.3314
 28.4172
 29.1239
 29.0583
 29.8048
 29.739
 29.7574
 29.7947
 28.4139
 28.3842
 28.3339
 28.3805
 30.1445
 30.2624
 30.2484
 30.1575
 27.9743
 27.9873
 27.9293
 27.8115
 28.8348
 28.8065
 28.9111
 31.284
 31.3506
 31.3601
 31.2725
 28.7489
 28.7757
 28.8089
 28.8385
 30.1994
 30.2777
 30.3406
 30.3717
 30.1751
 30.2756
 30.1988
 32.6283
 32.6062
 32.6934
 32.6131
 30.8375
 30.6808
 30.6528
 30.8107
 28.1607
 28.214
 28.1445
 28.2125
 29.42
 29.4028
 29.479
 29.6194
 30.5048
 30.4411
 30.4872
 30.4216
 29.6023
 29.6655
 29.6281
 29.5966
 28.5736
 28.4722
 28.4567
 28.5414
 30.5584
 30.5519
 30.3968
 31.3086
 28.8666
 28.824
 28.9197
 28.7974
 30.4932
 30.3448
 31.9524
 32.0675
 30.4812
 30.4099
 30.4828
 30.6145
 28.5077
 28.4496
 28.1723
 28.175
 28.1374
 28.1872
 29.955
 29.8857
 29.8416
 29.8948
 27.7736
 27.7599
 27.692
 27.7653
 29.8051
 29.8043
 29.9875
 29.9611
 28.3952
 28.3843
 28.4131
 28.5147
 30.2223
 30.2143
 30.1723
 30.17
 28.2807
 28.2319
 28.3231
 28.2579
 29.5072
 29.4407
 27.858
 27.8857
 28.6892
 28.6415
 28.7081
 28.6309
 28.6841
 28.7003
 28.6948
 28.6192
 29.0336
 29.0784
 29.0123
 29.0062
 28.3043
 28.4049
 28.3167
 28.2393
 30.2424
 30.3377
 30.2836
 30.2854
 27.8791
 27.8839
 27.9102
 27.7546
 27.752
 27.823
 27.7718
 30.6373
 30.5125
 30.5059
 30.5494
 28.4302
 28.5392
 28.5149
 28.4941
 30.6205
 30.5246
 30.5242
 30.4365
 29.1727
 29.3363
 29.2126
 29.2201
 29.3544
 28.1529
 28.1417
 28.136
 28.2171
 31.7844
 31.8567
 31.7548
 31.7011
 28.4852
 28.4357
 28.3761
 28.4426
 29.2065
 29.1
 29.2739
 29.1904
 28.5564
 28.6147
 28.6219
 28.6155
 28.6063
 27.3784
 27.4205
 27.5094
 27.4586
 28.2699
 28.2717
 28.377
 28.3425
 31.8444
 31.7261
 31.6512
 31.8409
 29.5391
 29.6253
 29.6603
 29.5818
 30.015
 29.0536
 29.0916
 29.0581
 28.9883
 27.9766
 27.9786
 28.0367
 28.0782
 28.1335
 28.1196
 28.0658
 27.9796
 28.1286
 28.0506
 28.09
 32.3955
 32.3099
 28.3933
 28.3848
 28.3534
 29.9375
 29.9532
 29.9609
 29.8619
 28.4725
 28.5078
 28.4464
 28.5137
 29.0247
 28.6265
 28.6899
 28.6104
 28.6634
 27.747
 27.8598
 27.8357
 27.7518
 28.6228
 28.5752
 28.4742
 28.6034
 29.5934
 29.5709
 29.6878
 29.5067
 30.6371
 30.6124
 30.6831
 30.5873
 27.4799
 27.5746
 27.4477
 27.4875
 28.4748
 28.5064
 28.4403
 28.5252
 27.5724
 27.6106
 27.5867
 27.5169
 30.006
 30.1434
 30.0045
 29.9848
 28.9744
 29.0162
 27.8306
 27.7437
 27.8428
 27.7916
 29.0181
 28.9866
 28.9798
 28.9109
 29.3117
 29.2196
 29.1515
 29.0406
 29.0364
 29.1361
 28.0916
 28.1223
 28.1398
 28.0705
 29.761
 29.869
 29.9235
 29.8254
 30.905
 30.7909
 30.8476
 30.8479
 30.7639
 30.8254
 30.836
 30.8102
 29.9359
 29.9066
 29.9016
 30.0091
 29.4299
 29.559
 29.4561
 29.433
 29.5524
 29.497
 29.462
 29.1867
 29.2466
 29.2629
 29.2187
 31.0182
 31.1177
 31.0375
 29.7142
 29.7073
 29.6106
 29.6201
 29.0991
 29.0687
 29.0552
 29.1416
 30.1241
 30.2029
 30.0721
 30.2094
 29.8902
 29.8223
 29.8372
 29.8477
 28.9331
 28.9234
 28.8657
 28.8162
 29.3512
 29.4186
 29.3716
 29.4064
 28.6097
 28.6386
 28.5882
 28.6077
 30.7681
 30.7456
 30.705
 28.222
 28.2481
 28.1705
 28.2482
 30.0902
 29.9912
 30.0318
 30.1084
 29.571
 29.6433
 29.6732
 29.548
 29.3711
 29.3107
 29.273
 28.7361
 28.7564
 28.7215
 28.6585
 28.6727
 28.6575
 28.6147
 28.6967
 28.5629
 28.5589
 28.4827
 28.1183
 28.0607
 28.0934
 28.7661
 28.806
 28.8564
 28.7691
 27.977
 27.9307
 28.0223
 27.9139
 27.9116
 27.9297
 27.992
 29.3506
 29.5043
 29.4232
 29.4543
 29.9424
 30.015
 29.9411
 30.0039
 30.3665
 28.0774
 28.1171
 28.0165
 28.0651
 28.0088
 28.1375
 32.6798
 32.7638
 32.6732
 32.6824
 28.3693
 28.4317
 29.49
 29.6063
 29.4999
 27.5601
 27.4758
 28.7675
 28.8837
 28.8568
 28.8455
 29.47
 29.4298
 29.4226
 28.3985
 28.2682
 28.3603
 28.2971
 29.9782
 29.9485
 30.0135
 29.922
 31.9572
 31.8355
 31.8785
 31.9633
 28.9039
 28.8925
 28.9295
 28.8307
 28.129
 28.0177
 28.1419
 28.3002
 28.2962
 28.2836
 28.3482
 30.2006
 30.3308
 30.2921
 30.3877
 30.2239
 30.1085
 30.5148
 30.4338
 30.5471
 27.507
 27.5631
 28.1027
 28.1736
 28.0863
 28.2014
 29.1382
 29.0017
 29.0293
 28.4317
 28.5088
 28.3826
 28.3729
 30.1565
 30.2853
 30.2567
 30.1929
 29.1851
 29.1852
 29.1167
 29.0988
 29.2684
 29.2143
 29.2071
 29.2702
 30.3036
 30.2418
 30.2363
 30.1658
 30.2231
 30.1871
 30.2002
 27.2857
 27.2094
 27.2692
 27.1788
 30.9131
 31.0464
 27.9091
 27.9108
 27.909
 27.9683
 29.5342
 29.4559
 29.4875
 29.5307
 29.0777
 29.0263
 29.0223
 29.0273
 30.8678
 30.7479
 29.0643
 29.1214
 29.1287
 29.166
 29.4935
 29.5232
 29.5442
 29.4688
 28.2191
 28.2445
 28.2697
 28.2316
 29.311
 29.2664
 29.2415
 29.3656
 30.012
 30.0177
 28.8314
 28.832
 28.8693
 28.8048
 28.5006
 28.5377
 28.4723
 29.0807
 29.0006
 29.0235
 28.9909
 30.4214
 30.3836
 30.4405
 30.3149
 32.3134
 32.2201
 32.2417
 32.3105
 29.3659
 29.4122
 29.3561
 29.2648
 28.9794
 28.8757
 28.9505
 28.9781
 29.505
 29.461
 29.562
 29.5416
 29.7959
 29.8616
 29.804
 29.7482
 28.1875
 28.1087
 28.8275
 28.8578
 28.8943
 31.5287
 31.5704
 31.6434
 31.554
 30.2679
 30.3303
 30.2223
 30.3692
 29.0996
 29.0676
 29.1205
 29.1482
 28.2127
 28.1857
 28.1772
 29.4824
 29.5025
 29.6139
 29.6232
 30.0482
 29.9028
 29.9646
 30.0535
 28.4301
 28.51
 28.5211
 28.463
 28.7278
 28.7572
 28.7823
 28.7717
 28.1331
 28.1196
 28.1159
 28.3637
 28.3545
 28.3598
 28.3447
 29.7213
 29.7275
 29.7649
 29.8491
 29.3926
 29.4021
 29.322
 32.1728
 32.1511
 32.2306
 32.2744
 30.101
 30.1133
 30.9443
 31.0125
 30.8935
 30.875
 30.3581
 30.7675
 27.9617
 29.9491
 30.0325
 29.9718
 30.0754
 27.5021
 28.7567
 28.8264
 28.756
 28.8514
 30.0904
 29.9966
 30.0532
 29.652
 29.5834
 29.5816
 28.1452
 28.1403
 28.2482
 28.1589
 28.2776
 28.3311
 28.2622
 28.3152
 30.4746
 30.6173
 30.6056
 30.5259
 27.736
 27.7191
 27.7129
 27.7953
 29.2702
 29.3254
 29.3931
 28.2899
 28.2317
 28.2705
 28.9289
 29.0209
 28.9928
 28.9223
 29.9428
 29.8899
 30.0005
 29.9628
 29.0635
 28.9444
 29.0494
 29.855
 29.8291
 29.8195
 29.9175
 29.455
 29.3488
 28.1997
 28.1575
 28.1386
 28.0796
 27.9555
 27.8615
 27.9058
 27.9431
 30.2149
 30.1104
 30.2819
 30.2156
 28.4375
 28.541
 28.5089
 28.4175
 28.8812
 29.001
 28.8956
 28.8492
 29.6719
 29.7211
 29.6075
 29.6707
 28.0054
 28.0323
 28.0555
 28.0838
 29.526
 29.5945
 29.4687
 29.4619
 29.2107
 29.2715
 29.2751
 29.1525
 29.3426
 29.3976
 29.3314
 29.3158
 30.2006
 30.1185
 30.3167
 30.2646
 30.1935
 30.2993
 31.1499
 31.3287
 31.2335
 31.187
 28.8724
 28.873
 28.8443
 28.7811
 28.8561
 28.9556
 28.9282
 27.8311
 27.8141
 27.7939
 27.7979
 27.4588
 27.431
 27.4843
 27.8471
 27.8233
 27.9228
 28.9641
 28.8791
 28.8129
 28.927
 28.5411
 28.4838
 28.4405
 28.5757
 28.2461
 28.177
 28.2401
 28.1701
 29.83
 29.9368
 29.9076
 29.843
 30.9796
 30.8911
 30.8533
 30.847
 27.5201
 27.5202
 27.5721
 27.4378
 30.0481
 30.0997
 30.1284
 30.0226
 28.9782
 28.9753
 28.9318
 28.9931
 27.4542
 27.5051
 27.5787
 27.4239
 28.6352
 28.7097
 28.619
 28.645
 29.5292
 29.5685
 29.535
 29.5616
 30.0315
 30.1182
 30.0995
 30.6721
 30.5647
 30.6377
 30.6919
 30.4004
 30.4448
 30.3862
 30.4548
 30.3075
 30.4559
 30.1652
 30.1242
 30.2816
 28.1613
 28.2016
 28.2151
 28.2343
 27.9386
 27.9965
 27.9693
 27.9887
 28.6857
 28.6976
 28.7014
 28.7838
 29.3437
 27.8926
 27.8642
 27.8803
 27.9142
 30.8105
 30.7996
 30.8307
 30.8395
 27.6294
 27.5648
 27.6497
 27.5397
 29.6604
 29.7866
 29.6316
 28.5271
 30.5118
 30.4927
 30.5638
 30.3966
 30.4337
 30.4917
 30.3322
 29.1065
 29.128
 29.2457
 29.1837
 28.358
 28.347
 28.4146
 28.3087
 29.2972
 28.581
 28.6121
 28.6398
 29.3093
 29.3433
 29.3177
 29.2314
 29.8895
 29.8653
 29.932
 29.9322
 29.639
 29.7358
 29.6646
 29.6502
 28.5336
 30.2022
 30.201
 30.126
 28.2484
 28.2915
 28.2324
 28.2701
 28.1193
 28.1363
 28.0569
 28.162
 27.8557
 27.8287
 27.8694
 29.8752
 29.8663
 29.9504
 29.8585
 30.8554
 30.9004
 30.8472
 28.0936
 28.1234
 27.9757
 28.0056
 28.0517
 28.0446
 29.4057
 29.41
 29.3535
 27.6075
 27.6353
 27.5842
 27.6568
 28.1846
 28.222
 28.1947
 28.1525
 28.6858
 28.7403
 28.6649
 28.6568
 29.1205
 29.0963
 29.1252
 29.205
 30.0926
 30.1287
 30.1462
 30.0458
 28.0245
 28.0101
 28.0479
 27.9469
 29.8766
 29.8563
 29.9534
 29.6557
 29.5824
 29.5757
 29.5529
 27.9386
 27.9386
 27.8498
 27.9084
 28.5823
 28.5878
 28.6202
 28.6403
 27.6293
 27.6758
 27.7386
 27.6601
 29.635
 29.5574
 29.5277
 29.5422
 29.0636
 29.0275
 29.1264
 28.9721
 28.1312
 28.1385
 28.0925
 28.132
 29.0833
 29.0017
 29.0879
 29.0655
 27.6251
 27.5203
 27.6059
 29.8863
 29.9284
 29.9408
 29.9268
 28.9877
 28.9925
 28.9949
 29.0704
 28.7347
 28.6427
 28.7133
 28.7126
 29.1492
 29.2194
 29.0848
 29.173
 28.1193
 28.1254
 28.0388
 28.0872
 29.3766
 29.4535
 29.4265
 29.4455
 28.8262
 28.8457
 28.8297
 28.897
 30.8568
 30.8571
 30.8806
 30.8488
 28.3128
 28.2926
 28.3629
 28.3944
 30.9139
 30.918
 30.9081
 30.2065
 30.2542
 30.2466
 30.1877
 30.5154
 30.4894
 30.3029
 30.4356
 28.3127
 28.3646
 28.308
 28.2555
 28.5684
 28.4567
 28.5375
 28.54
 29.6183
 29.7026
 29.716
 29.7562
 27.4175
 27.4599
 27.5216
 32.1901
 32.2368
 28.8291
 28.7599
 28.8651
 28.8405
 31.2284
 31.3026
 31.3847
 31.2691
 28.5838
 28.587
 28.4896
 28.5119
 29.6547
 29.8244
 29.854
 29.8769
 29.9256
 28.4188
 28.3837
 28.3764
 28.3444
 28.1043
 28.1213
 28.0537
 28.1237
 30.8649
 30.867
 28.5544
 28.5247
 28.4153
 28.5224
 28.9326
 29.0767
 28.931
 29.0035
 30.0561
 30.0378
 30.1197
 29.9023
 29.4328
 29.4921
 29.4982
 29.4204
 28.2008
 28.2766
 28.1326
 27.894
 27.9232
 27.9147
 27.9352
 27.4788
 27.47
 27.456
 29.7864
 29.8445
 29.8197
 29.7746
 27.837
 27.9095
 27.9212
 27.9368
 30.4845
 30.5845
 30.5458
 30.5271
 28.665
 28.6272
 28.6351
 28.7134
 29.07
 28.9751
 29.0434
 29.0345
 27.8603
 27.8746
 27.8857
 27.8091
 28.571
 28.5213
 28.605
 28.6435
 31.3105
 31.3561
 31.4121
 31.3462
 29.3283
 29.4556
 29.3393
 29.4474
 29.8355
 29.6639
 29.7029
 29.8013
 28.4113
 28.3656
 28.4347
 28.5072
 30.3814
 30.4598
 30.5185
 30.4803
 28.8773
 28.9388
 28.8854
 28.8006
 29.8318
 29.9115
 29.9095
 30.7762
 30.8819
 30.7733
 30.9274
 28.7432
 28.6701
 28.7916
 28.6137
 28.6339
 28.6871
 30.1241
 30.211
 30.2735
 30.4325
 30.4524
 30.4051
 30.3729
 27.8874
 32.779
 32.7016
 32.6697
 32.7981
 28.147
 28.2094
 28.0927
 28.1564
 30.6364
 29.6184
 29.634
 29.6551
 29.5415
 29.8458
 29.8956
 29.7271
 30.0819
 29.9691
 30.0157
 30.0792
 31.4298
 31.493
 31.4227
 31.5365
 30.4904
 30.4078
 30.4283
 29.0981
 29.1402
 29.1288
 29.8125
 29.8429
 27.3263
 27.4089
 27.418
 30.4452
 30.3668
 30.4689
 29.5933
 29.5211
 29.5004
 27.8177
 27.7457
 27.7672
 28.3697
 28.3653
 28.2934
 28.3715
 30.0904
 30.0054
 29.9909
 30.7366
 30.8646
 27.744
 27.8192
 27.724
 27.7491
 31.1662
 31.0922
 31.2061
 31.0323
 30.4483
 30.4831
 32.2988
 32.4213
 31.8745
 31.903
 31.8036
 29.6505
 29.5959
 29.6887
 27.747
 27.8397
 27.8554
 28.5501
 28.5303
 28.4645
 30.0034
 29.9081
 29.8005
 29.754
 29.8464
 28.0412
 30.9714
 30.9788
 30.9174
 30.908
 29.8504
 29.6838
 29.7808
 29.8104
 28.4599
 28.4936
 28.4412
 28.4175
 28.4155
 28.4587
 28.4314
 29.6982
 29.7405
 29.6658
 29.6007
 28.6109
 28.5688
 28.5268
 28.5312
 28.3193
 28.385
 28.3478
 28.2695
 29.2849
 28.4709
 28.5005
 28.4582
 28.4298
 27.6799
 27.6407
 27.6758
 27.7337
 30.2436
 30.4007
 30.4232
 30.3153
 27.7733
 27.7388
 27.7752
 27.7861
 32.264
 32.3305
 32.4202
 27.7155
 27.7555
 27.6291
 27.6898
 30.1438
 30.1704
 30.2578
 30.2421
 28.3109
 28.3786
 28.3332
 28.2813
 30.4903
 30.4952
 30.6799
 30.6394
 27.5499
 28.1577
 28.258
 28.2231
 28.292
 28.0328
 27.9661
 27.9953
 30.7685
 30.6967
 30.7818
 30.8284
 28.3262
 28.3968
 28.3757
 28.4193
 28.8901
 28.8376
 28.8254
 28.8407
 28.9815
 28.9412
 29.0478
 29.0522
 27.4704
 27.5497
 29.482
 29.4671
 29.4622
 29.7828
 29.713
 29.6846
 29.6128
 28.5163
 28.5627
 28.4281
 28.4279
 28.4819
 28.4395
 28.441
 28.3893
 28.767
 28.7685
 28.6903
 28.7734
 30.2287
 30.1912
 29.945
 30.0008
 30.0099
 29.6139
 29.5589
 29.5404
 29.5248
 30.8149
 30.9007
 30.905
 30.9153
 29.8507
 29.8701
 29.9575
 31.3822
 31.4149
 31.2601
 29.7252
 29.7274
 29.7896
 29.6762
 30.1895
 30.074
 30.2136
 29.3501
 28.5049
 28.5115
 28.4271
 29.6312
 29.6791
 29.6255
 29.5565
 30.484
 30.4709
 30.2715
 30.3828
 29.3231
 29.2689
 29.249
 29.2435
 28.1733
 28.2208
 27.3997
 27.458
 27.5014
 27.3947
 28.4334
 28.4817
 28.4121
 28.5318
 29.4951
 29.5126
 29.5181
 29.4781
 27.6139
 27.6074
 27.4918
 27.6537
 27.7523
 27.7163
 27.7028
 29.1677
 29.2551
 29.2905
 29.1902
 30.6741
 30.7244
 30.6089
 29.4928
 29.5034
 29.403
 29.4812
 30.6313
 30.8189
 30.6929
 30.7958
 28.6139
 28.6237
 28.6032
 28.7711
 30.8508
 30.8468
 30.8514
 30.8139
 30.1831
 30.1
 30.0763
 30.1452
 27.6906
 27.7719
 27.6873
 27.7451
 29.0084
 29.0121
 29.0788
 29.0076
 29.6971
 29.7634
 29.6702
 29.7495
 28.5606
 28.5351
 28.2199
 28.103
 28.1254
 28.1359
 29.6327
 29.5438
 29.5765
 29.4747
 29.3748
 29.3206
 29.3645
 29.3723
 30.6315
 30.5826
 30.6637
 29.546
 29.6079
 29.661
 32.5869
 32.7614
 32.6705
 32.7519
 30.09
 30.03
 30.7517
 30.6507
 30.6907
 30.7686
 28.8254
 28.8923
 28.8321
 28.9207
 31.4664
 31.3894
 31.3235
 31.4219
 30.3293
 30.3503
 30.4545
 28.6698
 28.6391
 28.6459
 28.6801
 30.2421
 30.1689
 30.2797
 30.3341
 30.3174
 30.3929
 30.4119
 29.6302
 29.694
 29.6801
 29.5832
 28.3021
 28.1236
 32.076
 32.0358
 30.0921
 30.1771
 29.4518
 29.5171
 29.4899
 29.5011
 28.6812
 28.6387
 28.6872
 28.588
 29.1712
 29.1782
 29.1301
 29.1092
 30.6216
 30.7965
 30.6246
 30.7588
 28.9263
 29.0139
 28.9665
 30.6674
 30.7033
 30.6379
 30.6386
 27.8988
 27.8818
 27.836
 27.9127
 28.7231
 28.7264
 28.7396
 28.8057
 30.5804
 30.4878
 30.6138
 29.4846
 29.5781
 29.4945
 29.4447
 30.8432
 30.8319
 30.7853
 30.2043
 30.1345
 30.1575
 30.2193
 30.5302
 30.5496
 30.4439
 30.5083
 29.6514
 29.7205
 29.7623
 29.7709
 27.7136
 27.7608
 27.8348
 27.7938
 28.8562
 28.7371
 28.7598
 28.8019
 29.5221
 29.6182
 29.5401
 29.0976
 29.1355
 29.1243
 27.9765
 28.0478
 27.9795
 28.0214
 28.7664
 28.7341
 28.8278
 28.7112
 29.6893
 29.6194
 29.557
 29.6076
 30.9403
 30.875
 30.6097
 30.6756
 30.5734
 30.5724
 32.1433
 32.1806
 32.2499
 32.0911
 28.4582
 28.4352
 28.4446
 28.4683
 30.2856
 30.4119
 30.3528
 30.3676
 29.203
 29.2952
 29.2336
 29.3319
 31.0959
 31.1249
 31.1236
 31.1725
 29.0345
 29.0787
 29.1204
 29.1125
 29.3605
 28.4132
 28.505
 28.5001
 28.486
 29.6275
 29.7327
 29.7587
 29.6367
 29.56
 29.5151
 29.4708
 29.4852
 29.7557
 29.8324
 29.7992
 29.879
 30.5133
 30.6384
 30.473
 28.1414
 28.1235
 28.094
 28.2279
 29.5543
 29.5752
 29.5809
 29.6138
 28.2238
 28.1859
 28.1431
 28.6842
 28.731
 28.6773
 28.7311
 28.315
 28.2276
 28.2744
 28.2139
 30.394
 30.3024
 30.3957
 32.845
 32.7992
 32.7688
 28.5121
 28.419
 28.4455
 29.065
 28.9338
 29.0068
 28.9356
 29.759
 29.6958
 29.6525
 29.696
 29.5738
 29.5179
 29.6381
 29.6137
 31.6831
 31.6112
 31.7714
 31.6068
 29.1348
 29.1752
 29.1788
 29.1898
 28.9594
 28.9701
 28.8463
 28.9282
 30.1978
 30.2041
 30.0208
 30.1952
 30.1091
 30.0945
 28.6254
 28.6876
 28.6528
 28.6371
 30.341
 30.2565
 28.8474
 28.8723
 30.6643
 32.5852
 32.6213
 32.6404
 32.5759
 30.9676
 30.8698
 27.548
 27.477
 27.5397
 30.8502
 30.7711
 30.7066
 30.7866
 28.5386
 28.5193
 30.2405
 30.2575
 30.2397
 30.2417
 29.8369
 29.6897
 29.7731
 28.4243
 28.4256
 28.4314
 28.3432
 28.77
 28.7066
 28.7895
 28.7524
 28.1433
 28.1354
 28.0712
 29.5284
 29.6007
 29.5294
 29.6397
 29.3197
 28.0777
 28.1962
 28.1094
 28.1368
 30.8534
 30.9046
 30.8048
 30.7648
 29.1881
 29.2412
 29.1104
 29.1924
 28.4136
 28.5302
 28.4452
 28.4994
 32.0581
 32.0804
 32.0233
 32.0602
 30.453
 27.567
 29.6623
 29.5326
 29.6132
 29.6973
 29.1203
 29.0339
 29.1356
 29.1663
 30.2172
 30.3695
 30.2697
 30.2655
 29.0834
 29.1252
 29.0981
 29.0816
 30.5783
 30.5695
 30.4493
 30.6623
 30.5701
 30.4932
 30.5775
 29.5323
 29.4251
 29.5566
 29.5193
 28.4101
 28.3294
 28.4851
 27.3292
 27.2565
 27.3297
 27.3697
 31.6629
 31.8338
 31.8277
 29.3747
 29.3828
 29.4551
 29.405
 29.512
 29.3923
 27.935
 27.9303
 27.9692
 27.8664
 28.5221
 28.572
 28.555
 28.6117
 30.535
 30.38
 30.4918
 31.2729
 29.5848
 29.6767
 29.6424
 29.5891
 29.3729
 29.3136
 29.3213
 28.6849
 28.7301
 28.7036
 28.6626
 28.4641
 28.5452
 28.4883
 28.5248
 29.6198
 29.6825
 28.6089
 28.6094
 28.6183
 28.5556
 29.0508
 29.0724
 29.0488
 28.9854
 27.8226
 27.7726
 28.7753
 28.8533
 28.808
 28.8324
 28.5936
 28.5608
 28.5519
 28.4965
 28.7233
 28.6792
 28.716
 28.7303
 29.3375
 29.2915
 29.6148
 29.5612
 29.6284
 29.6758
 29.792
 29.8778
 29.8417
 29.8132
 29.0082
 28.9375
 28.9544
 28.9707
 30.5858
 30.5274
 30.4325
 30.4041
 30.2375
 30.2788
 30.311
 30.2804
 31.9343
 31.7722
 31.7888
 31.9202
 29.8088
 29.9651
 29.009
 29.1428
 29.0461
 29.0804
 29.6733
 29.6996
 29.6579
 29.5987
 29.1509
 29.0901
 29.0432
 29.129
 29.5107
 29.5014
 28.4044
 28.4244
 27.6278
 27.6112
 27.5987
 27.594
 30.7977
 29.561
 29.5703
 29.5429
 29.4885
 29.3916
 29.467
 29.4233
 29.391
 29.9813
 30.0547
 30.0584
 30.1677
 28.5558
 28.6509
 28.5809
 28.6664
 29.0485
 29.1009
 29.1203
 29.0462
 30.6006
 30.6391
 30.5423
 30.6983
 30.74
 29.7285
 29.6399
 29.7481
 29.7034
 29.8283
 29.7149
 29.7698
 29.8543
 30.4899
 30.4767
 30.5851
 30.4816
 30.2588
 30.2405
 30.1221
 30.1762
 29.412
 29.3249
 29.4319
 29.433
 30.6276
 30.6794
 30.7403
 30.7082
 29.1396
 29.1192
 29.2264
 30.1451
 30.1484
 30.179
 30.1821
 31.5715
 31.5047
 29.1022
 29.0596
 29.0357
 29.2721
 29.1779
 29.2127
 29.1704
 30.7039
 30.637
 30.6037
 31.1168
 31.0501
 31.0738
 31.0938
 28.835
 28.8652
 28.7771
 28.8218
 29.1509
 29.2563
 29.1525
 28.3454
 28.4863
 28.4173
 29.3619
 29.4249
 29.4082
 28.1208
 28.1443
 28.0977
 31.8278
 31.9184
 31.9552
 31.8392
 27.8202
 27.7897
 27.8366
 27.7848
 29.9344
 30.0004
 29.0351
 29.0556
 30.4401
 30.4441
 30.4564
 30.3748
 28.8781
 28.9364
 28.8376
 28.3446
 28.2933
 28.309
 28.2958
 28.0705
 28.1713
 30.8687
 30.8601
 30.9204
 29.0645
 29.0614
 29.1292
 30.2331
 30.3049
 30.1912
 30.6649
 30.6734
 30.7116
 30.7132
 29.5755
 29.5434
 29.6205
 29.511
 29.6753
 29.7548
 29.7388
 29.684
 28.5821
 28.592
 28.6153
 28.5397
 28.4621
 28.5292
 28.4936
 28.58
 29.8278
 29.7806
 29.7476
 28.8699
 28.9026
 28.9409
 28.7125
 28.6285
 28.66
 28.6088
 27.1808
 27.2268
 27.1677
 29.3428
 29.4026
 29.4003
 28.5927
 28.5478
 28.6327
 29.4307
 29.3952
 29.4651
 29.9351
 30.0305
 30.0022
 30.7963
 30.764
 30.7621
 30.7174
 29.3106
 29.5464
 29.4531
 29.5111
 30.184
 30.207
 30.2672
 30.5477
 30.4399
 28.7469
 28.8001
 28.694
 28.7532
 28.7075
 28.6411
 28.7493
 28.7853
 30.4634
 30.3476
 30.2955
 30.2918
 30.5517
 30.675
 30.5923
 30.6959
 31.3153
 31.3816
 31.3053
 31.435
 27.7964
 27.7685
 28.19
 28.2847
 28.2286
 28.1759
 27.7148
 29.992
 29.8742
 29.967
 29.2724
 29.2523
 29.3062
 29.3435
 30.5739
 30.5535
 29.5101
 29.5281
 29.4157
 30.9167
 30.8817
 28.2686
 28.271
 28.1945
 28.3326
 27.9944
 28.0281
 27.8928
 27.9863
 28.4665
 28.4436
 28.5086
 29.9033
 29.8291
 29.8418
 27.9818
 27.9992
 27.969
 27.9593
 30.2178
 30.3086
 30.2348
 30.1843
 28.4106
 28.4551
 28.4843
 28.4183
 30.143
 30.2284
 30.2401
 30.0921
 30.6046
 30.566
 30.6411
 27.735
 27.625
 27.679
 27.7141
 30.8147
 30.7382
 30.7692
 29.666
 29.6481
 29.494
 29.6569
 27.7299
 27.6607
 27.6939
 30.0845
 30.1535
 30.0093
 30.0684
 28.717
 27.9034
 27.8551
 27.9981
 27.9255
 31.0243
 30.9935
 30.9342
 31.0019
 28.7465
 28.8618
 28.7717
 28.7475
 29.3903
 29.3762
 29.4526
 30.5448
 30.5742
 30.5111
 30.6987
 28.7994
 28.8465
 28.7573
 30.1959
 30.2414
 31.7739
 31.912
 31.8681
 31.7592
 31.0641
 31.2182
 31.2318
 27.943
 27.9735
 27.8956
 27.9869
 28.0181
 27.9705
 31.0696
 31.0325
 31.137
 31.0041
 29.7063
 29.6689
 29.6814
 29.6315
 29.4794
 29.5897
 29.5856
 29.5593
 29.0234
 29.0622
 28.9614
 29.0298
 29.0611
 29.184
 29.107
 29.172
 27.8092
 30.6394
 30.6958
 30.6284
 30.6775
 27.8283
 27.8777
 27.7997
 29.1033
 29.1695
 29.2181
 29.1998
 30.7766
 30.676
 30.6437
 29.1067
 29.1814
 29.1368
 29.1731
 29.3982
 28.6064
 28.5899
 28.4962
 28.5337
 30.1904
 30.2232
 30.1967
 29.3787
 29.2698
 29.3424
 27.7729
 27.8037
 27.8722
 27.8116
 29.3626
 29.3544
 29.4101
 32.3539
 32.3455
 32.4121
 29.3691
 29.4243
 29.3603
 29.5046
 28.6009
 28.5135
 28.5619
 29.3041
 29.2814
 28.19
 28.1388
 28.2275
 28.2023
 28.4903
 28.4184
 28.4515
 28.4719
 27.6633
 27.69
 27.7385
 27.7919
 29.1843
 29.3236
 29.2269
 29.192
 28.4849
 28.5211
 28.5347
 28.5511
 28.1994
 28.1432
 28.0893
 30.3328
 30.2863
 30.434
 30.3629
 29.4338
 29.3529
 29.8516
 29.9122
 29.8432
 29.8721
 28.7076
 28.7061
 28.7229
 28.6705
 29.3866
 29.3216
 29.3302
 29.4187
 28.8193
 28.8637
 28.7802
 28.8661
 29.3228
 29.3032
 29.2306
 29.2333
 29.4349
 29.4958
 29.4987
 28.2037
 28.2505
 28.2245
 27.9598
 27.9632
 27.9778
 27.8808
 28.2681
 28.2648
 28.2105
 28.5745
 28.4589
 28.5479
 31.7771
 31.6431
 31.8235
 29.4247
 29.3171
 29.3931
 28.2805
 28.2511
 28.3016
 28.2892
 29.4291
 29.3918
 29.4451
 29.1109
 29.1026
 29.0387
 29.1672
 28.7619
 28.9174
 28.8733
 28.8669
 29.4654
 29.3933
 29.4193
 29.3619
 30.3887
 30.3249
 30.3768
 30.4396
 29.4019
 29.1402
 29.1631
 29.1128
 29.2633
 30.8004
 30.7532
 30.7255
 30.7402
 30.6053
 30.5104
 30.5659
 30.52
 30.504
 30.4158
 30.4734
 30.5049
 28.7666
 28.802
 28.6863
 28.6425
 30.2886
 30.3361
 30.309
 30.2948
 27.4732
 27.5455
 27.5054
 27.5494
 31.1532
 31.0809
 31.0161
 31.0094
 30.3093
 30.3021
 30.3367
 30.9229
 31.021
 31.0579
 31.0522
 30.5175
 30.6064
 30.4671
 30.7453
 30.7089
 29.3178
 29.327
 29.2706
 29.1696
 28.0162
 28.0676
 28.0847
 27.9326
 27.9493
 27.904
 27.9757
 30.4713
 30.5624
 27.632
 27.5842
 27.6473
 28.199
 28.2094
 28.1798
 28.1565
 30.5246
 30.5709
 30.5236
 27.754
 27.718
 27.8001
 27.6959
 29.7719
 29.7455
 29.6871
 29.827
 30.5379
 30.6576
 30.576
 30.5027
 30.9458
 30.7812
 30.8581
 30.8664
 31.5725
 31.4933
 31.5975
 31.6216
 28.9071
 28.7891
 28.863
 28.7913
 29.7421
 29.7441
 29.7727
 29.8877
 27.7238
 27.8228
 27.7272
 32.2555
 32.1735
 32.2415
 32.1109
 31.158
 31.0762
 31.107
 31.0306
 27.8269
 27.7019
 27.7727
 27.774
 29.4294
 29.4293
 29.355
 28.1419
 28.062
 28.0387
 30.388
 30.4002
 30.5197
 27.6851
 27.7799
 27.7776
 27.7117
 28.0546
 28.0749
 28.085
 28.1589
 30.0908
 30.0427
 29.9586
 30.0375
 29.8467
 29.9444
 29.8453
 29.9464
 28.4103
 28.4039
 28.3792
 28.3066
 29.2028
 29.2388
 29.2854
 29.2614
 31.237
 31.1309
 31.165
 31.0853
 28.0839
 28.2247
 28.1371
 28.165
 27.6017
 29.1497
 29.1359
 29.0814
 29.0852
 27.9536
 27.9179
 27.926
 27.861
 30.8294
 30.8321
 30.7984
 30.8032
 27.7238
 27.6646
 27.7424
 27.7719
 29.4802
 29.4888
 29.7322
 29.7744
 29.7202
 29.6851
 28.4412
 28.5142
 28.5221
 28.5275
 29.0459
 28.9531
 28.9577
 29.7341
 29.7635
 29.7129
 28.4333
 28.4274
 28.5165
 28.5306
 28.4234
 28.4626
 28.3881
 28.4413
 30.3949
 30.4802
 30.4979
 29.424
 29.2752
 29.2738
 29.3629
 31.377
 31.2481
 31.1637
 31.3099
 31.3625
 27.6558
 27.775
 27.6446
 27.7691
 29.3339
 29.365
 29.4142
 29.3364
 27.9261
 27.8844
 29.5903
 29.7362
 29.7383
 30.1374
 30.2228
 30.0832
 30.1104
 27.7416
 27.7477
 27.7221
 27.7031
 30.6498
 30.6213
 30.6297
 30.1449
 30.1795
 30.1119
 30.1731
 29.8925
 29.8019
 29.8649
 29.9755
 28.6894
 28.5355
 28.6056
 28.5652
 30.2969
 30.1634
 30.251
 30.2513
 28.4167
 28.9915
 28.9052
 28.8716
 28.9972
 27.9452
 27.9173
 27.9875
 27.7871
 27.8117
 27.8248
 27.8684
 28.8938
 28.8688
 28.9584
 28.9151
 27.4603
 27.4581
 27.4491
 27.5313
 29.844
 28.9479
 29.0557
 29.073
 28.9816
 29.3063
 29.4226
 29.3889
 29.3265
 31.5569
 31.4579
 31.4319
 31.5173
 29.357
 29.33
 29.3062
 29.3994
 29.635
 29.6133
 29.583
 29.5546
 29.6375
 29.6147
 29.5624
 28.0757
 28.1533
 28.186
 29.6949
 29.7823
 29.7558
 29.7097
 28.008
 27.8992
 27.956
 29.3072
 29.3382
 29.2199
 29.1755
 29.1997
 29.1158
 29.1246
 29.0989
 29.3855
 29.3612
 29.2497
 29.29
 28.056
 28.0111
 28.0112
 29.8171
 27.9078
 29.034
 28.9656
 29.021
 29.1281
 30.405
 30.3512
 30.4807
 30.2967
 30.1965
 30.1743
 29.2037
 29.1914
 29.2585
 29.3174
 29.3303
 29.2679
 29.232
 29.2972
 29.3616
 29.2572
 29.3655
 32.5192
 32.5044
 32.6105
 28.4036
 28.4957
 28.4012
 29.5086
 29.4608
 28.1344
 28.2555
 28.2328
 28.244
 28.8988
 28.8326
 28.8898
 31.3903
 31.4889
 31.5872
 31.5487
 29.6257
 29.7704
 29.7063
 29.6113
 30.3546
 30.3903
 30.4596
 30.4798
 28.7412
 28.8433
 28.7958
 28.7556
 30.0426
 30.0844
 30.0573
 30.1579
 31.2962
 31.336
 31.3616
 29.7488
 29.7887
 29.8339
 29.8174
 28.6543
 28.5716
 28.5935
 28.5993
 29.4083
 29.3295
 29.31
 29.3625
 30.2236
 30.2718
 30.2234
 29.7163
 29.7783
 29.7479
 29.7653
 30.3493
 30.4537
 30.3275
 30.4264
 30.6716
 30.5208
 30.4848
 30.6645
 27.8615
 27.8089
 27.8305
 27.8068
 30.5258
 30.4372
 30.4682
 30.4384
 30.2656
 30.3294
 30.2297
 30.2452
 28.903
 28.7876
 28.8423
 28.7845
 29.7786
 29.8316
 29.7366
 29.7497
 27.3
 27.2584
 27.2631
 27.2655
 29.6916
 29.7416
 29.6619
 30.7554
 30.8385
 30.8
 30.7249
 30.5759
 30.6345
 30.5932
 30.6395
 30.4819
 30.6049
 28.6889
 28.7383
 28.6804
 28.7754
 27.4543
 27.5205
 27.4887
 27.4949
 29.6651
 29.7495
 29.6952
 29.7456
 30.4945
 30.5448
 30.5704
 28.7554
 28.8265
 28.8454
 28.7665
 29.5201
 29.5793
 29.4567
 29.458
 30.1547
 30.1583
 30.1689
 30.0895
 30.8406
 30.6737
 30.7693
 28.3086
 28.24
 28.2086
 28.2835
 28.3041
 28.2764
 28.3604
 29.6749
 29.6342
 29.5736
 29.5843
 29.6538
 29.7333
 29.6044
 30.2405
 30.1691
 30.1435
 30.1049
 28.7573
 28.7557
 28.837
 30.4957
 30.4768
 30.5982
 29.2644
 29.1598
 29.2148
 28.2313
 28.3261
 28.2933
 28.6236
 28.6534
 29.8304
 29.7614
 29.8235
 29.757
 29.706
 29.7539
 29.5272
 29.6311
 30.1813
 30.9112
 30.8831
 30.9801
 28.0033
 28.0164
 28.1212
 29.6107
 29.5562
 29.5799
 29.6465
 30.2072
 29.3189
 29.2577
 28.7994
 28.8031
 28.8146
 28.7503
 29.3585
 29.4732
 29.3736
 29.6308
 29.5889
 29.7329
 29.5933
 29.7905
 29.6258
 29.6782
 29.7375
 29.7586
 29.6071
 28.0792
 28.1424
 28.1569
 28.1049
 28.061
 28.0092
 27.9129
 27.9457
 30.5647
 30.4746
 29.2856
 29.3534
 29.3631
 29.4262
 29.0949
 29.0713
 29.0497
 29.0162
 28.745
 28.6794
 28.762
 28.7709
 29.4973
 29.5346
 29.5658
 29.4786
 29.578
 29.5274
 29.5603
 29.6092
 28.2259
 28.3281
 28.2437
 28.2675
 30.306
 30.1863
 30.1967
 30.1061
 30.3488
 30.2304
 30.2887
 28.3654
 28.2975
 28.2166
 28.2003
 30.1956
 30.1285
 30.1552
 30.0902
 28.0089
 28.0463
 27.9898
 28.0197
 28.2768
 28.3253
 28.3062
 28.3323
 29.6969
 29.6547
 29.7397
 29.6863
 28.6163
 28.5945
 28.6468
 28.7151
 30.1589
 30.1035
 30.0209
 29.9964
 28.4952
 28.5299
 28.5033
 30.5549
 30.5036
 30.57
 30.5011
 29.0008
 29.0199
 28.9837
 28.9494
 29.7524
 29.726
 28.5306
 28.4483
 28.4861
 28.527
 28.4525
 28.4623
 28.5045
 29.555
 29.4574
 29.5476
 28.3658
 28.3805
 28.3508
 28.28
 31.2485
 31.1609
 31.0908
 31.1525
 30.1436
 30.1097
 30.0291
 30.0224
 28.8941
 28.9934
 28.9831
 28.8834
 27.9734
 27.974
 28.0178
 27.9817
 28.1951
 28.1331
 28.1195
 28.1917
 27.8375
 27.8214
 27.8178
 28.0383
 28.0249
 29.8648
 29.7967
 29.8627
 29.7808
 30.4009
 30.3468
 30.5057
 30.4299
 30.0296
 30.0183
 29.9178
 29.8386
 29.9051
 29.9036
 29.6108
 29.6024
 29.5078
 29.6012
 30.4953
 30.4946
 30.5651
 29.1151
 29.1702
 29.1458
 29.1959
 27.2994
 27.3234
 27.3885
 29.9439
 29.9557
 29.9184
 29.8482
 28.1332
 28.2179
 28.1596
 28.1382
 28.65
 28.551
 28.5687
 29.2436
 29.2938
 29.1897
 28.6985
 28.6136
 28.7275
 28.2201
 28.2989
 28.7136
 28.6982
 28.6984
 30.1
 30.0808
 30.0554
 30.1567
 27.9558
 27.9089
 27.9613
 27.9864
 28.9975
 28.9005
 28.9771
 31.6036
 31.6722
 31.7036
 31.6
 30.5777
 30.6523
 29.0616
 29.9077
 29.8059
 29.8718
 29.8965
 29.3226
 29.247
 29.2537
 28.5959
 28.5598
 28.6227
 28.5938
 27.9956
 27.9521
 29.3772
 29.4136
 29.4073
 29.4573
 30.6252
 30.6678
 30.69
 30.5302
 28.2101
 28.1595
 28.1808
 28.2098
 28.8145
 28.7836
 28.8228
 32.155
 32.1536
 32.2962
 32.3254
 30.475
 30.5061
 30.5922
 29.9997
 29.9562
 30.0596
 29.9968
 28.9784
 28.9722
 29.022
 28.9236
 29.3191
 29.248
 30.8653
 30.8302
 30.8381
 30.841
 28.7822
 28.6946
 30.1287
 30.2259
 30.1137
 30.1034
 29.614
 29.5793
 29.688
 29.6084
 29.3877
 29.3166
 29.2552
 29.3321
 29.9641
 30.0135
 30.111
 28.6342
 28.7542
 28.646
 28.7164
 28.3151
 28.2572
 28.191
 28.317
 28.3474
 28.3565
 28.3639
 28.2712
 30.5855
 30.7131
 30.588
 30.6653
 29.335
 29.3892
 31.762
 31.9567
 31.8033
 31.951
 29.7735
 29.8801
 29.9039
 27.6466
 32.6088
 32.6013
 32.641
 32.8011
 29.3269
 29.2638
 29.3137
 29.3016
 29.8719
 29.7929
 29.8312
 28.293
 28.246
 28.2137
 28.3142
 28.3157
 28.3406
 28.2662
 28.2752
 28.3028
 28.2779
 28.3378
 28.3642
 30.087
 30.0067
 30.1275
 30.0128
 30.3802
 30.4501
 30.4366
 30.4712
 28.8335
 28.8408
 28.7515
 28.8443
 29.6906
 29.8072
 29.6705
 29.7435
 27.395
 27.9355
 27.8882
 28.9778
 28.9877
 29.5058
 29.5593
 29.553
 27.9176
 27.8144
 27.8802
 27.8956
 29.3734
 29.4122
 29.0828
 29.1431
 31.3557
 31.2802
 31.4015
 31.3261
 30.0737
 30.1051
 30.1747
 30.1319
 28.807
 28.7175
 28.8027
 28.7225
 31.0696
 31.2029
 31.1173
 31.0696
 27.4683
 27.5156
 27.4345
 27.505
 27.9946
 28.0914
 27.8655
 27.9071
 27.9613
 27.8608
 28.3337
 28.2783
 29.7716
 29.7065
 29.7553
 32.1894
 32.1145
 32.2166
 32.2621
 30.9773
 30.9171
 30.9185
 30.9989
 27.966
 27.9036
 27.9652
 28.0047
 28.5458
 28.4231
 28.4749
 29.2191
 29.2907
 29.3524
 29.2419
 30.0044
 29.8984
 29.9543
 29.9929
 28.0532
 27.9949
 28.0553
 27.9218
 29.2718
 29.1752
 30.0043
 29.9616
 28.7298
 28.6615
 28.7729
 28.7461
 30.4081
 30.5172
 30.371
 30.5519
 30.5882
 30.7192
 30.6437
 32.2333
 32.0262
 32.0101
 32.1551
 29.9624
 29.9134
 29.9324
 29.8485
 28.1862
 28.165
 28.2961
 28.2244
 28.2777
 28.224
 30.1351
 30.1434
 30.0645
 30.199
 28.4709
 28.5159
 28.4473
 28.7347
 28.7531
 28.7047
 28.7735
 28.2514
 28.1709
 28.251
 28.1702
 30.0075
 29.9283
 29.9544
 29.9903
 27.8042
 27.9112
 29.5769
 31.6231
 31.6216
 31.5157
 31.5084
 28.4483
 28.4748
 28.4135
 31.206
 31.2565
 31.1348
 31.3189
 28.6175
 28.6234
 28.6059
 28.5385
 30.7349
 30.7405
 30.8607
 30.6906
 30.319
 30.3278
 30.2424
 30.2192
 28.7776
 28.7172
 28.7058
 29.8186
 29.7784
 29.8389
 29.8833
 28.9795
 28.9825
 28.9384
 29.0467
 28.9885
 29.0909
 28.1593
 28.1376
 28.1513
 28.7183
 28.7004
 28.7353
 31.9039
 31.9139
 31.8232
 31.8936
 30.5682
 30.4463
 30.6026
 30.4152
 28.0438
 28.1403
 28.1562
 28.165
 28.3972
 28.4306
 30.2963
 30.1472
 30.3068
 28.6889
 28.7853
 28.7785
 28.8412
 28.7679
 28.7965
 28.8234
 30.0786
 30.123
 30.0702
 30.049
 27.8127
 27.8305
 29.854
 29.8824
 29.8523
 29.8176
 30.2701
 30.2622
 30.2336
 28.6964
 28.6744
 29.3638
 29.3776
 29.4167
 29.3006
 30.7079
 30.7514
 28.8602
 28.9091
 29.7701
 29.8627
 29.8338
 29.8014
 29.1296
 29.1117
 29.1966
 29.076
 29.1319
 29.186
 29.1489
 30.8643
 30.8282
 30.8894
 30.7192
 31.0462
 31.0614
 30.9811
 31.051
 28.6256
 28.6653
 28.7274
 28.682
 28.0132
 28.0041
 28.0482
 28.0499
 29.0147
 28.9763
 29.057
 29.2968
 29.353
 29.3838
 29.34
 29.2656
 28.36
 28.3404
 29.9282
 29.8445
 29.9278
 29.9468
 30.2941
 28.0067
 28.0239
 28.0769
 28.0435
 29.319
 29.444
 29.4189
 29.3509
 31.9861
 31.9386
 29.5478
 29.6507
 29.5479
 31.7693
 31.7478
 31.8168
 31.7281
 28.9357
 28.9871
 28.9451
 28.9775
 30.7476
 30.6252
 30.6164
 30.0873
 29.9938
 27.756
 27.7568
 27.7654
 27.8979
 27.8927
 27.9249
 30.4502
 30.3324
 30.2236
 30.2448
 31.9272
 31.9669
 31.9985
 32.0957
 27.9933
 28.1056
 27.9853
 30.3545
 30.3381
 30.2863
 30.4189
 30.2418
 30.2876
 30.1651
 30.2838
 28.6746
 28.636
 28.6173
 28.6582
 28.9865
 28.8099
 28.903
 28.6838
 28.6818
 28.7564
 28.6811
 28.4241
 28.5065
 28.3572
 28.5383
 30.8347
 30.8223
 30.5373
 30.5357
 30.4594
 29.0158
 29.0559
 29.1205
 29.0954
 30.2571
 30.2632
 30.1681
 30.209
 28.5936
 28.647
 28.633
 28.5965
 30.7601
 30.601
 28.0923
 28.1352
 28.1034
 28.1646
 28.554
 28.6751
 28.6193
 28.5366
 29.9568
 29.9451
 29.98
 29.8943
 28.2363
 28.1496
 29.575
 29.5573
 29.5265
 29.5107
 31.3834
 31.3381
 31.3695
 31.3587
 30.7813
 30.7253
 30.7732
 30.6928
 27.7542
 27.7192
 27.6739
 27.6936
 27.9932
 28.0255
 28.0516
 30.0154
 30.0273
 30.0413
 27.7851
 27.7346
 29.5883
 29.5242
 29.5731
 29.4415
 28.1554
 28.2107
 28.1517
 28.2135
 30.3007
 30.3538
 30.2765
 30.3495
 30.8597
 30.7597
 30.8693
 28.3177
 28.237
 28.2394
 28.2918
 29.6732
 29.5472
 29.5707
 29.6134
 30.4437
 30.4074
 30.3375
 30.4945
 30.626
 30.8407
 30.6327
 28.9876
 29.0973
 28.966
 29.2281
 29.2129
 29.2737
 29.1839
 29.0565
 29.0625
 28.9781
 29.075
 29.8173
 29.7135
 29.8017
 29.7309
 30.1211
 30.0988
 30.055
 30.1601
 30.5147
 30.626
 28.7559
 28.6537
 28.7565
 28.7541
 29.162
 29.2706
 29.1828
 29.2337
 29.1303
 29.2401
 29.2594
 29.3649
 29.2295
 29.2463
 31.7391
 31.6644
 31.6195
 31.6518
 27.9923
 27.8934
 27.9601
 29.7564
 29.7641
 29.7595
 29.8508
 29.351
 29.4134
 29.3523
 30.6221
 30.5407
 30.6662
 30.631
 30.3234
 30.4177
 30.3579
 30.3831
 29.7
 29.6794
 29.6212
 30.2311
 30.2767
 28.5271
 28.5662
 28.4624
 27.6589
 27.6289
 27.7026
 27.6627
 30.3814
 30.4339
 30.4615
 30.281
 29.3966
 29.3252
 29.3107
 29.4079
 28.3694
 28.3558
 28.4114
 28.4215
 30.2386
 30.2127
 30.2869
 30.1482
 30.0224
 29.9798
 29.9547
 29.8822
 28.2875
 28.3499
 28.4267
 28.4135
 30.0549
 29.9454
 28.0919
 28.1178
 28.0579
 29.1209
 29.1803
 30.9797
 31.068
 31.0271
 31.1026
 29.6783
 29.6424
 29.6186
 29.6365
 31.1337
 31.2147
 31.1524
 29.4566
 29.4708
 28.9315
 28.8863
 28.7943
 28.9266
 29.6392
 29.6285
 28.732
 28.6712
 29.7502
 29.7999
 29.7579
 29.7301
 28.7751
 28.8496
 28.7627
 28.728
 28.4582
 28.3796
 28.3153
 28.3661
 27.7848
 27.7697
 27.8078
 27.8035
 29.3889
 29.3467
 30.3403
 30.33
 30.4802
 30.5163
 28.3664
 28.4413
 30.5406
 30.456
 30.4909
 31.5451
 31.5202
 31.3826
 31.4469
 31.6917
 31.6579
 31.6909
 29.3284
 29.23
 29.2359
 29.2519
 29.7324
 29.6602
 29.7198
 30.4648
 30.0008
 29.9226
 30.0356
 29.9341
 30.4771
 30.4206
 30.5367
 30.4361
 29.7649
 29.8373
 29.7495
 29.8361
 28.7255
 28.8651
 28.866
 28.7465
 27.8171
 27.8461
 27.8507
 27.7824
 29.5555
 29.5812
 29.4669
 29.4945
 28.2773
 28.314
 28.1958
 28.2201
 29.9959
 28.6482
 28.75
 28.7056
 28.7285
 31.0459
 31.1324
 31.0526
 31.0666
 28.6149
 28.5461
 28.541
 29.8519
 28.0105
 27.9952
 28.0418
 27.9541
 27.8771
 27.8607
 27.8576
 27.9015
 27.9921
 27.9252
 27.9008
 29.2938
 29.3084
 29.2914
 29.3832
 27.9542
 27.934
 27.9071
 27.9013
 30.4262
 30.473
 30.5056
 30.4963
 28.8085
 28.8384
 28.8335
 28.9092
 29.5446
 29.4357
 29.4557
 29.531
 31.2919
 31.1929
 31.3203
 28.9146
 29.4294
 29.4494
 29.4831
 29.3923
 27.9055
 27.8502
 27.8494
 27.8317
 27.8792
 27.8212
 27.7668
 27.7939
 28.7807
 28.8056
 28.7554
 28.8127
 29.9453
 30.0169
 30.0526
 30.0179
 29.6157
 29.5196
 29.5925
 27.9411
 27.9159
 27.9534
 28.0222
 27.8382
 27.7979
 27.8209
 27.8558
 30.4878
 30.537
 30.5282
 28.3635
 28.2971
 27.9388
 27.9636
 27.9579
 30.449
 30.5005
 30.3967
 30.3934
 28.5449
 28.4559
 28.5879
 28.5932
 29.6836
 29.0938
 29.0718
 29.0322
 29.0972
 28.8689
 28.9384
 28.8621
 28.9857
 27.8558
 27.8219
 28.1672
 28.0821
 28.1373
 28.0794
 28.1958
 28.0939
 28.1343
 28.0662
 28.2869
 28.3622
 28.2651
 28.355
 28.5141
 28.4616
 28.4958
 28.4609
 31.0797
 30.9383
 27.9613
 27.9341
 27.8915
 30.8346
 30.8688
 30.8377
 30.1395
 30.2801
 30.3019
 30.179
 28.5016
 28.5443
 28.4906
 28.4228
 29.5169
 29.5975
 29.5636
 29.5538
 27.5874
 27.6509
 27.5818
 27.5347
 29.0735
 29.0919
 29.0418
 29.0633
 28.2404
 28.1862
 28.2458
 28.6829
 28.6852
 29.1581
 29.2819
 29.1849
 29.1737
 29.2188
 29.3586
 29.2177
 29.3118
 30.5059
 30.4199
 30.4149
 28.8235
 28.7468
 28.788
 28.7181
 29.8085
 29.7641
 29.6975
 28.0838
 28.0989
 28.0143
 28.115
 27.868
 29.0007
 29.0983
 29.1093
 29.0345
 28.703
 28.6503
 28.6474
 28.6684
 28.8718
 28.9208
 28.9461
 32.5157
 32.6431
 32.5302
 32.5181
 30.1732
 30.108
 30.7072
 30.8054
 29.4629
 29.5987
 29.5826
 29.5117
 32.8445
 32.8065
 27.6499
 27.624
 27.6018
 27.5457
 28.5455
 28.4011
 30.5237
 30.5473
 30.4742
 30.4823
 29.4268
 29.4178
 29.3602
 29.3883
 28.1934
 28.1165
 28.1508
 28.2313
 30.0387
 30.0697
 29.9984
 30.0313
 29.5188
 29.5598
 29.4676
 29.5193
 28.1119
 28.0621
 28.0658
 28.0005
 29.5697
 29.5393
 29.5151
 29.663
 27.8495
 27.912
 27.8946
 27.921
 28.7943
 28.7373
 28.7481
 30.2032
 30.1925
 30.3161
 30.2087
 28.9467
 29.0174
 28.9765
 29.0231
 29.1477
 29.2105
 29.8382
 29.7047
 29.6943
 28.7778
 28.7933
 28.7032
 28.6906
 27.7773
 27.7816
 27.706
 27.7013
 28.0118
 27.9589
 27.9203
 28.0208
 30.3435
 30.3477
 30.4281
 30.4004
 30.7948
 30.797
 30.8375
 30.8219
 30.5667
 30.6895
 30.5688
 30.6479
 30.8547
 30.8296
 30.8827
 29.2548
 29.2688
 29.2487
 29.3637
 28.3559
 28.3175
 28.5731
 28.4799
 28.5432
 28.5404
 28.3787
 28.3251
 28.4166
 30.2772
 30.3628
 30.3278
 30.3956
 29.2808
 29.2678
 29.2159
 29.2308
 27.5993
 27.5933
 27.5752
 27.5293
 29.0541
 29.0971
 29.1479
 29.0572
 28.9652
 29.0596
 28.9532
 29.0242
 27.9891
 27.9435
 28.0059
 28.0142
 30.5901
 30.7106
 30.6938
 30.6372
 28.5622
 28.5981
 30.6206
 30.703
 28.2256
 28.2877
 28.2173
 28.1601
 29.1625
 29.1837
 29.1605
 29.2549
 30.9704
 30.8434
 30.9028
 30.7595
 30.8171
 30.8275
 30.8572
 30.0047
 30.125
 29.1471
 29.1798
 29.1253
 29.1729
 28.7365
 28.7478
 28.6938
 29.7359
 29.807
 29.8402
 29.7352
 29.729
 29.5953
 29.7273
 29.6359
 28.4461
 28.5296
 28.5056
 28.4928
 30.8125
 30.8108
 30.7921
 27.7057
 27.6882
 27.7686
 27.7599
 28.8942
 28.9173
 28.8993
 30.3035
 30.2706
 30.2385
 27.9027
 27.8983
 27.9626
 27.8628
 28.2804
 29.9563
 30.0515
 30.0267
 29.9943
 27.9303
 28.041
 28.008
 27.9549
 28.8654
 28.7825
 28.8099
 27.7552
 27.7488
 27.7466
 27.7469
 27.959
 28.0174
 28.0066
 27.9266
 27.9197
 30.8755
 30.8186
 29.4307
 29.4583
 29.3572
 29.4176
 31.2623
 31.347
 31.3406
 31.285
 29.8655
 28.9014
 28.8596
 28.9856
 28.5704
 28.5126
 28.4446
 28.5651
 29.8606
 29.845
 29.9219
 29.9235
 30.2112
 30.2397
 28.9776
 28.9375
 28.9342
 30.0312
 30.0801
 30.0218
 29.975
 30.1257
 30.1252
 30.0798
 30.0572
 27.9376
 27.8875
 29.8292
 29.7628
 29.8237
 29.8301
 30.856
 30.7151
 30.8274
 30.7221
 30.2519
 30.228
 30.0411
 30.191
 30.8794
 30.9719
 30.9019
 28.3219
 28.391
 28.2782
 28.5834
 28.5931
 27.9715
 27.9574
 28.0094
 30.5266
 30.6513
 30.616
 30.6005
 30.4239
 30.3722
 30.316
 32.5566
 32.36
 32.5385
 32.5978
 28.3747
 28.4791
 28.3779
 28.3308
 30.0828
 30.0557
 30.0883
 29.9595
 28.9101
 28.973
 28.9538
 28.9061
 28.3851
 28.4067
 28.4947
 28.4351
 30.4535
 30.4372
 30.4027
 30.3514
 29.4499
 29.3777
 29.4549
 28.594
 28.5911
 28.5341
 28.8818
 28.9019
 28.897
 28.8013
 29.4618
 29.5657
 29.5628
 29.5485
 28.8876
 28.8496
 28.8202
 30.9093
 30.7326
 30.8906
 30.8715
 29.3621
 29.3556
 29.3413
 29.4198
 30.4593
 30.5473
 30.5347
 30.5329
 30.6443
 30.7758
 30.6353
 30.6625
 27.5189
 27.4258
 27.5532
 30.3867
 30.475
 30.383
 27.4966
 28.2962
 28.281
 28.3776
 28.3471
 30.6884
 28.5642
 29.9833
 29.99
 30.0575
 30.038
 30.8796
 30.9547
 31.0091
 30.9486
 28.7173
 29.5096
 27.6942
 27.7202
 27.7075
 27.7176
 32.3645
 32.3523
 32.396
 30.1125
 30.1944
 30.2341
 30.7322
 30.885
 27.3882
 27.3429
 27.4335
 27.394
 29.6581
 29.7861
 29.7017
 29.6841
 28.2608
 28.1884
 28.182
 28.8392
 28.9021
 28.7278
 28.7615
 28.6406
 28.7209
 27.8667
 27.9208
 27.9293
 27.8793
 29.4854
 29.4734
 29.3515
 29.3998
 28.0299
 27.9817
 28.0502
 28.0049
 29.3792
 29.3146
 29.2287
 29.3419
 28.4535
 28.4315
 28.4003
 28.4879
 28.2968
 28.3756
 28.3079
 28.1496
 30.2644
 30.4114
 30.2215
 30.1643
 29.2157
 27.8005
 27.7092
 27.7449
 27.733
 29.041
 29.0317
 29.1458
 29.0224
 28.9336
 28.911
 30.4143
 30.5218
 30.5031
 30.3924
 29.8701
 29.972
 29.8795
 29.2851
 29.3042
 29.3389
 29.3824
 27.536
 27.6073
 27.6224
 27.5895
 30.0869
 30.0877
 30.1529
 30.1763
 28.6068
 28.7147
 28.7135
 28.6709
 29.2935
 29.2838
 29.3433
 30.5888
 30.4764
 30.5218
 30.5164
 31.4198
 31.3689
 31.4744
 31.3286
 29.914
 29.968
 29.9756
 28.2073
 28.204
 28.1537
 29.0062
 28.3906
 28.4893
 28.4576
 28.4527
 30.1499
 30.1813
 30.1725
 30.1747
 28.116
 27.9931
 28.0561
 28.0746
 29.192
 29.3076
 28.7348
 28.7882
 28.7604
 28.7194
 28.7194
 28.7472
 28.8712
 31.6325
 31.5908
 31.7478
 31.6499
 27.3367
 27.2233
 27.2636
 27.3254
 29.8106
 29.7244
 29.7682
 30.3261
 30.2438
 30.3912
 30.2192
 28.6187
 28.7396
 28.6972
 32.2407
 32.332
 32.4187
 32.2713
 28.4152
 28.4014
 28.3167
 28.3107
 28.3672
 28.354
 30.7425
 30.8387
 30.784
 30.8426
 30.4617
 30.4601
 30.4264
 30.5089
 31.2487
 31.1794
 31.1001
 31.2138
 29.4995
 31.2829
 31.1381
 31.1471
 31.1616
 28.4495
 28.5178
 28.5428
 28.5648
 30.4289
 30.3052
 28.5124
 28.4706
 28.4681
 28.5582
 28.1996
 28.1602
 28.2074
 28.1634
 27.6123
 27.5728
 27.5777
 27.4878
 32.2849
 32.3132
 32.2125
 28.884
 28.8007
 28.8309
 28.84
 28.2644
 28.2503
 28.3087
 28.2835
 31.6521
 31.5998
 31.5711
 31.678
 28.8407
 28.4379
 28.4143
 28.3826
 28.458
 27.9503
 27.9147
 27.9503
 29.4796
 29.4278
 29.4404
 29.3868
 27.6751
 27.5861
 27.5532
 27.5925
 29.0298
 28.9877
 29.0325
 29.0419
 28.9381
 30.1526
 30.2798
 30.1255
 29.1014
 29.1848
 29.1506
 29.0665
 29.2161
 29.1878
 29.1433
 29.2646
 29.8394
 29.9476
 29.9145
 30.811
 31.4666
 31.3783
 31.5759
 28.7757
 28.7284
 28.7507
 28.4448
 28.4318
 28.478
 30.2923
 30.1958
 30.2314
 30.1164
 28.6184
 28.6715
 27.9666
 28.0087
 28.0274
 28.0019
 27.829
 27.8432
 27.8479
 28.1026
 28.0505
 28.8495
 28.784
 28.8359
 28.1954
 28.2983
 28.2351
 30.5029
 32.354
 32.4298
 32.3176
 32.3251
 28.8697
 28.8468
 28.9167
 28.8905
 32.0169
 31.9729
 31.8816
 32.0179
 28.5262
 28.5087
 28.4775
 29.3463
 29.369
 29.4577
 29.4707
 30.1113
 30.072
 30.2054
 30.1455
 29.0308
 29.0176
 28.9401
 28.5482
 28.4859
 29.4699
 29.3676
 29.4227
 29.4492
 29.815
 29.7584
 29.8008
 30.5261
 30.5088
 30.5076
 28.9263
 28.884
 28.8363
 28.9398
 28.3752
 28.2904
 28.356
 28.3177
 27.3286
 27.3813
 27.3083
 27.3744
 29.1772
 29.196
 27.2935
 27.3559
 27.3767
 28.7136
 30.717
 30.6285
 30.565
 30.6162
 30.0619
 30.0002
 30.0751
 30.0193
 28.688
 28.7395
 28.7041
 28.0544
 28.0005
 30.8639
 30.8218
 30.9392
 30.7871
 28.464
 28.5023
 30.7223
 30.7737
 29.0516
 29.0537
 29.0937
 30.979
 31.0922
 30.9423
 30.1072
 30.1402
 30.1787
 30.1822
 28.0642
 28.0555
 28.0257
 28.072
 29.6024
 29.5826
 29.5853
 29.4693
 29.5967
 29.5364
 29.4976
 27.8424
 27.9411
 27.9339
 27.9413
 31.4129
 31.3316
 31.4532
 29.2731
 29.3578
 29.3193
 28.3712
 28.3298
 28.634
 28.6497
 28.7308
 28.7169
 31.5184
 31.4314
 31.5004
 31.5262
 30.1325
 30.133
 30.1408
 30.0666
 28.3117
 28.2891
 28.258
 28.2516
 28.2274
 28.2653
 28.2522
 28.299
 29.5585
 29.6464
 29.5648
 29.5857
 27.4999
 27.3979
 27.4179
 27.5098
 30.5084
 30.4242
 30.5526
 31.6886
 31.8494
 31.8472
 29.0287
 28.9713
 28.5813
 28.5581
 28.6146
 28.5898
 28.0612
 28.0971
 27.9991
 27.9923
 29.7286
 29.2358
 29.6136
 29.5452
 29.5007
 29.4541
 32.479
 32.575
 32.61
 32.4034
 28.3965
 28.4291
 30.1822
 30.1467
 30.092
 29.888
 29.9252
 29.834
 29.8082
 30.7727
 30.8795
 29.8506
 29.8583
 29.915
 29.8178
 30.5664
